7497.03301,0.05208
7495.10426,0.05470
7493.17552,0.05537
7491.24677,0.05645
7489.31803,0.06043
7487.38928,0.06163
7485.46054,0.05855
7483.53179,0.05449
7481.60305,0.05191
7479.67430,0.05220
7477.74556,0.05224
7475.81681,0.04852
7473.88807,0.04469
7471.95932,0.04586
7470.03057,0.04998
7468.10183,0.05368
7466.17308,0.05500
7464.24434,0.05313
7462.31559,0.05168
7460.38685,0.05289
7458.45810,0.05296
7456.52936,0.05127
7454.60061,0.04982
7452.67187,0.04735
7450.74312,0.04486
7448.81438,0.04653
7446.88563,0.05139
7444.95689,0.05355
7443.02814,0.05189
7441.09940,0.05168
7439.17065,0.05144
7437.24190,0.04748
7435.31316,0.04452
7433.38441,0.04725
7431.45567,0.05176
7429.52692,0.05464
7427.59818,0.05619
7425.66943,0.05520
7423.74069,0.05241
7421.81194,0.05186
7419.88320,0.05249
7417.95445,0.05104
7416.02571,0.04744
7414.09696,0.04505
7412.16822,0.04598
7410.23947,0.04678
7408.31073,0.04577
7406.38198,0.04729
7404.45323,0.05203
7402.52449,0.05397
7400.59574,0.05103
7398.66700,0.04836
7396.73825,0.04890
7394.80951,0.05051
7392.88076,0.05048
7390.95202,0.05248
7389.02327,0.05877
7387.09453,0.06173
7385.16578,0.05764
7383.23704,0.05267
7381.30829,0.04706
7379.37955,0.04222
7377.45080,0.04456
7375.52205,0.05037
7373.59331,0.05211
7371.66456,0.05299
7369.73582,0.05529
7367.80707,0.05616
7365.87833,0.05377
7363.94958,0.05221
7362.02084,0.05377
7360.09209,0.05435
7358.16335,0.05245
7356.23460,0.05280
7354.30586,0.05589
7352.37711,0.05766
7350.44837,0.05597
7348.51962,0.05187
7346.59088,0.04998
7344.66213,0.05305
7342.73338,0.05568
7340.80464,0.05392
7338.87589,0.05123
7336.94715,0.05047
7335.01840,0.05282
7333.08966,0.05732
7331.16091,0.05710
7329.23217,0.05081
7327.30342,0.04600
7325.37468,0.04768
7323.44593,0.05291
7321.51719,0.05517
7319.58844,0.05297
7317.65970,0.05028
7315.73095,0.04956
7313.80221,0.05140
7311.87346,0.05275
7309.94471,0.05262
7308.01597,0.05433
7306.08722,0.05630
7304.15848,0.05503
7302.22973,0.05375
7300.30099,0.05407
7298.37224,0.05413
7296.44350,0.05584
7294.51475,0.05921
7292.58601,0.06020
7290.65726,0.05871
7288.72852,0.05717
7286.79977,0.05820
7284.87103,0.06071
7282.94228,0.06198
7281.01353,0.06212
7279.08479,0.06092
7277.15604,0.05754
7275.22730,0.05313
7273.29855,0.04887
7271.36981,0.04719
7269.44106,0.04988
7267.51232,0.05490
7265.58357,0.05724
7263.65483,0.05580
7261.72608,0.05441
7259.79734,0.05338
7257.86859,0.04951
7255.93985,0.04502
7254.01110,0.04363
7252.08236,0.04488
7250.15361,0.04635
7248.22486,0.04625
7246.29612,0.04601
7244.36737,0.04697
7242.43863,0.04667
7240.50988,0.04617
7238.58114,0.04617
7236.65239,0.04397
7234.72365,0.04196
7232.79490,0.04300
7230.86616,0.04415
7228.93741,0.04520
7227.00867,0.04720
7225.07992,0.04925
7223.15118,0.05352
7221.22243,0.05929
7219.29369,0.05947
7217.36494,0.05526
7215.43619,0.05138
7213.50745,0.04679
7211.57870,0.04526
7209.64996,0.04898
7207.72121,0.05233
7205.79247,0.05363
7203.86372,0.05217
7201.93498,0.04855
7200.00623,0.04825
7198.07749,0.05182
7196.14874,0.05577
7194.22000,0.05859
7192.29125,0.05856
7190.36251,0.05547
7188.43376,0.05175
7186.50501,0.04905
7184.57627,0.04844
7182.64752,0.04897
7180.71878,0.04695
7178.79003,0.04546
7176.86129,0.05058
7174.93254,0.05713
7173.00380,0.05723
7171.07505,0.05346
7169.14631,0.05025
7167.21756,0.04825
7165.28882,0.04847
7163.36007,0.04995
7161.43133,0.05046
7159.50258,0.05127
7157.57384,0.05268
7155.64509,0.05251
7153.71634,0.05040
7151.78760,0.04965
7149.85885,0.05215
7147.93011,0.05544
7146.00136,0.05603
7144.07262,0.05412
7142.14387,0.05322
7140.21513,0.05665
7138.28638,0.06039
7136.35764,0.05850
7134.42889,0.05498
7132.50015,0.05476
7130.57140,0.05501
7128.64266,0.05459
7126.71391,0.05546
7124.78516,0.05677
7122.85642,0.05490
7120.92767,0.05169
7118.99893,0.05218
7117.07018,0.05554
7115.14144,0.05688
7113.21269,0.05574
7111.28395,0.05688
7109.35520,0.05876
7107.42646,0.05487
7105.49771,0.05030
7103.56897,0.05173
7101.64022,0.05514
7099.71148,0.05722
7097.78273,0.05776
7095.85399,0.05554
7093.92524,0.05186
7091.99649,0.04891
7090.06775,0.04833
7088.13900,0.05033
7086.21026,0.05367
7084.28151,0.05649
7082.35277,0.05638
7080.42402,0.05478
7078.49528,0.05431
7076.56653,0.05332
7074.63779,0.05251
7072.70904,0.05462
7070.78030,0.05783
7068.85155,0.05756
7066.92281,0.05556
7064.99406,0.05570
7063.06532,0.05483
7061.13657,0.05121
7059.20782,0.04918
7057.27908,0.05132
7055.35033,0.05651
7053.42159,0.06051
7051.49284,0.05927
7049.56410,0.05481
7047.63535,0.05132
7045.70661,0.04931
7043.77786,0.04816
7041.84912,0.04743
7039.92037,0.04906
7037.99163,0.05314
7036.06288,0.05428
7034.13414,0.05217
7032.20539,0.05208
7030.27664,0.05406
7028.34790,0.05485
7026.41915,0.05382
7024.49041,0.05314
7022.56166,0.05259
7020.63292,0.05043
7018.70417,0.04840
7016.77543,0.04891
7014.84668,0.05208
7012.91794,0.05480
7010.98919,0.05382
7009.06045,0.05229
7007.13170,0.05393
7005.20296,0.05757
7003.27421,0.05997
7001.34547,0.05985
6999.41672,0.05799
6997.48797,0.05440
6995.55923,0.04970
6993.63048,0.04699
6991.70174,0.04753
6989.77299,0.05039
6987.84425,0.05332
6985.91550,0.05409
6983.98676,0.05164
6982.05801,0.04835
6980.12927,0.04828
6978.20052,0.05188
6976.27178,0.05525
6974.34303,0.05550
6972.41429,0.05218
6970.48554,0.04717
6968.55680,0.04416
6966.62805,0.04662
6964.69930,0.05391
6962.77056,0.05904
6960.84181,0.05746
6958.91307,0.05501
6956.98432,0.05644
6955.05558,0.05844
6953.12683,0.05768
6951.19809,0.05540
6949.26934,0.05419
6947.34060,0.05575
6945.41185,0.05775
6943.48311,0.05777
6941.55436,0.05643
6939.62562,0.05371
6937.69687,0.04974
6935.76812,0.04772
6933.83938,0.04975
6931.91063,0.05391
6929.98189,0.05688
6928.05314,0.05740
6926.12440,0.05553
6924.19565,0.05184
6922.26691,0.04754
6920.33816,0.04509
6918.40942,0.04594
6916.48067,0.04833
6914.55193,0.04969
6912.62318,0.04995
6910.69444,0.05028
6908.76569,0.05021
6906.83695,0.04814
6904.90820,0.04656
6902.97945,0.04865
6901.05071,0.05249
6899.12196,0.05443
6897.19322,0.05468
6895.26447,0.05499
6893.33573,0.05522
6891.40698,0.05466
6889.47824,0.05443
6887.54949,0.05465
6885.62075,0.05468
6883.69200,0.05507
6881.76326,0.05510
6879.83451,0.05352
6877.90577,0.05177
6875.97702,0.05173
6874.04828,0.05289
6872.11953,0.05405
6870.19078,0.05528
6868.26204,0.05618
6866.33329,0.05699
6864.40455,0.05738
6862.47580,0.05558
6860.54706,0.05146
6858.61831,0.04835
6856.68957,0.04940
6854.76082,0.05368
6852.83208,0.05649
6850.90333,0.05544
6848.97459,0.05355
6847.04584,0.05333
6845.11710,0.05301
6843.18835,0.05272
6841.25960,0.05398
6839.33086,0.05454
6837.40211,0.05308
6835.47337,0.05184
6833.54462,0.05207
6831.61588,0.05391
6829.68713,0.05532
6827.75839,0.05421
6825.82964,0.05177
6823.90090,0.04941
6821.97215,0.04845
6820.04341,0.04956
6818.11466,0.05121
6816.18592,0.05396
6814.25717,0.05698
6812.32843,0.05594
6810.39968,0.05176
6808.47093,0.04959
6806.54219,0.04935
6804.61344,0.04899
6802.68470,0.04908
6800.75595,0.05089
6798.82721,0.05387
6796.89846,0.05537
6794.96972,0.05397
6793.04097,0.05206
6791.11223,0.05157
6789.18348,0.05127
6787.25474,0.05045
6785.32599,0.05138
6783.39725,0.05452
6781.46850,0.05704
6779.53975,0.05735
6777.61101,0.05620
6775.68226,0.05489
6773.75352,0.05448
6771.82477,0.05500
6769.89603,0.05518
6767.96728,0.05297
6766.03854,0.04934
6764.10979,0.04707
6762.18105,0.04699
6760.25230,0.04873
6758.32356,0.05144
6756.39481,0.05353
6754.46607,0.05499
6752.53732,0.05648
6750.60858,0.05681
6748.67983,0.05543
6746.75108,0.05492
6744.82234,0.05549
6742.89359,0.05424
6740.96485,0.05071
6739.03610,0.04813
6737.10736,0.04751
6735.17861,0.04668
6733.24987,0.04621
6731.32112,0.04814
6729.39238,0.05118
6727.46363,0.05304
6725.53489,0.05299
6723.60614,0.05126
6721.67740,0.04929
6719.74865,0.04945
6717.81991,0.05179
6715.89116,0.05452
6713.96241,0.05592
6712.03367,0.05500
6710.10492,0.05331
6708.17618,0.05299
6706.24743,0.05346
6704.31869,0.05348
6702.38994,0.05174
6700.46120,0.04925
6698.53245,0.04835
6696.60371,0.04939
6694.67496,0.05218
6692.74622,0.05506
6690.81747,0.05573
6688.88873,0.05461
6686.95998,0.05325
6685.03123,0.05337
6683.10249,0.05443
6681.17374,0.05451
6679.24500,0.05395
6677.31625,0.05324
6675.38751,0.05163
6673.45876,0.05043
6671.53002,0.05068
6669.60127,0.05130
6667.67253,0.05239
6665.74378,0.05445
6663.81504,0.05577
6661.88629,0.05470
6659.95755,0.05161
6658.02880,0.04965
6656.10006,0.05133
6654.17131,0.05455
6652.24256,0.05557
6650.31382,0.05403
6648.38507,0.05194
6646.45633,0.05100
6644.52758,0.05224
6642.59884,0.05462
6640.67009,0.05618
6638.74135,0.05648
6636.81260,0.05538
6634.88386,0.05323
6632.95511,0.05155
6631.02637,0.05149
6629.09762,0.05245
6627.16888,0.05349
6625.24013,0.05514
6623.31139,0.05704
6621.38264,0.05693
6619.45389,0.05474
6617.52515,0.05260
6615.59640,0.05183
6613.66766,0.05185
6611.73891,0.05124
6609.81017,0.05037
6607.88142,0.05036
6605.95268,0.05032
6604.02393,0.05089
6602.09519,0.05250
6600.16644,0.05356
6598.23770,0.05390
6596.30895,0.05403
6594.38021,0.05319
6592.45146,0.05168
6590.52271,0.05092
6588.59397,0.05202
6586.66522,0.05327
6584.73648,0.05226
6582.80773,0.05095
6580.87899,0.05118
6578.95024,0.05076
6577.02150,0.05011
6575.09275,0.05116
6573.16401,0.05206
6571.23526,0.05118
6569.30652,0.05063
6567.37777,0.05229
6565.44903,0.05455
6563.52028,0.05528
6561.59154,0.05487
6559.66279,0.05461
6557.73404,0.05468
6555.80530,0.05418
6553.87655,0.05297
6551.94781,0.05162
6550.01906,0.05112
6548.09032,0.05233
6546.16157,0.05431
6544.23283,0.05531
6542.30408,0.05517
6540.37534,0.05427
6538.44659,0.05315
6536.51785,0.05310
6534.58910,0.05403
6532.66036,0.05391
6530.73161,0.05225
6528.80287,0.05032
6526.87412,0.04963
6524.94537,0.05078
6523.01663,0.05227
6521.08788,0.05268
6519.15914,0.05296
6517.23039,0.05359
6515.30165,0.05438
6513.37290,0.05527
6511.44416,0.05551
6509.51541,0.05477
6507.58667,0.05372
6505.65792,0.05306
6503.72918,0.05315
6501.80043,0.05299
6499.87169,0.05311
6497.94294,0.05542
6496.01419,0.05775
6494.08545,0.05676
6492.15670,0.05452
6490.22796,0.05358
6488.29921,0.05284
6486.37047,0.05256
6484.44172,0.05437
6482.51298,0.05643
6480.58423,0.05623
6478.65549,0.05525
6476.72674,0.05567
6474.79800,0.05602
6472.86925,0.05530
6470.94051,0.05452
6469.01176,0.05355
6467.08302,0.05194
6465.15427,0.05031
6463.22552,0.05007
6461.29678,0.05259
6459.36803,0.05572
6457.43929,0.05650
6455.51054,0.05611
6453.58180,0.05601
6451.65305,0.05569
6449.72431,0.05579
6447.79556,0.05538
6445.86682,0.05200
6443.93807,0.04690
6442.00933,0.04431
6440.08058,0.04642
6438.15184,0.05104
6436.22309,0.05352
6434.29434,0.05261
6432.36560,0.05179
6430.43685,0.05338
6428.50811,0.05538
6426.57936,0.05537
6424.65062,0.05462
6422.72187,0.05494
6420.79313,0.05419
6418.86438,0.05177
6416.93564,0.05052
6415.00689,0.05064
6413.07815,0.05089
6411.14940,0.05138
6409.22066,0.05168
6407.29191,0.05214
6405.36317,0.05359
6403.43442,0.05439
6401.50567,0.05363
6399.57693,0.05336
6397.64818,0.05336
6395.71944,0.05271
6393.79069,0.05300
6391.86195,0.05329
6389.93320,0.05144
6388.00446,0.04967
6386.07571,0.05056
6384.14697,0.05332
6382.21822,0.05521
6380.28948,0.05443
6378.36073,0.05209
6376.43199,0.05072
6374.50324,0.05164
6372.57450,0.05453
6370.64575,0.05643
6368.71700,0.05441
6366.78826,0.05076
6364.85951,0.04974
6362.93077,0.05105
6361.00202,0.05172
6359.07328,0.05078
6357.14453,0.05036
6355.21579,0.05224
6353.28704,0.05382
6351.35830,0.05216
6349.42955,0.05031
6347.50081,0.05157
6345.57206,0.05400
6343.64332,0.05467
6341.71457,0.05383
6339.78582,0.05316
6337.85708,0.05330
6335.92833,0.05375
6333.99959,0.05376
6332.07084,0.05313
6330.14210,0.05263
6328.21335,0.05294
6326.28461,0.05460
6324.35586,0.05639
6322.42712,0.05548
6320.49837,0.05273
6318.56963,0.05140
6316.64088,0.05175
6314.71214,0.05183
6312.78339,0.05109
6310.85465,0.05087
6308.92590,0.05188
6306.99715,0.05261
6305.06841,0.05221
6303.13966,0.05268
6301.21092,0.05498
6299.28217,0.05698
6297.35343,0.05639
6295.42468,0.05428
6293.49594,0.05437
6291.56719,0.05685
6289.63845,0.05795
6287.70970,0.05710
6285.78096,0.05617
6283.85221,0.05470
6281.92347,0.05241
6279.99472,0.05134
6278.06598,0.05249
6276.13723,0.05449
6274.20848,0.05529
6272.27974,0.05502
6270.35099,0.05566
6268.42225,0.05659
6266.49350,0.05579
6264.56476,0.05433
6262.63601,0.05448
6260.70727,0.05551
6258.77852,0.05515
6256.84978,0.05326
6254.92103,0.05179
6252.99229,0.05272
6251.06354,0.05442
6249.13480,0.05385
6247.20605,0.05194
6245.27730,0.05144
6243.34856,0.05250
6241.41981,0.05274
6239.49107,0.05148
6237.56232,0.05128
6235.63358,0.05263
6233.70483,0.05380
6231.77609,0.05388
6229.84734,0.05235
6227.91860,0.05086
6225.98985,0.05169
6224.06111,0.05347
6222.13236,0.05406
6220.20362,0.05414
6218.27487,0.05429
6216.34613,0.05347
6214.41738,0.05210
6212.48863,0.05159
6210.55989,0.05164
6208.63114,0.05160
6206.70240,0.05181
6204.77365,0.05239
6202.84491,0.05264
6200.91616,0.05232
6198.98742,0.05230
6197.05867,0.05311
6195.12993,0.05505
6193.20118,0.05737
6191.27244,0.05751
6189.34369,0.05509
6187.41495,0.05315
6185.48620,0.05342
6183.55746,0.05415
6181.62871,0.05421
6179.69996,0.05502
6177.77122,0.05566
6175.84247,0.05348
6173.91373,0.05002
6171.98498,0.04857
6170.05624,0.04953
6168.12749,0.05181
6166.19875,0.05381
6164.27000,0.05438
6162.34126,0.05387
6160.41251,0.05330
6158.48377,0.05365
6156.55502,0.05456
6154.62628,0.05496
6152.69753,0.05504
6150.76878,0.05545
6148.84004,0.05610
6146.91129,0.05615
6144.98255,0.05509
6143.05380,0.05379
6141.12506,0.05305
6139.19631,0.05254
6137.26757,0.05260
6135.33882,0.05380
6133.41008,0.05509
6131.48133,0.05488
6129.55259,0.05303
6127.62384,0.05123
6125.69510,0.05122
6123.76635,0.05250
6121.83761,0.05385
6119.90886,0.05482
6117.98011,0.05457
6116.05137,0.05327
6114.12262,0.05245
6112.19388,0.05200
6110.26513,0.05180
6108.33639,0.05313
6106.40764,0.05496
6104.47890,0.05477
6102.55015,0.05268
6100.62141,0.05112
6098.69266,0.05170
6096.76392,0.05363
6094.83517,0.05444
6092.90643,0.05302
6090.97768,0.05130
6089.04893,0.05104
6087.12019,0.05185
6085.19144,0.05289
6083.26270,0.05378
6081.33395,0.05389
6079.40521,0.05348
6077.47646,0.05363
6075.54772,0.05372
6073.61897,0.05282
6071.69023,0.05213
6069.76148,0.05270
6067.83274,0.05378
6065.90399,0.05432
6063.97525,0.05446
6062.04650,0.05371
6060.11776,0.05221
6058.18901,0.05194
6056.26026,0.05312
6054.33152,0.05405
6052.40277,0.05387
6050.47403,0.05261
6048.54528,0.05129
6046.61654,0.05129
6044.68779,0.05251
6042.75905,0.05313
6040.83030,0.05273
6038.90156,0.05271
6036.97281,0.05295
6035.04407,0.05207
6033.11532,0.05100
6031.18658,0.05180
6029.25783,0.05374
6027.32909,0.05443
6025.40034,0.05307
6023.47159,0.05106
6021.54285,0.05036
6019.61410,0.05116
6017.68536,0.05216
6015.75661,0.05306
6013.82787,0.05429
6011.89912,0.05516
6009.97038,0.05477
6008.04163,0.05303
6006.11289,0.05083
6004.18414,0.04987
6002.25540,0.05037
6000.32665,0.05127
5998.39791,0.05203
5996.46916,0.05241
5994.54041,0.05280
5992.61167,0.05296
5990.68292,0.05240
5988.75418,0.05197
5986.82543,0.05228
5984.89669,0.05249
5982.96794,0.05198
5981.03920,0.05159
5979.11045,0.05166
5977.18171,0.05134
5975.25296,0.05057
5973.32422,0.05021
5971.39547,0.05106
5969.46673,0.05237
5967.53798,0.05246
5965.60924,0.05156
5963.68049,0.05065
5961.75174,0.04971
5959.82300,0.04889
5957.89425,0.04861
5955.96551,0.04932
5954.03676,0.05065
5952.10802,0.05070
5950.17927,0.04956
5948.25053,0.05007
5946.32178,0.05228
5944.39304,0.05354
5942.46429,0.05294
5940.53555,0.05132
5938.60680,0.04974
5936.67806,0.04978
5934.74931,0.05144
5932.82057,0.05227
5930.89182,0.05147
5928.96307,0.05026
5927.03433,0.04915
5925.10558,0.04868
5923.17684,0.04921
5921.24809,0.04985
5919.31935,0.04997
5917.39060,0.05036
5915.46186,0.05183
5913.53311,0.05305
5911.60437,0.05222
5909.67562,0.05090
5907.74688,0.05106
5905.81813,0.05204
5903.88939,0.05290
5901.96064,0.05289
5900.03189,0.05203
5898.10315,0.05152
5896.17440,0.05142
5894.24566,0.05142
5892.31691,0.05165
5890.38817,0.05173
5888.45942,0.05175
5886.53068,0.05259
5884.60193,0.05344
5882.67319,0.05310
5880.74444,0.05228
5878.81570,0.05145
5876.88695,0.05033
5874.95821,0.04959
5873.02946,0.04963
5871.10072,0.05018
5869.17197,0.05128
5867.24322,0.05245
5865.31448,0.05259
5863.38573,0.05185
5861.45699,0.05140
5859.52824,0.05166
5857.59950,0.05209
5855.67075,0.05197
5853.74201,0.05156
5851.81326,0.05176
5849.88452,0.05255
5847.95577,0.05325
5846.02703,0.05344
5844.09828,0.05303
5842.16954,0.05248
5840.24079,0.05218
5838.31205,0.05238
5836.38330,0.05307
5834.45455,0.05318
5832.52581,0.05246
5830.59706,0.05216
5828.66832,0.05264
5826.73957,0.05302
5824.81083,0.05303
5822.88208,0.05355
5820.95334,0.05444
5819.02459,0.05451
5817.09585,0.05354
5815.16710,0.05195
5813.23836,0.05076
5811.30961,0.05083
5809.38087,0.05099
5807.45212,0.05059
5805.52337,0.05083
5803.59463,0.05149
5801.66588,0.05153
5799.73714,0.05092
5797.80839,0.05023
5795.87965,0.05012
5793.95090,0.05081
5792.02216,0.05175
5790.09341,0.05245
5788.16467,0.05292
5786.23592,0.05286
5784.30718,0.05236
5782.37843,0.05242
5780.44969,0.05301
5778.52094,0.05359
5776.59220,0.05404
5774.66345,0.05407
5772.73470,0.05372
5770.80596,0.05296
5768.87721,0.05193
5766.94847,0.05163
5765.01972,0.05251
5763.09098,0.05379
5761.16223,0.05436
5759.23349,0.05421
5757.30474,0.05446
5755.37600,0.05504
5753.44725,0.05452
5751.51851,0.05353
5749.58976,0.05346
5747.66102,0.05332
5745.73227,0.05266
5743.80352,0.05221
5741.87478,0.05183
5739.94603,0.05170
5738.01729,0.05214
5736.08854,0.05287
5734.15980,0.05298
5732.23105,0.05165
5730.30231,0.04998
5728.37356,0.04964
5726.44482,0.05043
5724.51607,0.05145
5722.58733,0.05237
5720.65858,0.05299
5718.72984,0.05322
5716.80109,0.05350
5714.87235,0.05332
5712.94360,0.05243
5711.01485,0.05237
5709.08611,0.05331
5707.15736,0.05383
5705.22862,0.05345
5703.29987,0.05262
5701.37113,0.05204
5699.44238,0.05203
5697.51364,0.05262
5695.58489,0.05367
5693.65615,0.05484
5691.72740,0.05543
5689.79866,0.05523
5687.86991,0.05514
5685.94117,0.05533
5684.01242,0.05489
5682.08368,0.05395
5680.15493,0.05348
5678.22618,0.05369
5676.29744,0.05408
5674.36869,0.05440
5672.43995,0.05473
5670.51120,0.05485
5668.58246,0.05406
5666.65371,0.05282
5664.72497,0.05274
5662.79622,0.05357
5660.86748,0.05353
5658.93873,0.05270
5657.00999,0.05243
5655.08124,0.05269
5653.15250,0.05259
5651.22375,0.05212
5649.29500,0.05209
5647.36626,0.05275
5645.43751,0.05358
5643.50877,0.05435
5641.58002,0.05455
5639.65128,0.05437
5637.72253,0.05458
5635.79379,0.05437
5633.86504,0.05355
5631.93630,0.05329
5630.00755,0.05311
5628.07881,0.05221
5626.15006,0.05143
5624.22132,0.05133
5622.29257,0.05153
5620.36383,0.05194
5618.43508,0.05278
5616.50633,0.05409
5614.57759,0.05507
5612.64884,0.05516
5610.72010,0.05455
5608.79135,0.05347
5606.86261,0.05301
5604.93386,0.05383
5603.00512,0.05447
5601.07637,0.05414
5599.14763,0.05378
5597.21888,0.05381
5595.29014,0.05389
5593.36139,0.05419
5591.43265,0.05478
5589.50390,0.05525
5587.57516,0.05495
5585.64641,0.05361
5583.71766,0.05239
5581.78892,0.05294
5579.86017,0.05461
5577.93143,0.05521
5576.00268,0.05423
5574.07394,0.05289
5572.14519,0.05245
5570.21645,0.05366
5568.28770,0.05555
5566.35896,0.05607
5564.43021,0.05490
5562.50147,0.05364
5560.57272,0.05368
5558.64398,0.05424
5556.71523,0.05398
5554.78648,0.05384
5552.85774,0.05419
5550.92899,0.05390
5549.00025,0.05348
5547.07150,0.05356
5545.14276,0.05376
5543.21401,0.05403
5541.28527,0.05390
5539.35652,0.05316
5537.42778,0.05252
5535.49903,0.05276
5533.57029,0.05381
5531.64154,0.05430
5529.71280,0.05349
5527.78405,0.05294
5525.85531,0.05365
5523.92656,0.05461
5521.99781,0.05495
5520.06907,0.05446
5518.14032,0.05331
5516.21158,0.05255
5514.28283,0.05306
5512.35409,0.05428
5510.42534,0.05511
5508.49660,0.05503
5506.56785,0.05449
5504.63911,0.05461
5502.71036,0.05526
5500.78162,0.05495
5498.85287,0.05399
5496.92413,0.05407
5494.99538,0.05508
5493.06664,0.05585
5491.13789,0.05572
5489.20914,0.05493
5487.28040,0.05436
5485.35165,0.05411
5483.42291,0.05409
5481.49416,0.05474
5479.56542,0.05537
5477.63667,0.05474
5475.70793,0.05292
5473.77918,0.05190
5471.85044,0.05297
5469.92169,0.05431
5467.99295,0.05426
5466.06420,0.05396
5464.13546,0.05464
5462.20671,0.05552
5460.27796,0.05566
5458.34922,0.05506
5456.42047,0.05420
5454.49173,0.05389
5452.56298,0.05391
5450.63424,0.05358
5448.70549,0.05342
5446.77675,0.05378
5444.84800,0.05417
5442.91926,0.05440
5440.99051,0.05479
5439.06177,0.05533
5437.13302,0.05589
5435.20428,0.05632
5433.27553,0.05618
5431.34679,0.05574
5429.41804,0.05528
5427.48929,0.05490
5425.56055,0.05491
5423.63180,0.05475
5421.70306,0.05412
5419.77431,0.05349
5417.84557,0.05329
5415.91682,0.05367
5413.98808,0.05434
5412.05933,0.05503
5410.13059,0.05498
5408.20184,0.05363
5406.27310,0.05256
5404.34435,0.05295
5402.41561,0.05354
5400.48686,0.05338
5398.55811,0.05312
5396.62937,0.05363
5394.70062,0.05500
5392.77188,0.05629
5390.84313,0.05656
5388.91439,0.05548
5386.98564,0.05366
5385.05690,0.05291
5383.12815,0.05399
5381.19941,0.05516
5379.27066,0.05495
5377.34192,0.05433
5375.41317,0.05422
5373.48443,0.05386
5371.55568,0.05336
5369.62694,0.05341
5367.69819,0.05377
5365.76944,0.05455
5363.84070,0.05548
5361.91195,0.05565
5359.98321,0.05525
5358.05446,0.05497
5356.12572,0.05482
5354.19697,0.05473
5352.26823,0.05452
5350.33948,0.05411
5348.41074,0.05388
5346.48199,0.05409
5344.55325,0.05433
5342.62450,0.05460
5340.69576,0.05549
5338.76701,0.05647
5336.83827,0.05630
5334.90952,0.05523
5332.98077,0.05450
5331.05203,0.05443
5329.12328,0.05441
5327.19454,0.05388
5325.26579,0.05318
5323.33705,0.05307
5321.40830,0.05366
5319.47956,0.05439
5317.55081,0.05503
5315.62207,0.05547
5313.69332,0.05494
5311.76458,0.05373
5309.83583,0.05325
5307.90709,0.05355
5305.97834,0.05405
5304.04959,0.05487
5302.12085,0.05562
5300.19210,0.05563
5298.26336,0.05489
5296.33461,0.05432
5294.40587,0.05458
5292.47712,0.05501
5290.54838,0.05480
5288.61963,0.05450
5286.69089,0.05475
5284.76214,0.05498
5282.83340,0.05497
5280.90465,0.05474
5278.97591,0.05390
5277.04716,0.05307
5275.11842,0.05315
5273.18967,0.05393
5271.26092,0.05465
5269.33218,0.05466
5267.40343,0.05388
5265.47469,0.05311
5263.54594,0.05312
5261.61720,0.05388
5259.68845,0.05468
5257.75971,0.05505
5255.83096,0.05486
5253.90222,0.05430
5251.97347,0.05408
5250.04473,0.05471
5248.11598,0.05576
5246.18724,0.05627
5244.25849,0.05575
5242.32975,0.05507
5240.40100,0.05489
5238.47225,0.05485
5236.54351,0.05484
5234.61476,0.05486
5232.68602,0.05492
5230.75727,0.05545
5228.82853,0.05597
5226.89978,0.05569
5224.97104,0.05547
5223.04229,0.05576
5221.11355,0.05553
5219.18480,0.05499
5217.25606,0.05482
5215.32731,0.05434
5213.39857,0.05340
5211.46982,0.05302
5209.54107,0.05319
5207.61233,0.05328
5205.68358,0.05376
5203.75484,0.05479
5201.82609,0.05534
5199.89735,0.05496
5197.96860,0.05454
5196.03986,0.05462
5194.11111,0.05485
5192.18237,0.05524
5190.25362,0.05566
5188.32488,0.05560
5186.39613,0.05513
5184.46739,0.05479
5182.53864,0.05492
5180.60990,0.05522
5178.68115,0.05543
5176.75240,0.05594
5174.82366,0.05634
5172.89491,0.05587
5170.96617,0.05500
5169.03742,0.05449
5167.10868,0.05443
5165.17993,0.05435
5163.25119,0.05404
5161.32244,0.05407
5159.39370,0.05448
5157.46495,0.05472
5155.53621,0.05491
5153.60746,0.05479
5151.67872,0.05407
5149.74997,0.05386
5147.82123,0.05477
5145.89248,0.05559
5143.96373,0.05515
5142.03499,0.05377
5140.10624,0.05275
5138.17750,0.05281
5136.24875,0.05354
5134.32001,0.05405
5132.39126,0.05390
5130.46252,0.05363
5128.53377,0.05372
5126.60503,0.05413
5124.67628,0.05488
5122.74754,0.05548
5120.81879,0.05509
5118.89005,0.05409
5116.96130,0.05367
5115.03255,0.05404
5113.10381,0.05449
5111.17506,0.05459
5109.24632,0.05423
5107.31757,0.05394
5105.38883,0.05417
5103.46008,0.05448
5101.53134,0.05474
5099.60259,0.05502
5097.67385,0.05510
5095.74510,0.05479
5093.81636,0.05412
5091.88761,0.05396
5089.95887,0.05461
5088.03012,0.05499
5086.10138,0.05494
5084.17263,0.05524
5082.24388,0.05563
5080.31514,0.05546
5078.38639,0.05504
5076.45765,0.05478
5074.52890,0.05439
5072.60016,0.05389
5070.67141,0.05398
5068.74267,0.05472
5066.81392,0.05515
5064.88518,0.05490
5062.95643,0.05451
5061.02769,0.05437
5059.09894,0.05457
5057.17020,0.05517
5055.24145,0.05583
5053.31270,0.05590
5051.38396,0.05538
5049.45521,0.05509
5047.52647,0.05541
5045.59772,0.05610
5043.66898,0.05670
5041.74023,0.05662
5039.81149,0.05591
5037.88274,0.05511
5035.95400,0.05455
5034.02525,0.05463
5032.09651,0.05522
5030.16776,0.05558
5028.23902,0.05549
5026.31027,0.05527
5024.38153,0.05499
5022.45278,0.05485
5020.52403,0.05531
5018.59529,0.05593
5016.66654,0.05575
5014.73780,0.05518
5012.80905,0.05520
5010.88031,0.05550
5008.95156,0.05539
5007.02282,0.05537
5005.09407,0.05547
5003.16533,0.05507
5001.23658,0.05467
4999.30784,0.05477
4997.37909,0.05477
4995.45035,0.05433
4993.52160,0.05400
4991.59286,0.05441
4989.66411,0.05545
4987.73536,0.05651
4985.80662,0.05680
4983.87787,0.05615
4981.94913,0.05535
4980.02038,0.05496
4978.09164,0.05481
4976.16289,0.05489
4974.23415,0.05504
4972.30540,0.05499
4970.37666,0.05497
4968.44791,0.05509
4966.51917,0.05522
4964.59042,0.05544
4962.66168,0.05557
4960.73293,0.05584
4958.80418,0.05652
4956.87544,0.05669
4954.94669,0.05596
4953.01795,0.05547
4951.08920,0.05563
4949.16046,0.05535
4947.23171,0.05466
4945.30297,0.05466
4943.37422,0.05510
4941.44548,0.05518
4939.51673,0.05492
4937.58799,0.05469
4935.65924,0.05457
4933.73050,0.05454
4931.80175,0.05476
4929.87301,0.05521
4927.94426,0.05553
4926.01551,0.05550
4924.08677,0.05559
4922.15802,0.05605
4920.22928,0.05618
4918.30053,0.05605
4916.37179,0.05633
4914.44304,0.05638
4912.51430,0.05574
4910.58555,0.05542
4908.65681,0.05606
4906.72806,0.05696
4904.79932,0.05722
4902.87057,0.05683
4900.94183,0.05617
4899.01308,0.05552
4897.08434,0.05514
4895.15559,0.05503
4893.22684,0.05505
4891.29810,0.05522
4889.36935,0.05555
4887.44061,0.05587
4885.51186,0.05585
4883.58312,0.05580
4881.65437,0.05584
4879.72563,0.05519
4877.79688,0.05418
4875.86814,0.05394
4873.93939,0.05427
4872.01065,0.05444
4870.08190,0.05465
4868.15316,0.05522
4866.22441,0.05556
4864.29566,0.05534
4862.36692,0.05525
4860.43817,0.05552
4858.50943,0.05560
4856.58068,0.05527
4854.65194,0.05488
4852.72319,0.05480
4850.79445,0.05496
4848.86570,0.05520
4846.93696,0.05551
4845.00821,0.05564
4843.07947,0.05552
4841.15072,0.05556
4839.22198,0.05571
4837.29323,0.05550
4835.36449,0.05501
4833.43574,0.05506
4831.50699,0.05559
4829.57825,0.05552
4827.64950,0.05512
4825.72076,0.05506
4823.79201,0.05501
4821.86327,0.05497
4819.93452,0.05509
4818.00578,0.05507
4816.07703,0.05505
4814.14829,0.05548
4812.21954,0.05626
4810.29080,0.05672
4808.36205,0.05638
4806.43331,0.05539
4804.50456,0.05450
4802.57582,0.05440
4800.64707,0.05475
4798.71832,0.05525
4796.78958,0.05599
4794.86083,0.05633
4792.93209,0.05607
4791.00334,0.05584
4789.07460,0.05557
4787.14585,0.05504
4785.21711,0.05489
4783.28836,0.05512
4781.35962,0.05504
4779.43087,0.05472
4777.50213,0.05447
4775.57338,0.05429
4773.64464,0.05443
4771.71589,0.05491
4769.78714,0.05519
4767.85840,0.05507
4765.92965,0.05503
4764.00091,0.05493
4762.07216,0.05446
4760.14342,0.05419
4758.21467,0.05447
4756.28593,0.05474
4754.35718,0.05467
4752.42844,0.05453
4750.49969,0.05453
4748.57095,0.05454
4746.64220,0.05456
4744.71346,0.05463
4742.78471,0.05424
4740.85597,0.05358
4738.92722,0.05392
4736.99847,0.05503
4735.06973,0.05543
4733.14098,0.05514
4731.21224,0.05506
4729.28349,0.05527
4727.35475,0.05527
4725.42600,0.05501
4723.49726,0.05497
4721.56851,0.05513
4719.63977,0.05494
4717.71102,0.05479
4715.78228,0.05522
4713.85353,0.05556
4711.92479,0.05547
4709.99604,0.05529
4708.06729,0.05512
4706.13855,0.05489
4704.20980,0.05466
4702.28106,0.05437
4700.35231,0.05419
4698.42357,0.05439
4696.49482,0.05466
4694.56608,0.05472
4692.63733,0.05479
4690.70859,0.05483
4688.77984,0.05450
4686.85110,0.05406
4684.92235,0.05402
4682.99361,0.05424
4681.06486,0.05416
4679.13612,0.05399
4677.20737,0.05406
4675.27862,0.05411
4673.34988,0.05407
4671.42113,0.05409
4669.49239,0.05403
4667.56364,0.05377
4665.63490,0.05354
4663.70615,0.05360
4661.77741,0.05404
4659.84866,0.05468
4657.91992,0.05511
4655.99117,0.05535
4654.06243,0.05558
4652.13368,0.05558
4650.20494,0.05549
4648.27619,0.05538
4646.34745,0.05499
4644.41870,0.05467
4642.48995,0.05477
4640.56121,0.05515
4638.63246,0.05560
4636.70372,0.05573
4634.77497,0.05522
4632.84623,0.05449
4630.91748,0.05444
4628.98874,0.05519
4627.05999,0.05578
4625.13125,0.05565
4623.20250,0.05544
4621.27376,0.05545
4619.34501,0.05527
4617.41627,0.05485
4615.48752,0.05452
4613.55877,0.05440
4611.63003,0.05437
4609.70128,0.05434
4607.77254,0.05436
4605.84379,0.05434
4603.91505,0.05412
4601.98630,0.05398
4600.05756,0.05426
4598.12881,0.05461
4596.20007,0.05453
4594.27132,0.05418
4592.34258,0.05411
4590.41383,0.05462
4588.48509,0.05541
4586.55634,0.05596
4584.62760,0.05597
4582.69885,0.05539
4580.77010,0.05466
4578.84136,0.05444
4576.91261,0.05464
4574.98387,0.05442
4573.05512,0.05362
4571.12638,0.05298
4569.19763,0.05312
4567.26889,0.05386
4565.34014,0.05454
4563.41140,0.05476
4561.48265,0.05468
4559.55391,0.05463
4557.62516,0.05471
4555.69642,0.05466
4553.76767,0.05434
4551.83893,0.05399
4549.91018,0.05376
4547.98143,0.05368
4546.05269,0.05381
4544.12394,0.05387
4542.19520,0.05372
4540.26645,0.05379
4538.33771,0.05409
4536.40896,0.05430
4534.48022,0.05428
4532.55147,0.05397
4530.62273,0.05372
4528.69398,0.05397
4526.76524,0.05435
4524.83649,0.05435
4522.90775,0.05417
4520.97900,0.05419
4519.05025,0.05432
4517.12151,0.05429
4515.19276,0.05416
4513.26402,0.05403
4511.33527,0.05377
4509.40653,0.05345
4507.47778,0.05321
4505.54904,0.05300
4503.62029,0.05284
4501.69155,0.05294
4499.76280,0.05324
4497.83406,0.05321
4495.90531,0.05269
4493.97657,0.05232
4492.04782,0.05247
4490.11908,0.05265
4488.19033,0.05240
4486.26158,0.05207
4484.33284,0.05207
4482.40409,0.05207
4480.47535,0.05180
4478.54660,0.05176
4476.61786,0.05204
4474.68911,0.05216
4472.76037,0.05206
4470.83162,0.05190
4468.90288,0.05189
4466.97413,0.05197
4465.04539,0.05199
4463.11664,0.05214
4461.18790,0.05223
4459.25915,0.05206
4457.33041,0.05194
4455.40166,0.05189
4453.47291,0.05168
4451.54417,0.05131
4449.61542,0.05094
4447.68668,0.05065
4445.75793,0.05056
4443.82919,0.05097
4441.90044,0.05166
4439.97170,0.05178
4438.04295,0.05130
4436.11421,0.05095
4434.18546,0.05092
4432.25672,0.05110
4430.32797,0.05132
4428.39923,0.05131
4426.47048,0.05131
4424.54173,0.05153
4422.61299,0.05154
4420.68424,0.05120
4418.75550,0.05092
4416.82675,0.05101
4414.89801,0.05136
4412.96926,0.05163
4411.04052,0.05182
4409.11177,0.05215
4407.18303,0.05251
4405.25428,0.05246
4403.32554,0.05202
4401.39679,0.05162
4399.46805,0.05137
4397.53930,0.05116
4395.61056,0.05105
4393.68181,0.05101
4391.75306,0.05092
4389.82432,0.05095
4387.89557,0.05129
4385.96683,0.05165
4384.03808,0.05190
4382.10934,0.05222
4380.18059,0.05257
4378.25185,0.05279
4376.32310,0.05269
4374.39436,0.05223
4372.46561,0.05183
4370.53687,0.05176
4368.60812,0.05181
4366.67938,0.05190
4364.75063,0.05212
4362.82189,0.05227
4360.89314,0.05232
4358.96439,0.05256
4357.03565,0.05301
4355.10690,0.05333
4353.17816,0.05343
4351.24941,0.05340
4349.32067,0.05315
4347.39192,0.05267
4345.46318,0.05219
4343.53443,0.05209
4341.60569,0.05240
4339.67694,0.05254
4337.74820,0.05227
4335.81945,0.05212
4333.89071,0.05237
4331.96196,0.05256
4330.03321,0.05259
4328.10447,0.05268
4326.17572,0.05284
4324.24698,0.05299
4322.31823,0.05307
4320.38949,0.05310
4318.46074,0.05313
4316.53200,0.05310
4314.60325,0.05303
4312.67451,0.05303
4310.74576,0.05302
4308.81702,0.05285
4306.88827,0.05281
4304.95953,0.05306
4303.03078,0.05324
4301.10204,0.05309
4299.17329,0.05277
4297.24454,0.05249
4295.31580,0.05219
4293.38705,0.05188
4291.45831,0.05199
4289.52956,0.05269
4287.60082,0.05343
4285.67207,0.05367
4283.74333,0.05349
4281.81458,0.05317
4279.88584,0.05293
4277.95709,0.05291
4276.02835,0.05302
4274.09960,0.05311
4272.17086,0.05326
4270.24211,0.05352
4268.31336,0.05363
4266.38462,0.05340
4264.45587,0.05294
4262.52713,0.05261
4260.59838,0.05258
4258.66964,0.05276
4256.74089,0.05304
4254.81215,0.05311
4252.88340,0.05305
4250.95466,0.05316
4249.02591,0.05313
4247.09717,0.05289
4245.16842,0.05284
4243.23968,0.05297
4241.31093,0.05300
4239.38219,0.05280
4237.45344,0.05252
4235.52469,0.05243
4233.59595,0.05256
4231.66720,0.05271
4229.73846,0.05283
4227.80971,0.05309
4225.88097,0.05345
4223.95222,0.05363
4222.02348,0.05353
4220.09473,0.05342
4218.16599,0.05336
4216.23724,0.05306
4214.30850,0.05254
4212.37975,0.05214
4210.45101,0.05214
4208.52226,0.05242
4206.59352,0.05260
4204.66477,0.05261
4202.73602,0.05257
4200.80728,0.05253
4198.87853,0.05263
4196.94979,0.05278
4195.02104,0.05290
4193.09230,0.05307
4191.16355,0.05310
4189.23481,0.05279
4187.30606,0.05253
4185.37732,0.05254
4183.44857,0.05259
4181.51983,0.05267
4179.59108,0.05290
4177.66234,0.05302
4175.73359,0.05291
4173.80484,0.05290
4171.87610,0.05308
4169.94735,0.05314
4168.01861,0.05296
4166.08986,0.05279
4164.16112,0.05274
4162.23237,0.05285
4160.30363,0.05314
4158.37488,0.05320
4156.44614,0.05296
4154.51739,0.05289
4152.58865,0.05301
4150.65990,0.05307
4148.73116,0.05300
4146.80241,0.05269
4144.87367,0.05230
4142.94492,0.05238
4141.01617,0.05289
4139.08743,0.05342
4137.15868,0.05378
4135.22994,0.05387
4133.30119,0.05371
4131.37245,0.05352
4129.44370,0.05345
4127.51496,0.05342
4125.58621,0.05328
4123.65747,0.05322
4121.72872,0.05337
4119.79998,0.05330
4117.87123,0.05289
4115.94249,0.05266
4114.01374,0.05291
4112.08500,0.05327
4110.15625,0.05334
4108.22750,0.05312
4106.29876,0.05293
4104.37001,0.05297
4102.44127,0.05308
4100.51252,0.05300
4098.58378,0.05280
4096.65503,0.05272
4094.72629,0.05283
4092.79754,0.05305
4090.86880,0.05320
4088.94005,0.05319
4087.01131,0.05306
4085.08256,0.05287
4083.15382,0.05275
4081.22507,0.05283
4079.29632,0.05310
4077.36758,0.05332
4075.43883,0.05320
4073.51009,0.05304
4071.58134,0.05320
4069.65260,0.05327
4067.72385,0.05311
4065.79511,0.05323
4063.86636,0.05363
4061.93762,0.05384
4060.00887,0.05379
4058.08013,0.05357
4056.15138,0.05319
4054.22264,0.05297
4052.29389,0.05312
4050.36515,0.05349
4048.43640,0.05383
4046.50765,0.05402
4044.57891,0.05408
4042.65016,0.05409
4040.72142,0.05399
4038.79267,0.05389
4036.86393,0.05400
4034.93518,0.05397
4033.00644,0.05370
4031.07769,0.05357
4029.14895,0.05351
4027.22020,0.05342
4025.29146,0.05349
4023.36271,0.05357
4021.43397,0.05369
4019.50522,0.05394
4017.57648,0.05405
4015.64773,0.05396
4013.71898,0.05381
4011.79024,0.05352
4009.86149,0.05326
4007.93275,0.05362
4006.00400,0.05438
4004.07526,0.05462
4002.14651,0.05425
4000.21777,0.05387
3998.28902,0.05363
3996.36028,0.05338
3994.43153,0.05331
3992.50279,0.05339
3990.57404,0.05329
3988.64530,0.05316
3986.71655,0.05324
3984.78780,0.05345
3982.85906,0.05383
3980.93031,0.05431
3979.00157,0.05446
3977.07282,0.05425
3975.14408,0.05404
3973.21533,0.05392
3971.28659,0.05384
3969.35784,0.05384
3967.42910,0.05394
3965.50035,0.05403
3963.57161,0.05398
3961.64286,0.05379
3959.71412,0.05355
3957.78537,0.05361
3955.85663,0.05392
3953.92788,0.05409
3951.99913,0.05400
3950.07039,0.05394
3948.14164,0.05412
3946.21290,0.05415
3944.28415,0.05383
3942.35541,0.05352
3940.42666,0.05350
3938.49792,0.05366
3936.56917,0.05372
3934.64043,0.05363
3932.71168,0.05353
3930.78294,0.05347
3928.85419,0.05349
3926.92545,0.05366
3924.99670,0.05407
3923.06795,0.05456
3921.13921,0.05475
3919.21046,0.05454
3917.28172,0.05421
3915.35297,0.05408
3913.42423,0.05420
3911.49548,0.05435
3909.56674,0.05435
3907.63799,0.05424
3905.70925,0.05410
3903.78050,0.05405
3901.85176,0.05422
3899.92301,0.05430
3897.99427,0.05409
3896.06552,0.05390
3894.13678,0.05391
3892.20803,0.05397
3890.27928,0.05389
3888.35054,0.05378
3886.42179,0.05389
3884.49305,0.05423
3882.56430,0.05445
3880.63556,0.05433
3878.70681,0.05409
3876.77807,0.05402
3874.84932,0.05420
3872.92058,0.05445
3870.99183,0.05439
3869.06309,0.05425
3867.13434,0.05443
3865.20560,0.05458
3863.27685,0.05461
3861.34811,0.05478
3859.41936,0.05507
3857.49061,0.05538
3855.56187,0.05553
3853.63312,0.05530
3851.70438,0.05485
3849.77563,0.05442
3847.84689,0.05410
3845.91814,0.05403
3843.98940,0.05414
3842.06065,0.05434
3840.13191,0.05448
3838.20316,0.05444
3836.27442,0.05457
3834.34567,0.05476
3832.41693,0.05449
3830.48818,0.05412
3828.55943,0.05419
3826.63069,0.05444
3824.70194,0.05446
3822.77320,0.05429
3820.84445,0.05437
3818.91571,0.05459
3816.98696,0.05449
3815.05822,0.05443
3813.12947,0.05459
3811.20073,0.05455
3809.27198,0.05441
3807.34324,0.05451
3805.41449,0.05488
3803.48575,0.05514
3801.55700,0.05486
3799.62826,0.05447
3797.69951,0.05443
3795.77076,0.05444
3793.84202,0.05447
3791.91327,0.05471
3789.98453,0.05511
3788.05578,0.05534
3786.12704,0.05533
3784.19829,0.05529
3782.26955,0.05507
3780.34080,0.05462
3778.41206,0.05448
3776.48331,0.05475
3774.55457,0.05496
3772.62582,0.05486
3770.69708,0.05441
3768.76833,0.05393
3766.83959,0.05382
3764.91084,0.05404
3762.98209,0.05442
3761.05335,0.05473
3759.12460,0.05472
3757.19586,0.05450
3755.26711,0.05443
3753.33837,0.05463
3751.40962,0.05474
3749.48088,0.05444
3747.55213,0.05400
3745.62339,0.05374
3743.69464,0.05407
3741.76590,0.05469
3739.83715,0.05502
3737.90841,0.05498
3735.97966,0.05459
3734.05091,0.05413
3732.12217,0.05409
3730.19342,0.05449
3728.26468,0.05482
3726.33593,0.05473
3724.40719,0.05443
3722.47844,0.05430
3720.54970,0.05432
3718.62095,0.05438
3716.69221,0.05450
3714.76346,0.05449
3712.83472,0.05421
3710.90597,0.05421
3708.97723,0.05455
3707.04848,0.05449
3705.11974,0.05398
3703.19099,0.05361
3701.26224,0.05380
3699.33350,0.05411
3697.40475,0.05396
3695.47601,0.05366
3693.54726,0.05362
3691.61852,0.05371
3689.68977,0.05379
3687.76103,0.05372
3685.83228,0.05331
3683.90354,0.05288
3681.97479,0.05269
3680.04605,0.05275
3678.11730,0.05297
3676.18856,0.05312
3674.25981,0.05287
3672.33107,0.05248
3670.40232,0.05230
3668.47357,0.05231
3666.54483,0.05233
3664.61608,0.05222
3662.68734,0.05210
3660.75859,0.05208
3658.82985,0.05209
3656.90110,0.05220
3654.97236,0.05237
3653.04361,0.05228
3651.11487,0.05193
3649.18612,0.05157
3647.25738,0.05136
3645.32863,0.05138
3643.39989,0.05154
3641.47114,0.05161
3639.54239,0.05157
3637.61365,0.05157
3635.68490,0.05170
3633.75616,0.05201
3631.82741,0.05221
3629.89867,0.05181
3627.96992,0.05108
3626.04118,0.05090
3624.11243,0.05119
3622.18369,0.05154
3620.25494,0.05175
3618.32620,0.05163
3616.39745,0.05121
3614.46871,0.05083
3612.53996,0.05088
3610.61122,0.05115
3608.68247,0.05130
3606.75372,0.05152
3604.82498,0.05185
3602.89623,0.05220
3600.96749,0.05243
3599.03874,0.05228
3597.11000,0.05198
3595.18125,0.05187
3593.25251,0.05196
3591.32376,0.05220
3589.39502,0.05240
3587.46627,0.05239
3585.53753,0.05217
3583.60878,0.05210
3581.68004,0.05213
3579.75129,0.05191
3577.82254,0.05163
3575.89380,0.05167
3573.96505,0.05162
3572.03631,0.05125
3570.10756,0.05101
3568.17882,0.05108
3566.25007,0.05128
3564.32133,0.05139
3562.39258,0.05131
3560.46384,0.05127
3558.53509,0.05151
3556.60635,0.05169
3554.67760,0.05163
3552.74886,0.05167
3550.82011,0.05185
3548.89137,0.05187
3546.96262,0.05169
3545.03387,0.05159
3543.10513,0.05183
3541.17638,0.05215
3539.24764,0.05204
3537.31889,0.05174
3535.39015,0.05175
3533.46140,0.05173
3531.53266,0.05134
3529.60391,0.05107
3527.67517,0.05122
3525.74642,0.05138
3523.81768,0.05135
3521.88893,0.05143
3519.96019,0.05154
3518.03144,0.05137
3516.10270,0.05128
3514.17395,0.05152
3512.24520,0.05175
3510.31646,0.05171
3508.38771,0.05166
3506.45897,0.05173
3504.53022,0.05157
3502.60148,0.05125
3500.67273,0.05124
3498.74399,0.05158
3496.81524,0.05200
3494.88650,0.05216
3492.95775,0.05185
3491.02901,0.05142
3489.10026,0.05141
3487.17152,0.05176
3485.24277,0.05188
3483.31402,0.05171
3481.38528,0.05169
3479.45653,0.05180
3477.52779,0.05163
3475.59904,0.05122
3473.67030,0.05092
3471.74155,0.05096
3469.81281,0.05122
3467.88406,0.05142
3465.95532,0.05150
3464.02657,0.05181
3462.09783,0.05233
3460.16908,0.05233
3458.24034,0.05178
3456.31159,0.05143
3454.38285,0.05140
3452.45410,0.05130
3450.52535,0.05113
3448.59661,0.05113
3446.66786,0.05111
3444.73912,0.05092
3442.81037,0.05091
3440.88163,0.05110
3438.95288,0.05103
3437.02414,0.05070
3435.09539,0.05054
3433.16665,0.05060
3431.23790,0.05059
3429.30916,0.05053
3427.38041,0.05060
3425.45167,0.05076
3423.52292,0.05084
3421.59418,0.05092
3419.66543,0.05108
3417.73668,0.05120
3415.80794,0.05131
3413.87919,0.05155
3411.95045,0.05184
3410.02170,0.05205
3408.09296,0.05213
3406.16421,0.05209
3404.23547,0.05201
3402.30672,0.05189
3400.37798,0.05174
3398.44923,0.05165
3396.52049,0.05164
3394.59174,0.05183
3392.66300,0.05223
3390.73425,0.05234
3388.80550,0.05196
3386.87676,0.05159
3384.94801,0.05152
3383.01927,0.05143
3381.09052,0.05126
3379.16178,0.05160
3377.23303,0.05236
3375.30429,0.05256
3373.37554,0.05207
3371.44680,0.05170
3369.51805,0.05184
3367.58931,0.05218
3365.66056,0.05233
3363.73182,0.05211
3361.80307,0.05193
3359.87433,0.05219
3357.94558,0.05237
3356.01683,0.05205
3354.08809,0.05169
3352.15934,0.05172
3350.23060,0.05188
3348.30185,0.05180
3346.37311,0.05159
3344.44436,0.05150
3342.51562,0.05156
3340.58687,0.05171
3338.65813,0.05168
3336.72938,0.05152
3334.80064,0.05170
3332.87189,0.05218
3330.94315,0.05239
3329.01440,0.05229
3327.08566,0.05218
3325.15691,0.05198
3323.22816,0.05165
3321.29942,0.05142
3319.37067,0.05147
3317.44193,0.05175
3315.51318,0.05196
3313.58444,0.05199
3311.65569,0.05207
3309.72695,0.05217
3307.79820,0.05183
3305.86946,0.05110
3303.94071,0.05083
3302.01197,0.05129
3300.08322,0.05192
3298.15448,0.05226
3296.22573,0.05222
3294.29698,0.05193
3292.36824,0.05160
3290.43949,0.05141
3288.51075,0.05143
3286.58200,0.05154
3284.65326,0.05152
3282.72451,0.05140
3280.79577,0.05132
3278.86702,0.05137
3276.93828,0.05143
3275.00953,0.05134
3273.08079,0.05130
3271.15204,0.05140
3269.22330,0.05158
3267.29455,0.05180
3265.36581,0.05176
3263.43706,0.05145
3261.50831,0.05126
3259.57957,0.05117
3257.65082,0.05130
3255.72208,0.05185
3253.79333,0.05223
3251.86459,0.05206
3249.93584,0.05192
3248.00710,0.05203
3246.07835,0.05204
3244.14961,0.05171
3242.22086,0.05132
3240.29212,0.05122
3238.36337,0.05126
3236.43463,0.05123
3234.50588,0.05119
3232.57713,0.05128
3230.64839,0.05138
3228.71964,0.05122
3226.79090,0.05099
3224.86215,0.05094
3222.93341,0.05086
3221.00466,0.05073
3219.07592,0.05077
3217.14717,0.05095
3215.21843,0.05116
3213.28968,0.05128
3211.36094,0.05112
3209.43219,0.05105
3207.50345,0.05137
3205.57470,0.05156
3203.64596,0.05136
3201.71721,0.05126
3199.78846,0.05153
3197.85972,0.05184
3195.93097,0.05178
3194.00223,0.05145
3192.07348,0.05115
3190.14474,0.05105
3188.21599,0.05118
3186.28725,0.05134
3184.35850,0.05120
3182.42976,0.05078
3180.50101,0.05044
3178.57227,0.05030
3176.64352,0.05037
3174.71478,0.05072
3172.78603,0.05125
3170.85729,0.05157
3168.92854,0.05144
3166.99979,0.05110
3165.07105,0.05090
3163.14230,0.05094
3161.21356,0.05108
3159.28481,0.05106
3157.35607,0.05101
3155.42732,0.05098
3153.49858,0.05080
3151.56983,0.05066
3149.64109,0.05071
3147.71234,0.05074
3145.78360,0.05082
3143.85485,0.05106
3141.92611,0.05126
3139.99736,0.05118
3138.06861,0.05100
3136.13987,0.05110
3134.21112,0.05138
3132.28238,0.05145
3130.35363,0.05123
3128.42489,0.05082
3126.49614,0.05049
3124.56740,0.05049
3122.63865,0.05056
3120.70991,0.05054
3118.78116,0.05073
3116.85242,0.05088
3114.92367,0.05053
3112.99493,0.05016
3111.06618,0.05028
3109.13744,0.05055
3107.20869,0.05065
3105.27994,0.05074
3103.35120,0.05074
3101.42245,0.05039
3099.49371,0.04993
3097.56496,0.04970
3095.63622,0.04967
3093.70747,0.04989
3091.77873,0.05022
3089.84998,0.05043
3087.92124,0.05040
3085.99249,0.05011
3084.06375,0.04995
3082.13500,0.05014
3080.20626,0.05020
3078.27751,0.05004
3076.34877,0.05003
3074.42002,0.05005
3072.49127,0.04979
3070.56253,0.04950
3068.63378,0.04960
3066.70504,0.04995
3064.77629,0.05011
3062.84755,0.04989
3060.91880,0.04947
3058.99006,0.04910
3057.06131,0.04888
3055.13257,0.04880
3053.20382,0.04879
3051.27508,0.04880
3049.34633,0.04882
3047.41759,0.04887
3045.48884,0.04889
3043.56009,0.04879
3041.63135,0.04861
3039.70260,0.04845
3037.77386,0.04831
3035.84511,0.04827
3033.91637,0.04824
3031.98762,0.04809
3030.05888,0.04795
3028.13013,0.04795
3026.20139,0.04797
3024.27264,0.04796
3022.34390,0.04792
3020.41515,0.04776
3018.48641,0.04747
3016.55766,0.04719
3014.62892,0.04709
3012.70017,0.04716
3010.77142,0.04737
3008.84268,0.04761
3006.91393,0.04782
3004.98519,0.04797
3003.05644,0.04803
3001.12770,0.04805
2999.19895,0.04814
2997.27021,0.04831
2995.34146,0.04868
2993.41272,0.04921
2991.48397,0.04965
2989.55523,0.04996
2987.62648,0.05018
2985.69774,0.05023
2983.76899,0.05022
2981.84025,0.05028
2979.91150,0.05032
2977.98275,0.05023
2976.05401,0.05004
2974.12526,0.04971
2972.19652,0.04925
2970.26777,0.04896
2968.33903,0.04897
2966.41028,0.04899
2964.48154,0.04891
2962.55279,0.04891
2960.62405,0.04896
2958.69530,0.04901
2956.76656,0.04915
2954.83781,0.04942
2952.90907,0.04983
2950.98032,0.05044
2949.05157,0.05124
2947.12283,0.05219
2945.19408,0.05300
2943.26534,0.05334
2941.33659,0.05341
2939.40785,0.05371
2937.47910,0.05427
2935.55036,0.05468
2933.62161,0.05495
2931.69287,0.05536
2929.76412,0.05581
2927.83538,0.05611
2925.90663,0.05624
2923.97789,0.05608
2922.04914,0.05583
2920.12040,0.05591
2918.19165,0.05618
2916.26290,0.05627
2914.33416,0.05608
2912.40541,0.05571
2910.47667,0.05536
2908.54792,0.05507
2906.61918,0.05478
2904.69043,0.05455
2902.76169,0.05435
2900.83294,0.05424
2898.90420,0.05431
2896.97545,0.05434
2895.04671,0.05414
2893.11796,0.05380
2891.18922,0.05354
2889.26047,0.05349
2887.33172,0.05355
2885.40298,0.05356
2883.47423,0.05360
2881.54549,0.05369
2879.61674,0.05368
2877.68800,0.05363
2875.75925,0.05350
2873.83051,0.05322
2871.90176,0.05319
2869.97302,0.05349
2868.04427,0.05357
2866.11553,0.05340
2864.18678,0.05344
2862.25804,0.05375
2860.32929,0.05398
2858.40055,0.05422
2856.47180,0.05464
2854.54305,0.05502
2852.61431,0.05505
2850.68556,0.05468
2848.75682,0.05420
2846.82807,0.05382
2844.89933,0.05358
2842.97058,0.05341
2841.04184,0.05326
2839.11309,0.05318
2837.18435,0.05316
2835.25560,0.05310
2833.32686,0.05301
2831.39811,0.05307
2829.46937,0.05318
2827.54062,0.05311
2825.61188,0.05294
2823.68313,0.05287
2821.75438,0.05295
2819.82564,0.05307
2817.89689,0.05290
2815.96815,0.05256
2814.03940,0.05257
2812.11066,0.05290
2810.18191,0.05306
2808.25317,0.05300
2806.32442,0.05298
2804.39568,0.05301
2802.46693,0.05304
2800.53819,0.05316
2798.60944,0.05327
2796.68070,0.05320
2794.75195,0.05300
2792.82320,0.05294
2790.89446,0.05309
2788.96571,0.05312
2787.03697,0.05284
2785.10822,0.05251
2783.17948,0.05251
2781.25073,0.05271
2779.32199,0.05283
2777.39324,0.05293
2775.46450,0.05303
2773.53575,0.05296
2771.60701,0.05274
2769.67826,0.05268
2767.74952,0.05284
2765.82077,0.05294
2763.89203,0.05284
2761.96328,0.05270
2760.03453,0.05252
2758.10579,0.05225
2756.17704,0.05210
2754.24830,0.05240
2752.31955,0.05299
2750.39081,0.05327
2748.46206,0.05308
2746.53332,0.05272
2744.60457,0.05249
2742.67583,0.05249
2740.74708,0.05257
2738.81834,0.05256
2736.88959,0.05253
2734.96085,0.05249
2733.03210,0.05244
2731.10336,0.05247
2729.17461,0.05265
2727.24586,0.05291
2725.31712,0.05308
2723.38837,0.05297
2721.45963,0.05274
2719.53088,0.05268
2717.60214,0.05270
2715.67339,0.05260
2713.74465,0.05254
2711.81590,0.05272
2709.88716,0.05297
2707.95841,0.05291
2706.02967,0.05255
2704.10092,0.05242
2702.17218,0.05268
2700.24343,0.05299
2698.31468,0.05310
2696.38594,0.05309
2694.45719,0.05308
2692.52845,0.05311
2690.59970,0.05319
2688.67096,0.05325
2686.74221,0.05311
2684.81347,0.05287
2682.88472,0.05279
2680.95598,0.05291
2679.02723,0.05304
2677.09849,0.05309
2675.16974,0.05303
2673.24100,0.05294
2671.31225,0.05286
2669.38351,0.05280
2667.45476,0.05276
2665.52601,0.05270
2663.59727,0.05262
2661.66852,0.05262
2659.73978,0.05266
2657.81103,0.05267
2655.88229,0.05268
2653.95354,0.05273
2652.02480,0.05269
2650.09605,0.05247
2648.16731,0.05221
2646.23856,0.05203
2644.30982,0.05197
2642.38107,0.05200
2640.45233,0.05210
2638.52358,0.05227
2636.59484,0.05249
2634.66609,0.05257
2632.73734,0.05246
2630.80860,0.05241
2628.87985,0.05251
2626.95111,0.05261
2625.02236,0.05262
2623.09362,0.05248
2621.16487,0.05224
2619.23613,0.05206
2617.30738,0.05197
2615.37864,0.05204
2613.44989,0.05225
2611.52115,0.05236
2609.59240,0.05232
2607.66366,0.05223
2605.73491,0.05217
2603.80616,0.05217
2601.87742,0.05205
2599.94867,0.05187
2598.01993,0.05183
2596.09118,0.05181
2594.16244,0.05174
2592.23369,0.05181
2590.30495,0.05202
2588.37620,0.05218
2586.44746,0.05222
2584.51871,0.05223
2582.58997,0.05218
2580.66122,0.05211
2578.73248,0.05219
2576.80373,0.05244
2574.87499,0.05258
2572.94624,0.05244
2571.01749,0.05221
2569.08875,0.05216
2567.16000,0.05223
2565.23126,0.05230
2563.30251,0.05234
2561.37377,0.05231
2559.44502,0.05217
2557.51628,0.05206
2555.58753,0.05211
2553.65879,0.05228
2551.73004,0.05244
2549.80130,0.05255
2547.87255,0.05255
2545.94381,0.05247
2544.01506,0.05236
2542.08631,0.05237
2540.15757,0.05239
2538.22882,0.05229
2536.30008,0.05220
2534.37133,0.05219
2532.44259,0.05219
2530.51384,0.05222
2528.58510,0.05226
2526.65635,0.05219
2524.72761,0.05210
2522.79886,0.05206
2520.87012,0.05198
2518.94137,0.05192
2517.01263,0.05201
2515.08388,0.05220
2513.15514,0.05236
2511.22639,0.05246
2509.29764,0.05236
2507.36890,0.05214
2505.44015,0.05208
2503.51141,0.05217
2501.58266,0.05225
2499.65392,0.05225
2497.72517,0.05221
2495.79643,0.05227
2493.86768,0.05239
2491.93894,0.05237
2490.01019,0.05219
2488.08145,0.05205
2486.15270,0.05204
2484.22396,0.05207
2482.29521,0.05210
2480.36647,0.05211
2478.43772,0.05206
2476.50897,0.05203
2474.58023,0.05207
2472.65148,0.05213
2470.72274,0.05218
2468.79399,0.05217
2466.86525,0.05208
2464.93650,0.05200
2463.00776,0.05197
2461.07901,0.05206
2459.15027,0.05227
2457.22152,0.05230
2455.29278,0.05206
2453.36403,0.05189
2451.43529,0.05190
2449.50654,0.05189
2447.57779,0.05184
2445.64905,0.05195
2443.72030,0.05224
2441.79156,0.05249
2439.86281,0.05251
2437.93407,0.05234
2436.00532,0.05211
2434.07658,0.05201
2432.14783,0.05204
2430.21909,0.05212
2428.29034,0.05212
2426.36160,0.05195
2424.43285,0.05168
2422.50411,0.05155
2420.57536,0.05164
2418.64662,0.05182
2416.71787,0.05195
2414.78912,0.05182
2412.86038,0.05151
2410.93163,0.05146
2409.00289,0.05171
2407.07414,0.05191
2405.14540,0.05195
2403.21665,0.05202
2401.28791,0.05209
2399.35916,0.05197
2397.43042,0.05171
2395.50167,0.05163
2393.57293,0.05171
2391.64418,0.05175
2389.71544,0.05172
2387.78669,0.05171
2385.85795,0.05172
2383.92920,0.05180
2382.00045,0.05186
2380.07171,0.05170
2378.14296,0.05151
2376.21422,0.05151
2374.28547,0.05158
2372.35673,0.05163
2370.42798,0.05167
2368.49924,0.05171
2366.57049,0.05169
2364.64175,0.05158
2362.71300,0.05156
2360.78426,0.05163
2358.85551,0.05168
2356.92677,0.05178
2354.99802,0.05184
2353.06927,0.05174
2351.14053,0.05155
2349.21178,0.05147
2347.28304,0.05154
2345.35429,0.05163
2343.42555,0.05161
2341.49680,0.05143
2339.56806,0.05118
2337.63931,0.05112
2335.71057,0.05137
2333.78182,0.05174
2331.85308,0.05181
2329.92433,0.05155
2327.99559,0.05127
2326.06684,0.05121
2324.13810,0.05148
2322.20935,0.05189
2320.28060,0.05202
2318.35186,0.05183
2316.42311,0.05161
2314.49437,0.05154
2312.56562,0.05152
2310.63688,0.05148
2308.70813,0.05149
2306.77939,0.05157
2304.85064,0.05171
2302.92190,0.05188
2300.99315,0.05192
2299.06441,0.05185
2297.13566,0.05181
2295.20692,0.05171
2293.27817,0.05162
2291.34943,0.05170
2289.42068,0.05181
2287.49193,0.05177
2285.56319,0.05160
2283.63444,0.05149
2281.70570,0.05150
2279.77695,0.05148
2277.84821,0.05140
2275.91946,0.05131
2273.99072,0.05136
2272.06197,0.05151
2270.13323,0.05152
2268.20448,0.05130
2266.27574,0.05116
2264.34699,0.05130
2262.41825,0.05150
2260.48950,0.05154
2258.56075,0.05152
2256.63201,0.05155
2254.70326,0.05155
2252.77452,0.05157
2250.84577,0.05168
2248.91703,0.05176
2246.98828,0.05157
2245.05954,0.05120
2243.13079,0.05091
2241.20205,0.05084
2239.27330,0.05092
2237.34456,0.05102
2235.41581,0.05110
2233.48707,0.05115
2231.55832,0.05122
2229.62958,0.05132
2227.70083,0.05140
2225.77208,0.05137
2223.84334,0.05121
2221.91459,0.05101
2219.98585,0.05104
2218.05710,0.05136
2216.12836,0.05163
2214.19961,0.05160
2212.27087,0.05137
2210.34212,0.05127
2208.41338,0.05137
2206.48463,0.05145
2204.55589,0.05146
2202.62714,0.05143
2200.69840,0.05127
2198.76965,0.05110
2196.84090,0.05109
2194.91216,0.05122
2192.98341,0.05134
2191.05467,0.05132
2189.12592,0.05119
2187.19718,0.05120
2185.26843,0.05130
2183.33969,0.05126
2181.41094,0.05109
2179.48220,0.05103
2177.55345,0.05108
2175.62471,0.05102
2173.69596,0.05082
2171.76722,0.05073
2169.83847,0.05083
2167.90973,0.05097
2165.98098,0.05107
2164.05223,0.05110
2162.12349,0.05098
2160.19474,0.05086
2158.26600,0.05095
2156.33725,0.05105
2154.40851,0.05095
2152.47976,0.05084
2150.55102,0.05092
2148.62227,0.05100
2146.69353,0.05094
2144.76478,0.05072
2142.83604,0.05040
2140.90729,0.05016
2138.97855,0.05018
2137.04980,0.05036
2135.12106,0.05054
2133.19231,0.05070
2131.26356,0.05083
2129.33482,0.05081
2127.40607,0.05064
2125.47733,0.05051
2123.54858,0.05038
2121.61984,0.05025
2119.69109,0.05028
2117.76235,0.05047
2115.83360,0.05062
2113.90486,0.05062
2111.97611,0.05047
2110.04737,0.05035
2108.11862,0.05042
2106.18988,0.05056
2104.26113,0.05061
2102.33238,0.05065
2100.40364,0.05076
2098.47489,0.05078
2096.54615,0.05055
2094.61740,0.05023
2092.68866,0.05008
2090.75991,0.05013
2088.83117,0.05023
2086.90242,0.05031
2084.97368,0.05021
2083.04493,0.05003
2081.11619,0.05007
2079.18744,0.05033
2077.25870,0.05046
2075.32995,0.05032
2073.40121,0.05022
2071.47246,0.05032
2069.54371,0.05038
2067.61497,0.05027
2065.68622,0.05012
2063.75748,0.04998
2061.82873,0.04991
2059.89999,0.04996
2057.97124,0.05007
2056.04250,0.05016
2054.11375,0.05015
2052.18501,0.05003
2050.25626,0.04995
2048.32752,0.04992
2046.39877,0.04988
2044.47003,0.04986
2042.54128,0.04988
2040.61254,0.04990
2038.68379,0.04990
2036.75504,0.04984
2034.82630,0.04976
2032.89755,0.04979
2030.96881,0.04983
2029.04006,0.04985
2027.11132,0.05002
2025.18257,0.05022
2023.25383,0.05023
2021.32508,0.05015
2019.39634,0.05005
2017.46759,0.04994
2015.53885,0.04986
2013.61010,0.04986
2011.68136,0.04983
2009.75261,0.04973
2007.82386,0.04974
2005.89512,0.04985
2003.96637,0.04988
2002.03763,0.04974
2000.10888,0.04958
1998.18014,0.04957
1996.25139,0.04960
1994.32265,0.04952
1992.39390,0.04941
1990.46516,0.04935
1988.53641,0.04936
1986.60767,0.04941
1984.67892,0.04936
1982.75018,0.04923
1980.82143,0.04923
1978.89269,0.04935
1976.96394,0.04943
1975.03519,0.04940
1973.10645,0.04936
1971.17770,0.04937
1969.24896,0.04937
1967.32021,0.04929
1965.39147,0.04918
1963.46272,0.04918
1961.53398,0.04927
1959.60523,0.04931
1957.67649,0.04929
1955.74774,0.04937
1953.81900,0.04951
1951.89025,0.04951
1949.96151,0.04936
1948.03276,0.04915
1946.10402,0.04901
1944.17527,0.04908
1942.24652,0.04920
1940.31778,0.04925
1938.38903,0.04929
1936.46029,0.04936
1934.53154,0.04931
1932.60280,0.04906
1930.67405,0.04880
1928.74531,0.04864
1926.81656,0.04859
1924.88782,0.04868
1922.95907,0.04881
1921.03033,0.04879
1919.10158,0.04869
1917.17284,0.04864
1915.24409,0.04868
1913.31534,0.04873
1911.38660,0.04870
1909.45785,0.04867
1907.52911,0.04881
1905.60036,0.04893
1903.67162,0.04882
1901.74287,0.04859
1899.81413,0.04843
1897.88538,0.04836
1895.95664,0.04830
1894.02789,0.04821
1892.09915,0.04824
1890.17040,0.04829
1888.24166,0.04818
1886.31291,0.04803
1884.38417,0.04794
1882.45542,0.04790
1880.52667,0.04790
1878.59793,0.04789
1876.66918,0.04789
1874.74044,0.04785
1872.81169,0.04775
1870.88295,0.04770
1868.95420,0.04771
1867.02546,0.04755
1865.09671,0.04728
1863.16797,0.04712
1861.23922,0.04710
1859.31048,0.04704
1857.38173,0.04691
1855.45299,0.04682
1853.52424,0.04692
1851.59549,0.04709
1849.66675,0.04704
1847.73800,0.04677
1845.80926,0.04656
1843.88051,0.04637
1841.95177,0.04611
1840.02302,0.04601
1838.09428,0.04607
1836.16553,0.04600
1834.23679,0.04581
1832.30804,0.04569
1830.37930,0.04569
1828.45055,0.04571
1826.52181,0.04562
1824.59306,0.04547
1822.66432,0.04534
1820.73557,0.04522
1818.80682,0.04506
1816.87808,0.04491
1814.94933,0.04478
1813.02059,0.04465
1811.09184,0.04453
1809.16310,0.04442
1807.23435,0.04427
1805.30561,0.04399
1803.37686,0.04374
1801.44812,0.04352
1799.51937,0.04321
1797.59063,0.04290
1795.66188,0.04272
1793.73314,0.04259
1791.80439,0.04243
1789.87565,0.04231
1787.94690,0.04220
1786.01815,0.04206
1784.08941,0.04180
1782.16066,0.04130
1780.23192,0.04065
1778.30317,0.04013
1776.37443,0.03975
1774.44568,0.03932
1772.51694,0.03875
1770.58819,0.03813
1768.65945,0.03747
1766.73070,0.03677
1764.80196,0.03603
1762.87321,0.03508
1760.94447,0.03385
1759.01572,0.03258
1757.08697,0.03117
1755.15823,0.02958
1753.22948,0.02803
1751.30074,0.02639
1749.37199,0.02494
1747.44325,0.02436
1745.51450,0.02519
1743.58576,0.02777
1741.65701,0.03221
1739.72827,0.03848
1737.79952,0.04513
1735.87078,0.05166
1733.94203,0.05975
1732.01329,0.06809
1730.08454,0.07499
1728.15580,0.08102
1726.22705,0.08568
1724.29830,0.08848
1722.36956,0.08947
1720.44081,0.08903
1718.51207,0.08709
1716.58332,0.08360
1714.65458,0.08001
1712.72583,0.07707
1710.79709,0.07453
1708.86834,0.07231
1706.93960,0.07016
1705.01085,0.06793
1703.08211,0.06614
1701.15336,0.06462
1699.22462,0.06305
1697.29587,0.06194
1695.36713,0.06109
1693.43838,0.06036
1691.50963,0.05990
1689.58089,0.05961
1687.65214,0.05943
1685.72340,0.05911
1683.79465,0.05828
1681.86591,0.05755
1679.93716,0.05731
1678.00842,0.05723
1676.07967,0.05704
1674.15093,0.05666
1672.22218,0.05617
1670.29344,0.05559
1668.36469,0.05520
1666.43595,0.05523
1664.50720,0.05530
1662.57845,0.05520
1660.64971,0.05507
1658.72096,0.05499
1656.79222,0.05493
1654.86347,0.05487
1652.93473,0.05457
1651.00598,0.05415
1649.07724,0.05393
1647.14849,0.05372
1645.21975,0.05356
1643.29100,0.05345
1641.36226,0.05330
1639.43351,0.05313
1637.50477,0.05297
1635.57602,0.05290
1633.64728,0.05281
1631.71853,0.05265
1629.78978,0.05262
1627.86104,0.05267
1625.93229,0.05258
1624.00355,0.05230
1622.07480,0.05208
1620.14606,0.05218
1618.21731,0.05240
1616.28857,0.05235
1614.35982,0.05209
1612.43108,0.05192
1610.50233,0.05172
1608.57359,0.05152
1606.64484,0.05155
1604.71610,0.05167
1602.78735,0.05163
1600.85861,0.05139
1598.92986,0.05117
1597.00111,0.05117
1595.07237,0.05126
1593.14362,0.05131
1591.21488,0.05128
1589.28613,0.05104
1587.35739,0.05071
1585.42864,0.05059
1583.49990,0.05062
1581.57115,0.05059
1579.64241,0.05056
1577.71366,0.05048
1575.78492,0.05017
1573.85617,0.04982
1571.92743,0.04960
1569.99868,0.04943
1568.06993,0.04929
1566.14119,0.04919
1564.21244,0.04921
1562.28370,0.04934
1560.35495,0.04921
1558.42621,0.04862
1556.49746,0.04832
1554.56872,0.04836
1552.63997,0.04839
1550.71123,0.04836
1548.78248,0.04843
1546.85374,0.04873
1544.92499,0.04900
1542.99625,0.04890
1541.06750,0.04842
1539.13876,0.04787
1537.21001,0.04771
1535.28126,0.04784
1533.35252,0.04795
1531.42377,0.04793
1529.49503,0.04783
1527.56628,0.04760
1525.63754,0.04722
1523.70879,0.04689
1521.78005,0.04679
1519.85130,0.04679
1517.92256,0.04670
1515.99381,0.04648
1514.06507,0.04626
1512.13632,0.04605
1510.20758,0.04574
1508.27883,0.04514
1506.35008,0.04441
1504.42134,0.04421
1502.49259,0.04418
1500.56385,0.04380
1498.63510,0.04310
1496.70636,0.04229
1494.77761,0.04169
1492.84887,0.04149
1490.92012,0.04162
1488.99138,0.04203
1487.06263,0.04286
1485.13389,0.04401
1483.20514,0.04506
1481.27640,0.04567
1479.34765,0.04592
1477.41891,0.04615
1475.49016,0.04641
1473.56141,0.04650
1471.63267,0.04640
1469.70392,0.04633
1467.77518,0.04631
1465.84643,0.04622
1463.91769,0.04606
1461.98894,0.04606
1460.06020,0.04628
1458.13145,0.04650
1456.20271,0.04653
1454.27396,0.04668
1452.34522,0.04718
1450.41647,0.04801
1448.48773,0.04906
1446.55898,0.05013
1444.63024,0.05094
1442.70149,0.05140
1440.77274,0.05156
1438.84400,0.05182
1436.91525,0.05281
1434.98651,0.05455
1433.05776,0.05619
1431.12902,0.05723
1429.20027,0.05745
1427.27153,0.05710
1425.34278,0.05655
1423.41404,0.05594
1421.48529,0.05526
1419.55655,0.05445
1417.62780,0.05363
1415.69906,0.05301
1413.77031,0.05241
1411.84156,0.05167
1409.91282,0.05089
1407.98407,0.05029
1406.05533,0.04993
1404.12658,0.04965
1402.19784,0.04930
1400.26909,0.04894
1398.34035,0.04873
1396.41160,0.04867
1394.48286,0.04860
1392.55411,0.04865
1390.62537,0.04895
1388.69662,0.04935
1386.76788,0.04978
1384.83913,0.05028
1382.91039,0.05078
1380.98164,0.05114
1379.05289,0.05125
1377.12415,0.05110
1375.19540,0.05083
1373.26666,0.05060
1371.33791,0.05022
1369.40917,0.04973
1367.48042,0.04951
1365.55168,0.04975
1363.62293,0.05005
1361.69419,0.04986
1359.76544,0.04939
1357.83670,0.04908
1355.90795,0.04895
1353.97921,0.04889
1352.05046,0.04883
1350.12172,0.04878
1348.19297,0.04868
1346.26422,0.04844
1344.33548,0.04810
1342.40673,0.04777
1340.47799,0.04742
1338.54924,0.04706
1336.62050,0.04674
1334.69175,0.04656
1332.76301,0.04647
1330.83426,0.04627
1328.90552,0.04600
1326.97677,0.04582
1325.04803,0.04559
1323.11928,0.04522
1321.19054,0.04486
1319.26179,0.04461
1317.33304,0.04441
1315.40430,0.04420
1313.47555,0.04398
1311.54681,0.04365
1309.61806,0.04327
1307.68932,0.04290
1305.76057,0.04244
1303.83183,0.04201
1301.90308,0.04168
1299.97434,0.04123
1298.04559,0.04069
1296.11685,0.04020
1294.18810,0.03972
1292.25936,0.03925
1290.33061,0.03886
1288.40187,0.03847
1286.47312,0.03804
1284.54437,0.03763
1282.61563,0.03728
1280.68688,0.03709
1278.75814,0.03720
1276.82939,0.03771
1274.90065,0.03865
1272.97190,0.04003
1271.04316,0.04174
1269.11441,0.04332
1267.18567,0.04439
1265.25692,0.04488
1263.32818,0.04489
1261.39943,0.04454
1259.47069,0.04402
1257.54194,0.04358
1255.61320,0.04321
1253.68445,0.04288
1251.75570,0.04288
1249.82696,0.04336
1247.89821,0.04423
1245.96947,0.04545
1244.04072,0.04694
1242.11198,0.04856
1240.18323,0.05023
1238.25449,0.05182
1236.32574,0.05302
1234.39700,0.05365
1232.46825,0.05368
1230.53951,0.05326
1228.61076,0.05276
1226.68202,0.05221
1224.75327,0.05129
1222.82452,0.05009
1220.89578,0.04875
1218.96703,0.04718
1217.03829,0.04543
1215.10954,0.04367
1213.18080,0.04196
1211.25205,0.04033
1209.32331,0.03869
1207.39456,0.03732
1205.46582,0.03692
1203.53707,0.03759
1201.60833,0.03881
1199.67958,0.04050
1197.75084,0.04309
1195.82209,0.04644
1193.89335,0.04975
1191.96460,0.05253
1190.03585,0.05457
1188.10711,0.05561
1186.17836,0.05577
1184.24962,0.05545
1182.32087,0.05485
1180.39213,0.05412
1178.46338,0.05374
1176.53464,0.05385
1174.60589,0.05400
1172.67715,0.05403
1170.74840,0.05407
1168.81966,0.05401
1166.89091,0.05397
1164.96217,0.05425
1163.03342,0.05476
1161.10467,0.05543
1159.17593,0.05662
1157.24718,0.05866
1155.31844,0.06200
1153.38969,0.06724
1151.46095,0.07398
1149.53220,0.08082
1147.60346,0.08667
1145.67471,0.09098
1143.74597,0.09334
1141.81722,0.09392
1139.88848,0.09340
1137.95973,0.09239
1136.03099,0.09124
1134.10224,0.08998
1132.17350,0.08848
1130.24475,0.08679
1128.31600,0.08519
1126.38726,0.08379
1124.45851,0.08256
1122.52977,0.08137
1120.60102,0.08040
1118.67228,0.07981
1116.74353,0.07916
1114.81479,0.07802
1112.88604,0.07672
1110.95730,0.07577
1109.02855,0.07517
1107.09981,0.07461
1105.17106,0.07400
1103.24232,0.07343
1101.31357,0.07277
1099.38483,0.07190
1097.45608,0.07108
1095.52733,0.07046
1093.59859,0.06974
1091.66984,0.06888
1089.74110,0.06816
1087.81235,0.06747
1085.88361,0.06663
1083.95486,0.06601
1082.02612,0.06598
1080.09737,0.06636
1078.16863,0.06640
1076.23988,0.06573
1074.31114,0.06502
1072.38239,0.06479
1070.45365,0.06479
1068.52490,0.06500
1066.59615,0.06544
1064.66741,0.06564
1062.73866,0.06564
1060.80992,0.06589
1058.88117,0.06642
1056.95243,0.06693
1055.02368,0.06717
1053.09494,0.06712
1051.16619,0.06684
1049.23745,0.06631
1047.30870,0.06563
1045.37996,0.06505
1043.45121,0.06460
1041.52247,0.06396
1039.59372,0.06315
1037.66498,0.06258
1035.73623,0.06235
1033.80748,0.06211
1031.87874,0.06169
1029.94999,0.06144
1028.02125,0.06150
1026.09250,0.06149
1024.16376,0.06122
1022.23501,0.06079
1020.30627,0.06021
1018.37752,0.05963
1016.44878,0.05927
1014.52003,0.05872
1012.59129,0.05780
1010.66254,0.05694
1008.73380,0.05635
1006.80505,0.05583
1004.87631,0.05540
1002.94756,0.05523
1001.01881,0.05514
999.09007,0.05508
997.16132,0.05531
995.23258,0.05603
993.30383,0.05710
991.37509,0.05824
989.44634,0.05933
987.51760,0.06036
985.58885,0.06108
983.66011,0.06145
981.73136,0.06163
979.80262,0.06172
977.87387,0.06175
975.94513,0.06162
974.01638,0.06139
972.08763,0.06129
970.15889,0.06139
968.23014,0.06171
966.30140,0.06225
964.37265,0.06279
962.44391,0.06322
960.51516,0.06378
958.58642,0.06437
956.65767,0.06451
954.72893,0.06419
952.80018,0.06391
950.87144,0.06377
948.94269,0.06353
947.01395,0.06319
945.08520,0.06291
943.15646,0.06284
941.22771,0.06285
939.29896,0.06262
937.37022,0.06220
935.44147,0.06188
933.51273,0.06172
931.58398,0.06151
929.65524,0.06117
927.72649,0.06098
925.79775,0.06115
923.86900,0.06126
921.94026,0.06104
920.01151,0.06070
918.08277,0.06050
916.15402,0.06056
914.22528,0.06093
912.29653,0.06130
910.36779,0.06138
908.43904,0.06130
906.51029,0.06125
904.58155,0.06120
902.65280,0.06126
900.72406,0.06143
898.79531,0.06150
896.86657,0.06140
894.93782,0.06129
893.00908,0.06110
891.08033,0.06070
889.15159,0.06023
887.22284,0.05990
885.29410,0.05984
883.36535,0.05995
881.43661,0.05992
879.50786,0.05961
877.57911,0.05911
875.65037,0.05865
873.72162,0.05854
871.79288,0.05866
869.86413,0.05861
867.93539,0.05834
866.00664,0.05811
864.07790,0.05799
862.14915,0.05791
860.22041,0.05792
858.29166,0.05806
856.36292,0.05804
854.43417,0.05767
852.50543,0.05720
850.57668,0.05683
848.64794,0.05685
846.71919,0.05754
844.79044,0.05851
842.86170,0.05917
840.93295,0.05965
839.00421,0.06032
837.07546,0.06085
835.14672,0.06080
833.21797,0.06035
831.28923,0.05979
829.36048,0.05965
827.43174,0.06023
825.50299,0.06102
823.57425,0.06139
821.64550,0.06119
819.71676,0.06061
817.78801,0.05991
815.85926,0.05938
813.93052,0.05919
812.00177,0.05922
810.07303,0.05940
808.14428,0.05977
806.21554,0.06012
804.28679,0.06017
802.35805,0.06003
800.42930,0.05987
798.50056,0.05972
796.57181,0.05962
794.64307,0.05957
792.71432,0.05949
790.78558,0.05927
788.85683,0.05886
786.92809,0.05849
784.99934,0.05841
783.07059,0.05848
781.14185,0.05850
779.21310,0.05844
777.28436,0.05815
775.35561,0.05770
773.42687,0.05747
771.49812,0.05748
769.56938,0.05730
767.64063,0.05687
765.71189,0.05656
763.78314,0.05640
761.85440,0.05627
759.92565,0.05635
757.99691,0.05664
756.06816,0.05709
754.13942,0.05798
752.21067,0.05945
750.28192,0.06131
748.35318,0.06323
746.42443,0.06431
744.49569,0.06396
742.56694,0.06303
740.63820,0.06248
738.70945,0.06220
736.78071,0.06180
734.85196,0.06134
732.92322,0.06099
730.99447,0.06053
729.06573,0.06005
727.13698,0.06021
725.20824,0.06068
723.27949,0.06057
721.35074,0.06020
719.42200,0.06020
717.49325,0.06017
715.56451,0.05983
713.63576,0.05969
711.70702,0.05975
709.77827,0.05943
707.84953,0.05893
705.92078,0.05884
703.99204,0.05920
702.06329,0.05951
700.13455,0.05922
698.20580,0.05871
696.27706,0.05863
694.34831,0.05884
692.41957,0.05888
690.49082,0.05867
688.56207,0.05838
686.63333,0.05811
684.70458,0.05786
682.77584,0.05795
680.84709,0.05834
678.91835,0.05847
676.98960,0.05828
675.06086,0.05791
673.13211,0.05763
671.20337,0.05769
669.27462,0.05756
667.34588,0.05692
665.41713,0.05645
663.48839,0.05626
661.55964,0.05615
659.63090,0.05651
657.70215,0.05714
655.77340,0.05739
653.84466,0.05733
651.91591,0.05710
649.98717,0.05686
648.05842,0.05675
646.12968,0.05670
644.20093,0.05634
642.27219,0.05564
640.34344,0.05534
638.41470,0.05542
636.48595,0.05537
634.55721,0.05555
632.62846,0.05587
630.69972,0.05588
628.77097,0.05611
626.84222,0.05649
624.91348,0.05666
622.98473,0.05673
621.05599,0.05607
619.12724,0.05457
617.19850,0.05361
615.26975,0.05421
613.34101,0.05547
611.41226,0.05560
609.48352,0.05474
607.55477,0.05434
605.62603,0.05436
603.69728,0.05393
601.76854,0.05300
599.83979,0.05236
