7497.03301,0.05452
7495.10426,0.05374
7493.17552,0.04982
7491.24677,0.04708
7489.31803,0.04822
7487.38928,0.05315
7485.46054,0.05931
7483.53179,0.06049
7481.60305,0.05583
7479.67430,0.05135
7477.74556,0.05092
7475.81681,0.05568
7473.88807,0.06095
7471.95932,0.06325
7470.03057,0.06137
7468.10183,0.05625
7466.17308,0.05162
7464.24434,0.04865
7462.31559,0.04509
7460.38685,0.04318
7458.45810,0.04396
7456.52936,0.04623
7454.60061,0.04935
7452.67187,0.05210
7450.74312,0.04932
7448.81438,0.04442
7446.88563,0.04630
7444.95689,0.05212
7443.02814,0.05463
7441.09940,0.05391
7439.17065,0.05237
7437.24190,0.05169
7435.31316,0.05228
7433.38441,0.05323
7431.45567,0.05355
7429.52692,0.05436
7427.59818,0.05529
7425.66943,0.05416
7423.74069,0.05218
7421.81194,0.05283
7419.88320,0.05291
7417.95445,0.04860
7416.02571,0.04416
7414.09696,0.04195
7412.16822,0.03890
7410.23947,0.03890
7408.31073,0.04430
7406.38198,0.04971
7404.45323,0.05242
7402.52449,0.05389
7400.59574,0.05723
7398.66700,0.06292
7396.73825,0.06365
7394.80951,0.05930
7392.88076,0.05618
7390.95202,0.05427
7389.02327,0.05141
7387.09453,0.04951
7385.16578,0.05097
7383.23704,0.05292
7381.30829,0.05135
7379.37955,0.05133
7377.45080,0.05471
7375.52205,0.05806
7373.59331,0.05929
7371.66456,0.05718
7369.73582,0.05446
7367.80707,0.05410
7365.87833,0.05329
7363.94958,0.05239
7362.02084,0.05461
7360.09209,0.05751
7358.16335,0.05708
7356.23460,0.05490
7354.30586,0.05404
7352.37711,0.05370
7350.44837,0.05182
7348.51962,0.05098
7346.59088,0.05476
7344.66213,0.05877
7342.73338,0.05835
7340.80464,0.05716
7338.87589,0.05556
7336.94715,0.05177
7335.01840,0.04836
7333.08966,0.04467
7331.16091,0.04076
7329.23217,0.04117
7327.30342,0.04608
7325.37468,0.05200
7323.44593,0.05607
7321.51719,0.05775
7319.58844,0.05570
7317.65970,0.05124
7315.73095,0.04915
7313.80221,0.04970
7311.87346,0.05003
7309.94471,0.05044
7308.01597,0.05259
7306.08722,0.05629
7304.15848,0.05632
7302.22973,0.04935
7300.30099,0.04160
7298.37224,0.03938
7296.44350,0.04126
7294.51475,0.04548
7292.58601,0.05015
7290.65726,0.05241
7288.72852,0.05376
7286.79977,0.05484
7284.87103,0.05239
7282.94228,0.04681
7281.01353,0.04383
7279.08479,0.04770
7277.15604,0.05427
7275.22730,0.05563
7273.29855,0.05106
7271.36981,0.04622
7269.44106,0.04206
7267.51232,0.03947
7265.58357,0.04303
7263.65483,0.05051
7261.72608,0.05342
7259.79734,0.04855
7257.86859,0.04114
7255.93985,0.04028
7254.01110,0.04744
7252.08236,0.05246
7250.15361,0.05006
7248.22486,0.04882
7246.29612,0.05280
7244.36737,0.05755
7242.43863,0.06020
7240.50988,0.06042
7238.58114,0.05916
7236.65239,0.05770
7234.72365,0.05587
7232.79490,0.05294
7230.86616,0.04985
7228.93741,0.05181
7227.00867,0.05672
7225.07992,0.05489
7223.15118,0.04851
7221.22243,0.04728
7219.29369,0.05010
7217.36494,0.05369
7215.43619,0.05656
7213.50745,0.05628
7211.57870,0.05451
7209.64996,0.05392
7207.72121,0.05473
7205.79247,0.05748
7203.86372,0.05993
7201.93498,0.05868
7200.00623,0.05552
7198.07749,0.05402
7196.14874,0.05349
7194.22000,0.05155
7192.29125,0.04874
7190.36251,0.04830
7188.43376,0.04938
7186.50501,0.05013
7184.57627,0.05114
7182.64752,0.05058
7180.71878,0.04920
7178.79003,0.05061
7176.86129,0.05232
7174.93254,0.05164
7173.00380,0.05088
7171.07505,0.05179
7169.14631,0.05271
7167.21756,0.05173
7165.28882,0.05049
7163.36007,0.05032
7161.43133,0.04937
7159.50258,0.04841
7157.57384,0.04858
7155.64509,0.04960
7153.71634,0.05351
7151.78760,0.05863
7149.85885,0.05866
7147.93011,0.05509
7146.00136,0.05243
7144.07262,0.05056
7142.14387,0.04876
7140.21513,0.05020
7138.28638,0.05639
7136.35764,0.06071
7134.42889,0.05717
7132.50015,0.04888
7130.57140,0.04396
7128.64266,0.04657
7126.71391,0.05106
7124.78516,0.05338
7122.85642,0.05592
7120.92767,0.05768
7118.99893,0.05676
7117.07018,0.05388
7115.14144,0.05027
7113.21269,0.04919
7111.28395,0.05124
7109.35520,0.05274
7107.42646,0.05175
7105.49771,0.05097
7103.56897,0.05152
7101.64022,0.05128
7099.71148,0.05032
7097.78273,0.05115
7095.85399,0.05391
7093.92524,0.05548
7091.99649,0.05268
7090.06775,0.04908
7088.13900,0.05000
7086.21026,0.05221
7084.28151,0.05121
7082.35277,0.04929
7080.42402,0.04932
7078.49528,0.05062
7076.56653,0.05147
7074.63779,0.05187
7072.70904,0.05245
7070.78030,0.05323
7068.85155,0.05425
7066.92281,0.05282
7064.99406,0.04727
7063.06532,0.04270
7061.13657,0.04406
7059.20782,0.05069
7057.27908,0.05591
7055.35033,0.05352
7053.42159,0.04905
7051.49284,0.05051
7049.56410,0.05478
7047.63535,0.05471
7045.70661,0.05049
7043.77786,0.04872
7041.84912,0.05089
7039.92037,0.05183
7037.99163,0.05014
7036.06288,0.04985
7034.13414,0.05230
7032.20539,0.05437
7030.27664,0.05366
7028.34790,0.05205
7026.41915,0.05270
7024.49041,0.05398
7022.56166,0.05261
7020.63292,0.05232
7018.70417,0.05521
7016.77543,0.05617
7014.84668,0.05234
7012.91794,0.04767
7010.98919,0.04725
7009.06045,0.05068
7007.13170,0.05325
7005.20296,0.05456
7003.27421,0.05728
7001.34547,0.05974
6999.41672,0.05891
6997.48797,0.05627
6995.55923,0.05365
6993.63048,0.05086
6991.70174,0.04839
6989.77299,0.04849
6987.84425,0.05078
6985.91550,0.05228
6983.98676,0.05258
6982.05801,0.05279
6980.12927,0.05339
6978.20052,0.05497
6976.27178,0.05680
6974.34303,0.05692
6972.41429,0.05525
6970.48554,0.05362
6968.55680,0.05280
6966.62805,0.05351
6964.69930,0.05553
6962.77056,0.05737
6960.84181,0.05692
6958.91307,0.05253
6956.98432,0.04739
6955.05558,0.04662
6953.12683,0.04911
6951.19809,0.05167
6949.26934,0.05352
6947.34060,0.05337
6945.41185,0.05069
6943.48311,0.04905
6941.55436,0.05045
6939.62562,0.05409
6937.69687,0.05657
6935.76812,0.05495
6933.83938,0.05110
6931.91063,0.04931
6929.98189,0.05113
6928.05314,0.05395
6926.12440,0.05505
6924.19565,0.05350
6922.26691,0.05002
6920.33816,0.04779
6918.40942,0.04675
6916.48067,0.04616
6914.55193,0.04785
6912.62318,0.05137
6910.69444,0.05322
6908.76569,0.05253
6906.83695,0.05210
6904.90820,0.05481
6902.97945,0.05803
6901.05071,0.05744
6899.12196,0.05469
6897.19322,0.05448
6895.26447,0.05528
6893.33573,0.05344
6891.40698,0.05031
6889.47824,0.04938
6887.54949,0.05017
6885.62075,0.05090
6883.69200,0.05188
6881.76326,0.05296
6879.83451,0.05234
6877.90577,0.05129
6875.97702,0.05099
6874.04828,0.05208
6872.11953,0.05589
6870.19078,0.05935
6868.26204,0.05721
6866.33329,0.05135
6864.40455,0.04809
6862.47580,0.04956
6860.54706,0.05146
6858.61831,0.05156
6856.68957,0.05267
6854.76082,0.05543
6852.83208,0.05702
6850.90333,0.05660
6848.97459,0.05589
6847.04584,0.05583
6845.11710,0.05602
6843.18835,0.05605
6841.25960,0.05442
6839.33086,0.05111
6837.40211,0.04949
6835.47337,0.05021
6833.54462,0.05045
6831.61588,0.04965
6829.68713,0.04904
6827.75839,0.04970
6825.82964,0.05225
6823.90090,0.05482
6821.97215,0.05444
6820.04341,0.05312
6818.11466,0.05413
6816.18592,0.05528
6814.25717,0.05277
6812.32843,0.04864
6810.39968,0.04833
6808.47093,0.05131
6806.54219,0.05317
6804.61344,0.05483
6802.68470,0.05765
6800.75595,0.05958
6798.82721,0.05999
6796.89846,0.05878
6794.96972,0.05536
6793.04097,0.05139
6791.11223,0.04862
6789.18348,0.04729
6787.25474,0.04717
6785.32599,0.04852
6783.39725,0.05197
6781.46850,0.05544
6779.53975,0.05521
6777.61101,0.05301
6775.68226,0.05234
6773.75352,0.05223
6771.82477,0.05072
6769.89603,0.04874
6767.96728,0.04791
6766.03854,0.04781
6764.10979,0.04764
6762.18105,0.04745
6760.25230,0.04814
6758.32356,0.05214
6756.39481,0.05701
6754.46607,0.05632
6752.53732,0.05169
6750.60858,0.04984
6748.67983,0.05158
6746.75108,0.05334
6744.82234,0.05269
6742.89359,0.05178
6740.96485,0.05348
6739.03610,0.05577
6737.10736,0.05491
6735.17861,0.05172
6733.24987,0.05068
6731.32112,0.05305
6729.39238,0.05509
6727.46363,0.05473
6725.53489,0.05374
6723.60614,0.05361
6721.67740,0.05308
6719.74865,0.05151
6717.81991,0.05090
6715.89116,0.05259
6713.96241,0.05392
6712.03367,0.05216
6710.10492,0.05026
6708.17618,0.05033
6706.24743,0.04971
6704.31869,0.04920
6702.38994,0.05099
6700.46120,0.05291
6698.53245,0.05276
6696.60371,0.05252
6694.67496,0.05374
6692.74622,0.05383
6690.81747,0.05221
6688.88873,0.05190
6686.95998,0.05260
6685.03123,0.05287
6683.10249,0.05282
6681.17374,0.05165
6679.24500,0.04947
6677.31625,0.04878
6675.38751,0.04968
6673.45876,0.04979
6671.53002,0.04998
6669.60127,0.05235
6667.67253,0.05365
6665.74378,0.05236
6663.81504,0.05139
6661.88629,0.05129
6659.95755,0.05267
6658.02880,0.05528
6656.10006,0.05492
6654.17131,0.05216
6652.24256,0.05132
6650.31382,0.05195
6648.38507,0.05191
6646.45633,0.05109
6644.52758,0.05016
6642.59884,0.05041
6640.67009,0.05129
6638.74135,0.05212
6636.81260,0.05416
6634.88386,0.05554
6632.95511,0.05416
6631.02637,0.05274
6629.09762,0.05363
6627.16888,0.05481
6625.24013,0.05396
6623.31139,0.05334
6621.38264,0.05608
6619.45389,0.06061
6617.52515,0.06150
6615.59640,0.05700
6613.66766,0.05111
6611.73891,0.04757
6609.81017,0.04719
6607.88142,0.04911
6605.95268,0.05202
6604.02393,0.05498
6602.09519,0.05564
6600.16644,0.05324
6598.23770,0.05071
6596.30895,0.05042
6594.38021,0.05198
6592.45146,0.05342
6590.52271,0.05322
6588.59397,0.05361
6586.66522,0.05596
6584.73648,0.05672
6582.80773,0.05458
6580.87899,0.05208
6578.95024,0.05081
6577.02150,0.05118
6575.09275,0.05243
6573.16401,0.05286
6571.23526,0.05226
6569.30652,0.05236
6567.37777,0.05350
6565.44903,0.05388
6563.52028,0.05259
6561.59154,0.05002
6559.66279,0.04810
6557.73404,0.04934
6555.80530,0.05288
6553.87655,0.05522
6551.94781,0.05494
6550.01906,0.05344
6548.09032,0.05201
6546.16157,0.05193
6544.23283,0.05226
6542.30408,0.05076
6540.37534,0.04856
6538.44659,0.04764
6536.51785,0.04824
6534.58910,0.05014
6532.66036,0.05198
6530.73161,0.05290
6528.80287,0.05461
6526.87412,0.05725
6524.94537,0.05751
6523.01663,0.05531
6521.08788,0.05361
6519.15914,0.05217
6517.23039,0.05008
6515.30165,0.04937
6513.37290,0.05095
6511.44416,0.05317
6509.51541,0.05352
6507.58667,0.05128
6505.65792,0.04944
6503.72918,0.05033
6501.80043,0.05243
6499.87169,0.05370
6497.94294,0.05384
6496.01419,0.05412
6494.08545,0.05412
6492.15670,0.05275
6490.22796,0.05145
6488.29921,0.05148
6486.37047,0.05282
6484.44172,0.05517
6482.51298,0.05614
6480.58423,0.05427
6478.65549,0.05189
6476.72674,0.05147
6474.79800,0.05129
6472.86925,0.05007
6470.94051,0.05023
6469.01176,0.05257
6467.08302,0.05401
6465.15427,0.05294
6463.22552,0.05233
6461.29678,0.05448
6459.36803,0.05667
6457.43929,0.05629
6455.51054,0.05407
6453.58180,0.05155
6451.65305,0.04976
6449.72431,0.04975
6447.79556,0.05173
6445.86682,0.05414
6443.93807,0.05499
6442.00933,0.05378
6440.08058,0.05096
6438.15184,0.04774
6436.22309,0.04577
6434.29434,0.04643
6432.36560,0.04943
6430.43685,0.05191
6428.50811,0.05180
6426.57936,0.05106
6424.65062,0.05106
6422.72187,0.05083
6420.79313,0.05027
6418.86438,0.04971
6416.93564,0.04931
6415.00689,0.04961
6413.07815,0.05047
6411.14940,0.05181
6409.22066,0.05285
6407.29191,0.05208
6405.36317,0.05009
6403.43442,0.04851
6401.50567,0.04745
6399.57693,0.04723
6397.64818,0.04929
6395.71944,0.05338
6393.79069,0.05587
6391.86195,0.05496
6389.93320,0.05381
6388.00446,0.05541
6386.07571,0.05833
6384.14697,0.05930
6382.21822,0.05734
6380.28948,0.05406
6378.36073,0.05158
6376.43199,0.05081
6374.50324,0.05099
6372.57450,0.05191
6370.64575,0.05344
6368.71700,0.05380
6366.78826,0.05251
6364.85951,0.05176
6362.93077,0.05232
6361.00202,0.05260
6359.07328,0.05207
6357.14453,0.05203
6355.21579,0.05303
6353.28704,0.05339
6351.35830,0.05177
6349.42955,0.05001
6347.50081,0.05005
6345.57206,0.05098
6343.64332,0.05081
6341.71457,0.04930
6339.78582,0.04870
6337.85708,0.05031
6335.92833,0.05114
6333.99959,0.04919
6332.07084,0.04800
6330.14210,0.04964
6328.21335,0.05147
6326.28461,0.05281
6324.35586,0.05490
6322.42712,0.05620
6320.49837,0.05543
6318.56963,0.05447
6316.64088,0.05385
6314.71214,0.05356
6312.78339,0.05436
6310.85465,0.05450
6308.92590,0.05349
6306.99715,0.05388
6305.06841,0.05478
6303.13966,0.05291
6301.21092,0.04960
6299.28217,0.04990
6297.35343,0.05234
6295.42468,0.05225
6293.49594,0.05195
6291.56719,0.05355
6289.63845,0.05414
6287.70970,0.05435
6285.78096,0.05598
6283.85221,0.05666
6281.92347,0.05406
6279.99472,0.04995
6278.06598,0.04777
6276.13723,0.04835
6274.20848,0.04942
6272.27974,0.04975
6270.35099,0.05034
6268.42225,0.05090
6266.49350,0.05074
6264.56476,0.05143
6262.63601,0.05288
6260.70727,0.05284
6258.77852,0.05160
6256.84978,0.05072
6254.92103,0.05018
6252.99229,0.05081
6251.06354,0.05312
6249.13480,0.05458
6247.20605,0.05401
6245.27730,0.05359
6243.34856,0.05461
6241.41981,0.05529
6239.49107,0.05402
6237.56232,0.05248
6235.63358,0.05196
6233.70483,0.05100
6231.77609,0.04994
6229.84734,0.05089
6227.91860,0.05250
6225.98985,0.05307
6224.06111,0.05367
6222.13236,0.05424
6220.20362,0.05342
6218.27487,0.05207
6216.34613,0.05204
6214.41738,0.05276
6212.48863,0.05263
6210.55989,0.05208
6208.63114,0.05167
6206.70240,0.05136
6204.77365,0.05175
6202.84491,0.05280
6200.91616,0.05318
6198.98742,0.05259
6197.05867,0.05236
6195.12993,0.05275
6193.20118,0.05273
6191.27244,0.05222
6189.34369,0.05192
6187.41495,0.05154
6185.48620,0.05092
6183.55746,0.05141
6181.62871,0.05303
6179.69996,0.05377
6177.77122,0.05297
6175.84247,0.05222
6173.91373,0.05318
6171.98498,0.05459
6170.05624,0.05401
6168.12749,0.05287
6166.19875,0.05359
6164.27000,0.05488
6162.34126,0.05505
6160.41251,0.05422
6158.48377,0.05274
6156.55502,0.05170
6154.62628,0.05241
6152.69753,0.05423
6150.76878,0.05533
6148.84004,0.05555
6146.91129,0.05585
6144.98255,0.05542
6143.05380,0.05317
6141.12506,0.05136
6139.19631,0.05173
6137.26757,0.05265
6135.33882,0.05332
6133.41008,0.05365
6131.48133,0.05310
6129.55259,0.05240
6127.62384,0.05218
6125.69510,0.05178
6123.76635,0.05093
6121.83761,0.05065
6119.90886,0.05167
6117.98011,0.05319
6116.05137,0.05378
6114.12262,0.05275
6112.19388,0.05110
6110.26513,0.05070
6108.33639,0.05161
6106.40764,0.05212
6104.47890,0.05211
6102.55015,0.05287
6100.62141,0.05340
6098.69266,0.05230
6096.76392,0.05080
6094.83517,0.04993
6092.90643,0.04915
6090.97768,0.04888
6089.04893,0.05021
6087.12019,0.05240
6085.19144,0.05388
6083.26270,0.05480
6081.33395,0.05498
6079.40521,0.05403
6077.47646,0.05336
6075.54772,0.05346
6073.61897,0.05341
6071.69023,0.05317
6069.76148,0.05277
6067.83274,0.05201
6065.90399,0.05128
6063.97525,0.05170
6062.04650,0.05337
6060.11776,0.05506
6058.18901,0.05546
6056.26026,0.05367
6054.33152,0.05123
6052.40277,0.05081
6050.47403,0.05181
6048.54528,0.05186
6046.61654,0.05051
6044.68779,0.04947
6042.75905,0.04988
6040.83030,0.05072
6038.90156,0.05146
6036.97281,0.05274
6035.04407,0.05354
6033.11532,0.05226
6031.18658,0.05038
6029.25783,0.04993
6027.32909,0.05010
6025.40034,0.04980
6023.47159,0.04974
6021.54285,0.05071
6019.61410,0.05146
6017.68536,0.05064
6015.75661,0.04955
6013.82787,0.04946
6011.89912,0.05019
6009.97038,0.05148
6008.04163,0.05252
6006.11289,0.05274
6004.18414,0.05259
6002.25540,0.05285
6000.32665,0.05354
5998.39791,0.05392
5996.46916,0.05421
5994.54041,0.05453
5992.61167,0.05352
5990.68292,0.05130
5988.75418,0.05009
5986.82543,0.05133
5984.89669,0.05344
5982.96794,0.05388
5981.03920,0.05282
5979.11045,0.05206
5977.18171,0.05249
5975.25296,0.05360
5973.32422,0.05402
5971.39547,0.05323
5969.46673,0.05235
5967.53798,0.05209
5965.60924,0.05165
5963.68049,0.05131
5961.75174,0.05187
5959.82300,0.05226
5957.89425,0.05230
5955.96551,0.05263
5954.03676,0.05274
5952.10802,0.05235
5950.17927,0.05136
5948.25053,0.05007
5946.32178,0.04948
5944.39304,0.05009
5942.46429,0.05147
5940.53555,0.05255
5938.60680,0.05258
5936.67806,0.05211
5934.74931,0.05204
5932.82057,0.05266
5930.89182,0.05335
5928.96307,0.05307
5927.03433,0.05195
5925.10558,0.05127
5923.17684,0.05105
5921.24809,0.05054
5919.31935,0.05026
5917.39060,0.05066
5915.46186,0.05121
5913.53311,0.05127
5911.60437,0.05031
5909.67562,0.04966
5907.74688,0.05073
5905.81813,0.05204
5903.88939,0.05172
5901.96064,0.05043
5900.03189,0.05017
5898.10315,0.05108
5896.17440,0.05141
5894.24566,0.05114
5892.31691,0.05144
5890.38817,0.05185
5888.45942,0.05168
5886.53068,0.05100
5884.60193,0.05051
5882.67319,0.05131
5880.74444,0.05257
5878.81570,0.05267
5876.88695,0.05176
5874.95821,0.05056
5873.02946,0.05002
5871.10072,0.05088
5869.17197,0.05219
5867.24322,0.05256
5865.31448,0.05215
5863.38573,0.05156
5861.45699,0.05075
5859.52824,0.05047
5857.59950,0.05140
5855.67075,0.05256
5853.74201,0.05283
5851.81326,0.05225
5849.88452,0.05167
5847.95577,0.05177
5846.02703,0.05262
5844.09828,0.05398
5842.16954,0.05496
5840.24079,0.05442
5838.31205,0.05262
5836.38330,0.05118
5834.45455,0.05096
5832.52581,0.05138
5830.59706,0.05222
5828.66832,0.05365
5826.73957,0.05419
5824.81083,0.05281
5822.88208,0.05155
5820.95334,0.05159
5819.02459,0.05165
5817.09585,0.05105
5815.16710,0.04990
5813.23836,0.04907
5811.30961,0.04924
5809.38087,0.04969
5807.45212,0.05018
5805.52337,0.05135
5803.59463,0.05282
5801.66588,0.05353
5799.73714,0.05319
5797.80839,0.05199
5795.87965,0.05103
5793.95090,0.05139
5792.02216,0.05193
5790.09341,0.05154
5788.16467,0.05119
5786.23592,0.05166
5784.30718,0.05220
5782.37843,0.05228
5780.44969,0.05287
5778.52094,0.05403
5776.59220,0.05427
5774.66345,0.05350
5772.73470,0.05208
5770.80596,0.05087
5768.87721,0.05154
5766.94847,0.05324
5765.01972,0.05383
5763.09098,0.05348
5761.16223,0.05301
5759.23349,0.05236
5757.30474,0.05177
5755.37600,0.05154
5753.44725,0.05151
5751.51851,0.05186
5749.58976,0.05265
5747.66102,0.05363
5745.73227,0.05440
5743.80352,0.05431
5741.87478,0.05370
5739.94603,0.05304
5738.01729,0.05200
5736.08854,0.05143
5734.15980,0.05190
5732.23105,0.05238
5730.30231,0.05273
5728.37356,0.05361
5726.44482,0.05492
5724.51607,0.05589
5722.58733,0.05555
5720.65858,0.05417
5718.72984,0.05335
5716.80109,0.05367
5714.87235,0.05428
5712.94360,0.05436
5711.01485,0.05366
5709.08611,0.05295
5707.15736,0.05274
5705.22862,0.05272
5703.29987,0.05270
5701.37113,0.05259
5699.44238,0.05291
5697.51364,0.05393
5695.58489,0.05472
5693.65615,0.05466
5691.72740,0.05379
5689.79866,0.05255
5687.86991,0.05190
5685.94117,0.05243
5684.01242,0.05340
5682.08368,0.05377
5680.15493,0.05346
5678.22618,0.05271
5676.29744,0.05181
5674.36869,0.05149
5672.43995,0.05196
5670.51120,0.05255
5668.58246,0.05295
5666.65371,0.05354
5664.72497,0.05405
5662.79622,0.05408
5660.86748,0.05398
5658.93873,0.05380
5657.00999,0.05346
5655.08124,0.05324
5653.15250,0.05331
5651.22375,0.05352
5649.29500,0.05306
5647.36626,0.05192
5645.43751,0.05129
5643.50877,0.05179
5641.58002,0.05309
5639.65128,0.05421
5637.72253,0.05381
5635.79379,0.05220
5633.86504,0.05136
5631.93630,0.05205
5630.00755,0.05311
5628.07881,0.05353
5626.15006,0.05303
5624.22132,0.05215
5622.29257,0.05214
5620.36383,0.05334
5618.43508,0.05476
5616.50633,0.05555
5614.57759,0.05553
5612.64884,0.05486
5610.72010,0.05411
5608.79135,0.05384
5606.86261,0.05389
5604.93386,0.05390
5603.00512,0.05407
5601.07637,0.05428
5599.14763,0.05391
5597.21888,0.05305
5595.29014,0.05245
5593.36139,0.05244
5591.43265,0.05304
5589.50390,0.05405
5587.57516,0.05522
5585.64641,0.05602
5583.71766,0.05562
5581.78892,0.05443
5579.86017,0.05405
5577.93143,0.05467
5576.00268,0.05487
5574.07394,0.05379
5572.14519,0.05208
5570.21645,0.05055
5568.28770,0.04950
5566.35896,0.04959
5564.43021,0.05097
5562.50147,0.05250
5560.57272,0.05307
5558.64398,0.05284
5556.71523,0.05292
5554.78648,0.05363
5552.85774,0.05413
5550.92899,0.05423
5549.00025,0.05450
5547.07150,0.05468
5545.14276,0.05388
5543.21401,0.05258
5541.28527,0.05216
5539.35652,0.05240
5537.42778,0.05205
5535.49903,0.05143
5533.57029,0.05175
5531.64154,0.05287
5529.71280,0.05365
5527.78405,0.05380
5525.85531,0.05370
5523.92656,0.05326
5521.99781,0.05294
5520.06907,0.05366
5518.14032,0.05467
5516.21158,0.05469
5514.28283,0.05408
5512.35409,0.05350
5510.42534,0.05313
5508.49660,0.05343
5506.56785,0.05461
5504.63911,0.05538
5502.71036,0.05490
5500.78162,0.05407
5498.85287,0.05353
5496.92413,0.05288
5494.99538,0.05205
5493.06664,0.05188
5491.13789,0.05289
5489.20914,0.05414
5487.28040,0.05453
5485.35165,0.05386
5483.42291,0.05305
5481.49416,0.05328
5479.56542,0.05397
5477.63667,0.05386
5475.70793,0.05326
5473.77918,0.05322
5471.85044,0.05379
5469.92169,0.05445
5467.99295,0.05462
5466.06420,0.05435
5464.13546,0.05443
5462.20671,0.05482
5460.27796,0.05445
5458.34922,0.05370
5456.42047,0.05388
5454.49173,0.05430
5452.56298,0.05382
5450.63424,0.05357
5448.70549,0.05418
5446.77675,0.05429
5444.84800,0.05335
5442.91926,0.05235
5440.99051,0.05237
5439.06177,0.05355
5437.13302,0.05438
5435.20428,0.05394
5433.27553,0.05354
5431.34679,0.05382
5429.41804,0.05385
5427.48929,0.05333
5425.56055,0.05275
5423.63180,0.05273
5421.70306,0.05310
5419.77431,0.05325
5417.84557,0.05401
5415.91682,0.05581
5413.98808,0.05672
5412.05933,0.05551
5410.13059,0.05377
5408.20184,0.05322
5406.27310,0.05367
5404.34435,0.05428
5402.41561,0.05495
5400.48686,0.05529
5398.55811,0.05477
5396.62937,0.05438
5394.70062,0.05508
5392.77188,0.05561
5390.84313,0.05477
5388.91439,0.05354
5386.98564,0.05292
5385.05690,0.05297
5383.12815,0.05343
5381.19941,0.05358
5379.27066,0.05368
5377.34192,0.05418
5375.41317,0.05422
5373.48443,0.05394
5371.55568,0.05429
5369.62694,0.05497
5367.69819,0.05552
5365.76944,0.05590
5363.84070,0.05518
5361.91195,0.05350
5359.98321,0.05319
5358.05446,0.05452
5356.12572,0.05519
5354.19697,0.05444
5352.26823,0.05379
5350.33948,0.05404
5348.41074,0.05467
5346.48199,0.05534
5344.55325,0.05546
5342.62450,0.05478
5340.69576,0.05428
5338.76701,0.05459
5336.83827,0.05537
5334.90952,0.05558
5332.98077,0.05475
5331.05203,0.05418
5329.12328,0.05477
5327.19454,0.05527
5325.26579,0.05494
5323.33705,0.05453
5321.40830,0.05454
5319.47956,0.05492
5317.55081,0.05497
5315.62207,0.05454
5313.69332,0.05436
5311.76458,0.05437
5309.83583,0.05427
5307.90709,0.05421
5305.97834,0.05390
5304.04959,0.05302
5302.12085,0.05217
5300.19210,0.05203
5298.26336,0.05220
5296.33461,0.05265
5294.40587,0.05386
5292.47712,0.05513
5290.54838,0.05552
5288.61963,0.05545
5286.69089,0.05523
5284.76214,0.05459
5282.83340,0.05408
5280.90465,0.05403
5278.97591,0.05389
5277.04716,0.05353
5275.11842,0.05320
5273.18967,0.05305
5271.26092,0.05341
5269.33218,0.05441
5267.40343,0.05517
5265.47469,0.05468
5263.54594,0.05354
5261.61720,0.05311
5259.68845,0.05366
5257.75971,0.05439
5255.83096,0.05458
5253.90222,0.05418
5251.97347,0.05333
5250.04473,0.05226
5248.11598,0.05181
5246.18724,0.05230
5244.25849,0.05288
5242.32975,0.05346
5240.40100,0.05413
5238.47225,0.05425
5236.54351,0.05394
5234.61476,0.05403
5232.68602,0.05426
5230.75727,0.05366
5228.82853,0.05258
5226.89978,0.05222
5224.97104,0.05293
5223.04229,0.05382
5221.11355,0.05386
5219.18480,0.05387
5217.25606,0.05452
5215.32731,0.05451
5213.39857,0.05363
5211.46982,0.05292
5209.54107,0.05252
5207.61233,0.05265
5205.68358,0.05343
5203.75484,0.05410
5201.82609,0.05426
5199.89735,0.05428
5197.96860,0.05447
5196.03986,0.05472
5194.11111,0.05447
5192.18237,0.05394
5190.25362,0.05388
5188.32488,0.05419
5186.39613,0.05458
5184.46739,0.05470
5182.53864,0.05425
5180.60990,0.05374
5178.68115,0.05373
5176.75240,0.05404
5174.82366,0.05412
5172.89491,0.05402
5170.96617,0.05418
5169.03742,0.05432
5167.10868,0.05390
5165.17993,0.05305
5163.25119,0.05250
5161.32244,0.05287
5159.39370,0.05383
5157.46495,0.05438
5155.53621,0.05447
5153.60746,0.05488
5151.67872,0.05525
5149.74997,0.05496
5147.82123,0.05447
5145.89248,0.05399
5143.96373,0.05341
5142.03499,0.05336
5140.10624,0.05385
5138.17750,0.05386
5136.24875,0.05350
5134.32001,0.05378
5132.39126,0.05454
5130.46252,0.05476
5128.53377,0.05428
5126.60503,0.05400
5124.67628,0.05432
5122.74754,0.05484
5120.81879,0.05491
5118.89005,0.05418
5116.96130,0.05343
5115.03255,0.05373
5113.10381,0.05412
5111.17506,0.05340
5109.24632,0.05273
5107.31757,0.05330
5105.38883,0.05408
5103.46008,0.05423
5101.53134,0.05429
5099.60259,0.05435
5097.67385,0.05431
5095.74510,0.05442
5093.81636,0.05437
5091.88761,0.05406
5089.95887,0.05395
5088.03012,0.05419
5086.10138,0.05452
5084.17263,0.05456
5082.24388,0.05485
5080.31514,0.05575
5078.38639,0.05624
5076.45765,0.05579
5074.52890,0.05487
5072.60016,0.05418
5070.67141,0.05412
5068.74267,0.05442
5066.81392,0.05486
5064.88518,0.05549
5062.95643,0.05578
5061.02769,0.05547
5059.09894,0.05526
5057.17020,0.05564
5055.24145,0.05594
5053.31270,0.05547
5051.38396,0.05473
5049.45521,0.05443
5047.52647,0.05438
5045.59772,0.05425
5043.66898,0.05418
5041.74023,0.05442
5039.81149,0.05490
5037.88274,0.05531
5035.95400,0.05549
5034.02525,0.05542
5032.09651,0.05493
5030.16776,0.05422
5028.23902,0.05421
5026.31027,0.05514
5024.38153,0.05567
5022.45278,0.05515
5020.52403,0.05473
5018.59529,0.05507
5016.66654,0.05545
5014.73780,0.05536
5012.80905,0.05489
5010.88031,0.05433
5008.95156,0.05365
5007.02282,0.05294
5005.09407,0.05293
5003.16533,0.05398
5001.23658,0.05525
4999.30784,0.05603
4997.37909,0.05635
4995.45035,0.05628
4993.52160,0.05592
4991.59286,0.05574
4989.66411,0.05561
4987.73536,0.05485
4985.80662,0.05393
4983.87787,0.05376
4981.94913,0.05412
4980.02038,0.05466
4978.09164,0.05512
4976.16289,0.05513
4974.23415,0.05492
4972.30540,0.05507
4970.37666,0.05551
4968.44791,0.05588
4966.51917,0.05587
4964.59042,0.05533
4962.66168,0.05477
4960.73293,0.05477
4958.80418,0.05501
4956.87544,0.05501
4954.94669,0.05499
4953.01795,0.05519
4951.08920,0.05537
4949.16046,0.05543
4947.23171,0.05551
4945.30297,0.05553
4943.37422,0.05552
4941.44548,0.05551
4939.51673,0.05533
4937.58799,0.05503
4935.65924,0.05482
4933.73050,0.05474
4931.80175,0.05482
4929.87301,0.05521
4927.94426,0.05548
4926.01551,0.05528
4924.08677,0.05494
4922.15802,0.05492
4920.22928,0.05517
4918.30053,0.05523
4916.37179,0.05504
4914.44304,0.05497
4912.51430,0.05512
4910.58555,0.05530
4908.65681,0.05530
4906.72806,0.05490
4904.79932,0.05426
4902.87057,0.05412
4900.94183,0.05461
4899.01308,0.05498
4897.08434,0.05495
4895.15559,0.05519
4893.22684,0.05585
4891.29810,0.05575
4889.36935,0.05474
4887.44061,0.05434
4885.51186,0.05505
4883.58312,0.05567
4881.65437,0.05546
4879.72563,0.05513
4877.79688,0.05524
4875.86814,0.05525
4873.93939,0.05504
4872.01065,0.05506
4870.08190,0.05488
4868.15316,0.05413
4866.22441,0.05359
4864.29566,0.05393
4862.36692,0.05454
4860.43817,0.05489
4858.50943,0.05517
4856.58068,0.05526
4854.65194,0.05528
4852.72319,0.05537
4850.79445,0.05518
4848.86570,0.05519
4846.93696,0.05570
4845.00821,0.05590
4843.07947,0.05578
4841.15072,0.05575
4839.22198,0.05549
4837.29323,0.05514
4835.36449,0.05524
4833.43574,0.05549
4831.50699,0.05549
4829.57825,0.05570
4827.64950,0.05643
4825.72076,0.05703
4823.79201,0.05683
4821.86327,0.05614
4819.93452,0.05544
4818.00578,0.05471
4816.07703,0.05424
4814.14829,0.05458
4812.21954,0.05530
4810.29080,0.05549
4808.36205,0.05504
4806.43331,0.05455
4804.50456,0.05440
4802.57582,0.05439
4800.64707,0.05437
4798.71832,0.05448
4796.78958,0.05459
4794.86083,0.05456
4792.93209,0.05466
4791.00334,0.05491
4789.07460,0.05506
4787.14585,0.05485
4785.21711,0.05447
4783.28836,0.05435
4781.35962,0.05415
4779.43087,0.05361
4777.50213,0.05342
4775.57338,0.05396
4773.64464,0.05458
4771.71589,0.05454
4769.78714,0.05409
4767.85840,0.05392
4765.92965,0.05436
4764.00091,0.05505
4762.07216,0.05525
4760.14342,0.05472
4758.21467,0.05397
4756.28593,0.05360
4754.35718,0.05374
4752.42844,0.05436
4750.49969,0.05506
4748.57095,0.05510
4746.64220,0.05463
4744.71346,0.05437
4742.78471,0.05442
4740.85597,0.05419
4738.92722,0.05362
4736.99847,0.05363
4735.06973,0.05418
4733.14098,0.05443
4731.21224,0.05453
4729.28349,0.05470
4727.35475,0.05455
4725.42600,0.05423
4723.49726,0.05407
4721.56851,0.05401
4719.63977,0.05431
4717.71102,0.05500
4715.78228,0.05532
4713.85353,0.05514
4711.92479,0.05501
4709.99604,0.05485
4708.06729,0.05447
4706.13855,0.05434
4704.20980,0.05446
4702.28106,0.05444
4700.35231,0.05450
4698.42357,0.05497
4696.49482,0.05550
4694.56608,0.05556
4692.63733,0.05527
4690.70859,0.05494
4688.77984,0.05454
4686.85110,0.05409
4684.92235,0.05374
4682.99361,0.05368
4681.06486,0.05366
4679.13612,0.05342
4677.20737,0.05358
4675.27862,0.05454
4673.34988,0.05542
4671.42113,0.05543
4669.49239,0.05477
4667.56364,0.05383
4665.63490,0.05319
4663.70615,0.05324
4661.77741,0.05370
4659.84866,0.05440
4657.91992,0.05525
4655.99117,0.05578
4654.06243,0.05554
4652.13368,0.05488
4650.20494,0.05483
4648.27619,0.05558
4646.34745,0.05605
4644.41870,0.05565
4642.48995,0.05518
4640.56121,0.05522
4638.63246,0.05530
4636.70372,0.05509
4634.77497,0.05494
4632.84623,0.05495
4630.91748,0.05480
4628.98874,0.05443
4627.05999,0.05409
4625.13125,0.05392
4623.20250,0.05400
4621.27376,0.05419
4619.34501,0.05433
4617.41627,0.05426
4615.48752,0.05395
4613.55877,0.05379
4611.63003,0.05424
4609.70128,0.05489
4607.77254,0.05495
4605.84379,0.05446
4603.91505,0.05403
4601.98630,0.05397
4600.05756,0.05415
4598.12881,0.05450
4596.20007,0.05492
4594.27132,0.05507
4592.34258,0.05480
4590.41383,0.05422
4588.48509,0.05377
4586.55634,0.05373
4584.62760,0.05387
4582.69885,0.05415
4580.77010,0.05446
4578.84136,0.05445
4576.91261,0.05421
4574.98387,0.05413
4573.05512,0.05412
4571.12638,0.05391
4569.19763,0.05368
4567.26889,0.05395
4565.34014,0.05465
4563.41140,0.05488
4561.48265,0.05433
4559.55391,0.05383
4557.62516,0.05384
4555.69642,0.05410
4553.76767,0.05428
4551.83893,0.05455
4549.91018,0.05509
4547.98143,0.05530
4546.05269,0.05503
4544.12394,0.05473
4542.19520,0.05445
4540.26645,0.05434
4538.33771,0.05452
4536.40896,0.05454
4534.48022,0.05413
4532.55147,0.05384
4530.62273,0.05396
4528.69398,0.05404
4526.76524,0.05396
4524.83649,0.05386
4522.90775,0.05363
4520.97900,0.05328
4519.05025,0.05301
4517.12151,0.05295
4515.19276,0.05293
4513.26402,0.05273
4511.33527,0.05251
4509.40653,0.05243
4507.47778,0.05260
4505.54904,0.05280
4503.62029,0.05265
4501.69155,0.05252
4499.76280,0.05275
4497.83406,0.05293
4495.90531,0.05273
4493.97657,0.05244
4492.04782,0.05240
4490.11908,0.05243
4488.19033,0.05242
4486.26158,0.05246
4484.33284,0.05252
4482.40409,0.05245
4480.47535,0.05231
4478.54660,0.05225
4476.61786,0.05216
4474.68911,0.05192
4472.76037,0.05176
4470.83162,0.05172
4468.90288,0.05157
4466.97413,0.05149
4465.04539,0.05177
4463.11664,0.05204
4461.18790,0.05188
4459.25915,0.05167
4457.33041,0.05173
4455.40166,0.05193
4453.47291,0.05206
4451.54417,0.05191
4449.61542,0.05146
4447.68668,0.05112
4445.75793,0.05112
4443.82919,0.05118
4441.90044,0.05111
4439.97170,0.05097
4438.04295,0.05084
4436.11421,0.05077
4434.18546,0.05088
4432.25672,0.05118
4430.32797,0.05159
4428.39923,0.05180
4426.47048,0.05156
4424.54173,0.05138
4422.61299,0.05159
4420.68424,0.05186
4418.75550,0.05200
4416.82675,0.05212
4414.89801,0.05204
4412.96926,0.05176
4411.04052,0.05170
4409.11177,0.05191
4407.18303,0.05214
4405.25428,0.05219
4403.32554,0.05192
4401.39679,0.05161
4399.46805,0.05162
4397.53930,0.05185
4395.61056,0.05219
4393.68181,0.05244
4391.75306,0.05238
4389.82432,0.05214
4387.89557,0.05182
4385.96683,0.05162
4384.03808,0.05176
4382.10934,0.05194
4380.18059,0.05190
4378.25185,0.05194
4376.32310,0.05207
4374.39436,0.05183
4372.46561,0.05145
4370.53687,0.05167
4368.60812,0.05230
4366.67938,0.05260
4364.75063,0.05237
4362.82189,0.05215
4360.89314,0.05228
4358.96439,0.05225
4357.03565,0.05188
4355.10690,0.05167
4353.17816,0.05181
4351.24941,0.05210
4349.32067,0.05246
4347.39192,0.05269
4345.46318,0.05250
4343.53443,0.05204
4341.60569,0.05172
4339.67694,0.05181
4337.74820,0.05213
4335.81945,0.05238
4333.89071,0.05260
4331.96196,0.05276
4330.03321,0.05279
4328.10447,0.05288
4326.17572,0.05301
4324.24698,0.05301
4322.31823,0.05297
4320.38949,0.05311
4318.46074,0.05318
4316.53200,0.05284
4314.60325,0.05242
4312.67451,0.05249
4310.74576,0.05292
4308.81702,0.05317
4306.88827,0.05307
4304.95953,0.05298
4303.03078,0.05326
4301.10204,0.05368
4299.17329,0.05384
4297.24454,0.05372
4295.31580,0.05345
4293.38705,0.05317
4291.45831,0.05311
4289.52956,0.05314
4287.60082,0.05306
4285.67207,0.05292
4283.74333,0.05280
4281.81458,0.05276
4279.88584,0.05285
4277.95709,0.05315
4276.02835,0.05364
4274.09960,0.05378
4272.17086,0.05346
4270.24211,0.05326
4268.31336,0.05331
4266.38462,0.05320
4264.45587,0.05273
4262.52713,0.05223
4260.59838,0.05221
4258.66964,0.05269
4256.74089,0.05324
4254.81215,0.05349
4252.88340,0.05336
4250.95466,0.05302
4249.02591,0.05278
4247.09717,0.05295
4245.16842,0.05335
4243.23968,0.05334
4241.31093,0.05292
4239.38219,0.05283
4237.45344,0.05309
4235.52469,0.05296
4233.59595,0.05256
4231.66720,0.05247
4229.73846,0.05233
4227.80971,0.05193
4225.88097,0.05183
4223.95222,0.05202
4222.02348,0.05210
4220.09473,0.05231
4218.16599,0.05276
4216.23724,0.05298
4214.30850,0.05273
4212.37975,0.05227
4210.45101,0.05201
4208.52226,0.05202
4206.59352,0.05206
4204.66477,0.05216
4202.73602,0.05246
4200.80728,0.05262
4198.87853,0.05247
4196.94979,0.05234
4195.02104,0.05238
4193.09230,0.05238
4191.16355,0.05214
4189.23481,0.05185
4187.30606,0.05177
4185.37732,0.05189
4183.44857,0.05204
4181.51983,0.05222
4179.59108,0.05244
4177.66234,0.05250
4175.73359,0.05243
4173.80484,0.05256
4171.87610,0.05290
4169.94735,0.05300
4168.01861,0.05296
4166.08986,0.05310
4164.16112,0.05317
4162.23237,0.05307
4160.30363,0.05290
4158.37488,0.05252
4156.44614,0.05224
4154.51739,0.05242
4152.58865,0.05276
4150.65990,0.05283
4148.73116,0.05263
4146.80241,0.05247
4144.87367,0.05249
4142.94492,0.05270
4141.01617,0.05315
4139.08743,0.05355
4137.15868,0.05360
4135.22994,0.05347
4133.30119,0.05330
4131.37245,0.05305
4129.44370,0.05288
4127.51496,0.05289
4125.58621,0.05288
4123.65747,0.05276
4121.72872,0.05277
4119.79998,0.05308
4117.87123,0.05320
4115.94249,0.05282
4114.01374,0.05256
4112.08500,0.05280
4110.15625,0.05307
4108.22750,0.05299
4106.29876,0.05272
4104.37001,0.05275
4102.44127,0.05312
4100.51252,0.05322
4098.58378,0.05297
4096.65503,0.05290
4094.72629,0.05314
4092.79754,0.05321
4090.86880,0.05295
4088.94005,0.05284
4087.01131,0.05294
4085.08256,0.05292
4083.15382,0.05284
4081.22507,0.05284
4079.29632,0.05275
4077.36758,0.05262
4075.43883,0.05267
4073.51009,0.05287
4071.58134,0.05314
4069.65260,0.05355
4067.72385,0.05387
4065.79511,0.05373
4063.86636,0.05335
4061.93762,0.05314
4060.00887,0.05308
4058.08013,0.05321
4056.15138,0.05364
4054.22264,0.05398
4052.29389,0.05384
4050.36515,0.05344
4048.43640,0.05325
4046.50765,0.05336
4044.57891,0.05347
4042.65016,0.05354
4040.72142,0.05353
4038.79267,0.05334
4036.86393,0.05319
4034.93518,0.05324
4033.00644,0.05350
4031.07769,0.05369
4029.14895,0.05338
4027.22020,0.05299
4025.29146,0.05308
4023.36271,0.05330
4021.43397,0.05342
4019.50522,0.05357
4017.57648,0.05361
4015.64773,0.05359
4013.71898,0.05358
4011.79024,0.05338
4009.86149,0.05304
4007.93275,0.05286
4006.00400,0.05284
4004.07526,0.05288
4002.14651,0.05307
4000.21777,0.05340
3998.28902,0.05358
3996.36028,0.05348
3994.43153,0.05323
3992.50279,0.05312
3990.57404,0.05325
3988.64530,0.05336
3986.71655,0.05351
3984.78780,0.05392
3982.85906,0.05425
3980.93031,0.05424
3979.00157,0.05400
3977.07282,0.05367
3975.14408,0.05337
3973.21533,0.05334
3971.28659,0.05347
3969.35784,0.05364
3967.42910,0.05386
3965.50035,0.05396
3963.57161,0.05402
3961.64286,0.05416
3959.71412,0.05426
3957.78537,0.05432
3955.85663,0.05412
3953.92788,0.05370
3951.99913,0.05363
3950.07039,0.05381
3948.14164,0.05374
3946.21290,0.05364
3944.28415,0.05377
3942.35541,0.05406
3940.42666,0.05439
3938.49792,0.05437
3936.56917,0.05409
3934.64043,0.05412
3932.71168,0.05434
3930.78294,0.05424
3928.85419,0.05398
3926.92545,0.05400
3924.99670,0.05442
3923.06795,0.05483
3921.13921,0.05475
3919.21046,0.05448
3917.28172,0.05465
3915.35297,0.05490
3913.42423,0.05477
3911.49548,0.05463
3909.56674,0.05465
3907.63799,0.05450
3905.70925,0.05423
3903.78050,0.05427
3901.85176,0.05457
3899.92301,0.05474
3897.99427,0.05450
3896.06552,0.05412
3894.13678,0.05396
3892.20803,0.05401
3890.27928,0.05408
3888.35054,0.05407
3886.42179,0.05408
3884.49305,0.05435
3882.56430,0.05465
3880.63556,0.05452
3878.70681,0.05421
3876.77807,0.05409
3874.84932,0.05397
3872.92058,0.05389
3870.99183,0.05401
3869.06309,0.05424
3867.13434,0.05434
3865.20560,0.05425
3863.27685,0.05408
3861.34811,0.05391
3859.41936,0.05391
3857.49061,0.05424
3855.56187,0.05461
3853.63312,0.05467
3851.70438,0.05465
3849.77563,0.05466
3847.84689,0.05451
3845.91814,0.05424
3843.98940,0.05400
3842.06065,0.05387
3840.13191,0.05383
3838.20316,0.05375
3836.27442,0.05370
3834.34567,0.05397
3832.41693,0.05438
3830.48818,0.05445
3828.55943,0.05430
3826.63069,0.05437
3824.70194,0.05469
3822.77320,0.05481
3820.84445,0.05446
3818.91571,0.05411
3816.98696,0.05418
3815.05822,0.05457
3813.12947,0.05489
3811.20073,0.05481
3809.27198,0.05437
3807.34324,0.05397
3805.41449,0.05399
3803.48575,0.05421
3801.55700,0.05436
3799.62826,0.05448
3797.69951,0.05451
3795.77076,0.05449
3793.84202,0.05457
3791.91327,0.05463
3789.98453,0.05443
3788.05578,0.05421
3786.12704,0.05441
3784.19829,0.05495
3782.26955,0.05519
3780.34080,0.05492
3778.41206,0.05467
3776.48331,0.05476
3774.55457,0.05505
3772.62582,0.05531
3770.69708,0.05519
3768.76833,0.05478
3766.83959,0.05446
3764.91084,0.05434
3762.98209,0.05442
3761.05335,0.05450
3759.12460,0.05449
3757.19586,0.05463
3755.26711,0.05482
3753.33837,0.05479
3751.40962,0.05456
3749.48088,0.05419
3747.55213,0.05391
3745.62339,0.05405
3743.69464,0.05450
3741.76590,0.05446
3739.83715,0.05387
3737.90841,0.05342
3735.97966,0.05355
3734.05091,0.05402
3732.12217,0.05452
3730.19342,0.05471
3728.26468,0.05439
3726.33593,0.05415
3724.40719,0.05450
3722.47844,0.05496
3720.54970,0.05517
3718.62095,0.05515
3716.69221,0.05485
3714.76346,0.05445
3712.83472,0.05418
3710.90597,0.05390
3708.97723,0.05336
3707.04848,0.05300
3705.11974,0.05315
3703.19099,0.05341
3701.26224,0.05346
3699.33350,0.05354
3697.40475,0.05374
3695.47601,0.05381
3693.54726,0.05367
3691.61852,0.05345
3689.68977,0.05316
3687.76103,0.05290
3685.83228,0.05270
3683.90354,0.05231
3681.97479,0.05192
3680.04605,0.05192
3678.11730,0.05212
3676.18856,0.05221
3674.25981,0.05232
3672.33107,0.05242
3670.40232,0.05232
3668.47357,0.05193
3666.54483,0.05146
3664.61608,0.05129
3662.68734,0.05138
3660.75859,0.05135
3658.82985,0.05125
3656.90110,0.05137
3654.97236,0.05166
3653.04361,0.05200
3651.11487,0.05187
3649.18612,0.05091
3647.25738,0.05035
3645.32863,0.05078
3643.39989,0.05133
3641.47114,0.05152
3639.54239,0.05155
3637.61365,0.05167
3635.68490,0.05171
3633.75616,0.05146
3631.82741,0.05121
3629.89867,0.05128
3627.96992,0.05155
3626.04118,0.05162
3624.11243,0.05141
3622.18369,0.05123
3620.25494,0.05139
3618.32620,0.05176
3616.39745,0.05189
3614.46871,0.05151
3612.53996,0.05086
3610.61122,0.05059
3608.68247,0.05081
3606.75372,0.05103
3604.82498,0.05106
3602.89623,0.05128
3600.96749,0.05157
3599.03874,0.05150
3597.11000,0.05149
3595.18125,0.05190
3593.25251,0.05227
3591.32376,0.05243
3589.39502,0.05245
3587.46627,0.05208
3585.53753,0.05146
3583.60878,0.05112
3581.68004,0.05106
3579.75129,0.05087
3577.82254,0.05049
3575.89380,0.05034
3573.96505,0.05053
3572.03631,0.05096
3570.10756,0.05145
3568.17882,0.05152
3566.25007,0.05108
3564.32133,0.05073
3562.39258,0.05064
3560.46384,0.05077
3558.53509,0.05111
3556.60635,0.05143
3554.67760,0.05152
3552.74886,0.05144
3550.82011,0.05122
3548.89137,0.05086
3546.96262,0.05049
3545.03387,0.05060
3543.10513,0.05110
3541.17638,0.05128
3539.24764,0.05117
3537.31889,0.05120
3535.39015,0.05135
3533.46140,0.05144
3531.53266,0.05158
3529.60391,0.05172
3527.67517,0.05154
3525.74642,0.05119
3523.81768,0.05110
3521.88893,0.05120
3519.96019,0.05134
3518.03144,0.05156
3516.10270,0.05163
3514.17395,0.05150
3512.24520,0.05148
3510.31646,0.05169
3508.38771,0.05179
3506.45897,0.05146
3504.53022,0.05111
3502.60148,0.05139
3500.67273,0.05197
3498.74399,0.05220
3496.81524,0.05204
3494.88650,0.05155
3492.95775,0.05102
3491.02901,0.05090
3489.10026,0.05088
3487.17152,0.05062
3485.24277,0.05068
3483.31402,0.05117
3481.38528,0.05145
3479.45653,0.05143
3477.52779,0.05136
3475.59904,0.05126
3473.67030,0.05101
3471.74155,0.05070
3469.81281,0.05076
3467.88406,0.05113
3465.95532,0.05110
3464.02657,0.05078
3462.09783,0.05073
3460.16908,0.05083
3458.24034,0.05099
3456.31159,0.05117
3454.38285,0.05123
3452.45410,0.05131
3450.52535,0.05144
3448.59661,0.05142
3446.66786,0.05126
3444.73912,0.05106
3442.81037,0.05073
3440.88163,0.05038
3438.95288,0.05036
3437.02414,0.05047
3435.09539,0.05043
3433.16665,0.05045
3431.23790,0.05050
3429.30916,0.05040
3427.38041,0.05036
3425.45167,0.05044
3423.52292,0.05049
3421.59418,0.05063
3419.66543,0.05083
3417.73668,0.05097
3415.80794,0.05113
3413.87919,0.05127
3411.95045,0.05130
3410.02170,0.05134
3408.09296,0.05145
3406.16421,0.05160
3404.23547,0.05164
3402.30672,0.05143
3400.37798,0.05131
3398.44923,0.05157
3396.52049,0.05180
3394.59174,0.05189
3392.66300,0.05221
3390.73425,0.05234
3388.80550,0.05186
3386.87676,0.05130
3384.94801,0.05119
3383.01927,0.05140
3381.09052,0.05152
3379.16178,0.05128
3377.23303,0.05101
3375.30429,0.05118
3373.37554,0.05141
3371.44680,0.05117
3369.51805,0.05087
3367.58931,0.05097
3365.66056,0.05113
3363.73182,0.05103
3361.80307,0.05104
3359.87433,0.05116
3357.94558,0.05110
3356.01683,0.05111
3354.08809,0.05131
3352.15934,0.05122
3350.23060,0.05090
3348.30185,0.05089
3346.37311,0.05132
3344.44436,0.05187
3342.51562,0.05218
3340.58687,0.05205
3338.65813,0.05172
3336.72938,0.05162
3334.80064,0.05170
3332.87189,0.05165
3330.94315,0.05148
3329.01440,0.05138
3327.08566,0.05156
3325.15691,0.05178
3323.22816,0.05157
3321.29942,0.05112
3319.37067,0.05089
3317.44193,0.05103
3315.51318,0.05147
3313.58444,0.05187
3311.65569,0.05196
3309.72695,0.05176
3307.79820,0.05158
3305.86946,0.05163
3303.94071,0.05169
3302.01197,0.05159
3300.08322,0.05152
3298.15448,0.05152
3296.22573,0.05133
3294.29698,0.05110
3292.36824,0.05124
3290.43949,0.05168
3288.51075,0.05187
3286.58200,0.05165
3284.65326,0.05148
3282.72451,0.05155
3280.79577,0.05159
3278.86702,0.05136
3276.93828,0.05093
3275.00953,0.05052
3273.08079,0.05031
3271.15204,0.05037
3269.22330,0.05061
3267.29455,0.05085
3265.36581,0.05098
3263.43706,0.05113
3261.50831,0.05132
3259.57957,0.05136
3257.65082,0.05136
3255.72208,0.05151
3253.79333,0.05161
3251.86459,0.05174
3249.93584,0.05186
3248.00710,0.05158
3246.07835,0.05109
3244.14961,0.05096
3242.22086,0.05118
3240.29212,0.05153
3238.36337,0.05184
3236.43463,0.05195
3234.50588,0.05176
3232.57713,0.05141
3230.64839,0.05136
3228.71964,0.05161
3226.79090,0.05174
3224.86215,0.05172
3222.93341,0.05160
3221.00466,0.05151
3219.07592,0.05172
3217.14717,0.05184
3215.21843,0.05142
3213.28968,0.05107
3211.36094,0.05126
3209.43219,0.05153
3207.50345,0.05149
3205.57470,0.05136
3203.64596,0.05155
3201.71721,0.05200
3199.78846,0.05212
3197.85972,0.05169
3195.93097,0.05120
3194.00223,0.05123
3192.07348,0.05150
3190.14474,0.05145
3188.21599,0.05120
3186.28725,0.05119
3184.35850,0.05138
3182.42976,0.05138
3180.50101,0.05115
3178.57227,0.05097
3176.64352,0.05112
3174.71478,0.05156
3172.78603,0.05177
3170.85729,0.05152
3168.92854,0.05109
3166.99979,0.05068
3165.07105,0.05034
3163.14230,0.05031
3161.21356,0.05061
3159.28481,0.05095
3157.35607,0.05114
3155.42732,0.05121
3153.49858,0.05123
3151.56983,0.05122
3149.64109,0.05110
3147.71234,0.05091
3145.78360,0.05090
3143.85485,0.05104
3141.92611,0.05081
3139.99736,0.05040
3138.06861,0.05050
3136.13987,0.05096
3134.21112,0.05118
3132.28238,0.05110
3130.35363,0.05100
3128.42489,0.05086
3126.49614,0.05063
3124.56740,0.05043
3122.63865,0.05032
3120.70991,0.05037
3118.78116,0.05057
3116.85242,0.05061
3114.92367,0.05046
3112.99493,0.05029
3111.06618,0.05017
3109.13744,0.05025
3107.20869,0.05047
3105.27994,0.05051
3103.35120,0.05037
3101.42245,0.05012
3099.49371,0.04986
3097.56496,0.04995
3095.63622,0.05037
3093.70747,0.05060
3091.77873,0.05052
3089.84998,0.05027
3087.92124,0.04985
3085.99249,0.04961
3084.06375,0.04985
3082.13500,0.05017
3080.20626,0.05023
3078.27751,0.05028
3076.34877,0.05054
3074.42002,0.05056
3072.49127,0.05011
3070.56253,0.04963
3068.63378,0.04943
3066.70504,0.04936
3064.77629,0.04914
3062.84755,0.04882
3060.91880,0.04871
3058.99006,0.04897
3057.06131,0.04928
3055.13257,0.04928
3053.20382,0.04908
3051.27508,0.04883
3049.34633,0.04865
3047.41759,0.04851
3045.48884,0.04824
3043.56009,0.04803
3041.63135,0.04798
3039.70260,0.04789
3037.77386,0.04779
3035.84511,0.04781
3033.91637,0.04788
3031.98762,0.04786
3030.05888,0.04779
3028.13013,0.04782
3026.20139,0.04769
3024.27264,0.04740
3022.34390,0.04742
3020.41515,0.04763
3018.48641,0.04768
3016.55766,0.04763
3014.62892,0.04746
3012.70017,0.04731
3010.77142,0.04754
3008.84268,0.04791
3006.91393,0.04790
3004.98519,0.04758
3003.05644,0.04734
3001.12770,0.04737
2999.19895,0.04762
2997.27021,0.04800
2995.34146,0.04842
2993.41272,0.04872
2991.48397,0.04878
2989.55523,0.04880
2987.62648,0.04907
2985.69774,0.04955
2983.76899,0.04982
2981.84025,0.04968
2979.91150,0.04950
2977.98275,0.04941
2976.05401,0.04920
2974.12526,0.04899
2972.19652,0.04900
2970.26777,0.04910
2968.33903,0.04897
2966.41028,0.04868
2964.48154,0.04858
2962.55279,0.04865
2960.62405,0.04861
2958.69530,0.04851
2956.76656,0.04853
2954.83781,0.04881
2952.90907,0.04953
2950.98032,0.05068
2949.05157,0.05178
2947.12283,0.05246
2945.19408,0.05294
2943.26534,0.05325
2941.33659,0.05324
2939.40785,0.05335
2937.47910,0.05378
2935.55036,0.05427
2933.62161,0.05466
2931.69287,0.05502
2929.76412,0.05551
2927.83538,0.05612
2925.90663,0.05662
2923.97789,0.05690
2922.04914,0.05689
2920.12040,0.05658
2918.19165,0.05614
2916.26290,0.05573
2914.33416,0.05541
2912.40541,0.05524
2910.47667,0.05518
2908.54792,0.05512
2906.61918,0.05500
2904.69043,0.05480
2902.76169,0.05450
2900.83294,0.05428
2898.90420,0.05414
2896.97545,0.05388
2895.04671,0.05364
2893.11796,0.05356
2891.18922,0.05353
2889.26047,0.05344
2887.33172,0.05340
2885.40298,0.05351
2883.47423,0.05362
2881.54549,0.05351
2879.61674,0.05317
2877.68800,0.05293
2875.75925,0.05305
2873.83051,0.05335
2871.90176,0.05360
2869.97302,0.05385
2868.04427,0.05395
2866.11553,0.05381
2864.18678,0.05362
2862.25804,0.05352
2860.32929,0.05352
2858.40055,0.05377
2856.47180,0.05433
2854.54305,0.05491
2852.61431,0.05511
2850.68556,0.05473
2848.75682,0.05406
2846.82807,0.05364
2844.89933,0.05356
2842.97058,0.05354
2841.04184,0.05356
2839.11309,0.05366
2837.18435,0.05367
2835.25560,0.05354
2833.32686,0.05354
2831.39811,0.05363
2829.46937,0.05350
2827.54062,0.05313
2825.61188,0.05279
2823.68313,0.05274
2821.75438,0.05290
2819.82564,0.05299
2817.89689,0.05294
2815.96815,0.05280
2814.03940,0.05266
2812.11066,0.05259
2810.18191,0.05268
2808.25317,0.05297
2806.32442,0.05319
2804.39568,0.05317
2802.46693,0.05310
2800.53819,0.05308
2798.60944,0.05303
2796.68070,0.05293
2794.75195,0.05271
2792.82320,0.05243
2790.89446,0.05231
2788.96571,0.05240
2787.03697,0.05257
2785.10822,0.05279
2783.17948,0.05301
2781.25073,0.05310
2779.32199,0.05301
2777.39324,0.05275
2775.46450,0.05247
2773.53575,0.05238
2771.60701,0.05247
2769.67826,0.05255
2767.74952,0.05256
2765.82077,0.05257
2763.89203,0.05261
2761.96328,0.05259
2760.03453,0.05245
2758.10579,0.05232
2756.17704,0.05239
2754.24830,0.05264
2752.31955,0.05281
2750.39081,0.05279
2748.46206,0.05281
2746.53332,0.05288
2744.60457,0.05280
2742.67583,0.05257
2740.74708,0.05232
2738.81834,0.05215
2736.88959,0.05211
2734.96085,0.05218
2733.03210,0.05228
2731.10336,0.05245
2729.17461,0.05273
2727.24586,0.05292
2725.31712,0.05288
2723.38837,0.05276
2721.45963,0.05269
2719.53088,0.05263
2717.60214,0.05253
2715.67339,0.05254
2713.74465,0.05274
2711.81590,0.05298
2709.88716,0.05311
2707.95841,0.05323
2706.02967,0.05330
2704.10092,0.05309
2702.17218,0.05281
2700.24343,0.05266
2698.31468,0.05256
2696.38594,0.05257
2694.45719,0.05256
2692.52845,0.05243
2690.59970,0.05252
2688.67096,0.05269
2686.74221,0.05268
2684.81347,0.05258
2682.88472,0.05244
2680.95598,0.05232
2679.02723,0.05232
2677.09849,0.05247
2675.16974,0.05268
2673.24100,0.05273
2671.31225,0.05255
2669.38351,0.05230
2667.45476,0.05219
2665.52601,0.05226
2663.59727,0.05241
2661.66852,0.05250
2659.73978,0.05238
2657.81103,0.05215
2655.88229,0.05211
2653.95354,0.05224
2652.02480,0.05224
2650.09605,0.05205
2648.16731,0.05195
2646.23856,0.05204
2644.30982,0.05209
2642.38107,0.05204
2640.45233,0.05212
2638.52358,0.05233
2636.59484,0.05250
2634.66609,0.05257
2632.73734,0.05252
2630.80860,0.05245
2628.87985,0.05237
2626.95111,0.05218
2625.02236,0.05199
2623.09362,0.05209
2621.16487,0.05233
2619.23613,0.05235
2617.30738,0.05222
2615.37864,0.05207
2613.44989,0.05187
2611.52115,0.05169
2609.59240,0.05174
2607.66366,0.05191
2605.73491,0.05185
2603.80616,0.05157
2601.87742,0.05156
2599.94867,0.05177
2598.01993,0.05176
2596.09118,0.05166
2594.16244,0.05176
2592.23369,0.05189
2590.30495,0.05193
2588.37620,0.05200
2586.44746,0.05209
2584.51871,0.05213
2582.58997,0.05213
2580.66122,0.05216
2578.73248,0.05209
2576.80373,0.05194
2574.87499,0.05197
2572.94624,0.05207
2571.01749,0.05190
2569.08875,0.05165
2567.16000,0.05176
2565.23126,0.05221
2563.30251,0.05257
2561.37377,0.05262
2559.44502,0.05243
2557.51628,0.05208
2555.58753,0.05184
2553.65879,0.05195
2551.73004,0.05214
2549.80130,0.05221
2547.87255,0.05229
2545.94381,0.05231
2544.01506,0.05210
2542.08631,0.05180
2540.15757,0.05169
2538.22882,0.05177
2536.30008,0.05188
2534.37133,0.05192
2532.44259,0.05195
2530.51384,0.05212
2528.58510,0.05234
2526.65635,0.05237
2524.72761,0.05228
2522.79886,0.05221
2520.87012,0.05225
2518.94137,0.05242
2517.01263,0.05260
2515.08388,0.05257
2513.15514,0.05222
2511.22639,0.05181
2509.29764,0.05170
2507.36890,0.05185
2505.44015,0.05197
2503.51141,0.05194
2501.58266,0.05191
2499.65392,0.05207
2497.72517,0.05220
2495.79643,0.05214
2493.86768,0.05210
2491.93894,0.05222
2490.01019,0.05229
2488.08145,0.05221
2486.15270,0.05212
2484.22396,0.05210
2482.29521,0.05219
2480.36647,0.05243
2478.43772,0.05255
2476.50897,0.05233
2474.58023,0.05204
2472.65148,0.05197
2470.72274,0.05193
2468.79399,0.05186
2466.86525,0.05190
2464.93650,0.05200
2463.00776,0.05200
2461.07901,0.05195
2459.15027,0.05203
2457.22152,0.05226
2455.29278,0.05238
2453.36403,0.05224
2451.43529,0.05201
2449.50654,0.05192
2447.57779,0.05191
2445.64905,0.05186
2443.72030,0.05180
2441.79156,0.05174
2439.86281,0.05153
2437.93407,0.05130
2436.00532,0.05133
2434.07658,0.05149
2432.14783,0.05158
2430.21909,0.05174
2428.29034,0.05194
2426.36160,0.05186
2424.43285,0.05158
2422.50411,0.05145
2420.57536,0.05156
2418.64662,0.05162
2416.71787,0.05147
2414.78912,0.05134
2412.86038,0.05141
2410.93163,0.05147
2409.00289,0.05140
2407.07414,0.05131
2405.14540,0.05123
2403.21665,0.05119
2401.28791,0.05127
2399.35916,0.05144
2397.43042,0.05149
2395.50167,0.05136
2393.57293,0.05127
2391.64418,0.05139
2389.71544,0.05154
2387.78669,0.05157
2385.85795,0.05152
2383.92920,0.05151
2382.00045,0.05156
2380.07171,0.05151
2378.14296,0.05127
2376.21422,0.05113
2374.28547,0.05124
2372.35673,0.05142
2370.42798,0.05137
2368.49924,0.05126
2366.57049,0.05135
2364.64175,0.05154
2362.71300,0.05167
2360.78426,0.05161
2358.85551,0.05142
2356.92677,0.05125
2354.99802,0.05118
2353.06927,0.05122
2351.14053,0.05135
2349.21178,0.05147
2347.28304,0.05151
2345.35429,0.05143
2343.42555,0.05125
2341.49680,0.05117
2339.56806,0.05129
2337.63931,0.05149
2335.71057,0.05162
2333.78182,0.05160
2331.85308,0.05141
2329.92433,0.05121
2327.99559,0.05117
2326.06684,0.05124
2324.13810,0.05135
2322.20935,0.05147
2320.28060,0.05142
2318.35186,0.05127
2316.42311,0.05133
2314.49437,0.05160
2312.56562,0.05175
2310.63688,0.05162
2308.70813,0.05146
2306.77939,0.05148
2304.85064,0.05160
2302.92190,0.05172
2300.99315,0.05176
2299.06441,0.05162
2297.13566,0.05140
2295.20692,0.05128
2293.27817,0.05122
2291.34943,0.05121
2289.42068,0.05128
2287.49193,0.05137
2285.56319,0.05139
2283.63444,0.05134
2281.70570,0.05122
2279.77695,0.05111
2277.84821,0.05121
2275.91946,0.05149
2273.99072,0.05165
2272.06197,0.05159
2270.13323,0.05143
2268.20448,0.05129
2266.27574,0.05133
2264.34699,0.05141
2262.41825,0.05135
2260.48950,0.05133
2258.56075,0.05139
2256.63201,0.05144
2254.70326,0.05150
2252.77452,0.05148
2250.84577,0.05139
2248.91703,0.05135
2246.98828,0.05130
2245.05954,0.05125
2243.13079,0.05127
2241.20205,0.05125
2239.27330,0.05124
2237.34456,0.05128
2235.41581,0.05116
2233.48707,0.05103
2231.55832,0.05106
2229.62958,0.05114
2227.70083,0.05128
2225.77208,0.05144
2223.84334,0.05142
2221.91459,0.05125
2219.98585,0.05113
2218.05710,0.05117
2216.12836,0.05130
2214.19961,0.05134
2212.27087,0.05116
2210.34212,0.05088
2208.41338,0.05081
2206.48463,0.05105
2204.55589,0.05130
2202.62714,0.05141
2200.69840,0.05143
2198.76965,0.05129
2196.84090,0.05099
2194.91216,0.05078
2192.98341,0.05075
2191.05467,0.05086
2189.12592,0.05107
2187.19718,0.05128
2185.26843,0.05124
2183.33969,0.05101
2181.41094,0.05100
2179.48220,0.05110
2177.55345,0.05108
2175.62471,0.05111
2173.69596,0.05115
2171.76722,0.05109
2169.83847,0.05103
2167.90973,0.05099
2165.98098,0.05084
2164.05223,0.05068
2162.12349,0.05064
2160.19474,0.05073
2158.26600,0.05081
2156.33725,0.05072
2154.40851,0.05052
2152.47976,0.05041
2150.55102,0.05039
2148.62227,0.05034
2146.69353,0.05030
2144.76478,0.05036
2142.83604,0.05045
2140.90729,0.05044
2138.97855,0.05039
2137.04980,0.05049
2135.12106,0.05061
2133.19231,0.05055
2131.26356,0.05035
2129.33482,0.05023
2127.40607,0.05024
2125.47733,0.05031
2123.54858,0.05037
2121.61984,0.05040
2119.69109,0.05038
2117.76235,0.05028
2115.83360,0.05024
2113.90486,0.05031
2111.97611,0.05032
2110.04737,0.05025
2108.11862,0.05024
2106.18988,0.05030
2104.26113,0.05035
2102.33238,0.05035
2100.40364,0.05026
2098.47489,0.05019
2096.54615,0.05026
2094.61740,0.05031
2092.68866,0.05025
2090.75991,0.05018
2088.83117,0.05016
2086.90242,0.05016
2084.97368,0.05011
2083.04493,0.05001
2081.11619,0.05002
2079.18744,0.05010
2077.25870,0.05001
2075.32995,0.04984
2073.40121,0.04995
2071.47246,0.05032
2069.54371,0.05059
2067.61497,0.05052
2065.68622,0.05028
2063.75748,0.05010
2061.82873,0.04995
2059.89999,0.04980
2057.97124,0.04968
2056.04250,0.04976
2054.11375,0.04997
2052.18501,0.05000
2050.25626,0.04994
2048.32752,0.04993
2046.39877,0.04991
2044.47003,0.04999
2042.54128,0.05021
2040.61254,0.05030
2038.68379,0.05022
2036.75504,0.05007
2034.82630,0.04991
2032.89755,0.04984
2030.96881,0.04983
2029.04006,0.04971
2027.11132,0.04957
2025.18257,0.04956
2023.25383,0.04964
2021.32508,0.04971
2019.39634,0.04972
2017.46759,0.04975
2015.53885,0.04978
2013.61010,0.04974
2011.68136,0.04962
2009.75261,0.04946
2007.82386,0.04937
2005.89512,0.04938
2003.96637,0.04945
2002.03763,0.04961
2000.10888,0.04972
1998.18014,0.04962
1996.25139,0.04941
1994.32265,0.04931
1992.39390,0.04930
1990.46516,0.04936
1988.53641,0.04942
1986.60767,0.04950
1984.67892,0.04963
1982.75018,0.04967
1980.82143,0.04950
1978.89269,0.04924
1976.96394,0.04908
1975.03519,0.04903
1973.10645,0.04907
1971.17770,0.04918
1969.24896,0.04918
1967.32021,0.04908
1965.39147,0.04911
1963.46272,0.04919
1961.53398,0.04918
1959.60523,0.04919
1957.67649,0.04924
1955.74774,0.04921
1953.81900,0.04916
1951.89025,0.04923
1949.96151,0.04931
1948.03276,0.04927
1946.10402,0.04923
1944.17527,0.04919
1942.24652,0.04911
1940.31778,0.04907
1938.38903,0.04902
1936.46029,0.04889
1934.53154,0.04873
1932.60280,0.04861
1930.67405,0.04861
1928.74531,0.04880
1926.81656,0.04899
1924.88782,0.04904
1922.95907,0.04901
1921.03033,0.04891
1919.10158,0.04876
1917.17284,0.04864
1915.24409,0.04857
1913.31534,0.04847
1911.38660,0.04839
1909.45785,0.04833
1907.52911,0.04831
1905.60036,0.04841
1903.67162,0.04855
1901.74287,0.04857
1899.81413,0.04847
1897.88538,0.04838
1895.95664,0.04836
1894.02789,0.04838
1892.09915,0.04831
1890.17040,0.04820
1888.24166,0.04811
1886.31291,0.04796
1884.38417,0.04778
1882.45542,0.04779
1880.52667,0.04798
1878.59793,0.04807
1876.66918,0.04799
1874.74044,0.04783
1872.81169,0.04763
1870.88295,0.04747
1868.95420,0.04739
1867.02546,0.04743
1865.09671,0.04750
1863.16797,0.04736
1861.23922,0.04709
1859.31048,0.04699
1857.38173,0.04699
1855.45299,0.04693
1853.52424,0.04682
1851.59549,0.04670
1849.66675,0.04664
1847.73800,0.04666
1845.80926,0.04663
1843.88051,0.04646
1841.95177,0.04625
1840.02302,0.04619
1838.09428,0.04617
1836.16553,0.04598
1834.23679,0.04572
1832.30804,0.04567
1830.37930,0.04572
1828.45055,0.04561
1826.52181,0.04543
1824.59306,0.04531
1822.66432,0.04517
1820.73557,0.04511
1818.80682,0.04510
1816.87808,0.04490
1814.94933,0.04456
1813.02059,0.04435
1811.09184,0.04433
1809.16310,0.04436
1807.23435,0.04421
1805.30561,0.04387
1803.37686,0.04357
1801.44812,0.04333
1799.51937,0.04302
1797.59063,0.04274
1795.66188,0.04260
1793.73314,0.04253
1791.80439,0.04240
1789.87565,0.04213
1787.94690,0.04178
1786.01815,0.04151
1784.08941,0.04128
1782.16066,0.04092
1780.23192,0.04048
1778.30317,0.04013
1776.37443,0.03990
1774.44568,0.03964
1772.51694,0.03903
1770.58819,0.03806
1768.65945,0.03708
1766.73070,0.03638
1764.80196,0.03584
1762.87321,0.03508
1760.94447,0.03404
1759.01572,0.03292
1757.08697,0.03155
1755.15823,0.03000
1753.22948,0.02851
1751.30074,0.02676
1749.37199,0.02483
1747.44325,0.02385
1745.51450,0.02464
1743.58576,0.02731
1741.65701,0.03173
1739.72827,0.03783
1737.79952,0.04437
1735.87078,0.05099
1733.94203,0.05938
1732.01329,0.06780
1730.08454,0.07429
1728.15580,0.07981
1726.22705,0.08419
1724.29830,0.08709
1722.36956,0.08846
1720.44081,0.08828
1718.51207,0.08633
1716.58332,0.08301
1714.65458,0.07985
1712.72583,0.07713
1710.79709,0.07445
1708.86834,0.07191
1706.93960,0.06971
1705.01085,0.06786
1703.08211,0.06636
1701.15336,0.06480
1699.22462,0.06327
1697.29587,0.06221
1695.36713,0.06124
1693.43838,0.06045
1691.50963,0.06003
1689.58089,0.05973
1687.65214,0.05946
1685.72340,0.05906
1683.79465,0.05838
1681.86591,0.05771
1679.93716,0.05725
1678.00842,0.05690
1676.07967,0.05670
1674.15093,0.05655
1672.22218,0.05625
1670.29344,0.05584
1668.36469,0.05553
1666.43595,0.05543
1664.50720,0.05527
1662.57845,0.05506
1660.64971,0.05501
1658.72096,0.05500
1656.79222,0.05476
1654.86347,0.05433
1652.93473,0.05382
1651.00598,0.05360
1649.07724,0.05368
1647.14849,0.05379
1645.21975,0.05377
1643.29100,0.05364
1641.36226,0.05359
1639.43351,0.05362
1637.50477,0.05350
1635.57602,0.05309
1633.64728,0.05277
1631.71853,0.05277
1629.78978,0.05285
1627.86104,0.05282
1625.93229,0.05262
1624.00355,0.05239
1622.07480,0.05234
1620.14606,0.05234
1618.21731,0.05209
1616.28857,0.05174
1614.35982,0.05166
1612.43108,0.05167
1610.50233,0.05152
1608.57359,0.05132
1606.64484,0.05123
1604.71610,0.05124
1602.78735,0.05123
1600.85861,0.05115
1598.92986,0.05113
1597.00111,0.05117
1595.07237,0.05113
1593.14362,0.05100
1591.21488,0.05079
1589.28613,0.05051
1587.35739,0.05023
1585.42864,0.05008
1583.49990,0.05003
1581.57115,0.05005
1579.64241,0.05012
1577.71366,0.05003
1575.78492,0.04961
1573.85617,0.04938
1571.92743,0.04956
1569.99868,0.04961
1568.06993,0.04927
1566.14119,0.04896
1564.21244,0.04891
1562.28370,0.04896
1560.35495,0.04894
1558.42621,0.04879
1556.49746,0.04860
1554.56872,0.04844
1552.63997,0.04836
1550.71123,0.04842
1548.78248,0.04854
1546.85374,0.04855
1544.92499,0.04842
1542.99625,0.04831
1541.06750,0.04833
1539.13876,0.04827
1537.21001,0.04809
1535.28126,0.04779
1533.35252,0.04735
1531.42377,0.04706
1529.49503,0.04707
1527.56628,0.04715
1525.63754,0.04719
1523.70879,0.04730
1521.78005,0.04722
1519.85130,0.04677
1517.92256,0.04633
1515.99381,0.04598
1514.06507,0.04572
1512.13632,0.04562
1510.20758,0.04553
1508.27883,0.04517
1506.35008,0.04436
1504.42134,0.04361
1502.49259,0.04326
1500.56385,0.04297
1498.63510,0.04249
1496.70636,0.04201
1494.77761,0.04175
1492.84887,0.04152
1490.92012,0.04143
1488.99138,0.04197
1487.06263,0.04301
1485.13389,0.04408
1483.20514,0.04503
1481.27640,0.04569
1479.34765,0.04597
1477.41891,0.04606
1475.49016,0.04617
1473.56141,0.04637
1471.63267,0.04648
1469.70392,0.04640
1467.77518,0.04625
1465.84643,0.04603
1463.91769,0.04589
1461.98894,0.04606
1460.06020,0.04639
1458.13145,0.04640
1456.20271,0.04598
1454.27396,0.04609
1452.34522,0.04686
1450.41647,0.04789
1448.48773,0.04901
1446.55898,0.05010
1444.63024,0.05083
1442.70149,0.05116
1440.77274,0.05140
1438.84400,0.05182
1436.91525,0.05268
1434.98651,0.05402
1433.05776,0.05554
1431.12902,0.05695
1429.20027,0.05767
1427.27153,0.05740
1425.34278,0.05657
1423.41404,0.05574
1421.48529,0.05514
1419.55655,0.05435
1417.62780,0.05339
1415.69906,0.05284
1413.77031,0.05251
1411.84156,0.05196
1409.91282,0.05119
1407.98407,0.05055
1406.05533,0.05008
1404.12658,0.04959
1402.19784,0.04913
1400.26909,0.04882
1398.34035,0.04857
1396.41160,0.04838
1394.48286,0.04830
1392.55411,0.04839
1390.62537,0.04873
1388.69662,0.04932
1386.76788,0.04996
1384.83913,0.05039
1382.91039,0.05067
1380.98164,0.05095
1379.05289,0.05118
1377.12415,0.05120
1375.19540,0.05077
1373.26666,0.05004
1371.33791,0.04950
1369.40917,0.04935
1367.48042,0.04944
1365.55168,0.04953
1363.62293,0.04943
1361.69419,0.04922
1359.76544,0.04904
1357.83670,0.04883
1355.90795,0.04865
1353.97921,0.04863
1352.05046,0.04855
1350.12172,0.04825
1348.19297,0.04799
1346.26422,0.04793
1344.33548,0.04790
1342.40673,0.04764
1340.47799,0.04723
1338.54924,0.04707
1336.62050,0.04706
1334.69175,0.04689
1332.76301,0.04664
1330.83426,0.04644
1328.90552,0.04628
1326.97677,0.04603
1325.04803,0.04557
1323.11928,0.04510
1321.19054,0.04488
1319.26179,0.04471
1317.33304,0.04446
1315.40430,0.04419
1313.47555,0.04389
1311.54681,0.04348
1309.61806,0.04301
1307.68932,0.04259
1305.76057,0.04222
1303.83183,0.04181
1301.90308,0.04129
1299.97434,0.04077
1298.04559,0.04045
1296.11685,0.04016
1294.18810,0.03966
1292.25936,0.03913
1290.33061,0.03861
1288.40187,0.03813
1286.47312,0.03778
1284.54437,0.03747
1282.61563,0.03713
1280.68688,0.03684
1278.75814,0.03680
1276.82939,0.03729
1274.90065,0.03847
1272.97190,0.04011
1271.04316,0.04178
1269.11441,0.04319
1267.18567,0.04416
1265.25692,0.04463
1263.32818,0.04467
1261.39943,0.04440
1259.47069,0.04398
1257.54194,0.04345
1255.61320,0.04287
1253.68445,0.04262
1251.75570,0.04284
1249.82696,0.04334
1247.89821,0.04412
1245.96947,0.04537
1244.04072,0.04694
1242.11198,0.04853
1240.18323,0.05010
1238.25449,0.05162
1236.32574,0.05285
1234.39700,0.05357
1232.46825,0.05376
1230.53951,0.05343
1228.61076,0.05277
1226.68202,0.05198
1224.75327,0.05101
1222.82452,0.04975
1220.89578,0.04833
1218.96703,0.04688
1217.03829,0.04528
1215.10954,0.04351
1213.18080,0.04180
1211.25205,0.04026
1209.32331,0.03879
1207.39456,0.03755
1205.46582,0.03695
1203.53707,0.03719
1201.60833,0.03823
1199.67958,0.04021
1197.75084,0.04304
1195.82209,0.04627
1193.89335,0.04956
1191.96460,0.05262
1190.03585,0.05484
1188.10711,0.05572
1186.17836,0.05558
1184.24962,0.05506
1182.32087,0.05444
1180.39213,0.05390
1178.46338,0.05374
1176.53464,0.05379
1174.60589,0.05377
1172.67715,0.05381
1170.74840,0.05388
1168.81966,0.05383
1166.89091,0.05375
1164.96217,0.05381
1163.03342,0.05419
1161.10467,0.05507
1159.17593,0.05656
1157.24718,0.05879
1155.31844,0.06210
1153.38969,0.06709
1151.46095,0.07371
1149.53220,0.08071
1147.60346,0.08651
1145.67471,0.09028
1143.74597,0.09230
1141.81722,0.09311
1139.88848,0.09288
1137.95973,0.09200
1136.03099,0.09077
1134.10224,0.08917
1132.17350,0.08734
1130.24475,0.08570
1128.31600,0.08431
1126.38726,0.08308
1124.45851,0.08199
1122.52977,0.08101
1120.60102,0.08030
1118.67228,0.07985
1116.74353,0.07914
1114.81479,0.07792
1112.88604,0.07662
1110.95730,0.07570
1109.02855,0.07495
1107.09981,0.07416
1105.17106,0.07358
1103.24232,0.07315
1101.31357,0.07255
1099.38483,0.07177
1097.45608,0.07084
1095.52733,0.06987
1093.59859,0.06913
1091.66984,0.06873
1089.74110,0.06841
1087.81235,0.06787
1085.88361,0.06724
1083.95486,0.06692
1082.02612,0.06693
1080.09737,0.06676
1078.16863,0.06623
1076.23988,0.06580
1074.31114,0.06567
1072.38239,0.06554
1070.45365,0.06540
1068.52490,0.06536
1066.59615,0.06546
1064.66741,0.06594
1062.73866,0.06661
1060.80992,0.06685
1058.88117,0.06677
1056.95243,0.06694
1055.02368,0.06714
1053.09494,0.06690
1051.16619,0.06652
1049.23745,0.06621
1047.30870,0.06572
1045.37996,0.06508
1043.45121,0.06437
1041.52247,0.06366
1039.59372,0.06315
1037.66498,0.06285
1035.73623,0.06266
1033.80748,0.06247
1031.87874,0.06213
1029.94999,0.06174
1028.02125,0.06161
1026.09250,0.06159
1024.16376,0.06135
1022.23501,0.06094
1020.30627,0.06039
1018.37752,0.05973
1016.44878,0.05916
1014.52003,0.05874
1012.59129,0.05829
1010.66254,0.05753
1008.73380,0.05657
1006.80505,0.05585
1004.87631,0.05549
1002.94756,0.05511
1001.01881,0.05456
999.09007,0.05436
997.16132,0.05483
995.23258,0.05583
993.30383,0.05706
991.37509,0.05819
989.44634,0.05899
987.51760,0.05956
985.58885,0.06023
983.66011,0.06109
981.73136,0.06182
979.80262,0.06219
977.87387,0.06209
975.94513,0.06151
974.01638,0.06085
972.08763,0.06073
970.15889,0.06121
968.23014,0.06181
966.30140,0.06228
964.37265,0.06283
962.44391,0.06344
960.51516,0.06387
958.58642,0.06410
956.65767,0.06410
954.72893,0.06366
952.80018,0.06315
950.87144,0.06310
948.94269,0.06324
947.01395,0.06312
945.08520,0.06283
943.15646,0.06262
941.22771,0.06252
939.29896,0.06242
937.37022,0.06224
935.44147,0.06191
933.51273,0.06160
931.58398,0.06141
929.65524,0.06118
927.72649,0.06081
925.79775,0.06060
923.86900,0.06084
921.94026,0.06113
920.01151,0.06100
918.08277,0.06056
916.15402,0.06021
914.22528,0.06024
912.29653,0.06056
910.36779,0.06089
908.43904,0.06115
906.51029,0.06130
904.58155,0.06115
902.65280,0.06071
900.72406,0.06035
898.79531,0.06035
896.86657,0.06046
894.93782,0.06043
893.00908,0.06024
891.08033,0.05996
889.15159,0.05962
887.22284,0.05921
885.29410,0.05899
883.36535,0.05912
881.43661,0.05910
879.50786,0.05887
877.57911,0.05879
875.65037,0.05864
873.72162,0.05828
871.79288,0.05813
869.86413,0.05831
867.93539,0.05838
866.00664,0.05810
864.07790,0.05777
862.14915,0.05758
860.22041,0.05750
858.29166,0.05758
856.36292,0.05755
854.43417,0.05719
852.50543,0.05727
850.57668,0.05797
848.64794,0.05845
846.71919,0.05858
844.79044,0.05872
842.86170,0.05917
840.93295,0.06020
839.00421,0.06132
837.07546,0.06186
835.14672,0.06166
833.21797,0.06097
831.28923,0.06025
829.36048,0.05979
827.43174,0.05967
825.50299,0.05992
823.57425,0.06025
821.64550,0.06038
819.71676,0.06044
817.78801,0.06031
815.85926,0.05986
813.93052,0.05953
812.00177,0.05964
810.07303,0.06000
808.14428,0.06026
806.21554,0.06034
804.28679,0.06043
802.35805,0.06052
800.42930,0.06050
798.50056,0.06031
796.57181,0.06021
794.64307,0.06035
792.71432,0.06034
790.78558,0.05982
788.85683,0.05907
786.92809,0.05865
784.99934,0.05872
783.07059,0.05880
781.14185,0.05846
779.21310,0.05783
777.28436,0.05710
775.35561,0.05655
773.42687,0.05635
771.49812,0.05627
769.56938,0.05621
767.64063,0.05618
765.71189,0.05615
763.78314,0.05608
761.85440,0.05584
759.92565,0.05558
757.99691,0.05569
756.06816,0.05619
754.13942,0.05707
752.21067,0.05858
750.28192,0.06067
748.35318,0.06272
746.42443,0.06397
744.49569,0.06412
742.56694,0.06346
740.63820,0.06231
738.70945,0.06142
736.78071,0.06146
734.85196,0.06161
732.92322,0.06131
730.99447,0.06125
729.06573,0.06151
727.13698,0.06140
725.20824,0.06089
723.27949,0.06034
721.35074,0.06001
719.42200,0.05979
717.49325,0.05952
715.56451,0.05941
713.63576,0.05952
711.70702,0.05954
709.77827,0.05934
707.84953,0.05897
705.92078,0.05851
703.99204,0.05808
702.06329,0.05804
700.13455,0.05834
698.20580,0.05852
696.27706,0.05841
694.34831,0.05831
692.41957,0.05880
690.49082,0.05963
688.56207,0.05977
686.63333,0.05928
684.70458,0.05909
682.77584,0.05926
680.84709,0.05922
678.91835,0.05880
676.98960,0.05817
675.06086,0.05758
673.13211,0.05733
671.20337,0.05747
669.27462,0.05761
667.34588,0.05735
665.41713,0.05714
663.48839,0.05744
661.55964,0.05751
659.63090,0.05713
657.70215,0.05702
655.77340,0.05692
653.84466,0.05658
651.91591,0.05659
649.98717,0.05681
648.05842,0.05681
646.12968,0.05652
644.20093,0.05592
642.27219,0.05517
640.34344,0.05453
638.41470,0.05453
636.48595,0.05515
634.55721,0.05525
632.62846,0.05485
630.69972,0.05503
628.77097,0.05531
626.84222,0.05480
624.91348,0.05448
622.98473,0.05489
621.05599,0.05513
619.12724,0.05507
617.19850,0.05503
615.26975,0.05507
613.34101,0.05508
611.41226,0.05483
609.48352,0.05470
607.55477,0.05483
605.62603,0.05516
603.69728,0.05594
601.76854,0.05615
599.83979,0.05479
