7497.03301,0.04780
7495.10426,0.04972
7493.17552,0.05179
7491.24677,0.05288
7489.31803,0.05209
7487.38928,0.05312
7485.46054,0.05642
7483.53179,0.05566
7481.60305,0.05062
7479.67430,0.04845
7477.74556,0.05013
7475.81681,0.05164
7473.88807,0.05264
7471.95932,0.05576
7470.03057,0.05725
7468.10183,0.05433
7466.17308,0.05266
7464.24434,0.05262
7462.31559,0.04888
7460.38685,0.04610
7458.45810,0.04958
7456.52936,0.05455
7454.60061,0.05650
7452.67187,0.05453
7450.74312,0.05035
7448.81438,0.05063
7446.88563,0.05340
7444.95689,0.05325
7443.02814,0.05206
7441.09940,0.05185
7439.17065,0.05218
7437.24190,0.05110
7435.31316,0.04847
7433.38441,0.04868
7431.45567,0.05024
7429.52692,0.04925
7427.59818,0.04895
7425.66943,0.05278
7423.74069,0.05530
7421.81194,0.05474
7419.88320,0.05491
7417.95445,0.05557
7416.02571,0.05562
7414.09696,0.05629
7412.16822,0.05519
7410.23947,0.05378
7408.31073,0.05558
7406.38198,0.05667
7404.45323,0.05370
7402.52449,0.05161
7400.59574,0.05177
7398.66700,0.05166
7396.73825,0.05059
7394.80951,0.05236
7392.88076,0.05728
7390.95202,0.06113
7389.02327,0.06056
7387.09453,0.05889
7385.16578,0.05936
7383.23704,0.05852
7381.30829,0.05362
7379.37955,0.04937
7377.45080,0.04942
7375.52205,0.05044
7373.59331,0.04953
7371.66456,0.04940
7369.73582,0.05005
7367.80707,0.04957
7365.87833,0.05040
7363.94958,0.05386
7362.02084,0.05649
7360.09209,0.05757
7358.16335,0.05936
7356.23460,0.06063
7354.30586,0.05912
7352.37711,0.05585
7350.44837,0.05339
7348.51962,0.05247
7346.59088,0.05050
7344.66213,0.04875
7342.73338,0.04993
7340.80464,0.05297
7338.87589,0.05565
7336.94715,0.05589
7335.01840,0.05248
7333.08966,0.04978
7331.16091,0.05241
7329.23217,0.05558
7327.30342,0.05244
7325.37468,0.04735
7323.44593,0.04543
7321.51719,0.04631
7319.58844,0.04905
7317.65970,0.05322
7315.73095,0.05703
7313.80221,0.05748
7311.87346,0.05385
7309.94471,0.04930
7308.01597,0.04659
7306.08722,0.04615
7304.15848,0.04647
7302.22973,0.04693
7300.30099,0.04898
7298.37224,0.05358
7296.44350,0.05789
7294.51475,0.05742
7292.58601,0.05307
7290.65726,0.05088
7288.72852,0.05198
7286.79977,0.05277
7284.87103,0.05188
7282.94228,0.05141
7281.01353,0.05115
7279.08479,0.05021
7277.15604,0.05031
7275.22730,0.05085
7273.29855,0.04960
7271.36981,0.04822
7269.44106,0.04818
7267.51232,0.05152
7265.58357,0.05834
7263.65483,0.06253
7261.72608,0.05841
7259.79734,0.05212
7257.86859,0.05032
7255.93985,0.05071
7254.01110,0.05090
7252.08236,0.05236
7250.15361,0.05357
7248.22486,0.05240
7246.29612,0.05006
7244.36737,0.04957
7242.43863,0.04956
7240.50988,0.04728
7238.58114,0.04586
7236.65239,0.04730
7234.72365,0.04932
7232.79490,0.05243
7230.86616,0.05366
7228.93741,0.04995
7227.00867,0.04674
7225.07992,0.04838
7223.15118,0.05242
7221.22243,0.05506
7219.29369,0.05435
7217.36494,0.05285
7215.43619,0.05291
7213.50745,0.05265
7211.57870,0.05253
7209.64996,0.05447
7207.72121,0.05512
7205.79247,0.05349
7203.86372,0.05474
7201.93498,0.05798
7200.00623,0.05791
7198.07749,0.05697
7196.14874,0.05898
7194.22000,0.06073
7192.29125,0.05959
7190.36251,0.05975
7188.43376,0.06224
7186.50501,0.06209
7184.57627,0.05773
7182.64752,0.05236
7180.71878,0.05035
7178.79003,0.05222
7176.86129,0.05287
7174.93254,0.05241
7173.00380,0.05329
7171.07505,0.05222
7169.14631,0.04954
7167.21756,0.05065
7165.28882,0.05314
7163.36007,0.05250
7161.43133,0.05012
7159.50258,0.04917
7157.57384,0.05029
7155.64509,0.05154
7153.71634,0.05106
7151.78760,0.04910
7149.85885,0.04858
7147.93011,0.05112
7146.00136,0.05333
7144.07262,0.05468
7142.14387,0.05826
7140.21513,0.06306
7138.28638,0.06405
7136.35764,0.05934
7134.42889,0.05250
7132.50015,0.04856
7130.57140,0.04874
7128.64266,0.04952
7126.71391,0.04888
7124.78516,0.04844
7122.85642,0.04904
7120.92767,0.05044
7118.99893,0.05146
7117.07018,0.05061
7115.14144,0.04826
7113.21269,0.04717
7111.28395,0.04884
7109.35520,0.05105
7107.42646,0.05266
7105.49771,0.05435
7103.56897,0.05555
7101.64022,0.05526
7099.71148,0.05145
7097.78273,0.04587
7095.85399,0.04476
7093.92524,0.04832
7091.99649,0.05117
7090.06775,0.05119
7088.13900,0.04781
7086.21026,0.04554
7084.28151,0.04945
7082.35277,0.05515
7080.42402,0.05775
7078.49528,0.05771
7076.56653,0.05680
7074.63779,0.05540
7072.70904,0.05159
7070.78030,0.04670
7068.85155,0.04499
7066.92281,0.04824
7064.99406,0.05254
7063.06532,0.05240
7061.13657,0.05016
7059.20782,0.05229
7057.27908,0.05564
7055.35033,0.05355
7053.42159,0.04940
7051.49284,0.04843
7049.56410,0.04896
7047.63535,0.04940
7045.70661,0.05008
7043.77786,0.05105
7041.84912,0.05161
7039.92037,0.05114
7037.99163,0.05045
7036.06288,0.05049
7034.13414,0.05087
7032.20539,0.05069
7030.27664,0.05123
7028.34790,0.05394
7026.41915,0.05608
7024.49041,0.05493
7022.56166,0.05213
7020.63292,0.05072
7018.70417,0.05034
7016.77543,0.04942
7014.84668,0.04989
7012.91794,0.05270
7010.98919,0.05475
7009.06045,0.05481
7007.13170,0.05203
7005.20296,0.04838
7003.27421,0.04931
7001.34547,0.05343
6999.41672,0.05542
6997.48797,0.05512
6995.55923,0.05399
6993.63048,0.05296
6991.70174,0.05319
6989.77299,0.05428
6987.84425,0.05465
6985.91550,0.05417
6983.98676,0.05387
6982.05801,0.05396
6980.12927,0.05262
6978.20052,0.04998
6976.27178,0.04848
6974.34303,0.04776
6972.41429,0.04887
6970.48554,0.05267
6968.55680,0.05437
6966.62805,0.05322
6964.69930,0.05282
6962.77056,0.05355
6960.84181,0.05482
6958.91307,0.05511
6956.98432,0.05362
6955.05558,0.05462
6953.12683,0.05774
6951.19809,0.05669
6949.26934,0.05366
6947.34060,0.05596
6945.41185,0.06049
6943.48311,0.05868
6941.55436,0.05153
6939.62562,0.04682
6937.69687,0.04705
6935.76812,0.05040
6933.83938,0.05383
6931.91063,0.05549
6929.98189,0.05579
6928.05314,0.05484
6926.12440,0.05422
6924.19565,0.05496
6922.26691,0.05361
6920.33816,0.05059
6918.40942,0.05046
6916.48067,0.05273
6914.55193,0.05272
6912.62318,0.05139
6910.69444,0.05375
6908.76569,0.05836
6906.83695,0.05956
6904.90820,0.05724
6902.97945,0.05387
6901.05071,0.05044
6899.12196,0.04919
6897.19322,0.05081
6895.26447,0.05363
6893.33573,0.05613
6891.40698,0.05586
6889.47824,0.05394
6887.54949,0.05391
6885.62075,0.05535
6883.69200,0.05636
6881.76326,0.05696
6879.83451,0.05748
6877.90577,0.05826
6875.97702,0.05899
6874.04828,0.05833
6872.11953,0.05601
6870.19078,0.05380
6868.26204,0.05322
6866.33329,0.05414
6864.40455,0.05432
6862.47580,0.05231
6860.54706,0.04926
6858.61831,0.04711
6856.68957,0.04718
6854.76082,0.04957
6852.83208,0.05261
6850.90333,0.05395
6848.97459,0.05328
6847.04584,0.05191
6845.11710,0.05082
6843.18835,0.05088
6841.25960,0.05195
6839.33086,0.05265
6837.40211,0.05097
6835.47337,0.04778
6833.54462,0.04795
6831.61588,0.05203
6829.68713,0.05521
6827.75839,0.05653
6825.82964,0.05734
6823.90090,0.05573
6821.97215,0.05168
6820.04341,0.04916
6818.11466,0.04942
6816.18592,0.05064
6814.25717,0.05135
6812.32843,0.05191
6810.39968,0.05328
6808.47093,0.05381
6806.54219,0.05280
6804.61344,0.05238
6802.68470,0.05276
6800.75595,0.05363
6798.82721,0.05517
6796.89846,0.05541
6794.96972,0.05311
6793.04097,0.05081
6791.11223,0.05102
6789.18348,0.05295
6787.25474,0.05340
6785.32599,0.05166
6783.39725,0.05077
6781.46850,0.05191
6779.53975,0.05279
6777.61101,0.05146
6775.68226,0.04900
6773.75352,0.04938
6771.82477,0.05329
6769.89603,0.05607
6767.96728,0.05544
6766.03854,0.05465
6764.10979,0.05490
6762.18105,0.05350
6760.25230,0.05051
6758.32356,0.04981
6756.39481,0.05191
6754.46607,0.05282
6752.53732,0.05117
6750.60858,0.04877
6748.67983,0.04707
6746.75108,0.04822
6744.82234,0.05231
6742.89359,0.05601
6740.96485,0.05653
6739.03610,0.05381
6737.10736,0.05004
6735.17861,0.04800
6733.24987,0.04934
6731.32112,0.05246
6729.39238,0.05319
6727.46363,0.05169
6725.53489,0.05195
6723.60614,0.05383
6721.67740,0.05420
6719.74865,0.05430
6717.81991,0.05528
6715.89116,0.05455
6713.96241,0.05277
6712.03367,0.05338
6710.10492,0.05562
6708.17618,0.05686
6706.24743,0.05614
6704.31869,0.05472
6702.38994,0.05471
6700.46120,0.05541
6698.53245,0.05455
6696.60371,0.05348
6694.67496,0.05418
6692.74622,0.05526
6690.81747,0.05545
6688.88873,0.05533
6686.95998,0.05457
6685.03123,0.05306
6683.10249,0.05146
6681.17374,0.05001
6679.24500,0.04918
6677.31625,0.04981
6675.38751,0.05185
6673.45876,0.05389
6671.53002,0.05374
6669.60127,0.05197
6667.67253,0.05093
6665.74378,0.05030
6663.81504,0.05047
6661.88629,0.05291
6659.95755,0.05473
6658.02880,0.05400
6656.10006,0.05314
6654.17131,0.05275
6652.24256,0.05166
6650.31382,0.05086
6648.38507,0.05162
6646.45633,0.05268
6644.52758,0.05245
6642.59884,0.05233
6640.67009,0.05406
6638.74135,0.05580
6636.81260,0.05552
6634.88386,0.05459
6632.95511,0.05483
6631.02637,0.05524
6629.09762,0.05377
6627.16888,0.05144
6625.24013,0.04989
6623.31139,0.04910
6621.38264,0.04980
6619.45389,0.05199
6617.52515,0.05404
6615.59640,0.05476
6613.66766,0.05369
6611.73891,0.05205
6609.81017,0.05152
6607.88142,0.05258
6605.95268,0.05358
6604.02393,0.05252
6602.09519,0.05091
6600.16644,0.05139
6598.23770,0.05320
6596.30895,0.05406
6594.38021,0.05317
6592.45146,0.05204
6590.52271,0.05199
6588.59397,0.05301
6586.66522,0.05373
6584.73648,0.05405
6582.80773,0.05505
6580.87899,0.05527
6578.95024,0.05438
6577.02150,0.05514
6575.09275,0.05661
6573.16401,0.05584
6571.23526,0.05394
6569.30652,0.05329
6567.37777,0.05352
6565.44903,0.05381
6563.52028,0.05419
6561.59154,0.05411
6559.66279,0.05220
6557.73404,0.04935
6555.80530,0.04906
6553.87655,0.05090
6551.94781,0.05184
6550.01906,0.05207
6548.09032,0.05242
6546.16157,0.05232
6544.23283,0.05206
6542.30408,0.05243
6540.37534,0.05293
6538.44659,0.05279
6536.51785,0.05166
6534.58910,0.05025
6532.66036,0.05099
6530.73161,0.05410
6528.80287,0.05544
6526.87412,0.05360
6524.94537,0.05210
6523.01663,0.05173
6521.08788,0.05013
6519.15914,0.04842
6517.23039,0.04827
6515.30165,0.04850
6513.37290,0.04888
6511.44416,0.04930
6509.51541,0.04917
6507.58667,0.05016
6505.65792,0.05264
6503.72918,0.05442
6501.80043,0.05484
6499.87169,0.05454
6497.94294,0.05381
6496.01419,0.05330
6494.08545,0.05272
6492.15670,0.05111
6490.22796,0.04982
6488.29921,0.05010
6486.37047,0.05085
6484.44172,0.05224
6482.51298,0.05408
6480.58423,0.05485
6478.65549,0.05551
6476.72674,0.05585
6474.79800,0.05379
6472.86925,0.05068
6470.94051,0.04944
6469.01176,0.04989
6467.08302,0.04950
6465.15427,0.04870
6463.22552,0.04994
6461.29678,0.05225
6459.36803,0.05316
6457.43929,0.05324
6455.51054,0.05398
6453.58180,0.05453
6451.65305,0.05437
6449.72431,0.05508
6447.79556,0.05714
6445.86682,0.05877
6443.93807,0.05773
6442.00933,0.05460
6440.08058,0.05241
6438.15184,0.05269
6436.22309,0.05353
6434.29434,0.05277
6432.36560,0.05213
6430.43685,0.05280
6428.50811,0.05224
6426.57936,0.05090
6424.65062,0.05158
6422.72187,0.05301
6420.79313,0.05315
6418.86438,0.05325
6416.93564,0.05431
6415.00689,0.05504
6413.07815,0.05392
6411.14940,0.05218
6409.22066,0.05206
6407.29191,0.05336
6405.36317,0.05449
6403.43442,0.05478
6401.50567,0.05461
6399.57693,0.05391
6397.64818,0.05218
6395.71944,0.05093
6393.79069,0.05169
6391.86195,0.05246
6389.93320,0.05140
6388.00446,0.05091
6386.07571,0.05260
6384.14697,0.05339
6382.21822,0.05147
6380.28948,0.05046
6378.36073,0.05192
6376.43199,0.05300
6374.50324,0.05209
6372.57450,0.04967
6370.64575,0.04764
6368.71700,0.04894
6366.78826,0.05249
6364.85951,0.05509
6362.93077,0.05587
6361.00202,0.05466
6359.07328,0.05287
6357.14453,0.05260
6355.21579,0.05332
6353.28704,0.05425
6351.35830,0.05416
6349.42955,0.05149
6347.50081,0.04899
6345.57206,0.04956
6343.64332,0.05210
6341.71457,0.05504
6339.78582,0.05677
6337.85708,0.05580
6335.92833,0.05315
6333.99959,0.05152
6332.07084,0.05195
6330.14210,0.05271
6328.21335,0.05188
6326.28461,0.05026
6324.35586,0.04953
6322.42712,0.05036
6320.49837,0.05321
6318.56963,0.05694
6316.64088,0.05783
6314.71214,0.05507
6312.78339,0.05268
6310.85465,0.05355
6308.92590,0.05525
6306.99715,0.05465
6305.06841,0.05269
6303.13966,0.05131
6301.21092,0.05034
6299.28217,0.05034
6297.35343,0.05162
6295.42468,0.05214
6293.49594,0.05066
6291.56719,0.04932
6289.63845,0.05057
6287.70970,0.05319
6285.78096,0.05458
6283.85221,0.05452
6281.92347,0.05358
6279.99472,0.05193
6278.06598,0.05022
6276.13723,0.04966
6274.20848,0.05075
6272.27974,0.05211
6270.35099,0.05238
6268.42225,0.05251
6266.49350,0.05322
6264.56476,0.05315
6262.63601,0.05132
6260.70727,0.04942
6258.77852,0.05040
6256.84978,0.05340
6254.92103,0.05512
6252.99229,0.05544
6251.06354,0.05465
6249.13480,0.05223
6247.20605,0.04955
6245.27730,0.04864
6243.34856,0.05013
6241.41981,0.05351
6239.49107,0.05600
6237.56232,0.05481
6235.63358,0.05300
6233.70483,0.05425
6231.77609,0.05577
6229.84734,0.05487
6227.91860,0.05263
6225.98985,0.05080
6224.06111,0.05012
6222.13236,0.05061
6220.20362,0.05141
6218.27487,0.05161
6216.34613,0.05224
6214.41738,0.05418
6212.48863,0.05549
6210.55989,0.05488
6208.63114,0.05359
6206.70240,0.05265
6204.77365,0.05222
6202.84491,0.05241
6200.91616,0.05283
6198.98742,0.05265
6197.05867,0.05149
6195.12993,0.05057
6193.20118,0.05139
6191.27244,0.05313
6189.34369,0.05385
6187.41495,0.05364
6185.48620,0.05382
6183.55746,0.05442
6181.62871,0.05442
6179.69996,0.05323
6177.77122,0.05113
6175.84247,0.05033
6173.91373,0.05154
6171.98498,0.05346
6170.05624,0.05560
6168.12749,0.05632
6166.19875,0.05480
6164.27000,0.05298
6162.34126,0.05194
6160.41251,0.05148
6158.48377,0.05122
6156.55502,0.05143
6154.62628,0.05233
6152.69753,0.05282
6150.76878,0.05260
6148.84004,0.05270
6146.91129,0.05371
6144.98255,0.05510
6143.05380,0.05497
6141.12506,0.05301
6139.19631,0.05132
6137.26757,0.05102
6135.33882,0.05075
6133.41008,0.05003
6131.48133,0.05020
6129.55259,0.05165
6127.62384,0.05296
6125.69510,0.05309
6123.76635,0.05257
6121.83761,0.05289
6119.90886,0.05410
6117.98011,0.05501
6116.05137,0.05566
6114.12262,0.05546
6112.19388,0.05328
6110.26513,0.05123
6108.33639,0.05147
6106.40764,0.05281
6104.47890,0.05341
6102.55015,0.05323
6100.62141,0.05306
6098.69266,0.05299
6096.76392,0.05319
6094.83517,0.05396
6092.90643,0.05405
6090.97768,0.05310
6089.04893,0.05391
6087.12019,0.05707
6085.19144,0.05804
6083.26270,0.05577
6081.33395,0.05427
6079.40521,0.05449
6077.47646,0.05424
6075.54772,0.05258
6073.61897,0.05115
6071.69023,0.05202
6069.76148,0.05401
6067.83274,0.05468
6065.90399,0.05405
6063.97525,0.05293
6062.04650,0.05162
6060.11776,0.05138
6058.18901,0.05273
6056.26026,0.05374
6054.33152,0.05294
6052.40277,0.05176
6050.47403,0.05218
6048.54528,0.05325
6046.61654,0.05298
6044.68779,0.05222
6042.75905,0.05212
6040.83030,0.05259
6038.90156,0.05382
6036.97281,0.05451
6035.04407,0.05294
6033.11532,0.05071
6031.18658,0.05063
6029.25783,0.05277
6027.32909,0.05435
6025.40034,0.05338
6023.47159,0.05172
6021.54285,0.05186
6019.61410,0.05268
6017.68536,0.05247
6015.75661,0.05242
6013.82787,0.05338
6011.89912,0.05396
6009.97038,0.05379
6008.04163,0.05382
6006.11289,0.05384
6004.18414,0.05301
6002.25540,0.05225
6000.32665,0.05298
5998.39791,0.05399
5996.46916,0.05345
5994.54041,0.05238
5992.61167,0.05242
5990.68292,0.05271
5988.75418,0.05260
5986.82543,0.05375
5984.89669,0.05540
5982.96794,0.05453
5981.03920,0.05210
5979.11045,0.05159
5977.18171,0.05283
5975.25296,0.05298
5973.32422,0.05094
5971.39547,0.04876
5969.46673,0.04878
5967.53798,0.05034
5965.60924,0.05123
5963.68049,0.05101
5961.75174,0.05095
5959.82300,0.05151
5957.89425,0.05227
5955.96551,0.05253
5954.03676,0.05193
5952.10802,0.05155
5950.17927,0.05178
5948.25053,0.05178
5946.32178,0.05125
5944.39304,0.05036
5942.46429,0.04927
5940.53555,0.04924
5938.60680,0.05109
5936.67806,0.05248
5934.74931,0.05157
5932.82057,0.04993
5930.89182,0.04933
5928.96307,0.04994
5927.03433,0.05027
5925.10558,0.04968
5923.17684,0.05004
5921.24809,0.05152
5919.31935,0.05166
5917.39060,0.05068
5915.46186,0.05025
5913.53311,0.05029
5911.60437,0.05126
5909.67562,0.05301
5907.74688,0.05398
5905.81813,0.05427
5903.88939,0.05412
5901.96064,0.05327
5900.03189,0.05227
5898.10315,0.05189
5896.17440,0.05194
5894.24566,0.05181
5892.31691,0.05187
5890.38817,0.05257
5888.45942,0.05314
5886.53068,0.05299
5884.60193,0.05246
5882.67319,0.05163
5880.74444,0.05074
5878.81570,0.05099
5876.88695,0.05241
5874.95821,0.05333
5873.02946,0.05261
5871.10072,0.05149
5869.17197,0.05188
5867.24322,0.05292
5865.31448,0.05239
5863.38573,0.05086
5861.45699,0.05063
5859.52824,0.05135
5857.59950,0.05159
5855.67075,0.05186
5853.74201,0.05247
5851.81326,0.05279
5849.88452,0.05299
5847.95577,0.05367
5846.02703,0.05430
5844.09828,0.05391
5842.16954,0.05280
5840.24079,0.05247
5838.31205,0.05328
5836.38330,0.05408
5834.45455,0.05450
5832.52581,0.05455
5830.59706,0.05356
5828.66832,0.05210
5826.73957,0.05137
5824.81083,0.05148
5822.88208,0.05209
5820.95334,0.05297
5819.02459,0.05361
5817.09585,0.05354
5815.16710,0.05274
5813.23836,0.05159
5811.30961,0.05138
5809.38087,0.05239
5807.45212,0.05272
5805.52337,0.05193
5803.59463,0.05128
5801.66588,0.05132
5799.73714,0.05192
5797.80839,0.05202
5795.87965,0.05102
5793.95090,0.05012
5792.02216,0.05013
5790.09341,0.05092
5788.16467,0.05242
5786.23592,0.05360
5784.30718,0.05288
5782.37843,0.05135
5780.44969,0.05109
5778.52094,0.05175
5776.59220,0.05213
5774.66345,0.05198
5772.73470,0.05196
5770.80596,0.05218
5768.87721,0.05211
5766.94847,0.05198
5765.01972,0.05168
5763.09098,0.05145
5761.16223,0.05205
5759.23349,0.05253
5757.30474,0.05193
5755.37600,0.05139
5753.44725,0.05198
5751.51851,0.05304
5749.58976,0.05334
5747.66102,0.05271
5745.73227,0.05250
5743.80352,0.05336
5741.87478,0.05385
5739.94603,0.05357
5738.01729,0.05364
5736.08854,0.05386
5734.15980,0.05344
5732.23105,0.05305
5730.30231,0.05319
5728.37356,0.05347
5726.44482,0.05328
5724.51607,0.05218
5722.58733,0.05111
5720.65858,0.05130
5718.72984,0.05262
5716.80109,0.05423
5714.87235,0.05515
5712.94360,0.05476
5711.01485,0.05290
5709.08611,0.05071
5707.15736,0.05006
5705.22862,0.05104
5703.29987,0.05208
5701.37113,0.05245
5699.44238,0.05267
5697.51364,0.05257
5695.58489,0.05189
5693.65615,0.05113
5691.72740,0.05107
5689.79866,0.05229
5687.86991,0.05331
5685.94117,0.05295
5684.01242,0.05276
5682.08368,0.05340
5680.15493,0.05353
5678.22618,0.05301
5676.29744,0.05253
5674.36869,0.05202
5672.43995,0.05193
5670.51120,0.05231
5668.58246,0.05219
5666.65371,0.05184
5664.72497,0.05164
5662.79622,0.05141
5660.86748,0.05131
5658.93873,0.05106
5657.00999,0.05082
5655.08124,0.05140
5653.15250,0.05201
5651.22375,0.05190
5649.29500,0.05199
5647.36626,0.05226
5645.43751,0.05235
5643.50877,0.05277
5641.58002,0.05376
5639.65128,0.05514
5637.72253,0.05543
5635.79379,0.05372
5633.86504,0.05226
5631.93630,0.05264
5630.00755,0.05318
5628.07881,0.05269
5626.15006,0.05247
5624.22132,0.05281
5622.29257,0.05251
5620.36383,0.05200
5618.43508,0.05262
5616.50633,0.05401
5614.57759,0.05470
5612.64884,0.05399
5610.72010,0.05265
5608.79135,0.05220
5606.86261,0.05289
5604.93386,0.05391
5603.00512,0.05466
5601.07637,0.05439
5599.14763,0.05330
5597.21888,0.05296
5595.29014,0.05375
5593.36139,0.05442
5591.43265,0.05441
5589.50390,0.05417
5587.57516,0.05385
5585.64641,0.05342
5583.71766,0.05287
5581.78892,0.05252
5579.86017,0.05261
5577.93143,0.05274
5576.00268,0.05306
5574.07394,0.05370
5572.14519,0.05389
5570.21645,0.05349
5568.28770,0.05326
5566.35896,0.05350
5564.43021,0.05352
5562.50147,0.05253
5560.57272,0.05165
5558.64398,0.05222
5556.71523,0.05296
5554.78648,0.05269
5552.85774,0.05236
5550.92899,0.05228
5549.00025,0.05172
5547.07150,0.05103
5545.14276,0.05094
5543.21401,0.05168
5541.28527,0.05320
5539.35652,0.05427
5537.42778,0.05406
5535.49903,0.05367
5533.57029,0.05366
5531.64154,0.05374
5529.71280,0.05413
5527.78405,0.05435
5525.85531,0.05397
5523.92656,0.05369
5521.99781,0.05391
5520.06907,0.05425
5518.14032,0.05402
5516.21158,0.05347
5514.28283,0.05387
5512.35409,0.05529
5510.42534,0.05659
5508.49660,0.05670
5506.56785,0.05544
5504.63911,0.05376
5502.71036,0.05239
5500.78162,0.05205
5498.85287,0.05304
5496.92413,0.05445
5494.99538,0.05506
5493.06664,0.05477
5491.13789,0.05452
5489.20914,0.05421
5487.28040,0.05368
5485.35165,0.05355
5483.42291,0.05361
5481.49416,0.05378
5479.56542,0.05391
5477.63667,0.05325
5475.70793,0.05267
5473.77918,0.05355
5471.85044,0.05434
5469.92169,0.05356
5467.99295,0.05269
5466.06420,0.05295
5464.13546,0.05385
5462.20671,0.05486
5460.27796,0.05527
5458.34922,0.05460
5456.42047,0.05410
5454.49173,0.05466
5452.56298,0.05512
5450.63424,0.05526
5448.70549,0.05594
5446.77675,0.05642
5444.84800,0.05603
5442.91926,0.05544
5440.99051,0.05478
5439.06177,0.05422
5437.13302,0.05402
5435.20428,0.05368
5433.27553,0.05349
5431.34679,0.05409
5429.41804,0.05461
5427.48929,0.05459
5425.56055,0.05485
5423.63180,0.05522
5421.70306,0.05482
5419.77431,0.05417
5417.84557,0.05401
5415.91682,0.05409
5413.98808,0.05458
5412.05933,0.05545
5410.13059,0.05550
5408.20184,0.05410
5406.27310,0.05248
5404.34435,0.05213
5402.41561,0.05244
5400.48686,0.05247
5398.55811,0.05297
5396.62937,0.05399
5394.70062,0.05470
5392.77188,0.05535
5390.84313,0.05617
5388.91439,0.05665
5386.98564,0.05641
5385.05690,0.05561
5383.12815,0.05481
5381.19941,0.05409
5379.27066,0.05356
5377.34192,0.05352
5375.41317,0.05357
5373.48443,0.05355
5371.55568,0.05383
5369.62694,0.05420
5367.69819,0.05398
5365.76944,0.05332
5363.84070,0.05330
5361.91195,0.05433
5359.98321,0.05545
5358.05446,0.05547
5356.12572,0.05477
5354.19697,0.05456
5352.26823,0.05458
5350.33948,0.05433
5348.41074,0.05416
5346.48199,0.05442
5344.55325,0.05485
5342.62450,0.05497
5340.69576,0.05507
5338.76701,0.05508
5336.83827,0.05496
5334.90952,0.05515
5332.98077,0.05543
5331.05203,0.05577
5329.12328,0.05592
5327.19454,0.05537
5325.26579,0.05463
5323.33705,0.05422
5321.40830,0.05428
5319.47956,0.05471
5317.55081,0.05493
5315.62207,0.05489
5313.69332,0.05483
5311.76458,0.05455
5309.83583,0.05421
5307.90709,0.05404
5305.97834,0.05371
5304.04959,0.05307
5302.12085,0.05305
5300.19210,0.05423
5298.26336,0.05523
5296.33461,0.05492
5294.40587,0.05424
5292.47712,0.05405
5290.54838,0.05393
5288.61963,0.05367
5286.69089,0.05358
5284.76214,0.05368
5282.83340,0.05403
5280.90465,0.05445
5278.97591,0.05419
5277.04716,0.05375
5275.11842,0.05391
5273.18967,0.05408
5271.26092,0.05426
5269.33218,0.05466
5267.40343,0.05468
5265.47469,0.05405
5263.54594,0.05311
5261.61720,0.05251
5259.68845,0.05265
5257.75971,0.05334
5255.83096,0.05408
5253.90222,0.05422
5251.97347,0.05368
5250.04473,0.05326
5248.11598,0.05348
5246.18724,0.05397
5244.25849,0.05415
5242.32975,0.05389
5240.40100,0.05358
5238.47225,0.05352
5236.54351,0.05327
5234.61476,0.05265
5232.68602,0.05233
5230.75727,0.05266
5228.82853,0.05317
5226.89978,0.05314
5224.97104,0.05250
5223.04229,0.05245
5221.11355,0.05331
5219.18480,0.05383
5217.25606,0.05386
5215.32731,0.05399
5213.39857,0.05430
5211.46982,0.05485
5209.54107,0.05536
5207.61233,0.05553
5205.68358,0.05532
5203.75484,0.05482
5201.82609,0.05457
5199.89735,0.05486
5197.96860,0.05489
5196.03986,0.05402
5194.11111,0.05322
5192.18237,0.05348
5190.25362,0.05410
5188.32488,0.05432
5186.39613,0.05416
5184.46739,0.05400
5182.53864,0.05444
5180.60990,0.05538
5178.68115,0.05563
5176.75240,0.05517
5174.82366,0.05500
5172.89491,0.05485
5170.96617,0.05417
5169.03742,0.05396
5167.10868,0.05466
5165.17993,0.05491
5163.25119,0.05438
5161.32244,0.05422
5159.39370,0.05442
5157.46495,0.05436
5155.53621,0.05442
5153.60746,0.05477
5151.67872,0.05480
5149.74997,0.05435
5147.82123,0.05380
5145.89248,0.05358
5143.96373,0.05382
5142.03499,0.05415
5140.10624,0.05447
5138.17750,0.05494
5136.24875,0.05551
5134.32001,0.05565
5132.39126,0.05489
5130.46252,0.05380
5128.53377,0.05314
5126.60503,0.05321
5124.67628,0.05387
5122.74754,0.05428
5120.81879,0.05425
5118.89005,0.05437
5116.96130,0.05459
5115.03255,0.05468
5113.10381,0.05494
5111.17506,0.05542
5109.24632,0.05570
5107.31757,0.05552
5105.38883,0.05494
5103.46008,0.05438
5101.53134,0.05445
5099.60259,0.05501
5097.67385,0.05528
5095.74510,0.05524
5093.81636,0.05542
5091.88761,0.05581
5089.95887,0.05592
5088.03012,0.05561
5086.10138,0.05513
5084.17263,0.05471
5082.24388,0.05468
5080.31514,0.05538
5078.38639,0.05638
5076.45765,0.05667
5074.52890,0.05639
5072.60016,0.05640
5070.67141,0.05647
5068.74267,0.05599
5066.81392,0.05540
5064.88518,0.05512
5062.95643,0.05488
5061.02769,0.05470
5059.09894,0.05472
5057.17020,0.05472
5055.24145,0.05462
5053.31270,0.05463
5051.38396,0.05503
5049.45521,0.05555
5047.52647,0.05530
5045.59772,0.05434
5043.66898,0.05408
5041.74023,0.05493
5039.81149,0.05572
5037.88274,0.05571
5035.95400,0.05531
5034.02525,0.05528
5032.09651,0.05589
5030.16776,0.05651
5028.23902,0.05612
5026.31027,0.05488
5024.38153,0.05424
5022.45278,0.05472
5020.52403,0.05536
5018.59529,0.05543
5016.66654,0.05498
5014.73780,0.05437
5012.80905,0.05415
5010.88031,0.05449
5008.95156,0.05496
5007.02282,0.05550
5005.09407,0.05610
5003.16533,0.05615
5001.23658,0.05547
4999.30784,0.05475
4997.37909,0.05440
4995.45035,0.05430
4993.52160,0.05431
4991.59286,0.05444
4989.66411,0.05484
4987.73536,0.05555
4985.80662,0.05596
4983.87787,0.05563
4981.94913,0.05522
4980.02038,0.05557
4978.09164,0.05632
4976.16289,0.05639
4974.23415,0.05579
4972.30540,0.05554
4970.37666,0.05570
4968.44791,0.05569
4966.51917,0.05530
4964.59042,0.05489
4962.66168,0.05516
4960.73293,0.05587
4958.80418,0.05570
4956.87544,0.05469
4954.94669,0.05405
4953.01795,0.05391
4951.08920,0.05401
4949.16046,0.05467
4947.23171,0.05574
4945.30297,0.05650
4943.37422,0.05653
4941.44548,0.05600
4939.51673,0.05530
4937.58799,0.05482
4935.65924,0.05490
4933.73050,0.05529
4931.80175,0.05550
4929.87301,0.05537
4927.94426,0.05485
4926.01551,0.05427
4924.08677,0.05400
4922.15802,0.05413
4920.22928,0.05447
4918.30053,0.05467
4916.37179,0.05469
4914.44304,0.05455
4912.51430,0.05430
4910.58555,0.05451
4908.65681,0.05500
4906.72806,0.05492
4904.79932,0.05443
4902.87057,0.05433
4900.94183,0.05484
4899.01308,0.05539
4897.08434,0.05546
4895.15559,0.05521
4893.22684,0.05513
4891.29810,0.05530
4889.36935,0.05538
4887.44061,0.05505
4885.51186,0.05449
4883.58312,0.05413
4881.65437,0.05426
4879.72563,0.05481
4877.79688,0.05538
4875.86814,0.05566
4873.93939,0.05553
4872.01065,0.05526
4870.08190,0.05529
4868.15316,0.05521
4866.22441,0.05489
4864.29566,0.05494
4862.36692,0.05515
4860.43817,0.05522
4858.50943,0.05530
4856.58068,0.05536
4854.65194,0.05529
4852.72319,0.05495
4850.79445,0.05432
4848.86570,0.05379
4846.93696,0.05372
4845.00821,0.05409
4843.07947,0.05455
4841.15072,0.05473
4839.22198,0.05465
4837.29323,0.05455
4835.36449,0.05442
4833.43574,0.05432
4831.50699,0.05454
4829.57825,0.05474
4827.64950,0.05447
4825.72076,0.05421
4823.79201,0.05437
4821.86327,0.05451
4819.93452,0.05433
4818.00578,0.05414
4816.07703,0.05426
4814.14829,0.05454
4812.21954,0.05478
4810.29080,0.05501
4808.36205,0.05506
4806.43331,0.05486
4804.50456,0.05467
4802.57582,0.05478
4800.64707,0.05531
4798.71832,0.05575
4796.78958,0.05566
4794.86083,0.05553
4792.93209,0.05550
4791.00334,0.05511
4789.07460,0.05439
4787.14585,0.05373
4785.21711,0.05346
4783.28836,0.05365
4781.35962,0.05405
4779.43087,0.05462
4777.50213,0.05555
4775.57338,0.05638
4773.64464,0.05642
4771.71589,0.05590
4769.78714,0.05548
4767.85840,0.05536
4765.92965,0.05538
4764.00091,0.05547
4762.07216,0.05546
4760.14342,0.05523
4758.21467,0.05494
4756.28593,0.05451
4754.35718,0.05377
4752.42844,0.05339
4750.49969,0.05398
4748.57095,0.05466
4746.64220,0.05466
4744.71346,0.05458
4742.78471,0.05460
4740.85597,0.05435
4738.92722,0.05417
4736.99847,0.05420
4735.06973,0.05411
4733.14098,0.05415
4731.21224,0.05449
4729.28349,0.05469
4727.35475,0.05447
4725.42600,0.05434
4723.49726,0.05485
4721.56851,0.05533
4719.63977,0.05498
4717.71102,0.05442
4715.78228,0.05432
4713.85353,0.05455
4711.92479,0.05460
4709.99604,0.05434
4708.06729,0.05421
4706.13855,0.05390
4704.20980,0.05332
4702.28106,0.05334
4700.35231,0.05401
4698.42357,0.05448
4696.49482,0.05441
4694.56608,0.05429
4692.63733,0.05437
4690.70859,0.05444
4688.77984,0.05418
4686.85110,0.05370
4684.92235,0.05365
4682.99361,0.05421
4681.06486,0.05482
4679.13612,0.05498
4677.20737,0.05491
4675.27862,0.05514
4673.34988,0.05549
4671.42113,0.05539
4669.49239,0.05509
4667.56364,0.05497
4665.63490,0.05469
4663.70615,0.05404
4661.77741,0.05358
4659.84866,0.05384
4657.91992,0.05416
4655.99117,0.05391
4654.06243,0.05375
4652.13368,0.05404
4650.20494,0.05450
4648.27619,0.05514
4646.34745,0.05551
4644.41870,0.05520
4642.48995,0.05456
4640.56121,0.05414
4638.63246,0.05422
4636.70372,0.05418
4634.77497,0.05365
4632.84623,0.05334
4630.91748,0.05360
4628.98874,0.05412
4627.05999,0.05468
4625.13125,0.05494
4623.20250,0.05470
4621.27376,0.05436
4619.34501,0.05403
4617.41627,0.05366
4615.48752,0.05366
4613.55877,0.05425
4611.63003,0.05486
4609.70128,0.05502
4607.77254,0.05477
4605.84379,0.05431
4603.91505,0.05411
4601.98630,0.05457
4600.05756,0.05516
4598.12881,0.05495
4596.20007,0.05438
4594.27132,0.05442
4592.34258,0.05469
4590.41383,0.05456
4588.48509,0.05448
4586.55634,0.05471
4584.62760,0.05477
4582.69885,0.05461
4580.77010,0.05455
4578.84136,0.05453
4576.91261,0.05443
4574.98387,0.05426
4573.05512,0.05421
4571.12638,0.05450
4569.19763,0.05500
4567.26889,0.05528
4565.34014,0.05501
4563.41140,0.05438
4561.48265,0.05384
4559.55391,0.05372
4557.62516,0.05397
4555.69642,0.05425
4553.76767,0.05433
4551.83893,0.05411
4549.91018,0.05396
4547.98143,0.05434
4546.05269,0.05465
4544.12394,0.05424
4542.19520,0.05356
4540.26645,0.05333
4538.33771,0.05376
4536.40896,0.05452
4534.48022,0.05506
4532.55147,0.05514
4530.62273,0.05469
4528.69398,0.05394
4526.76524,0.05344
4524.83649,0.05329
4522.90775,0.05332
4520.97900,0.05352
4519.05025,0.05374
4517.12151,0.05388
4515.19276,0.05416
4513.26402,0.05445
4511.33527,0.05414
4509.40653,0.05324
4507.47778,0.05249
4505.54904,0.05221
4503.62029,0.05222
4501.69155,0.05253
4499.76280,0.05289
4497.83406,0.05284
4495.90531,0.05260
4493.97657,0.05257
4492.04782,0.05256
4490.11908,0.05237
4488.19033,0.05206
4486.26158,0.05186
4484.33284,0.05199
4482.40409,0.05213
4480.47535,0.05181
4478.54660,0.05135
4476.61786,0.05120
4474.68911,0.05122
4472.76037,0.05148
4470.83162,0.05198
4468.90288,0.05226
4466.97413,0.05228
4465.04539,0.05210
4463.11664,0.05156
4461.18790,0.05101
4459.25915,0.05083
4457.33041,0.05078
4455.40166,0.05074
4453.47291,0.05077
4451.54417,0.05082
4449.61542,0.05084
4447.68668,0.05079
4445.75793,0.05100
4443.82919,0.05155
4441.90044,0.05189
4439.97170,0.05181
4438.04295,0.05161
4436.11421,0.05156
4434.18546,0.05170
4432.25672,0.05167
4430.32797,0.05131
4428.39923,0.05120
4426.47048,0.05165
4424.54173,0.05203
4422.61299,0.05195
4420.68424,0.05182
4418.75550,0.05187
4416.82675,0.05195
4414.89801,0.05195
4412.96926,0.05164
4411.04052,0.05102
4409.11177,0.05078
4407.18303,0.05113
4405.25428,0.05156
4403.32554,0.05185
4401.39679,0.05201
4399.46805,0.05204
4397.53930,0.05205
4395.61056,0.05209
4393.68181,0.05198
4391.75306,0.05171
4389.82432,0.05150
4387.89557,0.05145
4385.96683,0.05138
4384.03808,0.05134
4382.10934,0.05150
4380.18059,0.05169
4378.25185,0.05179
4376.32310,0.05180
4374.39436,0.05171
4372.46561,0.05174
4370.53687,0.05199
4368.60812,0.05230
4366.67938,0.05231
4364.75063,0.05193
4362.82189,0.05153
4360.89314,0.05144
4358.96439,0.05195
4357.03565,0.05287
4355.10690,0.05328
4353.17816,0.05285
4351.24941,0.05233
4349.32067,0.05210
4347.39192,0.05205
4345.46318,0.05221
4343.53443,0.05238
4341.60569,0.05232
4339.67694,0.05225
4337.74820,0.05241
4335.81945,0.05268
4333.89071,0.05274
4331.96196,0.05249
4330.03321,0.05217
4328.10447,0.05206
4326.17572,0.05225
4324.24698,0.05254
4322.31823,0.05257
4320.38949,0.05248
4318.46074,0.05268
4316.53200,0.05297
4314.60325,0.05293
4312.67451,0.05286
4310.74576,0.05307
4308.81702,0.05316
4306.88827,0.05297
4304.95953,0.05284
4303.03078,0.05304
4301.10204,0.05355
4299.17329,0.05388
4297.24454,0.05377
4295.31580,0.05352
4293.38705,0.05333
4291.45831,0.05326
4289.52956,0.05315
4287.60082,0.05290
4285.67207,0.05273
4283.74333,0.05275
4281.81458,0.05282
4279.88584,0.05275
4277.95709,0.05251
4276.02835,0.05234
4274.09960,0.05232
4272.17086,0.05240
4270.24211,0.05266
4268.31336,0.05315
4266.38462,0.05344
4264.45587,0.05306
4262.52713,0.05243
4260.59838,0.05224
4258.66964,0.05246
4256.74089,0.05275
4254.81215,0.05290
4252.88340,0.05284
4250.95466,0.05283
4249.02591,0.05289
4247.09717,0.05286
4245.16842,0.05303
4243.23968,0.05340
4241.31093,0.05367
4239.38219,0.05383
4237.45344,0.05367
4235.52469,0.05309
4233.59595,0.05241
4231.66720,0.05184
4229.73846,0.05163
4227.80971,0.05184
4225.88097,0.05219
4223.95222,0.05240
4222.02348,0.05235
4220.09473,0.05222
4218.16599,0.05225
4216.23724,0.05230
4214.30850,0.05233
4212.37975,0.05262
4210.45101,0.05301
4208.52226,0.05304
4206.59352,0.05281
4204.66477,0.05261
4202.73602,0.05256
4200.80728,0.05272
4198.87853,0.05297
4196.94979,0.05315
4195.02104,0.05323
4193.09230,0.05308
4191.16355,0.05266
4189.23481,0.05235
4187.30606,0.05235
4185.37732,0.05245
4183.44857,0.05268
4181.51983,0.05328
4179.59108,0.05391
4177.66234,0.05382
4175.73359,0.05310
4173.80484,0.05258
4171.87610,0.05238
4169.94735,0.05220
4168.01861,0.05211
4166.08986,0.05218
4164.16112,0.05244
4162.23237,0.05279
4160.30363,0.05288
4158.37488,0.05268
4156.44614,0.05241
4154.51739,0.05225
4152.58865,0.05223
4150.65990,0.05233
4148.73116,0.05245
4146.80241,0.05245
4144.87367,0.05241
4142.94492,0.05253
4141.01617,0.05284
4139.08743,0.05303
4137.15868,0.05298
4135.22994,0.05285
4133.30119,0.05267
4131.37245,0.05254
4129.44370,0.05256
4127.51496,0.05276
4125.58621,0.05308
4123.65747,0.05324
4121.72872,0.05316
4119.79998,0.05309
4117.87123,0.05303
4115.94249,0.05276
4114.01374,0.05254
4112.08500,0.05269
4110.15625,0.05300
4108.22750,0.05323
4106.29876,0.05344
4104.37001,0.05359
4102.44127,0.05340
4100.51252,0.05297
4098.58378,0.05266
4096.65503,0.05263
4094.72629,0.05291
4092.79754,0.05331
4090.86880,0.05337
4088.94005,0.05317
4087.01131,0.05327
4085.08256,0.05360
4083.15382,0.05355
4081.22507,0.05299
4079.29632,0.05245
4077.36758,0.05242
4075.43883,0.05272
4073.51009,0.05275
4071.58134,0.05237
4069.65260,0.05226
4067.72385,0.05260
4065.79511,0.05281
4063.86636,0.05290
4061.93762,0.05313
4060.00887,0.05329
4058.08013,0.05341
4056.15138,0.05363
4054.22264,0.05365
4052.29389,0.05338
4050.36515,0.05318
4048.43640,0.05323
4046.50765,0.05336
4044.57891,0.05353
4042.65016,0.05376
4040.72142,0.05390
4038.79267,0.05390
4036.86393,0.05386
4034.93518,0.05373
4033.00644,0.05353
4031.07769,0.05339
4029.14895,0.05329
4027.22020,0.05331
4025.29146,0.05347
4023.36271,0.05370
4021.43397,0.05386
4019.50522,0.05374
4017.57648,0.05335
4015.64773,0.05297
4013.71898,0.05285
4011.79024,0.05307
4009.86149,0.05350
4007.93275,0.05382
4006.00400,0.05379
4004.07526,0.05350
4002.14651,0.05327
4000.21777,0.05323
3998.28902,0.05337
3996.36028,0.05358
3994.43153,0.05369
3992.50279,0.05359
3990.57404,0.05323
3988.64530,0.05288
3986.71655,0.05288
3984.78780,0.05327
3982.85906,0.05382
3980.93031,0.05418
3979.00157,0.05415
3977.07282,0.05376
3975.14408,0.05319
3973.21533,0.05289
3971.28659,0.05308
3969.35784,0.05350
3967.42910,0.05383
3965.50035,0.05389
3963.57161,0.05383
3961.64286,0.05387
3959.71412,0.05394
3957.78537,0.05393
3955.85663,0.05399
3953.92788,0.05400
3951.99913,0.05379
3950.07039,0.05368
3948.14164,0.05379
3946.21290,0.05382
3944.28415,0.05360
3942.35541,0.05316
3940.42666,0.05303
3938.49792,0.05353
3936.56917,0.05408
3934.64043,0.05411
3932.71168,0.05384
3930.78294,0.05385
3928.85419,0.05400
3926.92545,0.05382
3924.99670,0.05359
3923.06795,0.05369
3921.13921,0.05402
3919.21046,0.05435
3917.28172,0.05433
3915.35297,0.05397
3913.42423,0.05377
3911.49548,0.05385
3909.56674,0.05403
3907.63799,0.05427
3905.70925,0.05447
3903.78050,0.05434
3901.85176,0.05412
3899.92301,0.05431
3897.99427,0.05463
3896.06552,0.05465
3894.13678,0.05446
3892.20803,0.05423
3890.27928,0.05399
3888.35054,0.05388
3886.42179,0.05401
3884.49305,0.05409
3882.56430,0.05410
3880.63556,0.05421
3878.70681,0.05438
3876.77807,0.05442
3874.84932,0.05420
3872.92058,0.05391
3870.99183,0.05390
3869.06309,0.05414
3867.13434,0.05442
3865.20560,0.05456
3863.27685,0.05462
3861.34811,0.05464
3859.41936,0.05465
3857.49061,0.05462
3855.56187,0.05441
3853.63312,0.05415
3851.70438,0.05409
3849.77563,0.05412
3847.84689,0.05428
3845.91814,0.05459
3843.98940,0.05478
3842.06065,0.05454
3840.13191,0.05423
3838.20316,0.05447
3836.27442,0.05502
3834.34567,0.05508
3832.41693,0.05459
3830.48818,0.05433
3828.55943,0.05460
3826.63069,0.05474
3824.70194,0.05442
3822.77320,0.05404
3820.84445,0.05404
3818.91571,0.05442
3816.98696,0.05453
3815.05822,0.05425
3813.12947,0.05418
3811.20073,0.05431
3809.27198,0.05433
3807.34324,0.05433
3805.41449,0.05453
3803.48575,0.05481
3801.55700,0.05475
3799.62826,0.05431
3797.69951,0.05413
3795.77076,0.05448
3793.84202,0.05489
3791.91327,0.05488
3789.98453,0.05463
3788.05578,0.05454
3786.12704,0.05477
3784.19829,0.05501
3782.26955,0.05504
3780.34080,0.05492
3778.41206,0.05463
3776.48331,0.05433
3774.55457,0.05425
3772.62582,0.05438
3770.69708,0.05467
3768.76833,0.05476
3766.83959,0.05443
3764.91084,0.05418
3762.98209,0.05428
3761.05335,0.05442
3759.12460,0.05439
3757.19586,0.05436
3755.26711,0.05457
3753.33837,0.05488
3751.40962,0.05494
3749.48088,0.05495
3747.55213,0.05518
3745.62339,0.05523
3743.69464,0.05487
3741.76590,0.05461
3739.83715,0.05475
3737.90841,0.05500
3735.97966,0.05492
3734.05091,0.05467
3732.12217,0.05458
3730.19342,0.05444
3728.26468,0.05430
3726.33593,0.05453
3724.40719,0.05498
3722.47844,0.05509
3720.54970,0.05478
3718.62095,0.05437
3716.69221,0.05405
3714.76346,0.05385
3712.83472,0.05368
3710.90597,0.05356
3708.97723,0.05373
3707.04848,0.05399
3705.11974,0.05394
3703.19099,0.05376
3701.26224,0.05370
3699.33350,0.05357
3697.40475,0.05335
3695.47601,0.05315
3693.54726,0.05295
3691.61852,0.05278
3689.68977,0.05261
3687.76103,0.05250
3685.83228,0.05258
3683.90354,0.05264
3681.97479,0.05254
3680.04605,0.05234
3678.11730,0.05220
3676.18856,0.05221
3674.25981,0.05237
3672.33107,0.05265
3670.40232,0.05264
3668.47357,0.05232
3666.54483,0.05212
3664.61608,0.05201
3662.68734,0.05199
3660.75859,0.05208
3658.82985,0.05213
3656.90110,0.05210
3654.97236,0.05215
3653.04361,0.05223
3651.11487,0.05209
3649.18612,0.05174
3647.25738,0.05163
3645.32863,0.05180
3643.39989,0.05197
3641.47114,0.05218
3639.54239,0.05225
3637.61365,0.05181
3635.68490,0.05131
3633.75616,0.05138
3631.82741,0.05170
3629.89867,0.05155
3627.96992,0.05109
3626.04118,0.05099
3624.11243,0.05110
3622.18369,0.05115
3620.25494,0.05112
3618.32620,0.05112
3616.39745,0.05137
3614.46871,0.05160
3612.53996,0.05140
3610.61122,0.05101
3608.68247,0.05106
3606.75372,0.05161
3604.82498,0.05202
3602.89623,0.05184
3600.96749,0.05126
3599.03874,0.05090
3597.11000,0.05103
3595.18125,0.05139
3593.25251,0.05172
3591.32376,0.05183
3589.39502,0.05184
3587.46627,0.05204
3585.53753,0.05213
3583.60878,0.05175
3581.68004,0.05143
3579.75129,0.05162
3577.82254,0.05194
3575.89380,0.05194
3573.96505,0.05175
3572.03631,0.05169
3570.10756,0.05181
3568.17882,0.05185
3566.25007,0.05161
3564.32133,0.05139
3562.39258,0.05133
3560.46384,0.05140
3558.53509,0.05154
3556.60635,0.05152
3554.67760,0.05144
3552.74886,0.05154
3550.82011,0.05163
3548.89137,0.05146
3546.96262,0.05114
3545.03387,0.05098
3543.10513,0.05110
3541.17638,0.05122
3539.24764,0.05126
3537.31889,0.05135
3535.39015,0.05155
3533.46140,0.05187
3531.53266,0.05228
3529.60391,0.05257
3527.67517,0.05218
3525.74642,0.05123
3523.81768,0.05074
3521.88893,0.05085
3519.96019,0.05090
3518.03144,0.05083
3516.10270,0.05100
3514.17395,0.05132
3512.24520,0.05147
3510.31646,0.05147
3508.38771,0.05149
3506.45897,0.05154
3504.53022,0.05158
3502.60148,0.05142
3500.67273,0.05122
3498.74399,0.05142
3496.81524,0.05187
3494.88650,0.05199
3492.95775,0.05151
3491.02901,0.05103
3489.10026,0.05104
3487.17152,0.05118
3485.24277,0.05117
3483.31402,0.05119
3481.38528,0.05137
3479.45653,0.05148
3477.52779,0.05144
3475.59904,0.05147
3473.67030,0.05157
3471.74155,0.05149
3469.81281,0.05128
3467.88406,0.05118
3465.95532,0.05130
3464.02657,0.05132
3462.09783,0.05104
3460.16908,0.05085
3458.24034,0.05095
3456.31159,0.05096
3454.38285,0.05074
3452.45410,0.05047
3450.52535,0.05025
3448.59661,0.05010
3446.66786,0.05011
3444.73912,0.05021
3442.81037,0.05036
3440.88163,0.05038
3438.95288,0.05017
3437.02414,0.05013
3435.09539,0.05038
3433.16665,0.05051
3431.23790,0.05046
3429.30916,0.05057
3427.38041,0.05090
3425.45167,0.05113
3423.52292,0.05110
3421.59418,0.05102
3419.66543,0.05121
3417.73668,0.05139
3415.80794,0.05113
3413.87919,0.05089
3411.95045,0.05117
3410.02170,0.05165
3408.09296,0.05194
3406.16421,0.05202
3404.23547,0.05197
3402.30672,0.05178
3400.37798,0.05160
3398.44923,0.05177
3396.52049,0.05203
3394.59174,0.05177
3392.66300,0.05140
3390.73425,0.05171
3388.80550,0.05218
3386.87676,0.05206
3384.94801,0.05184
3383.01927,0.05195
3381.09052,0.05193
3379.16178,0.05154
3377.23303,0.05118
3375.30429,0.05129
3373.37554,0.05180
3371.44680,0.05211
3369.51805,0.05201
3367.58931,0.05187
3365.66056,0.05191
3363.73182,0.05208
3361.80307,0.05234
3359.87433,0.05235
3357.94558,0.05206
3356.01683,0.05174
3354.08809,0.05148
3352.15934,0.05136
3350.23060,0.05133
3348.30185,0.05123
3346.37311,0.05114
3344.44436,0.05130
3342.51562,0.05158
3340.58687,0.05170
3338.65813,0.05164
3336.72938,0.05157
3334.80064,0.05164
3332.87189,0.05179
3330.94315,0.05179
3329.01440,0.05171
3327.08566,0.05188
3325.15691,0.05223
3323.22816,0.05234
3321.29942,0.05212
3319.37067,0.05195
3317.44193,0.05197
3315.51318,0.05186
3313.58444,0.05162
3311.65569,0.05151
3309.72695,0.05170
3307.79820,0.05201
3305.86946,0.05202
3303.94071,0.05158
3302.01197,0.05102
3300.08322,0.05082
3298.15448,0.05094
3296.22573,0.05101
3294.29698,0.05099
3292.36824,0.05102
3290.43949,0.05127
3288.51075,0.05175
3286.58200,0.05193
3284.65326,0.05163
3282.72451,0.05137
3280.79577,0.05135
3278.86702,0.05129
3276.93828,0.05112
3275.00953,0.05137
3273.08079,0.05224
3271.15204,0.05276
3269.22330,0.05237
3267.29455,0.05175
3265.36581,0.05155
3263.43706,0.05171
3261.50831,0.05197
3259.57957,0.05208
3257.65082,0.05177
3255.72208,0.05128
3253.79333,0.05125
3251.86459,0.05159
3249.93584,0.05174
3248.00710,0.05175
3246.07835,0.05178
3244.14961,0.05182
3242.22086,0.05198
3240.29212,0.05208
3238.36337,0.05184
3236.43463,0.05145
3234.50588,0.05139
3232.57713,0.05160
3230.64839,0.05158
3228.71964,0.05131
3226.79090,0.05113
3224.86215,0.05119
3222.93341,0.05127
3221.00466,0.05105
3219.07592,0.05070
3217.14717,0.05055
3215.21843,0.05069
3213.28968,0.05095
3211.36094,0.05101
3209.43219,0.05090
3207.50345,0.05097
3205.57470,0.05117
3203.64596,0.05121
3201.71721,0.05118
3199.78846,0.05124
3197.85972,0.05136
3195.93097,0.05145
3194.00223,0.05137
3192.07348,0.05111
3190.14474,0.05086
3188.21599,0.05087
3186.28725,0.05108
3184.35850,0.05136
3182.42976,0.05155
3180.50101,0.05153
3178.57227,0.05135
3176.64352,0.05113
3174.71478,0.05088
3172.78603,0.05081
3170.85729,0.05099
3168.92854,0.05105
3166.99979,0.05089
3165.07105,0.05081
3163.14230,0.05093
3161.21356,0.05115
3159.28481,0.05122
3157.35607,0.05101
3155.42732,0.05077
3153.49858,0.05070
3151.56983,0.05077
3149.64109,0.05075
3147.71234,0.05059
3145.78360,0.05047
3143.85485,0.05052
3141.92611,0.05072
3139.99736,0.05082
3138.06861,0.05085
3136.13987,0.05107
3134.21112,0.05126
3132.28238,0.05115
3130.35363,0.05095
3128.42489,0.05082
3126.49614,0.05067
3124.56740,0.05050
3122.63865,0.05047
3120.70991,0.05048
3118.78116,0.05034
3116.85242,0.05034
3114.92367,0.05053
3112.99493,0.05057
3111.06618,0.05032
3109.13744,0.05004
3107.20869,0.05009
3105.27994,0.05030
3103.35120,0.05027
3101.42245,0.05010
3099.49371,0.05008
3097.56496,0.05018
3095.63622,0.05020
3093.70747,0.05007
3091.77873,0.04985
3089.84998,0.04977
3087.92124,0.04990
3085.99249,0.04997
3084.06375,0.04980
3082.13500,0.04960
3080.20626,0.04961
3078.27751,0.04967
3076.34877,0.04946
3074.42002,0.04924
3072.49127,0.04929
3070.56253,0.04950
3068.63378,0.04972
3066.70504,0.04977
3064.77629,0.04952
3062.84755,0.04925
3060.91880,0.04916
3058.99006,0.04911
3057.06131,0.04904
3055.13257,0.04892
3053.20382,0.04869
3051.27508,0.04848
3049.34633,0.04838
3047.41759,0.04832
3045.48884,0.04829
3043.56009,0.04819
3041.63135,0.04805
3039.70260,0.04800
3037.77386,0.04793
3035.84511,0.04772
3033.91637,0.04743
3031.98762,0.04721
3030.05888,0.04724
3028.13013,0.04756
3026.20139,0.04781
3024.27264,0.04776
3022.34390,0.04767
3020.41515,0.04769
3018.48641,0.04761
3016.55766,0.04741
3014.62892,0.04729
3012.70017,0.04722
3010.77142,0.04715
3008.84268,0.04716
3006.91393,0.04724
3004.98519,0.04737
3003.05644,0.04761
3001.12770,0.04791
2999.19895,0.04814
2997.27021,0.04829
2995.34146,0.04841
2993.41272,0.04857
2991.48397,0.04874
2989.55523,0.04888
2987.62648,0.04903
2985.69774,0.04928
2983.76899,0.04960
2981.84025,0.04981
2979.91150,0.04980
2977.98275,0.04972
2976.05401,0.04964
2974.12526,0.04953
2972.19652,0.04940
2970.26777,0.04916
2968.33903,0.04886
2966.41028,0.04864
2964.48154,0.04858
2962.55279,0.04862
2960.62405,0.04876
2958.69530,0.04894
2956.76656,0.04894
2954.83781,0.04903
2952.90907,0.04965
2950.98032,0.05055
2949.05157,0.05133
2947.12283,0.05203
2945.19408,0.05267
2943.26534,0.05314
2941.33659,0.05345
2939.40785,0.05389
2937.47910,0.05445
2935.55036,0.05473
2933.62161,0.05476
2931.69287,0.05507
2929.76412,0.05562
2927.83538,0.05589
2925.90663,0.05584
2923.97789,0.05590
2922.04914,0.05608
2920.12040,0.05617
2918.19165,0.05632
2916.26290,0.05645
2914.33416,0.05613
2912.40541,0.05548
2910.47667,0.05492
2908.54792,0.05452
2906.61918,0.05420
2904.69043,0.05409
2902.76169,0.05426
2900.83294,0.05441
2898.90420,0.05427
2896.97545,0.05396
2895.04671,0.05370
2893.11796,0.05360
2891.18922,0.05362
2889.26047,0.05363
2887.33172,0.05354
2885.40298,0.05335
2883.47423,0.05318
2881.54549,0.05315
2879.61674,0.05320
2877.68800,0.05332
2875.75925,0.05346
2873.83051,0.05351
2871.90176,0.05350
2869.97302,0.05362
2868.04427,0.05370
2866.11553,0.05360
2864.18678,0.05361
2862.25804,0.05376
2860.32929,0.05377
2858.40055,0.05386
2856.47180,0.05426
2854.54305,0.05463
2852.61431,0.05470
2850.68556,0.05451
2848.75682,0.05417
2846.82807,0.05396
2844.89933,0.05394
2842.97058,0.05382
2841.04184,0.05357
2839.11309,0.05330
2837.18435,0.05314
2835.25560,0.05325
2833.32686,0.05339
2831.39811,0.05334
2829.46937,0.05325
2827.54062,0.05323
2825.61188,0.05313
2823.68313,0.05285
2821.75438,0.05260
2819.82564,0.05262
2817.89689,0.05284
2815.96815,0.05297
2814.03940,0.05290
2812.11066,0.05275
2810.18191,0.05272
2808.25317,0.05277
2806.32442,0.05272
2804.39568,0.05268
2802.46693,0.05280
2800.53819,0.05287
2798.60944,0.05281
2796.68070,0.05270
2794.75195,0.05264
2792.82320,0.05283
2790.89446,0.05305
2788.96571,0.05300
2787.03697,0.05296
2785.10822,0.05310
2783.17948,0.05312
2781.25073,0.05290
2779.32199,0.05267
2777.39324,0.05265
2775.46450,0.05282
2773.53575,0.05294
2771.60701,0.05294
2769.67826,0.05281
2767.74952,0.05266
2765.82077,0.05257
2763.89203,0.05249
2761.96328,0.05244
2760.03453,0.05245
2758.10579,0.05253
2756.17704,0.05261
2754.24830,0.05260
2752.31955,0.05263
2750.39081,0.05271
2748.46206,0.05274
2746.53332,0.05277
2744.60457,0.05271
2742.67583,0.05262
2740.74708,0.05274
2738.81834,0.05296
2736.88959,0.05312
2734.96085,0.05315
2733.03210,0.05306
2731.10336,0.05294
2729.17461,0.05288
2727.24586,0.05288
2725.31712,0.05291
2723.38837,0.05283
2721.45963,0.05264
2719.53088,0.05250
2717.60214,0.05255
2715.67339,0.05273
2713.74465,0.05280
2711.81590,0.05267
2709.88716,0.05262
2707.95841,0.05282
2706.02967,0.05290
2704.10092,0.05263
2702.17218,0.05235
2700.24343,0.05230
2698.31468,0.05237
2696.38594,0.05258
2694.45719,0.05290
2692.52845,0.05296
2690.59970,0.05265
2688.67096,0.05228
2686.74221,0.05211
2684.81347,0.05209
2682.88472,0.05225
2680.95598,0.05256
2679.02723,0.05267
2677.09849,0.05253
2675.16974,0.05252
2673.24100,0.05267
2671.31225,0.05272
2669.38351,0.05274
2667.45476,0.05277
2665.52601,0.05264
2663.59727,0.05246
2661.66852,0.05237
2659.73978,0.05237
2657.81103,0.05244
2655.88229,0.05246
2653.95354,0.05233
2652.02480,0.05214
2650.09605,0.05212
2648.16731,0.05229
2646.23856,0.05252
2644.30982,0.05264
2642.38107,0.05249
2640.45233,0.05219
2638.52358,0.05204
2636.59484,0.05208
2634.66609,0.05223
2632.73734,0.05246
2630.80860,0.05267
2628.87985,0.05269
2626.95111,0.05257
2625.02236,0.05246
2623.09362,0.05237
2621.16487,0.05233
2619.23613,0.05236
2617.30738,0.05225
2615.37864,0.05199
2613.44989,0.05185
2611.52115,0.05198
2609.59240,0.05223
2607.66366,0.05236
2605.73491,0.05231
2603.80616,0.05216
2601.87742,0.05198
2599.94867,0.05185
2598.01993,0.05187
2596.09118,0.05193
2594.16244,0.05180
2592.23369,0.05152
2590.30495,0.05142
2588.37620,0.05163
2586.44746,0.05200
2584.51871,0.05232
2582.58997,0.05228
2580.66122,0.05188
2578.73248,0.05166
2576.80373,0.05188
2574.87499,0.05214
2572.94624,0.05217
2571.01749,0.05214
2569.08875,0.05208
2567.16000,0.05182
2565.23126,0.05154
2563.30251,0.05152
2561.37377,0.05170
2559.44502,0.05180
2557.51628,0.05186
2555.58753,0.05199
2553.65879,0.05202
2551.73004,0.05201
2549.80130,0.05207
2547.87255,0.05212
2545.94381,0.05208
2544.01506,0.05200
2542.08631,0.05207
2540.15757,0.05223
2538.22882,0.05224
2536.30008,0.05214
2534.37133,0.05208
2532.44259,0.05211
2530.51384,0.05224
2528.58510,0.05231
2526.65635,0.05206
2524.72761,0.05173
2522.79886,0.05170
2520.87012,0.05178
2518.94137,0.05168
2517.01263,0.05169
2515.08388,0.05204
2513.15514,0.05244
2511.22639,0.05261
2509.29764,0.05256
2507.36890,0.05235
2505.44015,0.05210
2503.51141,0.05190
2501.58266,0.05166
2499.65392,0.05152
2497.72517,0.05170
2495.79643,0.05196
2493.86768,0.05199
2491.93894,0.05193
2490.01019,0.05198
2488.08145,0.05206
2486.15270,0.05200
2484.22396,0.05187
2482.29521,0.05194
2480.36647,0.05226
2478.43772,0.05253
2476.50897,0.05254
2474.58023,0.05234
2472.65148,0.05203
2470.72274,0.05185
2468.79399,0.05196
2466.86525,0.05207
2464.93650,0.05191
2463.00776,0.05161
2461.07901,0.05154
2459.15027,0.05178
2457.22152,0.05202
2455.29278,0.05203
2453.36403,0.05192
2451.43529,0.05176
2449.50654,0.05167
2447.57779,0.05177
2445.64905,0.05185
2443.72030,0.05171
2441.79156,0.05152
2439.86281,0.05145
2437.93407,0.05159
2436.00532,0.05182
2434.07658,0.05187
2432.14783,0.05181
2430.21909,0.05186
2428.29034,0.05186
2426.36160,0.05164
2424.43285,0.05148
2422.50411,0.05153
2420.57536,0.05167
2418.64662,0.05171
2416.71787,0.05164
2414.78912,0.05156
2412.86038,0.05155
2410.93163,0.05159
2409.00289,0.05167
2407.07414,0.05173
2405.14540,0.05162
2403.21665,0.05139
2401.28791,0.05136
2399.35916,0.05159
2397.43042,0.05177
2395.50167,0.05171
2393.57293,0.05158
2391.64418,0.05149
2389.71544,0.05143
2387.78669,0.05142
2385.85795,0.05146
2383.92920,0.05137
2382.00045,0.05128
2380.07171,0.05135
2378.14296,0.05148
2376.21422,0.05152
2374.28547,0.05151
2372.35673,0.05158
2370.42798,0.05173
2368.49924,0.05183
2366.57049,0.05184
2364.64175,0.05190
2362.71300,0.05198
2360.78426,0.05188
2358.85551,0.05166
2356.92677,0.05160
2354.99802,0.05169
2353.06927,0.05168
2351.14053,0.05148
2349.21178,0.05129
2347.28304,0.05129
2345.35429,0.05139
2343.42555,0.05144
2341.49680,0.05157
2339.56806,0.05185
2337.63931,0.05209
2335.71057,0.05206
2333.78182,0.05182
2331.85308,0.05163
2329.92433,0.05162
2327.99559,0.05168
2326.06684,0.05168
2324.13810,0.05154
2322.20935,0.05134
2320.28060,0.05127
2318.35186,0.05129
2316.42311,0.05127
2314.49437,0.05121
2312.56562,0.05114
2310.63688,0.05108
2308.70813,0.05104
2306.77939,0.05103
2304.85064,0.05112
2302.92190,0.05123
2300.99315,0.05120
2299.06441,0.05121
2297.13566,0.05139
2295.20692,0.05153
2293.27817,0.05157
2291.34943,0.05171
2289.42068,0.05182
2287.49193,0.05181
2285.56319,0.05180
2283.63444,0.05189
2281.70570,0.05191
2279.77695,0.05174
2277.84821,0.05151
2275.91946,0.05142
2273.99072,0.05140
2272.06197,0.05137
2270.13323,0.05140
2268.20448,0.05151
2266.27574,0.05165
2264.34699,0.05179
2262.41825,0.05184
2260.48950,0.05176
2258.56075,0.05161
2256.63201,0.05145
2254.70326,0.05134
2252.77452,0.05137
2250.84577,0.05155
2248.91703,0.05169
2246.98828,0.05169
2245.05954,0.05152
2243.13079,0.05131
2241.20205,0.05125
2239.27330,0.05135
2237.34456,0.05139
2235.41581,0.05135
2233.48707,0.05132
2231.55832,0.05124
2229.62958,0.05101
2227.70083,0.05080
2225.77208,0.05082
2223.84334,0.05104
2221.91459,0.05124
2219.98585,0.05120
2218.05710,0.05094
2216.12836,0.05076
2214.19961,0.05085
2212.27087,0.05101
2210.34212,0.05107
2208.41338,0.05116
2206.48463,0.05119
2204.55589,0.05101
2202.62714,0.05093
2200.69840,0.05111
2198.76965,0.05119
2196.84090,0.05101
2194.91216,0.05074
2192.98341,0.05067
2191.05467,0.05087
2189.12592,0.05103
2187.19718,0.05106
2185.26843,0.05121
2183.33969,0.05142
2181.41094,0.05141
2179.48220,0.05125
2177.55345,0.05112
2175.62471,0.05098
2173.69596,0.05083
2171.76722,0.05076
2169.83847,0.05083
2167.90973,0.05091
2165.98098,0.05096
2164.05223,0.05099
2162.12349,0.05098
2160.19474,0.05095
2158.26600,0.05080
2156.33725,0.05051
2154.40851,0.05041
2152.47976,0.05057
2150.55102,0.05066
2148.62227,0.05058
2146.69353,0.05047
2144.76478,0.05039
2142.83604,0.05039
2140.90729,0.05057
2138.97855,0.05083
2137.04980,0.05097
2135.12106,0.05090
2133.19231,0.05071
2131.26356,0.05058
2129.33482,0.05071
2127.40607,0.05085
2125.47733,0.05068
2123.54858,0.05041
2121.61984,0.05031
2119.69109,0.05030
2117.76235,0.05027
2115.83360,0.05028
2113.90486,0.05031
2111.97611,0.05033
2110.04737,0.05031
2108.11862,0.05027
2106.18988,0.05019
2104.26113,0.05014
2102.33238,0.05006
2100.40364,0.04989
2098.47489,0.04979
2096.54615,0.04987
2094.61740,0.04999
2092.68866,0.05002
2090.75991,0.05001
2088.83117,0.05000
2086.90242,0.04998
2084.97368,0.04984
2083.04493,0.04972
2081.11619,0.04984
2079.18744,0.05000
2077.25870,0.04999
2075.32995,0.05002
2073.40121,0.05006
2071.47246,0.05001
2069.54371,0.04998
2067.61497,0.04992
2065.68622,0.04978
2063.75748,0.04973
2061.82873,0.04979
2059.89999,0.04982
2057.97124,0.04980
2056.04250,0.04979
2054.11375,0.04978
2052.18501,0.04987
2050.25626,0.05010
2048.32752,0.05017
2046.39877,0.05002
2044.47003,0.04984
2042.54128,0.04972
2040.61254,0.04968
2038.68379,0.04971
2036.75504,0.04988
2034.82630,0.05006
2032.89755,0.05004
2030.96881,0.04994
2029.04006,0.04986
2027.11132,0.04981
2025.18257,0.04985
2023.25383,0.04994
2021.32508,0.04999
2019.39634,0.05001
2017.46759,0.04988
2015.53885,0.04965
2013.61010,0.04953
2011.68136,0.04952
2009.75261,0.04958
2007.82386,0.04962
2005.89512,0.04957
2003.96637,0.04952
2002.03763,0.04953
2000.10888,0.04958
1998.18014,0.04958
1996.25139,0.04953
1994.32265,0.04954
1992.39390,0.04952
1990.46516,0.04941
1988.53641,0.04933
1986.60767,0.04929
1984.67892,0.04927
1982.75018,0.04918
1980.82143,0.04903
1978.89269,0.04896
1976.96394,0.04906
1975.03519,0.04922
1973.10645,0.04933
1971.17770,0.04938
1969.24896,0.04939
1967.32021,0.04936
1965.39147,0.04932
1963.46272,0.04928
1961.53398,0.04920
1959.60523,0.04915
1957.67649,0.04919
1955.74774,0.04922
1953.81900,0.04924
1951.89025,0.04937
1949.96151,0.04949
1948.03276,0.04941
1946.10402,0.04917
1944.17527,0.04896
1942.24652,0.04882
1940.31778,0.04879
1938.38903,0.04892
1936.46029,0.04909
1934.53154,0.04907
1932.60280,0.04894
1930.67405,0.04894
1928.74531,0.04898
1926.81656,0.04885
1924.88782,0.04863
1922.95907,0.04857
1921.03033,0.04870
1919.10158,0.04885
1917.17284,0.04886
1915.24409,0.04870
1913.31534,0.04856
1911.38660,0.04852
1909.45785,0.04854
1907.52911,0.04864
1905.60036,0.04874
1903.67162,0.04874
1901.74287,0.04863
1899.81413,0.04851
1897.88538,0.04845
1895.95664,0.04839
1894.02789,0.04832
1892.09915,0.04834
1890.17040,0.04838
1888.24166,0.04832
1886.31291,0.04822
1884.38417,0.04816
1882.45542,0.04808
1880.52667,0.04786
1878.59793,0.04763
1876.66918,0.04755
1874.74044,0.04748
1872.81169,0.04740
1870.88295,0.04737
1868.95420,0.04721
1867.02546,0.04705
1865.09671,0.04713
1863.16797,0.04731
1861.23922,0.04738
1859.31048,0.04718
1857.38173,0.04683
1855.45299,0.04665
1853.52424,0.04670
1851.59549,0.04680
1849.66675,0.04674
1847.73800,0.04659
1845.80926,0.04651
1843.88051,0.04640
1841.95177,0.04615
1840.02302,0.04593
1838.09428,0.04583
1836.16553,0.04575
1834.23679,0.04573
1832.30804,0.04586
1830.37930,0.04594
1828.45055,0.04574
1826.52181,0.04544
1824.59306,0.04518
1822.66432,0.04503
1820.73557,0.04506
1818.80682,0.04514
1816.87808,0.04502
1814.94933,0.04474
1813.02059,0.04449
1811.09184,0.04424
1809.16310,0.04408
1807.23435,0.04402
1805.30561,0.04390
1803.37686,0.04366
1801.44812,0.04338
1799.51937,0.04308
1797.59063,0.04277
1795.66188,0.04250
1793.73314,0.04234
1791.80439,0.04217
1789.87565,0.04195
1787.94690,0.04178
1786.01815,0.04161
1784.08941,0.04125
1782.16066,0.04069
1780.23192,0.04019
1778.30317,0.03981
1776.37443,0.03940
1774.44568,0.03896
1772.51694,0.03843
1770.58819,0.03780
1768.65945,0.03722
1766.73070,0.03661
1764.80196,0.03592
1762.87321,0.03505
1760.94447,0.03394
1759.01572,0.03271
1757.08697,0.03120
1755.15823,0.02956
1753.22948,0.02807
1751.30074,0.02649
1749.37199,0.02498
1747.44325,0.02439
1745.51450,0.02521
1743.58576,0.02767
1741.65701,0.03204
1739.72827,0.03836
1737.79952,0.04514
1735.87078,0.05178
1733.94203,0.05987
1732.01329,0.06803
1730.08454,0.07450
1728.15580,0.08009
1726.22705,0.08458
1724.29830,0.08759
1722.36956,0.08900
1720.44081,0.08883
1718.51207,0.08684
1716.58332,0.08328
1714.65458,0.07968
1712.72583,0.07666
1710.79709,0.07402
1708.86834,0.07168
1706.93960,0.06951
1705.01085,0.06752
1703.08211,0.06601
1701.15336,0.06467
1699.22462,0.06319
1697.29587,0.06200
1695.36713,0.06102
1693.43838,0.06024
1691.50963,0.05964
1689.58089,0.05912
1687.65214,0.05869
1685.72340,0.05825
1683.79465,0.05775
1681.86591,0.05749
1679.93716,0.05734
1678.00842,0.05702
1676.07967,0.05658
1674.15093,0.05627
1672.22218,0.05608
1670.29344,0.05580
1668.36469,0.05552
1666.43595,0.05536
1664.50720,0.05507
1662.57845,0.05481
1660.64971,0.05488
1658.72096,0.05496
1656.79222,0.05472
1654.86347,0.05429
1652.93473,0.05391
1651.00598,0.05392
1649.07724,0.05407
1647.14849,0.05405
1645.21975,0.05374
1643.29100,0.05338
1641.36226,0.05321
1639.43351,0.05319
1637.50477,0.05300
1635.57602,0.05275
1633.64728,0.05280
1631.71853,0.05290
1629.78978,0.05280
1627.86104,0.05263
1625.93229,0.05253
1624.00355,0.05243
1622.07480,0.05240
1620.14606,0.05254
1618.21731,0.05262
1616.28857,0.05236
1614.35982,0.05207
1612.43108,0.05199
1610.50233,0.05182
1608.57359,0.05146
1606.64484,0.05123
1604.71610,0.05128
1602.78735,0.05136
1600.85861,0.05130
1598.92986,0.05116
1597.00111,0.05106
1595.07237,0.05103
1593.14362,0.05093
1591.21488,0.05073
1589.28613,0.05058
1587.35739,0.05052
1585.42864,0.05052
1583.49990,0.05051
1581.57115,0.05035
1579.64241,0.05009
1577.71366,0.04986
1575.78492,0.04964
1573.85617,0.04955
1571.92743,0.04965
1569.99868,0.04964
1568.06993,0.04928
1566.14119,0.04884
1564.21244,0.04879
1562.28370,0.04909
1560.35495,0.04908
1558.42621,0.04852
1556.49746,0.04853
1554.56872,0.04884
1552.63997,0.04880
1550.71123,0.04846
1548.78248,0.04816
1546.85374,0.04812
1544.92499,0.04818
1542.99625,0.04810
1541.06750,0.04787
1539.13876,0.04759
1537.21001,0.04749
1535.28126,0.04751
1533.35252,0.04751
1531.42377,0.04751
1529.49503,0.04750
1527.56628,0.04730
1525.63754,0.04692
1523.70879,0.04675
1521.78005,0.04674
1519.85130,0.04646
1517.92256,0.04605
1515.99381,0.04569
1514.06507,0.04546
1512.13632,0.04543
1510.20758,0.04548
1508.27883,0.04535
1506.35008,0.04464
1504.42134,0.04391
1502.49259,0.04365
1500.56385,0.04348
1498.63510,0.04306
1496.70636,0.04228
1494.77761,0.04157
1492.84887,0.04135
1490.92012,0.04160
1488.99138,0.04213
1487.06263,0.04286
1485.13389,0.04375
1483.20514,0.04469
1481.27640,0.04543
1479.34765,0.04576
1477.41891,0.04593
1475.49016,0.04625
1473.56141,0.04650
1471.63267,0.04653
1469.70392,0.04650
1467.77518,0.04639
1465.84643,0.04616
1463.91769,0.04601
1461.98894,0.04598
1460.06020,0.04602
1458.13145,0.04609
1456.20271,0.04609
1454.27396,0.04619
1452.34522,0.04665
1450.41647,0.04752
1448.48773,0.04859
1446.55898,0.04962
1444.63024,0.05049
1442.70149,0.05107
1440.77274,0.05133
1438.84400,0.05161
1436.91525,0.05258
1434.98651,0.05430
1433.05776,0.05592
1431.12902,0.05700
1429.20027,0.05737
1427.27153,0.05716
1425.34278,0.05663
1423.41404,0.05586
1421.48529,0.05501
1419.55655,0.05410
1417.62780,0.05325
1415.69906,0.05265
1413.77031,0.05219
1411.84156,0.05179
1409.91282,0.05132
1407.98407,0.05073
1406.05533,0.05022
1404.12658,0.04978
1402.19784,0.04937
1400.26909,0.04906
1398.34035,0.04879
1396.41160,0.04853
1394.48286,0.04833
1392.55411,0.04827
1390.62537,0.04846
1388.69662,0.04893
1386.76788,0.04956
1384.83913,0.05021
1382.91039,0.05079
1380.98164,0.05117
1379.05289,0.05121
1377.12415,0.05101
1375.19540,0.05058
1373.26666,0.04986
1371.33791,0.04930
1369.40917,0.04921
1367.48042,0.04938
1365.55168,0.04958
1363.62293,0.04963
1361.69419,0.04949
1359.76544,0.04932
1357.83670,0.04925
1355.90795,0.04916
1353.97921,0.04892
1352.05046,0.04850
1350.12172,0.04800
1348.19297,0.04773
1346.26422,0.04778
1344.33548,0.04777
1342.40673,0.04747
1340.47799,0.04710
1338.54924,0.04692
1336.62050,0.04693
1334.69175,0.04690
1332.76301,0.04670
1330.83426,0.04634
1328.90552,0.04597
1326.97677,0.04577
1325.04803,0.04571
1323.11928,0.04550
1321.19054,0.04502
1319.26179,0.04450
1317.33304,0.04420
1315.40430,0.04405
1313.47555,0.04388
1311.54681,0.04360
1309.61806,0.04322
1307.68932,0.04282
1305.76057,0.04236
1303.83183,0.04175
1301.90308,0.04119
1299.97434,0.04082
1298.04559,0.04051
1296.11685,0.04017
1294.18810,0.03984
1292.25936,0.03947
1290.33061,0.03899
1288.40187,0.03833
1286.47312,0.03769
1284.54437,0.03724
1282.61563,0.03689
1280.68688,0.03668
1278.75814,0.03684
1276.82939,0.03742
1274.90065,0.03843
1272.97190,0.03990
1271.04316,0.04162
1269.11441,0.04316
1267.18567,0.04414
1265.25692,0.04449
1263.32818,0.04452
1261.39943,0.04443
1259.47069,0.04410
1257.54194,0.04360
1255.61320,0.04322
1253.68445,0.04314
1251.75570,0.04327
1249.82696,0.04355
1247.89821,0.04413
1245.96947,0.04524
1244.04072,0.04690
1242.11198,0.04884
1240.18323,0.05066
1238.25449,0.05202
1236.32574,0.05290
1234.39700,0.05345
1232.46825,0.05366
1230.53951,0.05352
1228.61076,0.05303
1226.68202,0.05216
1224.75327,0.05095
1222.82452,0.04941
1220.89578,0.04777
1218.96703,0.04641
1217.03829,0.04530
1215.10954,0.04400
1213.18080,0.04234
1211.25205,0.04060
1209.32331,0.03903
1207.39456,0.03766
1205.46582,0.03676
1203.53707,0.03692
1201.60833,0.03828
1199.67958,0.04040
1197.75084,0.04304
1195.82209,0.04621
1193.89335,0.04966
1191.96460,0.05272
1190.03585,0.05471
1188.10711,0.05540
1186.17836,0.05518
1184.24962,0.05464
1182.32087,0.05410
1180.39213,0.05370
1178.46338,0.05362
1176.53464,0.05384
1174.60589,0.05398
1172.67715,0.05380
1170.74840,0.05359
1168.81966,0.05359
1166.89091,0.05368
1164.96217,0.05387
1163.03342,0.05420
1161.10467,0.05472
1159.17593,0.05588
1157.24718,0.05816
1155.31844,0.06175
1153.38969,0.06691
1151.46095,0.07358
1149.53220,0.08063
1147.60346,0.08662
1145.67471,0.09081
1143.74597,0.09303
1141.81722,0.09351
1139.88848,0.09293
1137.95973,0.09195
1136.03099,0.09070
1134.10224,0.08903
1132.17350,0.08703
1130.24475,0.08526
1128.31600,0.08411
1126.38726,0.08325
1124.45851,0.08232
1122.52977,0.08138
1120.60102,0.08054
1118.67228,0.07993
1116.74353,0.07935
1114.81479,0.07843
1112.88604,0.07724
1110.95730,0.07594
1109.02855,0.07467
1107.09981,0.07387
1105.17106,0.07354
1103.24232,0.07295
1101.31357,0.07189
1099.38483,0.07081
1097.45608,0.07016
1095.52733,0.06993
1093.59859,0.06955
1091.66984,0.06876
1089.74110,0.06809
1087.81235,0.06785
1085.88361,0.06764
1083.95486,0.06718
1082.02612,0.06668
1080.09737,0.06630
1078.16863,0.06582
1076.23988,0.06518
1074.31114,0.06491
1072.38239,0.06507
1070.45365,0.06517
1068.52490,0.06524
1066.59615,0.06547
1064.66741,0.06573
1062.73866,0.06599
1060.80992,0.06656
1058.88117,0.06743
1056.95243,0.06800
1055.02368,0.06783
1053.09494,0.06712
1051.16619,0.06637
1049.23745,0.06580
1047.30870,0.06529
1045.37996,0.06475
1043.45121,0.06417
1041.52247,0.06369
1039.59372,0.06327
1037.66498,0.06279
1035.73623,0.06225
1033.80748,0.06173
1031.87874,0.06146
1029.94999,0.06156
1028.02125,0.06165
1026.09250,0.06128
1024.16376,0.06055
1022.23501,0.05982
1020.30627,0.05931
1018.37752,0.05913
1016.44878,0.05915
1014.52003,0.05905
1012.59129,0.05855
1010.66254,0.05775
1008.73380,0.05693
1006.80505,0.05620
1004.87631,0.05547
1002.94756,0.05479
1001.01881,0.05439
999.09007,0.05447
997.16132,0.05514
995.23258,0.05608
993.30383,0.05684
991.37509,0.05757
989.44634,0.05830
987.51760,0.05895
985.58885,0.05975
983.66011,0.06062
981.73136,0.06121
979.80262,0.06140
977.87387,0.06119
975.94513,0.06081
974.01638,0.06063
972.08763,0.06056
970.15889,0.06047
968.23014,0.06073
966.30140,0.06157
964.37265,0.06261
962.44391,0.06351
960.51516,0.06405
958.58642,0.06402
956.65767,0.06357
954.72893,0.06316
952.80018,0.06310
950.87144,0.06324
948.94269,0.06331
947.01395,0.06342
945.08520,0.06359
943.15646,0.06344
941.22771,0.06290
939.29896,0.06239
937.37022,0.06214
935.44147,0.06196
933.51273,0.06174
931.58398,0.06154
929.65524,0.06125
927.72649,0.06092
925.79775,0.06084
923.86900,0.06100
921.94026,0.06100
920.01151,0.06069
918.08277,0.06047
916.15402,0.06070
914.22528,0.06091
912.29653,0.06070
910.36779,0.06055
908.43904,0.06087
906.51029,0.06133
904.58155,0.06157
902.65280,0.06144
900.72406,0.06105
898.79531,0.06074
896.86657,0.06064
894.93782,0.06071
893.00908,0.06067
891.08033,0.06032
889.15159,0.05989
887.22284,0.05972
885.29410,0.05967
883.36535,0.05945
881.43661,0.05910
879.50786,0.05892
877.57911,0.05887
875.65037,0.05886
873.72162,0.05892
871.79288,0.05887
869.86413,0.05857
867.93539,0.05831
866.00664,0.05825
864.07790,0.05811
862.14915,0.05785
860.22041,0.05762
858.29166,0.05751
856.36292,0.05758
854.43417,0.05783
852.50543,0.05810
850.57668,0.05808
848.64794,0.05774
846.71919,0.05754
844.79044,0.05784
842.86170,0.05854
840.93295,0.05963
839.00421,0.06087
837.07546,0.06135
835.14672,0.06098
833.21797,0.06072
831.28923,0.06078
829.36048,0.06072
827.43174,0.06059
825.50299,0.06059
823.57425,0.06058
821.64550,0.06054
819.71676,0.06048
817.78801,0.06030
815.85926,0.06011
813.93052,0.06000
812.00177,0.05990
810.07303,0.05995
808.14428,0.06028
806.21554,0.06060
804.28679,0.06051
802.35805,0.06014
800.42930,0.05987
798.50056,0.05979
796.57181,0.05959
794.64307,0.05915
792.71432,0.05894
790.78558,0.05914
788.85683,0.05920
786.92809,0.05895
784.99934,0.05880
783.07059,0.05872
781.14185,0.05850
779.21310,0.05826
777.28436,0.05809
775.35561,0.05791
773.42687,0.05768
771.49812,0.05739
769.56938,0.05700
767.64063,0.05653
765.71189,0.05617
763.78314,0.05594
761.85440,0.05570
759.92565,0.05571
757.99691,0.05619
756.06816,0.05677
754.13942,0.05742
752.21067,0.05845
750.28192,0.05992
748.35318,0.06181
746.42443,0.06362
744.49569,0.06432
742.56694,0.06372
740.63820,0.06270
738.70945,0.06177
736.78071,0.06100
734.85196,0.06079
732.92322,0.06105
730.99447,0.06103
729.06573,0.06047
727.13698,0.05999
725.20824,0.06023
723.27949,0.06052
721.35074,0.06014
719.42200,0.05978
717.49325,0.05984
715.56451,0.05991
713.63576,0.06007
711.70702,0.06017
709.77827,0.05966
707.84953,0.05889
705.92078,0.05849
703.99204,0.05858
702.06329,0.05873
700.13455,0.05862
698.20580,0.05868
696.27706,0.05908
694.34831,0.05904
692.41957,0.05848
690.49082,0.05806
688.56207,0.05806
686.63333,0.05832
684.70458,0.05844
682.77584,0.05816
680.84709,0.05768
678.91835,0.05726
676.98960,0.05692
675.06086,0.05693
673.13211,0.05728
671.20337,0.05747
669.27462,0.05749
667.34588,0.05759
665.41713,0.05772
663.48839,0.05772
661.55964,0.05739
659.63090,0.05703
657.70215,0.05696
655.77340,0.05694
653.84466,0.05681
651.91591,0.05685
649.98717,0.05722
648.05842,0.05725
646.12968,0.05628
644.20093,0.05529
642.27219,0.05521
640.34344,0.05537
638.41470,0.05525
636.48595,0.05532
634.55721,0.05566
632.62846,0.05565
630.69972,0.05541
628.77097,0.05546
626.84222,0.05511
624.91348,0.05443
622.98473,0.05478
621.05599,0.05559
619.12724,0.05520
617.19850,0.05433
615.26975,0.05404
613.34101,0.05386
611.41226,0.05382
609.48352,0.05407
607.55477,0.05373
605.62603,0.05311
603.69728,0.05314
601.76854,0.05321
599.83979,0.05278
