4497.78948,0.02204
4495.86076,0.02200
4493.93203,0.02204
4492.00330,0.02195
4490.07458,0.02184
4488.14585,0.02190
4486.21712,0.02201
4484.28840,0.02197
4482.35967,0.02200
4480.43095,0.02226
4478.50222,0.02241
4476.57349,0.02220
4474.64477,0.02194
4472.71604,0.02197
4470.78732,0.02214
4468.85859,0.02217
4466.92986,0.02211
4465.00114,0.02212
4463.07241,0.02222
4461.14368,0.02224
4459.21496,0.02225
4457.28623,0.02237
4455.35751,0.02247
4453.42878,0.02244
4451.50005,0.02230
4449.57133,0.02207
4447.64260,0.02202
4445.71387,0.02226
4443.78515,0.02252
4441.85642,0.02266
4439.92770,0.02269
4437.99897,0.02263
4436.07024,0.02248
4434.14152,0.02232
4432.21279,0.02222
4430.28407,0.02218
4428.35534,0.02227
4426.42661,0.02250
4424.49789,0.02271
4422.56916,0.02274
4420.64043,0.02262
4418.71171,0.02258
4416.78298,0.02271
4414.85426,0.02280
4412.92553,0.02273
4410.99680,0.02253
4409.06808,0.02238
4407.13935,0.02235
4405.21062,0.02239
4403.28190,0.02249
4401.35317,0.02261
4399.42445,0.02265
4397.49572,0.02255
4395.56699,0.02245
4393.63827,0.02252
4391.70954,0.02268
4389.78082,0.02275
4387.85209,0.02272
4385.92336,0.02267
4383.99464,0.02263
4382.06591,0.02262
4380.13718,0.02265
4378.20846,0.02262
4376.27973,0.02255
4374.35101,0.02250
4372.42228,0.02246
4370.49355,0.02245
4368.56483,0.02254
4366.63610,0.02260
4364.70737,0.02252
4362.77865,0.02252
4360.84992,0.02264
4358.92120,0.02266
4356.99247,0.02257
4355.06374,0.02249
4353.13502,0.02245
4351.20629,0.02249
4349.27757,0.02261
4347.34884,0.02268
4345.42011,0.02271
4343.49139,0.02280
4341.56266,0.02297
4339.63393,0.02311
4337.70521,0.02311
4335.77648,0.02300
4333.84776,0.02289
4331.91903,0.02285
4329.99030,0.02289
4328.06158,0.02298
4326.13285,0.02300
4324.20412,0.02295
4322.27540,0.02289
4320.34667,0.02292
4318.41795,0.02303
4316.48922,0.02302
4314.56049,0.02283
4312.63177,0.02267
4310.70304,0.02267
4308.77432,0.02280
4306.84559,0.02293
4304.91686,0.02292
4302.98814,0.02281
4301.05941,0.02278
4299.13068,0.02287
4297.20196,0.02298
4295.27323,0.02304
4293.34451,0.02313
4291.41578,0.02324
4289.48705,0.02328
4287.55833,0.02322
4285.62960,0.02312
4283.70087,0.02306
4281.77215,0.02305
4279.84342,0.02301
4277.91470,0.02295
4275.98597,0.02297
4274.05724,0.02304
4272.12852,0.02309
4270.19979,0.02315
4268.27107,0.02319
4266.34234,0.02318
4264.41361,0.02312
4262.48489,0.02306
4260.55616,0.02307
4258.62743,0.02315
4256.69871,0.02319
4254.76998,0.02315
4252.84126,0.02314
4250.91253,0.02310
4248.98380,0.02301
4247.05508,0.02299
4245.12635,0.02301
4243.19762,0.02301
4241.26890,0.02307
4239.34017,0.02313
4237.41145,0.02303
4235.48272,0.02289
4233.55399,0.02286
4231.62527,0.02297
4229.69654,0.02316
4227.76782,0.02329
4225.83909,0.02331
4223.91036,0.02328
4221.98164,0.02322
4220.05291,0.02315
4218.12418,0.02307
4216.19546,0.02307
4214.26673,0.02317
4212.33801,0.02325
4210.40928,0.02326
4208.48055,0.02329
4206.55183,0.02338
4204.62310,0.02346
4202.69437,0.02347
4200.76565,0.02345
4198.83692,0.02333
4196.90820,0.02323
4194.97947,0.02330
4193.05074,0.02344
4191.12202,0.02351
4189.19329,0.02350
4187.26456,0.02343
4185.33584,0.02337
4183.40711,0.02336
4181.47839,0.02341
4179.54966,0.02342
4177.62093,0.02338
4175.69221,0.02339
4173.76348,0.02349
4171.83476,0.02359
4169.90603,0.02364
4167.97730,0.02369
4166.04858,0.02369
4164.11985,0.02358
4162.19112,0.02345
4160.26240,0.02345
4158.33367,0.02351
4156.40495,0.02349
4154.47622,0.02340
4152.54749,0.02333
4150.61877,0.02334
4148.69004,0.02342
4146.76131,0.02351
4144.83259,0.02356
4142.90386,0.02361
4140.97514,0.02368
4139.04641,0.02371
4137.11768,0.02368
4135.18896,0.02364
4133.26023,0.02353
4131.33151,0.02338
4129.40278,0.02335
4127.47405,0.02350
4125.54533,0.02360
4123.61660,0.02360
4121.68787,0.02364
4119.75915,0.02379
4117.83042,0.02390
4115.90170,0.02388
4113.97297,0.02381
4112.04424,0.02376
4110.11552,0.02378
4108.18679,0.02393
4106.25806,0.02412
4104.32934,0.02411
4102.40061,0.02398
4100.47189,0.02398
4098.54316,0.02406
4096.61443,0.02404
4094.68571,0.02397
4092.75698,0.02399
4090.82826,0.02417
4088.89953,0.02433
4086.97080,0.02436
4085.04208,0.02435
4083.11335,0.02431
4081.18462,0.02423
4079.25590,0.02414
4077.32717,0.02406
4075.39845,0.02404
4073.46972,0.02406
4071.54099,0.02406
4069.61227,0.02399
4067.68354,0.02386
4065.75481,0.02383
4063.82609,0.02396
4061.89736,0.02413
4059.96864,0.02418
4058.03991,0.02411
4056.11118,0.02407
4054.18246,0.02403
4052.25373,0.02397
4050.32501,0.02395
4048.39628,0.02403
4046.46755,0.02423
4044.53883,0.02436
4042.61010,0.02426
4040.68137,0.02402
4038.75265,0.02393
4036.82392,0.02407
4034.89520,0.02422
4032.96647,0.02416
4031.03774,0.02398
4029.10902,0.02393
4027.18029,0.02413
4025.25156,0.02435
4023.32284,0.02442
4021.39411,0.02447
4019.46539,0.02452
4017.53666,0.02448
4015.60793,0.02436
4013.67921,0.02425
4011.75048,0.02426
4009.82176,0.02441
4007.89303,0.02446
4005.96430,0.02428
4004.03558,0.02409
4002.10685,0.02398
4000.17812,0.02402
3998.24940,0.02430
3996.32067,0.02467
3994.39195,0.02484
3992.46322,0.02491
3990.53449,0.02486
3988.60577,0.02456
3986.67704,0.02433
3984.74831,0.02442
3982.81959,0.02462
3980.89086,0.02466
3978.96214,0.02473
3977.03341,0.02517
3975.10468,0.02556
3973.17596,0.02547
3971.24723,0.02518
3969.31851,0.02483
3967.38978,0.02452
3965.46105,0.02465
3963.53233,0.02527
3961.60360,0.02566
3959.67487,0.02559
3957.74615,0.02549
3955.81742,0.02546
3953.88870,0.02550
3951.95997,0.02597
3950.03124,0.02680
3948.10252,0.02697
3946.17379,0.02659
3944.24506,0.02653
3942.31634,0.02635
3940.38761,0.02572
3938.45889,0.02521
3936.53016,0.02528
3934.60143,0.02624
3932.67271,0.02747
3930.74398,0.02736
3928.81526,0.02655
3926.88653,0.02669
3924.95780,0.02735
3923.02908,0.02716
3921.10035,0.02686
3919.17162,0.02723
3917.24290,0.02711
3915.31417,0.02594
3913.38545,0.02498
3911.45672,0.02474
3909.52799,0.02519
3907.59927,0.02663
3905.67054,0.02922
3903.74181,0.03126
3901.81309,0.03109
3899.88436,0.02970
3897.95564,0.02793
3896.02691,0.02711
3894.09818,0.02760
3892.16946,0.02812
3890.24073,0.02739
3888.31201,0.02709
3886.38328,0.02804
3884.45455,0.02896
3882.52583,0.02882
3880.59710,0.02785
3878.66837,0.02672
3876.73965,0.02650
3874.81092,0.02755
3872.88220,0.02935
3870.95347,0.03047
3869.02474,0.02994
3867.09602,0.02952
3865.16729,0.03013
3863.23856,0.02977
3861.30984,0.02821
3859.38111,0.02767
3857.45239,0.02871
3855.52366,0.03116
3853.59493,0.03309
3851.66621,0.03064
3849.73748,0.02810
3847.80876,0.02690
3845.88003,0.02708
3843.95130,0.02846
3842.02258,0.03039
3840.09385,0.03217
3838.16512,0.03204
3836.23640,0.03007
3834.30767,0.02845
3832.37895,0.02745
3830.45022,0.02715
3828.52149,0.02751
3826.59277,0.02806
3824.66404,0.02852
3822.73531,0.02933
3820.80659,0.03009
3818.87786,0.02979
3816.94914,0.02876
3815.02041,0.02695
3813.09168,0.02566
3811.16296,0.02541
3809.23423,0.02608
3807.30550,0.02725
3805.37678,0.02813
3803.44805,0.02917
3801.51933,0.03002
3799.59060,0.02937
3797.66187,0.02804
3795.73315,0.02628
3793.80442,0.02500
3791.87570,0.02456
3789.94697,0.02478
3788.01824,0.02555
3786.08952,0.02634
3784.16079,0.02632
3782.23206,0.02608
3780.30334,0.02622
3778.37461,0.02587
3776.44589,0.02516
3774.51716,0.02509
3772.58843,0.02587
3770.65971,0.02709
3768.73098,0.02769
3766.80225,0.02758
3764.87353,0.02709
3762.94480,0.02678
3761.01608,0.02743
3759.08735,0.02863
3757.15862,0.02904
3755.22990,0.02948
3753.30117,0.03134
3751.37245,0.03443
3749.44372,0.03460
3747.51499,0.03358
3745.58627,0.03269
3743.65754,0.03130
3741.72881,0.03043
3739.80009,0.03050
3737.87136,0.03176
3735.94264,0.03337
3734.01391,0.03191
3732.08518,0.02928
3730.15646,0.02820
3728.22773,0.02860
3726.29900,0.02973
3724.37028,0.02993
3722.44155,0.02881
3720.51283,0.02739
3718.58410,0.02642
3716.65537,0.02635
3714.72665,0.02731
3712.79792,0.02929
3710.86920,0.02982
3708.94047,0.02772
3707.01174,0.02620
3705.08302,0.02575
3703.15429,0.02597
3701.22556,0.02591
3699.29684,0.02541
3697.36811,0.02538
3695.43939,0.02602
3693.51066,0.02733
3691.58193,0.02957
3689.65321,0.03073
3687.72448,0.02838
3685.79575,0.02640
3683.86703,0.02569
3681.93830,0.02606
3680.00958,0.02736
3678.08085,0.02916
3676.15212,0.03051
3674.22340,0.03046
3672.29467,0.03076
3670.36595,0.03052
3668.43722,0.02794
3666.50849,0.02588
3664.57977,0.02507
3662.65104,0.02507
3660.72231,0.02548
3658.79359,0.02620
3656.86486,0.02710
3654.93614,0.02754
3653.00741,0.02814
3651.07868,0.03058
3649.14996,0.03364
3647.22123,0.03097
3645.29250,0.02856
3643.36378,0.02741
3641.43505,0.02661
3639.50633,0.02603
3637.57760,0.02593
3635.64887,0.02643
3633.72015,0.02748
3631.79142,0.02901
3629.86270,0.03072
3627.93397,0.02996
3626.00524,0.02808
3624.07652,0.02748
3622.14779,0.02832
3620.21906,0.03020
3618.29034,0.03112
3616.36161,0.03099
3614.43289,0.03099
3612.50416,0.03062
3610.57543,0.03017
3608.64671,0.02951
3606.71798,0.02807
3604.78925,0.02716
3602.86053,0.02749
3600.93180,0.02850
3599.00308,0.02904
3597.07435,0.02898
3595.14562,0.02841
3593.21690,0.02747
3591.28817,0.02744
3589.35945,0.02898
3587.43072,0.03013
3585.50199,0.02864
3583.57327,0.02724
3581.64454,0.02671
3579.71581,0.02655
3577.78709,0.02644
3575.85836,0.02633
3573.92964,0.02631
3572.00091,0.02675
3570.07218,0.02827
3568.14346,0.03102
3566.21473,0.03183
3564.28600,0.02991
3562.35728,0.02839
3560.42855,0.02744
3558.49983,0.02670
3556.57110,0.02651
3554.64237,0.02704
3552.71365,0.02748
3550.78492,0.02743
3548.85620,0.02795
3546.92747,0.02922
3544.99874,0.02938
3543.07002,0.02782
3541.14129,0.02639
3539.21256,0.02606
3537.28384,0.02631
3535.35511,0.02622
3533.42639,0.02618
3531.49766,0.02691
3529.56893,0.02815
3527.64021,0.02904
3525.71148,0.02930
3523.78275,0.02870
3521.85403,0.02732
3519.92530,0.02622
3517.99658,0.02566
3516.06785,0.02528
3514.13912,0.02529
3512.21040,0.02589
3510.28167,0.02637
3508.35295,0.02618
3506.42422,0.02634
3504.49549,0.02737
3502.56677,0.02772
3500.63804,0.02673
3498.70931,0.02592
3496.78059,0.02567
3494.85186,0.02540
3492.92314,0.02512
3490.99441,0.02524
3489.06568,0.02560
3487.13696,0.02571
3485.20823,0.02567
3483.27950,0.02598
3481.35078,0.02608
3479.42205,0.02553
3477.49333,0.02513
3475.56460,0.02518
3473.63587,0.02514
3471.70715,0.02491
3469.77842,0.02487
3467.84970,0.02504
3465.92097,0.02523
3463.99224,0.02549
3462.06352,0.02572
3460.13479,0.02564
3458.20606,0.02539
3456.27734,0.02516
3454.34861,0.02497
3452.41989,0.02494
3450.49116,0.02533
3448.56243,0.02607
3446.63371,0.02645
3444.70498,0.02632
3442.77625,0.02612
3440.84753,0.02583
3438.91880,0.02556
3436.99008,0.02552
3435.06135,0.02565
3433.13262,0.02587
3431.20390,0.02601
3429.27517,0.02596
3427.34644,0.02585
3425.41772,0.02595
3423.48899,0.02635
3421.56027,0.02660
3419.63154,0.02618
3417.70281,0.02552
3415.77409,0.02521
3413.84536,0.02519
3411.91664,0.02521
3409.98791,0.02515
3408.05918,0.02505
3406.13046,0.02502
3404.20173,0.02509
3402.27300,0.02517
3400.34428,0.02522
3398.41555,0.02531
3396.48683,0.02537
3394.55810,0.02548
3392.62937,0.02552
3390.70065,0.02524
3388.77192,0.02499
3386.84319,0.02508
3384.91447,0.02525
3382.98574,0.02521
3381.05702,0.02511
3379.12829,0.02504
3377.19956,0.02492
3375.27084,0.02482
3373.34211,0.02482
3371.41339,0.02494
3369.48466,0.02514
3367.55593,0.02531
3365.62721,0.02529
3363.69848,0.02523
3361.76975,0.02522
3359.84103,0.02519
3357.91230,0.02517
3355.98358,0.02513
3354.05485,0.02500
3352.12612,0.02486
3350.19740,0.02477
3348.26867,0.02474
3346.33994,0.02483
3344.41122,0.02499
3342.48249,0.02512
3340.55377,0.02523
3338.62504,0.02542
3336.69631,0.02556
3334.76759,0.02542
3332.83886,0.02514
3330.91014,0.02502
3328.98141,0.02510
3327.05268,0.02517
3325.12396,0.02510
3323.19523,0.02499
3321.26650,0.02491
3319.33778,0.02487
3317.40905,0.02491
3315.48033,0.02506
3313.55160,0.02526
3311.62287,0.02544
3309.69415,0.02550
3307.76542,0.02535
3305.83669,0.02516
3303.90797,0.02512
3301.97924,0.02518
3300.05052,0.02522
3298.12179,0.02525
3296.19306,0.02524
3294.26434,0.02530
3292.33561,0.02543
3290.40689,0.02547
3288.47816,0.02537
3286.54943,0.02531
3284.62071,0.02536
3282.69198,0.02535
3280.76325,0.02525
3278.83453,0.02530
3276.90580,0.02546
3274.97708,0.02550
3273.04835,0.02538
3271.11962,0.02525
3269.19090,0.02521
3267.26217,0.02524
3265.33344,0.02523
3263.40472,0.02515
3261.47599,0.02506
3259.54727,0.02509
3257.61854,0.02525
3255.68981,0.02536
3253.76109,0.02526
3251.83236,0.02507
3249.90364,0.02505
3247.97491,0.02523
3246.04618,0.02538
3244.11746,0.02534
3242.18873,0.02525
3240.26000,0.02523
3238.33128,0.02525
3236.40255,0.02527
3234.47383,0.02528
3232.54510,0.02532
3230.61637,0.02539
3228.68765,0.02538
3226.75892,0.02522
3224.83019,0.02503
3222.90147,0.02505
3220.97274,0.02523
3219.04402,0.02525
3217.11529,0.02515
3215.18656,0.02517
3213.25784,0.02524
3211.32911,0.02525
3209.40039,0.02521
3207.47166,0.02513
3205.54293,0.02513
3203.61421,0.02521
3201.68548,0.02534
3199.75675,0.02547
3197.82803,0.02547
3195.89930,0.02529
3193.97058,0.02514
3192.04185,0.02508
3190.11312,0.02506
3188.18440,0.02513
3186.25567,0.02524
3184.32694,0.02524
3182.39822,0.02521
3180.46949,0.02535
3178.54077,0.02546
3176.61204,0.02533
3174.68331,0.02518
3172.75459,0.02517
3170.82586,0.02521
3168.89714,0.02518
3166.96841,0.02509
3165.03968,0.02505
3163.11096,0.02507
3161.18223,0.02510
3159.25350,0.02515
3157.32478,0.02520
3155.39605,0.02522
3153.46733,0.02519
3151.53860,0.02518
3149.60987,0.02522
3147.68115,0.02528
3145.75242,0.02533
3143.82369,0.02537
3141.89497,0.02536
3139.96624,0.02536
3138.03752,0.02541
3136.10879,0.02544
3134.18006,0.02549
3132.25134,0.02554
3130.32261,0.02558
3128.39389,0.02565
3126.46516,0.02569
3124.53643,0.02573
3122.60771,0.02579
3120.67898,0.02585
3118.75025,0.02590
3116.82153,0.02588
3114.89280,0.02579
3112.96408,0.02580
3111.03535,0.02592
3109.10662,0.02599
3107.17790,0.02596
3105.24917,0.02603
3103.32044,0.02624
3101.39172,0.02634
3099.46299,0.02622
3097.53427,0.02606
3095.60554,0.02599
3093.67681,0.02590
3091.74809,0.02584
3089.81936,0.02585
3087.89063,0.02592
3085.96191,0.02604
3084.03318,0.02625
3082.10446,0.02644
3080.17573,0.02651
3078.24700,0.02641
3076.31828,0.02628
3074.38955,0.02623
3072.46083,0.02625
3070.53210,0.02635
3068.60337,0.02654
3066.67465,0.02671
3064.74592,0.02669
3062.81719,0.02651
3060.88847,0.02644
3058.95974,0.02656
3057.03102,0.02674
3055.10229,0.02679
3053.17356,0.02671
3051.24484,0.02665
3049.31611,0.02659
3047.38738,0.02639
3045.45866,0.02613
3043.52993,0.02595
3041.60121,0.02588
3039.67248,0.02584
3037.74375,0.02590
3035.81503,0.02609
3033.88630,0.02633
3031.95758,0.02640
3030.02885,0.02624
3028.10012,0.02606
3026.17140,0.02600
3024.24267,0.02604
3022.31394,0.02611
3020.38522,0.02613
3018.45649,0.02618
3016.52777,0.02640
3014.59904,0.02677
3012.67031,0.02707
3010.74159,0.02716
3008.81286,0.02711
3006.88413,0.02712
3004.95541,0.02720
3003.02668,0.02723
3001.09796,0.02722
2999.16923,0.02731
2997.24050,0.02746
2995.31178,0.02760
2993.38305,0.02766
2991.45433,0.02770
2989.52560,0.02781
2987.59687,0.02797
2985.66815,0.02815
2983.73942,0.02841
2981.81069,0.02875
2979.88197,0.02913
2977.95324,0.02952
2976.02452,0.02997
2974.09579,0.03048
2972.16706,0.03092
2970.23834,0.03118
2968.30961,0.03132
2966.38088,0.03140
2964.45216,0.03140
2962.52343,0.03132
2960.59471,0.03116
2958.66598,0.03102
2956.73725,0.03091
2954.80853,0.03073
2952.87980,0.03046
2950.95108,0.03015
2949.02235,0.02987
2947.09362,0.02964
2945.16490,0.02940
2943.23617,0.02915
2941.30744,0.02894
2939.37872,0.02880
2937.44999,0.02876
2935.52127,0.02884
2933.59254,0.02895
2931.66381,0.02902
2929.73509,0.02908
2927.80636,0.02915
2925.87763,0.02925
2923.94891,0.02935
2922.02018,0.02946
2920.09146,0.02954
2918.16273,0.02954
2916.23400,0.02957
2914.30528,0.02972
2912.37655,0.02991
2910.44783,0.03009
2908.51910,0.03021
2906.59037,0.03020
2904.66165,0.03006
2902.73292,0.02982
2900.80419,0.02955
2898.87547,0.02933
2896.94674,0.02916
2895.01802,0.02902
2893.08929,0.02889
2891.16056,0.02882
2889.23184,0.02880
2887.30311,0.02876
2885.37438,0.02865
2883.44566,0.02854
2881.51693,0.02849
2879.58821,0.02851
2877.65948,0.02854
2875.73075,0.02853
2873.80203,0.02846
2871.87330,0.02842
2869.94458,0.02843
2868.01585,0.02843
2866.08712,0.02841
2864.15840,0.02842
2862.22967,0.02849
2860.30094,0.02859
2858.37222,0.02865
2856.44349,0.02867
2854.51477,0.02868
2852.58604,0.02866
2850.65731,0.02859
2848.72859,0.02846
2846.79986,0.02829
2844.87113,0.02809
2842.94241,0.02788
2841.01368,0.02768
2839.08496,0.02750
2837.15623,0.02736
2835.22750,0.02726
2833.29878,0.02719
2831.37005,0.02716
2829.44133,0.02712
2827.51260,0.02703
2825.58387,0.02692
2823.65515,0.02683
2821.72642,0.02677
2819.79769,0.02673
2817.86897,0.02676
2815.94024,0.02685
2814.01152,0.02690
2812.08279,0.02691
2810.15406,0.02692
2808.22534,0.02691
2806.29661,0.02686
2804.36788,0.02680
2802.43916,0.02677
2800.51043,0.02676
2798.58171,0.02674
2796.65298,0.02671
2794.72425,0.02669
2792.79553,0.02670
2790.86680,0.02671
2788.93808,0.02667
2787.00935,0.02661
2785.08062,0.02657
2783.15190,0.02657
2781.22317,0.02660
2779.29444,0.02661
2777.36572,0.02658
2775.43699,0.02654
2773.50827,0.02653
2771.57954,0.02650
2769.65081,0.02647
2767.72209,0.02645
2765.79336,0.02645
2763.86463,0.02643
2761.93591,0.02642
2760.00718,0.02640
2758.07846,0.02638
2756.14973,0.02639
2754.22100,0.02640
2752.29228,0.02641
2750.36355,0.02645
2748.43483,0.02651
2746.50610,0.02651
2744.57737,0.02646
2742.64865,0.02641
2740.71992,0.02636
2738.79119,0.02633
2736.86247,0.02631
2734.93374,0.02629
2733.00502,0.02629
2731.07629,0.02630
2729.14756,0.02628
2727.21884,0.02626
2725.29011,0.02626
2723.36138,0.02629
2721.43266,0.02628
2719.50393,0.02622
2717.57521,0.02616
2715.64648,0.02614
2713.71775,0.02614
2711.78903,0.02613
2709.86030,0.02612
2707.93157,0.02611
2706.00285,0.02610
2704.07412,0.02611
2702.14540,0.02610
2700.21667,0.02610
2698.28794,0.02611
2696.35922,0.02613
2694.43049,0.02613
2692.50177,0.02612
2690.57304,0.02611
2688.64431,0.02611
2686.71559,0.02611
2684.78686,0.02609
2682.85813,0.02601
2680.92941,0.02597
2679.00068,0.02599
2677.07196,0.02603
2675.14323,0.02602
2673.21450,0.02599
2671.28578,0.02600
2669.35705,0.02602
2667.42832,0.02602
2665.49960,0.02603
2663.57087,0.02605
2661.64215,0.02603
2659.71342,0.02598
2657.78469,0.02588
2655.85597,0.02577
2653.92724,0.02571
2651.99852,0.02567
2650.06979,0.02559
2648.14106,0.02547
2646.21234,0.02539
2644.28361,0.02534
2642.35488,0.02531
2640.42616,0.02528
2638.49743,0.02526
2636.56871,0.02521
2634.63998,0.02510
2632.71125,0.02503
2630.78253,0.02502
2628.85380,0.02504
2626.92507,0.02502
2624.99635,0.02496
2623.06762,0.02487
2621.13890,0.02477
2619.21017,0.02469
2617.28144,0.02462
2615.35272,0.02458
2613.42399,0.02456
2611.49527,0.02453
2609.56654,0.02447
2607.63781,0.02441
2605.70909,0.02442
2603.78036,0.02446
2601.85163,0.02448
2599.92291,0.02447
2597.99418,0.02447
2596.06546,0.02448
2594.13673,0.02450
2592.20800,0.02452
2590.27928,0.02452
2588.35055,0.02449
2586.42182,0.02446
2584.49310,0.02443
2582.56437,0.02440
2580.63565,0.02435
2578.70692,0.02430
2576.77819,0.02424
2574.84947,0.02421
2572.92074,0.02424
2570.99202,0.02425
2569.06329,0.02418
2567.13456,0.02414
2565.20584,0.02416
2563.27711,0.02416
2561.34838,0.02408
2559.41966,0.02403
2557.49093,0.02405
2555.56221,0.02411
2553.63348,0.02416
2551.70475,0.02415
2549.77603,0.02408
2547.84730,0.02401
2545.91857,0.02403
2543.98985,0.02407
2542.06112,0.02407
2540.13240,0.02408
2538.20367,0.02410
2536.27494,0.02411
2534.34622,0.02408
2532.41749,0.02402
2530.48877,0.02394
2528.56004,0.02386
2526.63131,0.02383
2524.70259,0.02381
2522.77386,0.02380
2520.84513,0.02381
2518.91641,0.02383
2516.98768,0.02380
2515.05896,0.02371
2513.13023,0.02363
2511.20150,0.02366
2509.27278,0.02370
2507.34405,0.02371
2505.41532,0.02375
2503.48660,0.02379
2501.55787,0.02373
2499.62915,0.02360
2497.70042,0.02356
2495.77169,0.02361
2493.84297,0.02366
2491.91424,0.02364
2489.98552,0.02357
2488.05679,0.02350
2486.12806,0.02344
2484.19934,0.02341
2482.27061,0.02336
2480.34188,0.02331
2478.41316,0.02332
2476.48443,0.02338
2474.55571,0.02346
2472.62698,0.02354
2470.69825,0.02357
2468.76953,0.02355
2466.84080,0.02349
2464.91207,0.02343
2462.98335,0.02340
2461.05462,0.02338
2459.12590,0.02334
2457.19717,0.02326
2455.26844,0.02318
2453.33972,0.02318
2451.41099,0.02323
2449.48227,0.02324
2447.55354,0.02319
2445.62481,0.02318
2443.69609,0.02321
2441.76736,0.02322
2439.83863,0.02325
2437.90991,0.02333
2435.98118,0.02343
2434.05246,0.02348
2432.12373,0.02353
2430.19500,0.02359
2428.26628,0.02357
2426.33755,0.02346
2424.40882,0.02339
2422.48010,0.02344
2420.55137,0.02353
2418.62265,0.02359
2416.69392,0.02359
2414.76519,0.02352
2412.83647,0.02350
2410.90774,0.02356
2408.97902,0.02363
2407.05029,0.02369
2405.12156,0.02374
2403.19284,0.02376
2401.26411,0.02380
2399.33538,0.02384
2397.40666,0.02380
2395.47793,0.02375
2393.54921,0.02374
2391.62048,0.02379
2389.69175,0.02394
2387.76303,0.02411
2385.83430,0.02430
2383.90557,0.02449
2381.97685,0.02461
2380.04812,0.02457
2378.11940,0.02432
2376.19067,0.02382
2374.26194,0.02314
2372.33322,0.02230
2370.40449,0.02120
2368.47576,0.02003
2366.54704,0.01919
2364.61831,0.01860
2362.68959,0.01805
2360.76086,0.01770
2358.83213,0.01791
2356.90341,0.01877
2354.97468,0.01987
2353.04596,0.02115
2351.11723,0.02231
2349.18850,0.02274
2347.25978,0.02231
2345.33105,0.02121
2343.40232,0.02000
2341.47360,0.01936
2339.54487,0.01922
2337.61615,0.01926
2335.68742,0.01939
2333.75869,0.01980
2331.82997,0.02050
2329.90124,0.02105
2327.97251,0.02138
2326.04379,0.02185
2324.11506,0.02236
2322.18634,0.02279
2320.25761,0.02318
2318.32888,0.02344
2316.40016,0.02357
2314.47143,0.02370
2312.54271,0.02396
2310.61398,0.02425
2308.68525,0.02438
2306.75653,0.02431
2304.82780,0.02415
2302.89907,0.02397
2300.97035,0.02381
2299.04162,0.02369
2297.11290,0.02358
2295.18417,0.02349
2293.25544,0.02344
2291.32672,0.02341
2289.39799,0.02339
2287.46926,0.02337
2285.54054,0.02334
2283.61181,0.02322
2281.68309,0.02297
2279.75436,0.02275
2277.82563,0.02264
2275.89691,0.02258
2273.96818,0.02248
2272.03946,0.02238
2270.11073,0.02236
2268.18200,0.02238
2266.25328,0.02233
2264.32455,0.02221
2262.39582,0.02215
2260.46710,0.02218
2258.53837,0.02223
2256.60965,0.02226
2254.68092,0.02225
2252.75219,0.02219
2250.82347,0.02212
2248.89474,0.02210
2246.96601,0.02209
2245.03729,0.02206
2243.10856,0.02196
2241.17984,0.02179
2239.25111,0.02167
2237.32238,0.02164
2235.39366,0.02168
2233.46493,0.02173
2231.53621,0.02168
2229.60748,0.02156
2227.67875,0.02142
2225.75003,0.02129
2223.82130,0.02121
2221.89257,0.02113
2219.96385,0.02106
2218.03512,0.02113
2216.10640,0.02118
2214.17767,0.02093
2212.24894,0.02053
2210.32022,0.02040
2208.39149,0.02057
2206.46276,0.02063
2204.53404,0.02053
2202.60531,0.02050
2200.67659,0.02037
2198.74786,0.02004
2196.81913,0.01990
2194.89041,0.02008
2192.96168,0.02023
2191.03296,0.02013
2189.10423,0.01984
2187.17550,0.01943
2185.24678,0.01911
2183.31805,0.01911
2181.38932,0.01929
2179.46060,0.01936
2177.53187,0.01926
2175.60315,0.01910
2173.67442,0.01908
2171.74569,0.01917
2169.81697,0.01922
2167.88824,0.01925
2165.95951,0.01925
2164.03079,0.01919
2162.10206,0.01892
2160.17334,0.01846
2158.24461,0.01829
2156.31588,0.01863
2154.38716,0.01916
2152.45843,0.01969
2150.52971,0.02010
2148.60098,0.02025
2146.67225,0.02023
2144.74353,0.02026
2142.81480,0.02038
2140.88607,0.02045
2138.95735,0.02048
2137.02862,0.02049
2135.09990,0.02046
2133.17117,0.02049
2131.24244,0.02052
2129.31372,0.02058
2127.38499,0.02072
2125.45626,0.02077
2123.52754,0.02063
2121.59881,0.02049
2119.67009,0.02047
2117.74136,0.02055
2115.81263,0.02067
2113.88391,0.02066
2111.95518,0.02056
2110.02646,0.02048
2108.09773,0.02051
2106.16900,0.02060
2104.24028,0.02062
2102.31155,0.02063
2100.38282,0.02077
2098.45410,0.02089
2096.52537,0.02086
2094.59665,0.02081
2092.66792,0.02097
2090.73919,0.02121
2088.81047,0.02122
2086.88174,0.02096
2084.95301,0.02071
2083.02429,0.02062
2081.09556,0.02058
2079.16684,0.02050
2077.23811,0.02044
2075.30938,0.02046
2073.38066,0.02050
2071.45193,0.02049
2069.52321,0.02050
2067.59448,0.02069
2065.66575,0.02088
2063.73703,0.02083
2061.80830,0.02067
2059.87957,0.02040
2057.95085,0.02008
2056.02212,0.02001
2054.09340,0.02019
2052.16467,0.02029
2050.23594,0.02006
2048.30722,0.01964
2046.37849,0.01936
2044.44976,0.01943
2042.52104,0.01979
2040.59231,0.01990
2038.66359,0.01950
2036.73486,0.01912
2034.80613,0.01896
2032.87741,0.01870
2030.94868,0.01851
2029.01996,0.01870
2027.09123,0.01909
2025.16250,0.01937
2023.23378,0.01943
2021.30505,0.01944
2019.37632,0.01969
2017.44760,0.01992
2015.51887,0.01968
2013.59015,0.01930
2011.66142,0.01930
2009.73269,0.01954
2007.80397,0.01956
2005.87524,0.01933
2003.94651,0.01923
2002.01779,0.01930
2000.08906,0.01932
1998.16034,0.01926
1996.23161,0.01954
1994.30288,0.02044
1992.37416,0.02114
1990.44543,0.02092
1988.51670,0.02043
1986.58798,0.02017
1984.65925,0.02005
1982.73053,0.01996
1980.80180,0.01978
1978.87307,0.01951
1976.94435,0.01927
1975.01562,0.01914
1973.08690,0.01930
1971.15817,0.01990
1969.22944,0.02080
1967.30072,0.02125
1965.37199,0.02085
1963.44326,0.02043
1961.51454,0.02050
1959.58581,0.02075
1957.65709,0.02096
1955.72836,0.02103
1953.79963,0.02089
1951.87091,0.02065
1949.94218,0.02046
1948.01345,0.02054
1946.08473,0.02094
1944.15600,0.02135
1942.22728,0.02126
1940.29855,0.02065
1938.36982,0.02015
1936.44110,0.01996
1934.51237,0.01992
1932.58365,0.01976
1930.65492,0.01945
1928.72619,0.01923
1926.79747,0.01947
1924.86874,0.02040
1922.94001,0.02126
1921.01129,0.02115
1919.08256,0.02068
1917.15384,0.02011
1915.22511,0.01945
1913.29638,0.01923
1911.36766,0.01964
1909.43893,0.02002
1907.51020,0.01965
1905.58148,0.01900
1903.65275,0.01872
1901.72403,0.01873
1899.79530,0.01873
1897.86657,0.01888
1895.93785,0.01912
1894.00912,0.01914
1892.08040,0.01922
1890.15167,0.01950
1888.22294,0.01935
1886.29422,0.01895
1884.36549,0.01868
1882.43676,0.01836
1880.50804,0.01811
1878.57931,0.01799
1876.65059,0.01788
1874.72186,0.01796
1872.79313,0.01866
1870.86441,0.02024
1868.93568,0.02166
1867.00695,0.02078
1865.07823,0.01915
1863.14950,0.01839
1861.22078,0.01834
1859.29205,0.01834
1857.36332,0.01808
1855.43460,0.01776
1853.50587,0.01764
1851.57715,0.01791
1849.64842,0.01878
1847.71969,0.02017
1845.79097,0.02148
1843.86224,0.02141
1841.93351,0.01998
1840.00479,0.01911
1838.07606,0.01903
1836.14734,0.01905
1834.21861,0.01902
1832.28988,0.01948
1830.36116,0.02037
1828.43243,0.02062
1826.50370,0.02048
1824.57498,0.02021
1822.64625,0.01946
1820.71753,0.01878
1818.78880,0.01856
1816.86007,0.01846
1814.93135,0.01850
1813.00262,0.01909
1811.07390,0.01971
1809.14517,0.01952
1807.21644,0.01898
1805.28772,0.01889
1803.35899,0.01960
1801.43026,0.02042
1799.50154,0.02041
1797.57281,0.02029
1795.64409,0.02063
1793.71536,0.02119
1791.78663,0.02087
1789.85791,0.01925
1787.92918,0.01805
1786.00045,0.01784
1784.07173,0.01808
1782.14300,0.01839
1780.21428,0.01852
1778.28555,0.01825
1776.35682,0.01832
1774.42810,0.01921
1772.49937,0.02026
1770.57065,0.01991
1768.64192,0.01869
1766.71319,0.01752
1764.78447,0.01711
1762.85574,0.01771
1760.92701,0.01842
1758.99829,0.01871
1757.06956,0.01884
1755.14084,0.01904
1753.21211,0.02034
1751.28338,0.02380
1749.35466,0.02881
1747.42593,0.03250
1745.49720,0.03617
1743.56848,0.04140
1741.63975,0.04875
1739.71103,0.05916
1737.78230,0.06903
1735.85357,0.07880
1733.92485,0.09768
1731.99612,0.11685
1730.06740,0.12887
1728.13867,0.14066
1726.20994,0.15322
1724.28122,0.16871
1722.35249,0.18520
1720.42376,0.19904
1718.49504,0.21721
1716.56631,0.24624
1714.63759,0.25474
1712.70886,0.24773
1710.78013,0.23542
1708.85141,0.21981
1706.92268,0.19921
1704.99395,0.17334
1703.06523,0.15434
1701.13650,0.13918
1699.20778,0.12102
1697.27905,0.10521
1695.35032,0.09165
1693.42160,0.08407
1691.49287,0.08024
1689.56415,0.07744
1687.63542,0.07537
1685.70669,0.07402
1683.77797,0.07197
1681.84924,0.06852
1679.92051,0.06494
1677.99179,0.06193
1676.06306,0.05977
1674.13434,0.05806
1672.20561,0.05710
1670.27688,0.05549
1668.34816,0.05162
1666.41943,0.04891
1664.49070,0.04767
1662.56198,0.04646
1660.63325,0.04467
1658.70453,0.04371
1656.77580,0.04393
1654.84707,0.04491
1652.91835,0.04499
1650.98962,0.04407
1649.06090,0.04440
1647.13217,0.04403
1645.20344,0.04126
1643.27472,0.03941
1641.34599,0.03881
1639.41726,0.03918
1637.48854,0.04018
1635.55981,0.03946
1633.63109,0.03709
1631.70236,0.03593
1629.77363,0.03570
1627.84491,0.03598
1625.91618,0.03648
1623.98745,0.03693
1622.05873,0.03666
1620.13000,0.03619
1618.20128,0.03643
1616.27255,0.03646
1614.34382,0.03537
1612.41510,0.03456
1610.48637,0.03426
1608.55764,0.03393
1606.62892,0.03317
1604.70019,0.03249
1602.77147,0.03194
1600.84274,0.03109
1598.91401,0.03038
1596.98529,0.03024
1595.05656,0.03027
1593.12784,0.03004
1591.19911,0.02977
1589.27038,0.02950
1587.34166,0.02935
1585.41293,0.02972
1583.48420,0.03068
1581.55548,0.03204
1579.62675,0.03371
1577.69803,0.03558
1575.76930,0.03565
1573.84057,0.03393
1571.91185,0.03306
1569.98312,0.03260
1568.05439,0.03177
1566.12567,0.03122
1564.19694,0.03126
1562.26822,0.03173
1560.33949,0.03322
1558.41076,0.03603
1556.48204,0.03562
1554.55331,0.03393
1552.62459,0.03266
1550.69586,0.03206
1548.76713,0.03176
1546.83841,0.03245
1544.90968,0.03525
1542.98095,0.03961
1541.05223,0.03948
1539.12350,0.03419
1537.19478,0.03283
1535.26605,0.03317
1533.33732,0.03307
1531.40860,0.03198
1529.47987,0.03201
1527.55114,0.03371
1525.62242,0.03580
1523.69369,0.03707
1521.76497,0.03705
1519.83624,0.03551
1517.90751,0.03456
1515.97879,0.03363
1514.05006,0.03300
1512.12134,0.03409
1510.19261,0.03734
1508.26388,0.04340
1506.33516,0.04660
1504.40643,0.04341
1502.47770,0.04039
1500.54898,0.03766
1498.62025,0.03502
1496.69153,0.03164
1494.76280,0.02888
1492.83407,0.02837
1490.90535,0.03015
1488.97662,0.03196
1487.04789,0.03031
1485.11917,0.02872
1483.19044,0.02867
1481.26172,0.02965
1479.33299,0.03097
1477.40426,0.03315
1475.47554,0.03703
1473.54681,0.04103
1471.61809,0.04029
1469.68936,0.03763
1467.76063,0.03607
1465.83191,0.03538
1463.90318,0.03486
1461.97445,0.03484
1460.04573,0.03631
1458.11700,0.04023
1456.18828,0.04142
1454.25955,0.03866
1452.33082,0.03684
1450.40210,0.03600
1448.47337,0.03554
1446.54464,0.03450
1444.61592,0.03321
1442.68719,0.03244
1440.75847,0.03232
1438.82974,0.03289
1436.90101,0.03337
1434.97229,0.03218
1433.04356,0.03067
1431.11484,0.02957
1429.18611,0.02830
1427.25738,0.02730
1425.32866,0.02728
1423.39993,0.02806
1421.47120,0.02961
1419.54248,0.03374
1417.61375,0.04032
1415.68503,0.04657
1413.75630,0.05465
1411.82757,0.06469
1409.89885,0.07182
1407.97012,0.07259
1406.04139,0.06767
1404.11267,0.05919
1402.18394,0.05242
1400.25522,0.04853
1398.32649,0.04583
1396.39776,0.04333
1394.46904,0.04023
1392.54031,0.03777
1390.61159,0.03717
1388.68286,0.03798
1386.75413,0.03837
1384.82541,0.03726
1382.89668,0.03626
1380.96795,0.03599
1379.03923,0.03615
1377.11050,0.03666
1375.18178,0.03753
1373.25305,0.03766
1371.32432,0.03690
1369.39560,0.03596
1367.46687,0.03470
1365.53814,0.03371
1363.60942,0.03319
1361.68069,0.03172
1359.75197,0.02966
1357.82324,0.02870
1355.89451,0.02891
1353.96579,0.02987
1352.03706,0.03185
1350.10834,0.03597
1348.17961,0.04315
1346.25088,0.05379
1344.32216,0.06703
1342.39343,0.08040
1340.46470,0.09010
1338.53598,0.08834
1336.60725,0.07585
1334.67853,0.06182
1332.74980,0.04986
1330.82107,0.04097
1328.89235,0.03522
1326.96362,0.03207
1325.03489,0.03081
1323.10617,0.03089
1321.17744,0.03186
1319.24872,0.03310
1317.31999,0.03397
1315.39126,0.03485
1313.46254,0.03606
1311.53381,0.03725
1309.60509,0.03865
1307.67636,0.04060
1305.74763,0.04294
1303.81891,0.04572
1301.89018,0.04928
1299.96145,0.05380
1298.03273,0.05917
1296.10400,0.06498
1294.17528,0.07082
1292.24655,0.07680
1290.31782,0.08310
1288.38910,0.08953
1286.46037,0.09571
1284.53164,0.10188
1282.60292,0.10870
1280.67419,0.11629
1278.74547,0.12434
1276.81674,0.13278
1274.88801,0.14178
1272.95929,0.15176
1271.03056,0.16283
1269.10183,0.17425
1267.17311,0.18546
1265.24438,0.19621
1263.31566,0.20604
1261.38693,0.21475
1259.45820,0.22222
1257.52948,0.22866
1255.60075,0.23533
1253.67203,0.24326
1251.74330,0.25248
1249.81457,0.26237
1247.88585,0.27197
1245.95712,0.28013
1244.02839,0.28550
1242.09967,0.28654
1240.17094,0.28198
1238.24222,0.27127
1236.31349,0.25505
1234.38476,0.23519
1232.45604,0.21410
1230.52731,0.19408
1228.59858,0.17672
1226.66986,0.16244
1224.74113,0.15060
1222.81241,0.14025
1220.88368,0.13052
1218.95495,0.12109
1217.02623,0.11235
1215.09750,0.10481
1213.16878,0.09843
1211.24005,0.09286
1209.31132,0.08786
1207.38260,0.08326
1205.45387,0.07894
1203.52514,0.07487
1201.59642,0.07108
1199.66769,0.06758
1197.73897,0.06434
1195.81024,0.06139
1193.88151,0.05887
1191.95279,0.05686
1190.02406,0.05535
1188.09533,0.05432
1186.16661,0.05375
1184.23788,0.05356
1182.30916,0.05376
1180.38043,0.05436
1178.45170,0.05519
1176.52298,0.05593
1174.59425,0.05616
1172.66553,0.05560
1170.73680,0.05437
1168.80807,0.05289
1166.87935,0.05167
1164.95062,0.05103
1163.02189,0.05101
1161.09317,0.05142
1159.16444,0.05207
1157.23572,0.05286
1155.30699,0.05382
1153.37826,0.05503
1151.44954,0.05658
1149.52081,0.05853
1147.59208,0.06113
1145.66336,0.06471
1143.73463,0.06948
1141.80591,0.07565
1139.87718,0.08353
1137.94845,0.09352
1136.01973,0.10584
1134.09100,0.12028
1132.16228,0.13597
1130.23355,0.15170
1128.30482,0.16629
1126.37610,0.17888
1124.44737,0.18889
1122.51864,0.19587
1120.58992,0.19953
1118.66119,0.19990
1116.73247,0.19802
1114.80374,0.19629
1112.87501,0.19694
1110.94629,0.20048
1109.01756,0.20643
1107.08883,0.21431
1105.16011,0.22333
1103.23138,0.23231
1101.30266,0.23999
1099.37393,0.24516
1097.44520,0.24709
1095.51648,0.24559
1093.58775,0.24088
1091.65903,0.23371
1089.73030,0.22505
1087.80157,0.21556
1085.87285,0.20544
1083.94412,0.19449
1082.01539,0.18241
1080.08667,0.16935
1078.15794,0.15602
1076.22922,0.14347
1074.30049,0.13237
1072.37176,0.12284
1070.44304,0.11473
1068.51431,0.10783
1066.58558,0.10187
1064.65686,0.09666
1062.72813,0.09215
1060.79941,0.08840
1058.87068,0.08544
1056.94195,0.08317
1055.01323,0.08156
1053.08450,0.08063
1051.15578,0.08021
1049.22705,0.08008
1047.29832,0.08000
1045.36960,0.07967
1043.44087,0.07892
1041.51214,0.07767
1039.58342,0.07593
1037.65469,0.07383
1035.72597,0.07163
1033.79724,0.06965
1031.86851,0.06839
1029.93979,0.06943
1028.01106,0.07617
1026.08233,0.09167
1024.15361,0.11375
1022.22488,0.13540
1020.29616,0.15155
1018.36743,0.15963
1016.43870,0.15575
1014.50998,0.14000
1012.58125,0.11992
1010.65253,0.10291
1008.72380,0.09096
1006.79507,0.08283
1004.86635,0.07709
1002.93762,0.07281
1001.00889,0.06938
999.08017,0.06660
997.15144,0.06449
995.22272,0.06299
993.29399,0.06200
991.36526,0.06151
989.43654,0.06119
987.50781,0.06071
985.57908,0.06027
983.65036,0.06036
981.72163,0.06132
979.79291,0.06334
977.86418,0.06643
975.93545,0.07038
974.00673,0.07467
972.07800,0.07808
970.14928,0.07923
968.22055,0.07779
966.29182,0.07461
964.36310,0.07078
962.43437,0.06695
960.50564,0.06342
958.57692,0.06035
956.64819,0.05775
954.71947,0.05558
952.79074,0.05374
950.86201,0.05210
948.93329,0.05077
947.00456,0.04979
945.07583,0.04894
943.14711,0.04809
941.21838,0.04727
939.28966,0.04645
937.36093,0.04564
935.43220,0.04496
933.50348,0.04437
931.57475,0.04372
929.64603,0.04309
927.71730,0.04264
925.78857,0.04234
923.85985,0.04205
921.93112,0.04172
920.00239,0.04140
918.07367,0.04118
916.14494,0.04116
914.21622,0.04141
912.28749,0.04188
910.35876,0.04239
908.43004,0.04309
906.50131,0.04418
904.57258,0.04544
902.64386,0.04646
900.71513,0.04711
898.78641,0.04743
896.85768,0.04744
894.92895,0.04715
893.00023,0.04668
891.07150,0.04629
889.14277,0.04629
887.21405,0.04704
885.28532,0.04873
883.35660,0.05151
881.42787,0.05560
879.49914,0.06134
877.57042,0.06964
875.64169,0.08188
873.71297,0.09494
871.78424,0.09876
869.85551,0.08922
867.92679,0.07543
865.99806,0.06583
864.06933,0.06098
862.14061,0.05901
860.21188,0.05875
858.28316,0.05949
856.35443,0.06089
854.42570,0.06295
852.49698,0.06568
850.56825,0.06871
848.63952,0.07098
846.71080,0.07121
844.78207,0.06914
842.85335,0.06570
840.92462,0.06190
838.99589,0.05826
837.06717,0.05507
835.13844,0.05253
833.20972,0.05061
831.28099,0.04899
829.35226,0.04737
827.42354,0.04589
825.49481,0.04482
823.56608,0.04408
821.63736,0.04356
819.70863,0.04331
817.77991,0.04297
815.85118,0.04229
813.92245,0.04177
811.99373,0.04180
810.06500,0.04209
808.13627,0.04224
806.20755,0.04221
804.27882,0.04223
802.35010,0.04234
800.42137,0.04259
798.49264,0.04347
796.56392,0.04554
794.63519,0.04814
792.70647,0.04941
790.77774,0.04837
788.84901,0.04591
786.92029,0.04331
784.99156,0.04107
783.06283,0.03909
781.13411,0.03744
779.20538,0.03636
777.27666,0.03567
775.34793,0.03495
773.41920,0.03425
771.49048,0.03371
769.56175,0.03307
767.63302,0.03208
765.70430,0.03089
763.77557,0.02981
761.84685,0.02915
759.91812,0.02870
757.98939,0.02812
756.06067,0.02764
754.13194,0.02753
752.20322,0.02742
750.27449,0.02708
748.34576,0.02734
746.41704,0.02896
744.48831,0.03212
742.55958,0.03767
740.63086,0.04738
738.70213,0.06315
736.77341,0.08627
734.84468,0.11669
732.91595,0.15321
730.98723,0.19479
729.05850,0.23998
727.12977,0.28365
725.20105,0.31245
723.27232,0.31008
721.34360,0.27413
719.41487,0.22262
717.48614,0.17689
715.55742,0.14410
713.62869,0.12203
711.69997,0.10727
709.77124,0.09693
707.84251,0.08904
705.91379,0.08278
703.98506,0.07762
702.05633,0.07278
700.12761,0.06789
698.19888,0.06329
696.27016,0.05941
694.34143,0.05626
692.41270,0.05380
690.48398,0.05217
688.55525,0.05102
686.62652,0.05000
684.69780,0.04944
682.76907,0.04954
680.84035,0.04986
678.91162,0.05005
676.98289,0.05013
675.05417,0.04996
673.12544,0.04942
671.19672,0.04872
669.26799,0.04738
667.33926,0.04543
665.41054,0.04485
663.48181,0.04490
661.55308,0.04471
659.62436,0.04419
657.69563,0.04326
655.76691,0.04207
653.83818,0.04106
651.90945,0.04035
649.98073,0.03978
648.05200,0.03934
646.12327,0.03908
644.19455,0.03892
642.26582,0.03885
640.33710,0.03876
638.40837,0.03869
636.47964,0.03911
634.55092,0.04021
632.62219,0.04113
630.69347,0.04084
628.76474,0.03942
626.83601,0.03799
624.90729,0.03786
622.97856,0.03917
621.04983,0.04025
619.12111,0.04129
617.19238,0.04280
615.26366,0.04244
613.33493,0.04062
611.40620,0.03929
609.47748,0.03864
607.54875,0.03960
605.62002,0.04173
603.69130,0.04325
601.76257,0.04391
599.83385,0.04383
