4497.78948,0.02006
4495.86076,0.01992
4493.93203,0.01997
4492.00330,0.02004
4490.07458,0.02016
4488.14585,0.02035
4486.21712,0.02046
4484.28840,0.02042
4482.35967,0.02043
4480.43095,0.02057
4478.50222,0.02069
4476.57349,0.02067
4474.64477,0.02055
4472.71604,0.02045
4470.78732,0.02044
4468.85859,0.02042
4466.92986,0.02033
4465.00114,0.02033
4463.07241,0.02049
4461.14368,0.02056
4459.21496,0.02057
4457.28623,0.02066
4455.35751,0.02078
4453.42878,0.02081
4451.50005,0.02074
4449.57133,0.02064
4447.64260,0.02062
4445.71387,0.02074
4443.78515,0.02093
4441.85642,0.02104
4439.92770,0.02106
4437.99897,0.02106
4436.07024,0.02103
4434.14152,0.02090
4432.21279,0.02081
4430.28407,0.02077
4428.35534,0.02066
4426.42661,0.02061
4424.49789,0.02068
4422.56916,0.02071
4420.64043,0.02073
4418.71171,0.02085
4416.78298,0.02099
4414.85426,0.02094
4412.92553,0.02082
4410.99680,0.02086
4409.06808,0.02099
4407.13935,0.02105
4405.21062,0.02104
4403.28190,0.02095
4401.35317,0.02081
4399.42445,0.02085
4397.49572,0.02099
4395.56699,0.02108
4393.63827,0.02115
4391.70954,0.02117
4389.78082,0.02108
4387.85209,0.02094
4385.92336,0.02089
4383.99464,0.02091
4382.06591,0.02087
4380.13718,0.02086
4378.20846,0.02087
4376.27973,0.02085
4374.35101,0.02078
4372.42228,0.02069
4370.49355,0.02066
4368.56483,0.02069
4366.63610,0.02074
4364.70737,0.02080
4362.77865,0.02093
4360.84992,0.02104
4358.92120,0.02105
4356.99247,0.02106
4355.06374,0.02105
4353.13502,0.02099
4351.20629,0.02101
4349.27757,0.02111
4347.34884,0.02110
4345.42011,0.02098
4343.49139,0.02097
4341.56266,0.02113
4339.63393,0.02125
4337.70521,0.02123
4335.77648,0.02123
4333.84776,0.02126
4331.91903,0.02123
4329.99030,0.02121
4328.06158,0.02117
4326.13285,0.02110
4324.20412,0.02114
4322.27540,0.02129
4320.34667,0.02137
4318.41795,0.02138
4316.48922,0.02137
4314.56049,0.02138
4312.63177,0.02141
4310.70304,0.02137
4308.77432,0.02124
4306.84559,0.02119
4304.91686,0.02123
4302.98814,0.02125
4301.05941,0.02123
4299.13068,0.02113
4297.20196,0.02107
4295.27323,0.02116
4293.34451,0.02132
4291.41578,0.02146
4289.48705,0.02150
4287.55833,0.02143
4285.62960,0.02132
4283.70087,0.02127
4281.77215,0.02123
4279.84342,0.02120
4277.91470,0.02123
4275.98597,0.02133
4274.05724,0.02147
4272.12852,0.02156
4270.19979,0.02149
4268.27107,0.02137
4266.34234,0.02140
4264.41361,0.02149
4262.48489,0.02143
4260.55616,0.02133
4258.62743,0.02137
4256.69871,0.02149
4254.76998,0.02156
4252.84126,0.02156
4250.91253,0.02149
4248.98380,0.02137
4247.05508,0.02125
4245.12635,0.02116
4243.19762,0.02115
4241.26890,0.02134
4239.34017,0.02160
4237.41145,0.02164
4235.48272,0.02147
4233.55399,0.02137
4231.62527,0.02143
4229.69654,0.02152
4227.76782,0.02156
4225.83909,0.02157
4223.91036,0.02161
4221.98164,0.02167
4220.05291,0.02162
4218.12418,0.02144
4216.19546,0.02137
4214.26673,0.02154
4212.33801,0.02171
4210.40928,0.02166
4208.48055,0.02158
4206.55183,0.02162
4204.62310,0.02173
4202.69437,0.02177
4200.76565,0.02169
4198.83692,0.02161
4196.90820,0.02167
4194.97947,0.02182
4193.05074,0.02188
4191.12202,0.02183
4189.19329,0.02174
4187.26456,0.02167
4185.33584,0.02165
4183.40711,0.02168
4181.47839,0.02174
4179.54966,0.02178
4177.62093,0.02178
4175.69221,0.02176
4173.76348,0.02175
4171.83476,0.02176
4169.90603,0.02178
4167.97730,0.02185
4166.04858,0.02196
4164.11985,0.02199
4162.19112,0.02190
4160.26240,0.02188
4158.33367,0.02197
4156.40495,0.02202
4154.47622,0.02198
4152.54749,0.02191
4150.61877,0.02188
4148.69004,0.02193
4146.76131,0.02198
4144.83259,0.02194
4142.90386,0.02195
4140.97514,0.02205
4139.04641,0.02207
4137.11768,0.02198
4135.18896,0.02197
4133.26023,0.02195
4131.33151,0.02188
4129.40278,0.02189
4127.47405,0.02194
4125.54533,0.02195
4123.61660,0.02187
4121.68787,0.02185
4119.75915,0.02196
4117.83042,0.02211
4115.90170,0.02214
4113.97297,0.02203
4112.04424,0.02196
4110.11552,0.02207
4108.18679,0.02231
4106.25806,0.02251
4104.32934,0.02244
4102.40061,0.02225
4100.47189,0.02221
4098.54316,0.02227
4096.61443,0.02224
4094.68571,0.02214
4092.75698,0.02222
4090.82826,0.02251
4088.89953,0.02276
4086.97080,0.02279
4085.04208,0.02274
4083.11335,0.02268
4081.18462,0.02257
4079.25590,0.02243
4077.32717,0.02234
4075.39845,0.02240
4073.46972,0.02248
4071.54099,0.02251
4069.61227,0.02249
4067.68354,0.02236
4065.75481,0.02222
4063.82609,0.02226
4061.89736,0.02245
4059.96864,0.02250
4058.03991,0.02238
4056.11118,0.02230
4054.18246,0.02230
4052.25373,0.02230
4050.32501,0.02230
4048.39628,0.02245
4046.46755,0.02275
4044.53883,0.02286
4042.61010,0.02265
4040.68137,0.02240
4038.75265,0.02230
4036.82392,0.02237
4034.89520,0.02253
4032.96647,0.02256
4031.03774,0.02238
4029.10902,0.02231
4027.18029,0.02254
4025.25156,0.02275
4023.32284,0.02277
4021.39411,0.02279
4019.46539,0.02283
4017.53666,0.02277
4015.60793,0.02268
4013.67921,0.02268
4011.75048,0.02284
4009.82176,0.02309
4007.89303,0.02319
4005.96430,0.02302
4004.03558,0.02276
4002.10685,0.02258
4000.17812,0.02252
3998.24940,0.02265
3996.32067,0.02294
3994.39195,0.02318
3992.46322,0.02332
3990.53449,0.02325
3988.60577,0.02298
3986.67704,0.02284
3984.74831,0.02298
3982.81959,0.02313
3980.89086,0.02312
3978.96214,0.02323
3977.03341,0.02370
3975.10468,0.02409
3973.17596,0.02401
3971.24723,0.02378
3969.31851,0.02346
3967.38978,0.02308
3965.46105,0.02313
3963.53233,0.02369
3961.60360,0.02406
3959.67487,0.02397
3957.74615,0.02380
3955.81742,0.02365
3953.88870,0.02370
3951.95997,0.02434
3950.03124,0.02528
3948.10252,0.02544
3946.17379,0.02508
3944.24506,0.02503
3942.31634,0.02474
3940.38761,0.02401
3938.45889,0.02357
3936.53016,0.02378
3934.60143,0.02485
3932.67271,0.02613
3930.74398,0.02598
3928.81526,0.02506
3926.88653,0.02512
3924.95780,0.02586
3923.02908,0.02575
3921.10035,0.02544
3919.17162,0.02584
3917.24290,0.02584
3915.31417,0.02467
3913.38545,0.02354
3911.45672,0.02314
3909.52799,0.02356
3907.59927,0.02513
3905.67054,0.02803
3903.74181,0.03038
3901.81309,0.03013
3899.88436,0.02848
3897.95564,0.02654
3896.02691,0.02570
3894.09818,0.02630
3892.16946,0.02691
3890.24073,0.02602
3888.31201,0.02558
3886.38328,0.02663
3884.45455,0.02776
3882.52583,0.02758
3880.59710,0.02639
3878.66837,0.02514
3876.73965,0.02500
3874.81092,0.02618
3872.88220,0.02806
3870.95347,0.02914
3869.02474,0.02853
3867.09602,0.02817
3865.16729,0.02902
3863.23856,0.02880
3861.30984,0.02709
3859.38111,0.02638
3857.45239,0.02719
3855.52366,0.02918
3853.59493,0.03103
3851.66621,0.02931
3849.73748,0.02694
3847.80876,0.02563
3845.88003,0.02574
3843.95130,0.02714
3842.02258,0.02915
3840.09385,0.03102
3838.16512,0.03097
3836.23640,0.02901
3834.30767,0.02737
3832.37895,0.02631
3830.45022,0.02588
3828.52149,0.02619
3826.59277,0.02683
3824.66404,0.02738
3822.73531,0.02838
3820.80659,0.02944
3818.87786,0.02902
3816.94914,0.02774
3815.02041,0.02586
3813.09168,0.02452
3811.16296,0.02420
3809.23423,0.02486
3807.30550,0.02608
3805.37678,0.02690
3803.44805,0.02784
3801.51933,0.02879
3799.59060,0.02823
3797.66187,0.02689
3795.73315,0.02525
3793.80442,0.02403
3791.87570,0.02346
3789.94697,0.02343
3788.01824,0.02406
3786.08952,0.02498
3784.16079,0.02509
3782.23206,0.02480
3780.30334,0.02485
3778.37461,0.02439
3776.44589,0.02358
3774.51716,0.02350
3772.58843,0.02444
3770.65971,0.02592
3768.73098,0.02655
3766.80225,0.02624
3764.87353,0.02568
3762.94480,0.02544
3761.01608,0.02621
3759.08735,0.02750
3757.15862,0.02793
3755.22990,0.02846
3753.30117,0.03063
3751.37245,0.03417
3749.44372,0.03411
3747.51499,0.03265
3745.58627,0.03158
3743.65754,0.03032
3741.72881,0.02962
3739.80009,0.02976
3737.87136,0.03102
3735.94264,0.03250
3734.01391,0.03096
3732.08518,0.02832
3730.15646,0.02718
3728.22773,0.02753
3726.29900,0.02859
3724.37028,0.02872
3722.44155,0.02758
3720.51283,0.02626
3718.58410,0.02548
3716.65537,0.02549
3714.72665,0.02639
3712.79792,0.02830
3710.86920,0.02893
3708.94047,0.02680
3707.01174,0.02515
3705.08302,0.02463
3703.15429,0.02485
3701.22556,0.02476
3699.29684,0.02421
3697.36811,0.02417
3695.43939,0.02479
3693.51066,0.02598
3691.58193,0.02803
3689.65321,0.02925
3687.72448,0.02724
3685.79575,0.02531
3683.86703,0.02446
3681.93830,0.02475
3680.00958,0.02622
3678.08085,0.02837
3676.15212,0.02971
3674.22340,0.02918
3672.29467,0.02935
3670.36595,0.02938
3668.43722,0.02699
3666.50849,0.02488
3664.57977,0.02397
3662.65104,0.02385
3660.72231,0.02419
3658.79359,0.02485
3656.86486,0.02565
3654.93614,0.02607
3653.00741,0.02671
3651.07868,0.02944
3649.14996,0.03307
3647.22123,0.03010
3645.29250,0.02731
3643.36378,0.02605
3641.43505,0.02531
3639.50633,0.02484
3637.57760,0.02481
3635.64887,0.02528
3633.72015,0.02618
3631.79142,0.02750
3629.86270,0.02924
3627.93397,0.02868
3626.00524,0.02662
3624.07652,0.02584
3622.14779,0.02679
3620.21906,0.02908
3618.29034,0.03011
3616.36161,0.02970
3614.43289,0.02947
3612.50416,0.02909
3610.57543,0.02879
3608.64671,0.02827
3606.71798,0.02682
3604.78925,0.02587
3602.86053,0.02631
3600.93180,0.02745
3599.00308,0.02793
3597.07435,0.02771
3595.14562,0.02708
3593.21690,0.02618
3591.28817,0.02621
3589.35945,0.02788
3587.43072,0.02918
3585.50199,0.02760
3583.57327,0.02604
3581.64454,0.02545
3579.71581,0.02530
3577.78709,0.02514
3575.85836,0.02500
3573.92964,0.02498
3572.00091,0.02541
3570.07218,0.02701
3568.14346,0.03010
3566.21473,0.03117
3564.28600,0.02906
3562.35728,0.02731
3560.42855,0.02624
3558.49983,0.02538
3556.57110,0.02510
3554.64237,0.02566
3552.71365,0.02622
3550.78492,0.02618
3548.85620,0.02663
3546.92747,0.02793
3544.99874,0.02810
3543.07002,0.02645
3541.14129,0.02495
3539.21256,0.02462
3537.28384,0.02490
3535.35511,0.02483
3533.42639,0.02479
3531.49766,0.02551
3529.56893,0.02670
3527.64021,0.02755
3525.71148,0.02780
3523.78275,0.02722
3521.85403,0.02584
3519.92530,0.02474
3517.99658,0.02420
3516.06785,0.02390
3514.13912,0.02402
3512.21040,0.02472
3510.28167,0.02526
3508.35295,0.02512
3506.42422,0.02532
3504.49549,0.02637
3502.56677,0.02669
3500.63804,0.02557
3498.70931,0.02461
3496.78059,0.02430
3494.85186,0.02405
3492.92314,0.02380
3490.99441,0.02393
3489.06568,0.02430
3487.13696,0.02446
3485.20823,0.02453
3483.27950,0.02494
3481.35078,0.02509
3479.42205,0.02445
3477.49333,0.02385
3475.56460,0.02376
3473.63587,0.02372
3471.70715,0.02357
3469.77842,0.02358
3467.84970,0.02374
3465.92097,0.02392
3463.99224,0.02421
3462.06352,0.02444
3460.13479,0.02429
3458.20606,0.02398
3456.27734,0.02372
3454.34861,0.02354
3452.41989,0.02353
3450.49116,0.02394
3448.56243,0.02480
3446.63371,0.02533
3444.70498,0.02520
3442.77625,0.02492
3440.84753,0.02460
3438.91880,0.02433
3436.99008,0.02425
3435.06135,0.02434
3433.13262,0.02456
3431.20390,0.02470
3429.27517,0.02472
3427.34644,0.02469
3425.41772,0.02480
3423.48899,0.02517
3421.56027,0.02544
3419.63154,0.02508
3417.70281,0.02446
3415.77409,0.02411
3413.84536,0.02402
3411.91664,0.02399
3409.98791,0.02392
3408.05918,0.02382
3406.13046,0.02377
3404.20173,0.02381
3402.27300,0.02387
3400.34428,0.02397
3398.41555,0.02417
3396.48683,0.02432
3394.55810,0.02443
3392.62937,0.02441
3390.70065,0.02405
3388.77192,0.02377
3386.84319,0.02390
3384.91447,0.02413
3382.98574,0.02413
3381.05702,0.02398
3379.12829,0.02388
3377.19956,0.02379
3375.27084,0.02369
3373.34211,0.02367
3371.41339,0.02379
3369.48466,0.02405
3367.55593,0.02428
3365.62721,0.02436
3363.69848,0.02433
3361.76975,0.02427
3359.84103,0.02417
3357.91230,0.02409
3355.98358,0.02408
3354.05485,0.02400
3352.12612,0.02386
3350.19740,0.02375
3348.26867,0.02372
3346.33994,0.02377
3344.41122,0.02387
3342.48249,0.02398
3340.55377,0.02410
3338.62504,0.02431
3336.69631,0.02451
3334.76759,0.02442
3332.83886,0.02419
3330.91014,0.02415
3328.98141,0.02428
3327.05268,0.02434
3325.12396,0.02422
3323.19523,0.02402
3321.26650,0.02390
3319.33778,0.02390
3317.40905,0.02397
3315.48033,0.02415
3313.55160,0.02437
3311.62287,0.02450
3309.69415,0.02451
3307.76542,0.02441
3305.83669,0.02426
3303.90797,0.02420
3301.97924,0.02427
3300.05052,0.02438
3298.12179,0.02440
3296.19306,0.02429
3294.26434,0.02427
3292.33561,0.02440
3290.40689,0.02449
3288.47816,0.02446
3286.54943,0.02441
3284.62071,0.02444
3282.69198,0.02445
3280.76325,0.02437
3278.83453,0.02436
3276.90580,0.02447
3274.97708,0.02456
3273.04835,0.02452
3271.11962,0.02438
3269.19090,0.02434
3267.26217,0.02438
3265.33344,0.02439
3263.40472,0.02431
3261.47599,0.02422
3259.54727,0.02422
3257.61854,0.02434
3255.68981,0.02447
3253.76109,0.02442
3251.83236,0.02422
3249.90364,0.02415
3247.97491,0.02432
3246.04618,0.02450
3244.11746,0.02444
3242.18873,0.02428
3240.26000,0.02424
3238.33128,0.02428
3236.40255,0.02431
3234.47383,0.02433
3232.54510,0.02436
3230.61637,0.02443
3228.68765,0.02441
3226.75892,0.02425
3224.83019,0.02409
3222.90147,0.02412
3220.97274,0.02430
3219.04402,0.02437
3217.11529,0.02426
3215.18656,0.02418
3213.25784,0.02417
3211.32911,0.02421
3209.40039,0.02427
3207.47166,0.02427
3205.54293,0.02428
3203.61421,0.02433
3201.68548,0.02440
3199.75675,0.02451
3197.82803,0.02452
3195.89930,0.02439
3193.97058,0.02425
3192.04185,0.02420
3190.11312,0.02420
3188.18440,0.02426
3186.25567,0.02436
3184.32694,0.02439
3182.39822,0.02438
3180.46949,0.02447
3178.54077,0.02456
3176.61204,0.02452
3174.68331,0.02441
3172.75459,0.02435
3170.82586,0.02436
3168.89714,0.02436
3166.96841,0.02432
3165.03968,0.02426
3163.11096,0.02421
3161.18223,0.02417
3159.25350,0.02416
3157.32478,0.02420
3155.39605,0.02424
3153.46733,0.02427
3151.53860,0.02431
3149.60987,0.02433
3147.68115,0.02429
3145.75242,0.02428
3143.82369,0.02429
3141.89497,0.02427
3139.96624,0.02424
3138.03752,0.02429
3136.10879,0.02440
3134.18006,0.02452
3132.25134,0.02456
3130.32261,0.02457
3128.39389,0.02465
3126.46516,0.02475
3124.53643,0.02483
3122.60771,0.02493
3120.67898,0.02505
3118.75025,0.02513
3116.82153,0.02511
3114.89280,0.02498
3112.96408,0.02488
3111.03535,0.02490
3109.10662,0.02491
3107.17790,0.02489
3105.24917,0.02498
3103.32044,0.02516
3101.39172,0.02523
3099.46299,0.02516
3097.53427,0.02509
3095.60554,0.02500
3093.67681,0.02488
3091.74809,0.02481
3089.81936,0.02483
3087.89063,0.02483
3085.96191,0.02489
3084.03318,0.02511
3082.10446,0.02539
3080.17573,0.02548
3078.24700,0.02533
3076.31828,0.02515
3074.38955,0.02514
3072.46083,0.02525
3070.53210,0.02538
3068.60337,0.02553
3066.67465,0.02567
3064.74592,0.02567
3062.81719,0.02556
3060.88847,0.02552
3058.95974,0.02564
3057.03102,0.02578
3055.10229,0.02577
3053.17356,0.02564
3051.24484,0.02557
3049.31611,0.02551
3047.38738,0.02534
3045.45866,0.02512
3043.52993,0.02500
3041.60121,0.02494
3039.67248,0.02489
3037.74375,0.02488
3035.81503,0.02504
3033.88630,0.02529
3031.95758,0.02537
3030.02885,0.02518
3028.10012,0.02496
3026.17140,0.02492
3024.24267,0.02497
3022.31394,0.02502
3020.38522,0.02504
3018.45649,0.02511
3016.52777,0.02535
3014.59904,0.02572
3012.67031,0.02602
3010.74159,0.02613
3008.81286,0.02611
3006.88413,0.02615
3004.95541,0.02621
3003.02668,0.02622
3001.09796,0.02620
2999.16923,0.02624
2997.24050,0.02634
2995.31178,0.02645
2993.38305,0.02648
2991.45433,0.02649
2989.52560,0.02661
2987.59687,0.02680
2985.66815,0.02698
2983.73942,0.02722
2981.81069,0.02758
2979.88197,0.02792
2977.95324,0.02824
2976.02452,0.02866
2974.09579,0.02918
2972.16706,0.02963
2970.23834,0.02990
2968.30961,0.03001
2966.38088,0.02999
2964.45216,0.02991
2962.52343,0.02980
2960.59471,0.02967
2958.66598,0.02954
2956.73725,0.02941
2954.80853,0.02922
2952.87980,0.02897
2950.95108,0.02872
2949.02235,0.02848
2947.09362,0.02827
2945.16490,0.02807
2943.23617,0.02787
2941.30744,0.02770
2939.37872,0.02756
2937.44999,0.02751
2935.52127,0.02754
2933.59254,0.02760
2931.66381,0.02766
2929.73509,0.02771
2927.80636,0.02780
2925.87763,0.02791
2923.94891,0.02801
2922.02018,0.02811
2920.09146,0.02824
2918.16273,0.02836
2916.23400,0.02848
2914.30528,0.02860
2912.37655,0.02871
2910.44783,0.02881
2908.51910,0.02889
2906.59037,0.02886
2904.66165,0.02871
2902.73292,0.02849
2900.80419,0.02827
2898.87547,0.02805
2896.94674,0.02787
2895.01802,0.02778
2893.08929,0.02773
2891.16056,0.02769
2889.23184,0.02762
2887.30311,0.02753
2885.37438,0.02744
2883.44566,0.02736
2881.51693,0.02730
2879.58821,0.02728
2877.65948,0.02727
2875.73075,0.02723
2873.80203,0.02720
2871.87330,0.02721
2869.94458,0.02723
2868.01585,0.02723
2866.08712,0.02720
2864.15840,0.02719
2862.22967,0.02721
2860.30094,0.02727
2858.37222,0.02739
2856.44349,0.02751
2854.51477,0.02758
2852.58604,0.02759
2850.65731,0.02753
2848.72859,0.02738
2846.79986,0.02716
2844.87113,0.02693
2842.94241,0.02673
2841.01368,0.02658
2839.08496,0.02648
2837.15623,0.02640
2835.22750,0.02630
2833.29878,0.02622
2831.37005,0.02619
2829.44133,0.02619
2827.51260,0.02613
2825.58387,0.02603
2823.65515,0.02595
2821.72642,0.02587
2819.79769,0.02582
2817.86897,0.02584
2815.94024,0.02588
2814.01152,0.02592
2812.08279,0.02592
2810.15406,0.02589
2808.22534,0.02586
2806.29661,0.02584
2804.36788,0.02578
2802.43916,0.02574
2800.51043,0.02579
2798.58171,0.02584
2796.65298,0.02583
2794.72425,0.02581
2792.79553,0.02580
2790.86680,0.02579
2788.93808,0.02574
2787.00935,0.02571
2785.08062,0.02571
2783.15190,0.02574
2781.22317,0.02575
2779.29444,0.02570
2777.36572,0.02562
2775.43699,0.02559
2773.50827,0.02561
2771.57954,0.02559
2769.65081,0.02555
2767.72209,0.02554
2765.79336,0.02553
2763.86463,0.02551
2761.93591,0.02549
2760.00718,0.02548
2758.07846,0.02547
2756.14973,0.02549
2754.22100,0.02551
2752.29228,0.02550
2750.36355,0.02550
2748.43483,0.02552
2746.50610,0.02552
2744.57737,0.02550
2742.64865,0.02546
2740.71992,0.02542
2738.79119,0.02542
2736.86247,0.02543
2734.93374,0.02542
2733.00502,0.02538
2731.07629,0.02538
2729.14756,0.02539
2727.21884,0.02535
2725.29011,0.02531
2723.36138,0.02530
2721.43266,0.02533
2719.50393,0.02532
2717.57521,0.02527
2715.64648,0.02527
2713.71775,0.02529
2711.78903,0.02531
2709.86030,0.02529
2707.93157,0.02526
2706.00285,0.02525
2704.07412,0.02525
2702.14540,0.02524
2700.21667,0.02525
2698.28794,0.02525
2696.35922,0.02522
2694.43049,0.02516
2692.50177,0.02513
2690.57304,0.02514
2688.64431,0.02517
2686.71559,0.02521
2684.78686,0.02519
2682.85813,0.02513
2680.92941,0.02511
2679.00068,0.02513
2677.07196,0.02515
2675.14323,0.02514
2673.21450,0.02511
2671.28578,0.02512
2669.35705,0.02518
2667.42832,0.02522
2665.49960,0.02520
2663.57087,0.02515
2661.64215,0.02510
2659.71342,0.02509
2657.78469,0.02508
2655.85597,0.02504
2653.92724,0.02498
2651.99852,0.02491
2650.06979,0.02484
2648.14106,0.02476
2646.21234,0.02467
2644.28361,0.02457
2642.35488,0.02448
2640.42616,0.02443
2638.49743,0.02443
2636.56871,0.02443
2634.63998,0.02440
2632.71125,0.02438
2630.78253,0.02437
2628.85380,0.02435
2626.92507,0.02432
2624.99635,0.02430
2623.06762,0.02424
2621.13890,0.02414
2619.21017,0.02403
2617.28144,0.02394
2615.35272,0.02386
2613.42399,0.02380
2611.49527,0.02378
2609.56654,0.02381
2607.63781,0.02382
2605.70909,0.02380
2603.78036,0.02379
2601.85163,0.02380
2599.92291,0.02380
2597.99418,0.02382
2596.06546,0.02383
2594.13673,0.02381
2592.20800,0.02374
2590.27928,0.02368
2588.35055,0.02366
2586.42182,0.02370
2584.49310,0.02374
2582.56437,0.02375
2580.63565,0.02372
2578.70692,0.02368
2576.77819,0.02364
2574.84947,0.02363
2572.92074,0.02364
2570.99202,0.02359
2569.06329,0.02352
2567.13456,0.02348
2565.20584,0.02345
2563.27711,0.02340
2561.34838,0.02334
2559.41966,0.02331
2557.49093,0.02329
2555.56221,0.02334
2553.63348,0.02342
2551.70475,0.02342
2549.77603,0.02332
2547.84730,0.02327
2545.91857,0.02334
2543.98985,0.02337
2542.06112,0.02333
2540.13240,0.02332
2538.20367,0.02335
2536.27494,0.02335
2534.34622,0.02331
2532.41749,0.02331
2530.48877,0.02330
2528.56004,0.02324
2526.63131,0.02319
2524.70259,0.02317
2522.77386,0.02318
2520.84513,0.02316
2518.91641,0.02314
2516.98768,0.02310
2515.05896,0.02302
2513.13023,0.02294
2511.20150,0.02298
2509.27278,0.02309
2507.34405,0.02314
2505.41532,0.02313
2503.48660,0.02313
2501.55787,0.02309
2499.62915,0.02300
2497.70042,0.02298
2495.77169,0.02300
2493.84297,0.02299
2491.91424,0.02294
2489.98552,0.02291
2488.05679,0.02290
2486.12806,0.02285
2484.19934,0.02278
2482.27061,0.02275
2480.34188,0.02273
2478.41316,0.02268
2476.48443,0.02269
2474.55571,0.02275
2472.62698,0.02284
2470.69825,0.02291
2468.76953,0.02295
2466.84080,0.02295
2464.91207,0.02292
2462.98335,0.02286
2461.05462,0.02279
2459.12590,0.02273
2457.19717,0.02268
2455.26844,0.02264
2453.33972,0.02261
2451.41099,0.02259
2449.48227,0.02258
2447.55354,0.02260
2445.62481,0.02262
2443.69609,0.02263
2441.76736,0.02262
2439.83863,0.02267
2437.90991,0.02278
2435.98118,0.02287
2434.05246,0.02291
2432.12373,0.02293
2430.19500,0.02298
2428.26628,0.02298
2426.33755,0.02290
2424.40882,0.02286
2422.48010,0.02288
2420.55137,0.02292
2418.62265,0.02297
2416.69392,0.02298
2414.76519,0.02296
2412.83647,0.02299
2410.90774,0.02304
2408.97902,0.02307
2407.05029,0.02310
2405.12156,0.02315
2403.19284,0.02318
2401.26411,0.02320
2399.33538,0.02321
2397.40666,0.02321
2395.47793,0.02321
2393.54921,0.02321
2391.62048,0.02324
2389.69175,0.02333
2387.76303,0.02345
2385.83430,0.02364
2383.90557,0.02388
2381.97685,0.02403
2380.04812,0.02396
2378.11940,0.02366
2376.19067,0.02316
2374.26194,0.02253
2372.33322,0.02173
2370.40449,0.02064
2368.47576,0.01934
2366.54704,0.01817
2364.61831,0.01737
2362.68959,0.01702
2360.76086,0.01703
2358.83213,0.01737
2356.90341,0.01812
2354.97468,0.01922
2353.04596,0.02062
2351.11723,0.02177
2349.18850,0.02206
2347.25978,0.02141
2345.33105,0.02016
2343.40232,0.01907
2341.47360,0.01856
2339.54487,0.01848
2337.61615,0.01855
2335.68742,0.01870
2333.75869,0.01913
2331.82997,0.01976
2329.90124,0.02025
2327.97251,0.02074
2326.04379,0.02136
2324.11506,0.02188
2322.18634,0.02225
2320.25761,0.02256
2318.32888,0.02284
2316.40016,0.02305
2314.47143,0.02326
2312.54271,0.02352
2310.61398,0.02378
2308.68525,0.02385
2306.75653,0.02375
2304.82780,0.02357
2302.89907,0.02334
2300.97035,0.02316
2299.04162,0.02306
2297.11290,0.02300
2295.18417,0.02292
2293.25544,0.02287
2291.32672,0.02287
2289.39799,0.02289
2287.46926,0.02288
2285.54054,0.02285
2283.61181,0.02273
2281.68309,0.02249
2279.75436,0.02228
2277.82563,0.02222
2275.89691,0.02219
2273.96818,0.02206
2272.03946,0.02190
2270.11073,0.02183
2268.18200,0.02193
2266.25328,0.02201
2264.32455,0.02194
2262.39582,0.02184
2260.46710,0.02181
2258.53837,0.02181
2256.60965,0.02178
2254.68092,0.02179
2252.75219,0.02184
2250.82347,0.02183
2248.89474,0.02180
2246.96601,0.02182
2245.03729,0.02183
2243.10856,0.02168
2241.17984,0.02137
2239.25111,0.02113
2237.32238,0.02107
2235.39366,0.02118
2233.46493,0.02130
2231.53621,0.02132
2229.60748,0.02125
2227.67875,0.02118
2225.75003,0.02112
2223.82130,0.02096
2221.89257,0.02072
2219.96385,0.02060
2218.03512,0.02066
2216.10640,0.02067
2214.17767,0.02052
2212.24894,0.02032
2210.32022,0.02018
2208.39149,0.02018
2206.46276,0.02019
2204.53404,0.02012
2202.60531,0.02008
2200.67659,0.02000
2198.74786,0.01978
2196.81913,0.01960
2194.89041,0.01960
2192.96168,0.01955
2191.03296,0.01941
2189.10423,0.01937
2187.17550,0.01930
2185.24678,0.01898
2183.31805,0.01864
2181.38932,0.01848
2179.46060,0.01852
2177.53187,0.01878
2175.60315,0.01909
2173.67442,0.01916
2171.74569,0.01901
2169.81697,0.01892
2167.88824,0.01881
2165.95951,0.01860
2164.03079,0.01853
2162.10206,0.01847
2160.17334,0.01815
2158.24461,0.01810
2156.31588,0.01866
2154.38716,0.01929
2152.45843,0.01965
2150.52971,0.01982
2148.60098,0.01985
2146.67225,0.01989
2144.74353,0.02003
2142.81480,0.02013
2140.88607,0.02012
2138.95735,0.02010
2137.02862,0.02007
2135.09990,0.01998
2133.17117,0.01993
2131.24244,0.01998
2129.31372,0.02010
2127.38499,0.02021
2125.45626,0.02021
2123.52754,0.02017
2121.59881,0.02014
2119.67009,0.02016
2117.74136,0.02025
2115.81263,0.02035
2113.88391,0.02036
2111.95518,0.02027
2110.02646,0.02014
2108.09773,0.02009
2106.16900,0.02017
2104.24028,0.02029
2102.31155,0.02038
2100.38282,0.02041
2098.45410,0.02040
2096.52537,0.02038
2094.59665,0.02042
2092.66792,0.02051
2090.73919,0.02059
2088.81047,0.02059
2086.88174,0.02052
2084.95301,0.02043
2083.02429,0.02038
2081.09556,0.02033
2079.16684,0.02027
2077.23811,0.02020
2075.30938,0.02011
2073.38066,0.02006
2071.45193,0.02011
2069.52321,0.02023
2067.59448,0.02048
2065.66575,0.02071
2063.73703,0.02060
2061.80830,0.02036
2059.87957,0.02019
2057.95085,0.01998
2056.02212,0.01980
2054.09340,0.01972
2052.16467,0.01961
2050.23594,0.01930
2048.30722,0.01890
2046.37849,0.01881
2044.44976,0.01920
2042.52104,0.01964
2040.59231,0.01958
2038.66359,0.01919
2036.73486,0.01892
2034.80613,0.01877
2032.87741,0.01855
2030.94868,0.01841
2029.01996,0.01846
2027.09123,0.01860
2025.16250,0.01884
2023.23378,0.01903
2021.30505,0.01922
2019.37632,0.01963
2017.44760,0.01994
2015.51887,0.01976
2013.59015,0.01933
2011.66142,0.01912
2009.73269,0.01917
2007.80397,0.01914
2005.87524,0.01892
2003.94651,0.01884
2002.01779,0.01908
2000.08906,0.01932
1998.16034,0.01925
1996.23161,0.01935
1994.30288,0.02017
1992.37416,0.02108
1990.44543,0.02104
1988.51670,0.02046
1986.58798,0.02001
1984.65925,0.01978
1982.73053,0.01967
1980.80180,0.01951
1978.87307,0.01921
1976.94435,0.01895
1975.01562,0.01896
1973.08690,0.01926
1971.15817,0.01976
1969.22944,0.02040
1967.30072,0.02083
1965.37199,0.02058
1963.44326,0.02015
1961.51454,0.02019
1959.58581,0.02048
1957.65709,0.02070
1955.72836,0.02082
1953.79963,0.02069
1951.87091,0.02033
1949.94218,0.02011
1948.01345,0.02039
1946.08473,0.02097
1944.15600,0.02141
1942.22728,0.02121
1940.29855,0.02041
1938.36982,0.01983
1936.44110,0.01973
1934.51237,0.01971
1932.58365,0.01944
1930.65492,0.01908
1928.72619,0.01895
1926.79747,0.01930
1924.86874,0.02029
1922.94001,0.02109
1921.01129,0.02085
1919.08256,0.02037
1917.15384,0.01991
1915.22511,0.01930
1913.29638,0.01912
1911.36766,0.01965
1909.43893,0.02014
1907.51020,0.01979
1905.58148,0.01909
1903.65275,0.01867
1901.72403,0.01856
1899.79530,0.01863
1897.86657,0.01894
1895.93785,0.01929
1894.00912,0.01926
1892.08040,0.01920
1890.15167,0.01927
1888.22294,0.01894
1886.29422,0.01850
1884.36549,0.01826
1882.43676,0.01800
1880.50804,0.01784
1878.57931,0.01785
1876.65059,0.01788
1874.72186,0.01802
1872.79313,0.01868
1870.86441,0.02020
1868.93568,0.02154
1867.00695,0.02063
1865.07823,0.01906
1863.14950,0.01834
1861.22078,0.01827
1859.29205,0.01821
1857.36332,0.01795
1855.43460,0.01770
1853.50587,0.01761
1851.57715,0.01785
1849.64842,0.01869
1847.71969,0.02013
1845.79097,0.02154
1843.86224,0.02145
1841.93351,0.01990
1840.00479,0.01892
1838.07606,0.01881
1836.14734,0.01886
1834.21861,0.01890
1832.28988,0.01944
1830.36116,0.02038
1828.43243,0.02060
1826.50370,0.02042
1824.57498,0.02015
1822.64625,0.01938
1820.71753,0.01866
1818.78880,0.01842
1816.86007,0.01837
1814.93135,0.01851
1813.00262,0.01916
1811.07390,0.01975
1809.14517,0.01949
1807.21644,0.01888
1805.28772,0.01874
1803.35899,0.01948
1801.43026,0.02035
1799.50154,0.02034
1797.57281,0.02024
1795.64409,0.02063
1793.71536,0.02125
1791.78663,0.02088
1789.85791,0.01915
1787.92918,0.01794
1786.00045,0.01777
1784.07173,0.01801
1782.14300,0.01829
1780.21428,0.01839
1778.28555,0.01811
1776.35682,0.01818
1774.42810,0.01912
1772.49937,0.02030
1770.57065,0.01992
1768.64192,0.01862
1766.71319,0.01742
1764.78447,0.01703
1762.85574,0.01766
1760.92701,0.01833
1758.99829,0.01854
1757.06956,0.01863
1755.14084,0.01877
1753.21211,0.01997
1751.28338,0.02334
1749.35466,0.02833
1747.42593,0.03189
1745.49720,0.03525
1743.56848,0.04005
1741.63975,0.04692
1739.71103,0.05667
1737.78230,0.06581
1735.85357,0.07500
1733.92485,0.09311
1731.99612,0.11122
1730.06740,0.12219
1728.13867,0.13296
1726.20994,0.14460
1724.28122,0.15903
1722.35249,0.17427
1720.42376,0.18691
1718.49504,0.20340
1716.56631,0.22890
1714.63759,0.23453
1712.70886,0.22655
1710.78013,0.21448
1708.85141,0.20010
1706.92268,0.18199
1704.99395,0.15949
1703.06523,0.14271
1701.13650,0.12931
1699.20778,0.11358
1697.27905,0.09959
1695.35032,0.08693
1693.42160,0.07968
1691.49287,0.07610
1689.56415,0.07365
1687.63542,0.07190
1685.70669,0.07075
1683.77797,0.06907
1681.84924,0.06591
1679.92051,0.06247
1677.99179,0.05958
1676.06306,0.05764
1674.13434,0.05619
1672.20561,0.05532
1670.27688,0.05379
1668.34816,0.05014
1666.41943,0.04757
1664.49070,0.04647
1662.56198,0.04547
1660.63325,0.04381
1658.70453,0.04290
1656.77580,0.04320
1654.84707,0.04436
1652.91835,0.04472
1650.98962,0.04377
1649.06090,0.04402
1647.13217,0.04367
1645.20344,0.04089
1643.27472,0.03897
1641.34599,0.03833
1639.41726,0.03871
1637.48854,0.03977
1635.55981,0.03906
1633.63109,0.03663
1631.70236,0.03545
1629.77363,0.03523
1627.84491,0.03553
1625.91618,0.03596
1623.98745,0.03630
1622.05873,0.03596
1620.13000,0.03546
1618.20128,0.03571
1616.27255,0.03575
1614.34382,0.03466
1612.41510,0.03387
1610.48637,0.03365
1608.55764,0.03338
1606.62892,0.03264
1604.70019,0.03198
1602.77147,0.03147
1600.84274,0.03066
1598.91401,0.02994
1596.98529,0.02984
1595.05656,0.02991
1593.12784,0.02971
1591.19911,0.02945
1589.27038,0.02918
1587.34166,0.02900
1585.41293,0.02933
1583.48420,0.03026
1581.55548,0.03156
1579.62675,0.03319
1577.69803,0.03505
1575.76930,0.03512
1573.84057,0.03343
1571.91185,0.03263
1569.98312,0.03228
1568.05439,0.03151
1566.12567,0.03094
1564.19694,0.03098
1562.26822,0.03149
1560.33949,0.03305
1558.41076,0.03603
1556.48204,0.03558
1554.55331,0.03386
1552.62459,0.03264
1550.69586,0.03208
1548.76713,0.03175
1546.83841,0.03242
1544.90968,0.03535
1542.98095,0.04012
1541.05223,0.04043
1539.12350,0.03482
1537.19478,0.03310
1535.26605,0.03324
1533.33732,0.03303
1531.40860,0.03191
1529.47987,0.03195
1527.55114,0.03372
1525.62242,0.03591
1523.69369,0.03727
1521.76497,0.03725
1519.83624,0.03560
1517.90751,0.03461
1515.97879,0.03365
1514.05006,0.03293
1512.12134,0.03393
1510.19261,0.03715
1508.26388,0.04325
1506.33516,0.04617
1504.40643,0.04274
1502.47770,0.03973
1500.54898,0.03711
1498.62025,0.03458
1496.69153,0.03123
1494.76280,0.02847
1492.83407,0.02800
1490.90535,0.02982
1488.97662,0.03158
1487.04789,0.02977
1485.11917,0.02804
1483.19044,0.02787
1481.26172,0.02874
1479.33299,0.02999
1477.40426,0.03216
1475.47554,0.03612
1473.54681,0.04028
1471.61809,0.03951
1469.68936,0.03669
1467.76063,0.03504
1465.83191,0.03431
1463.90318,0.03376
1461.97445,0.03371
1460.04573,0.03516
1458.11700,0.03915
1456.18828,0.04037
1454.25955,0.03745
1452.33082,0.03553
1450.40210,0.03470
1448.47337,0.03434
1446.54464,0.03332
1444.61592,0.03198
1442.68719,0.03119
1440.75847,0.03112
1438.82974,0.03182
1436.90101,0.03252
1434.97229,0.03144
1433.04356,0.02991
1431.11484,0.02882
1429.18611,0.02763
1427.25738,0.02672
1425.32866,0.02677
1423.39993,0.02758
1421.47120,0.02912
1419.54248,0.03316
1417.61375,0.03938
1415.68503,0.04511
1413.75630,0.05259
1411.82757,0.06189
1409.89885,0.06844
1407.97012,0.06909
1406.04139,0.06451
1404.11267,0.05663
1402.18394,0.05031
1400.25522,0.04679
1398.32649,0.04451
1396.39776,0.04231
1394.46904,0.03933
1392.54031,0.03689
1390.61159,0.03629
1388.68286,0.03715
1386.75413,0.03758
1384.82541,0.03648
1382.89668,0.03547
1380.96795,0.03519
1379.03923,0.03531
1377.11050,0.03581
1375.18178,0.03671
1373.25305,0.03683
1371.32432,0.03604
1369.39560,0.03513
1367.46687,0.03396
1365.53814,0.03308
1363.60942,0.03271
1361.68069,0.03135
1359.75197,0.02925
1357.82324,0.02817
1355.89451,0.02827
1353.96579,0.02913
1352.03706,0.03102
1350.10834,0.03492
1348.17961,0.04170
1346.25088,0.05181
1344.32216,0.06454
1342.39343,0.07761
1340.46470,0.08749
1338.53598,0.08627
1336.60725,0.07420
1334.67853,0.06041
1332.74980,0.04869
1330.82107,0.04006
1328.89235,0.03455
1326.96362,0.03154
1325.03489,0.03029
1323.10617,0.03026
1321.17744,0.03114
1319.24872,0.03238
1317.31999,0.03323
1315.39126,0.03401
1313.46254,0.03507
1311.53381,0.03610
1309.60509,0.03733
1307.67636,0.03904
1305.74763,0.04111
1303.81891,0.04368
1301.89018,0.04703
1299.96145,0.05124
1298.03273,0.05625
1296.10400,0.06164
1294.17528,0.06707
1292.24655,0.07260
1290.31782,0.07840
1288.38910,0.08428
1286.46037,0.08995
1284.53164,0.09565
1282.60292,0.10200
1280.67419,0.10902
1278.74547,0.11644
1276.81674,0.12423
1274.88801,0.13257
1272.95929,0.14180
1271.03056,0.15194
1269.10183,0.16238
1267.17311,0.17268
1265.24438,0.18260
1263.31566,0.19172
1261.38693,0.19989
1259.45820,0.20703
1257.52948,0.21336
1255.60075,0.22000
1253.67203,0.22796
1251.74330,0.23732
1249.81457,0.24741
1247.88585,0.25730
1245.95712,0.26592
1244.02839,0.27197
1242.09967,0.27400
1240.17094,0.27091
1238.24222,0.26220
1236.31349,0.24829
1234.38476,0.23073
1232.45604,0.21162
1230.52731,0.19307
1228.59858,0.17675
1226.66986,0.16324
1224.74113,0.15197
1222.81241,0.14203
1220.88368,0.13261
1218.95495,0.12342
1217.02623,0.11484
1215.09750,0.10736
1213.16878,0.10093
1211.24005,0.09522
1209.31132,0.09009
1207.38260,0.08536
1205.45387,0.08079
1203.52514,0.07637
1201.59642,0.07219
1199.66769,0.06827
1197.73897,0.06463
1195.81024,0.06128
1193.88151,0.05830
1191.95279,0.05577
1190.02406,0.05378
1188.09533,0.05227
1186.16661,0.05117
1184.23788,0.05049
1182.30916,0.05032
1180.38043,0.05058
1178.45170,0.05102
1176.52298,0.05128
1174.59425,0.05102
1172.66553,0.05010
1170.73680,0.04862
1168.80807,0.04694
1166.87935,0.04553
1164.95062,0.04469
1163.02189,0.04441
1161.09317,0.04452
1159.16444,0.04491
1157.23572,0.04550
1155.30699,0.04630
1153.37826,0.04738
1151.44954,0.04887
1149.52081,0.05088
1147.59208,0.05361
1145.66336,0.05730
1143.73463,0.06207
1141.80591,0.06808
1139.87718,0.07569
1137.94845,0.08532
1136.01973,0.09715
1134.09100,0.11095
1132.16228,0.12603
1130.23355,0.14137
1128.30482,0.15580
1126.37610,0.16835
1124.44737,0.17848
1122.51864,0.18576
1120.58992,0.18979
1118.66119,0.19047
1116.73247,0.18881
1114.80374,0.18725
1112.87501,0.18807
1110.94629,0.19178
1109.01756,0.19762
1107.08883,0.20501
1105.16011,0.21332
1103.23138,0.22152
1101.30266,0.22858
1099.37393,0.23351
1097.44520,0.23555
1095.51648,0.23439
1093.58775,0.23034
1091.65903,0.22402
1089.73030,0.21625
1087.80157,0.20768
1085.87285,0.19852
1083.94412,0.18856
1082.01539,0.17758
1080.08667,0.16571
1078.15794,0.15356
1076.22922,0.14197
1074.30049,0.13157
1072.37176,0.12260
1070.44304,0.11498
1068.51431,0.10842
1066.58558,0.10269
1064.65686,0.09766
1062.72813,0.09320
1060.79941,0.08940
1058.87068,0.08637
1056.94195,0.08405
1055.01323,0.08232
1053.08450,0.08118
1051.15578,0.08053
1049.22705,0.08023
1047.29832,0.08006
1045.36960,0.07974
1043.44087,0.07900
1041.51214,0.07769
1039.58342,0.07580
1037.65469,0.07355
1035.72597,0.07119
1033.79724,0.06899
1031.86851,0.06752
1029.93979,0.06837
1028.01106,0.07485
1026.08233,0.09012
1024.15361,0.11215
1022.22488,0.13378
1020.29616,0.14979
1018.36743,0.15786
1016.43870,0.15459
1014.50998,0.14003
1012.58125,0.12114
1010.65253,0.10490
1008.72380,0.09329
1006.79507,0.08513
1004.86635,0.07912
1002.93762,0.07465
1001.00889,0.07127
999.08017,0.06859
997.15144,0.06646
995.22272,0.06486
993.29399,0.06380
991.36526,0.06323
989.43654,0.06280
987.50781,0.06217
985.57908,0.06158
983.65036,0.06152
981.72163,0.06231
979.79291,0.06413
977.86418,0.06709
975.93545,0.07118
974.00673,0.07578
972.07800,0.07955
970.14928,0.08102
968.22055,0.07980
966.29182,0.07673
964.36310,0.07298
962.43437,0.06925
960.50564,0.06583
958.57692,0.06273
956.64819,0.05997
954.71947,0.05765
952.79074,0.05569
950.86201,0.05393
948.93329,0.05242
947.00456,0.05129
945.07583,0.05041
943.14711,0.04963
941.21838,0.04883
939.28966,0.04792
937.36093,0.04703
935.43220,0.04637
933.50348,0.04580
931.57475,0.04515
929.64603,0.04451
927.71730,0.04397
925.78857,0.04348
923.85985,0.04311
921.93112,0.04284
920.00239,0.04247
918.07367,0.04201
916.14494,0.04186
914.21622,0.04210
912.28749,0.04244
910.35876,0.04297
908.43004,0.04393
906.50131,0.04519
904.57258,0.04644
902.64386,0.04741
900.71513,0.04800
898.78641,0.04826
896.85768,0.04822
894.92895,0.04798
893.00023,0.04759
891.07150,0.04711
889.14277,0.04688
887.21405,0.04741
885.28532,0.04895
883.35660,0.05145
881.42787,0.05509
879.49914,0.06042
877.57042,0.06840
875.64169,0.08017
873.71297,0.09289
871.78424,0.09704
869.85551,0.08829
867.92679,0.07501
865.99806,0.06551
864.06933,0.06067
862.14061,0.05883
860.21188,0.05881
858.28316,0.05984
856.35443,0.06150
854.42570,0.06366
852.49698,0.06642
850.56825,0.06957
848.63952,0.07193
846.71080,0.07210
844.78207,0.06989
842.85335,0.06628
840.92462,0.06249
838.99589,0.05917
837.06717,0.05621
835.13844,0.05350
833.20972,0.05127
831.28099,0.04952
829.35226,0.04796
827.42354,0.04650
825.49481,0.04539
823.56608,0.04467
821.63736,0.04417
819.70863,0.04376
817.77991,0.04322
815.85118,0.04255
813.92245,0.04222
811.99373,0.04234
810.06500,0.04255
808.13627,0.04259
806.20755,0.04250
804.27882,0.04243
802.35010,0.04241
800.42137,0.04255
798.49264,0.04339
796.56392,0.04548
794.63519,0.04819
792.70647,0.04955
790.77774,0.04843
788.84901,0.04581
786.92029,0.04318
784.99156,0.04103
783.06283,0.03932
781.13411,0.03816
779.20538,0.03737
777.27666,0.03647
775.34793,0.03538
773.41920,0.03446
771.49048,0.03390
769.56175,0.03321
767.63302,0.03184
765.70430,0.03029
763.77557,0.02932
761.84685,0.02885
759.91812,0.02843
757.98939,0.02817
756.06067,0.02825
754.13194,0.02820
752.20322,0.02781
750.27449,0.02768
748.34576,0.02831
746.41704,0.02959
744.48831,0.03178
742.55958,0.03633
740.63086,0.04538
738.70213,0.06057
736.77341,0.08300
734.84468,0.11276
732.91595,0.14822
730.98723,0.18776
729.05850,0.23040
727.12977,0.27138
725.20105,0.29773
723.27232,0.29513
721.34360,0.26270
719.41487,0.21623
717.48614,0.17394
715.55742,0.14265
713.62869,0.12120
711.69997,0.10671
709.77124,0.09649
707.84251,0.08880
705.91379,0.08279
703.98506,0.07782
702.05633,0.07312
700.12761,0.06830
698.19888,0.06357
696.27016,0.05950
694.34143,0.05641
692.41270,0.05413
690.48398,0.05250
688.55525,0.05124
686.62652,0.05014
684.69780,0.04941
682.76907,0.04918
680.84035,0.04910
678.91162,0.04868
676.98289,0.04791
675.05417,0.04724
673.12544,0.04676
671.19672,0.04622
669.26799,0.04502
667.33926,0.04336
665.41054,0.04274
663.48181,0.04261
661.55308,0.04256
659.62436,0.04237
657.69563,0.04167
655.76691,0.04080
653.83818,0.04022
651.90945,0.03985
649.98073,0.03946
648.05200,0.03898
646.12327,0.03866
644.19455,0.03863
642.26582,0.03873
640.33710,0.03885
638.40837,0.03903
636.47964,0.03956
634.55092,0.04049
632.62219,0.04109
630.69347,0.04059
628.76474,0.03923
626.83601,0.03791
624.90729,0.03734
622.97856,0.03698
621.04983,0.03560
619.12111,0.03477
617.19238,0.03647
615.26366,0.03874
613.33493,0.03943
611.40620,0.03903
609.47748,0.03722
607.54875,0.03424
605.62002,0.03352
603.69130,0.03547
601.76257,0.03733
599.83385,0.03802
