7497.03301,0.11431
7495.10426,0.11387
7493.17552,0.11232
7491.24677,0.11422
7489.31803,0.11546
7487.38928,0.11486
7485.46054,0.11686
7483.53179,0.12141
7481.60305,0.12407
7479.67430,0.12343
7477.74556,0.12086
7475.81681,0.11798
7473.88807,0.11597
7471.95932,0.11555
7470.03057,0.11638
7468.10183,0.11761
7466.17308,0.11915
7464.24434,0.12076
7462.31559,0.12097
7460.38685,0.11851
7458.45810,0.11517
7456.52936,0.11387
7454.60061,0.11402
7452.67187,0.11481
7450.74312,0.11756
7448.81438,0.12002
7446.88563,0.11824
7444.95689,0.11547
7443.02814,0.11560
7441.09940,0.11733
7439.17065,0.11838
7437.24190,0.11635
7435.31316,0.11340
7433.38441,0.11486
7431.45567,0.11828
7429.52692,0.11807
7427.59818,0.11448
7425.66943,0.11176
7423.74069,0.11304
7421.81194,0.11717
7419.88320,0.11993
7417.95445,0.11953
7416.02571,0.11761
7414.09696,0.11668
7412.16822,0.11820
7410.23947,0.12022
7408.31073,0.11871
7406.38198,0.11582
7404.45323,0.11634
7402.52449,0.11852
7400.59574,0.11858
7398.66700,0.11776
7396.73825,0.11858
7394.80951,0.11915
7392.88076,0.11616
7390.95202,0.11070
7389.02327,0.10678
7387.09453,0.10608
7385.16578,0.10685
7383.23704,0.10875
7381.30829,0.11272
7379.37955,0.11702
7377.45080,0.11903
7375.52205,0.11860
7373.59331,0.11795
7371.66456,0.11809
7369.73582,0.11752
7367.80707,0.11709
7365.87833,0.11849
7363.94958,0.11954
7362.02084,0.11995
7360.09209,0.12388
7358.16335,0.12817
7356.23460,0.12502
7354.30586,0.11743
7352.37711,0.11401
7350.44837,0.11518
7348.51962,0.11634
7346.59088,0.11577
7344.66213,0.11429
7342.73338,0.11269
7340.80464,0.11227
7338.87589,0.11345
7336.94715,0.11575
7335.01840,0.11760
7333.08966,0.11710
7331.16091,0.11580
7329.23217,0.11663
7327.30342,0.11738
7325.37468,0.11607
7323.44593,0.11557
7321.51719,0.11714
7319.58844,0.11915
7317.65970,0.11982
7315.73095,0.11806
7313.80221,0.11670
7311.87346,0.11693
7309.94471,0.11524
7308.01597,0.11350
7306.08722,0.11418
7304.15848,0.11310
7302.22973,0.11069
7300.30099,0.11212
7298.37224,0.11753
7296.44350,0.12297
7294.51475,0.12381
7292.58601,0.11858
7290.65726,0.11312
7288.72852,0.11322
7286.79977,0.11761
7284.87103,0.12044
7282.94228,0.11872
7281.01353,0.11662
7279.08479,0.11742
7277.15604,0.11808
7275.22730,0.11795
7273.29855,0.11797
7271.36981,0.11697
7269.44106,0.11747
7267.51232,0.12087
7265.58357,0.12263
7263.65483,0.12119
7261.72608,0.11901
7259.79734,0.11645
7257.86859,0.11366
7255.93985,0.11256
7254.01110,0.11338
7252.08236,0.11496
7250.15361,0.11534
7248.22486,0.11158
7246.29612,0.10617
7244.36737,0.10691
7242.43863,0.11442
7240.50988,0.11964
7238.58114,0.11746
7236.65239,0.11398
7234.72365,0.11557
7232.79490,0.11904
7230.86616,0.11856
7228.93741,0.11528
7227.00867,0.11457
7225.07992,0.11816
7223.15118,0.12348
7221.22243,0.12674
7219.29369,0.12532
7217.36494,0.12145
7215.43619,0.11960
7213.50745,0.11845
7211.57870,0.11453
7209.64996,0.11169
7207.72121,0.11278
7205.79247,0.11198
7203.86372,0.10880
7201.93498,0.10993
7200.00623,0.11433
7198.07749,0.11636
7196.14874,0.11584
7194.22000,0.11539
7192.29125,0.11463
7190.36251,0.11396
7188.43376,0.11642
7186.50501,0.11971
7184.57627,0.11794
7182.64752,0.11274
7180.71878,0.11091
7178.79003,0.11303
7176.86129,0.11404
7174.93254,0.11197
7173.00380,0.11002
7171.07505,0.11263
7169.14631,0.11851
7167.21756,0.12208
7165.28882,0.12083
7163.36007,0.11644
7161.43133,0.11355
7159.50258,0.11483
7157.57384,0.11792
7155.64509,0.11931
7153.71634,0.11624
7151.78760,0.11126
7149.85885,0.10958
7147.93011,0.10992
7146.00136,0.11075
7144.07262,0.11464
7142.14387,0.11921
7140.21513,0.11984
7138.28638,0.11751
7136.35764,0.11418
7134.42889,0.11114
7132.50015,0.11105
7130.57140,0.11304
7128.64266,0.11441
7126.71391,0.11544
7124.78516,0.11638
7122.85642,0.11779
7120.92767,0.12115
7118.99893,0.12358
7117.07018,0.12103
7115.14144,0.11636
7113.21269,0.11487
7111.28395,0.11584
7109.35520,0.11516
7107.42646,0.11310
7105.49771,0.11317
7103.56897,0.11445
7101.64022,0.11534
7099.71148,0.11761
7097.78273,0.11936
7095.85399,0.11738
7093.92524,0.11456
7091.99649,0.11396
7090.06775,0.11431
7088.13900,0.11496
7086.21026,0.11624
7084.28151,0.11723
7082.35277,0.11810
7080.42402,0.11870
7078.49528,0.11793
7076.56653,0.11614
7074.63779,0.11360
7072.70904,0.11048
7070.78030,0.10916
7068.85155,0.11136
7066.92281,0.11459
7064.99406,0.11529
7063.06532,0.11374
7061.13657,0.11324
7059.20782,0.11559
7057.27908,0.11838
7055.35033,0.11797
7053.42159,0.11532
7051.49284,0.11478
7049.56410,0.11691
7047.63535,0.11910
7045.70661,0.12085
7043.77786,0.12145
7041.84912,0.12000
7039.92037,0.11849
7037.99163,0.11771
7036.06288,0.11655
7034.13414,0.11599
7032.20539,0.11757
7030.27664,0.11951
7028.34790,0.11978
7026.41915,0.12019
7024.49041,0.12152
7022.56166,0.12202
7020.63292,0.12205
7018.70417,0.12150
7016.77543,0.11974
7014.84668,0.11673
7012.91794,0.11288
7010.98919,0.11103
7009.06045,0.11209
7007.13170,0.11376
7005.20296,0.11558
7003.27421,0.11667
7001.34547,0.11570
6999.41672,0.11349
6997.48797,0.11111
6995.55923,0.10977
6993.63048,0.11105
6991.70174,0.11440
6989.77299,0.11603
6987.84425,0.11414
6985.91550,0.11204
6983.98676,0.11166
6982.05801,0.11159
6980.12927,0.11184
6978.20052,0.11256
6976.27178,0.11279
6974.34303,0.11364
6972.41429,0.11530
6970.48554,0.11530
6968.55680,0.11436
6966.62805,0.11499
6964.69930,0.11662
6962.77056,0.11741
6960.84181,0.11617
6958.91307,0.11421
6956.98432,0.11424
6955.05558,0.11631
6953.12683,0.11829
6951.19809,0.11906
6949.26934,0.11896
6947.34060,0.11914
6945.41185,0.11953
6943.48311,0.11893
6941.55436,0.11862
6939.62562,0.12035
6937.69687,0.12067
6935.76812,0.11733
6933.83938,0.11484
6931.91063,0.11634
6929.98189,0.11858
6928.05314,0.11795
6926.12440,0.11521
6924.19565,0.11489
6922.26691,0.11926
6920.33816,0.12410
6918.40942,0.12452
6916.48067,0.12167
6914.55193,0.11969
6912.62318,0.11943
6910.69444,0.11906
6908.76569,0.11835
6906.83695,0.11731
6904.90820,0.11562
6902.97945,0.11456
6901.05071,0.11518
6899.12196,0.11612
6897.19322,0.11561
6895.26447,0.11389
6893.33573,0.11366
6891.40698,0.11565
6889.47824,0.11673
6887.54949,0.11560
6885.62075,0.11533
6883.69200,0.11746
6881.76326,0.11970
6879.83451,0.11901
6877.90577,0.11544
6875.97702,0.11332
6874.04828,0.11483
6872.11953,0.11693
6870.19078,0.11762
6868.26204,0.11719
6866.33329,0.11668
6864.40455,0.11760
6862.47580,0.11968
6860.54706,0.12070
6858.61831,0.11938
6856.68957,0.11768
6854.76082,0.11761
6852.83208,0.11718
6850.90333,0.11515
6848.97459,0.11441
6847.04584,0.11633
6845.11710,0.11947
6843.18835,0.12307
6841.25960,0.12543
6839.33086,0.12426
6837.40211,0.12099
6835.47337,0.11919
6833.54462,0.11858
6831.61588,0.11723
6829.68713,0.11634
6827.75839,0.11667
6825.82964,0.11687
6823.90090,0.11688
6821.97215,0.11756
6820.04341,0.11912
6818.11466,0.12068
6816.18592,0.12058
6814.25717,0.11779
6812.32843,0.11432
6810.39968,0.11316
6808.47093,0.11396
6806.54219,0.11570
6804.61344,0.11776
6802.68470,0.11785
6800.75595,0.11634
6798.82721,0.11568
6796.89846,0.11506
6794.96972,0.11474
6793.04097,0.11652
6791.11223,0.11801
6789.18348,0.11805
6787.25474,0.11895
6785.32599,0.12037
6783.39725,0.12092
6781.46850,0.12031
6779.53975,0.11905
6777.61101,0.11891
6775.68226,0.12048
6773.75352,0.12211
6771.82477,0.12226
6769.89603,0.12063
6767.96728,0.11798
6766.03854,0.11659
6764.10979,0.11700
6762.18105,0.11755
6760.25230,0.11880
6758.32356,0.12074
6756.39481,0.12161
6754.46607,0.12149
6752.53732,0.12009
6750.60858,0.11807
6748.67983,0.11752
6746.75108,0.11728
6744.82234,0.11550
6742.89359,0.11443
6740.96485,0.11594
6739.03610,0.11773
6737.10736,0.11797
6735.17861,0.11794
6733.24987,0.11875
6731.32112,0.11958
6729.39238,0.11881
6727.46363,0.11697
6725.53489,0.11652
6723.60614,0.11785
6721.67740,0.11941
6719.74865,0.12038
6717.81991,0.12087
6715.89116,0.12080
6713.96241,0.11992
6712.03367,0.11887
6710.10492,0.11867
6708.17618,0.12019
6706.24743,0.12172
6704.31869,0.12024
6702.38994,0.11730
6700.46120,0.11624
6698.53245,0.11765
6696.60371,0.12034
6694.67496,0.12107
6692.74622,0.11932
6690.81747,0.11941
6688.88873,0.12224
6686.95998,0.12344
6685.03123,0.12093
6683.10249,0.11730
6681.17374,0.11532
6679.24500,0.11497
6677.31625,0.11551
6675.38751,0.11678
6673.45876,0.11773
6671.53002,0.11782
6669.60127,0.11811
6667.67253,0.11879
6665.74378,0.11945
6663.81504,0.11989
6661.88629,0.12021
6659.95755,0.12041
6658.02880,0.11972
6656.10006,0.11803
6654.17131,0.11724
6652.24256,0.11799
6650.31382,0.11762
6648.38507,0.11579
6646.45633,0.11619
6644.52758,0.11958
6642.59884,0.12289
6640.67009,0.12311
6638.74135,0.12044
6636.81260,0.11859
6634.88386,0.11960
6632.95511,0.12123
6631.02637,0.12109
6629.09762,0.11949
6627.16888,0.11828
6625.24013,0.11930
6623.31139,0.12146
6621.38264,0.12146
6619.45389,0.11943
6617.52515,0.11803
6615.59640,0.11845
6613.66766,0.11922
6611.73891,0.11834
6609.81017,0.11696
6607.88142,0.11687
6605.95268,0.11744
6604.02393,0.11712
6602.09519,0.11597
6600.16644,0.11590
6598.23770,0.11650
6596.30895,0.11618
6594.38021,0.11655
6592.45146,0.11811
6590.52271,0.11831
6588.59397,0.11734
6586.66522,0.11694
6584.73648,0.11629
6582.80773,0.11604
6580.87899,0.11845
6578.95024,0.12182
6577.02150,0.12342
6575.09275,0.12341
6573.16401,0.12274
6571.23526,0.12179
6569.30652,0.12044
6567.37777,0.11877
6565.44903,0.11822
6563.52028,0.11896
6561.59154,0.11830
6559.66279,0.11509
6557.73404,0.11282
6555.80530,0.11501
6553.87655,0.11898
6551.94781,0.11944
6550.01906,0.11713
6548.09032,0.11639
6546.16157,0.11767
6544.23283,0.11869
6542.30408,0.11838
6540.37534,0.11740
6538.44659,0.11682
6536.51785,0.11679
6534.58910,0.11700
6532.66036,0.11727
6530.73161,0.11765
6528.80287,0.11823
6526.87412,0.11886
6524.94537,0.11956
6523.01663,0.12004
6521.08788,0.12016
6519.15914,0.12009
6517.23039,0.11985
6515.30165,0.12010
6513.37290,0.12052
6511.44416,0.12064
6509.51541,0.12094
6507.58667,0.12006
6505.65792,0.11740
6503.72918,0.11614
6501.80043,0.11795
6499.87169,0.12041
6497.94294,0.12111
6496.01419,0.12126
6494.08545,0.12270
6492.15670,0.12338
6490.22796,0.12124
6488.29921,0.11840
6486.37047,0.11786
6484.44172,0.11951
6482.51298,0.12046
6480.58423,0.11957
6478.65549,0.11913
6476.72674,0.11955
6474.79800,0.11822
6472.86925,0.11604
6470.94051,0.11647
6469.01176,0.11891
6467.08302,0.11966
6465.15427,0.11776
6463.22552,0.11597
6461.29678,0.11628
6459.36803,0.11812
6457.43929,0.11995
6455.51054,0.12012
6453.58180,0.11903
6451.65305,0.11888
6449.72431,0.12030
6447.79556,0.12130
6445.86682,0.12041
6443.93807,0.11891
6442.00933,0.11845
6440.08058,0.11927
6438.15184,0.12030
6436.22309,0.11967
6434.29434,0.11711
6432.36560,0.11495
6430.43685,0.11555
6428.50811,0.11836
6426.57936,0.12069
6424.65062,0.12032
6422.72187,0.11835
6420.79313,0.11798
6418.86438,0.11954
6416.93564,0.12075
6415.00689,0.12051
6413.07815,0.11949
6411.14940,0.11853
6409.22066,0.11823
6407.29191,0.11909
6405.36317,0.12063
6403.43442,0.12157
6401.50567,0.12064
6399.57693,0.11815
6397.64818,0.11631
6395.71944,0.11664
6393.79069,0.11796
6391.86195,0.11845
6389.93320,0.11821
6388.00446,0.11796
6386.07571,0.11771
6384.14697,0.11789
6382.21822,0.11905
6380.28948,0.12055
6378.36073,0.12033
6376.43199,0.11832
6374.50324,0.11720
6372.57450,0.11747
6370.64575,0.11822
6368.71700,0.11994
6366.78826,0.12156
6364.85951,0.12099
6362.93077,0.11825
6361.00202,0.11624
6359.07328,0.11752
6357.14453,0.12046
6355.21579,0.12169
6353.28704,0.12010
6351.35830,0.11768
6349.42955,0.11681
6347.50081,0.11759
6345.57206,0.11922
6343.64332,0.12023
6341.71457,0.11944
6339.78582,0.11851
6337.85708,0.11883
6335.92833,0.11919
6333.99959,0.11947
6332.07084,0.12073
6330.14210,0.12151
6328.21335,0.12034
6326.28461,0.11858
6324.35586,0.11826
6322.42712,0.11950
6320.49837,0.11980
6318.56963,0.11888
6316.64088,0.11947
6314.71214,0.12089
6312.78339,0.12117
6310.85465,0.12125
6308.92590,0.12054
6306.99715,0.11853
6305.06841,0.11741
6303.13966,0.11720
6301.21092,0.11708
6299.28217,0.11804
6297.35343,0.12005
6295.42468,0.12144
6293.49594,0.12071
6291.56719,0.11925
6289.63845,0.11894
6287.70970,0.11916
6285.78096,0.11921
6283.85221,0.11937
6281.92347,0.11978
6279.99472,0.12010
6278.06598,0.12025
6276.13723,0.11994
6274.20848,0.11918
6272.27974,0.11898
6270.35099,0.11912
6268.42225,0.11918
6266.49350,0.11946
6264.56476,0.11917
6262.63601,0.11772
6260.70727,0.11630
6258.77852,0.11618
6256.84978,0.11743
6254.92103,0.11964
6252.99229,0.12136
6251.06354,0.12063
6249.13480,0.11850
6247.20605,0.11737
6245.27730,0.11800
6243.34856,0.11985
6241.41981,0.12170
6239.49107,0.12303
6237.56232,0.12322
6235.63358,0.12160
6233.70483,0.12015
6231.77609,0.12026
6229.84734,0.12023
6227.91860,0.11925
6225.98985,0.11828
6224.06111,0.11826
6222.13236,0.11926
6220.20362,0.11948
6218.27487,0.11817
6216.34613,0.11716
6214.41738,0.11719
6212.48863,0.11737
6210.55989,0.11749
6208.63114,0.11743
6206.70240,0.11696
6204.77365,0.11691
6202.84491,0.11784
6200.91616,0.11859
6198.98742,0.11827
6197.05867,0.11775
6195.12993,0.11789
6193.20118,0.11841
6191.27244,0.11916
6189.34369,0.12010
6187.41495,0.12026
6185.48620,0.11916
6183.55746,0.11758
6181.62871,0.11642
6179.69996,0.11662
6177.77122,0.11845
6175.84247,0.12054
6173.91373,0.12131
6171.98498,0.12062
6170.05624,0.11835
6168.12749,0.11532
6166.19875,0.11415
6164.27000,0.11517
6162.34126,0.11651
6160.41251,0.11785
6158.48377,0.11921
6156.55502,0.12012
6154.62628,0.12015
6152.69753,0.11853
6150.76878,0.11617
6148.84004,0.11559
6146.91129,0.11670
6144.98255,0.11726
6143.05380,0.11694
6141.12506,0.11720
6139.19631,0.11796
6137.26757,0.11834
6135.33882,0.11856
6133.41008,0.11845
6131.48133,0.11808
6129.55259,0.11815
6127.62384,0.11815
6125.69510,0.11815
6123.76635,0.11890
6121.83761,0.11936
6119.90886,0.11854
6117.98011,0.11728
6116.05137,0.11706
6114.12262,0.11825
6112.19388,0.11949
6110.26513,0.11978
6108.33639,0.11973
6106.40764,0.11973
6104.47890,0.11955
6102.55015,0.11916
6100.62141,0.11871
6098.69266,0.11861
6096.76392,0.11905
6094.83517,0.11958
6092.90643,0.11943
6090.97768,0.11790
6089.04893,0.11585
6087.12019,0.11532
6085.19144,0.11631
6083.26270,0.11704
6081.33395,0.11742
6079.40521,0.11838
6077.47646,0.11903
6075.54772,0.11829
6073.61897,0.11750
6071.69023,0.11842
6069.76148,0.12048
6067.83274,0.12157
6065.90399,0.12067
6063.97525,0.11952
6062.04650,0.11939
6060.11776,0.11898
6058.18901,0.11781
6056.26026,0.11759
6054.33152,0.11874
6052.40277,0.11953
6050.47403,0.11897
6048.54528,0.11772
6046.61654,0.11720
6044.68779,0.11833
6042.75905,0.11941
6040.83030,0.11900
6038.90156,0.11870
6036.97281,0.11951
6035.04407,0.11998
6033.11532,0.11927
6031.18658,0.11863
6029.25783,0.11867
6027.32909,0.11808
6025.40034,0.11745
6023.47159,0.11869
6021.54285,0.12073
6019.61410,0.12145
6017.68536,0.12055
6015.75661,0.11918
6013.82787,0.11865
6011.89912,0.11847
6009.97038,0.11771
6008.04163,0.11695
6006.11289,0.11690
6004.18414,0.11736
6002.25540,0.11822
6000.32665,0.11922
5998.39791,0.11951
5996.46916,0.11930
5994.54041,0.11913
5992.61167,0.11845
5990.68292,0.11662
5988.75418,0.11441
5986.82543,0.11366
5984.89669,0.11451
5982.96794,0.11543
5981.03920,0.11548
5979.11045,0.11525
5977.18171,0.11540
5975.25296,0.11593
5973.32422,0.11702
5971.39547,0.11821
5969.46673,0.11886
5967.53798,0.11900
5965.60924,0.11873
5963.68049,0.11841
5961.75174,0.11765
5959.82300,0.11671
5957.89425,0.11620
5955.96551,0.11587
5954.03676,0.11634
5952.10802,0.11763
5950.17927,0.11818
5948.25053,0.11724
5946.32178,0.11586
5944.39304,0.11549
5942.46429,0.11566
5940.53555,0.11526
5938.60680,0.11460
5936.67806,0.11477
5934.74931,0.11560
5932.82057,0.11556
5930.89182,0.11442
5928.96307,0.11379
5927.03433,0.11401
5925.10558,0.11382
5923.17684,0.11287
5921.24809,0.11154
5919.31935,0.11015
5917.39060,0.10965
5915.46186,0.11031
5913.53311,0.11069
5911.60437,0.10915
5909.67562,0.10578
5907.74688,0.10287
5905.81813,0.10312
5903.88939,0.10573
5901.96064,0.10721
5900.03189,0.10642
5898.10315,0.10452
5896.17440,0.10291
5894.24566,0.10287
5892.31691,0.10444
5890.38817,0.10622
5888.45942,0.10685
5886.53068,0.10622
5884.60193,0.10517
5882.67319,0.10422
5880.74444,0.10303
5878.81570,0.10166
5876.88695,0.10101
5874.95821,0.10135
5873.02946,0.10194
5871.10072,0.10187
5869.17197,0.10092
5867.24322,0.10024
5865.31448,0.10062
5863.38573,0.10060
5861.45699,0.09921
5859.52824,0.09807
5857.59950,0.09840
5855.67075,0.09937
5853.74201,0.10010
5851.81326,0.10089
5849.88452,0.10185
5847.95577,0.10244
5846.02703,0.10259
5844.09828,0.10247
5842.16954,0.10247
5840.24079,0.10260
5838.31205,0.10256
5836.38330,0.10295
5834.45455,0.10384
5832.52581,0.10436
5830.59706,0.10429
5828.66832,0.10386
5826.73957,0.10317
5824.81083,0.10285
5822.88208,0.10343
5820.95334,0.10402
5819.02459,0.10345
5817.09585,0.10226
5815.16710,0.10184
5813.23836,0.10207
5811.30961,0.10154
5809.38087,0.10015
5807.45212,0.09915
5805.52337,0.09946
5803.59463,0.10101
5801.66588,0.10216
5799.73714,0.10193
5797.80839,0.10114
5795.87965,0.09995
5793.95090,0.09904
5792.02216,0.09968
5790.09341,0.10071
5788.16467,0.10106
5786.23592,0.10151
5784.30718,0.10219
5782.37843,0.10224
5780.44969,0.10126
5778.52094,0.10045
5776.59220,0.10092
5774.66345,0.10220
5772.73470,0.10309
5770.80596,0.10275
5768.87721,0.10140
5766.94847,0.10005
5765.01972,0.09994
5763.09098,0.10092
5761.16223,0.10124
5759.23349,0.10043
5757.30474,0.09990
5755.37600,0.10012
5753.44725,0.09981
5751.51851,0.09896
5749.58976,0.09897
5747.66102,0.09991
5745.73227,0.10104
5743.80352,0.10248
5741.87478,0.10424
5739.94603,0.10540
5738.01729,0.10523
5736.08854,0.10436
5734.15980,0.10399
5732.23105,0.10444
5730.30231,0.10534
5728.37356,0.10641
5726.44482,0.10730
5724.51607,0.10795
5722.58733,0.10850
5720.65858,0.10857
5718.72984,0.10800
5716.80109,0.10762
5714.87235,0.10810
5712.94360,0.10860
5711.01485,0.10866
5709.08611,0.10875
5707.15736,0.10890
5705.22862,0.10901
5703.29987,0.10922
5701.37113,0.10982
5699.44238,0.11029
5697.51364,0.10993
5695.58489,0.10955
5693.65615,0.10934
5691.72740,0.10825
5689.79866,0.10686
5687.86991,0.10643
5685.94117,0.10689
5684.01242,0.10781
5682.08368,0.10913
5680.15493,0.11068
5678.22618,0.11137
5676.29744,0.11079
5674.36869,0.11049
5672.43995,0.11109
5670.51120,0.11095
5668.58246,0.10977
5666.65371,0.10930
5664.72497,0.10976
5662.79622,0.10964
5660.86748,0.10896
5658.93873,0.10881
5657.00999,0.10898
5655.08124,0.10908
5653.15250,0.10946
5651.22375,0.11018
5649.29500,0.11099
5647.36626,0.11119
5645.43751,0.11017
5643.50877,0.10943
5641.58002,0.11012
5639.65128,0.11046
5637.72253,0.10956
5635.79379,0.10923
5633.86504,0.10997
5631.93630,0.11016
5630.00755,0.10945
5628.07881,0.10879
5626.15006,0.10898
5624.22132,0.10988
5622.29257,0.11052
5620.36383,0.11089
5618.43508,0.11151
5616.50633,0.11203
5614.57759,0.11177
5612.64884,0.11107
5610.72010,0.11124
5608.79135,0.11241
5606.86261,0.11315
5604.93386,0.11272
5603.00512,0.11167
5601.07637,0.11084
5599.14763,0.11104
5597.21888,0.11212
5595.29014,0.11303
5593.36139,0.11345
5591.43265,0.11357
5589.50390,0.11352
5587.57516,0.11326
5585.64641,0.11249
5583.71766,0.11182
5581.78892,0.11208
5579.86017,0.11275
5577.93143,0.11304
5576.00268,0.11325
5574.07394,0.11362
5572.14519,0.11382
5570.21645,0.11378
5568.28770,0.11355
5566.35896,0.11320
5564.43021,0.11271
5562.50147,0.11213
5560.57272,0.11176
5558.64398,0.11160
5556.71523,0.11142
5554.78648,0.11145
5552.85774,0.11186
5550.92899,0.11253
5549.00025,0.11316
5547.07150,0.11329
5545.14276,0.11326
5543.21401,0.11375
5541.28527,0.11419
5539.35652,0.11382
5537.42778,0.11331
5535.49903,0.11347
5533.57029,0.11376
5531.64154,0.11345
5529.71280,0.11260
5527.78405,0.11134
5525.85531,0.11049
5523.92656,0.11103
5521.99781,0.11187
5520.06907,0.11165
5518.14032,0.11123
5516.21158,0.11154
5514.28283,0.11178
5512.35409,0.11142
5510.42534,0.11130
5508.49660,0.11179
5506.56785,0.11233
5504.63911,0.11244
5502.71036,0.11216
5500.78162,0.11180
5498.85287,0.11169
5496.92413,0.11198
5494.99538,0.11223
5493.06664,0.11207
5491.13789,0.11187
5489.20914,0.11207
5487.28040,0.11213
5485.35165,0.11170
5483.42291,0.11159
5481.49416,0.11187
5479.56542,0.11193
5477.63667,0.11191
5475.70793,0.11204
5473.77918,0.11198
5471.85044,0.11175
5469.92169,0.11187
5467.99295,0.11206
5466.06420,0.11214
5464.13546,0.11239
5462.20671,0.11255
5460.27796,0.11309
5458.34922,0.11395
5456.42047,0.11402
5454.49173,0.11362
5452.56298,0.11358
5450.63424,0.11385
5448.70549,0.11398
5446.77675,0.11370
5444.84800,0.11337
5442.91926,0.11340
5440.99051,0.11343
5439.06177,0.11296
5437.13302,0.11260
5435.20428,0.11308
5433.27553,0.11380
5431.34679,0.11401
5429.41804,0.11388
5427.48929,0.11407
5425.56055,0.11424
5423.63180,0.11385
5421.70306,0.11361
5419.77431,0.11374
5417.84557,0.11415
5415.91682,0.11545
5413.98808,0.11664
5412.05933,0.11656
5410.13059,0.11604
5408.20184,0.11600
5406.27310,0.11615
5404.34435,0.11586
5402.41561,0.11544
5400.48686,0.11534
5398.55811,0.11532
5396.62937,0.11547
5394.70062,0.11565
5392.77188,0.11555
5390.84313,0.11561
5388.91439,0.11576
5386.98564,0.11543
5385.05690,0.11511
5383.12815,0.11559
5381.19941,0.11660
5379.27066,0.11742
5377.34192,0.11757
5375.41317,0.11727
5373.48443,0.11732
5371.55568,0.11763
5369.62694,0.11756
5367.69819,0.11703
5365.76944,0.11612
5363.84070,0.11531
5361.91195,0.11528
5359.98321,0.11576
5358.05446,0.11591
5356.12572,0.11580
5354.19697,0.11605
5352.26823,0.11662
5350.33948,0.11703
5348.41074,0.11735
5346.48199,0.11761
5344.55325,0.11760
5342.62450,0.11765
5340.69576,0.11805
5338.76701,0.11805
5336.83827,0.11720
5334.90952,0.11662
5332.98077,0.11714
5331.05203,0.11795
5329.12328,0.11803
5327.19454,0.11769
5325.26579,0.11772
5323.33705,0.11775
5321.40830,0.11703
5319.47956,0.11640
5317.55081,0.11699
5315.62207,0.11810
5313.69332,0.11849
5311.76458,0.11806
5309.83583,0.11741
5307.90709,0.11720
5305.97834,0.11713
5304.04959,0.11662
5302.12085,0.11620
5300.19210,0.11610
5298.26336,0.11591
5296.33461,0.11571
5294.40587,0.11581
5292.47712,0.11637
5290.54838,0.11725
5288.61963,0.11782
5286.69089,0.11791
5284.76214,0.11788
5282.83340,0.11766
5280.90465,0.11699
5278.97591,0.11651
5277.04716,0.11659
5275.11842,0.11645
5273.18967,0.11622
5271.26092,0.11672
5269.33218,0.11740
5267.40343,0.11749
5265.47469,0.11708
5263.54594,0.11650
5261.61720,0.11638
5259.68845,0.11687
5257.75971,0.11740
5255.83096,0.11757
5253.90222,0.11741
5251.97347,0.11725
5250.04473,0.11710
5248.11598,0.11626
5246.18724,0.11496
5244.25849,0.11478
5242.32975,0.11595
5240.40100,0.11707
5238.47225,0.11733
5236.54351,0.11724
5234.61476,0.11743
5232.68602,0.11781
5230.75727,0.11800
5228.82853,0.11754
5226.89978,0.11680
5224.97104,0.11678
5223.04229,0.11738
5221.11355,0.11771
5219.18480,0.11769
5217.25606,0.11763
5215.32731,0.11729
5213.39857,0.11667
5211.46982,0.11653
5209.54107,0.11686
5207.61233,0.11693
5205.68358,0.11686
5203.75484,0.11718
5201.82609,0.11762
5199.89735,0.11779
5197.96860,0.11758
5196.03986,0.11733
5194.11111,0.11764
5192.18237,0.11839
5190.25362,0.11883
5188.32488,0.11865
5186.39613,0.11776
5184.46739,0.11668
5182.53864,0.11653
5180.60990,0.11721
5178.68115,0.11764
5176.75240,0.11758
5174.82366,0.11736
5172.89491,0.11734
5170.96617,0.11759
5169.03742,0.11743
5167.10868,0.11691
5165.17993,0.11707
5163.25119,0.11807
5161.32244,0.11892
5159.39370,0.11880
5157.46495,0.11803
5155.53621,0.11741
5153.60746,0.11711
5151.67872,0.11709
5149.74997,0.11756
5147.82123,0.11827
5145.89248,0.11867
5143.96373,0.11859
5142.03499,0.11814
5140.10624,0.11780
5138.17750,0.11791
5136.24875,0.11821
5134.32001,0.11840
5132.39126,0.11834
5130.46252,0.11800
5128.53377,0.11778
5126.60503,0.11808
5124.67628,0.11834
5122.74754,0.11785
5120.81879,0.11747
5118.89005,0.11789
5116.96130,0.11839
5115.03255,0.11869
5113.10381,0.11882
5111.17506,0.11844
5109.24632,0.11789
5107.31757,0.11787
5105.38883,0.11817
5103.46008,0.11816
5101.53134,0.11778
5099.60259,0.11769
5097.67385,0.11799
5095.74510,0.11803
5093.81636,0.11785
5091.88761,0.11772
5089.95887,0.11785
5088.03012,0.11844
5086.10138,0.11891
5084.17263,0.11872
5082.24388,0.11837
5080.31514,0.11851
5078.38639,0.11871
5076.45765,0.11843
5074.52890,0.11795
5072.60016,0.11770
5070.67141,0.11791
5068.74267,0.11847
5066.81392,0.11864
5064.88518,0.11829
5062.95643,0.11800
5061.02769,0.11783
5059.09894,0.11762
5057.17020,0.11763
5055.24145,0.11814
5053.31270,0.11886
5051.38396,0.11910
5049.45521,0.11881
5047.52647,0.11854
5045.59772,0.11846
5043.66898,0.11837
5041.74023,0.11811
5039.81149,0.11780
5037.88274,0.11773
5035.95400,0.11811
5034.02525,0.11862
5032.09651,0.11881
5030.16776,0.11883
5028.23902,0.11900
5026.31027,0.11909
5024.38153,0.11869
5022.45278,0.11819
5020.52403,0.11811
5018.59529,0.11823
5016.66654,0.11839
5014.73780,0.11852
5012.80905,0.11851
5010.88031,0.11850
5008.95156,0.11862
5007.02282,0.11901
5005.09407,0.11966
5003.16533,0.11990
5001.23658,0.11950
4999.30784,0.11954
4997.37909,0.12018
4995.45035,0.12025
4993.52160,0.11970
4991.59286,0.11920
4989.66411,0.11895
4987.73536,0.11895
4985.80662,0.11900
4983.87787,0.11893
4981.94913,0.11925
4980.02038,0.12011
4978.09164,0.12099
4976.16289,0.12164
4974.23415,0.12182
4972.30540,0.12166
4970.37666,0.12162
4968.44791,0.12146
4966.51917,0.12107
4964.59042,0.12083
4962.66168,0.12054
4960.73293,0.12020
4958.80418,0.12018
4956.87544,0.12014
4954.94669,0.11966
4953.01795,0.11922
4951.08920,0.11931
4949.16046,0.11986
4947.23171,0.12014
4945.30297,0.11979
4943.37422,0.11961
4941.44548,0.12014
4939.51673,0.12087
4937.58799,0.12112
4935.65924,0.12060
4933.73050,0.11991
4931.80175,0.11983
4929.87301,0.12038
4927.94426,0.12111
4926.01551,0.12163
4924.08677,0.12168
4922.15802,0.12117
4920.22928,0.12041
4918.30053,0.12017
4916.37179,0.12046
4914.44304,0.12082
4912.51430,0.12124
4910.58555,0.12129
4908.65681,0.12077
4906.72806,0.12030
4904.79932,0.12016
4902.87057,0.11998
4900.94183,0.11989
4899.01308,0.12029
4897.08434,0.12098
4895.15559,0.12165
4893.22684,0.12186
4891.29810,0.12132
4889.36935,0.12056
4887.44061,0.12026
4885.51186,0.12019
4883.58312,0.11975
4881.65437,0.11932
4879.72563,0.11957
4877.79688,0.12050
4875.86814,0.12124
4873.93939,0.12104
4872.01065,0.12058
4870.08190,0.12053
4868.15316,0.12074
4866.22441,0.12088
4864.29566,0.12069
4862.36692,0.12044
4860.43817,0.12056
4858.50943,0.12085
4856.58068,0.12085
4854.65194,0.12056
4852.72319,0.12044
4850.79445,0.12072
4848.86570,0.12111
4846.93696,0.12111
4845.00821,0.12093
4843.07947,0.12128
4841.15072,0.12183
4839.22198,0.12178
4837.29323,0.12137
4835.36449,0.12111
4833.43574,0.12095
4831.50699,0.12079
4829.57825,0.12075
4827.64950,0.12080
4825.72076,0.12072
4823.79201,0.12042
4821.86327,0.12022
4819.93452,0.12032
4818.00578,0.12042
4816.07703,0.12062
4814.14829,0.12123
4812.21954,0.12156
4810.29080,0.12094
4808.36205,0.12009
4806.43331,0.11998
4804.50456,0.12041
4802.57582,0.12087
4800.64707,0.12128
4798.71832,0.12138
4796.78958,0.12104
4794.86083,0.12070
4792.93209,0.12051
4791.00334,0.12046
4789.07460,0.12050
4787.14585,0.12056
4785.21711,0.12064
4783.28836,0.12060
4781.35962,0.12074
4779.43087,0.12149
4777.50213,0.12189
4775.57338,0.12122
4773.64464,0.12061
4771.71589,0.12083
4769.78714,0.12122
4767.85840,0.12156
4765.92965,0.12193
4764.00091,0.12207
4762.07216,0.12204
4760.14342,0.12198
4758.21467,0.12181
4756.28593,0.12145
4754.35718,0.12122
4752.42844,0.12149
4750.49969,0.12169
4748.57095,0.12132
4746.64220,0.12084
4744.71346,0.12072
4742.78471,0.12093
4740.85597,0.12101
4738.92722,0.12076
4736.99847,0.12067
4735.06973,0.12088
4733.14098,0.12108
4731.21224,0.12119
4729.28349,0.12109
4727.35475,0.12083
4725.42600,0.12085
4723.49726,0.12140
4721.56851,0.12206
4719.63977,0.12228
4717.71102,0.12204
4715.78228,0.12162
4713.85353,0.12127
4711.92479,0.12129
4709.99604,0.12161
4708.06729,0.12182
4706.13855,0.12183
4704.20980,0.12161
4702.28106,0.12132
4700.35231,0.12110
4698.42357,0.12091
4696.49482,0.12090
4694.56608,0.12118
4692.63733,0.12145
4690.70859,0.12148
4688.77984,0.12144
4686.85110,0.12158
4684.92235,0.12187
4682.99361,0.12196
4681.06486,0.12176
4679.13612,0.12163
4677.20737,0.12152
4675.27862,0.12108
4673.34988,0.12045
4671.42113,0.12003
4669.49239,0.12011
4667.56364,0.12057
4665.63490,0.12104
4663.70615,0.12141
4661.77741,0.12154
4659.84866,0.12133
4657.91992,0.12094
4655.99117,0.12068
4654.06243,0.12065
4652.13368,0.12089
4650.20494,0.12141
4648.27619,0.12179
4646.34745,0.12174
4644.41870,0.12134
4642.48995,0.12084
4640.56121,0.12067
4638.63246,0.12075
4636.70372,0.12072
4634.77497,0.12056
4632.84623,0.12029
4630.91748,0.12008
4628.98874,0.12018
4627.05999,0.12040
4625.13125,0.12049
4623.20250,0.12051
4621.27376,0.12032
4619.34501,0.11989
4617.41627,0.11965
4615.48752,0.11982
4613.55877,0.12013
4611.63003,0.12029
4609.70128,0.12020
4607.77254,0.11991
4605.84379,0.11960
4603.91505,0.11952
4601.98630,0.11955
4600.05756,0.11953
4598.12881,0.11951
4596.20007,0.11962
4594.27132,0.11990
4592.34258,0.12032
4590.41383,0.12041
4588.48509,0.11984
4586.55634,0.11922
4584.62760,0.11916
4582.69885,0.11958
4580.77010,0.12008
4578.84136,0.11997
4576.91261,0.11917
4574.98387,0.11866
4573.05512,0.11899
4571.12638,0.11952
4569.19763,0.11946
4567.26889,0.11893
4565.34014,0.11859
4563.41140,0.11871
4561.48265,0.11903
4559.55391,0.11923
4557.62516,0.11937
4555.69642,0.11972
4553.76767,0.11991
4551.83893,0.11942
4549.91018,0.11895
4547.98143,0.11918
4546.05269,0.11951
4544.12394,0.11953
4542.19520,0.11938
4540.26645,0.11912
4538.33771,0.11885
4536.40896,0.11868
4534.48022,0.11887
4532.55147,0.11939
4530.62273,0.11957
4528.69398,0.11934
4526.76524,0.11933
4524.83649,0.11958
4522.90775,0.11985
4520.97900,0.11999
4519.05025,0.11984
4517.12151,0.11950
4515.19276,0.11936
4513.26402,0.11941
4511.33527,0.11927
4509.40653,0.11893
4507.47778,0.11878
4505.54904,0.11887
4503.62029,0.11887
4501.69155,0.11876
4499.76280,0.11873
4497.83406,0.11856
4495.90531,0.11826
4493.97657,0.11828
4492.04782,0.11854
4490.11908,0.11858
4488.19033,0.11849
4486.26158,0.11868
4484.33284,0.11899
4482.40409,0.11889
4480.47535,0.11835
4478.54660,0.11788
4476.61786,0.11783
4474.68911,0.11804
4472.76037,0.11809
4470.83162,0.11772
4468.90288,0.11709
4466.97413,0.11671
4465.04539,0.11666
4463.11664,0.11667
4461.18790,0.11676
4459.25915,0.11664
4457.33041,0.11622
4455.40166,0.11586
4453.47291,0.11541
4451.54417,0.11482
4449.61542,0.11439
4447.68668,0.11421
4445.75793,0.11411
4443.82919,0.11364
4441.90044,0.11266
4439.97170,0.11156
4438.04295,0.11053
4436.11421,0.10943
4434.18546,0.10829
4432.25672,0.10712
4430.32797,0.10571
4428.39923,0.10410
4426.47048,0.10240
4424.54173,0.10090
4422.61299,0.09980
4420.68424,0.09841
4418.75550,0.09621
4416.82675,0.09403
4414.89801,0.09252
4412.96926,0.09116
4411.04052,0.08956
4409.11177,0.08801
4407.18303,0.08650
4405.25428,0.08502
4403.32554,0.08367
4401.39679,0.08204
4399.46805,0.07973
4397.53930,0.07735
4395.61056,0.07579
4393.68181,0.07496
4391.75306,0.07442
4389.82432,0.07450
4387.89557,0.07542
4385.96683,0.07658
4384.03808,0.07760
4382.10934,0.07872
4380.18059,0.07998
4378.25185,0.08123
4376.32310,0.08231
4374.39436,0.08300
4372.46561,0.08329
4370.53687,0.08369
4368.60812,0.08451
4366.67938,0.08538
4364.75063,0.08614
4362.82189,0.08690
4360.89314,0.08733
4358.96439,0.08712
4357.03565,0.08641
4355.10690,0.08555
4353.17816,0.08491
4351.24941,0.08434
4349.32067,0.08308
4347.39192,0.08098
4345.46318,0.07848
4343.53443,0.07581
4341.60569,0.07320
4339.67694,0.07082
4337.74820,0.06826
4335.81945,0.06557
4333.89071,0.06327
4331.96196,0.06145
4330.03321,0.06001
4328.10447,0.05889
4326.17572,0.05801
4324.24698,0.05753
4322.31823,0.05758
4320.38949,0.05817
4318.46074,0.05910
4316.53200,0.05999
4314.60325,0.06094
4312.67451,0.06208
4310.74576,0.06318
4308.81702,0.06429
4306.88827,0.06554
4304.95953,0.06681
4303.03078,0.06822
4301.10204,0.06977
4299.17329,0.07109
4297.24454,0.07218
4295.31580,0.07304
4293.38705,0.07364
4291.45831,0.07402
4289.52956,0.07393
4287.60082,0.07355
4285.67207,0.07348
4283.74333,0.07393
4281.81458,0.07445
4279.88584,0.07453
4277.95709,0.07439
4276.02835,0.07441
4274.09960,0.07441
4272.17086,0.07422
4270.24211,0.07414
4268.31336,0.07418
4266.38462,0.07391
4264.45587,0.07321
4262.52713,0.07230
4260.59838,0.07130
4258.66964,0.07031
4256.74089,0.06948
4254.81215,0.06853
4252.88340,0.06725
4250.95466,0.06575
4249.02591,0.06417
4247.09717,0.06272
4245.16842,0.06184
4243.23968,0.06160
4241.31093,0.06173
4239.38219,0.06220
4237.45344,0.06315
4235.52469,0.06441
4233.59595,0.06575
4231.66720,0.06717
4229.73846,0.06861
4227.80971,0.06982
4225.88097,0.07029
4223.95222,0.07011
4222.02348,0.06985
4220.09473,0.06973
4218.16599,0.06984
4216.23724,0.07024
4214.30850,0.07069
4212.37975,0.07100
4210.45101,0.07111
4208.52226,0.07121
4206.59352,0.07181
4204.66477,0.07282
4202.73602,0.07361
4200.80728,0.07410
4198.87853,0.07473
4196.94979,0.07561
4195.02104,0.07655
4193.09230,0.07759
4191.16355,0.07862
4189.23481,0.07912
4187.30606,0.07904
4185.37732,0.07869
4183.44857,0.07820
4181.51983,0.07776
4179.59108,0.07758
4177.66234,0.07720
4175.73359,0.07626
4173.80484,0.07520
4171.87610,0.07435
4169.94735,0.07385
4168.01861,0.07389
4166.08986,0.07422
4164.16112,0.07459
4162.23237,0.07517
4160.30363,0.07590
4158.37488,0.07645
4156.44614,0.07670
4154.51739,0.07695
4152.58865,0.07749
4150.65990,0.07809
4148.73116,0.07850
4146.80241,0.07902
4144.87367,0.07975
4142.94492,0.08025
4141.01617,0.08055
4139.08743,0.08083
4137.15868,0.08094
4135.22994,0.08097
4133.30119,0.08104
4131.37245,0.08084
4129.44370,0.08023
4127.51496,0.07936
4125.58621,0.07859
4123.65747,0.07832
4121.72872,0.07839
4119.79998,0.07847
4117.87123,0.07852
4115.94249,0.07841
4114.01374,0.07836
4112.08500,0.07888
4110.15625,0.07986
4108.22750,0.08080
4106.29876,0.08160
4104.37001,0.08249
4102.44127,0.08350
4100.51252,0.08430
4098.58378,0.08471
4096.65503,0.08485
4094.72629,0.08477
4092.79754,0.08448
4090.86880,0.08423
4088.94005,0.08401
4087.01131,0.08326
4085.08256,0.08183
4083.15382,0.08037
4081.22507,0.07918
4079.29632,0.07807
4077.36758,0.07688
4075.43883,0.07565
4073.51009,0.07475
4071.58134,0.07434
4069.65260,0.07373
4067.72385,0.07249
4065.79511,0.07102
4063.86636,0.06967
4061.93762,0.06862
4060.00887,0.06809
4058.08013,0.06835
4056.15138,0.06956
4054.22264,0.07142
4052.29389,0.07348
4050.36515,0.07557
4048.43640,0.07762
4046.50765,0.07975
4044.57891,0.08185
4042.65016,0.08327
4040.72142,0.08388
4038.79267,0.08427
4036.86393,0.08478
4034.93518,0.08541
4033.00644,0.08598
4031.07769,0.08647
4029.14895,0.08702
4027.22020,0.08747
4025.29146,0.08770
4023.36271,0.08795
4021.43397,0.08829
4019.50522,0.08873
4017.57648,0.08926
4015.64773,0.08973
4013.71898,0.09004
4011.79024,0.09043
4009.86149,0.09103
4007.93275,0.09154
4006.00400,0.09166
4004.07526,0.09155
4002.14651,0.09147
4000.21777,0.09138
3998.28902,0.09115
3996.36028,0.09091
3994.43153,0.09099
3992.50279,0.09141
3990.57404,0.09189
3988.64530,0.09218
3986.71655,0.09236
3984.78780,0.09289
3982.85906,0.09387
3980.93031,0.09477
3979.00157,0.09538
3977.07282,0.09575
3975.14408,0.09581
3973.21533,0.09568
3971.28659,0.09571
3969.35784,0.09611
3967.42910,0.09659
3965.50035,0.09682
3963.57161,0.09688
3961.64286,0.09716
3959.71412,0.09775
3957.78537,0.09829
3955.85663,0.09867
3953.92788,0.09908
3951.99913,0.09941
3950.07039,0.09955
3948.14164,0.09958
3946.21290,0.09948
3944.28415,0.09926
3942.35541,0.09909
3940.42666,0.09892
3938.49792,0.09858
3936.56917,0.09823
3934.64043,0.09802
3932.71168,0.09771
3930.78294,0.09738
3928.85419,0.09745
3926.92545,0.09784
3924.99670,0.09805
3923.06795,0.09802
3921.13921,0.09800
3919.21046,0.09804
3917.28172,0.09808
3915.35297,0.09819
3913.42423,0.09856
3911.49548,0.09895
3909.56674,0.09906
3907.63799,0.09911
3905.70925,0.09952
3903.78050,0.10020
3901.85176,0.10060
3899.92301,0.10032
3897.99427,0.09977
3896.06552,0.09967
3894.13678,0.09997
3892.20803,0.10019
3890.27928,0.10022
3888.35054,0.10031
3886.42179,0.10047
3884.49305,0.10044
3882.56430,0.10024
3880.63556,0.10004
3878.70681,0.09994
3876.77807,0.10008
3874.84932,0.10039
3872.92058,0.10073
3870.99183,0.10099
3869.06309,0.10118
3867.13434,0.10139
3865.20560,0.10160
3863.27685,0.10186
3861.34811,0.10223
3859.41936,0.10265
3857.49061,0.10304
3855.56187,0.10325
3853.63312,0.10316
3851.70438,0.10306
3849.77563,0.10316
3847.84689,0.10328
3845.91814,0.10331
3843.98940,0.10328
3842.06065,0.10324
3840.13191,0.10314
3838.20316,0.10296
3836.27442,0.10295
3834.34567,0.10318
3832.41693,0.10324
3830.48818,0.10300
3828.55943,0.10291
3826.63069,0.10302
3824.70194,0.10307
3822.77320,0.10306
3820.84445,0.10297
3818.91571,0.10289
3816.98696,0.10288
3815.05822,0.10274
3813.12947,0.10250
3811.20073,0.10248
3809.27198,0.10292
3807.34324,0.10351
3805.41449,0.10366
3803.48575,0.10343
3801.55700,0.10336
3799.62826,0.10363
3797.69951,0.10401
3795.77076,0.10429
3793.84202,0.10438
3791.91327,0.10439
3789.98453,0.10448
3788.05578,0.10476
3786.12704,0.10520
3784.19829,0.10547
3782.26955,0.10535
3780.34080,0.10508
3778.41206,0.10498
3776.48331,0.10482
3774.55457,0.10432
3772.62582,0.10366
3770.69708,0.10306
3768.76833,0.10257
3766.83959,0.10211
3764.91084,0.10174
3762.98209,0.10163
3761.05335,0.10188
3759.12460,0.10249
3757.19586,0.10313
3755.26711,0.10358
3753.33837,0.10403
3751.40962,0.10449
3749.48088,0.10468
3747.55213,0.10477
3745.62339,0.10502
3743.69464,0.10519
3741.76590,0.10541
3739.83715,0.10596
3737.90841,0.10650
3735.97966,0.10662
3734.05091,0.10657
3732.12217,0.10666
3730.19342,0.10685
3728.26468,0.10712
3726.33593,0.10742
3724.40719,0.10763
3722.47844,0.10777
3720.54970,0.10787
3718.62095,0.10793
3716.69221,0.10786
3714.76346,0.10754
3712.83472,0.10716
3710.90597,0.10703
3708.97723,0.10726
3707.04848,0.10759
3705.11974,0.10766
3703.19099,0.10730
3701.26224,0.10680
3699.33350,0.10667
3697.40475,0.10700
3695.47601,0.10739
3693.54726,0.10756
3691.61852,0.10765
3689.68977,0.10789
3687.76103,0.10795
3685.83228,0.10767
3683.90354,0.10771
3681.97479,0.10817
3680.04605,0.10850
3678.11730,0.10866
3676.18856,0.10898
3674.25981,0.10954
3672.33107,0.11027
3670.40232,0.11111
3668.47357,0.11182
3666.54483,0.11225
3664.61608,0.11248
3662.68734,0.11251
3660.75859,0.11254
3658.82985,0.11293
3656.90110,0.11332
3654.97236,0.11318
3653.04361,0.11287
3651.11487,0.11290
3649.18612,0.11321
3647.25738,0.11322
3645.32863,0.11263
3643.39989,0.11194
3641.47114,0.11151
3639.54239,0.11126
3637.61365,0.11119
3635.68490,0.11132
3633.75616,0.11154
3631.82741,0.11183
3629.89867,0.11209
3627.96992,0.11223
3626.04118,0.11244
3624.11243,0.11288
3622.18369,0.11340
3620.25494,0.11368
3618.32620,0.11359
3616.39745,0.11349
3614.46871,0.11355
3612.53996,0.11367
3610.61122,0.11395
3608.68247,0.11433
3606.75372,0.11445
3604.82498,0.11434
3602.89623,0.11425
3600.96749,0.11434
3599.03874,0.11449
3597.11000,0.11449
3595.18125,0.11438
3593.25251,0.11430
3591.32376,0.11427
3589.39502,0.11408
3587.46627,0.11359
3585.53753,0.11318
3583.60878,0.11312
3581.68004,0.11317
3579.75129,0.11291
3577.82254,0.11242
3575.89380,0.11229
3573.96505,0.11267
3572.03631,0.11307
3570.10756,0.11314
3568.17882,0.11281
3566.25007,0.11225
3564.32133,0.11172
3562.39258,0.11152
3560.46384,0.11163
3558.53509,0.11164
3556.60635,0.11132
3554.67760,0.11105
3552.74886,0.11110
3550.82011,0.11109
3548.89137,0.11069
3546.96262,0.11005
3545.03387,0.10961
3543.10513,0.10950
3541.17638,0.10944
3539.24764,0.10930
3537.31889,0.10915
3535.39015,0.10888
3533.46140,0.10846
3531.53266,0.10810
3529.60391,0.10801
3527.67517,0.10811
3525.74642,0.10805
3523.81768,0.10768
3521.88893,0.10738
3519.96019,0.10741
3518.03144,0.10753
3516.10270,0.10765
3514.17395,0.10776
3512.24520,0.10762
3510.31646,0.10734
3508.38771,0.10721
3506.45897,0.10706
3504.53022,0.10689
3502.60148,0.10675
3500.67273,0.10651
3498.74399,0.10631
3496.81524,0.10623
3494.88650,0.10608
3492.95775,0.10582
3491.02901,0.10562
3489.10026,0.10530
3487.17152,0.10465
3485.24277,0.10422
3483.31402,0.10431
3481.38528,0.10447
3479.45653,0.10442
3477.52779,0.10419
3475.59904,0.10379
3473.67030,0.10317
3471.74155,0.10264
3469.81281,0.10242
3467.88406,0.10221
3465.95532,0.10184
3464.02657,0.10153
3462.09783,0.10126
3460.16908,0.10079
3458.24034,0.10029
3456.31159,0.10008
3454.38285,0.09985
3452.45410,0.09943
3450.52535,0.09905
3448.59661,0.09863
3446.66786,0.09810
3444.73912,0.09772
3442.81037,0.09741
3440.88163,0.09705
3438.95288,0.09668
3437.02414,0.09625
3435.09539,0.09569
3433.16665,0.09505
3431.23790,0.09460
3429.30916,0.09431
3427.38041,0.09387
3425.45167,0.09331
3423.52292,0.09278
3421.59418,0.09217
3419.66543,0.09154
3417.73668,0.09131
3415.80794,0.09147
3413.87919,0.09167
3411.95045,0.09186
3410.02170,0.09201
3408.09296,0.09218
3406.16421,0.09246
3404.23547,0.09271
3402.30672,0.09280
3400.37798,0.09288
3398.44923,0.09313
3396.52049,0.09352
3394.59174,0.09392
3392.66300,0.09423
3390.73425,0.09439
3388.80550,0.09442
3386.87676,0.09422
3384.94801,0.09385
3383.01927,0.09340
3381.09052,0.09270
3379.16178,0.09196
3377.23303,0.09165
3375.30429,0.09177
3373.37554,0.09184
3371.44680,0.09138
3369.51805,0.09061
3367.58931,0.09028
3365.66056,0.09046
3363.73182,0.09043
3361.80307,0.08987
3359.87433,0.08928
3357.94558,0.08920
3356.01683,0.08928
3354.08809,0.08905
3352.15934,0.08866
3350.23060,0.08830
3348.30185,0.08788
3346.37311,0.08760
3344.44436,0.08778
3342.51562,0.08838
3340.58687,0.08898
3338.65813,0.08906
3336.72938,0.08902
3334.80064,0.08971
3332.87189,0.09079
3330.94315,0.09132
3329.01440,0.09140
3327.08566,0.09177
3325.15691,0.09261
3323.22816,0.09350
3321.29942,0.09397
3319.37067,0.09391
3317.44193,0.09360
3315.51318,0.09340
3313.58444,0.09335
3311.65569,0.09319
3309.72695,0.09277
3307.79820,0.09227
3305.86946,0.09197
3303.94071,0.09171
3302.01197,0.09130
3300.08322,0.09115
3298.15448,0.09120
3296.22573,0.09098
3294.29698,0.09072
3292.36824,0.09076
3290.43949,0.09105
3288.51075,0.09151
3286.58200,0.09177
3284.65326,0.09136
3282.72451,0.09058
3280.79577,0.09017
3278.86702,0.09029
3276.93828,0.09075
3275.00953,0.09113
3273.08079,0.09101
3271.15204,0.09058
3269.22330,0.09044
3267.29455,0.09069
3265.36581,0.09098
3263.43706,0.09123
3261.50831,0.09146
3259.57957,0.09139
3257.65082,0.09109
3255.72208,0.09104
3253.79333,0.09120
3251.86459,0.09126
3249.93584,0.09117
3248.00710,0.09109
3246.07835,0.09100
3244.14961,0.09081
3242.22086,0.09036
3240.29212,0.08953
3238.36337,0.08866
3236.43463,0.08793
3234.50588,0.08701
3232.57713,0.08601
3230.64839,0.08518
3228.71964,0.08424
3226.79090,0.08306
3224.86215,0.08191
3222.93341,0.08066
3221.00466,0.07910
3219.07592,0.07729
3217.14717,0.07566
3215.21843,0.07437
3213.28968,0.07299
3211.36094,0.07166
3209.43219,0.07071
3207.50345,0.06971
3205.57470,0.06855
3203.64596,0.06763
3201.71721,0.06679
3199.78846,0.06571
3197.85972,0.06493
3195.93097,0.06496
3194.00223,0.06525
3192.07348,0.06528
3190.14474,0.06507
3188.21599,0.06479
3186.28725,0.06479
3184.35850,0.06523
3182.42976,0.06571
3180.50101,0.06602
3178.57227,0.06651
3176.64352,0.06713
3174.71478,0.06742
3172.78603,0.06752
3170.85729,0.06787
3168.92854,0.06822
3166.99979,0.06829
3165.07105,0.06834
3163.14230,0.06848
3161.21356,0.06843
3159.28481,0.06810
3157.35607,0.06782
3155.42732,0.06771
3153.49858,0.06756
3151.56983,0.06711
3149.64109,0.06623
3147.71234,0.06541
3145.78360,0.06509
3143.85485,0.06510
3141.92611,0.06502
3139.99736,0.06478
3138.06861,0.06465
3136.13987,0.06478
3134.21112,0.06528
3132.28238,0.06604
3130.35363,0.06675
3128.42489,0.06726
3126.49614,0.06774
3124.56740,0.06841
3122.63865,0.06919
3120.70991,0.06990
3118.78116,0.07060
3116.85242,0.07123
3114.92367,0.07152
3112.99493,0.07177
3111.06618,0.07214
3109.13744,0.07225
3107.20869,0.07212
3105.27994,0.07197
3103.35120,0.07178
3101.42245,0.07170
3099.49371,0.07181
3097.56496,0.07190
3095.63622,0.07191
3093.70747,0.07191
3091.77873,0.07195
3089.84998,0.07191
3087.92124,0.07177
3085.99249,0.07171
3084.06375,0.07162
3082.13500,0.07126
3080.20626,0.07081
3078.27751,0.07062
3076.34877,0.07061
3074.42002,0.07050
3072.49127,0.07014
3070.56253,0.06963
3068.63378,0.06922
3066.70504,0.06884
3064.77629,0.06817
3062.84755,0.06728
3060.91880,0.06652
3058.99006,0.06602
3057.06131,0.06559
3055.13257,0.06506
3053.20382,0.06435
3051.27508,0.06353
3049.34633,0.06285
3047.41759,0.06238
3045.48884,0.06199
3043.56009,0.06157
3041.63135,0.06101
3039.70260,0.06028
3037.77386,0.05936
3035.84511,0.05834
3033.91637,0.05746
3031.98762,0.05656
3030.05888,0.05544
3028.13013,0.05420
3026.20139,0.05281
3024.27264,0.05121
3022.34390,0.04951
3020.41515,0.04789
3018.48641,0.04634
3016.55766,0.04459
3014.62892,0.04273
3012.70017,0.04094
3010.77142,0.03898
3008.84268,0.03686
3006.91393,0.03491
3004.98519,0.03313
3003.05644,0.03135
3001.12770,0.02953
2999.19895,0.02779
2997.27021,0.02627
2995.34146,0.02477
2993.41272,0.02308
2991.48397,0.02158
2989.55523,0.02048
2987.62648,0.01946
2985.69774,0.01838
2983.76899,0.01737
2981.84025,0.01663
2979.91150,0.01628
2977.98275,0.01598
2976.05401,0.01550
2974.12526,0.01510
2972.19652,0.01495
2970.26777,0.01490
2968.33903,0.01480
2966.41028,0.01473
2964.48154,0.01498
2962.55279,0.01559
2960.62405,0.01618
2958.69530,0.01644
2956.76656,0.01665
2954.83781,0.01711
2952.90907,0.01755
2950.98032,0.01778
2949.05157,0.01792
2947.12283,0.01800
2945.19408,0.01798
2943.26534,0.01784
2941.33659,0.01744
2939.40785,0.01684
2937.47910,0.01645
2935.55036,0.01636
2933.62161,0.01630
2931.69287,0.01625
2929.76412,0.01626
2927.83538,0.01632
2925.90663,0.01667
2923.97789,0.01725
2922.04914,0.01772
2920.12040,0.01804
2918.19165,0.01837
2916.26290,0.01874
2914.33416,0.01892
2912.40541,0.01885
2910.47667,0.01880
2908.54792,0.01901
2906.61918,0.01931
2904.69043,0.01952
2902.76169,0.01948
2900.83294,0.01924
2898.90420,0.01905
2896.97545,0.01893
2895.04671,0.01874
2893.11796,0.01860
2891.18922,0.01862
2889.26047,0.01868
2887.33172,0.01853
2885.40298,0.01815
2883.47423,0.01785
2881.54549,0.01792
2879.61674,0.01821
2877.68800,0.01835
2875.75925,0.01837
2873.83051,0.01846
2871.90176,0.01863
2869.97302,0.01871
2868.04427,0.01867
2866.11553,0.01875
2864.18678,0.01890
2862.25804,0.01889
2860.32929,0.01887
2858.40055,0.01890
2856.47180,0.01889
2854.54305,0.01900
2852.61431,0.01921
2850.68556,0.01923
2848.75682,0.01904
2846.82807,0.01882
2844.89933,0.01860
2842.97058,0.01845
2841.04184,0.01857
2839.11309,0.01896
2837.18435,0.01931
2835.25560,0.01953
2833.32686,0.01975
2831.39811,0.01991
2829.46937,0.01990
2827.54062,0.01999
2825.61188,0.02034
2823.68313,0.02075
2821.75438,0.02115
2819.82564,0.02161
2817.89689,0.02207
2815.96815,0.02252
2814.03940,0.02302
2812.11066,0.02354
2810.18191,0.02405
2808.25317,0.02476
2806.32442,0.02570
2804.39568,0.02676
2802.46693,0.02787
2800.53819,0.02880
2798.60944,0.02953
2796.68070,0.03030
2794.75195,0.03112
2792.82320,0.03207
2790.89446,0.03344
2788.96571,0.03533
2787.03697,0.03758
2785.10822,0.03996
2783.17948,0.04224
2781.25073,0.04428
2779.32199,0.04613
2777.39324,0.04789
2775.46450,0.04951
2773.53575,0.05078
2771.60701,0.05159
2769.67826,0.05207
2767.74952,0.05249
2765.82077,0.05303
2763.89203,0.05371
2761.96328,0.05450
2760.03453,0.05525
2758.10579,0.05575
2756.17704,0.05607
2754.24830,0.05631
2752.31955,0.05644
2750.39081,0.05643
2748.46206,0.05616
2746.53332,0.05558
2744.60457,0.05473
2742.67583,0.05349
2740.74708,0.05178
2738.81834,0.04981
2736.88959,0.04800
2734.96085,0.04659
2733.03210,0.04532
2731.10336,0.04382
2729.17461,0.04210
2727.24586,0.04014
2725.31712,0.03815
2723.38837,0.03705
2721.45963,0.03738
2719.53088,0.03879
2717.60214,0.04090
2715.67339,0.04340
2713.74465,0.04583
2711.81590,0.04792
2709.88716,0.04971
2707.95841,0.05126
2706.02967,0.05267
2704.10092,0.05404
2702.17218,0.05532
2700.24343,0.05645
2698.31468,0.05737
2696.38594,0.05792
2694.45719,0.05807
2692.52845,0.05793
2690.59970,0.05779
2688.67096,0.05788
2686.74221,0.05814
2684.81347,0.05821
2682.88472,0.05796
2680.95598,0.05763
2679.02723,0.05747
2677.09849,0.05758
2675.16974,0.05793
2673.24100,0.05846
2671.31225,0.05906
2669.38351,0.05954
2667.45476,0.05974
2665.52601,0.05970
2663.59727,0.05949
2661.66852,0.05923
2659.73978,0.05920
2657.81103,0.05965
2655.88229,0.06064
2653.95354,0.06184
2652.02480,0.06292
2650.09605,0.06384
2648.16731,0.06465
2646.23856,0.06524
2644.30982,0.06564
2642.38107,0.06622
2640.45233,0.06711
2638.52358,0.06805
2636.59484,0.06879
2634.66609,0.06906
2632.73734,0.06877
2630.80860,0.06820
2628.87985,0.06737
2626.95111,0.06627
2625.02236,0.06519
2623.09362,0.06434
2621.16487,0.06366
2619.23613,0.06326
2617.30738,0.06318
2615.37864,0.06329
2613.44989,0.06373
2611.52115,0.06471
2609.59240,0.06623
2607.66366,0.06806
2605.73491,0.06985
2603.80616,0.07139
2601.87742,0.07257
2599.94867,0.07332
2598.01993,0.07365
2596.09118,0.07352
2594.16244,0.07283
2592.23369,0.07165
2590.30495,0.07006
2588.37620,0.06814
2586.44746,0.06608
2584.51871,0.06434
2582.58997,0.06339
2580.66122,0.06335
2578.73248,0.06418
2576.80373,0.06569
2574.87499,0.06768
2572.94624,0.06998
2571.01749,0.07222
2569.08875,0.07408
2567.16000,0.07566
2565.23126,0.07698
2563.30251,0.07790
2561.37377,0.07845
2559.44502,0.07886
2557.51628,0.07926
2555.58753,0.07954
2553.65879,0.07979
2551.73004,0.08048
2549.80130,0.08170
2547.87255,0.08310
2545.94381,0.08430
2544.01506,0.08513
2542.08631,0.08573
2540.15757,0.08631
2538.22882,0.08686
2536.30008,0.08738
2534.37133,0.08812
2532.44259,0.08910
2530.51384,0.09006
2528.58510,0.09098
2526.65635,0.09194
2524.72761,0.09294
2522.79886,0.09396
2520.87012,0.09499
2518.94137,0.09614
2517.01263,0.09715
2515.08388,0.09780
2513.15514,0.09836
2511.22639,0.09896
2509.29764,0.09936
2507.36890,0.09959
2505.44015,0.09986
2503.51141,0.10031
2501.58266,0.10073
2499.65392,0.10071
2497.72517,0.10025
2495.79643,0.09976
2493.86768,0.09951
2491.93894,0.09957
2490.01019,0.09992
2488.08145,0.10050
2486.15270,0.10120
2484.22396,0.10176
2482.29521,0.10220
2480.36647,0.10275
2478.43772,0.10333
2476.50897,0.10388
2474.58023,0.10450
2472.65148,0.10517
2470.72274,0.10569
2468.79399,0.10599
2466.86525,0.10606
2464.93650,0.10585
2463.00776,0.10548
2461.07901,0.10516
2459.15027,0.10492
2457.22152,0.10458
2455.29278,0.10419
2453.36403,0.10389
2451.43529,0.10361
2449.50654,0.10324
2447.57779,0.10291
2445.64905,0.10263
2443.72030,0.10211
2441.79156,0.10123
2439.86281,0.10014
2437.93407,0.09889
2436.00532,0.09746
2434.07658,0.09599
2432.14783,0.09495
2430.21909,0.09470
2428.29034,0.09500
2426.36160,0.09549
2424.43285,0.09618
2422.50411,0.09716
2420.57536,0.09829
2418.64662,0.09933
2416.71787,0.10003
2414.78912,0.10037
2412.86038,0.10048
2410.93163,0.10035
2409.00289,0.10005
2407.07414,0.09975
2405.14540,0.09941
2403.21665,0.09892
2401.28791,0.09840
2399.35916,0.09820
2397.43042,0.09849
2395.50167,0.09900
2393.57293,0.09953
2391.64418,0.10015
2389.71544,0.10084
2387.78669,0.10143
2385.85795,0.10186
2383.92920,0.10207
2382.00045,0.10210
2380.07171,0.10210
2378.14296,0.10203
2376.21422,0.10187
2374.28547,0.10172
2372.35673,0.10165
2370.42798,0.10157
2368.49924,0.10137
2366.57049,0.10100
2364.64175,0.10054
2362.71300,0.10024
2360.78426,0.10027
2358.85551,0.10064
2356.92677,0.10118
2354.99802,0.10172
2353.06927,0.10231
2351.14053,0.10314
2349.21178,0.10410
2347.28304,0.10505
2345.35429,0.10582
2343.42555,0.10641
2341.49680,0.10698
2339.56806,0.10744
2337.63931,0.10765
2335.71057,0.10776
2333.78182,0.10808
2331.85308,0.10877
2329.92433,0.10971
2327.99559,0.11065
2326.06684,0.11141
2324.13810,0.11200
2322.20935,0.11263
2320.28060,0.11345
2318.35186,0.11434
2316.42311,0.11523
2314.49437,0.11589
2312.56562,0.11617
2310.63688,0.11629
2308.70813,0.11645
2306.77939,0.11651
2304.85064,0.11635
2302.92190,0.11613
2300.99315,0.11602
2299.06441,0.11598
2297.13566,0.11598
2295.20692,0.11617
2293.27817,0.11655
2291.34943,0.11691
2289.42068,0.11719
2287.49193,0.11745
2285.56319,0.11766
2283.63444,0.11776
2281.70570,0.11758
2279.77695,0.11712
2277.84821,0.11658
2275.91946,0.11594
2273.99072,0.11512
2272.06197,0.11414
2270.13323,0.11318
2268.20448,0.11258
2266.27574,0.11234
2264.34699,0.11203
2262.41825,0.11138
2260.48950,0.11065
2258.56075,0.11015
2256.63201,0.10979
2254.70326,0.10964
2252.77452,0.11012
2250.84577,0.11130
2248.91703,0.11280
2246.98828,0.11422
2245.05954,0.11533
2243.13079,0.11610
2241.20205,0.11668
2239.27330,0.11699
2237.34456,0.11684
2235.41581,0.11641
2233.48707,0.11605
2231.55832,0.11588
2229.62958,0.11586
2227.70083,0.11609
2225.77208,0.11670
2223.84334,0.11748
2221.91459,0.11809
2219.98585,0.11844
2218.05710,0.11850
2216.12836,0.11838
2214.19961,0.11828
2212.27087,0.11820
2210.34212,0.11803
2208.41338,0.11779
2206.48463,0.11746
2204.55589,0.11694
2202.62714,0.11637
2200.69840,0.11587
2198.76965,0.11551
2196.84090,0.11533
2194.91216,0.11521
2192.98341,0.11508
2191.05467,0.11496
2189.12592,0.11481
2187.19718,0.11460
2185.26843,0.11438
2183.33969,0.11420
2181.41094,0.11410
2179.48220,0.11405
2177.55345,0.11391
2175.62471,0.11359
2173.69596,0.11317
2171.76722,0.11292
2169.83847,0.11308
2167.90973,0.11373
2165.98098,0.11469
2164.05223,0.11573
2162.12349,0.11676
2160.19474,0.11760
2158.26600,0.11827
2156.33725,0.11888
2154.40851,0.11949
2152.47976,0.12013
2150.55102,0.12077
2148.62227,0.12142
2146.69353,0.12202
2144.76478,0.12235
2142.83604,0.12219
2140.90729,0.12147
2138.97855,0.12027
2137.04980,0.11886
2135.12106,0.11765
2133.19231,0.11683
2131.26356,0.11640
2129.33482,0.11671
2127.40607,0.11814
2125.47733,0.12032
2123.54858,0.12260
2121.61984,0.12471
2119.69109,0.12663
2117.76235,0.12820
2115.83360,0.12944
2113.90486,0.13040
2111.97611,0.13091
2110.04737,0.13106
2108.11862,0.13122
2106.18988,0.13146
2104.26113,0.13165
2102.33238,0.13172
2100.40364,0.13168
2098.47489,0.13159
2096.54615,0.13163
2094.61740,0.13178
2092.68866,0.13183
2090.75991,0.13186
2088.83117,0.13207
2086.90242,0.13263
2084.97368,0.13358
2083.04493,0.13460
2081.11619,0.13545
2079.18744,0.13637
2077.25870,0.13747
2075.32995,0.13853
2073.40121,0.13938
2071.47246,0.13995
2069.54371,0.14030
2067.61497,0.14064
2065.68622,0.14099
2063.75748,0.14112
2061.82873,0.14099
2059.89999,0.14075
2057.97124,0.14048
2056.04250,0.14022
2054.11375,0.14001
2052.18501,0.13981
2050.25626,0.13967
2048.32752,0.13971
2046.39877,0.13991
2044.47003,0.14007
2042.54128,0.14017
2040.61254,0.14022
2038.68379,0.14011
2036.75504,0.13984
2034.82630,0.13959
2032.89755,0.13940
2030.96881,0.13922
2029.04006,0.13919
2027.11132,0.13937
2025.18257,0.13968
2023.25383,0.14004
2021.32508,0.14044
2019.39634,0.14075
2017.46759,0.14090
2015.53885,0.14097
2013.61010,0.14103
2011.68136,0.14106
2009.75261,0.14106
2007.82386,0.14110
2005.89512,0.14116
2003.96637,0.14112
2002.03763,0.14091
2000.10888,0.14060
1998.18014,0.14023
1996.25139,0.13983
1994.32265,0.13952
1992.39390,0.13951
1990.46516,0.13977
1988.53641,0.14006
1986.60767,0.14025
1984.67892,0.14026
1982.75018,0.14022
1980.82143,0.14046
1978.89269,0.14092
1976.96394,0.14116
1975.03519,0.14104
1973.10645,0.14073
1971.17770,0.14044
1969.24896,0.14021
1967.32021,0.13996
1965.39147,0.13961
1963.46272,0.13918
1961.53398,0.13873
1959.60523,0.13841
1957.67649,0.13823
1955.74774,0.13813
1953.81900,0.13813
1951.89025,0.13821
1949.96151,0.13824
1948.03276,0.13821
1946.10402,0.13827
1944.17527,0.13843
1942.24652,0.13855
1940.31778,0.13854
1938.38903,0.13842
1936.46029,0.13833
1934.53154,0.13841
1932.60280,0.13850
1930.67405,0.13837
1928.74531,0.13812
1926.81656,0.13793
1924.88782,0.13775
1922.95907,0.13733
1921.03033,0.13674
1919.10158,0.13632
1917.17284,0.13606
1915.24409,0.13583
1913.31534,0.13571
1911.38660,0.13566
1909.45785,0.13550
1907.52911,0.13525
1905.60036,0.13505
1903.67162,0.13489
1901.74287,0.13460
1899.81413,0.13402
1897.88538,0.13315
1895.95664,0.13218
1894.02789,0.13149
1892.09915,0.13141
1890.17040,0.13201
1888.24166,0.13308
1886.31291,0.13412
1884.38417,0.13484
1882.45542,0.13530
1880.52667,0.13573
1878.59793,0.13619
1876.66918,0.13651
1874.74044,0.13661
1872.81169,0.13658
1870.88295,0.13665
1868.95420,0.13685
1867.02546,0.13685
1865.09671,0.13651
1863.16797,0.13594
1861.23922,0.13532
1859.31048,0.13487
1857.38173,0.13456
1855.45299,0.13423
1853.52424,0.13406
1851.59549,0.13408
1849.66675,0.13402
1847.73800,0.13379
1845.80926,0.13343
1843.88051,0.13291
1841.95177,0.13231
1840.02302,0.13167
1838.09428,0.13098
1836.16553,0.13034
1834.23679,0.12991
1832.30804,0.12976
1830.37930,0.12988
1828.45055,0.13011
1826.52181,0.13056
1824.59306,0.13140
1822.66432,0.13231
1820.73557,0.13294
1818.80682,0.13326
1816.87808,0.13339
1814.94933,0.13346
1813.02059,0.13370
1811.09184,0.13407
1809.16310,0.13419
1807.23435,0.13398
1805.30561,0.13364
1803.37686,0.13322
1801.44812,0.13269
1799.51937,0.13216
1797.59063,0.13175
1795.66188,0.13130
1793.73314,0.13070
1791.80439,0.13008
1789.87565,0.12967
1787.94690,0.12939
1786.01815,0.12908
1784.08941,0.12880
1782.16066,0.12864
1780.23192,0.12850
1778.30317,0.12823
1776.37443,0.12773
1774.44568,0.12699
1772.51694,0.12613
1770.58819,0.12532
1768.65945,0.12446
1766.73070,0.12337
1764.80196,0.12212
1762.87321,0.12079
1760.94447,0.11936
1759.01572,0.11800
1757.08697,0.11658
1755.15823,0.11493
1753.22948,0.11285
1751.30074,0.10998
1749.37199,0.10671
1747.44325,0.10375
1745.51450,0.10120
1743.58576,0.09921
1741.65701,0.09812
1739.72827,0.09795
1737.79952,0.09850
1735.87078,0.09944
1733.94203,0.10042
1732.01329,0.10127
1730.08454,0.10206
1728.15580,0.10282
1726.22705,0.10363
1724.29830,0.10453
1722.36956,0.10535
1720.44081,0.10597
1718.51207,0.10624
1716.58332,0.10602
1714.65458,0.10556
1712.72583,0.10521
1710.79709,0.10500
1708.86834,0.10474
1706.93960,0.10440
1705.01085,0.10404
1703.08211,0.10353
1701.15336,0.10277
1699.22462,0.10211
1697.29587,0.10173
1695.36713,0.10138
1693.43838,0.10107
1691.50963,0.10087
1689.58089,0.10074
1687.65214,0.10075
1685.72340,0.10093
1683.79465,0.10106
1681.86591,0.10115
1679.93716,0.10142
1678.00842,0.10176
1676.07967,0.10196
1674.15093,0.10199
1672.22218,0.10196
1670.29344,0.10195
1668.36469,0.10191
1666.43595,0.10181
1664.50720,0.10167
1662.57845,0.10146
1660.64971,0.10115
1658.72096,0.10068
1656.79222,0.10002
1654.86347,0.09888
1652.93473,0.09669
1651.00598,0.09413
1649.07724,0.09216
1647.14849,0.09082
1645.21975,0.09052
1643.29100,0.09117
1641.36226,0.09212
1639.43351,0.09302
1637.50477,0.09384
1635.57602,0.09457
1633.64728,0.09505
1631.71853,0.09525
1629.78978,0.09538
1627.86104,0.09555
1625.93229,0.09567
1624.00355,0.09574
1622.07480,0.09598
1620.14606,0.09644
1618.21731,0.09684
1616.28857,0.09699
1614.35982,0.09692
1612.43108,0.09652
1610.50233,0.09597
1608.57359,0.09583
1606.64484,0.09648
1604.71610,0.09765
1602.78735,0.09886
1600.85861,0.09997
1598.92986,0.10098
1597.00111,0.10186
1595.07237,0.10261
1593.14362,0.10319
1591.21488,0.10351
1589.28613,0.10363
1587.35739,0.10374
1585.42864,0.10392
1583.49990,0.10402
1581.57115,0.10394
1579.64241,0.10389
1577.71366,0.10394
1575.78492,0.10371
1573.85617,0.10323
1571.92743,0.10285
1569.99868,0.10239
1568.06993,0.10183
1566.14119,0.10131
1564.21244,0.10068
1562.28370,0.09993
1560.35495,0.09902
1558.42621,0.09788
1556.49746,0.09708
1554.56872,0.09655
1552.63997,0.09581
1550.71123,0.09500
1548.78248,0.09437
1546.85374,0.09379
1544.92499,0.09306
1542.99625,0.09215
1541.06750,0.09102
1539.13876,0.08988
1537.21001,0.08913
1535.28126,0.08867
1533.35252,0.08843
1531.42377,0.08850
1529.49503,0.08873
1527.56628,0.08892
1525.63754,0.08910
1523.70879,0.08932
1521.78005,0.08935
1519.85130,0.08903
1517.92256,0.08839
1515.99381,0.08740
1514.06507,0.08602
1512.13632,0.08432
1510.20758,0.08260
1508.27883,0.08086
1506.35008,0.07866
1504.42134,0.07633
1502.49259,0.07428
1500.56385,0.07217
1498.63510,0.06974
1496.70636,0.06697
1494.77761,0.06403
1492.84887,0.06122
1490.92012,0.05821
1488.99138,0.05457
1487.06263,0.05055
1485.13389,0.04648
1483.20514,0.04235
1481.27640,0.03810
1479.34765,0.03386
1477.41891,0.02974
1475.49016,0.02579
1473.56141,0.02224
1471.63267,0.01957
1469.70392,0.01808
1467.77518,0.01727
1465.84643,0.01668
1463.91769,0.01643
1461.98894,0.01652
1460.06020,0.01659
1458.13145,0.01648
1456.20271,0.01659
1454.27396,0.01708
1452.34522,0.01762
1450.41647,0.01802
1448.48773,0.01824
1446.55898,0.01848
1444.63024,0.01898
1442.70149,0.01966
1440.77274,0.02033
1438.84400,0.02092
1436.91525,0.02172
1434.98651,0.02372
1433.05776,0.02761
1431.12902,0.03297
1429.20027,0.03843
1427.27153,0.04275
1425.34278,0.04582
1423.41404,0.04806
1421.48529,0.04984
1419.55655,0.05145
1417.62780,0.05283
1415.69906,0.05384
1413.77031,0.05455
1411.84156,0.05502
1409.91282,0.05533
1407.98407,0.05544
1406.05533,0.05510
1404.12658,0.05429
1402.19784,0.05327
1400.26909,0.05213
1398.34035,0.05058
1396.41160,0.04843
1394.48286,0.04559
1392.55411,0.04206
1390.62537,0.03789
1388.69662,0.03281
1386.76788,0.02699
1384.83913,0.02184
1382.91039,0.01852
1380.98164,0.01698
1379.05289,0.01674
1377.12415,0.01736
1375.19540,0.01828
1373.26666,0.01914
1371.33791,0.02033
1369.40917,0.02231
1367.48042,0.02450
1365.55168,0.02567
1363.62293,0.02548
1361.69419,0.02465
1359.76544,0.02421
1357.83670,0.02486
1355.90795,0.02694
1353.97921,0.03050
1352.05046,0.03506
1350.12172,0.03999
1348.19297,0.04487
1346.26422,0.04947
1344.33548,0.05349
1342.40673,0.05670
1340.47799,0.05886
1338.54924,0.05984
1336.62050,0.05959
1334.69175,0.05800
1332.76301,0.05531
1330.83426,0.05277
1328.90552,0.05197
1326.97677,0.05345
1325.04803,0.05677
1323.11928,0.06112
1321.19054,0.06526
1319.26179,0.06833
1317.33304,0.07036
1315.40430,0.07143
1313.47555,0.07100
1311.54681,0.06819
1309.61806,0.06225
1307.68932,0.05372
1305.76057,0.04579
1303.83183,0.04253
1301.90308,0.04439
1299.97434,0.04793
1298.04559,0.05057
1296.11685,0.05280
1294.18810,0.05602
1292.25936,0.06044
1290.33061,0.06497
1288.40187,0.06859
1286.47312,0.07131
1284.54437,0.07370
1282.61563,0.07593
1280.68688,0.07768
1278.75814,0.07894
1276.82939,0.07981
1274.90065,0.08014
1272.97190,0.07993
1271.04316,0.07924
1269.11441,0.07795
1267.18567,0.07599
1265.25692,0.07306
1263.32818,0.06884
1261.39943,0.06315
1259.47069,0.05611
1257.54194,0.04944
1255.61320,0.04656
1253.68445,0.04952
1251.75570,0.05669
1249.82696,0.06455
1247.89821,0.07071
1245.96947,0.07493
1244.04072,0.07792
1242.11198,0.08019
1240.18323,0.08200
1238.25449,0.08330
1236.32574,0.08388
1234.39700,0.08399
1232.46825,0.08406
1230.53951,0.08402
1228.61076,0.08336
1226.68202,0.08166
1224.75327,0.07883
1222.82452,0.07533
1220.89578,0.07228
1218.96703,0.07118
1217.03829,0.07264
1215.10954,0.07582
1213.18080,0.07913
1211.25205,0.08152
1209.32331,0.08288
1207.39456,0.08349
1205.46582,0.08367
1203.53707,0.08379
1201.60833,0.08396
1199.67958,0.08404
1197.75084,0.08416
1195.82209,0.08421
1193.89335,0.08377
1191.96460,0.08304
1190.03585,0.08256
1188.10711,0.08193
1186.17836,0.08018
1184.24962,0.07700
1182.32087,0.07251
1180.39213,0.06682
1178.46338,0.06000
1176.53464,0.05210
1174.60589,0.04372
1172.67715,0.03641
1170.74840,0.03142
1168.81966,0.02872
1166.89091,0.02785
1164.96217,0.02832
1163.03342,0.02938
1161.10467,0.03048
1159.17593,0.03157
1157.24718,0.03273
1155.31844,0.03399
1153.38969,0.03547
1151.46095,0.03759
1149.53220,0.04085
1147.60346,0.04533
1145.67471,0.05057
1143.74597,0.05598
1141.81722,0.06133
1139.88848,0.06639
1137.95973,0.07081
1136.03099,0.07459
1134.10224,0.07771
1132.17350,0.08001
1130.24475,0.08164
1128.31600,0.08286
1126.38726,0.08368
1124.45851,0.08397
1122.52977,0.08365
1120.60102,0.08291
1118.67228,0.08207
1116.74353,0.08129
1114.81479,0.08033
1112.88604,0.07894
1110.95730,0.07695
1109.02855,0.07377
1107.09981,0.06905
1105.17106,0.06406
1103.24232,0.06106
1101.31357,0.06158
1099.38483,0.06548
1097.45608,0.07108
1095.52733,0.07636
1093.59859,0.08052
1091.66984,0.08400
1089.74110,0.08729
1087.81235,0.09020
1085.88361,0.09230
1083.95486,0.09370
1082.02612,0.09486
1080.09737,0.09608
1078.16863,0.09732
1076.23988,0.09825
1074.31114,0.09882
1072.38239,0.09927
1070.45365,0.09969
1068.52490,0.10001
1066.59615,0.10003
1064.66741,0.09962
1062.73866,0.09888
1060.80992,0.09793
1058.88117,0.09690
1056.95243,0.09578
1055.02368,0.09428
1053.09494,0.09185
1051.16619,0.08805
1049.23745,0.08285
1047.30870,0.07703
1045.37996,0.07261
1043.45121,0.07208
1041.52247,0.07585
1039.59372,0.08113
1037.66498,0.08506
1035.73623,0.08766
1033.80748,0.09017
1031.87874,0.09257
1029.94999,0.09409
1028.02125,0.09453
1026.09250,0.09421
1024.16376,0.09328
1022.23501,0.09168
1020.30627,0.08966
1018.37752,0.08735
1016.44878,0.08453
1014.52003,0.08106
1012.59129,0.07684
1010.66254,0.07160
1008.73380,0.06523
1006.80505,0.05797
1004.87631,0.05034
1002.94756,0.04296
1001.01881,0.03685
999.09007,0.03330
997.16132,0.03293
995.23258,0.03582
993.30383,0.04178
991.37509,0.04923
989.44634,0.05602
987.51760,0.06054
985.58885,0.06169
983.66011,0.05898
981.73136,0.05262
979.80262,0.04380
977.87387,0.03510
975.94513,0.02902
974.01638,0.02646
972.08763,0.02759
970.15889,0.03254
968.23014,0.04079
966.30140,0.05118
964.37265,0.06222
962.44391,0.07237
960.51516,0.08087
958.58642,0.08798
956.65767,0.09385
954.72893,0.09854
952.80018,0.10215
950.87144,0.10442
948.94269,0.10522
947.01395,0.10453
945.08520,0.10182
943.15646,0.09733
941.22771,0.09388
939.29896,0.09540
937.37022,0.10240
935.44147,0.11124
933.51273,0.11829
931.58398,0.12261
929.65524,0.12505
927.72649,0.12662
925.79775,0.12756
923.86900,0.12779
921.94026,0.12768
920.01151,0.12729
918.08277,0.12623
916.15402,0.12447
914.22528,0.12212
912.29653,0.11930
910.36779,0.11608
908.43904,0.11142
906.51029,0.10334
904.58155,0.09085
902.65280,0.07603
900.72406,0.06429
898.79531,0.06113
896.86657,0.06783
894.93782,0.08052
893.00908,0.09360
891.08033,0.10334
889.15159,0.10891
887.22284,0.11180
885.29410,0.11394
883.36535,0.11583
881.43661,0.11677
879.50786,0.11631
877.57911,0.11525
875.65037,0.11456
873.72162,0.11401
871.79288,0.11312
869.86413,0.11206
867.93539,0.11101
866.00664,0.10979
864.07790,0.10813
862.14915,0.10574
860.22041,0.10246
858.29166,0.09886
856.36292,0.09524
854.43417,0.09080
852.50543,0.08529
850.57668,0.07894
848.64794,0.07106
846.71919,0.06122
844.79044,0.05045
842.86170,0.04154
840.93295,0.03825
839.00421,0.04238
837.07546,0.05213
835.14672,0.06347
833.21797,0.07315
831.28923,0.08069
829.36048,0.08699
827.43174,0.09224
825.50299,0.09608
823.57425,0.09851
821.64550,0.09949
819.71676,0.09854
817.78801,0.09512
815.85926,0.08857
813.93052,0.07871
812.00177,0.06776
810.07303,0.06032
808.14428,0.06000
806.21554,0.06689
804.28679,0.07755
802.35805,0.08784
800.42930,0.09599
798.50056,0.10238
796.57181,0.10779
794.64307,0.11280
792.71432,0.11785
790.78558,0.12281
788.85683,0.12746
786.92809,0.13218
784.99934,0.13705
783.07059,0.14136
781.14185,0.14458
779.21310,0.14671
777.28436,0.14811
775.35561,0.14909
773.42687,0.14945
771.49812,0.14925
769.56938,0.14918
767.64063,0.14955
765.71189,0.15008
763.78314,0.15052
761.85440,0.15068
759.92565,0.15058
757.99691,0.15039
756.06816,0.15020
754.13942,0.15047
752.21067,0.15145
750.28192,0.15231
748.35318,0.15245
746.42443,0.15228
744.49569,0.15200
742.56694,0.15135
740.63820,0.15038
738.70945,0.14954
736.78071,0.14916
734.85196,0.14856
732.92322,0.14673
730.99447,0.14419
729.06573,0.14188
727.13698,0.13961
725.20824,0.13716
723.27949,0.13455
721.35074,0.13309
719.42200,0.13489
717.49325,0.13897
715.56451,0.14244
713.63576,0.14473
711.70702,0.14659
709.77827,0.14797
707.84953,0.14851
705.92078,0.14841
703.99204,0.14809
702.06329,0.14813
700.13455,0.14885
698.20580,0.14969
696.27706,0.15006
694.34831,0.15028
692.41957,0.15071
690.49082,0.15113
688.56207,0.15140
686.63333,0.15175
684.70458,0.15209
682.77584,0.15199
680.84709,0.15153
678.91835,0.15147
676.98960,0.15191
675.06086,0.15235
673.13211,0.15253
671.20337,0.15229
669.27462,0.15194
667.34588,0.15229
665.41713,0.15297
663.48839,0.15303
661.55964,0.15275
659.63090,0.15258
657.70215,0.15248
655.77340,0.15281
653.84466,0.15363
651.91591,0.15387
649.98717,0.15293
648.05842,0.15189
646.12968,0.15189
644.20093,0.15282
642.27219,0.15391
640.34344,0.15448
638.41470,0.15439
636.48595,0.15425
634.55721,0.15476
632.62846,0.15553
630.69972,0.15569
628.77097,0.15521
626.84222,0.15421
624.91348,0.15300
622.98473,0.15280
621.05599,0.15360
619.12724,0.15359
617.19850,0.15255
615.26975,0.15196
613.34101,0.15214
611.41226,0.15231
609.48352,0.15193
607.55477,0.15134
605.62603,0.15153
603.69728,0.15238
601.76854,0.15283
599.83979,0.15313
