7497.03301,0.12729
7495.10426,0.12480
7493.17552,0.12310
7491.24677,0.12322
7489.31803,0.12070
7487.38928,0.11567
7485.46054,0.11482
7483.53179,0.11817
7481.60305,0.12012
7479.67430,0.11940
7477.74556,0.11850
7475.81681,0.11842
7473.88807,0.11761
7471.95932,0.11778
7470.03057,0.12022
7468.10183,0.12090
7466.17308,0.11875
7464.24434,0.11864
7462.31559,0.12168
7460.38685,0.12363
7458.45810,0.12328
7456.52936,0.12224
7454.60061,0.12059
7452.67187,0.12041
7450.74312,0.12310
7448.81438,0.12454
7446.88563,0.12112
7444.95689,0.11668
7443.02814,0.11430
7441.09940,0.11242
7439.17065,0.11285
7437.24190,0.11686
7435.31316,0.12005
7433.38441,0.12027
7431.45567,0.11930
7429.52692,0.11902
7427.59818,0.11929
7425.66943,0.11902
7423.74069,0.11881
7421.81194,0.11938
7419.88320,0.11866
7417.95445,0.11704
7416.02571,0.11807
7414.09696,0.12172
7412.16822,0.12507
7410.23947,0.12687
7408.31073,0.12698
7406.38198,0.12380
7404.45323,0.11789
7402.52449,0.11558
7400.59574,0.11710
7398.66700,0.11610
7396.73825,0.11413
7394.80951,0.11573
7392.88076,0.11819
7390.95202,0.11827
7389.02327,0.11796
7387.09453,0.11822
7385.16578,0.11724
7383.23704,0.11776
7381.30829,0.12139
7379.37955,0.12402
7377.45080,0.12430
7375.52205,0.12402
7373.59331,0.12296
7371.66456,0.12078
7369.73582,0.11894
7367.80707,0.11903
7365.87833,0.11986
7363.94958,0.11920
7362.02084,0.11714
7360.09209,0.11559
7358.16335,0.11568
7356.23460,0.11661
7354.30586,0.11832
7352.37711,0.12065
7350.44837,0.12158
7348.51962,0.12109
7346.59088,0.11969
7344.66213,0.11657
7342.73338,0.11243
7340.80464,0.10962
7338.87589,0.10985
7336.94715,0.11174
7335.01840,0.11136
7333.08966,0.10811
7331.16091,0.10697
7329.23217,0.11114
7327.30342,0.11666
7325.37468,0.11834
7323.44593,0.11600
7321.51719,0.11377
7319.58844,0.11456
7317.65970,0.11763
7315.73095,0.12087
7313.80221,0.12256
7311.87346,0.12164
7309.94471,0.11791
7308.01597,0.11455
7306.08722,0.11560
7304.15848,0.11812
7302.22973,0.11832
7300.30099,0.11708
7298.37224,0.11447
7296.44350,0.11228
7294.51475,0.11436
7292.58601,0.11786
7290.65726,0.11762
7288.72852,0.11484
7286.79977,0.11393
7284.87103,0.11547
7282.94228,0.11667
7281.01353,0.11618
7279.08479,0.11568
7277.15604,0.11730
7275.22730,0.11899
7273.29855,0.11845
7271.36981,0.11829
7269.44106,0.11778
7267.51232,0.11504
7265.58357,0.11345
7263.65483,0.11450
7261.72608,0.11539
7259.79734,0.11522
7257.86859,0.11435
7255.93985,0.11381
7254.01110,0.11443
7252.08236,0.11430
7250.15361,0.11225
7248.22486,0.11092
7246.29612,0.11320
7244.36737,0.11849
7242.43863,0.12369
7240.50988,0.12483
7238.58114,0.12023
7236.65239,0.11559
7234.72365,0.11561
7232.79490,0.11721
7230.86616,0.11782
7228.93741,0.11739
7227.00867,0.11663
7225.07992,0.11651
7223.15118,0.11611
7221.22243,0.11474
7219.29369,0.11376
7217.36494,0.11500
7215.43619,0.11767
7213.50745,0.11948
7211.57870,0.12008
7209.64996,0.12026
7207.72121,0.12032
7205.79247,0.12020
7203.86372,0.11991
7201.93498,0.11987
7200.00623,0.12101
7198.07749,0.12154
7196.14874,0.11917
7194.22000,0.11752
7192.29125,0.11814
7190.36251,0.11823
7188.43376,0.11951
7186.50501,0.12184
7184.57627,0.12129
7182.64752,0.11999
7180.71878,0.12045
7178.79003,0.12022
7176.86129,0.11898
7174.93254,0.11848
7173.00380,0.11867
7171.07505,0.11867
7169.14631,0.11806
7167.21756,0.11702
7165.28882,0.11522
7163.36007,0.11372
7161.43133,0.11495
7159.50258,0.11735
7157.57384,0.11737
7155.64509,0.11659
7153.71634,0.11790
7151.78760,0.11978
7149.85885,0.11911
7147.93011,0.11497
7146.00136,0.11088
7144.07262,0.11147
7142.14387,0.11476
7140.21513,0.11624
7138.28638,0.11486
7136.35764,0.11329
7134.42889,0.11493
7132.50015,0.11772
7130.57140,0.11881
7128.64266,0.12114
7126.71391,0.12455
7124.78516,0.12386
7122.85642,0.11939
7120.92767,0.11672
7118.99893,0.11682
7117.07018,0.11629
7115.14144,0.11634
7113.21269,0.11919
7111.28395,0.12242
7109.35520,0.12529
7107.42646,0.12596
7105.49771,0.12108
7103.56897,0.11593
7101.64022,0.11531
7099.71148,0.11468
7097.78273,0.11218
7095.85399,0.11066
7093.92524,0.11181
7091.99649,0.11507
7090.06775,0.11657
7088.13900,0.11487
7086.21026,0.11439
7084.28151,0.11628
7082.35277,0.11522
7080.42402,0.11030
7078.49528,0.10783
7076.56653,0.10979
7074.63779,0.11204
7072.70904,0.11392
7070.78030,0.11776
7068.85155,0.12054
7066.92281,0.11841
7064.99406,0.11533
7063.06532,0.11582
7061.13657,0.11757
7059.20782,0.11856
7057.27908,0.11941
7055.35033,0.12043
7053.42159,0.12093
7051.49284,0.12006
7049.56410,0.11808
7047.63535,0.11599
7045.70661,0.11545
7043.77786,0.11619
7041.84912,0.11721
7039.92037,0.11973
7037.99163,0.12094
7036.06288,0.11733
7034.13414,0.11252
7032.20539,0.11115
7030.27664,0.11235
7028.34790,0.11367
7026.41915,0.11499
7024.49041,0.11516
7022.56166,0.11396
7020.63292,0.11542
7018.70417,0.11916
7016.77543,0.12092
7014.84668,0.12125
7012.91794,0.12167
7010.98919,0.12150
7009.06045,0.12120
7007.13170,0.11950
7005.20296,0.11486
7003.27421,0.11222
7001.34547,0.11629
6999.41672,0.12204
6997.48797,0.12282
6995.55923,0.11997
6993.63048,0.11673
6991.70174,0.11366
6989.77299,0.11210
6987.84425,0.11288
6985.91550,0.11517
6983.98676,0.11778
6982.05801,0.11977
6980.12927,0.12033
6978.20052,0.11905
6976.27178,0.11787
6974.34303,0.11828
6972.41429,0.11773
6970.48554,0.11623
6968.55680,0.11706
6966.62805,0.11894
6964.69930,0.11849
6962.77056,0.11683
6960.84181,0.11620
6958.91307,0.11526
6956.98432,0.11338
6955.05558,0.11385
6953.12683,0.11725
6951.19809,0.12058
6949.26934,0.12191
6947.34060,0.11933
6945.41185,0.11449
6943.48311,0.11286
6941.55436,0.11393
6939.62562,0.11419
6937.69687,0.11455
6935.76812,0.11593
6933.83938,0.11683
6931.91063,0.11765
6929.98189,0.11942
6928.05314,0.11926
6926.12440,0.11614
6924.19565,0.11509
6922.26691,0.11721
6920.33816,0.11846
6918.40942,0.11902
6916.48067,0.11980
6914.55193,0.11877
6912.62318,0.11697
6910.69444,0.11681
6908.76569,0.11689
6906.83695,0.11528
6904.90820,0.11461
6902.97945,0.11766
6901.05071,0.12116
6899.12196,0.12079
6897.19322,0.11748
6895.26447,0.11548
6893.33573,0.11657
6891.40698,0.11875
6889.47824,0.12095
6887.54949,0.12282
6885.62075,0.12330
6883.69200,0.12324
6881.76326,0.12320
6879.83451,0.12106
6877.90577,0.11786
6875.97702,0.11816
6874.04828,0.12158
6872.11953,0.12311
6870.19078,0.12180
6868.26204,0.11984
6866.33329,0.11816
6864.40455,0.11678
6862.47580,0.11558
6860.54706,0.11436
6858.61831,0.11320
6856.68957,0.11342
6854.76082,0.11542
6852.83208,0.11678
6850.90333,0.11685
6848.97459,0.11783
6847.04584,0.11888
6845.11710,0.11739
6843.18835,0.11510
6841.25960,0.11432
6839.33086,0.11383
6837.40211,0.11298
6835.47337,0.11334
6833.54462,0.11576
6831.61588,0.11820
6829.68713,0.11795
6827.75839,0.11594
6825.82964,0.11495
6823.90090,0.11599
6821.97215,0.11886
6820.04341,0.12207
6818.11466,0.12360
6816.18592,0.12283
6814.25717,0.11979
6812.32843,0.11658
6810.39968,0.11651
6808.47093,0.11875
6806.54219,0.12037
6804.61344,0.12159
6802.68470,0.12287
6800.75595,0.12233
6798.82721,0.11929
6796.89846,0.11652
6794.96972,0.11711
6793.04097,0.12003
6791.11223,0.12111
6789.18348,0.11915
6787.25474,0.11712
6785.32599,0.11727
6783.39725,0.11819
6781.46850,0.11811
6779.53975,0.11737
6777.61101,0.11635
6775.68226,0.11634
6773.75352,0.11816
6771.82477,0.11959
6769.89603,0.11915
6767.96728,0.11772
6766.03854,0.11659
6764.10979,0.11619
6762.18105,0.11539
6760.25230,0.11346
6758.32356,0.11168
6756.39481,0.11145
6754.46607,0.11191
6752.53732,0.11257
6750.60858,0.11550
6748.67983,0.12024
6746.75108,0.12248
6744.82234,0.12150
6742.89359,0.12034
6740.96485,0.11910
6739.03610,0.11696
6737.10736,0.11647
6735.17861,0.11905
6733.24987,0.12139
6731.32112,0.12088
6729.39238,0.11898
6727.46363,0.11842
6725.53489,0.12019
6723.60614,0.12169
6721.67740,0.12108
6719.74865,0.11985
6717.81991,0.11805
6715.89116,0.11617
6713.96241,0.11612
6712.03367,0.11714
6710.10492,0.11801
6708.17618,0.11896
6706.24743,0.11913
6704.31869,0.11827
6702.38994,0.11708
6700.46120,0.11674
6698.53245,0.11884
6696.60371,0.12131
6694.67496,0.12100
6692.74622,0.11953
6690.81747,0.11870
6688.88873,0.11888
6686.95998,0.11971
6685.03123,0.11958
6683.10249,0.11942
6681.17374,0.11991
6679.24500,0.11873
6677.31625,0.11604
6675.38751,0.11518
6673.45876,0.11718
6671.53002,0.11928
6669.60127,0.11918
6667.67253,0.11701
6665.74378,0.11471
6663.81504,0.11501
6661.88629,0.11757
6659.95755,0.11975
6658.02880,0.12090
6656.10006,0.12119
6654.17131,0.12047
6652.24256,0.11872
6650.31382,0.11744
6648.38507,0.11792
6646.45633,0.11843
6644.52758,0.11813
6642.59884,0.11840
6640.67009,0.11876
6638.74135,0.11830
6636.81260,0.11848
6634.88386,0.12043
6632.95511,0.12164
6631.02637,0.12076
6629.09762,0.12053
6627.16888,0.12118
6625.24013,0.12039
6623.31139,0.11886
6621.38264,0.11797
6619.45389,0.11721
6617.52515,0.11579
6615.59640,0.11390
6613.66766,0.11352
6611.73891,0.11604
6609.81017,0.11925
6607.88142,0.12091
6605.95268,0.12173
6604.02393,0.12210
6602.09519,0.12108
6600.16644,0.11908
6598.23770,0.11793
6596.30895,0.11860
6594.38021,0.12016
6592.45146,0.12145
6590.52271,0.12265
6588.59397,0.12344
6586.66522,0.12313
6584.73648,0.12288
6582.80773,0.12332
6580.87899,0.12367
6578.95024,0.12331
6577.02150,0.12224
6575.09275,0.12186
6573.16401,0.12231
6571.23526,0.12173
6569.30652,0.11990
6567.37777,0.11782
6565.44903,0.11679
6563.52028,0.11756
6561.59154,0.11909
6559.66279,0.12058
6557.73404,0.12199
6555.80530,0.12246
6553.87655,0.12175
6551.94781,0.12027
6550.01906,0.11796
6548.09032,0.11616
6546.16157,0.11717
6544.23283,0.11977
6542.30408,0.12081
6540.37534,0.12039
6538.44659,0.12007
6536.51785,0.11983
6534.58910,0.11906
6532.66036,0.11764
6530.73161,0.11660
6528.80287,0.11715
6526.87412,0.11889
6524.94537,0.12008
6523.01663,0.11979
6521.08788,0.11934
6519.15914,0.12038
6517.23039,0.12170
6515.30165,0.12168
6513.37290,0.12089
6511.44416,0.12057
6509.51541,0.12214
6507.58667,0.12483
6505.65792,0.12500
6503.72918,0.12260
6501.80043,0.12018
6499.87169,0.11825
6497.94294,0.11727
6496.01419,0.11747
6494.08545,0.11801
6492.15670,0.11927
6490.22796,0.12085
6488.29921,0.12106
6486.37047,0.12030
6484.44172,0.11991
6482.51298,0.12068
6480.58423,0.12251
6478.65549,0.12343
6476.72674,0.12300
6474.79800,0.12250
6472.86925,0.12086
6470.94051,0.11813
6469.01176,0.11723
6467.08302,0.11838
6465.15427,0.11970
6463.22552,0.12082
6461.29678,0.12156
6459.36803,0.12103
6457.43929,0.11912
6455.51054,0.11740
6453.58180,0.11722
6451.65305,0.11746
6449.72431,0.11720
6447.79556,0.11730
6445.86682,0.11849
6443.93807,0.12034
6442.00933,0.12145
6440.08058,0.12177
6438.15184,0.12261
6436.22309,0.12292
6434.29434,0.12116
6432.36560,0.11918
6430.43685,0.11825
6428.50811,0.11766
6426.57936,0.11800
6424.65062,0.11882
6422.72187,0.11888
6420.79313,0.11945
6418.86438,0.12095
6416.93564,0.12088
6415.00689,0.11897
6413.07815,0.11836
6411.14940,0.11963
6409.22066,0.12041
6407.29191,0.12002
6405.36317,0.11938
6403.43442,0.11960
6401.50567,0.12118
6399.57693,0.12214
6397.64818,0.11958
6395.71944,0.11599
6393.79069,0.11568
6391.86195,0.11723
6389.93320,0.11860
6388.00446,0.12003
6386.07571,0.12025
6384.14697,0.11899
6382.21822,0.11792
6380.28948,0.11781
6378.36073,0.11832
6376.43199,0.11870
6374.50324,0.11764
6372.57450,0.11573
6370.64575,0.11611
6368.71700,0.11896
6366.78826,0.12035
6364.85951,0.11899
6362.93077,0.11716
6361.00202,0.11610
6359.07328,0.11628
6357.14453,0.11785
6355.21579,0.11977
6353.28704,0.12102
6351.35830,0.12059
6349.42955,0.11913
6347.50081,0.11820
6345.57206,0.11762
6343.64332,0.11786
6341.71457,0.11904
6339.78582,0.11925
6337.85708,0.11835
6335.92833,0.11786
6333.99959,0.11798
6332.07084,0.11807
6330.14210,0.11798
6328.21335,0.11722
6326.28461,0.11623
6324.35586,0.11710
6322.42712,0.11912
6320.49837,0.11935
6318.56963,0.11870
6316.64088,0.11953
6314.71214,0.12064
6312.78339,0.12050
6310.85465,0.12045
6308.92590,0.12119
6306.99715,0.12096
6305.06841,0.11847
6303.13966,0.11578
6301.21092,0.11537
6299.28217,0.11662
6297.35343,0.11787
6295.42468,0.11894
6293.49594,0.11982
6291.56719,0.12001
6289.63845,0.11929
6287.70970,0.11785
6285.78096,0.11626
6283.85221,0.11596
6281.92347,0.11739
6279.99472,0.11855
6278.06598,0.11827
6276.13723,0.11860
6274.20848,0.12057
6272.27974,0.12186
6270.35099,0.12129
6268.42225,0.11964
6266.49350,0.11759
6264.56476,0.11653
6262.63601,0.11736
6260.70727,0.11865
6258.77852,0.11896
6256.84978,0.11942
6254.92103,0.12074
6252.99229,0.12103
6251.06354,0.12006
6249.13480,0.11945
6247.20605,0.11871
6245.27730,0.11737
6243.34856,0.11750
6241.41981,0.11998
6239.49107,0.12237
6237.56232,0.12242
6235.63358,0.12101
6233.70483,0.11982
6231.77609,0.11872
6229.84734,0.11747
6227.91860,0.11690
6225.98985,0.11725
6224.06111,0.11809
6222.13236,0.11954
6220.20362,0.12121
6218.27487,0.12155
6216.34613,0.12058
6214.41738,0.11968
6212.48863,0.11914
6210.55989,0.11908
6208.63114,0.11922
6206.70240,0.11859
6204.77365,0.11781
6202.84491,0.11779
6200.91616,0.11817
6198.98742,0.11916
6197.05867,0.12045
6195.12993,0.12043
6193.20118,0.11873
6191.27244,0.11673
6189.34369,0.11626
6187.41495,0.11710
6185.48620,0.11783
6183.55746,0.11890
6181.62871,0.12029
6179.69996,0.12088
6177.77122,0.12140
6175.84247,0.12216
6173.91373,0.12140
6171.98498,0.11986
6170.05624,0.11974
6168.12749,0.12006
6166.19875,0.11947
6164.27000,0.11890
6162.34126,0.11909
6160.41251,0.11953
6158.48377,0.11938
6156.55502,0.11912
6154.62628,0.11952
6152.69753,0.12002
6150.76878,0.12002
6148.84004,0.11932
6146.91129,0.11819
6144.98255,0.11765
6143.05380,0.11843
6141.12506,0.11988
6139.19631,0.12047
6137.26757,0.11970
6135.33882,0.11868
6133.41008,0.11810
6131.48133,0.11823
6129.55259,0.11930
6127.62384,0.11987
6125.69510,0.11895
6123.76635,0.11819
6121.83761,0.11805
6119.90886,0.11716
6117.98011,0.11656
6116.05137,0.11775
6114.12262,0.11883
6112.19388,0.11801
6110.26513,0.11707
6108.33639,0.11777
6106.40764,0.11902
6104.47890,0.11947
6102.55015,0.11933
6100.62141,0.11929
6098.69266,0.11939
6096.76392,0.11902
6094.83517,0.11854
6092.90643,0.11843
6090.97768,0.11789
6089.04893,0.11708
6087.12019,0.11744
6085.19144,0.11868
6083.26270,0.11946
6081.33395,0.11943
6079.40521,0.11854
6077.47646,0.11733
6075.54772,0.11753
6073.61897,0.11879
6071.69023,0.11913
6069.76148,0.11873
6067.83274,0.11840
6065.90399,0.11867
6063.97525,0.11989
6062.04650,0.12056
6060.11776,0.11972
6058.18901,0.11869
6056.26026,0.11820
6054.33152,0.11784
6052.40277,0.11783
6050.47403,0.11820
6048.54528,0.11847
6046.61654,0.11855
6044.68779,0.11812
6042.75905,0.11746
6040.83030,0.11782
6038.90156,0.11880
6036.97281,0.11904
6035.04407,0.11860
6033.11532,0.11821
6031.18658,0.11786
6029.25783,0.11721
6027.32909,0.11695
6025.40034,0.11772
6023.47159,0.11826
6021.54285,0.11808
6019.61410,0.11804
6017.68536,0.11745
6015.75661,0.11643
6013.82787,0.11667
6011.89912,0.11772
6009.97038,0.11815
6008.04163,0.11840
6006.11289,0.11906
6004.18414,0.11929
6002.25540,0.11905
6000.32665,0.11886
5998.39791,0.11791
5996.46916,0.11636
5994.54041,0.11655
5992.61167,0.11852
5990.68292,0.11938
5988.75418,0.11873
5986.82543,0.11795
5984.89669,0.11711
5982.96794,0.11662
5981.03920,0.11721
5979.11045,0.11782
5977.18171,0.11727
5975.25296,0.11614
5973.32422,0.11556
5971.39547,0.11596
5969.46673,0.11708
5967.53798,0.11850
5965.60924,0.11931
5963.68049,0.11878
5961.75174,0.11820
5959.82300,0.11806
5957.89425,0.11676
5955.96551,0.11509
5954.03676,0.11530
5952.10802,0.11669
5950.17927,0.11724
5948.25053,0.11691
5946.32178,0.11657
5944.39304,0.11648
5942.46429,0.11633
5940.53555,0.11583
5938.60680,0.11509
5936.67806,0.11465
5934.74931,0.11507
5932.82057,0.11550
5930.89182,0.11492
5928.96307,0.11417
5927.03433,0.11345
5925.10558,0.11213
5923.17684,0.11088
5921.24809,0.11092
5919.31935,0.11151
5917.39060,0.11074
5915.46186,0.10925
5913.53311,0.10884
5911.60437,0.10868
5909.67562,0.10773
5907.74688,0.10686
5905.81813,0.10676
5903.88939,0.10696
5901.96064,0.10666
5900.03189,0.10617
5898.10315,0.10607
5896.17440,0.10566
5894.24566,0.10504
5892.31691,0.10543
5890.38817,0.10681
5888.45942,0.10780
5886.53068,0.10769
5884.60193,0.10715
5882.67319,0.10675
5880.74444,0.10634
5878.81570,0.10601
5876.88695,0.10556
5874.95821,0.10426
5873.02946,0.10253
5871.10072,0.10134
5869.17197,0.10047
5867.24322,0.10027
5865.31448,0.10121
5863.38573,0.10182
5861.45699,0.10127
5859.52824,0.10067
5857.59950,0.10018
5855.67075,0.09916
5853.74201,0.09858
5851.81326,0.09951
5849.88452,0.10086
5847.95577,0.10150
5846.02703,0.10167
5844.09828,0.10180
5842.16954,0.10208
5840.24079,0.10228
5838.31205,0.10239
5836.38330,0.10309
5834.45455,0.10368
5832.52581,0.10365
5830.59706,0.10426
5828.66832,0.10509
5826.73957,0.10511
5824.81083,0.10469
5822.88208,0.10393
5820.95334,0.10313
5819.02459,0.10262
5817.09585,0.10216
5815.16710,0.10213
5813.23836,0.10226
5811.30961,0.10129
5809.38087,0.10007
5807.45212,0.10004
5805.52337,0.10083
5803.59463,0.10145
5801.66588,0.10070
5799.73714,0.09944
5797.80839,0.09990
5795.87965,0.10154
5793.95090,0.10242
5792.02216,0.10273
5790.09341,0.10375
5788.16467,0.10461
5786.23592,0.10445
5784.30718,0.10444
5782.37843,0.10477
5780.44969,0.10482
5778.52094,0.10442
5776.59220,0.10320
5774.66345,0.10162
5772.73470,0.10059
5770.80596,0.10074
5768.87721,0.10198
5766.94847,0.10269
5765.01972,0.10195
5763.09098,0.10119
5761.16223,0.10151
5759.23349,0.10214
5757.30474,0.10238
5755.37600,0.10232
5753.44725,0.10216
5751.51851,0.10227
5749.58976,0.10292
5747.66102,0.10403
5745.73227,0.10522
5743.80352,0.10614
5741.87478,0.10670
5739.94603,0.10678
5738.01729,0.10673
5736.08854,0.10706
5734.15980,0.10693
5732.23105,0.10640
5730.30231,0.10664
5728.37356,0.10655
5726.44482,0.10551
5724.51607,0.10589
5722.58733,0.10779
5720.65858,0.10844
5718.72984,0.10758
5716.80109,0.10719
5714.87235,0.10774
5712.94360,0.10823
5711.01485,0.10873
5709.08611,0.10972
5707.15736,0.11038
5705.22862,0.11006
5703.29987,0.10953
5701.37113,0.10934
5699.44238,0.10911
5697.51364,0.10858
5695.58489,0.10812
5693.65615,0.10836
5691.72740,0.10931
5689.79866,0.10967
5687.86991,0.10903
5685.94117,0.10891
5684.01242,0.10991
5682.08368,0.11086
5680.15493,0.11079
5678.22618,0.10967
5676.29744,0.10868
5674.36869,0.10898
5672.43995,0.10978
5670.51120,0.11028
5668.58246,0.11058
5666.65371,0.11012
5664.72497,0.10934
5662.79622,0.10975
5660.86748,0.11029
5658.93873,0.10958
5657.00999,0.10939
5655.08124,0.11044
5653.15250,0.11051
5651.22375,0.10903
5649.29500,0.10796
5647.36626,0.10842
5645.43751,0.10989
5643.50877,0.11139
5641.58002,0.11205
5639.65128,0.11200
5637.72253,0.11153
5635.79379,0.11052
5633.86504,0.10995
5631.93630,0.11047
5630.00755,0.11109
5628.07881,0.11100
5626.15006,0.11063
5624.22132,0.11108
5622.29257,0.11202
5620.36383,0.11194
5618.43508,0.11093
5616.50633,0.11033
5614.57759,0.11060
5612.64884,0.11124
5610.72010,0.11179
5608.79135,0.11204
5606.86261,0.11202
5604.93386,0.11206
5603.00512,0.11218
5601.07637,0.11225
5599.14763,0.11195
5597.21888,0.11155
5595.29014,0.11203
5593.36139,0.11309
5591.43265,0.11364
5589.50390,0.11375
5587.57516,0.11403
5585.64641,0.11457
5583.71766,0.11497
5581.78892,0.11507
5579.86017,0.11475
5577.93143,0.11376
5576.00268,0.11263
5574.07394,0.11204
5572.14519,0.11188
5570.21645,0.11168
5568.28770,0.11123
5566.35896,0.11083
5564.43021,0.11080
5562.50147,0.11128
5560.57272,0.11245
5558.64398,0.11347
5556.71523,0.11321
5554.78648,0.11243
5552.85774,0.11267
5550.92899,0.11359
5549.00025,0.11379
5547.07150,0.11335
5545.14276,0.11307
5543.21401,0.11271
5541.28527,0.11253
5539.35652,0.11285
5537.42778,0.11263
5535.49903,0.11180
5533.57029,0.11167
5531.64154,0.11205
5529.71280,0.11230
5527.78405,0.11299
5525.85531,0.11374
5523.92656,0.11344
5521.99781,0.11251
5520.06907,0.11210
5518.14032,0.11211
5516.21158,0.11194
5514.28283,0.11201
5512.35409,0.11255
5510.42534,0.11260
5508.49660,0.11233
5506.56785,0.11300
5504.63911,0.11406
5502.71036,0.11417
5500.78162,0.11348
5498.85287,0.11290
5496.92413,0.11307
5494.99538,0.11336
5493.06664,0.11294
5491.13789,0.11240
5489.20914,0.11218
5487.28040,0.11183
5485.35165,0.11120
5483.42291,0.11098
5481.49416,0.11171
5479.56542,0.11263
5477.63667,0.11280
5475.70793,0.11231
5473.77918,0.11202
5471.85044,0.11264
5469.92169,0.11355
5467.99295,0.11337
5466.06420,0.11247
5464.13546,0.11213
5462.20671,0.11245
5460.27796,0.11291
5458.34922,0.11318
5456.42047,0.11346
5454.49173,0.11379
5452.56298,0.11395
5450.63424,0.11387
5448.70549,0.11332
5446.77675,0.11301
5444.84800,0.11353
5442.91926,0.11406
5440.99051,0.11408
5439.06177,0.11362
5437.13302,0.11290
5435.20428,0.11270
5433.27553,0.11336
5431.34679,0.11439
5429.41804,0.11530
5427.48929,0.11614
5425.56055,0.11672
5423.63180,0.11640
5421.70306,0.11554
5419.77431,0.11520
5417.84557,0.11526
5415.91682,0.11558
5413.98808,0.11625
5412.05933,0.11675
5410.13059,0.11671
5408.20184,0.11638
5406.27310,0.11636
5404.34435,0.11651
5402.41561,0.11618
5400.48686,0.11561
5398.55811,0.11551
5396.62937,0.11569
5394.70062,0.11547
5392.77188,0.11527
5390.84313,0.11576
5388.91439,0.11631
5386.98564,0.11621
5385.05690,0.11583
5383.12815,0.11588
5381.19941,0.11655
5379.27066,0.11706
5377.34192,0.11645
5375.41317,0.11572
5373.48443,0.11637
5371.55568,0.11773
5369.62694,0.11851
5367.69819,0.11827
5365.76944,0.11742
5363.84070,0.11691
5361.91195,0.11707
5359.98321,0.11756
5358.05446,0.11804
5356.12572,0.11808
5354.19697,0.11781
5352.26823,0.11754
5350.33948,0.11661
5348.41074,0.11556
5346.48199,0.11596
5344.55325,0.11699
5342.62450,0.11719
5340.69576,0.11700
5338.76701,0.11722
5336.83827,0.11799
5334.90952,0.11858
5332.98077,0.11841
5331.05203,0.11822
5329.12328,0.11841
5327.19454,0.11787
5325.26579,0.11626
5323.33705,0.11519
5321.40830,0.11540
5319.47956,0.11569
5317.55081,0.11555
5315.62207,0.11576
5313.69332,0.11640
5311.76458,0.11703
5309.83583,0.11765
5307.90709,0.11798
5305.97834,0.11759
5304.04959,0.11704
5302.12085,0.11724
5300.19210,0.11811
5298.26336,0.11841
5296.33461,0.11745
5294.40587,0.11635
5292.47712,0.11600
5290.54838,0.11592
5288.61963,0.11608
5286.69089,0.11661
5284.76214,0.11704
5282.83340,0.11723
5280.90465,0.11705
5278.97591,0.11668
5277.04716,0.11696
5275.11842,0.11764
5273.18967,0.11773
5271.26092,0.11713
5269.33218,0.11655
5267.40343,0.11653
5265.47469,0.11667
5263.54594,0.11664
5261.61720,0.11686
5259.68845,0.11717
5257.75971,0.11728
5255.83096,0.11754
5253.90222,0.11801
5251.97347,0.11851
5250.04473,0.11886
5248.11598,0.11879
5246.18724,0.11817
5244.25849,0.11721
5242.32975,0.11633
5240.40100,0.11587
5238.47225,0.11589
5236.54351,0.11649
5234.61476,0.11730
5232.68602,0.11748
5230.75727,0.11731
5228.82853,0.11763
5226.89978,0.11815
5224.97104,0.11828
5223.04229,0.11826
5221.11355,0.11815
5219.18480,0.11773
5217.25606,0.11737
5215.32731,0.11738
5213.39857,0.11738
5211.46982,0.11703
5209.54107,0.11678
5207.61233,0.11729
5205.68358,0.11859
5203.75484,0.11967
5201.82609,0.11946
5199.89735,0.11860
5197.96860,0.11821
5196.03986,0.11783
5194.11111,0.11700
5192.18237,0.11617
5190.25362,0.11596
5188.32488,0.11666
5186.39613,0.11779
5184.46739,0.11840
5182.53864,0.11834
5180.60990,0.11804
5178.68115,0.11765
5176.75240,0.11749
5174.82366,0.11783
5172.89491,0.11836
5170.96617,0.11847
5169.03742,0.11807
5167.10868,0.11795
5165.17993,0.11836
5163.25119,0.11866
5161.32244,0.11863
5159.39370,0.11872
5157.46495,0.11895
5155.53621,0.11874
5153.60746,0.11817
5151.67872,0.11793
5149.74997,0.11814
5147.82123,0.11839
5145.89248,0.11834
5143.96373,0.11817
5142.03499,0.11804
5140.10624,0.11791
5138.17750,0.11795
5136.24875,0.11798
5134.32001,0.11786
5132.39126,0.11801
5130.46252,0.11816
5128.53377,0.11804
5126.60503,0.11792
5124.67628,0.11790
5122.74754,0.11808
5120.81879,0.11817
5118.89005,0.11796
5116.96130,0.11788
5115.03255,0.11822
5113.10381,0.11867
5111.17506,0.11868
5109.24632,0.11842
5107.31757,0.11851
5105.38883,0.11871
5103.46008,0.11854
5101.53134,0.11849
5099.60259,0.11898
5097.67385,0.11928
5095.74510,0.11880
5093.81636,0.11816
5091.88761,0.11806
5089.95887,0.11825
5088.03012,0.11823
5086.10138,0.11817
5084.17263,0.11847
5082.24388,0.11888
5080.31514,0.11867
5078.38639,0.11795
5076.45765,0.11757
5074.52890,0.11743
5072.60016,0.11698
5070.67141,0.11680
5068.74267,0.11721
5066.81392,0.11735
5064.88518,0.11734
5062.95643,0.11810
5061.02769,0.11918
5059.09894,0.11930
5057.17020,0.11838
5055.24145,0.11748
5053.31270,0.11735
5051.38396,0.11781
5049.45521,0.11787
5047.52647,0.11745
5045.59772,0.11756
5043.66898,0.11817
5041.74023,0.11858
5039.81149,0.11884
5037.88274,0.11919
5035.95400,0.11950
5034.02525,0.11943
5032.09651,0.11920
5030.16776,0.11897
5028.23902,0.11853
5026.31027,0.11819
5024.38153,0.11824
5022.45278,0.11845
5020.52403,0.11870
5018.59529,0.11907
5016.66654,0.11937
5014.73780,0.11949
5012.80905,0.11951
5010.88031,0.11936
5008.95156,0.11913
5007.02282,0.11931
5005.09407,0.11990
5003.16533,0.11992
5001.23658,0.11927
4999.30784,0.11941
4997.37909,0.12038
4995.45035,0.12062
4993.52160,0.12002
4991.59286,0.11974
4989.66411,0.12009
4987.73536,0.12055
4985.80662,0.12061
4983.87787,0.12030
4981.94913,0.11990
4980.02038,0.11953
4978.09164,0.11958
4976.16289,0.11992
4974.23415,0.11996
4972.30540,0.12003
4970.37666,0.12036
4968.44791,0.12028
4966.51917,0.11981
4964.59042,0.11964
4962.66168,0.12010
4960.73293,0.12052
4958.80418,0.12026
4956.87544,0.11990
4954.94669,0.12000
4953.01795,0.12001
4951.08920,0.11977
4949.16046,0.12000
4947.23171,0.12078
4945.30297,0.12144
4943.37422,0.12139
4941.44548,0.12080
4939.51673,0.12042
4937.58799,0.12035
4935.65924,0.12036
4933.73050,0.12052
4931.80175,0.12068
4929.87301,0.12066
4927.94426,0.12066
4926.01551,0.12064
4924.08677,0.12058
4922.15802,0.12078
4920.22928,0.12098
4918.30053,0.12090
4916.37179,0.12072
4914.44304,0.12058
4912.51430,0.12069
4910.58555,0.12111
4908.65681,0.12148
4906.72806,0.12156
4904.79932,0.12154
4902.87057,0.12156
4900.94183,0.12165
4899.01308,0.12159
4897.08434,0.12132
4895.15559,0.12144
4893.22684,0.12209
4891.29810,0.12232
4889.36935,0.12153
4887.44061,0.12060
4885.51186,0.12022
4883.58312,0.12008
4881.65437,0.12036
4879.72563,0.12106
4877.79688,0.12145
4875.86814,0.12151
4873.93939,0.12159
4872.01065,0.12151
4870.08190,0.12112
4868.15316,0.12091
4866.22441,0.12121
4864.29566,0.12178
4862.36692,0.12218
4860.43817,0.12228
4858.50943,0.12225
4856.58068,0.12206
4854.65194,0.12150
4852.72319,0.12093
4850.79445,0.12084
4848.86570,0.12118
4846.93696,0.12144
4845.00821,0.12123
4843.07947,0.12092
4841.15072,0.12104
4839.22198,0.12127
4837.29323,0.12115
4835.36449,0.12105
4833.43574,0.12128
4831.50699,0.12166
4829.57825,0.12181
4827.64950,0.12156
4825.72076,0.12130
4823.79201,0.12118
4821.86327,0.12089
4819.93452,0.12074
4818.00578,0.12109
4816.07703,0.12154
4814.14829,0.12150
4812.21954,0.12091
4810.29080,0.12042
4808.36205,0.12062
4806.43331,0.12113
4804.50456,0.12142
4802.57582,0.12129
4800.64707,0.12101
4798.71832,0.12110
4796.78958,0.12160
4794.86083,0.12214
4792.93209,0.12235
4791.00334,0.12211
4789.07460,0.12173
4787.14585,0.12172
4785.21711,0.12202
4783.28836,0.12204
4781.35962,0.12179
4779.43087,0.12186
4777.50213,0.12211
4775.57338,0.12211
4773.64464,0.12212
4771.71589,0.12236
4769.78714,0.12238
4767.85840,0.12205
4765.92965,0.12185
4764.00091,0.12188
4762.07216,0.12182
4760.14342,0.12172
4758.21467,0.12182
4756.28593,0.12199
4754.35718,0.12214
4752.42844,0.12228
4750.49969,0.12232
4748.57095,0.12216
4746.64220,0.12179
4744.71346,0.12144
4742.78471,0.12155
4740.85597,0.12202
4738.92722,0.12225
4736.99847,0.12204
4735.06973,0.12182
4733.14098,0.12191
4731.21224,0.12224
4729.28349,0.12226
4727.35475,0.12191
4725.42600,0.12185
4723.49726,0.12208
4721.56851,0.12218
4719.63977,0.12222
4717.71102,0.12207
4715.78228,0.12160
4713.85353,0.12142
4711.92479,0.12194
4709.99604,0.12249
4708.06729,0.12235
4706.13855,0.12190
4704.20980,0.12188
4702.28106,0.12217
4700.35231,0.12213
4698.42357,0.12197
4696.49482,0.12220
4694.56608,0.12250
4692.63733,0.12255
4690.70859,0.12251
4688.77984,0.12244
4686.85110,0.12240
4684.92235,0.12257
4682.99361,0.12277
4681.06486,0.12265
4679.13612,0.12206
4677.20737,0.12157
4675.27862,0.12166
4673.34988,0.12194
4671.42113,0.12210
4669.49239,0.12189
4667.56364,0.12129
4665.63490,0.12090
4663.70615,0.12113
4661.77741,0.12158
4659.84866,0.12153
4657.91992,0.12090
4655.99117,0.12035
4654.06243,0.12024
4652.13368,0.12020
4650.20494,0.12018
4648.27619,0.12042
4646.34745,0.12076
4644.41870,0.12082
4642.48995,0.12060
4640.56121,0.12041
4638.63246,0.12047
4636.70372,0.12067
4634.77497,0.12105
4632.84623,0.12154
4630.91748,0.12152
4628.98874,0.12085
4627.05999,0.12012
4625.13125,0.11975
4623.20250,0.11974
4621.27376,0.11987
4619.34501,0.12010
4617.41627,0.12061
4615.48752,0.12107
4613.55877,0.12097
4611.63003,0.12077
4609.70128,0.12101
4607.77254,0.12129
4605.84379,0.12132
4603.91505,0.12119
4601.98630,0.12101
4600.05756,0.12085
4598.12881,0.12068
4596.20007,0.12049
4594.27132,0.12040
4592.34258,0.12030
4590.41383,0.11995
4588.48509,0.11951
4586.55634,0.11946
4584.62760,0.11960
4582.69885,0.11947
4580.77010,0.11930
4578.84136,0.11935
4576.91261,0.11940
4574.98387,0.11940
4573.05512,0.11944
4571.12638,0.11935
4569.19763,0.11905
4567.26889,0.11879
4565.34014,0.11888
4563.41140,0.11924
4561.48265,0.11939
4559.55391,0.11918
4557.62516,0.11910
4555.69642,0.11931
4553.76767,0.11930
4551.83893,0.11914
4549.91018,0.11945
4547.98143,0.12016
4546.05269,0.12065
4544.12394,0.12057
4542.19520,0.12014
4540.26645,0.11980
4538.33771,0.11992
4536.40896,0.12041
4534.48022,0.12048
4532.55147,0.12007
4530.62273,0.11997
4528.69398,0.12025
4526.76524,0.12031
4524.83649,0.12011
4522.90775,0.11997
4520.97900,0.11991
4519.05025,0.11978
4517.12151,0.11970
4515.19276,0.11977
4513.26402,0.11980
4511.33527,0.11955
4509.40653,0.11929
4507.47778,0.11925
4505.54904,0.11925
4503.62029,0.11939
4501.69155,0.11968
4499.76280,0.11967
4497.83406,0.11931
4495.90531,0.11876
4493.97657,0.11810
4492.04782,0.11788
4490.11908,0.11845
4488.19033,0.11889
4486.26158,0.11859
4484.33284,0.11825
4482.40409,0.11833
4480.47535,0.11876
4478.54660,0.11926
4476.61786,0.11932
4474.68911,0.11908
4472.76037,0.11898
4470.83162,0.11895
4468.90288,0.11873
4466.97413,0.11839
4465.04539,0.11796
4463.11664,0.11735
4461.18790,0.11684
4459.25915,0.11669
4457.33041,0.11655
4455.40166,0.11615
4453.47291,0.11575
4451.54417,0.11552
4449.61542,0.11515
4447.68668,0.11460
4445.75793,0.11414
4443.82919,0.11377
4441.90044,0.11329
4439.97170,0.11252
4438.04295,0.11127
4436.11421,0.10964
4434.18546,0.10814
4432.25672,0.10704
4430.32797,0.10611
4428.39923,0.10498
4426.47048,0.10343
4424.54173,0.10154
4422.61299,0.09954
4420.68424,0.09762
4418.75550,0.09594
4416.82675,0.09447
4414.89801,0.09304
4412.96926,0.09155
4411.04052,0.08998
4409.11177,0.08836
4407.18303,0.08677
4405.25428,0.08510
4403.32554,0.08347
4401.39679,0.08202
4399.46805,0.08039
4397.53930,0.07837
4395.61056,0.07632
4393.68181,0.07492
4391.75306,0.07459
4389.82432,0.07519
4387.89557,0.07627
4385.96683,0.07754
4384.03808,0.07893
4382.10934,0.08016
4380.18059,0.08097
4378.25185,0.08169
4376.32310,0.08263
4374.39436,0.08365
4372.46561,0.08467
4370.53687,0.08546
4368.60812,0.08592
4366.67938,0.08649
4364.75063,0.08715
4362.82189,0.08749
4360.89314,0.08747
4358.96439,0.08726
4357.03565,0.08701
4355.10690,0.08660
4353.17816,0.08591
4351.24941,0.08493
4349.32067,0.08350
4347.39192,0.08172
4345.46318,0.07971
4343.53443,0.07732
4341.60569,0.07463
4339.67694,0.07195
4337.74820,0.06918
4335.81945,0.06621
4333.89071,0.06353
4331.96196,0.06161
4330.03321,0.06035
4328.10447,0.05938
4326.17572,0.05859
4324.24698,0.05830
4322.31823,0.05871
4320.38949,0.05961
4318.46074,0.06075
4316.53200,0.06177
4314.60325,0.06227
4312.67451,0.06241
4310.74576,0.06291
4308.81702,0.06410
4306.88827,0.06565
4304.95953,0.06712
4303.03078,0.06843
4301.10204,0.06970
4299.17329,0.07106
4297.24454,0.07250
4295.31580,0.07371
4293.38705,0.07429
4291.45831,0.07443
4289.52956,0.07462
4287.60082,0.07498
4285.67207,0.07508
4283.74333,0.07458
4281.81458,0.07402
4279.88584,0.07398
4277.95709,0.07443
4276.02835,0.07496
4274.09960,0.07503
4272.17086,0.07472
4270.24211,0.07452
4268.31336,0.07438
4266.38462,0.07410
4264.45587,0.07376
4262.52713,0.07326
4260.59838,0.07236
4258.66964,0.07111
4256.74089,0.06995
4254.81215,0.06904
4252.88340,0.06795
4250.95466,0.06641
4249.02591,0.06482
4247.09717,0.06375
4245.16842,0.06308
4243.23968,0.06257
4241.31093,0.06246
4239.38219,0.06291
4237.45344,0.06371
4235.52469,0.06471
4233.59595,0.06599
4231.66720,0.06755
4229.73846,0.06899
4227.80971,0.06981
4225.88097,0.07002
4223.95222,0.07004
4222.02348,0.07008
4220.09473,0.06999
4218.16599,0.06983
4216.23724,0.06998
4214.30850,0.07047
4212.37975,0.07099
4210.45101,0.07139
4208.52226,0.07159
4206.59352,0.07157
4204.66477,0.07187
4202.73602,0.07284
4200.80728,0.07397
4198.87853,0.07493
4196.94979,0.07603
4195.02104,0.07737
4193.09230,0.07852
4191.16355,0.07924
4189.23481,0.07960
4187.30606,0.07979
4185.37732,0.07964
4183.44857,0.07904
4181.51983,0.07841
4179.59108,0.07792
4177.66234,0.07728
4175.73359,0.07644
4173.80484,0.07577
4171.87610,0.07533
4169.94735,0.07496
4168.01861,0.07485
4166.08986,0.07493
4164.16112,0.07504
4162.23237,0.07554
4160.30363,0.07656
4158.37488,0.07752
4156.44614,0.07793
4154.51739,0.07798
4152.58865,0.07821
4150.65990,0.07875
4148.73116,0.07948
4146.80241,0.08030
4144.87367,0.08098
4142.94492,0.08136
4141.01617,0.08151
4139.08743,0.08162
4137.15868,0.08169
4135.22994,0.08159
4133.30119,0.08140
4131.37245,0.08117
4129.44370,0.08070
4127.51496,0.07999
4125.58621,0.07937
4123.65747,0.07883
4121.72872,0.07820
4119.79998,0.07787
4117.87123,0.07821
4115.94249,0.07884
4114.01374,0.07926
4112.08500,0.07930
4110.15625,0.07945
4108.22750,0.08043
4106.29876,0.08188
4104.37001,0.08291
4102.44127,0.08356
4100.51252,0.08415
4098.58378,0.08451
4096.65503,0.08474
4094.72629,0.08516
4092.79754,0.08550
4090.86880,0.08515
4088.94005,0.08414
4087.01131,0.08318
4085.08256,0.08254
4083.15382,0.08176
4081.22507,0.08069
4079.29632,0.07955
4077.36758,0.07818
4075.43883,0.07657
4073.51009,0.07533
4071.58134,0.07448
4069.65260,0.07341
4067.72385,0.07221
4065.79511,0.07131
4063.86636,0.07047
4061.93762,0.06949
4060.00887,0.06887
4058.08013,0.06925
4056.15138,0.07060
4054.22264,0.07243
4052.29389,0.07438
4050.36515,0.07646
4048.43640,0.07876
4046.50765,0.08098
4044.57891,0.08259
4042.65016,0.08361
4040.72142,0.08444
4038.79267,0.08526
4036.86393,0.08600
4034.93518,0.08655
4033.00644,0.08678
4031.07769,0.08683
4029.14895,0.08699
4027.22020,0.08725
4025.29146,0.08750
4023.36271,0.08780
4021.43397,0.08829
4019.50522,0.08895
4017.57648,0.08971
4015.64773,0.09041
4013.71898,0.09092
4011.79024,0.09134
4009.86149,0.09183
4007.93275,0.09219
4006.00400,0.09234
4004.07526,0.09238
4002.14651,0.09222
4000.21777,0.09176
3998.28902,0.09124
3996.36028,0.09103
3994.43153,0.09117
3992.50279,0.09134
3990.57404,0.09149
3988.64530,0.09199
3986.71655,0.09279
3984.78780,0.09352
3982.85906,0.09410
3980.93031,0.09465
3979.00157,0.09517
3977.07282,0.09561
3975.14408,0.09597
3973.21533,0.09632
3971.28659,0.09659
3969.35784,0.09666
3967.42910,0.09664
3965.50035,0.09677
3963.57161,0.09710
3961.64286,0.09758
3959.71412,0.09799
3957.78537,0.09817
3955.85663,0.09845
3953.92788,0.09906
3951.99913,0.09967
3950.07039,0.10001
3948.14164,0.10003
3946.21290,0.09973
3944.28415,0.09934
3942.35541,0.09911
3940.42666,0.09901
3938.49792,0.09881
3936.56917,0.09841
3934.64043,0.09814
3932.71168,0.09837
3930.78294,0.09865
3928.85419,0.09859
3926.92545,0.09832
3924.99670,0.09794
3923.06795,0.09773
3921.13921,0.09808
3919.21046,0.09885
3917.28172,0.09956
3915.35297,0.09980
3913.42423,0.09985
3911.49548,0.10014
3909.56674,0.10046
3907.63799,0.10049
3905.70925,0.10063
3903.78050,0.10090
3901.85176,0.10070
3899.92301,0.10013
3897.99427,0.09969
3896.06552,0.09961
3894.13678,0.09995
3892.20803,0.10049
3890.27928,0.10085
3888.35054,0.10090
3886.42179,0.10078
3884.49305,0.10078
3882.56430,0.10089
3880.63556,0.10089
3878.70681,0.10092
3876.77807,0.10110
3874.84932,0.10116
3872.92058,0.10104
3870.99183,0.10106
3869.06309,0.10134
3867.13434,0.10165
3865.20560,0.10178
3863.27685,0.10195
3861.34811,0.10250
3859.41936,0.10329
3857.49061,0.10392
3855.56187,0.10429
3853.63312,0.10423
3851.70438,0.10390
3849.77563,0.10380
3847.84689,0.10394
3845.91814,0.10398
3843.98940,0.10381
3842.06065,0.10365
3840.13191,0.10342
3838.20316,0.10311
3836.27442,0.10301
3834.34567,0.10319
3832.41693,0.10343
3830.48818,0.10343
3828.55943,0.10324
3826.63069,0.10314
3824.70194,0.10333
3822.77320,0.10342
3820.84445,0.10290
3818.91571,0.10244
3816.98696,0.10257
3815.05822,0.10279
3813.12947,0.10291
3811.20073,0.10308
3809.27198,0.10320
3807.34324,0.10331
3805.41449,0.10370
3803.48575,0.10421
3801.55700,0.10438
3799.62826,0.10423
3797.69951,0.10426
3795.77076,0.10452
3793.84202,0.10477
3791.91327,0.10489
3789.98453,0.10502
3788.05578,0.10529
3786.12704,0.10554
3784.19829,0.10551
3782.26955,0.10522
3780.34080,0.10498
3778.41206,0.10480
3776.48331,0.10431
3774.55457,0.10370
3772.62582,0.10344
3770.69708,0.10335
3768.76833,0.10300
3766.83959,0.10246
3764.91084,0.10212
3762.98209,0.10211
3761.05335,0.10231
3759.12460,0.10260
3757.19586,0.10295
3755.26711,0.10342
3753.33837,0.10391
3751.40962,0.10432
3749.48088,0.10492
3747.55213,0.10576
3745.62339,0.10632
3743.69464,0.10628
3741.76590,0.10606
3739.83715,0.10602
3737.90841,0.10616
3735.97966,0.10648
3734.05091,0.10699
3732.12217,0.10736
3730.19342,0.10745
3728.26468,0.10765
3726.33593,0.10799
3724.40719,0.10815
3722.47844,0.10824
3720.54970,0.10831
3718.62095,0.10832
3716.69221,0.10834
3714.76346,0.10832
3712.83472,0.10820
3710.90597,0.10817
3708.97723,0.10834
3707.04848,0.10850
3705.11974,0.10853
3703.19099,0.10845
3701.26224,0.10816
3699.33350,0.10772
3697.40475,0.10742
3695.47601,0.10745
3693.54726,0.10774
3691.61852,0.10803
3689.68977,0.10803
3687.76103,0.10784
3685.83228,0.10783
3683.90354,0.10802
3681.97479,0.10843
3680.04605,0.10906
3678.11730,0.10960
3676.18856,0.11000
3674.25981,0.11040
3672.33107,0.11075
3670.40232,0.11114
3668.47357,0.11181
3666.54483,0.11260
3664.61608,0.11318
3662.68734,0.11349
3660.75859,0.11348
3658.82985,0.11328
3656.90110,0.11334
3654.97236,0.11362
3653.04361,0.11373
3651.11487,0.11355
3649.18612,0.11332
3647.25738,0.11328
3645.32863,0.11322
3643.39989,0.11299
3641.47114,0.11259
3639.54239,0.11189
3637.61365,0.11100
3635.68490,0.11048
3633.75616,0.11045
3631.82741,0.11053
3629.89867,0.11082
3627.96992,0.11159
3626.04118,0.11250
3624.11243,0.11335
3622.18369,0.11397
3620.25494,0.11402
3618.32620,0.11378
3616.39745,0.11384
3614.46871,0.11409
3612.53996,0.11421
3610.61122,0.11415
3608.68247,0.11400
3606.75372,0.11387
3604.82498,0.11382
3602.89623,0.11380
3600.96749,0.11381
3599.03874,0.11398
3597.11000,0.11419
3595.18125,0.11415
3593.25251,0.11393
3591.32376,0.11390
3589.39502,0.11407
3587.46627,0.11402
3585.53753,0.11376
3583.60878,0.11359
3581.68004,0.11352
3579.75129,0.11339
3577.82254,0.11312
3575.89380,0.11283
3573.96505,0.11261
3572.03631,0.11247
3570.10756,0.11255
3568.17882,0.11269
3566.25007,0.11251
3564.32133,0.11213
3562.39258,0.11185
3560.46384,0.11165
3558.53509,0.11147
3556.60635,0.11134
3554.67760,0.11114
3552.74886,0.11098
3550.82011,0.11109
3548.89137,0.11116
3546.96262,0.11091
3545.03387,0.11060
3543.10513,0.11045
3541.17638,0.11037
3539.24764,0.11013
3537.31889,0.10965
3535.39015,0.10909
3533.46140,0.10870
3531.53266,0.10853
3529.60391,0.10848
3527.67517,0.10855
3525.74642,0.10860
3523.81768,0.10837
3521.88893,0.10793
3519.96019,0.10757
3518.03144,0.10748
3516.10270,0.10754
3514.17395,0.10730
3512.24520,0.10675
3510.31646,0.10648
3508.38771,0.10662
3506.45897,0.10681
3504.53022,0.10692
3502.60148,0.10696
3500.67273,0.10679
3498.74399,0.10643
3496.81524,0.10615
3494.88650,0.10612
3492.95775,0.10623
3491.02901,0.10623
3489.10026,0.10588
3487.17152,0.10514
3485.24277,0.10440
3483.31402,0.10409
3481.38528,0.10419
3479.45653,0.10431
3477.52779,0.10414
3475.59904,0.10382
3473.67030,0.10370
3471.74155,0.10367
3469.81281,0.10352
3467.88406,0.10327
3465.95532,0.10275
3464.02657,0.10197
3462.09783,0.10138
3460.16908,0.10109
3458.24034,0.10079
3456.31159,0.10043
3454.38285,0.10028
3452.45410,0.10009
3450.52535,0.09941
3448.59661,0.09846
3446.66786,0.09764
3444.73912,0.09728
3442.81037,0.09740
3440.88163,0.09737
3438.95288,0.09685
3437.02414,0.09619
3435.09539,0.09561
3433.16665,0.09523
3431.23790,0.09505
3429.30916,0.09494
3427.38041,0.09485
3425.45167,0.09466
3423.52292,0.09428
3421.59418,0.09363
3419.66543,0.09269
3417.73668,0.09190
3415.80794,0.09166
3413.87919,0.09182
3411.95045,0.09207
3410.02170,0.09212
3408.09296,0.09197
3406.16421,0.09195
3404.23547,0.09238
3402.30672,0.09316
3400.37798,0.09385
3398.44923,0.09417
3396.52049,0.09418
3394.59174,0.09410
3392.66300,0.09404
3390.73425,0.09396
3388.80550,0.09394
3386.87676,0.09387
3384.94801,0.09352
3383.01927,0.09323
3381.09052,0.09316
3379.16178,0.09279
3377.23303,0.09213
3375.30429,0.09159
3373.37554,0.09107
3371.44680,0.09063
3369.51805,0.09046
3367.58931,0.09039
3365.66056,0.09036
3363.73182,0.09025
3361.80307,0.08989
3359.87433,0.08938
3357.94558,0.08891
3356.01683,0.08876
3354.08809,0.08885
3352.15934,0.08888
3350.23060,0.08874
3348.30185,0.08859
3346.37311,0.08855
3344.44436,0.08862
3342.51562,0.08878
3340.58687,0.08887
3338.65813,0.08896
3336.72938,0.08955
3334.80064,0.09054
3332.87189,0.09150
3330.94315,0.09227
3329.01440,0.09280
3327.08566,0.09308
3325.15691,0.09317
3323.22816,0.09325
3321.29942,0.09343
3319.37067,0.09376
3317.44193,0.09416
3315.51318,0.09427
3313.58444,0.09402
3311.65569,0.09372
3309.72695,0.09349
3307.79820,0.09320
3305.86946,0.09275
3303.94071,0.09238
3302.01197,0.09226
3300.08322,0.09225
3298.15448,0.09215
3296.22573,0.09185
3294.29698,0.09137
3292.36824,0.09085
3290.43949,0.09050
3288.51075,0.09050
3286.58200,0.09075
3284.65326,0.09094
3282.72451,0.09121
3280.79577,0.09156
3278.86702,0.09168
3276.93828,0.09162
3275.00953,0.09153
3273.08079,0.09141
3271.15204,0.09137
3269.22330,0.09121
3267.29455,0.09089
3265.36581,0.09084
3263.43706,0.09114
3261.50831,0.09146
3259.57957,0.09170
3257.65082,0.09193
3255.72208,0.09184
3253.79333,0.09143
3251.86459,0.09150
3249.93584,0.09201
3248.00710,0.09213
3246.07835,0.09174
3244.14961,0.09139
3242.22086,0.09128
3240.29212,0.09092
3238.36337,0.09011
3236.43463,0.08919
3234.50588,0.08819
3232.57713,0.08695
3230.64839,0.08561
3228.71964,0.08422
3226.79090,0.08288
3224.86215,0.08158
3222.93341,0.08010
3221.00466,0.07860
3219.07592,0.07744
3217.14717,0.07629
3215.21843,0.07462
3213.28968,0.07269
3211.36094,0.07113
3209.43219,0.07009
3207.50345,0.06925
3205.57470,0.06835
3203.64596,0.06758
3201.71721,0.06703
3199.78846,0.06647
3197.85972,0.06594
3195.93097,0.06565
3194.00223,0.06553
3192.07348,0.06542
3190.14474,0.06519
3188.21599,0.06497
3186.28725,0.06526
3184.35850,0.06593
3182.42976,0.06635
3180.50101,0.06645
3178.57227,0.06647
3176.64352,0.06673
3174.71478,0.06737
3172.78603,0.06820
3170.85729,0.06896
3168.92854,0.06933
3166.99979,0.06901
3165.07105,0.06839
3163.14230,0.06823
3161.21356,0.06836
3159.28481,0.06812
3157.35607,0.06756
3155.42732,0.06708
3153.49858,0.06669
3151.56983,0.06634
3149.64109,0.06605
3147.71234,0.06586
3145.78360,0.06573
3143.85485,0.06552
3141.92611,0.06548
3139.99736,0.06567
3138.06861,0.06577
3136.13987,0.06586
3134.21112,0.06637
3132.28238,0.06737
3130.35363,0.06841
3128.42489,0.06909
3126.49614,0.06948
3124.56740,0.06986
3122.63865,0.07034
3120.70991,0.07089
3118.78116,0.07137
3116.85242,0.07160
3114.92367,0.07169
3112.99493,0.07189
3111.06618,0.07219
3109.13744,0.07239
3107.20869,0.07248
3105.27994,0.07256
3103.35120,0.07262
3101.42245,0.07255
3099.49371,0.07236
3097.56496,0.07241
3095.63622,0.07276
3093.70747,0.07294
3091.77873,0.07290
3089.84998,0.07298
3087.92124,0.07302
3085.99249,0.07288
3084.06375,0.07279
3082.13500,0.07267
3080.20626,0.07224
3078.27751,0.07166
3076.34877,0.07119
3074.42002,0.07088
3072.49127,0.07058
3070.56253,0.07011
3068.63378,0.06946
3066.70504,0.06891
3064.77629,0.06851
3062.84755,0.06795
3060.91880,0.06723
3058.99006,0.06657
3057.06131,0.06600
3055.13257,0.06546
3053.20382,0.06491
3051.27508,0.06443
3049.34633,0.06388
3047.41759,0.06313
3045.48884,0.06238
3043.56009,0.06183
3041.63135,0.06140
3039.70260,0.06083
3037.77386,0.06011
3035.84511,0.05939
3033.91637,0.05856
3031.98762,0.05748
3030.05888,0.05627
3028.13013,0.05497
3026.20139,0.05345
3024.27264,0.05178
3022.34390,0.05014
3020.41515,0.04838
3018.48641,0.04640
3016.55766,0.04441
3014.62892,0.04263
3012.70017,0.04096
3010.77142,0.03918
3008.84268,0.03735
3006.91393,0.03550
3004.98519,0.03354
3003.05644,0.03164
3001.12770,0.02985
2999.19895,0.02810
2997.27021,0.02648
2995.34146,0.02505
2993.41272,0.02370
2991.48397,0.02234
2989.55523,0.02114
2987.62648,0.02007
2985.69774,0.01890
2983.76899,0.01781
2981.84025,0.01711
2979.91150,0.01656
2977.98275,0.01599
2976.05401,0.01562
2974.12526,0.01534
2972.19652,0.01497
2970.26777,0.01475
2968.33903,0.01481
2966.41028,0.01502
2964.48154,0.01548
2962.55279,0.01625
2960.62405,0.01705
2958.69530,0.01758
2956.76656,0.01775
2954.83781,0.01761
2952.90907,0.01736
2950.98032,0.01739
2949.05157,0.01776
2947.12283,0.01807
2945.19408,0.01805
2943.26534,0.01792
2941.33659,0.01780
2939.40785,0.01760
2937.47910,0.01734
2935.55036,0.01718
2933.62161,0.01714
2931.69287,0.01704
2929.76412,0.01694
2927.83538,0.01711
2925.90663,0.01725
2923.97789,0.01720
2922.04914,0.01755
2920.12040,0.01836
2918.19165,0.01893
2916.26290,0.01914
2914.33416,0.01930
2912.40541,0.01939
2910.47667,0.01930
2908.54792,0.01913
2906.61918,0.01903
2904.69043,0.01911
2902.76169,0.01930
2900.83294,0.01942
2898.90420,0.01942
2896.97545,0.01927
2895.04671,0.01910
2893.11796,0.01890
2891.18922,0.01869
2889.26047,0.01873
2887.33172,0.01893
2885.40298,0.01894
2883.47423,0.01880
2881.54549,0.01872
2879.61674,0.01874
2877.68800,0.01879
2875.75925,0.01885
2873.83051,0.01884
2871.90176,0.01889
2869.97302,0.01909
2868.04427,0.01924
2866.11553,0.01932
2864.18678,0.01952
2862.25804,0.01974
2860.32929,0.01992
2858.40055,0.02005
2856.47180,0.02000
2854.54305,0.01972
2852.61431,0.01930
2850.68556,0.01880
2848.75682,0.01853
2846.82807,0.01861
2844.89933,0.01875
2842.97058,0.01888
2841.04184,0.01916
2839.11309,0.01943
2837.18435,0.01950
2835.25560,0.01956
2833.32686,0.01986
2831.39811,0.02022
2829.46937,0.02047
2827.54062,0.02072
2825.61188,0.02102
2823.68313,0.02134
2821.75438,0.02177
2819.82564,0.02233
2817.89689,0.02293
2815.96815,0.02351
2814.03940,0.02398
2812.11066,0.02431
2810.18191,0.02468
2808.25317,0.02532
2806.32442,0.02621
2804.39568,0.02728
2802.46693,0.02844
2800.53819,0.02957
2798.60944,0.03046
2796.68070,0.03102
2794.75195,0.03153
2792.82320,0.03245
2790.89446,0.03398
2788.96571,0.03595
2787.03697,0.03818
2785.10822,0.04055
2783.17948,0.04282
2781.25073,0.04491
2779.32199,0.04685
2777.39324,0.04854
2775.46450,0.04990
2773.53575,0.05092
2771.60701,0.05171
2769.67826,0.05245
2767.74952,0.05310
2765.82077,0.05367
2763.89203,0.05425
2761.96328,0.05485
2760.03453,0.05540
2758.10579,0.05599
2756.17704,0.05665
2754.24830,0.05716
2752.31955,0.05719
2750.39081,0.05672
2748.46206,0.05609
2746.53332,0.05543
2744.60457,0.05463
2742.67583,0.05353
2740.74708,0.05198
2738.81834,0.05005
2736.88959,0.04816
2734.96085,0.04678
2733.03210,0.04586
2731.10336,0.04482
2729.17461,0.04315
2727.24586,0.04093
2725.31712,0.03882
2723.38837,0.03771
2721.45963,0.03792
2719.53088,0.03923
2717.60214,0.04143
2715.67339,0.04406
2713.74465,0.04653
2711.81590,0.04869
2709.88716,0.05053
2707.95841,0.05197
2706.02967,0.05321
2704.10092,0.05459
2702.17218,0.05596
2700.24343,0.05706
2698.31468,0.05796
2696.38594,0.05864
2694.45719,0.05880
2692.52845,0.05845
2690.59970,0.05794
2688.67096,0.05764
2686.74221,0.05772
2684.81347,0.05801
2682.88472,0.05820
2680.95598,0.05813
2679.02723,0.05799
2677.09849,0.05806
2675.16974,0.05841
2673.24100,0.05902
2671.31225,0.05971
2669.38351,0.06017
2667.45476,0.06034
2665.52601,0.06031
2663.59727,0.06009
2661.66852,0.05977
2659.73978,0.05966
2657.81103,0.06014
2655.88229,0.06120
2653.95354,0.06254
2652.02480,0.06385
2650.09605,0.06487
2648.16731,0.06550
2646.23856,0.06586
2644.30982,0.06617
2642.38107,0.06664
2640.45233,0.06738
2638.52358,0.06822
2636.59484,0.06889
2634.66609,0.06912
2632.73734,0.06884
2630.80860,0.06821
2628.87985,0.06742
2626.95111,0.06661
2625.02236,0.06571
2623.09362,0.06470
2621.16487,0.06389
2619.23613,0.06349
2617.30738,0.06340
2615.37864,0.06361
2613.44989,0.06432
2611.52115,0.06554
2609.59240,0.06705
2607.66366,0.06861
2605.73491,0.07014
2603.80616,0.07175
2601.87742,0.07325
2599.94867,0.07428
2598.01993,0.07465
2596.09118,0.07433
2594.16244,0.07352
2592.23369,0.07235
2590.30495,0.07073
2588.37620,0.06873
2586.44746,0.06663
2584.51871,0.06484
2582.58997,0.06384
2580.66122,0.06386
2578.73248,0.06481
2576.80373,0.06647
2574.87499,0.06851
2572.94624,0.07062
2571.01749,0.07264
2569.08875,0.07455
2567.16000,0.07624
2565.23126,0.07760
2563.30251,0.07857
2561.37377,0.07907
2559.44502,0.07922
2557.51628,0.07937
2555.58753,0.07974
2553.65879,0.08030
2551.73004,0.08097
2549.80130,0.08192
2547.87255,0.08324
2545.94381,0.08460
2544.01506,0.08567
2542.08631,0.08646
2540.15757,0.08706
2538.22882,0.08762
2536.30008,0.08824
2534.37133,0.08882
2532.44259,0.08941
2530.51384,0.09020
2528.58510,0.09121
2526.65635,0.09234
2524.72761,0.09350
2522.79886,0.09463
2520.87012,0.09575
2518.94137,0.09689
2517.01263,0.09787
2515.08388,0.09857
2513.15514,0.09904
2511.22639,0.09937
2509.29764,0.09971
2507.36890,0.10014
2505.44015,0.10055
2503.51141,0.10078
2501.58266,0.10088
2499.65392,0.10085
2497.72517,0.10069
2495.79643,0.10055
2493.86768,0.10054
2491.93894,0.10075
2490.01019,0.10114
2488.08145,0.10144
2486.15270,0.10169
2484.22396,0.10211
2482.29521,0.10267
2480.36647,0.10332
2478.43772,0.10396
2476.50897,0.10444
2474.58023,0.10486
2472.65148,0.10544
2470.72274,0.10604
2468.79399,0.10639
2466.86525,0.10657
2464.93650,0.10658
2463.00776,0.10624
2461.07901,0.10572
2459.15027,0.10528
2457.22152,0.10493
2455.29278,0.10470
2453.36403,0.10455
2451.43529,0.10432
2449.50654,0.10392
2447.57779,0.10345
2445.64905,0.10298
2443.72030,0.10240
2441.79156,0.10157
2439.86281,0.10048
2437.93407,0.09918
2436.00532,0.09782
2434.07658,0.09659
2432.14783,0.09573
2430.21909,0.09545
2428.29034,0.09564
2426.36160,0.09604
2424.43285,0.09663
2422.50411,0.09751
2420.57536,0.09858
2418.64662,0.09967
2416.71787,0.10063
2414.78912,0.10120
2412.86038,0.10122
2410.93163,0.10084
2409.00289,0.10034
2407.07414,0.09999
2405.14540,0.09979
2403.21665,0.09951
2401.28791,0.09915
2399.35916,0.09897
2397.43042,0.09917
2395.50167,0.09958
2393.57293,0.10012
2391.64418,0.10082
2389.71544,0.10153
2387.78669,0.10200
2385.85795,0.10227
2383.92920,0.10256
2382.00045,0.10281
2380.07171,0.10275
2378.14296,0.10252
2376.21422,0.10235
2374.28547,0.10222
2372.35673,0.10207
2370.42798,0.10190
2368.49924,0.10175
2366.57049,0.10150
2364.64175,0.10102
2362.71300,0.10066
2360.78426,0.10077
2358.85551,0.10121
2356.92677,0.10172
2354.99802,0.10227
2353.06927,0.10279
2351.14053,0.10337
2349.21178,0.10422
2347.28304,0.10529
2345.35429,0.10627
2343.42555,0.10705
2341.49680,0.10759
2339.56806,0.10795
2337.63931,0.10828
2335.71057,0.10861
2333.78182,0.10901
2331.85308,0.10968
2329.92433,0.11052
2327.99559,0.11125
2326.06684,0.11185
2324.13810,0.11246
2322.20935,0.11320
2320.28060,0.11405
2318.35186,0.11493
2316.42311,0.11571
2314.49437,0.11629
2312.56562,0.11669
2310.63688,0.11698
2308.70813,0.11724
2306.77939,0.11741
2304.85064,0.11741
2302.92190,0.11720
2300.99315,0.11685
2299.06441,0.11662
2297.13566,0.11661
2295.20692,0.11673
2293.27817,0.11701
2291.34943,0.11742
2289.42068,0.11782
2287.49193,0.11812
2285.56319,0.11827
2283.63444,0.11827
2281.70570,0.11805
2279.77695,0.11750
2277.84821,0.11683
2275.91946,0.11610
2273.99072,0.11521
2272.06197,0.11428
2270.13323,0.11360
2268.20448,0.11330
2266.27574,0.11314
2264.34699,0.11274
2262.41825,0.11203
2260.48950,0.11115
2258.56075,0.11035
2256.63201,0.10991
2254.70326,0.10988
2252.77452,0.11040
2250.84577,0.11162
2248.91703,0.11318
2246.98828,0.11454
2245.05954,0.11558
2243.13079,0.11646
2241.20205,0.11717
2239.27330,0.11741
2237.34456,0.11715
2235.41581,0.11668
2233.48707,0.11621
2231.55832,0.11586
2229.62958,0.11589
2227.70083,0.11636
2225.77208,0.11698
2223.84334,0.11756
2221.91459,0.11808
2219.98585,0.11849
2218.05710,0.11867
2216.12836,0.11861
2214.19961,0.11856
2212.27087,0.11860
2210.34212,0.11848
2208.41338,0.11806
2206.48463,0.11747
2204.55589,0.11685
2202.62714,0.11630
2200.69840,0.11597
2198.76965,0.11587
2196.84090,0.11590
2194.91216,0.11580
2192.98341,0.11543
2191.05467,0.11504
2189.12592,0.11481
2187.19718,0.11469
2185.26843,0.11465
2183.33969,0.11473
2181.41094,0.11480
2179.48220,0.11466
2177.55345,0.11430
2175.62471,0.11387
2173.69596,0.11348
2171.76722,0.11331
2169.83847,0.11349
2167.90973,0.11405
2165.98098,0.11501
2164.05223,0.11631
2162.12349,0.11754
2160.19474,0.11841
2158.26600,0.11903
2156.33725,0.11957
2154.40851,0.12007
2152.47976,0.12064
2150.55102,0.12135
2148.62227,0.12215
2146.69353,0.12279
2144.76478,0.12307
2142.83604,0.12288
2140.90729,0.12209
2138.97855,0.12071
2137.04980,0.11908
2135.12106,0.11774
2133.19231,0.11698
2131.26356,0.11677
2129.33482,0.11719
2127.40607,0.11844
2125.47733,0.12051
2123.54858,0.12295
2121.61984,0.12518
2119.69109,0.12699
2117.76235,0.12847
2115.83360,0.12964
2113.90486,0.13053
2111.97611,0.13126
2110.04737,0.13188
2108.11862,0.13230
2106.18988,0.13234
2104.26113,0.13213
2102.33238,0.13199
2100.40364,0.13202
2098.47489,0.13206
2096.54615,0.13211
2094.61740,0.13221
2092.68866,0.13224
2090.75991,0.13228
2088.83117,0.13244
2086.90242,0.13284
2084.97368,0.13369
2083.04493,0.13487
2081.11619,0.13601
2079.18744,0.13714
2077.25870,0.13823
2075.32995,0.13910
2073.40121,0.13978
2071.47246,0.14037
2069.54371,0.14081
2067.61497,0.14104
2065.68622,0.14120
2063.75748,0.14134
2061.82873,0.14129
2059.89999,0.14105
2057.97124,0.14081
2056.04250,0.14054
2054.11375,0.14025
2052.18501,0.14016
2050.25626,0.14024
2048.32752,0.14018
2046.39877,0.14002
2044.47003,0.14009
2042.54128,0.14034
2040.61254,0.14039
2038.68379,0.14013
2036.75504,0.13978
2034.82630,0.13957
2032.89755,0.13944
2030.96881,0.13928
2029.04006,0.13929
2027.11132,0.13966
2025.18257,0.14021
2023.25383,0.14067
2021.32508,0.14100
2019.39634,0.14127
2017.46759,0.14143
2015.53885,0.14149
2013.61010,0.14160
2011.68136,0.14171
2009.75261,0.14164
2007.82386,0.14136
2005.89512,0.14112
2003.96637,0.14113
2002.03763,0.14118
2000.10888,0.14100
1998.18014,0.14067
1996.25139,0.14043
1994.32265,0.14024
1992.39390,0.14012
1990.46516,0.14016
1988.53641,0.14029
1986.60767,0.14042
1984.67892,0.14068
1982.75018,0.14109
1980.82143,0.14140
1978.89269,0.14141
1976.96394,0.14128
1975.03519,0.14124
1973.10645,0.14127
1971.17770,0.14125
1969.24896,0.14105
1967.32021,0.14062
1965.39147,0.14017
1963.46272,0.13976
1961.53398,0.13924
1959.60523,0.13877
1957.67649,0.13867
1955.74774,0.13867
1953.81900,0.13850
1951.89025,0.13840
1949.96151,0.13849
1948.03276,0.13858
1946.10402,0.13864
1944.17527,0.13869
1942.24652,0.13860
1940.31778,0.13839
1938.38903,0.13843
1936.46029,0.13882
1934.53154,0.13921
1932.60280,0.13925
1930.67405,0.13889
1928.74531,0.13844
1926.81656,0.13811
1924.88782,0.13783
1922.95907,0.13751
1921.03033,0.13725
1919.10158,0.13705
1917.17284,0.13686
1915.24409,0.13668
1913.31534,0.13644
1911.38660,0.13617
1909.45785,0.13597
1907.52911,0.13584
1905.60036,0.13569
1903.67162,0.13545
1901.74287,0.13503
1899.81413,0.13434
1897.88538,0.13341
1895.95664,0.13246
1894.02789,0.13180
1892.09915,0.13170
1890.17040,0.13223
1888.24166,0.13323
1886.31291,0.13439
1884.38417,0.13533
1882.45542,0.13590
1880.52667,0.13629
1878.59793,0.13673
1876.66918,0.13715
1874.74044,0.13732
1872.81169,0.13728
1870.88295,0.13716
1868.95420,0.13700
1867.02546,0.13676
1865.09671,0.13650
1863.16797,0.13624
1861.23922,0.13591
1859.31048,0.13554
1857.38173,0.13520
1855.45299,0.13492
1853.52424,0.13479
1851.59549,0.13476
1849.66675,0.13457
1847.73800,0.13420
1845.80926,0.13382
1843.88051,0.13350
1841.95177,0.13314
1840.02302,0.13258
1838.09428,0.13178
1836.16553,0.13089
1834.23679,0.13024
1832.30804,0.13007
1830.37930,0.13026
1828.45055,0.13078
1826.52181,0.13157
1824.59306,0.13232
1822.66432,0.13284
1820.73557,0.13327
1818.80682,0.13367
1816.87808,0.13396
1814.94933,0.13418
1813.02059,0.13435
1811.09184,0.13453
1809.16310,0.13466
1807.23435,0.13465
1805.30561,0.13443
1803.37686,0.13397
1801.44812,0.13339
1799.51937,0.13283
1797.59063,0.13232
1795.66188,0.13187
1793.73314,0.13142
1791.80439,0.13087
1789.87565,0.13028
1787.94690,0.12988
1786.01815,0.12964
1784.08941,0.12942
1782.16066,0.12923
1780.23192,0.12896
1778.30317,0.12849
1776.37443,0.12796
1774.44568,0.12746
1772.51694,0.12680
1770.58819,0.12593
1768.65945,0.12499
1766.73070,0.12392
1764.80196,0.12269
1762.87321,0.12140
1760.94447,0.12008
1759.01572,0.11877
1757.08697,0.11729
1755.15823,0.11546
1753.22948,0.11325
1751.30074,0.11047
1749.37199,0.10736
1747.44325,0.10440
1745.51450,0.10177
1743.58576,0.09980
1741.65701,0.09874
1739.72827,0.09846
1737.79952,0.09890
1735.87078,0.09991
1733.94203,0.10114
1732.01329,0.10212
1730.08454,0.10275
1728.15580,0.10329
1726.22705,0.10403
1724.29830,0.10503
1722.36956,0.10600
1720.44081,0.10670
1718.51207,0.10697
1716.58332,0.10672
1714.65458,0.10611
1712.72583,0.10550
1710.79709,0.10515
1708.86834,0.10499
1706.93960,0.10472
1705.01085,0.10429
1703.08211,0.10392
1701.15336,0.10352
1699.22462,0.10283
1697.29587,0.10206
1695.36713,0.10146
1693.43838,0.10117
1691.50963,0.10120
1689.58089,0.10131
1687.65214,0.10135
1685.72340,0.10141
1683.79465,0.10161
1681.86591,0.10180
1679.93716,0.10189
1678.00842,0.10203
1676.07967,0.10231
1674.15093,0.10255
1672.22218,0.10267
1670.29344,0.10266
1668.36469,0.10246
1666.43595,0.10225
1664.50720,0.10204
1662.57845,0.10174
1660.64971,0.10132
1658.72096,0.10070
1656.79222,0.09992
1654.86347,0.09894
1652.93473,0.09712
1651.00598,0.09479
1649.07724,0.09276
1647.14849,0.09103
1645.21975,0.09026
1643.29100,0.09087
1641.36226,0.09216
1639.43351,0.09338
1637.50477,0.09424
1635.57602,0.09475
1633.64728,0.09512
1631.71853,0.09553
1629.78978,0.09591
1627.86104,0.09601
1625.93229,0.09596
1624.00355,0.09611
1622.07480,0.09648
1620.14606,0.09690
1618.21731,0.09743
1616.28857,0.09786
1614.35982,0.09775
1612.43108,0.09717
1610.50233,0.09645
1608.57359,0.09608
1606.64484,0.09658
1604.71610,0.09781
1602.78735,0.09920
1600.85861,0.10051
1598.92986,0.10166
1597.00111,0.10254
1595.07237,0.10313
1593.14362,0.10349
1591.21488,0.10382
1589.28613,0.10429
1587.35739,0.10474
1585.42864,0.10490
1583.49990,0.10483
1581.57115,0.10473
1579.64241,0.10466
1577.71366,0.10448
1575.78492,0.10412
1573.85617,0.10374
1571.92743,0.10348
1569.99868,0.10315
1568.06993,0.10259
1566.14119,0.10181
1564.21244,0.10093
1562.28370,0.10022
1560.35495,0.09959
1558.42621,0.09851
1556.49746,0.09729
1554.56872,0.09641
1552.63997,0.09580
1550.71123,0.09533
1548.78248,0.09482
1546.85374,0.09414
1544.92499,0.09330
1542.99625,0.09242
1541.06750,0.09154
1539.13876,0.09057
1537.21001,0.08986
1535.28126,0.08956
1533.35252,0.08949
1531.42377,0.08947
1529.49503,0.08928
1527.56628,0.08908
1525.63754,0.08921
1523.70879,0.08955
1521.78005,0.08956
1519.85130,0.08903
1517.92256,0.08827
1515.99381,0.08746
1514.06507,0.08644
1512.13632,0.08502
1510.20758,0.08333
1508.27883,0.08143
1506.35008,0.07928
1504.42134,0.07721
1502.49259,0.07520
1500.56385,0.07279
1498.63510,0.06997
1496.70636,0.06707
1494.77761,0.06426
1492.84887,0.06155
1490.92012,0.05858
1488.99138,0.05515
1487.06263,0.05140
1485.13389,0.04736
1483.20514,0.04309
1481.27640,0.03870
1479.34765,0.03430
1477.41891,0.02998
1475.49016,0.02599
1473.56141,0.02256
1471.63267,0.01990
1469.70392,0.01830
1467.77518,0.01760
1465.84643,0.01732
1463.91769,0.01718
1461.98894,0.01714
1460.06020,0.01730
1458.13145,0.01758
1456.20271,0.01782
1454.27396,0.01794
1452.34522,0.01797
1450.41647,0.01805
1448.48773,0.01842
1446.55898,0.01915
1444.63024,0.02001
1442.70149,0.02065
1440.77274,0.02097
1438.84400,0.02125
1436.91525,0.02191
1434.98651,0.02377
1433.05776,0.02760
1431.12902,0.03297
1429.20027,0.03848
1427.27153,0.04297
1425.34278,0.04627
1423.41404,0.04863
1421.48529,0.05047
1419.55655,0.05216
1417.62780,0.05351
1415.69906,0.05438
1413.77031,0.05497
1411.84156,0.05539
1409.91282,0.05573
1407.98407,0.05592
1406.05533,0.05565
1404.12658,0.05474
1402.19784,0.05363
1400.26909,0.05253
1398.34035,0.05119
1396.41160,0.04920
1394.48286,0.04631
1392.55411,0.04272
1390.62537,0.03860
1388.69662,0.03353
1386.76788,0.02767
1384.83913,0.02254
1382.91039,0.01927
1380.98164,0.01764
1379.05289,0.01718
1377.12415,0.01765
1375.19540,0.01847
1373.26666,0.01936
1371.33791,0.02078
1369.40917,0.02290
1367.48042,0.02503
1365.55168,0.02634
1363.62293,0.02649
1361.69419,0.02568
1359.76544,0.02481
1357.83670,0.02510
1355.90795,0.02733
1353.97921,0.03124
1352.05046,0.03592
1350.12172,0.04074
1348.19297,0.04543
1346.26422,0.04987
1344.33548,0.05388
1342.40673,0.05707
1340.47799,0.05925
1338.54924,0.06032
1336.62050,0.06011
1334.69175,0.05853
1332.76301,0.05590
1330.83426,0.05333
1328.90552,0.05237
1326.97677,0.05380
1325.04803,0.05734
1323.11928,0.06188
1321.19054,0.06591
1319.26179,0.06876
1317.33304,0.07067
1315.40430,0.07183
1313.47555,0.07161
1311.54681,0.06900
1309.61806,0.06310
1307.68932,0.05430
1305.76057,0.04606
1303.83183,0.04284
1301.90308,0.04491
1299.97434,0.04855
1298.04559,0.05123
1296.11685,0.05347
1294.18810,0.05659
1292.25936,0.06082
1290.33061,0.06521
1288.40187,0.06884
1286.47312,0.07176
1284.54437,0.07430
1282.61563,0.07640
1280.68688,0.07805
1278.75814,0.07929
1276.82939,0.08007
1274.90065,0.08036
1272.97190,0.08019
1271.04316,0.07967
1269.11441,0.07866
1267.18567,0.07681
1265.25692,0.07398
1263.32818,0.06997
1261.39943,0.06435
1259.47069,0.05722
1257.54194,0.05036
1255.61320,0.04714
1253.68445,0.04991
1251.75570,0.05712
1249.82696,0.06491
1247.89821,0.07096
1245.96947,0.07523
1244.04072,0.07832
1242.11198,0.08062
1240.18323,0.08225
1238.25449,0.08338
1236.32574,0.08421
1234.39700,0.08478
1232.46825,0.08503
1230.53951,0.08481
1228.61076,0.08388
1226.68202,0.08211
1224.75327,0.07936
1222.82452,0.07588
1220.89578,0.07284
1218.96703,0.07168
1217.03829,0.07291
1215.10954,0.07579
1213.18080,0.07893
1211.25205,0.08141
1209.32331,0.08316
1207.39456,0.08421
1205.46582,0.08447
1203.53707,0.08433
1201.60833,0.08433
1199.67958,0.08448
1197.75084,0.08459
1195.82209,0.08449
1193.89335,0.08417
1191.96460,0.08371
1190.03585,0.08317
1188.10711,0.08207
1186.17836,0.07994
1184.24962,0.07679
1182.32087,0.07266
1180.39213,0.06726
1178.46338,0.06045
1176.53464,0.05258
1174.60589,0.04444
1172.67715,0.03736
1170.74840,0.03245
1168.81966,0.02959
1166.89091,0.02815
1164.96217,0.02798
1163.03342,0.02891
1161.10467,0.03058
1159.17593,0.03253
1157.24718,0.03415
1155.31844,0.03530
1153.38969,0.03648
1151.46095,0.03842
1149.53220,0.04175
1147.60346,0.04633
1145.67471,0.05147
1143.74597,0.05670
1141.81722,0.06180
1139.88848,0.06675
1137.95973,0.07150
1136.03099,0.07557
1134.10224,0.07855
1132.17350,0.08068
1130.24475,0.08233
1128.31600,0.08355
1126.38726,0.08421
1124.45851,0.08417
1122.52977,0.08365
1120.60102,0.08318
1118.67228,0.08286
1116.74353,0.08226
1114.81479,0.08120
1112.88604,0.07971
1110.95730,0.07753
1109.02855,0.07423
1107.09981,0.06976
1105.17106,0.06486
1103.24232,0.06163
1101.31357,0.06233
1099.38483,0.06661
1097.45608,0.07192
1095.52733,0.07664
1093.59859,0.08075
1091.66984,0.08463
1089.74110,0.08826
1087.81235,0.09127
1085.88361,0.09326
1083.95486,0.09449
1082.02612,0.09577
1080.09737,0.09721
1078.16863,0.09814
1076.23988,0.09871
1074.31114,0.09936
1072.38239,0.09980
1070.45365,0.10001
1068.52490,0.10026
1066.59615,0.10022
1064.66741,0.09973
1062.73866,0.09904
1060.80992,0.09828
1058.88117,0.09748
1056.95243,0.09652
1055.02368,0.09495
1053.09494,0.09237
1051.16619,0.08869
1049.23745,0.08369
1047.30870,0.07781
1045.37996,0.07329
1043.45121,0.07278
1041.52247,0.07648
1039.59372,0.08181
1037.66498,0.08603
1035.73623,0.08877
1033.80748,0.09117
1031.87874,0.09339
1029.94999,0.09475
1028.02125,0.09510
1026.09250,0.09477
1024.16376,0.09380
1022.23501,0.09214
1020.30627,0.08998
1018.37752,0.08754
1016.44878,0.08483
1014.52003,0.08155
1012.59129,0.07742
1010.66254,0.07243
1008.73380,0.06640
1006.80505,0.05908
1004.87631,0.05083
1002.94756,0.04292
1001.01881,0.03696
999.09007,0.03392
997.16132,0.03399
995.23258,0.03716
993.30383,0.04300
991.37509,0.05007
989.44634,0.05644
987.51760,0.06075
985.58885,0.06198
983.66011,0.05933
981.73136,0.05295
979.80262,0.04429
977.87387,0.03560
975.94513,0.02916
974.01638,0.02647
972.08763,0.02786
970.15889,0.03300
968.23014,0.04133
966.30140,0.05189
964.37265,0.06303
962.44391,0.07319
960.51516,0.08183
958.58642,0.08909
956.65767,0.09509
954.72893,0.09983
952.80018,0.10321
950.87144,0.10545
948.94269,0.10649
947.01395,0.10561
945.08520,0.10245
943.15646,0.09788
941.22771,0.09441
939.29896,0.09552
937.37022,0.10229
935.44147,0.11141
933.51273,0.11888
931.58398,0.12367
929.65524,0.12646
927.72649,0.12767
925.79775,0.12774
923.86900,0.12745
921.94026,0.12727
920.01151,0.12698
918.08277,0.12612
916.15402,0.12474
914.22528,0.12295
912.29653,0.12038
910.36779,0.11677
908.43904,0.11175
906.51029,0.10366
904.58155,0.09113
902.65280,0.07631
900.72406,0.06478
898.79531,0.06190
896.86657,0.06906
894.93782,0.08250
893.00908,0.09603
891.08033,0.10573
889.15159,0.11129
887.22284,0.11407
885.29410,0.11556
883.36535,0.11664
881.43661,0.11719
879.50786,0.11676
877.57911,0.11551
875.65037,0.11413
873.72162,0.11327
871.79288,0.11286
869.86413,0.11235
867.93539,0.11143
866.00664,0.11003
864.07790,0.10821
862.14915,0.10580
860.22041,0.10274
858.29166,0.09935
856.36292,0.09557
854.43417,0.09115
852.50543,0.08597
850.57668,0.07952
848.64794,0.07135
846.71919,0.06157
844.79044,0.05112
842.86170,0.04250
840.93295,0.03929
839.00421,0.04343
837.07546,0.05337
835.14672,0.06498
833.21797,0.07475
831.28923,0.08211
829.36048,0.08810
827.43174,0.09301
825.50299,0.09669
823.57425,0.09928
821.64550,0.10033
819.71676,0.09912
817.78801,0.09534
815.85926,0.08839
813.93052,0.07838
812.00177,0.06786
810.07303,0.06080
808.14428,0.06033
806.21554,0.06694
804.28679,0.07764
802.35805,0.08808
800.42930,0.09602
798.50056,0.10190
796.57181,0.10712
794.64307,0.11235
792.71432,0.11734
790.78558,0.12195
788.85683,0.12678
786.92809,0.13205
784.99934,0.13724
783.07059,0.14176
781.14185,0.14503
779.21310,0.14698
777.28436,0.14838
775.35561,0.14956
773.42687,0.15004
771.49812,0.14970
769.56938,0.14947
767.64063,0.14989
765.71189,0.15040
763.78314,0.15072
761.85440,0.15116
759.92565,0.15154
757.99691,0.15162
756.06816,0.15157
754.13942,0.15189
752.21067,0.15277
750.28192,0.15335
748.35318,0.15294
746.42443,0.15208
744.49569,0.15149
742.56694,0.15131
740.63820,0.15138
738.70945,0.15138
736.78071,0.15101
734.85196,0.15001
732.92322,0.14803
730.99447,0.14531
729.06573,0.14289
727.13698,0.14097
725.20824,0.13871
723.27949,0.13575
721.35074,0.13369
719.42200,0.13519
717.49325,0.13952
715.56451,0.14314
713.63576,0.14499
711.70702,0.14623
709.77827,0.14733
707.84953,0.14832
705.92078,0.14921
703.99204,0.14971
702.06329,0.14975
700.13455,0.14967
698.20580,0.14963
696.27706,0.14983
694.34831,0.15047
692.41957,0.15131
690.49082,0.15201
688.56207,0.15238
686.63333,0.15242
684.70458,0.15251
682.77584,0.15284
680.84709,0.15326
678.91835,0.15327
676.98960,0.15269
675.06086,0.15205
673.13211,0.15158
671.20337,0.15106
669.27462,0.15077
667.34588,0.15103
665.41713,0.15155
663.48839,0.15213
661.55964,0.15268
659.63090,0.15264
657.70215,0.15197
655.77340,0.15170
653.84466,0.15222
651.91591,0.15308
649.98717,0.15401
648.05842,0.15457
646.12968,0.15432
644.20093,0.15376
642.27219,0.15386
640.34344,0.15468
638.41470,0.15546
636.48595,0.15583
634.55721,0.15560
632.62846,0.15501
630.69972,0.15507
628.77097,0.15559
626.84222,0.15561
624.91348,0.15512
622.98473,0.15470
621.05599,0.15468
619.12724,0.15507
617.19850,0.15554
615.26975,0.15531
613.34101,0.15430
611.41226,0.15396
609.48352,0.15484
607.55477,0.15593
605.62603,0.15672
603.69728,0.15669
601.76854,0.15558
599.83979,0.15478
