7497.03301,0.11507
7495.10426,0.11443
7493.17552,0.11410
7491.24677,0.11441
7489.31803,0.11540
7487.38928,0.11576
7485.46054,0.11724
7483.53179,0.12029
7481.60305,0.12224
7479.67430,0.12368
7477.74556,0.12539
7475.81681,0.12520
7473.88807,0.12213
7471.95932,0.11887
7470.03057,0.11825
7468.10183,0.11905
7466.17308,0.12093
7464.24434,0.12557
7462.31559,0.12805
7460.38685,0.12506
7458.45810,0.12317
7456.52936,0.12454
7454.60061,0.12403
7452.67187,0.12018
7450.74312,0.11719
7448.81438,0.11895
7446.88563,0.12230
7444.95689,0.12259
7443.02814,0.12064
7441.09940,0.11828
7439.17065,0.11694
7437.24190,0.11858
7435.31316,0.12178
7433.38441,0.12377
7431.45567,0.12312
7429.52692,0.12022
7427.59818,0.11778
7425.66943,0.11761
7423.74069,0.11956
7421.81194,0.12259
7419.88320,0.12205
7417.95445,0.11705
7416.02571,0.11372
7414.09696,0.11478
7412.16822,0.11700
7410.23947,0.11784
7408.31073,0.11813
7406.38198,0.11800
7404.45323,0.11607
7402.52449,0.11490
7400.59574,0.11715
7398.66700,0.11883
7396.73825,0.11708
7394.80951,0.11578
7392.88076,0.11546
7390.95202,0.11420
7389.02327,0.11507
7387.09453,0.11721
7385.16578,0.11467
7383.23704,0.10950
7381.30829,0.10803
7379.37955,0.10968
7377.45080,0.11106
7375.52205,0.11254
7373.59331,0.11578
7371.66456,0.11827
7369.73582,0.11678
7367.80707,0.11543
7365.87833,0.11614
7363.94958,0.11610
7362.02084,0.11786
7360.09209,0.12236
7358.16335,0.12471
7356.23460,0.12266
7354.30586,0.11829
7352.37711,0.11469
7350.44837,0.11215
7348.51962,0.11104
7346.59088,0.11257
7344.66213,0.11580
7342.73338,0.11882
7340.80464,0.11924
7338.87589,0.11698
7336.94715,0.11557
7335.01840,0.11593
7333.08966,0.11686
7331.16091,0.11823
7329.23217,0.11903
7327.30342,0.11731
7325.37468,0.11454
7323.44593,0.11575
7321.51719,0.12184
7319.58844,0.12568
7317.65970,0.12243
7315.73095,0.11629
7313.80221,0.11297
7311.87346,0.11267
7309.94471,0.11161
7308.01597,0.10848
7306.08722,0.10867
7304.15848,0.11498
7302.22973,0.12110
7300.30099,0.12397
7298.37224,0.12734
7296.44350,0.13028
7294.51475,0.12825
7292.58601,0.12279
7290.65726,0.12071
7288.72852,0.12303
7286.79977,0.12492
7284.87103,0.12495
7282.94228,0.12509
7281.01353,0.12465
7279.08479,0.12198
7277.15604,0.11949
7275.22730,0.11961
7273.29855,0.11992
7271.36981,0.11854
7269.44106,0.11649
7267.51232,0.11461
7265.58357,0.11535
7263.65483,0.11974
7261.72608,0.12192
7259.79734,0.11803
7257.86859,0.11351
7255.93985,0.11359
7254.01110,0.11591
7252.08236,0.11700
7250.15361,0.11726
7248.22486,0.11685
7246.29612,0.11490
7244.36737,0.11357
7242.43863,0.11483
7240.50988,0.11700
7238.58114,0.11657
7236.65239,0.11383
7234.72365,0.11295
7232.79490,0.11357
7230.86616,0.11173
7228.93741,0.10966
7227.00867,0.11096
7225.07992,0.11355
7223.15118,0.11510
7221.22243,0.11621
7219.29369,0.11682
7217.36494,0.11772
7215.43619,0.11930
7213.50745,0.12010
7211.57870,0.12094
7209.64996,0.12219
7207.72121,0.12065
7205.79247,0.11613
7203.86372,0.11225
7201.93498,0.11128
7200.00623,0.11342
7198.07749,0.11661
7196.14874,0.11703
7194.22000,0.11461
7192.29125,0.11299
7190.36251,0.11331
7188.43376,0.11416
7186.50501,0.11564
7184.57627,0.11728
7182.64752,0.11641
7180.71878,0.11338
7178.79003,0.11156
7176.86129,0.11200
7174.93254,0.11350
7173.00380,0.11400
7171.07505,0.11258
7169.14631,0.11190
7167.21756,0.11350
7165.28882,0.11383
7163.36007,0.11197
7161.43133,0.11252
7159.50258,0.11582
7157.57384,0.11717
7155.64509,0.11623
7153.71634,0.11568
7151.78760,0.11639
7149.85885,0.11788
7147.93011,0.11855
7146.00136,0.11764
7144.07262,0.11612
7142.14387,0.11407
7140.21513,0.11221
7138.28638,0.11174
7136.35764,0.11340
7134.42889,0.11667
7132.50015,0.11814
7130.57140,0.11637
7128.64266,0.11435
7126.71391,0.11318
7124.78516,0.11115
7122.85642,0.10894
7120.92767,0.10986
7118.99893,0.11417
7117.07018,0.11767
7115.14144,0.11802
7113.21269,0.11873
7111.28395,0.12188
7109.35520,0.12246
7107.42646,0.11826
7105.49771,0.11497
7103.56897,0.11532
7101.64022,0.11526
7099.71148,0.11360
7097.78273,0.11311
7095.85399,0.11334
7093.92524,0.11274
7091.99649,0.11275
7090.06775,0.11413
7088.13900,0.11497
7086.21026,0.11361
7084.28151,0.11213
7082.35277,0.11359
7080.42402,0.11694
7078.49528,0.11881
7076.56653,0.11809
7074.63779,0.11715
7072.70904,0.11735
7070.78030,0.11746
7068.85155,0.11749
7066.92281,0.11739
7064.99406,0.11656
7063.06532,0.11536
7061.13657,0.11382
7059.20782,0.11304
7057.27908,0.11382
7055.35033,0.11359
7053.42159,0.11225
7051.49284,0.11189
7049.56410,0.11138
7047.63535,0.11197
7045.70661,0.11462
7043.77786,0.11559
7041.84912,0.11464
7039.92037,0.11441
7037.99163,0.11436
7036.06288,0.11290
7034.13414,0.11075
7032.20539,0.10970
7030.27664,0.11049
7028.34790,0.11336
7026.41915,0.11735
7024.49041,0.12038
7022.56166,0.12040
7020.63292,0.11810
7018.70417,0.11641
7016.77543,0.11621
7014.84668,0.11765
7012.91794,0.11930
7010.98919,0.11747
7009.06045,0.11256
7007.13170,0.10884
7005.20296,0.10818
7003.27421,0.10951
7001.34547,0.11179
6999.41672,0.11389
6997.48797,0.11548
6995.55923,0.11648
6993.63048,0.11614
6991.70174,0.11487
6989.77299,0.11380
6987.84425,0.11337
6985.91550,0.11388
6983.98676,0.11571
6982.05801,0.11830
6980.12927,0.11900
6978.20052,0.11701
6976.27178,0.11504
6974.34303,0.11465
6972.41429,0.11469
6970.48554,0.11384
6968.55680,0.11225
6966.62805,0.11194
6964.69930,0.11408
6962.77056,0.11675
6960.84181,0.11745
6958.91307,0.11572
6956.98432,0.11312
6955.05558,0.11205
6953.12683,0.11286
6951.19809,0.11462
6949.26934,0.11835
6947.34060,0.12237
6945.41185,0.12139
6943.48311,0.11697
6941.55436,0.11468
6939.62562,0.11481
6937.69687,0.11562
6935.76812,0.11580
6933.83938,0.11421
6931.91063,0.11259
6929.98189,0.11310
6928.05314,0.11532
6926.12440,0.11722
6924.19565,0.11771
6922.26691,0.11875
6920.33816,0.12188
6918.40942,0.12475
6916.48067,0.12570
6914.55193,0.12468
6912.62318,0.12105
6910.69444,0.11644
6908.76569,0.11496
6906.83695,0.11753
6904.90820,0.11966
6902.97945,0.11832
6901.05071,0.11486
6899.12196,0.11219
6897.19322,0.11348
6895.26447,0.11745
6893.33573,0.11912
6891.40698,0.11780
6889.47824,0.11624
6887.54949,0.11440
6885.62075,0.11230
6883.69200,0.11238
6881.76326,0.11369
6879.83451,0.11414
6877.90577,0.11483
6875.97702,0.11629
6874.04828,0.11700
6872.11953,0.11589
6870.19078,0.11578
6868.26204,0.11819
6866.33329,0.11979
6864.40455,0.11989
6862.47580,0.12082
6860.54706,0.12246
6858.61831,0.12243
6856.68957,0.11912
6854.76082,0.11510
6852.83208,0.11446
6850.90333,0.11611
6848.97459,0.11638
6847.04584,0.11541
6845.11710,0.11540
6843.18835,0.11653
6841.25960,0.11656
6839.33086,0.11495
6837.40211,0.11409
6835.47337,0.11515
6833.54462,0.11693
6831.61588,0.11814
6829.68713,0.11758
6827.75839,0.11526
6825.82964,0.11414
6823.90090,0.11623
6821.97215,0.11832
6820.04341,0.11779
6818.11466,0.11644
6816.18592,0.11644
6814.25717,0.11780
6812.32843,0.11948
6810.39968,0.11999
6808.47093,0.11832
6806.54219,0.11646
6804.61344,0.11639
6802.68470,0.11764
6800.75595,0.11952
6798.82721,0.12044
6796.89846,0.11988
6794.96972,0.11941
6793.04097,0.11911
6791.11223,0.11855
6789.18348,0.11917
6787.25474,0.12108
6785.32599,0.12112
6783.39725,0.11875
6781.46850,0.11801
6779.53975,0.11960
6777.61101,0.11984
6775.68226,0.11818
6773.75352,0.11699
6771.82477,0.11803
6769.89603,0.12167
6767.96728,0.12322
6766.03854,0.11913
6764.10979,0.11499
6762.18105,0.11524
6760.25230,0.11675
6758.32356,0.11686
6756.39481,0.11704
6754.46607,0.11859
6752.53732,0.11906
6750.60858,0.11745
6748.67983,0.11641
6746.75108,0.11703
6744.82234,0.11827
6742.89359,0.11823
6740.96485,0.11710
6739.03610,0.11744
6737.10736,0.11772
6735.17861,0.11542
6733.24987,0.11279
6731.32112,0.11295
6729.39238,0.11547
6727.46363,0.11673
6725.53489,0.11598
6723.60614,0.11588
6721.67740,0.11627
6719.74865,0.11652
6717.81991,0.11768
6715.89116,0.11836
6713.96241,0.11708
6712.03367,0.11550
6710.10492,0.11499
6708.17618,0.11501
6706.24743,0.11505
6704.31869,0.11510
6702.38994,0.11572
6700.46120,0.11764
6698.53245,0.11938
6696.60371,0.11864
6694.67496,0.11637
6692.74622,0.11511
6690.81747,0.11626
6688.88873,0.11928
6686.95998,0.12098
6685.03123,0.11978
6683.10249,0.11842
6681.17374,0.11910
6679.24500,0.12061
6677.31625,0.12073
6675.38751,0.11891
6673.45876,0.11690
6671.53002,0.11615
6669.60127,0.11614
6667.67253,0.11636
6665.74378,0.11596
6663.81504,0.11460
6661.88629,0.11465
6659.95755,0.11676
6658.02880,0.11793
6656.10006,0.11714
6654.17131,0.11653
6652.24256,0.11660
6650.31382,0.11637
6648.38507,0.11653
6646.45633,0.11765
6644.52758,0.11850
6642.59884,0.11794
6640.67009,0.11672
6638.74135,0.11650
6636.81260,0.11772
6634.88386,0.11927
6632.95511,0.11977
6631.02637,0.11914
6629.09762,0.11832
6627.16888,0.11902
6625.24013,0.12107
6623.31139,0.12106
6621.38264,0.11850
6619.45389,0.11651
6617.52515,0.11615
6615.59640,0.11762
6613.66766,0.11994
6611.73891,0.11981
6609.81017,0.11722
6607.88142,0.11634
6605.95268,0.11920
6604.02393,0.12280
6602.09519,0.12233
6600.16644,0.11869
6598.23770,0.11702
6596.30895,0.11744
6594.38021,0.11718
6592.45146,0.11685
6590.52271,0.11731
6588.59397,0.11756
6586.66522,0.11712
6584.73648,0.11704
6582.80773,0.11735
6580.87899,0.11656
6578.95024,0.11527
6577.02150,0.11556
6575.09275,0.11752
6573.16401,0.11979
6571.23526,0.12081
6569.30652,0.11986
6567.37777,0.11801
6565.44903,0.11689
6563.52028,0.11721
6561.59154,0.11846
6559.66279,0.11920
6557.73404,0.11897
6555.80530,0.11883
6553.87655,0.11890
6551.94781,0.11846
6550.01906,0.11786
6548.09032,0.11773
6546.16157,0.11882
6544.23283,0.12072
6542.30408,0.12162
6540.37534,0.12162
6538.44659,0.12187
6536.51785,0.12138
6534.58910,0.11980
6532.66036,0.11903
6530.73161,0.12003
6528.80287,0.12115
6526.87412,0.12051
6524.94537,0.11867
6523.01663,0.11820
6521.08788,0.11967
6519.15914,0.12048
6517.23039,0.11987
6515.30165,0.11985
6513.37290,0.12109
6511.44416,0.12196
6509.51541,0.12031
6507.58667,0.11759
6505.65792,0.11729
6503.72918,0.11884
6501.80043,0.12001
6499.87169,0.11999
6497.94294,0.11828
6496.01419,0.11598
6494.08545,0.11512
6492.15670,0.11578
6490.22796,0.11664
6488.29921,0.11758
6486.37047,0.11813
6484.44172,0.11779
6482.51298,0.11886
6480.58423,0.12131
6478.65549,0.12170
6476.72674,0.12035
6474.79800,0.11939
6472.86925,0.11841
6470.94051,0.11745
6469.01176,0.11718
6467.08302,0.11664
6465.15427,0.11588
6463.22552,0.11626
6461.29678,0.11772
6459.36803,0.11886
6457.43929,0.11919
6455.51054,0.11903
6453.58180,0.11839
6451.65305,0.11823
6449.72431,0.11984
6447.79556,0.12215
6445.86682,0.12250
6443.93807,0.12046
6442.00933,0.11784
6440.08058,0.11545
6438.15184,0.11447
6436.22309,0.11541
6434.29434,0.11575
6432.36560,0.11490
6430.43685,0.11543
6428.50811,0.11793
6426.57936,0.12051
6424.65062,0.12127
6422.72187,0.11982
6420.79313,0.11795
6418.86438,0.11734
6416.93564,0.11795
6415.00689,0.11912
6413.07815,0.11949
6411.14940,0.11934
6409.22066,0.12042
6407.29191,0.12184
6405.36317,0.12196
6403.43442,0.12067
6401.50567,0.11895
6399.57693,0.11850
6397.64818,0.11940
6395.71944,0.12038
6393.79069,0.12082
6391.86195,0.12019
6389.93320,0.11865
6388.00446,0.11812
6386.07571,0.11908
6384.14697,0.11960
6382.21822,0.11940
6380.28948,0.11923
6378.36073,0.11827
6376.43199,0.11661
6374.50324,0.11573
6372.57450,0.11624
6370.64575,0.11729
6368.71700,0.11852
6366.78826,0.12026
6364.85951,0.12117
6362.93077,0.11949
6361.00202,0.11667
6359.07328,0.11570
6357.14453,0.11658
6355.21579,0.11700
6353.28704,0.11755
6351.35830,0.11945
6349.42955,0.12124
6347.50081,0.12211
6345.57206,0.12177
6343.64332,0.11994
6341.71457,0.11827
6339.78582,0.11826
6337.85708,0.11940
6335.92833,0.11940
6333.99959,0.11761
6332.07084,0.11667
6330.14210,0.11731
6328.21335,0.11791
6326.28461,0.11866
6324.35586,0.11950
6322.42712,0.11964
6320.49837,0.11886
6318.56963,0.11729
6316.64088,0.11688
6314.71214,0.11901
6312.78339,0.12084
6310.85465,0.12008
6308.92590,0.11832
6306.99715,0.11740
6305.06841,0.11795
6303.13966,0.11940
6301.21092,0.12049
6299.28217,0.12124
6297.35343,0.12158
6295.42468,0.12101
6293.49594,0.12000
6291.56719,0.11926
6289.63845,0.11871
6287.70970,0.11804
6285.78096,0.11775
6283.85221,0.11815
6281.92347,0.11792
6279.99472,0.11654
6278.06598,0.11570
6276.13723,0.11620
6274.20848,0.11718
6272.27974,0.11834
6270.35099,0.11920
6268.42225,0.11925
6266.49350,0.11911
6264.56476,0.11918
6262.63601,0.11921
6260.70727,0.11945
6258.77852,0.12021
6256.84978,0.12069
6254.92103,0.12054
6252.99229,0.12129
6251.06354,0.12221
6249.13480,0.12063
6247.20605,0.11836
6245.27730,0.11910
6243.34856,0.12163
6241.41981,0.12231
6239.49107,0.12056
6237.56232,0.11887
6235.63358,0.11878
6233.70483,0.11927
6231.77609,0.11960
6229.84734,0.11981
6227.91860,0.11933
6225.98985,0.11826
6224.06111,0.11801
6222.13236,0.11957
6220.20362,0.12154
6218.27487,0.12163
6216.34613,0.12001
6214.41738,0.11869
6212.48863,0.11865
6210.55989,0.11885
6208.63114,0.11843
6206.70240,0.11807
6204.77365,0.11836
6202.84491,0.11869
6200.91616,0.11842
6198.98742,0.11827
6197.05867,0.11919
6195.12993,0.12073
6193.20118,0.12146
6191.27244,0.12096
6189.34369,0.12068
6187.41495,0.12070
6185.48620,0.11965
6183.55746,0.11820
6181.62871,0.11751
6179.69996,0.11761
6177.77122,0.11850
6175.84247,0.11911
6173.91373,0.11819
6171.98498,0.11689
6170.05624,0.11646
6168.12749,0.11587
6166.19875,0.11465
6164.27000,0.11407
6162.34126,0.11471
6160.41251,0.11581
6158.48377,0.11694
6156.55502,0.11819
6154.62628,0.11877
6152.69753,0.11833
6150.76878,0.11783
6148.84004,0.11783
6146.91129,0.11790
6144.98255,0.11743
6143.05380,0.11696
6141.12506,0.11786
6139.19631,0.11925
6137.26757,0.11953
6135.33882,0.11907
6133.41008,0.11796
6131.48133,0.11661
6129.55259,0.11643
6127.62384,0.11783
6125.69510,0.11924
6123.76635,0.11881
6121.83761,0.11808
6119.90886,0.11900
6117.98011,0.12010
6116.05137,0.12012
6114.12262,0.11982
6112.19388,0.11974
6110.26513,0.11942
6108.33639,0.11917
6106.40764,0.11935
6104.47890,0.11896
6102.55015,0.11816
6100.62141,0.11752
6098.69266,0.11681
6096.76392,0.11674
6094.83517,0.11764
6092.90643,0.11855
6090.97768,0.11882
6089.04893,0.11889
6087.12019,0.11893
6085.19144,0.11894
6083.26270,0.11921
6081.33395,0.11926
6079.40521,0.11884
6077.47646,0.11829
6075.54772,0.11792
6073.61897,0.11790
6071.69023,0.11821
6069.76148,0.11860
6067.83274,0.11843
6065.90399,0.11805
6063.97525,0.11820
6062.04650,0.11801
6060.11776,0.11710
6058.18901,0.11683
6056.26026,0.11790
6054.33152,0.11968
6052.40277,0.12039
6050.47403,0.11861
6048.54528,0.11637
6046.61654,0.11602
6044.68779,0.11659
6042.75905,0.11702
6040.83030,0.11756
6038.90156,0.11756
6036.97281,0.11659
6035.04407,0.11590
6033.11532,0.11663
6031.18658,0.11792
6029.25783,0.11828
6027.32909,0.11738
6025.40034,0.11633
6023.47159,0.11635
6021.54285,0.11738
6019.61410,0.11890
6017.68536,0.12012
6015.75661,0.12030
6013.82787,0.11972
6011.89912,0.11880
6009.97038,0.11816
6008.04163,0.11806
6006.11289,0.11781
6004.18414,0.11763
6002.25540,0.11796
6000.32665,0.11821
5998.39791,0.11805
5996.46916,0.11772
5994.54041,0.11757
5992.61167,0.11768
5990.68292,0.11785
5988.75418,0.11783
5986.82543,0.11727
5984.89669,0.11634
5982.96794,0.11595
5981.03920,0.11665
5979.11045,0.11739
5977.18171,0.11779
5975.25296,0.11854
5973.32422,0.11852
5971.39547,0.11731
5969.46673,0.11704
5967.53798,0.11791
5965.60924,0.11791
5963.68049,0.11683
5961.75174,0.11613
5959.82300,0.11654
5957.89425,0.11711
5955.96551,0.11680
5954.03676,0.11596
5952.10802,0.11459
5950.17927,0.11301
5948.25053,0.11310
5946.32178,0.11501
5944.39304,0.11669
5942.46429,0.11679
5940.53555,0.11582
5938.60680,0.11459
5936.67806,0.11318
5934.74931,0.11230
5932.82057,0.11277
5930.89182,0.11379
5928.96307,0.11352
5927.03433,0.11147
5925.10558,0.10990
5923.17684,0.11025
5921.24809,0.11097
5919.31935,0.11060
5917.39060,0.10934
5915.46186,0.10797
5913.53311,0.10687
5911.60437,0.10629
5909.67562,0.10630
5907.74688,0.10645
5905.81813,0.10644
5903.88939,0.10605
5901.96064,0.10487
5900.03189,0.10326
5898.10315,0.10259
5896.17440,0.10308
5894.24566,0.10361
5892.31691,0.10406
5890.38817,0.10446
5888.45942,0.10429
5886.53068,0.10400
5884.60193,0.10405
5882.67319,0.10432
5880.74444,0.10467
5878.81570,0.10447
5876.88695,0.10342
5874.95821,0.10245
5873.02946,0.10141
5871.10072,0.09963
5869.17197,0.09850
5867.24322,0.09914
5865.31448,0.10032
5863.38573,0.10090
5861.45699,0.10054
5859.52824,0.09915
5857.59950,0.09807
5855.67075,0.09862
5853.74201,0.09980
5851.81326,0.10024
5849.88452,0.10020
5847.95577,0.10049
5846.02703,0.10135
5844.09828,0.10249
5842.16954,0.10353
5840.24079,0.10385
5838.31205,0.10347
5836.38330,0.10375
5834.45455,0.10531
5832.52581,0.10629
5830.59706,0.10509
5828.66832,0.10278
5826.73957,0.10172
5824.81083,0.10274
5822.88208,0.10412
5820.95334,0.10477
5819.02459,0.10521
5817.09585,0.10460
5815.16710,0.10309
5813.23836,0.10260
5811.30961,0.10259
5809.38087,0.10196
5807.45212,0.10158
5805.52337,0.10165
5803.59463,0.10149
5801.66588,0.10118
5799.73714,0.10097
5797.80839,0.10086
5795.87965,0.10079
5793.95090,0.10046
5792.02216,0.09998
5790.09341,0.10069
5788.16467,0.10247
5786.23592,0.10303
5784.30718,0.10241
5782.37843,0.10221
5780.44969,0.10197
5778.52094,0.10152
5776.59220,0.10180
5774.66345,0.10214
5772.73470,0.10116
5770.80596,0.09948
5768.87721,0.09884
5766.94847,0.09945
5765.01972,0.09981
5763.09098,0.09952
5761.16223,0.09983
5759.23349,0.10084
5757.30474,0.10147
5755.37600,0.10150
5753.44725,0.10133
5751.51851,0.10129
5749.58976,0.10181
5747.66102,0.10288
5745.73227,0.10399
5743.80352,0.10501
5741.87478,0.10579
5739.94603,0.10600
5738.01729,0.10606
5736.08854,0.10625
5734.15980,0.10652
5732.23105,0.10713
5730.30231,0.10791
5728.37356,0.10814
5726.44482,0.10809
5724.51607,0.10835
5722.58733,0.10815
5720.65858,0.10757
5718.72984,0.10781
5716.80109,0.10844
5714.87235,0.10894
5712.94360,0.10955
5711.01485,0.10973
5709.08611,0.10938
5707.15736,0.10934
5705.22862,0.10976
5703.29987,0.10984
5701.37113,0.10925
5699.44238,0.10917
5697.51364,0.11028
5695.58489,0.11133
5693.65615,0.11107
5691.72740,0.11001
5689.79866,0.10951
5687.86991,0.10948
5685.94117,0.10920
5684.01242,0.10879
5682.08368,0.10855
5680.15493,0.10902
5678.22618,0.10992
5676.29744,0.11013
5674.36869,0.11007
5672.43995,0.10987
5670.51120,0.10866
5668.58246,0.10707
5666.65371,0.10638
5664.72497,0.10685
5662.79622,0.10797
5660.86748,0.10869
5658.93873,0.10881
5657.00999,0.10916
5655.08124,0.10975
5653.15250,0.10961
5651.22375,0.10894
5649.29500,0.10891
5647.36626,0.10955
5645.43751,0.11045
5643.50877,0.11120
5641.58002,0.11076
5639.65128,0.10958
5637.72253,0.10917
5635.79379,0.10976
5633.86504,0.11096
5631.93630,0.11186
5630.00755,0.11158
5628.07881,0.11060
5626.15006,0.10957
5624.22132,0.10903
5622.29257,0.11000
5620.36383,0.11195
5618.43508,0.11292
5616.50633,0.11264
5614.57759,0.11208
5612.64884,0.11156
5610.72010,0.11109
5608.79135,0.11118
5606.86261,0.11181
5604.93386,0.11207
5603.00512,0.11204
5601.07637,0.11229
5599.14763,0.11260
5597.21888,0.11283
5595.29014,0.11275
5593.36139,0.11187
5591.43265,0.11088
5589.50390,0.11083
5587.57516,0.11169
5585.64641,0.11267
5583.71766,0.11300
5581.78892,0.11259
5579.86017,0.11214
5577.93143,0.11189
5576.00268,0.11177
5574.07394,0.11216
5572.14519,0.11304
5570.21645,0.11340
5568.28770,0.11269
5566.35896,0.11173
5564.43021,0.11140
5562.50147,0.11145
5560.57272,0.11172
5558.64398,0.11239
5556.71523,0.11279
5554.78648,0.11266
5552.85774,0.11247
5550.92899,0.11158
5549.00025,0.11015
5547.07150,0.11003
5545.14276,0.11129
5543.21401,0.11223
5541.28527,0.11237
5539.35652,0.11222
5537.42778,0.11233
5535.49903,0.11259
5533.57029,0.11305
5531.64154,0.11417
5529.71280,0.11501
5527.78405,0.11469
5525.85531,0.11388
5523.92656,0.11340
5521.99781,0.11376
5520.06907,0.11467
5518.14032,0.11479
5516.21158,0.11372
5514.28283,0.11253
5512.35409,0.11175
5510.42534,0.11121
5508.49660,0.11113
5506.56785,0.11140
5504.63911,0.11184
5502.71036,0.11227
5500.78162,0.11225
5498.85287,0.11241
5496.92413,0.11308
5494.99538,0.11355
5493.06664,0.11364
5491.13789,0.11358
5489.20914,0.11338
5487.28040,0.11302
5485.35165,0.11228
5483.42291,0.11174
5481.49416,0.11246
5479.56542,0.11365
5477.63667,0.11406
5475.70793,0.11399
5473.77918,0.11400
5471.85044,0.11395
5469.92169,0.11362
5467.99295,0.11288
5466.06420,0.11217
5464.13546,0.11206
5462.20671,0.11230
5460.27796,0.11244
5458.34922,0.11247
5456.42047,0.11270
5454.49173,0.11339
5452.56298,0.11412
5450.63424,0.11453
5448.70549,0.11480
5446.77675,0.11475
5444.84800,0.11406
5442.91926,0.11314
5440.99051,0.11288
5439.06177,0.11318
5437.13302,0.11317
5435.20428,0.11325
5433.27553,0.11386
5431.34679,0.11454
5429.41804,0.11510
5427.48929,0.11527
5425.56055,0.11485
5423.63180,0.11433
5421.70306,0.11403
5419.77431,0.11410
5417.84557,0.11430
5415.91682,0.11425
5413.98808,0.11443
5412.05933,0.11520
5410.13059,0.11573
5408.20184,0.11577
5406.27310,0.11582
5404.34435,0.11559
5402.41561,0.11519
5400.48686,0.11529
5398.55811,0.11530
5396.62937,0.11493
5394.70062,0.11509
5392.77188,0.11579
5390.84313,0.11602
5388.91439,0.11562
5386.98564,0.11532
5385.05690,0.11544
5383.12815,0.11570
5381.19941,0.11555
5379.27066,0.11515
5377.34192,0.11556
5375.41317,0.11682
5373.48443,0.11766
5371.55568,0.11753
5369.62694,0.11714
5367.69819,0.11700
5365.76944,0.11651
5363.84070,0.11566
5361.91195,0.11542
5359.98321,0.11578
5358.05446,0.11596
5356.12572,0.11583
5354.19697,0.11588
5352.26823,0.11646
5350.33948,0.11695
5348.41074,0.11667
5346.48199,0.11601
5344.55325,0.11582
5342.62450,0.11628
5340.69576,0.11699
5338.76701,0.11736
5336.83827,0.11703
5334.90952,0.11649
5332.98077,0.11625
5331.05203,0.11623
5329.12328,0.11643
5327.19454,0.11681
5325.26579,0.11710
5323.33705,0.11745
5321.40830,0.11807
5319.47956,0.11838
5317.55081,0.11798
5315.62207,0.11729
5313.69332,0.11659
5311.76458,0.11621
5309.83583,0.11616
5307.90709,0.11584
5305.97834,0.11540
5304.04959,0.11525
5302.12085,0.11533
5300.19210,0.11568
5298.26336,0.11644
5296.33461,0.11713
5294.40587,0.11714
5292.47712,0.11707
5290.54838,0.11763
5288.61963,0.11784
5286.69089,0.11704
5284.76214,0.11654
5282.83340,0.11688
5280.90465,0.11698
5278.97591,0.11655
5277.04716,0.11613
5275.11842,0.11587
5273.18967,0.11566
5271.26092,0.11564
5269.33218,0.11570
5267.40343,0.11564
5265.47469,0.11572
5263.54594,0.11611
5261.61720,0.11658
5259.68845,0.11679
5257.75971,0.11695
5255.83096,0.11718
5253.90222,0.11699
5251.97347,0.11671
5250.04473,0.11695
5248.11598,0.11713
5246.18724,0.11693
5244.25849,0.11709
5242.32975,0.11763
5240.40100,0.11770
5238.47225,0.11725
5236.54351,0.11683
5234.61476,0.11663
5232.68602,0.11663
5230.75727,0.11674
5228.82853,0.11648
5226.89978,0.11592
5224.97104,0.11592
5223.04229,0.11664
5221.11355,0.11735
5219.18480,0.11752
5217.25606,0.11728
5215.32731,0.11711
5213.39857,0.11698
5211.46982,0.11675
5209.54107,0.11680
5207.61233,0.11706
5205.68358,0.11703
5203.75484,0.11692
5201.82609,0.11714
5199.89735,0.11751
5197.96860,0.11755
5196.03986,0.11703
5194.11111,0.11654
5192.18237,0.11674
5190.25362,0.11716
5188.32488,0.11726
5186.39613,0.11733
5184.46739,0.11750
5182.53864,0.11766
5180.60990,0.11760
5178.68115,0.11702
5176.75240,0.11637
5174.82366,0.11630
5172.89491,0.11672
5170.96617,0.11716
5169.03742,0.11696
5167.10868,0.11648
5165.17993,0.11676
5163.25119,0.11742
5161.32244,0.11751
5159.39370,0.11732
5157.46495,0.11730
5155.53621,0.11750
5153.60746,0.11782
5151.67872,0.11802
5149.74997,0.11796
5147.82123,0.11768
5145.89248,0.11766
5143.96373,0.11801
5142.03499,0.11785
5140.10624,0.11733
5138.17750,0.11725
5136.24875,0.11752
5134.32001,0.11790
5132.39126,0.11830
5130.46252,0.11871
5128.53377,0.11906
5126.60503,0.11925
5124.67628,0.11910
5122.74754,0.11861
5120.81879,0.11823
5118.89005,0.11808
5116.96130,0.11793
5115.03255,0.11805
5113.10381,0.11888
5111.17506,0.11943
5109.24632,0.11888
5107.31757,0.11851
5105.38883,0.11882
5103.46008,0.11872
5101.53134,0.11811
5099.60259,0.11757
5097.67385,0.11741
5095.74510,0.11762
5093.81636,0.11801
5091.88761,0.11850
5089.95887,0.11883
5088.03012,0.11891
5086.10138,0.11880
5084.17263,0.11833
5082.24388,0.11760
5080.31514,0.11722
5078.38639,0.11741
5076.45765,0.11805
5074.52890,0.11876
5072.60016,0.11882
5070.67141,0.11824
5068.74267,0.11783
5066.81392,0.11764
5064.88518,0.11730
5062.95643,0.11707
5061.02769,0.11721
5059.09894,0.11742
5057.17020,0.11762
5055.24145,0.11803
5053.31270,0.11832
5051.38396,0.11839
5049.45521,0.11855
5047.52647,0.11849
5045.59772,0.11807
5043.66898,0.11787
5041.74023,0.11816
5039.81149,0.11843
5037.88274,0.11855
5035.95400,0.11880
5034.02525,0.11896
5032.09651,0.11880
5030.16776,0.11868
5028.23902,0.11864
5026.31027,0.11841
5024.38153,0.11832
5022.45278,0.11867
5020.52403,0.11901
5018.59529,0.11878
5016.66654,0.11820
5014.73780,0.11827
5012.80905,0.11891
5010.88031,0.11922
5008.95156,0.11936
5007.02282,0.11960
5005.09407,0.11948
5003.16533,0.11912
5001.23658,0.11905
4999.30784,0.11909
4997.37909,0.11893
4995.45035,0.11859
4993.52160,0.11837
4991.59286,0.11851
4989.66411,0.11892
4987.73536,0.11947
4985.80662,0.11983
4983.87787,0.11956
4981.94913,0.11918
4980.02038,0.11947
4978.09164,0.11993
4976.16289,0.11979
4974.23415,0.11953
4972.30540,0.11964
4970.37666,0.12018
4968.44791,0.12083
4966.51917,0.12083
4964.59042,0.12034
4962.66168,0.12012
4960.73293,0.12037
4958.80418,0.12051
4956.87544,0.12026
4954.94669,0.12028
4953.01795,0.12058
4951.08920,0.12050
4949.16046,0.12030
4947.23171,0.12040
4945.30297,0.12070
4943.37422,0.12110
4941.44548,0.12136
4939.51673,0.12125
4937.58799,0.12112
4935.65924,0.12121
4933.73050,0.12113
4931.80175,0.12087
4929.87301,0.12072
4927.94426,0.12059
4926.01551,0.12039
4924.08677,0.12035
4922.15802,0.12065
4920.22928,0.12105
4918.30053,0.12124
4916.37179,0.12114
4914.44304,0.12088
4912.51430,0.12059
4910.58555,0.12035
4908.65681,0.12027
4906.72806,0.12049
4904.79932,0.12070
4902.87057,0.12070
4900.94183,0.12079
4899.01308,0.12092
4897.08434,0.12068
4895.15559,0.12002
4893.22684,0.11941
4891.29810,0.11957
4889.36935,0.12049
4887.44061,0.12109
4885.51186,0.12067
4883.58312,0.11989
4881.65437,0.11978
4879.72563,0.12034
4877.79688,0.12103
4875.86814,0.12148
4873.93939,0.12153
4872.01065,0.12133
4870.08190,0.12093
4868.15316,0.12034
4866.22441,0.12008
4864.29566,0.12032
4862.36692,0.12061
4860.43817,0.12082
4858.50943,0.12089
4856.58068,0.12060
4854.65194,0.12029
4852.72319,0.12026
4850.79445,0.12025
4848.86570,0.12020
4846.93696,0.12038
4845.00821,0.12071
4843.07947,0.12083
4841.15072,0.12080
4839.22198,0.12098
4837.29323,0.12138
4835.36449,0.12165
4833.43574,0.12169
4831.50699,0.12163
4829.57825,0.12158
4827.64950,0.12149
4825.72076,0.12114
4823.79201,0.12064
4821.86327,0.12038
4819.93452,0.12038
4818.00578,0.12050
4816.07703,0.12064
4814.14829,0.12062
4812.21954,0.12062
4810.29080,0.12081
4808.36205,0.12091
4806.43331,0.12090
4804.50456,0.12094
4802.57582,0.12095
4800.64707,0.12087
4798.71832,0.12069
4796.78958,0.12057
4794.86083,0.12050
4792.93209,0.12046
4791.00334,0.12068
4789.07460,0.12090
4787.14585,0.12067
4785.21711,0.12054
4783.28836,0.12112
4781.35962,0.12185
4779.43087,0.12207
4777.50213,0.12198
4775.57338,0.12196
4773.64464,0.12214
4771.71589,0.12234
4769.78714,0.12223
4767.85840,0.12198
4765.92965,0.12195
4764.00091,0.12208
4762.07216,0.12225
4760.14342,0.12231
4758.21467,0.12197
4756.28593,0.12150
4754.35718,0.12153
4752.42844,0.12173
4750.49969,0.12169
4748.57095,0.12171
4746.64220,0.12209
4744.71346,0.12258
4742.78471,0.12247
4740.85597,0.12165
4738.92722,0.12085
4736.99847,0.12059
4735.06973,0.12088
4733.14098,0.12134
4731.21224,0.12133
4729.28349,0.12101
4727.35475,0.12102
4725.42600,0.12134
4723.49726,0.12184
4721.56851,0.12232
4719.63977,0.12231
4717.71102,0.12178
4715.78228,0.12130
4713.85353,0.12127
4711.92479,0.12145
4709.99604,0.12150
4708.06729,0.12147
4706.13855,0.12151
4704.20980,0.12149
4702.28106,0.12120
4700.35231,0.12092
4698.42357,0.12111
4696.49482,0.12166
4694.56608,0.12218
4692.63733,0.12242
4690.70859,0.12244
4688.77984,0.12245
4686.85110,0.12238
4684.92235,0.12202
4682.99361,0.12171
4681.06486,0.12183
4679.13612,0.12198
4677.20737,0.12181
4675.27862,0.12158
4673.34988,0.12156
4671.42113,0.12145
4669.49239,0.12096
4667.56364,0.12048
4665.63490,0.12038
4663.70615,0.12057
4661.77741,0.12083
4659.84866,0.12094
4657.91992,0.12086
4655.99117,0.12073
4654.06243,0.12050
4652.13368,0.12018
4650.20494,0.12008
4648.27619,0.12032
4646.34745,0.12074
4644.41870,0.12101
4642.48995,0.12110
4640.56121,0.12138
4638.63246,0.12155
4636.70372,0.12115
4634.77497,0.12064
4632.84623,0.12032
4630.91748,0.12008
4628.98874,0.12009
4627.05999,0.12034
4625.13125,0.12045
4623.20250,0.12050
4621.27376,0.12061
4619.34501,0.12052
4617.41627,0.12026
4615.48752,0.12011
4613.55877,0.12017
4611.63003,0.12044
4609.70128,0.12048
4607.77254,0.12007
4605.84379,0.11974
4603.91505,0.11977
4601.98630,0.12014
4600.05756,0.12078
4598.12881,0.12109
4596.20007,0.12076
4594.27132,0.12042
4592.34258,0.12033
4590.41383,0.12003
4588.48509,0.11946
4586.55634,0.11916
4584.62760,0.11922
4582.69885,0.11915
4580.77010,0.11880
4578.84136,0.11863
4576.91261,0.11875
4574.98387,0.11879
4573.05512,0.11878
4571.12638,0.11896
4569.19763,0.11929
4567.26889,0.11949
4565.34014,0.11934
4563.41140,0.11895
4561.48265,0.11866
4559.55391,0.11858
4557.62516,0.11872
4555.69642,0.11901
4553.76767,0.11915
4551.83893,0.11896
4549.91018,0.11867
4547.98143,0.11865
4546.05269,0.11878
4544.12394,0.11884
4542.19520,0.11897
4540.26645,0.11906
4538.33771,0.11898
4536.40896,0.11898
4534.48022,0.11894
4532.55147,0.11885
4530.62273,0.11888
4528.69398,0.11893
4526.76524,0.11886
4524.83649,0.11864
4522.90775,0.11833
4520.97900,0.11821
4519.05025,0.11836
4517.12151,0.11851
4515.19276,0.11861
4513.26402,0.11871
4511.33527,0.11870
4509.40653,0.11860
4507.47778,0.11837
4505.54904,0.11817
4503.62029,0.11832
4501.69155,0.11864
4499.76280,0.11883
4497.83406,0.11895
4495.90531,0.11913
4493.97657,0.11911
4492.04782,0.11874
4490.11908,0.11844
4488.19033,0.11841
4486.26158,0.11818
4484.33284,0.11779
4482.40409,0.11774
4480.47535,0.11784
4478.54660,0.11761
4476.61786,0.11739
4474.68911,0.11755
4472.76037,0.11756
4470.83162,0.11727
4468.90288,0.11722
4466.97413,0.11738
4465.04539,0.11735
4463.11664,0.11715
4461.18790,0.11709
4459.25915,0.11716
4457.33041,0.11689
4455.40166,0.11631
4453.47291,0.11592
4451.54417,0.11552
4449.61542,0.11478
4447.68668,0.11400
4445.75793,0.11350
4443.82919,0.11298
4441.90044,0.11201
4439.97170,0.11085
4438.04295,0.10995
4436.11421,0.10923
4434.18546,0.10836
4432.25672,0.10727
4430.32797,0.10593
4428.39923,0.10438
4426.47048,0.10281
4424.54173,0.10121
4422.61299,0.09939
4420.68424,0.09752
4418.75550,0.09587
4416.82675,0.09428
4414.89801,0.09245
4412.96926,0.09053
4411.04052,0.08884
4409.11177,0.08732
4407.18303,0.08594
4405.25428,0.08494
4403.32554,0.08379
4401.39679,0.08181
4399.46805,0.07970
4397.53930,0.07801
4395.61056,0.07635
4393.68181,0.07496
4391.75306,0.07454
4389.82432,0.07498
4387.89557,0.07590
4385.96683,0.07707
4384.03808,0.07821
4382.10934,0.07933
4380.18059,0.08046
4378.25185,0.08149
4376.32310,0.08227
4374.39436,0.08277
4372.46561,0.08331
4370.53687,0.08431
4368.60812,0.08553
4366.67938,0.08626
4364.75063,0.08629
4362.82189,0.08608
4360.89314,0.08603
4358.96439,0.08620
4357.03565,0.08633
4355.10690,0.08621
4353.17816,0.08591
4351.24941,0.08507
4349.32067,0.08335
4347.39192,0.08127
4345.46318,0.07914
4343.53443,0.07665
4341.60569,0.07393
4339.67694,0.07133
4337.74820,0.06874
4335.81945,0.06615
4333.89071,0.06380
4331.96196,0.06161
4330.03321,0.05976
4328.10447,0.05864
4326.17572,0.05799
4324.24698,0.05774
4322.31823,0.05822
4320.38949,0.05910
4318.46074,0.05990
4316.53200,0.06062
4314.60325,0.06124
4312.67451,0.06181
4310.74576,0.06268
4308.81702,0.06386
4306.88827,0.06506
4304.95953,0.06621
4303.03078,0.06754
4301.10204,0.06919
4299.17329,0.07081
4297.24454,0.07209
4295.31580,0.07317
4293.38705,0.07393
4291.45831,0.07399
4289.52956,0.07363
4287.60082,0.07335
4285.67207,0.07319
4283.74333,0.07304
4281.81458,0.07289
4279.88584,0.07298
4277.95709,0.07355
4276.02835,0.07437
4274.09960,0.07483
4272.17086,0.07466
4270.24211,0.07427
4268.31336,0.07390
4266.38462,0.07328
4264.45587,0.07243
4262.52713,0.07184
4260.59838,0.07161
4258.66964,0.07102
4256.74089,0.06960
4254.81215,0.06781
4252.88340,0.06637
4250.95466,0.06535
4249.02591,0.06434
4247.09717,0.06306
4245.16842,0.06198
4243.23968,0.06177
4241.31093,0.06218
4239.38219,0.06264
4237.45344,0.06325
4235.52469,0.06433
4233.59595,0.06606
4231.66720,0.06808
4229.73846,0.06954
4227.80971,0.07007
4225.88097,0.07002
4223.95222,0.06987
4222.02348,0.06969
4220.09473,0.06952
4218.16599,0.06969
4216.23724,0.07005
4214.30850,0.07018
4212.37975,0.07038
4210.45101,0.07108
4208.52226,0.07174
4206.59352,0.07199
4204.66477,0.07231
4202.73602,0.07304
4200.80728,0.07388
4198.87853,0.07457
4196.94979,0.07529
4195.02104,0.07635
4193.09230,0.07766
4191.16355,0.07879
4189.23481,0.07915
4187.30606,0.07869
4185.37732,0.07821
4183.44857,0.07808
4181.51983,0.07785
4179.59108,0.07720
4177.66234,0.07632
4175.73359,0.07537
4173.80484,0.07444
4171.87610,0.07384
4169.94735,0.07352
4168.01861,0.07350
4166.08986,0.07410
4164.16112,0.07500
4162.23237,0.07573
4160.30363,0.07615
4158.37488,0.07628
4156.44614,0.07652
4154.51739,0.07712
4152.58865,0.07785
4150.65990,0.07861
4148.73116,0.07934
4146.80241,0.07975
4144.87367,0.07978
4142.94492,0.07982
4141.01617,0.08019
4139.08743,0.08077
4137.15868,0.08122
4135.22994,0.08125
4133.30119,0.08085
4131.37245,0.08031
4129.44370,0.07993
4127.51496,0.07969
4125.58621,0.07955
4123.65747,0.07935
4121.72872,0.07871
4119.79998,0.07782
4117.87123,0.07753
4115.94249,0.07824
4114.01374,0.07924
4112.08500,0.07986
4110.15625,0.08024
4108.22750,0.08075
4106.29876,0.08127
4104.37001,0.08173
4102.44127,0.08236
4100.51252,0.08324
4098.58378,0.08407
4096.65503,0.08447
4094.72629,0.08436
4092.79754,0.08406
4090.86880,0.08388
4088.94005,0.08371
4087.01131,0.08317
4085.08256,0.08214
4083.15382,0.08079
4081.22507,0.07929
4079.29632,0.07796
4077.36758,0.07699
4075.43883,0.07597
4073.51009,0.07479
4071.58134,0.07380
4069.65260,0.07297
4067.72385,0.07216
4065.79511,0.07131
4063.86636,0.07030
4061.93762,0.06921
4060.00887,0.06858
4058.08013,0.06889
4056.15138,0.06993
4054.22264,0.07137
4052.29389,0.07337
4050.36515,0.07571
4048.43640,0.07790
4046.50765,0.07994
4044.57891,0.08176
4042.65016,0.08308
4040.72142,0.08405
4038.79267,0.08491
4036.86393,0.08552
4034.93518,0.08582
4033.00644,0.08626
4031.07769,0.08692
4029.14895,0.08732
4027.22020,0.08742
4025.29146,0.08746
4023.36271,0.08764
4021.43397,0.08797
4019.50522,0.08832
4017.57648,0.08876
4015.64773,0.08941
4013.71898,0.09012
4011.79024,0.09073
4009.86149,0.09119
4007.93275,0.09139
4006.00400,0.09153
4004.07526,0.09183
4002.14651,0.09196
4000.21777,0.09170
3998.28902,0.09137
3996.36028,0.09120
3994.43153,0.09126
3992.50279,0.09156
3990.57404,0.09186
3988.64530,0.09198
3986.71655,0.09211
3984.78780,0.09251
3982.85906,0.09326
3980.93031,0.09405
3979.00157,0.09467
3977.07282,0.09517
3975.14408,0.09566
3973.21533,0.09594
3971.28659,0.09597
3969.35784,0.09614
3967.42910,0.09646
3965.50035,0.09671
3963.57161,0.09695
3961.64286,0.09719
3959.71412,0.09751
3957.78537,0.09799
3955.85663,0.09839
3953.92788,0.09847
3951.99913,0.09848
3950.07039,0.09879
3948.14164,0.09911
3946.21290,0.09909
3944.28415,0.09901
3942.35541,0.09910
3940.42666,0.09907
3938.49792,0.09866
3936.56917,0.09795
3934.64043,0.09725
3932.71168,0.09694
3930.78294,0.09701
3928.85419,0.09704
3926.92545,0.09702
3924.99670,0.09704
3923.06795,0.09707
3921.13921,0.09743
3919.21046,0.09815
3917.28172,0.09866
3915.35297,0.09872
3913.42423,0.09870
3911.49548,0.09880
3909.56674,0.09901
3907.63799,0.09933
3905.70925,0.09953
3903.78050,0.09933
3901.85176,0.09928
3899.92301,0.09979
3897.99427,0.10024
3896.06552,0.10019
3894.13678,0.10006
3892.20803,0.10005
3890.27928,0.10007
3888.35054,0.10020
3886.42179,0.10038
3884.49305,0.10043
3882.56430,0.10036
3880.63556,0.10029
3878.70681,0.10024
3876.77807,0.10019
3874.84932,0.10038
3872.92058,0.10083
3870.99183,0.10111
3869.06309,0.10128
3867.13434,0.10163
3865.20560,0.10179
3863.27685,0.10160
3861.34811,0.10161
3859.41936,0.10212
3857.49061,0.10282
3855.56187,0.10341
3853.63312,0.10357
3851.70438,0.10324
3849.77563,0.10306
3847.84689,0.10318
3845.91814,0.10328
3843.98940,0.10317
3842.06065,0.10300
3840.13191,0.10289
3838.20316,0.10280
3836.27442,0.10268
3834.34567,0.10264
3832.41693,0.10275
3830.48818,0.10298
3828.55943,0.10322
3826.63069,0.10324
3824.70194,0.10302
3822.77320,0.10273
3820.84445,0.10250
3818.91571,0.10241
3816.98696,0.10214
3815.05822,0.10166
3813.12947,0.10152
3811.20073,0.10183
3809.27198,0.10226
3807.34324,0.10267
3805.41449,0.10295
3803.48575,0.10304
3801.55700,0.10318
3799.62826,0.10363
3797.69951,0.10415
3795.77076,0.10433
3793.84202,0.10421
3791.91327,0.10424
3789.98453,0.10447
3788.05578,0.10465
3786.12704,0.10483
3784.19829,0.10504
3782.26955,0.10507
3780.34080,0.10499
3778.41206,0.10499
3776.48331,0.10493
3774.55457,0.10459
3772.62582,0.10394
3770.69708,0.10320
3768.76833,0.10248
3766.83959,0.10185
3764.91084,0.10156
3762.98209,0.10160
3761.05335,0.10172
3759.12460,0.10205
3757.19586,0.10271
3755.26711,0.10333
3753.33837,0.10383
3751.40962,0.10433
3749.48088,0.10486
3747.55213,0.10531
3745.62339,0.10545
3743.69464,0.10539
3741.76590,0.10554
3739.83715,0.10587
3737.90841,0.10626
3735.97966,0.10676
3734.05091,0.10715
3732.12217,0.10731
3730.19342,0.10740
3728.26468,0.10739
3726.33593,0.10727
3724.40719,0.10728
3722.47844,0.10748
3720.54970,0.10752
3718.62095,0.10737
3716.69221,0.10741
3714.76346,0.10770
3712.83472,0.10796
3710.90597,0.10801
3708.97723,0.10771
3707.04848,0.10718
3705.11974,0.10685
3703.19099,0.10683
3701.26224,0.10684
3699.33350,0.10679
3697.40475,0.10667
3695.47601,0.10660
3693.54726,0.10683
3691.61852,0.10728
3689.68977,0.10768
3687.76103,0.10803
3685.83228,0.10830
3683.90354,0.10842
3681.97479,0.10857
3680.04605,0.10892
3678.11730,0.10924
3676.18856,0.10940
3674.25981,0.10966
3672.33107,0.11005
3670.40232,0.11057
3668.47357,0.11131
3666.54483,0.11199
3664.61608,0.11245
3662.68734,0.11297
3660.75859,0.11358
3658.82985,0.11381
3656.90110,0.11347
3654.97236,0.11302
3653.04361,0.11300
3651.11487,0.11310
3649.18612,0.11279
3647.25738,0.11234
3645.32863,0.11219
3643.39989,0.11207
3641.47114,0.11179
3639.54239,0.11136
3637.61365,0.11090
3635.68490,0.11059
3633.75616,0.11068
3631.82741,0.11112
3629.89867,0.11154
3627.96992,0.11175
3626.04118,0.11199
3624.11243,0.11246
3622.18369,0.11306
3620.25494,0.11346
3618.32620,0.11352
3616.39745,0.11355
3614.46871,0.11363
3612.53996,0.11359
3610.61122,0.11351
3608.68247,0.11352
3606.75372,0.11364
3604.82498,0.11371
3602.89623,0.11348
3600.96749,0.11330
3599.03874,0.11364
3597.11000,0.11395
3595.18125,0.11365
3593.25251,0.11320
3591.32376,0.11321
3589.39502,0.11347
3587.46627,0.11341
3585.53753,0.11307
3583.60878,0.11291
3581.68004,0.11295
3579.75129,0.11290
3577.82254,0.11268
3575.89380,0.11233
3573.96505,0.11195
3572.03631,0.11159
3570.10756,0.11134
3568.17882,0.11125
3566.25007,0.11130
3564.32133,0.11155
3562.39258,0.11186
3560.46384,0.11183
3558.53509,0.11151
3556.60635,0.11142
3554.67760,0.11162
3552.74886,0.11165
3550.82011,0.11122
3548.89137,0.11052
3546.96262,0.10991
3545.03387,0.10963
3543.10513,0.10959
3541.17638,0.10947
3539.24764,0.10919
3537.31889,0.10902
3535.39015,0.10899
3533.46140,0.10878
3531.53266,0.10843
3529.60391,0.10823
3527.67517,0.10828
3525.74642,0.10816
3523.81768,0.10771
3521.88893,0.10745
3519.96019,0.10763
3518.03144,0.10775
3516.10270,0.10739
3514.17395,0.10689
3512.24520,0.10670
3510.31646,0.10657
3508.38771,0.10640
3506.45897,0.10657
3504.53022,0.10676
3502.60148,0.10638
3500.67273,0.10590
3498.74399,0.10588
3496.81524,0.10582
3494.88650,0.10534
3492.95775,0.10493
3491.02901,0.10482
3489.10026,0.10481
3487.17152,0.10475
3485.24277,0.10457
3483.31402,0.10444
3481.38528,0.10441
3479.45653,0.10407
3477.52779,0.10344
3475.59904,0.10301
3473.67030,0.10282
3471.74155,0.10271
3469.81281,0.10270
3467.88406,0.10251
3465.95532,0.10183
3464.02657,0.10113
3462.09783,0.10091
3460.16908,0.10092
3458.24034,0.10065
3456.31159,0.10002
3454.38285,0.09948
3452.45410,0.09914
3450.52535,0.09867
3448.59661,0.09801
3446.66786,0.09731
3444.73912,0.09677
3442.81037,0.09653
3440.88163,0.09648
3438.95288,0.09656
3437.02414,0.09661
3435.09539,0.09615
3433.16665,0.09518
3431.23790,0.09430
3429.30916,0.09382
3427.38041,0.09346
3425.45167,0.09288
3423.52292,0.09228
3421.59418,0.09201
3419.66543,0.09179
3417.73668,0.09139
3415.80794,0.09126
3413.87919,0.09159
3411.95045,0.09179
3410.02170,0.09161
3408.09296,0.09140
3406.16421,0.09145
3404.23547,0.09169
3402.30672,0.09205
3400.37798,0.09248
3398.44923,0.09280
3396.52049,0.09301
3394.59174,0.09335
3392.66300,0.09373
3390.73425,0.09391
3388.80550,0.09392
3386.87676,0.09369
3384.94801,0.09310
3383.01927,0.09250
3381.09052,0.09218
3379.16178,0.09184
3377.23303,0.09134
3375.30429,0.09082
3373.37554,0.09031
3371.44680,0.08997
3369.51805,0.08992
3367.58931,0.08965
3365.66056,0.08889
3363.73182,0.08849
3361.80307,0.08876
3359.87433,0.08890
3357.94558,0.08871
3356.01683,0.08871
3354.08809,0.08890
3352.15934,0.08883
3350.23060,0.08845
3348.30185,0.08806
3346.37311,0.08792
3344.44436,0.08806
3342.51562,0.08835
3340.58687,0.08880
3338.65813,0.08927
3336.72938,0.08962
3334.80064,0.09009
3332.87189,0.09070
3330.94315,0.09128
3329.01440,0.09171
3327.08566,0.09191
3325.15691,0.09205
3323.22816,0.09239
3321.29942,0.09291
3319.37067,0.09341
3317.44193,0.09371
3315.51318,0.09373
3313.58444,0.09352
3311.65569,0.09327
3309.72695,0.09306
3307.79820,0.09275
3305.86946,0.09224
3303.94071,0.09150
3302.01197,0.09067
3300.08322,0.09015
3298.15448,0.09009
3296.22573,0.09044
3294.29698,0.09096
3292.36824,0.09109
3290.43949,0.09081
3288.51075,0.09066
3286.58200,0.09090
3284.65326,0.09121
3282.72451,0.09131
3280.79577,0.09123
3278.86702,0.09118
3276.93828,0.09125
3275.00953,0.09121
3273.08079,0.09096
3271.15204,0.09073
3269.22330,0.09064
3267.29455,0.09069
3265.36581,0.09086
3263.43706,0.09092
3261.50831,0.09093
3259.57957,0.09106
3257.65082,0.09132
3255.72208,0.09159
3253.79333,0.09179
3251.86459,0.09170
3249.93584,0.09138
3248.00710,0.09121
3246.07835,0.09086
3244.14961,0.09017
3242.22086,0.08949
3240.29212,0.08877
3238.36337,0.08807
3236.43463,0.08754
3234.50588,0.08700
3232.57713,0.08636
3230.64839,0.08546
3228.71964,0.08408
3226.79090,0.08235
3224.86215,0.08052
3222.93341,0.07882
3221.00466,0.07746
3219.07592,0.07613
3217.14717,0.07465
3215.21843,0.07346
3213.28968,0.07260
3211.36094,0.07148
3209.43219,0.07020
3207.50345,0.06945
3205.57470,0.06901
3203.64596,0.06812
3201.71721,0.06680
3199.78846,0.06566
3197.85972,0.06522
3195.93097,0.06514
3194.00223,0.06478
3192.07348,0.06442
3190.14474,0.06442
3188.21599,0.06448
3186.28725,0.06452
3184.35850,0.06486
3182.42976,0.06573
3180.50101,0.06693
3178.57227,0.06782
3176.64352,0.06795
3174.71478,0.06764
3172.78603,0.06758
3170.85729,0.06797
3168.92854,0.06841
3166.99979,0.06847
3165.07105,0.06816
3163.14230,0.06784
3161.21356,0.06765
3159.28481,0.06729
3157.35607,0.06694
3155.42732,0.06702
3153.49858,0.06726
3151.56983,0.06713
3149.64109,0.06636
3147.71234,0.06538
3145.78360,0.06501
3143.85485,0.06516
3141.92611,0.06505
3139.99736,0.06478
3138.06861,0.06514
3136.13987,0.06585
3134.21112,0.06613
3132.28238,0.06617
3130.35363,0.06649
3128.42489,0.06704
3126.49614,0.06750
3124.56740,0.06795
3122.63865,0.06865
3120.70991,0.06939
3118.78116,0.07003
3116.85242,0.07063
3114.92367,0.07110
3112.99493,0.07131
3111.06618,0.07145
3109.13744,0.07169
3107.20869,0.07187
3105.27994,0.07188
3103.35120,0.07172
3101.42245,0.07153
3099.49371,0.07153
3097.56496,0.07183
3095.63622,0.07227
3093.70747,0.07259
3091.77873,0.07253
3089.84998,0.07216
3087.92124,0.07180
3085.99249,0.07172
3084.06375,0.07174
3082.13500,0.07158
3080.20626,0.07139
3078.27751,0.07138
3076.34877,0.07127
3074.42002,0.07083
3072.49127,0.07023
3070.56253,0.06966
3068.63378,0.06919
3066.70504,0.06861
3064.77629,0.06788
3062.84755,0.06722
3060.91880,0.06665
3058.99006,0.06611
3057.06131,0.06558
3055.13257,0.06479
3053.20382,0.06375
3051.27508,0.06291
3049.34633,0.06246
3047.41759,0.06218
3045.48884,0.06180
3043.56009,0.06125
3041.63135,0.06068
3039.70260,0.06014
3037.77386,0.05952
3035.84511,0.05881
3033.91637,0.05804
3031.98762,0.05703
3030.05888,0.05561
3028.13013,0.05407
3026.20139,0.05270
3024.27264,0.05134
3022.34390,0.04978
3020.41515,0.04801
3018.48641,0.04615
3016.55766,0.04424
3014.62892,0.04232
3012.70017,0.04057
3010.77142,0.03894
3008.84268,0.03716
3006.91393,0.03525
3004.98519,0.03336
3003.05644,0.03154
3001.12770,0.02979
2999.19895,0.02819
2997.27021,0.02666
2995.34146,0.02502
2993.41272,0.02333
2991.48397,0.02177
2989.55523,0.02038
2987.62648,0.01924
2985.69774,0.01840
2983.76899,0.01766
2981.84025,0.01699
2979.91150,0.01648
2977.98275,0.01597
2976.05401,0.01538
2974.12526,0.01487
2972.19652,0.01456
2970.26777,0.01450
2968.33903,0.01464
2966.41028,0.01494
2964.48154,0.01536
2962.55279,0.01592
2960.62405,0.01654
2958.69530,0.01702
2956.76656,0.01726
2954.83781,0.01727
2952.90907,0.01717
2950.98032,0.01732
2949.05157,0.01778
2947.12283,0.01816
2945.19408,0.01819
2943.26534,0.01801
2941.33659,0.01776
2939.40785,0.01741
2937.47910,0.01701
2935.55036,0.01667
2933.62161,0.01653
2931.69287,0.01664
2929.76412,0.01688
2927.83538,0.01725
2925.90663,0.01765
2923.97789,0.01794
2922.04914,0.01813
2920.12040,0.01823
2918.19165,0.01825
2916.26290,0.01841
2914.33416,0.01879
2912.40541,0.01908
2910.47667,0.01918
2908.54792,0.01920
2906.61918,0.01919
2904.69043,0.01914
2902.76169,0.01894
2900.83294,0.01875
2898.90420,0.01886
2896.97545,0.01909
2895.04671,0.01897
2893.11796,0.01855
2891.18922,0.01828
2889.26047,0.01824
2887.33172,0.01829
2885.40298,0.01841
2883.47423,0.01843
2881.54549,0.01825
2879.61674,0.01811
2877.68800,0.01823
2875.75925,0.01848
2873.83051,0.01866
2871.90176,0.01864
2869.97302,0.01855
2868.04427,0.01859
2866.11553,0.01871
2864.18678,0.01888
2862.25804,0.01901
2860.32929,0.01898
2858.40055,0.01888
2856.47180,0.01884
2854.54305,0.01893
2852.61431,0.01897
2850.68556,0.01874
2848.75682,0.01835
2846.82807,0.01808
2844.89933,0.01801
2842.97058,0.01819
2841.04184,0.01857
2839.11309,0.01878
2837.18435,0.01879
2835.25560,0.01905
2833.32686,0.01943
2831.39811,0.01948
2829.46937,0.01946
2827.54062,0.01981
2825.61188,0.02041
2823.68313,0.02095
2821.75438,0.02130
2819.82564,0.02160
2817.89689,0.02202
2815.96815,0.02264
2814.03940,0.02332
2812.11066,0.02380
2810.18191,0.02417
2808.25317,0.02473
2806.32442,0.02552
2804.39568,0.02660
2802.46693,0.02793
2800.53819,0.02915
2798.60944,0.03001
2796.68070,0.03059
2794.75195,0.03112
2792.82320,0.03198
2790.89446,0.03352
2788.96571,0.03559
2787.03697,0.03774
2785.10822,0.03984
2783.17948,0.04209
2781.25073,0.04442
2779.32199,0.04642
2777.39324,0.04798
2775.46450,0.04929
2773.53575,0.05049
2771.60701,0.05147
2769.67826,0.05206
2767.74952,0.05242
2765.82077,0.05290
2763.89203,0.05348
2761.96328,0.05405
2760.03453,0.05478
2758.10579,0.05569
2756.17704,0.05650
2754.24830,0.05703
2752.31955,0.05718
2750.39081,0.05687
2748.46206,0.05619
2746.53332,0.05529
2744.60457,0.05418
2742.67583,0.05292
2740.74708,0.05146
2738.81834,0.04971
2736.88959,0.04797
2734.96085,0.04644
2733.03210,0.04495
2731.10336,0.04343
2729.17461,0.04191
2727.24586,0.04018
2725.31712,0.03836
2723.38837,0.03720
2721.45963,0.03731
2719.53088,0.03864
2717.60214,0.04086
2715.67339,0.04344
2713.74465,0.04585
2711.81590,0.04778
2709.88716,0.04926
2707.95841,0.05058
2706.02967,0.05198
2704.10092,0.05351
2702.17218,0.05515
2700.24343,0.05665
2698.31468,0.05766
2696.38594,0.05801
2694.45719,0.05788
2692.52845,0.05768
2690.59970,0.05758
2688.67096,0.05748
2686.74221,0.05744
2684.81347,0.05764
2682.88472,0.05788
2680.95598,0.05794
2679.02723,0.05786
2677.09849,0.05773
2675.16974,0.05773
2673.24100,0.05806
2671.31225,0.05874
2669.38351,0.05944
2667.45476,0.05971
2665.52601,0.05962
2663.59727,0.05950
2661.66852,0.05941
2659.73978,0.05940
2657.81103,0.05976
2655.88229,0.06069
2653.95354,0.06201
2652.02480,0.06330
2650.09605,0.06436
2648.16731,0.06514
2646.23856,0.06566
2644.30982,0.06607
2642.38107,0.06661
2640.45233,0.06729
2638.52358,0.06800
2636.59484,0.06866
2634.66609,0.06906
2632.73734,0.06891
2630.80860,0.06826
2628.87985,0.06727
2626.95111,0.06603
2625.02236,0.06485
2623.09362,0.06400
2621.16487,0.06337
2619.23613,0.06296
2617.30738,0.06282
2615.37864,0.06289
2613.44989,0.06335
2611.52115,0.06444
2609.59240,0.06595
2607.66366,0.06768
2605.73491,0.06951
2603.80616,0.07126
2601.87742,0.07258
2599.94867,0.07322
2598.01993,0.07339
2596.09118,0.07328
2594.16244,0.07271
2592.23369,0.07156
2590.30495,0.07005
2588.37620,0.06833
2586.44746,0.06637
2584.51871,0.06447
2582.58997,0.06323
2580.66122,0.06303
2578.73248,0.06396
2576.80373,0.06574
2574.87499,0.06780
2572.94624,0.06982
2571.01749,0.07183
2569.08875,0.07371
2567.16000,0.07536
2565.23126,0.07672
2563.30251,0.07757
2561.37377,0.07797
2559.44502,0.07833
2557.51628,0.07876
2555.58753,0.07909
2553.65879,0.07946
2551.73004,0.08019
2549.80130,0.08132
2547.87255,0.08273
2545.94381,0.08411
2544.01506,0.08525
2542.08631,0.08617
2540.15757,0.08688
2538.22882,0.08739
2536.30008,0.08783
2534.37133,0.08832
2532.44259,0.08901
2530.51384,0.08990
2528.58510,0.09078
2526.65635,0.09166
2524.72761,0.09274
2522.79886,0.09401
2520.87012,0.09523
2518.94137,0.09619
2517.01263,0.09697
2515.08388,0.09767
2513.15514,0.09824
2511.22639,0.09880
2509.29764,0.09932
2507.36890,0.09970
2505.44015,0.09999
2503.51141,0.10024
2501.58266,0.10039
2499.65392,0.10034
2497.72517,0.10006
2495.79643,0.09968
2493.86768,0.09949
2491.93894,0.09961
2490.01019,0.09983
2488.08145,0.10022
2486.15270,0.10099
2484.22396,0.10183
2482.29521,0.10241
2480.36647,0.10286
2478.43772,0.10337
2476.50897,0.10401
2474.58023,0.10468
2472.65148,0.10522
2470.72274,0.10550
2468.79399,0.10567
2466.86525,0.10585
2464.93650,0.10586
2463.00776,0.10554
2461.07901,0.10501
2459.15027,0.10458
2457.22152,0.10432
2455.29278,0.10405
2453.36403,0.10387
2451.43529,0.10383
2449.50654,0.10346
2447.57779,0.10264
2445.64905,0.10196
2443.72030,0.10163
2441.79156,0.10114
2439.86281,0.10021
2437.93407,0.09898
2436.00532,0.09762
2434.07658,0.09639
2432.14783,0.09543
2430.21909,0.09469
2428.29034,0.09433
2426.36160,0.09463
2424.43285,0.09556
2422.50411,0.09684
2420.57536,0.09827
2418.64662,0.09963
2416.71787,0.10054
2414.78912,0.10085
2412.86038,0.10081
2410.93163,0.10063
2409.00289,0.10038
2407.07414,0.10010
2405.14540,0.09968
2403.21665,0.09910
2401.28791,0.09868
2399.35916,0.09859
2397.43042,0.09874
2395.50167,0.09906
2393.57293,0.09956
2391.64418,0.10016
2389.71544,0.10069
2387.78669,0.10111
2385.85795,0.10149
2383.92920,0.10185
2382.00045,0.10215
2380.07171,0.10222
2378.14296,0.10192
2376.21422,0.10153
2374.28547,0.10133
2372.35673,0.10122
2370.42798,0.10117
2368.49924,0.10115
2366.57049,0.10086
2364.64175,0.10043
2362.71300,0.10026
2360.78426,0.10033
2358.85551,0.10050
2356.92677,0.10091
2354.99802,0.10160
2353.06927,0.10244
2351.14053,0.10335
2349.21178,0.10433
2347.28304,0.10529
2345.35429,0.10606
2343.42555,0.10660
2341.49680,0.10701
2339.56806,0.10729
2337.63931,0.10743
2335.71057,0.10760
2333.78182,0.10799
2331.85308,0.10857
2329.92433,0.10928
2327.99559,0.11001
2326.06684,0.11068
2324.13810,0.11147
2322.20935,0.11261
2320.28060,0.11386
2318.35186,0.11481
2316.42311,0.11534
2314.49437,0.11566
2312.56562,0.11588
2310.63688,0.11605
2308.70813,0.11620
2306.77939,0.11627
2304.85064,0.11621
2302.92190,0.11605
2300.99315,0.11591
2299.06441,0.11594
2297.13566,0.11606
2295.20692,0.11610
2293.27817,0.11621
2291.34943,0.11656
2289.42068,0.11701
2287.49193,0.11735
2285.56319,0.11758
2283.63444,0.11773
2281.70570,0.11762
2279.77695,0.11710
2277.84821,0.11621
2275.91946,0.11533
2273.99072,0.11465
2272.06197,0.11399
2270.13323,0.11321
2268.20448,0.11253
2266.27574,0.11223
2264.34699,0.11204
2262.41825,0.11156
2260.48950,0.11073
2258.56075,0.10986
2256.63201,0.10923
2254.70326,0.10912
2252.77452,0.10964
2250.84577,0.11075
2248.91703,0.11233
2246.98828,0.11406
2245.05954,0.11543
2243.13079,0.11614
2241.20205,0.11635
2239.27330,0.11641
2237.34456,0.11650
2235.41581,0.11633
2233.48707,0.11577
2231.55832,0.11525
2229.62958,0.11521
2227.70083,0.11561
2225.77208,0.11625
2223.84334,0.11694
2221.91459,0.11749
2219.98585,0.11777
2218.05710,0.11784
2216.12836,0.11789
2214.19961,0.11798
2212.27087,0.11797
2210.34212,0.11774
2208.41338,0.11729
2206.48463,0.11674
2204.55589,0.11631
2202.62714,0.11600
2200.69840,0.11569
2198.76965,0.11540
2196.84090,0.11522
2194.91216,0.11516
2192.98341,0.11520
2191.05467,0.11522
2189.12592,0.11503
2187.19718,0.11453
2185.26843,0.11397
2183.33969,0.11366
2181.41094,0.11362
2179.48220,0.11369
2177.55345,0.11362
2175.62471,0.11333
2173.69596,0.11302
2171.76722,0.11290
2169.83847,0.11310
2167.90973,0.11363
2165.98098,0.11450
2164.05223,0.11562
2162.12349,0.11667
2160.19474,0.11745
2158.26600,0.11799
2156.33725,0.11855
2154.40851,0.11928
2152.47976,0.11992
2150.55102,0.12046
2148.62227,0.12111
2146.69353,0.12169
2144.76478,0.12185
2142.83604,0.12157
2140.90729,0.12097
2138.97855,0.12004
2137.04980,0.11885
2135.12106,0.11762
2133.19231,0.11666
2131.26356,0.11631
2129.33482,0.11680
2127.40607,0.11804
2125.47733,0.11985
2123.54858,0.12206
2121.61984,0.12427
2119.69109,0.12617
2117.76235,0.12774
2115.83360,0.12894
2113.90486,0.12979
2111.97611,0.13043
2110.04737,0.13089
2108.11862,0.13117
2106.18988,0.13142
2104.26113,0.13172
2102.33238,0.13185
2100.40364,0.13174
2098.47489,0.13161
2096.54615,0.13152
2094.61740,0.13155
2092.68866,0.13171
2090.75991,0.13183
2088.83117,0.13190
2086.90242,0.13220
2084.97368,0.13291
2083.04493,0.13400
2081.11619,0.13520
2079.18744,0.13626
2077.25870,0.13721
2075.32995,0.13810
2073.40121,0.13878
2071.47246,0.13920
2069.54371,0.13962
2067.61497,0.14015
2065.68622,0.14051
2063.75748,0.14052
2061.82873,0.14036
2059.89999,0.14024
2057.97124,0.14011
2056.04250,0.13985
2054.11375,0.13961
2052.18501,0.13961
2050.25626,0.13970
2048.32752,0.13971
2046.39877,0.13970
2044.47003,0.13977
2042.54128,0.13983
2040.61254,0.13986
2038.68379,0.13988
2036.75504,0.13983
2034.82630,0.13959
2032.89755,0.13920
2030.96881,0.13885
2029.04006,0.13871
2027.11132,0.13885
2025.18257,0.13931
2023.25383,0.13982
2021.32508,0.14013
2019.39634,0.14033
2017.46759,0.14050
2015.53885,0.14060
2013.61010,0.14071
2011.68136,0.14086
2009.75261,0.14086
2007.82386,0.14065
2005.89512,0.14043
2003.96637,0.14021
2002.03763,0.13998
2000.10888,0.13981
1998.18014,0.13975
1996.25139,0.13970
1994.32265,0.13959
1992.39390,0.13948
1990.46516,0.13950
1988.53641,0.13969
1986.60767,0.13996
1984.67892,0.14029
1982.75018,0.14055
1980.82143,0.14060
1978.89269,0.14061
1976.96394,0.14074
1975.03519,0.14079
1973.10645,0.14065
1971.17770,0.14042
1969.24896,0.14019
1967.32021,0.13989
1965.39147,0.13942
1963.46272,0.13891
1961.53398,0.13845
1959.60523,0.13803
1957.67649,0.13769
1955.74774,0.13753
1953.81900,0.13762
1951.89025,0.13774
1949.96151,0.13784
1948.03276,0.13814
1946.10402,0.13848
1944.17527,0.13856
1942.24652,0.13840
1940.31778,0.13834
1938.38903,0.13854
1936.46029,0.13874
1934.53154,0.13872
1932.60280,0.13856
1930.67405,0.13831
1928.74531,0.13792
1926.81656,0.13751
1924.88782,0.13718
1922.95907,0.13677
1921.03033,0.13638
1919.10158,0.13617
1917.17284,0.13590
1915.24409,0.13554
1913.31534,0.13530
1911.38660,0.13518
1909.45785,0.13505
1907.52911,0.13486
1905.60036,0.13469
1903.67162,0.13449
1901.74287,0.13405
1899.81413,0.13335
1897.88538,0.13263
1895.95664,0.13203
1894.02789,0.13154
1892.09915,0.13133
1890.17040,0.13172
1888.24166,0.13263
1886.31291,0.13366
1884.38417,0.13451
1882.45542,0.13517
1880.52667,0.13573
1878.59793,0.13616
1876.66918,0.13645
1874.74044,0.13657
1872.81169,0.13656
1870.88295,0.13647
1868.95420,0.13634
1867.02546,0.13617
1865.09671,0.13598
1863.16797,0.13567
1861.23922,0.13532
1859.31048,0.13508
1857.38173,0.13485
1855.45299,0.13445
1853.52424,0.13398
1851.59549,0.13372
1849.66675,0.13371
1847.73800,0.13366
1845.80926,0.13330
1843.88051,0.13267
1841.95177,0.13202
1840.02302,0.13143
1838.09428,0.13088
1836.16553,0.13040
1834.23679,0.12994
1832.30804,0.12963
1830.37930,0.12967
1828.45055,0.13009
1826.52181,0.13071
1824.59306,0.13130
1822.66432,0.13190
1820.73557,0.13259
1818.80682,0.13311
1816.87808,0.13332
1814.94933,0.13348
1813.02059,0.13374
1811.09184,0.13392
1809.16310,0.13387
1807.23435,0.13361
1805.30561,0.13329
1803.37686,0.13291
1801.44812,0.13240
1799.51937,0.13191
1797.59063,0.13156
1795.66188,0.13120
1793.73314,0.13065
1791.80439,0.12996
1789.87565,0.12946
1787.94690,0.12924
1786.01815,0.12906
1784.08941,0.12875
1782.16066,0.12843
1780.23192,0.12816
1778.30317,0.12787
1776.37443,0.12751
1774.44568,0.12709
1772.51694,0.12646
1770.58819,0.12552
1768.65945,0.12437
1766.73070,0.12321
1764.80196,0.12210
1762.87321,0.12085
1760.94447,0.11939
1759.01572,0.11799
1757.08697,0.11659
1755.15823,0.11481
1753.22948,0.11255
1751.30074,0.10978
1749.37199,0.10680
1747.44325,0.10397
1745.51450,0.10136
1743.58576,0.09928
1741.65701,0.09806
1739.72827,0.09775
1737.79952,0.09824
1735.87078,0.09922
1733.94203,0.10034
1732.01329,0.10133
1730.08454,0.10220
1728.15580,0.10292
1726.22705,0.10346
1724.29830,0.10402
1722.36956,0.10477
1720.44081,0.10548
1718.51207,0.10589
1716.58332,0.10587
1714.65458,0.10545
1712.72583,0.10486
1710.79709,0.10439
1708.86834,0.10406
1706.93960,0.10379
1705.01085,0.10359
1703.08211,0.10341
1701.15336,0.10295
1699.22462,0.10222
1697.29587,0.10160
1695.36713,0.10112
1693.43838,0.10081
1691.50963,0.10068
1689.58089,0.10060
1687.65214,0.10056
1685.72340,0.10057
1683.79465,0.10064
1681.86591,0.10088
1679.93716,0.10125
1678.00842,0.10163
1676.07967,0.10186
1674.15093,0.10180
1672.22218,0.10169
1670.29344,0.10178
1668.36469,0.10186
1666.43595,0.10177
1664.50720,0.10166
1662.57845,0.10140
1660.64971,0.10080
1658.72096,0.09999
1656.79222,0.09920
1654.86347,0.09814
1652.93473,0.09612
1651.00598,0.09383
1649.07724,0.09219
1647.14849,0.09104
1645.21975,0.09069
1643.29100,0.09125
1641.36226,0.09219
1639.43351,0.09310
1637.50477,0.09392
1635.57602,0.09466
1633.64728,0.09501
1631.71853,0.09499
1629.78978,0.09492
1627.86104,0.09505
1625.93229,0.09544
1624.00355,0.09587
1622.07480,0.09632
1620.14606,0.09682
1618.21731,0.09720
1616.28857,0.09716
1614.35982,0.09671
1612.43108,0.09613
1610.50233,0.09553
1608.57359,0.09537
1606.64484,0.09611
1604.71610,0.09736
1602.78735,0.09854
1600.85861,0.09966
1598.92986,0.10073
1597.00111,0.10149
1595.07237,0.10203
1593.14362,0.10255
1591.21488,0.10301
1589.28613,0.10342
1587.35739,0.10386
1585.42864,0.10417
1583.49990,0.10419
1581.57115,0.10403
1579.64241,0.10385
1577.71366,0.10362
1575.78492,0.10324
1573.85617,0.10293
1571.92743,0.10280
1569.99868,0.10251
1568.06993,0.10200
1566.14119,0.10142
1564.21244,0.10076
1562.28370,0.10000
1560.35495,0.09898
1558.42621,0.09763
1556.49746,0.09657
1554.56872,0.09592
1552.63997,0.09548
1550.71123,0.09509
1548.78248,0.09453
1546.85374,0.09375
1544.92499,0.09288
1542.99625,0.09205
1541.06750,0.09115
1539.13876,0.09004
1537.21001,0.08917
1535.28126,0.08864
1533.35252,0.08832
1531.42377,0.08837
1529.49503,0.08865
1527.56628,0.08878
1525.63754,0.08871
1523.70879,0.08869
1521.78005,0.08880
1519.85130,0.08875
1517.92256,0.08821
1515.99381,0.08714
1514.06507,0.08572
1512.13632,0.08415
1510.20758,0.08260
1508.27883,0.08095
1506.35008,0.07879
1504.42134,0.07650
1502.49259,0.07451
1500.56385,0.07231
1498.63510,0.06962
1496.70636,0.06664
1494.77761,0.06369
1492.84887,0.06087
1490.92012,0.05784
1488.99138,0.05432
1487.06263,0.05041
1485.13389,0.04636
1483.20514,0.04234
1481.27640,0.03822
1479.34765,0.03390
1477.41891,0.02958
1475.49016,0.02563
1473.56141,0.02230
1471.63267,0.01976
1469.70392,0.01814
1467.77518,0.01720
1465.84643,0.01675
1463.91769,0.01661
1461.98894,0.01654
1460.06020,0.01659
1458.13145,0.01675
1456.20271,0.01686
1454.27396,0.01714
1452.34522,0.01757
1450.41647,0.01787
1448.48773,0.01819
1446.55898,0.01873
1444.63024,0.01946
1442.70149,0.02023
1440.77274,0.02090
1438.84400,0.02142
1436.91525,0.02210
1434.98651,0.02384
1433.05776,0.02737
1431.12902,0.03255
1429.20027,0.03815
1427.27153,0.04254
1425.34278,0.04547
1423.41404,0.04768
1421.48529,0.04965
1419.55655,0.05134
1417.62780,0.05255
1415.69906,0.05341
1413.77031,0.05415
1411.84156,0.05478
1409.91282,0.05523
1407.98407,0.05534
1406.05533,0.05498
1404.12658,0.05426
1402.19784,0.05337
1400.26909,0.05219
1398.34035,0.05062
1396.41160,0.04874
1394.48286,0.04629
1392.55411,0.04293
1390.62537,0.03873
1388.69662,0.03365
1386.76788,0.02782
1384.83913,0.02238
1382.91039,0.01863
1380.98164,0.01684
1379.05289,0.01657
1377.12415,0.01726
1375.19540,0.01834
1373.26666,0.01934
1371.33791,0.02042
1369.40917,0.02211
1367.48042,0.02414
1365.55168,0.02538
1363.62293,0.02540
1361.69419,0.02472
1359.76544,0.02414
1357.83670,0.02462
1355.90795,0.02681
1353.97921,0.03057
1352.05046,0.03517
1350.12172,0.04002
1348.19297,0.04479
1346.26422,0.04925
1344.33548,0.05323
1342.40673,0.05647
1340.47799,0.05878
1338.54924,0.05993
1336.62050,0.05969
1334.69175,0.05810
1332.76301,0.05545
1330.83426,0.05282
1328.90552,0.05171
1326.97677,0.05294
1325.04803,0.05637
1323.11928,0.06091
1321.19054,0.06504
1319.26179,0.06808
1317.33304,0.07021
1315.40430,0.07140
1313.47555,0.07101
1311.54681,0.06814
1309.61806,0.06217
1307.68932,0.05363
1305.76057,0.04553
1303.83183,0.04209
1301.90308,0.04391
1299.97434,0.04755
1298.04559,0.05040
1296.11685,0.05281
1294.18810,0.05603
1292.25936,0.06032
1290.33061,0.06475
1288.40187,0.06834
1286.47312,0.07113
1284.54437,0.07362
1282.61563,0.07582
1280.68688,0.07749
1278.75814,0.07865
1276.82939,0.07943
1274.90065,0.07976
1272.97190,0.07951
1271.04316,0.07870
1269.11441,0.07745
1267.18567,0.07568
1265.25692,0.07299
1263.32818,0.06899
1261.39943,0.06339
1259.47069,0.05633
1257.54194,0.04962
1255.61320,0.04658
1253.68445,0.04940
1251.75570,0.05663
1249.82696,0.06459
1247.89821,0.07078
1245.96947,0.07501
1244.04072,0.07797
1242.11198,0.08011
1240.18323,0.08167
1238.25449,0.08283
1236.32574,0.08366
1234.39700,0.08420
1232.46825,0.08426
1230.53951,0.08365
1228.61076,0.08252
1226.68202,0.08085
1224.75327,0.07819
1222.82452,0.07474
1220.89578,0.07185
1218.96703,0.07091
1217.03829,0.07233
1215.10954,0.07533
1213.18080,0.07855
1211.25205,0.08108
1209.32331,0.08279
1207.39456,0.08382
1205.46582,0.08422
1203.53707,0.08421
1201.60833,0.08412
1199.67958,0.08405
1197.75084,0.08392
1195.82209,0.08362
1193.89335,0.08329
1191.96460,0.08310
1190.03585,0.08287
1188.10711,0.08207
1186.17836,0.08006
1184.24962,0.07661
1182.32087,0.07196
1180.39213,0.06619
1178.46338,0.05919
1176.53464,0.05139
1174.60589,0.04362
1172.67715,0.03674
1170.74840,0.03151
1168.81966,0.02837
1166.89091,0.02706
1164.96217,0.02717
1163.03342,0.02841
1161.10467,0.03021
1159.17593,0.03196
1157.24718,0.03333
1155.31844,0.03431
1153.38969,0.03530
1151.46095,0.03717
1149.53220,0.04062
1147.60346,0.04540
1145.67471,0.05066
1143.74597,0.05599
1141.81722,0.06129
1139.88848,0.06631
1137.95973,0.07093
1136.03099,0.07492
1134.10224,0.07796
1132.17350,0.08005
1130.24475,0.08149
1128.31600,0.08261
1126.38726,0.08340
1124.45851,0.08350
1122.52977,0.08306
1120.60102,0.08253
1118.67228,0.08179
1116.74353,0.08084
1114.81479,0.07985
1112.88604,0.07848
1110.95730,0.07624
1109.02855,0.07288
1107.09981,0.06843
1105.17106,0.06380
1103.24232,0.06103
1101.31357,0.06176
1099.38483,0.06565
1097.45608,0.07098
1095.52733,0.07623
1093.59859,0.08069
1091.66984,0.08441
1089.74110,0.08769
1087.81235,0.09053
1085.88361,0.09266
1083.95486,0.09410
1082.02612,0.09531
1080.09737,0.09652
1078.16863,0.09755
1076.23988,0.09829
1074.31114,0.09887
1072.38239,0.09935
1070.45365,0.09961
1068.52490,0.09969
1066.59615,0.09969
1064.66741,0.09936
1062.73866,0.09870
1060.80992,0.09783
1058.88117,0.09671
1056.95243,0.09531
1055.02368,0.09353
1053.09494,0.09121
1051.16619,0.08798
1049.23745,0.08327
1047.30870,0.07744
1045.37996,0.07282
1043.45121,0.07248
1041.52247,0.07661
1039.59372,0.08186
1037.66498,0.08555
1035.73623,0.08789
1033.80748,0.09003
1031.87874,0.09217
1029.94999,0.09370
1028.02125,0.09427
1026.09250,0.09400
1024.16376,0.09317
1022.23501,0.09173
1020.30627,0.08955
1018.37752,0.08699
1016.44878,0.08420
1014.52003,0.08079
1012.59129,0.07654
1010.66254,0.07151
1008.73380,0.06541
1006.80505,0.05797
1004.87631,0.04986
1002.94756,0.04231
1001.01881,0.03643
999.09007,0.03316
997.16132,0.03325
995.23258,0.03683
993.30383,0.04287
991.37509,0.04973
989.44634,0.05599
987.51760,0.06042
985.58885,0.06178
983.66011,0.05945
981.73136,0.05363
979.80262,0.04525
977.87387,0.03636
975.94513,0.02955
974.01638,0.02641
972.08763,0.02723
970.15889,0.03203
968.23014,0.04057
966.30140,0.05156
964.37265,0.06298
962.44391,0.07312
960.51516,0.08146
958.58642,0.08841
956.65767,0.09425
954.72893,0.09878
952.80018,0.10198
950.87144,0.10425
948.94269,0.10561
947.01395,0.10526
945.08520,0.10230
943.15646,0.09729
941.22771,0.09325
939.29896,0.09425
937.37022,0.10133
935.44147,0.11093
933.51273,0.11880
931.58398,0.12358
929.65524,0.12588
927.72649,0.12660
925.79775,0.12673
923.86900,0.12688
921.94026,0.12695
920.01151,0.12649
918.08277,0.12546
916.15402,0.12406
914.22528,0.12220
912.29653,0.11972
910.36779,0.11630
908.43904,0.11096
906.51029,0.10242
904.58155,0.08998
902.65280,0.07534
900.72406,0.06376
898.79531,0.06095
896.86657,0.06825
894.93782,0.08140
893.00908,0.09430
891.08033,0.10358
889.15159,0.10934
887.22284,0.11280
885.29410,0.11489
883.36535,0.11618
881.43661,0.11651
879.50786,0.11568
877.57911,0.11440
875.65037,0.11352
873.72162,0.11305
871.79288,0.11264
869.86413,0.11216
867.93539,0.11143
866.00664,0.11013
864.07790,0.10809
862.14915,0.10527
860.22041,0.10204
858.29166,0.09883
856.36292,0.09546
854.43417,0.09109
852.50543,0.08520
850.57668,0.07804
848.64794,0.06994
846.71919,0.06064
844.79044,0.05043
842.86170,0.04170
840.93295,0.03849
839.00421,0.04295
837.07546,0.05292
835.14672,0.06401
833.21797,0.07350
831.28923,0.08100
829.36048,0.08698
827.43174,0.09190
825.50299,0.09583
823.57425,0.09856
821.64550,0.09986
819.71676,0.09916
817.78801,0.09572
815.85926,0.08880
813.93052,0.07847
812.00177,0.06726
810.07303,0.05967
808.14428,0.05919
806.21554,0.06594
804.28679,0.07672
802.35805,0.08723
800.42930,0.09526
798.50056,0.10144
796.57181,0.10687
794.64307,0.11196
792.71432,0.11692
790.78558,0.12160
788.85683,0.12607
786.92809,0.13098
784.99934,0.13633
783.07059,0.14116
781.14185,0.14467
779.21310,0.14663
777.28436,0.14752
775.35561,0.14819
773.42687,0.14874
771.49812,0.14880
769.56938,0.14891
767.64063,0.14955
765.71189,0.15022
763.78314,0.15042
761.85440,0.15041
759.92565,0.15053
757.99691,0.15059
756.06816,0.15028
754.13942,0.15017
752.21067,0.15083
750.28192,0.15171
748.35318,0.15198
746.42443,0.15175
744.49569,0.15166
742.56694,0.15172
740.63820,0.15133
738.70945,0.15036
736.78071,0.14917
734.85196,0.14770
732.92322,0.14570
730.99447,0.14366
729.06573,0.14186
727.13698,0.13982
725.20824,0.13745
723.27949,0.13516
721.35074,0.13417
719.42200,0.13617
717.49325,0.14005
715.56451,0.14282
713.63576,0.14417
711.70702,0.14563
709.77827,0.14735
707.84953,0.14852
705.92078,0.14878
703.99204,0.14835
702.06329,0.14828
700.13455,0.14894
698.20580,0.14954
696.27706,0.15008
694.34831,0.15071
692.41957,0.15088
690.49082,0.15088
688.56207,0.15124
686.63333,0.15163
684.70458,0.15179
682.77584,0.15190
680.84709,0.15179
678.91835,0.15128
676.98960,0.15099
675.06086,0.15146
673.13211,0.15206
671.20337,0.15212
669.27462,0.15177
667.34588,0.15134
665.41713,0.15108
663.48839,0.15131
661.55964,0.15203
659.63090,0.15251
657.70215,0.15216
655.77340,0.15177
653.84466,0.15217
651.91591,0.15297
649.98717,0.15338
648.05842,0.15324
646.12968,0.15280
644.20093,0.15235
642.27219,0.15263
640.34344,0.15379
638.41470,0.15433
636.48595,0.15378
634.55721,0.15358
632.62846,0.15398
630.69972,0.15406
628.77097,0.15381
626.84222,0.15363
624.91348,0.15346
622.98473,0.15327
621.05599,0.15331
619.12724,0.15346
617.19850,0.15362
615.26975,0.15392
613.34101,0.15400
611.41226,0.15380
609.48352,0.15373
607.55477,0.15370
605.62603,0.15392
603.69728,0.15481
601.76854,0.15580
599.83979,0.15591
