7497.03301,0.11210
7495.10426,0.11565
7493.17552,0.11508
7491.24677,0.11365
7489.31803,0.11461
7487.38928,0.11755
7485.46054,0.12228
7483.53179,0.12515
7481.60305,0.12384
7479.67430,0.12116
7477.74556,0.11878
7475.81681,0.11795
7473.88807,0.11808
7471.95932,0.11836
7470.03057,0.11881
7468.10183,0.11782
7466.17308,0.11687
7464.24434,0.11778
7462.31559,0.11890
7460.38685,0.11965
7458.45810,0.11974
7456.52936,0.11887
7454.60061,0.11722
7452.67187,0.11444
7450.74312,0.11351
7448.81438,0.11668
7446.88563,0.11912
7444.95689,0.11814
7443.02814,0.11670
7441.09940,0.11645
7439.17065,0.11659
7437.24190,0.11684
7435.31316,0.11939
7433.38441,0.12494
7431.45567,0.12990
7429.52692,0.12881
7427.59818,0.12120
7425.66943,0.11562
7423.74069,0.11602
7421.81194,0.11603
7419.88320,0.11405
7417.95445,0.11461
7416.02571,0.11704
7414.09696,0.11778
7412.16822,0.11695
7410.23947,0.11705
7408.31073,0.11813
7406.38198,0.11693
7404.45323,0.11303
7402.52449,0.11088
7400.59574,0.11265
7398.66700,0.11546
7396.73825,0.11513
7394.80951,0.11287
7392.88076,0.11177
7390.95202,0.11231
7389.02327,0.11582
7387.09453,0.12112
7385.16578,0.12398
7383.23704,0.12346
7381.30829,0.12100
7379.37955,0.11975
7377.45080,0.12153
7375.52205,0.12408
7373.59331,0.12459
7371.66456,0.12288
7369.73582,0.11998
7367.80707,0.11756
7365.87833,0.11759
7363.94958,0.11913
7362.02084,0.11834
7360.09209,0.11404
7358.16335,0.10981
7356.23460,0.10913
7354.30586,0.11073
7352.37711,0.11205
7350.44837,0.11314
7348.51962,0.11390
7346.59088,0.11407
7344.66213,0.11602
7342.73338,0.11901
7340.80464,0.11828
7338.87589,0.11479
7336.94715,0.11402
7335.01840,0.11643
7333.08966,0.11750
7331.16091,0.11561
7329.23217,0.11599
7327.30342,0.12023
7325.37468,0.12192
7323.44593,0.11985
7321.51719,0.11961
7319.58844,0.12133
7317.65970,0.12212
7315.73095,0.12246
7313.80221,0.12243
7311.87346,0.12203
7309.94471,0.12248
7308.01597,0.12279
7306.08722,0.12226
7304.15848,0.12155
7302.22973,0.12018
7300.30099,0.11856
7298.37224,0.11891
7296.44350,0.12147
7294.51475,0.12378
7292.58601,0.12325
7290.65726,0.12042
7288.72852,0.11867
7286.79977,0.11751
7284.87103,0.11400
7282.94228,0.11130
7281.01353,0.11320
7279.08479,0.11573
7277.15604,0.11357
7275.22730,0.10958
7273.29855,0.10989
7271.36981,0.11490
7269.44106,0.12018
7267.51232,0.12157
7265.58357,0.11951
7263.65483,0.11793
7261.72608,0.11710
7259.79734,0.11523
7257.86859,0.11335
7255.93985,0.11260
7254.01110,0.11318
7252.08236,0.11606
7250.15361,0.11961
7248.22486,0.12044
7246.29612,0.11828
7244.36737,0.11704
7242.43863,0.11949
7240.50988,0.12161
7238.58114,0.12001
7236.65239,0.11841
7234.72365,0.11808
7232.79490,0.11711
7230.86616,0.11687
7228.93741,0.11857
7227.00867,0.11946
7225.07992,0.11769
7223.15118,0.11528
7221.22243,0.11409
7219.29369,0.11442
7217.36494,0.11547
7215.43619,0.11532
7213.50745,0.11463
7211.57870,0.11498
7209.64996,0.11671
7207.72121,0.12004
7205.79247,0.12237
7203.86372,0.12092
7201.93498,0.11938
7200.00623,0.12098
7198.07749,0.12265
7196.14874,0.12162
7194.22000,0.11832
7192.29125,0.11518
7190.36251,0.11364
7188.43376,0.11339
7186.50501,0.11491
7184.57627,0.11629
7182.64752,0.11577
7180.71878,0.11514
7178.79003,0.11525
7176.86129,0.11532
7174.93254,0.11487
7173.00380,0.11416
7171.07505,0.11414
7169.14631,0.11544
7167.21756,0.11709
7165.28882,0.11684
7163.36007,0.11519
7161.43133,0.11401
7159.50258,0.11410
7157.57384,0.11636
7155.64509,0.11811
7153.71634,0.11639
7151.78760,0.11496
7149.85885,0.11516
7147.93011,0.11436
7146.00136,0.11428
7144.07262,0.11527
7142.14387,0.11447
7140.21513,0.11182
7138.28638,0.10745
7136.35764,0.10365
7134.42889,0.10427
7132.50015,0.10824
7130.57140,0.11321
7128.64266,0.11918
7126.71391,0.12367
7124.78516,0.12432
7122.85642,0.12221
7120.92767,0.11963
7118.99893,0.11767
7117.07018,0.11454
7115.14144,0.11036
7113.21269,0.10950
7111.28395,0.11228
7109.35520,0.11509
7107.42646,0.11605
7105.49771,0.11599
7103.56897,0.11685
7101.64022,0.11845
7099.71148,0.12004
7097.78273,0.12129
7095.85399,0.11925
7093.92524,0.11406
7091.99649,0.11118
7090.06775,0.11250
7088.13900,0.11461
7086.21026,0.11519
7084.28151,0.11473
7082.35277,0.11410
7080.42402,0.11387
7078.49528,0.11483
7076.56653,0.11640
7074.63779,0.11772
7072.70904,0.11909
7070.78030,0.11956
7068.85155,0.11881
7066.92281,0.11873
7064.99406,0.11971
7063.06532,0.12108
7061.13657,0.12252
7059.20782,0.12259
7057.27908,0.12033
7055.35033,0.11780
7053.42159,0.11751
7051.49284,0.11795
7049.56410,0.11597
7047.63535,0.11326
7045.70661,0.11363
7043.77786,0.11665
7041.84912,0.11893
7039.92037,0.11933
7037.99163,0.11956
7036.06288,0.12068
7034.13414,0.12151
7032.20539,0.12112
7030.27664,0.12040
7028.34790,0.12003
7026.41915,0.11915
7024.49041,0.11777
7022.56166,0.11719
7020.63292,0.11832
7018.70417,0.12047
7016.77543,0.12063
7014.84668,0.11844
7012.91794,0.11828
7010.98919,0.12168
7009.06045,0.12364
7007.13170,0.12119
7005.20296,0.11778
7003.27421,0.11535
7001.34547,0.11411
6999.41672,0.11578
6997.48797,0.11841
6995.55923,0.11898
6993.63048,0.11868
6991.70174,0.11816
6989.77299,0.11703
6987.84425,0.11660
6985.91550,0.11691
6983.98676,0.11681
6982.05801,0.11686
6980.12927,0.11678
6978.20052,0.11578
6976.27178,0.11475
6974.34303,0.11401
6972.41429,0.11337
6970.48554,0.11326
6968.55680,0.11391
6966.62805,0.11656
6964.69930,0.12057
6962.77056,0.12166
6960.84181,0.11909
6958.91307,0.11686
6956.98432,0.11671
6955.05558,0.11855
6953.12683,0.12227
6951.19809,0.12487
6949.26934,0.12300
6947.34060,0.11900
6945.41185,0.11621
6943.48311,0.11450
6941.55436,0.11382
6939.62562,0.11396
6937.69687,0.11381
6935.76812,0.11382
6933.83938,0.11476
6931.91063,0.11604
6929.98189,0.11695
6928.05314,0.11762
6926.12440,0.11792
6924.19565,0.11732
6922.26691,0.11693
6920.33816,0.11795
6918.40942,0.11848
6916.48067,0.11674
6914.55193,0.11538
6912.62318,0.11716
6910.69444,0.11907
6908.76569,0.11818
6906.83695,0.11666
6904.90820,0.11546
6902.97945,0.11439
6901.05071,0.11567
6899.12196,0.11783
6897.19322,0.11711
6895.26447,0.11465
6893.33573,0.11364
6891.40698,0.11481
6889.47824,0.11636
6887.54949,0.11604
6885.62075,0.11508
6883.69200,0.11591
6881.76326,0.11769
6879.83451,0.11849
6877.90577,0.11761
6875.97702,0.11575
6874.04828,0.11451
6872.11953,0.11468
6870.19078,0.11651
6868.26204,0.11900
6866.33329,0.12028
6864.40455,0.12003
6862.47580,0.11850
6860.54706,0.11629
6858.61831,0.11510
6856.68957,0.11564
6854.76082,0.11700
6852.83208,0.11779
6850.90333,0.11734
6848.97459,0.11699
6847.04584,0.11772
6845.11710,0.11789
6843.18835,0.11705
6841.25960,0.11707
6839.33086,0.11849
6837.40211,0.12004
6835.47337,0.12035
6833.54462,0.11929
6831.61588,0.11771
6829.68713,0.11600
6827.75839,0.11554
6825.82964,0.11735
6823.90090,0.11881
6821.97215,0.11780
6820.04341,0.11679
6818.11466,0.11816
6816.18592,0.12021
6814.25717,0.12090
6812.32843,0.12104
6810.39968,0.12102
6808.47093,0.11971
6806.54219,0.11765
6804.61344,0.11601
6802.68470,0.11490
6800.75595,0.11445
6798.82721,0.11464
6796.89846,0.11498
6794.96972,0.11589
6793.04097,0.11805
6791.11223,0.12008
6789.18348,0.12073
6787.25474,0.12076
6785.32599,0.12044
6783.39725,0.11924
6781.46850,0.11780
6779.53975,0.11636
6777.61101,0.11524
6775.68226,0.11613
6773.75352,0.11892
6771.82477,0.12162
6769.89603,0.12277
6767.96728,0.12255
6766.03854,0.12245
6764.10979,0.12244
6762.18105,0.12216
6760.25230,0.12276
6758.32356,0.12466
6756.39481,0.12594
6754.46607,0.12527
6752.53732,0.12349
6750.60858,0.12130
6748.67983,0.11883
6746.75108,0.11637
6744.82234,0.11507
6742.89359,0.11671
6740.96485,0.11973
6739.03610,0.12136
6737.10736,0.12133
6735.17861,0.12066
6733.24987,0.12029
6731.32112,0.11993
6729.39238,0.11955
6727.46363,0.11977
6725.53489,0.12035
6723.60614,0.12103
6721.67740,0.12175
6719.74865,0.12174
6717.81991,0.11991
6715.89116,0.11714
6713.96241,0.11522
6712.03367,0.11442
6710.10492,0.11459
6708.17618,0.11496
6706.24743,0.11585
6704.31869,0.11887
6702.38994,0.12192
6700.46120,0.12153
6698.53245,0.11903
6696.60371,0.11763
6694.67496,0.11763
6692.74622,0.11751
6690.81747,0.11705
6688.88873,0.11722
6686.95998,0.11742
6685.03123,0.11665
6683.10249,0.11608
6681.17374,0.11659
6679.24500,0.11727
6677.31625,0.11817
6675.38751,0.11974
6673.45876,0.12087
6671.53002,0.12044
6669.60127,0.11814
6667.67253,0.11517
6665.74378,0.11458
6663.81504,0.11715
6661.88629,0.12009
6659.95755,0.12071
6658.02880,0.11943
6656.10006,0.11874
6654.17131,0.11867
6652.24256,0.11771
6650.31382,0.11749
6648.38507,0.11908
6646.45633,0.11982
6644.52758,0.11877
6642.59884,0.11766
6640.67009,0.11739
6638.74135,0.11843
6636.81260,0.12015
6634.88386,0.12043
6632.95511,0.11908
6631.02637,0.11849
6629.09762,0.11954
6627.16888,0.12021
6625.24013,0.11923
6623.31139,0.11816
6621.38264,0.11722
6619.45389,0.11614
6617.52515,0.11750
6615.59640,0.12063
6613.66766,0.12085
6611.73891,0.11790
6609.81017,0.11531
6607.88142,0.11561
6605.95268,0.11845
6604.02393,0.12002
6602.09519,0.11855
6600.16644,0.11723
6598.23770,0.11752
6596.30895,0.11762
6594.38021,0.11787
6592.45146,0.11952
6590.52271,0.12164
6588.59397,0.12299
6586.66522,0.12277
6584.73648,0.12151
6582.80773,0.12037
6580.87899,0.11838
6578.95024,0.11596
6577.02150,0.11610
6575.09275,0.11836
6573.16401,0.11943
6571.23526,0.11832
6569.30652,0.11725
6567.37777,0.11862
6565.44903,0.12095
6563.52028,0.12065
6561.59154,0.11821
6559.66279,0.11750
6557.73404,0.11947
6555.80530,0.12124
6553.87655,0.12124
6551.94781,0.11970
6550.01906,0.11750
6548.09032,0.11691
6546.16157,0.11870
6544.23283,0.12079
6542.30408,0.12119
6540.37534,0.12029
6538.44659,0.12001
6536.51785,0.11979
6534.58910,0.11817
6532.66036,0.11652
6530.73161,0.11565
6528.80287,0.11591
6526.87412,0.11872
6524.94537,0.12158
6523.01663,0.12202
6521.08788,0.12168
6519.15914,0.12098
6517.23039,0.11994
6515.30165,0.11942
6513.37290,0.11940
6511.44416,0.11988
6509.51541,0.11970
6507.58667,0.11814
6505.65792,0.11680
6503.72918,0.11683
6501.80043,0.11815
6499.87169,0.11957
6497.94294,0.11863
6496.01419,0.11577
6494.08545,0.11567
6492.15670,0.11943
6490.22796,0.12173
6488.29921,0.12108
6486.37047,0.12110
6484.44172,0.12134
6482.51298,0.11951
6480.58423,0.11720
6478.65549,0.11593
6476.72674,0.11566
6474.79800,0.11646
6472.86925,0.11739
6470.94051,0.11752
6469.01176,0.11790
6467.08302,0.11964
6465.15427,0.12117
6463.22552,0.12024
6461.29678,0.11836
6459.36803,0.11829
6457.43929,0.11905
6455.51054,0.11866
6453.58180,0.11815
6451.65305,0.11954
6449.72431,0.12209
6447.79556,0.12309
6445.86682,0.12214
6443.93807,0.12116
6442.00933,0.12093
6440.08058,0.12032
6438.15184,0.11884
6436.22309,0.11711
6434.29434,0.11609
6432.36560,0.11625
6430.43685,0.11708
6428.50811,0.11859
6426.57936,0.12042
6424.65062,0.12149
6422.72187,0.12201
6420.79313,0.12151
6418.86438,0.12002
6416.93564,0.11946
6415.00689,0.11987
6413.07815,0.12005
6411.14940,0.12019
6409.22066,0.12083
6407.29191,0.12174
6405.36317,0.12250
6403.43442,0.12228
6401.50567,0.12037
6399.57693,0.11817
6397.64818,0.11715
6395.71944,0.11725
6393.79069,0.11870
6391.86195,0.12055
6389.93320,0.12010
6388.00446,0.11846
6386.07571,0.11918
6384.14697,0.12052
6382.21822,0.11952
6380.28948,0.11768
6378.36073,0.11667
6376.43199,0.11636
6374.50324,0.11628
6372.57450,0.11608
6370.64575,0.11643
6368.71700,0.11799
6366.78826,0.11949
6364.85951,0.11940
6362.93077,0.11960
6361.00202,0.12203
6359.07328,0.12403
6357.14453,0.12318
6355.21579,0.12089
6353.28704,0.11849
6351.35830,0.11659
6349.42955,0.11638
6347.50081,0.11797
6345.57206,0.11972
6343.64332,0.12013
6341.71457,0.11931
6339.78582,0.11868
6337.85708,0.11909
6335.92833,0.11952
6333.99959,0.11915
6332.07084,0.11831
6330.14210,0.11729
6328.21335,0.11689
6326.28461,0.11752
6324.35586,0.11824
6322.42712,0.11915
6320.49837,0.12024
6318.56963,0.11969
6316.64088,0.11828
6314.71214,0.11873
6312.78339,0.11988
6310.85465,0.11984
6308.92590,0.11948
6306.99715,0.11919
6305.06841,0.11873
6303.13966,0.11868
6301.21092,0.11904
6299.28217,0.11930
6297.35343,0.11995
6295.42468,0.12049
6293.49594,0.11929
6291.56719,0.11746
6289.63845,0.11711
6287.70970,0.11759
6285.78096,0.11776
6283.85221,0.11799
6281.92347,0.11794
6279.99472,0.11689
6278.06598,0.11575
6276.13723,0.11595
6274.20848,0.11704
6272.27974,0.11807
6270.35099,0.11899
6268.42225,0.11852
6266.49350,0.11677
6264.56476,0.11627
6262.63601,0.11763
6260.70727,0.11978
6258.77852,0.12160
6256.84978,0.12177
6254.92103,0.12009
6252.99229,0.11837
6251.06354,0.11796
6249.13480,0.11829
6247.20605,0.11827
6245.27730,0.11749
6243.34856,0.11753
6241.41981,0.11912
6239.49107,0.12032
6237.56232,0.12031
6235.63358,0.11975
6233.70483,0.11957
6231.77609,0.11995
6229.84734,0.11953
6227.91860,0.11865
6225.98985,0.11888
6224.06111,0.11904
6222.13236,0.11809
6220.20362,0.11761
6218.27487,0.11761
6216.34613,0.11749
6214.41738,0.11788
6212.48863,0.11808
6210.55989,0.11796
6208.63114,0.11809
6206.70240,0.11801
6204.77365,0.11790
6202.84491,0.11833
6200.91616,0.11892
6198.98742,0.11897
6197.05867,0.11849
6195.12993,0.11757
6193.20118,0.11657
6191.27244,0.11680
6189.34369,0.11776
6187.41495,0.11807
6185.48620,0.11815
6183.55746,0.11827
6181.62871,0.11831
6179.69996,0.11918
6177.77122,0.12080
6175.84247,0.12089
6173.91373,0.11857
6171.98498,0.11639
6170.05624,0.11636
6168.12749,0.11754
6166.19875,0.11825
6164.27000,0.11843
6162.34126,0.11828
6160.41251,0.11723
6158.48377,0.11628
6156.55502,0.11714
6154.62628,0.11901
6152.69753,0.11984
6150.76878,0.11944
6148.84004,0.11917
6146.91129,0.11922
6144.98255,0.11904
6143.05380,0.11883
6141.12506,0.11858
6139.19631,0.11772
6137.26757,0.11641
6135.33882,0.11601
6133.41008,0.11753
6131.48133,0.11957
6129.55259,0.11985
6127.62384,0.11877
6125.69510,0.11816
6123.76635,0.11795
6121.83761,0.11772
6119.90886,0.11805
6117.98011,0.11868
6116.05137,0.11921
6114.12262,0.11990
6112.19388,0.12021
6110.26513,0.11953
6108.33639,0.11871
6106.40764,0.11835
6104.47890,0.11822
6102.55015,0.11809
6100.62141,0.11772
6098.69266,0.11759
6096.76392,0.11819
6094.83517,0.11877
6092.90643,0.11839
6090.97768,0.11810
6089.04893,0.11911
6087.12019,0.11998
6085.19144,0.11979
6083.26270,0.11956
6081.33395,0.11944
6079.40521,0.11904
6077.47646,0.11870
6075.54772,0.11927
6073.61897,0.12072
6071.69023,0.12131
6069.76148,0.12002
6067.83274,0.11818
6065.90399,0.11755
6063.97525,0.11788
6062.04650,0.11749
6060.11776,0.11638
6058.18901,0.11629
6056.26026,0.11799
6054.33152,0.12035
6052.40277,0.12090
6050.47403,0.11901
6048.54528,0.11704
6046.61654,0.11638
6044.68779,0.11663
6042.75905,0.11736
6040.83030,0.11750
6038.90156,0.11642
6036.97281,0.11582
6035.04407,0.11652
6033.11532,0.11696
6031.18658,0.11707
6029.25783,0.11797
6027.32909,0.11906
6025.40034,0.11915
6023.47159,0.11829
6021.54285,0.11802
6019.61410,0.11922
6017.68536,0.12078
6015.75661,0.12122
6013.82787,0.11994
6011.89912,0.11797
6009.97038,0.11697
6008.04163,0.11701
6006.11289,0.11728
6004.18414,0.11751
6002.25540,0.11774
6000.32665,0.11827
5998.39791,0.11849
5996.46916,0.11751
5994.54041,0.11646
5992.61167,0.11647
5990.68292,0.11673
5988.75418,0.11671
5986.82543,0.11694
5984.89669,0.11762
5982.96794,0.11823
5981.03920,0.11838
5979.11045,0.11862
5977.18171,0.11881
5975.25296,0.11816
5973.32422,0.11730
5971.39547,0.11684
5969.46673,0.11679
5967.53798,0.11738
5965.60924,0.11739
5963.68049,0.11567
5961.75174,0.11367
5959.82300,0.11352
5957.89425,0.11511
5955.96551,0.11621
5954.03676,0.11578
5952.10802,0.11510
5950.17927,0.11561
5948.25053,0.11673
5946.32178,0.11698
5944.39304,0.11632
5942.46429,0.11559
5940.53555,0.11503
5938.60680,0.11449
5936.67806,0.11386
5934.74931,0.11338
5932.82057,0.11337
5930.89182,0.11350
5928.96307,0.11312
5927.03433,0.11218
5925.10558,0.11142
5923.17684,0.11111
5921.24809,0.11010
5919.31935,0.10823
5917.39060,0.10749
5915.46186,0.10834
5913.53311,0.10891
5911.60437,0.10766
5909.67562,0.10514
5907.74688,0.10362
5905.81813,0.10395
5903.88939,0.10459
5901.96064,0.10477
5900.03189,0.10509
5898.10315,0.10548
5896.17440,0.10533
5894.24566,0.10484
5892.31691,0.10462
5890.38817,0.10477
5888.45942,0.10479
5886.53068,0.10476
5884.60193,0.10510
5882.67319,0.10504
5880.74444,0.10387
5878.81570,0.10275
5876.88695,0.10242
5874.95821,0.10187
5873.02946,0.10127
5871.10072,0.10196
5869.17197,0.10304
5867.24322,0.10253
5865.31448,0.10090
5863.38573,0.09959
5861.45699,0.09948
5859.52824,0.10089
5857.59950,0.10204
5855.67075,0.10183
5853.74201,0.10184
5851.81326,0.10226
5849.88452,0.10196
5847.95577,0.10132
5846.02703,0.10177
5844.09828,0.10340
5842.16954,0.10434
5840.24079,0.10386
5838.31205,0.10306
5836.38330,0.10282
5834.45455,0.10328
5832.52581,0.10359
5830.59706,0.10307
5828.66832,0.10265
5826.73957,0.10308
5824.81083,0.10396
5822.88208,0.10440
5820.95334,0.10370
5819.02459,0.10227
5817.09585,0.10118
5815.16710,0.10078
5813.23836,0.10046
5811.30961,0.09991
5809.38087,0.09958
5807.45212,0.09957
5805.52337,0.09951
5803.59463,0.09913
5801.66588,0.09858
5799.73714,0.09831
5797.80839,0.09840
5795.87965,0.09862
5793.95090,0.09915
5792.02216,0.10030
5790.09341,0.10135
5788.16467,0.10108
5786.23592,0.10020
5784.30718,0.10019
5782.37843,0.10103
5780.44969,0.10207
5778.52094,0.10297
5776.59220,0.10340
5774.66345,0.10304
5772.73470,0.10180
5770.80596,0.10036
5768.87721,0.10026
5766.94847,0.10136
5765.01972,0.10138
5763.09098,0.10027
5761.16223,0.09989
5759.23349,0.10029
5757.30474,0.10057
5755.37600,0.10066
5753.44725,0.10114
5751.51851,0.10165
5749.58976,0.10136
5747.66102,0.10104
5745.73227,0.10192
5743.80352,0.10372
5741.87478,0.10522
5739.94603,0.10603
5738.01729,0.10656
5736.08854,0.10658
5734.15980,0.10620
5732.23105,0.10622
5730.30231,0.10634
5728.37356,0.10638
5726.44482,0.10687
5724.51607,0.10763
5722.58733,0.10819
5720.65858,0.10789
5718.72984,0.10731
5716.80109,0.10818
5714.87235,0.10964
5712.94360,0.11001
5711.01485,0.10968
5709.08611,0.10909
5707.15736,0.10855
5705.22862,0.10841
5703.29987,0.10808
5701.37113,0.10721
5699.44238,0.10642
5697.51364,0.10594
5695.58489,0.10631
5693.65615,0.10768
5691.72740,0.10856
5689.79866,0.10829
5687.86991,0.10806
5685.94117,0.10847
5684.01242,0.10877
5682.08368,0.10852
5680.15493,0.10838
5678.22618,0.10837
5676.29744,0.10812
5674.36869,0.10808
5672.43995,0.10857
5670.51120,0.10899
5668.58246,0.10873
5666.65371,0.10817
5664.72497,0.10823
5662.79622,0.10849
5660.86748,0.10797
5658.93873,0.10755
5657.00999,0.10834
5655.08124,0.10964
5653.15250,0.11049
5651.22375,0.11036
5649.29500,0.10918
5647.36626,0.10787
5645.43751,0.10778
5643.50877,0.10888
5641.58002,0.10974
5639.65128,0.11001
5637.72253,0.11030
5635.79379,0.11066
5633.86504,0.11106
5631.93630,0.11156
5630.00755,0.11190
5628.07881,0.11200
5626.15006,0.11200
5624.22132,0.11138
5622.29257,0.11070
5620.36383,0.11112
5618.43508,0.11175
5616.50633,0.11147
5614.57759,0.11088
5612.64884,0.11082
5610.72010,0.11132
5608.79135,0.11206
5606.86261,0.11253
5604.93386,0.11230
5603.00512,0.11194
5601.07637,0.11205
5599.14763,0.11244
5597.21888,0.11300
5595.29014,0.11338
5593.36139,0.11310
5591.43265,0.11238
5589.50390,0.11178
5587.57516,0.11170
5585.64641,0.11196
5583.71766,0.11221
5581.78892,0.11257
5579.86017,0.11298
5577.93143,0.11296
5576.00268,0.11222
5574.07394,0.11094
5572.14519,0.11017
5570.21645,0.11086
5568.28770,0.11206
5566.35896,0.11227
5564.43021,0.11206
5562.50147,0.11240
5560.57272,0.11246
5558.64398,0.11183
5556.71523,0.11145
5554.78648,0.11156
5552.85774,0.11170
5550.92899,0.11164
5549.00025,0.11185
5547.07150,0.11262
5545.14276,0.11316
5543.21401,0.11310
5541.28527,0.11310
5539.35652,0.11328
5537.42778,0.11353
5535.49903,0.11389
5533.57029,0.11383
5531.64154,0.11318
5529.71280,0.11266
5527.78405,0.11269
5525.85531,0.11263
5523.92656,0.11177
5521.99781,0.11072
5520.06907,0.11038
5518.14032,0.11029
5516.21158,0.11012
5514.28283,0.11050
5512.35409,0.11148
5510.42534,0.11211
5508.49660,0.11185
5506.56785,0.11123
5504.63911,0.11099
5502.71036,0.11117
5500.78162,0.11173
5498.85287,0.11236
5496.92413,0.11198
5494.99538,0.11093
5493.06664,0.11097
5491.13789,0.11212
5489.20914,0.11288
5487.28040,0.11288
5485.35165,0.11310
5483.42291,0.11346
5481.49416,0.11294
5479.56542,0.11219
5477.63667,0.11251
5475.70793,0.11326
5473.77918,0.11337
5471.85044,0.11309
5469.92169,0.11300
5467.99295,0.11303
5466.06420,0.11290
5464.13546,0.11255
5462.20671,0.11219
5460.27796,0.11199
5458.34922,0.11207
5456.42047,0.11263
5454.49173,0.11320
5452.56298,0.11311
5450.63424,0.11292
5448.70549,0.11290
5446.77675,0.11266
5444.84800,0.11267
5442.91926,0.11316
5440.99051,0.11371
5439.06177,0.11421
5437.13302,0.11442
5435.20428,0.11420
5433.27553,0.11408
5431.34679,0.11415
5429.41804,0.11375
5427.48929,0.11299
5425.56055,0.11279
5423.63180,0.11328
5421.70306,0.11388
5419.77431,0.11441
5417.84557,0.11486
5415.91682,0.11481
5413.98808,0.11435
5412.05933,0.11455
5410.13059,0.11547
5408.20184,0.11574
5406.27310,0.11526
5404.34435,0.11535
5402.41561,0.11584
5400.48686,0.11569
5398.55811,0.11533
5396.62937,0.11512
5394.70062,0.11471
5392.77188,0.11466
5390.84313,0.11541
5388.91439,0.11638
5386.98564,0.11676
5385.05690,0.11639
5383.12815,0.11603
5381.19941,0.11615
5379.27066,0.11628
5377.34192,0.11618
5375.41317,0.11626
5373.48443,0.11642
5371.55568,0.11600
5369.62694,0.11539
5367.69819,0.11549
5365.76944,0.11593
5363.84070,0.11592
5361.91195,0.11566
5359.98321,0.11589
5358.05446,0.11661
5356.12572,0.11717
5354.19697,0.11769
5352.26823,0.11828
5350.33948,0.11807
5348.41074,0.11693
5346.48199,0.11584
5344.55325,0.11545
5342.62450,0.11579
5340.69576,0.11637
5338.76701,0.11642
5336.83827,0.11588
5334.90952,0.11554
5332.98077,0.11570
5331.05203,0.11613
5329.12328,0.11653
5327.19454,0.11649
5325.26579,0.11643
5323.33705,0.11692
5321.40830,0.11749
5319.47956,0.11742
5317.55081,0.11675
5315.62207,0.11612
5313.69332,0.11604
5311.76458,0.11641
5309.83583,0.11674
5307.90709,0.11683
5305.97834,0.11695
5304.04959,0.11684
5302.12085,0.11610
5300.19210,0.11536
5298.26336,0.11543
5296.33461,0.11575
5294.40587,0.11562
5292.47712,0.11531
5290.54838,0.11553
5288.61963,0.11672
5286.69089,0.11780
5284.76214,0.11750
5282.83340,0.11659
5280.90465,0.11633
5278.97591,0.11679
5277.04716,0.11709
5275.11842,0.11665
5273.18967,0.11623
5271.26092,0.11619
5269.33218,0.11589
5267.40343,0.11564
5265.47469,0.11592
5263.54594,0.11612
5261.61720,0.11603
5259.68845,0.11598
5257.75971,0.11594
5255.83096,0.11633
5253.90222,0.11735
5251.97347,0.11802
5250.04473,0.11787
5248.11598,0.11756
5246.18724,0.11783
5244.25849,0.11820
5242.32975,0.11810
5240.40100,0.11799
5238.47225,0.11767
5236.54351,0.11673
5234.61476,0.11557
5232.68602,0.11466
5230.75727,0.11444
5228.82853,0.11490
5226.89978,0.11562
5224.97104,0.11623
5223.04229,0.11618
5221.11355,0.11580
5219.18480,0.11629
5217.25606,0.11746
5215.32731,0.11765
5213.39857,0.11673
5211.46982,0.11609
5209.54107,0.11600
5207.61233,0.11579
5205.68358,0.11547
5203.75484,0.11575
5201.82609,0.11680
5199.89735,0.11772
5197.96860,0.11771
5196.03986,0.11708
5194.11111,0.11664
5192.18237,0.11683
5190.25362,0.11748
5188.32488,0.11810
5186.39613,0.11831
5184.46739,0.11788
5182.53864,0.11717
5180.60990,0.11725
5178.68115,0.11815
5176.75240,0.11835
5174.82366,0.11748
5172.89491,0.11676
5170.96617,0.11688
5169.03742,0.11738
5167.10868,0.11748
5165.17993,0.11716
5163.25119,0.11709
5161.32244,0.11698
5159.39370,0.11638
5157.46495,0.11581
5155.53621,0.11566
5153.60746,0.11582
5151.67872,0.11618
5149.74997,0.11651
5147.82123,0.11664
5145.89248,0.11679
5143.96373,0.11691
5142.03499,0.11682
5140.10624,0.11669
5138.17750,0.11683
5136.24875,0.11708
5134.32001,0.11724
5132.39126,0.11743
5130.46252,0.11748
5128.53377,0.11762
5126.60503,0.11810
5124.67628,0.11813
5122.74754,0.11757
5120.81879,0.11753
5118.89005,0.11824
5116.96130,0.11859
5115.03255,0.11805
5113.10381,0.11733
5111.17506,0.11723
5109.24632,0.11763
5107.31757,0.11788
5105.38883,0.11794
5103.46008,0.11807
5101.53134,0.11827
5099.60259,0.11854
5097.67385,0.11886
5095.74510,0.11890
5093.81636,0.11836
5091.88761,0.11749
5089.95887,0.11697
5088.03012,0.11713
5086.10138,0.11730
5084.17263,0.11705
5082.24388,0.11700
5080.31514,0.11733
5078.38639,0.11758
5076.45765,0.11766
5074.52890,0.11771
5072.60016,0.11792
5070.67141,0.11846
5068.74267,0.11896
5066.81392,0.11883
5064.88518,0.11827
5062.95643,0.11804
5061.02769,0.11816
5059.09894,0.11798
5057.17020,0.11751
5055.24145,0.11712
5053.31270,0.11695
5051.38396,0.11712
5049.45521,0.11759
5047.52647,0.11810
5045.59772,0.11837
5043.66898,0.11831
5041.74023,0.11833
5039.81149,0.11869
5037.88274,0.11877
5035.95400,0.11800
5034.02525,0.11707
5032.09651,0.11704
5030.16776,0.11785
5028.23902,0.11877
5026.31027,0.11933
5024.38153,0.11960
5022.45278,0.11965
5020.52403,0.11935
5018.59529,0.11899
5016.66654,0.11889
5014.73780,0.11905
5012.80905,0.11940
5010.88031,0.11973
5008.95156,0.11969
5007.02282,0.11921
5005.09407,0.11880
5003.16533,0.11904
5001.23658,0.11978
4999.30784,0.12028
4997.37909,0.12006
4995.45035,0.11936
4993.52160,0.11903
4991.59286,0.11967
4989.66411,0.12056
4987.73536,0.12057
4985.80662,0.11995
4983.87787,0.11972
4981.94913,0.11990
4980.02038,0.11980
4978.09164,0.11932
4976.16289,0.11898
4974.23415,0.11906
4972.30540,0.11931
4970.37666,0.11930
4968.44791,0.11904
4966.51917,0.11898
4964.59042,0.11945
4962.66168,0.11991
4960.73293,0.11990
4958.80418,0.11993
4956.87544,0.12032
4954.94669,0.12084
4953.01795,0.12099
4951.08920,0.12067
4949.16046,0.12029
4947.23171,0.11993
4945.30297,0.11977
4943.37422,0.11987
4941.44548,0.11980
4939.51673,0.11970
4937.58799,0.11991
4935.65924,0.12024
4933.73050,0.12030
4931.80175,0.11997
4929.87301,0.11954
4927.94426,0.11941
4926.01551,0.11981
4924.08677,0.12044
4922.15802,0.12085
4920.22928,0.12089
4918.30053,0.12071
4916.37179,0.12055
4914.44304,0.12045
4912.51430,0.12065
4910.58555,0.12096
4908.65681,0.12092
4906.72806,0.12077
4904.79932,0.12085
4902.87057,0.12073
4900.94183,0.12016
4899.01308,0.11984
4897.08434,0.12031
4895.15559,0.12085
4893.22684,0.12069
4891.29810,0.12031
4889.36935,0.12013
4887.44061,0.12003
4885.51186,0.12010
4883.58312,0.12035
4881.65437,0.12047
4879.72563,0.12059
4877.79688,0.12075
4875.86814,0.12060
4873.93939,0.12032
4872.01065,0.12038
4870.08190,0.12050
4868.15316,0.12019
4866.22441,0.11952
4864.29566,0.11915
4862.36692,0.11954
4860.43817,0.12020
4858.50943,0.12048
4856.58068,0.12060
4854.65194,0.12095
4852.72319,0.12114
4850.79445,0.12072
4848.86570,0.12034
4846.93696,0.12048
4845.00821,0.12053
4843.07947,0.12019
4841.15072,0.11980
4839.22198,0.11955
4837.29323,0.11958
4835.36449,0.11977
4833.43574,0.11989
4831.50699,0.12015
4829.57825,0.12061
4827.64950,0.12096
4825.72076,0.12108
4823.79201,0.12102
4821.86327,0.12095
4819.93452,0.12089
4818.00578,0.12068
4816.07703,0.12046
4814.14829,0.12023
4812.21954,0.12008
4810.29080,0.12033
4808.36205,0.12081
4806.43331,0.12101
4804.50456,0.12070
4802.57582,0.12005
4800.64707,0.11948
4798.71832,0.11947
4796.78958,0.11979
4794.86083,0.12004
4792.93209,0.12004
4791.00334,0.11954
4789.07460,0.11904
4787.14585,0.11945
4785.21711,0.12041
4783.28836,0.12095
4781.35962,0.12109
4779.43087,0.12116
4777.50213,0.12116
4775.57338,0.12118
4773.64464,0.12108
4771.71589,0.12057
4769.78714,0.12004
4767.85840,0.11985
4765.92965,0.11990
4764.00091,0.12004
4762.07216,0.12004
4760.14342,0.12012
4758.21467,0.12072
4756.28593,0.12146
4754.35718,0.12187
4752.42844,0.12209
4750.49969,0.12195
4748.57095,0.12154
4746.64220,0.12127
4744.71346,0.12095
4742.78471,0.12064
4740.85597,0.12074
4738.92722,0.12102
4736.99847,0.12101
4735.06973,0.12072
4733.14098,0.12047
4731.21224,0.12051
4729.28349,0.12108
4727.35475,0.12181
4725.42600,0.12176
4723.49726,0.12113
4721.56851,0.12101
4719.63977,0.12125
4717.71102,0.12123
4715.78228,0.12102
4713.85353,0.12082
4711.92479,0.12094
4709.99604,0.12150
4708.06729,0.12195
4706.13855,0.12168
4704.20980,0.12111
4702.28106,0.12098
4700.35231,0.12105
4698.42357,0.12081
4696.49482,0.12086
4694.56608,0.12172
4692.63733,0.12239
4690.70859,0.12206
4688.77984,0.12131
4686.85110,0.12089
4684.92235,0.12084
4682.99361,0.12092
4681.06486,0.12081
4679.13612,0.12045
4677.20737,0.12013
4675.27862,0.12009
4673.34988,0.12045
4671.42113,0.12092
4669.49239,0.12096
4667.56364,0.12057
4665.63490,0.12021
4663.70615,0.12020
4661.77741,0.12046
4659.84866,0.12062
4657.91992,0.12060
4655.99117,0.12050
4654.06243,0.12030
4652.13368,0.12002
4650.20494,0.11974
4648.27619,0.11966
4646.34745,0.11986
4644.41870,0.12013
4642.48995,0.12044
4640.56121,0.12071
4638.63246,0.12049
4636.70372,0.11996
4634.77497,0.11977
4632.84623,0.11973
4630.91748,0.11953
4628.98874,0.11942
4627.05999,0.11952
4625.13125,0.11983
4623.20250,0.12027
4621.27376,0.12054
4619.34501,0.12052
4617.41627,0.12032
4615.48752,0.11999
4613.55877,0.11979
4611.63003,0.12009
4609.70128,0.12054
4607.77254,0.12071
4605.84379,0.12068
4603.91505,0.12041
4601.98630,0.12013
4600.05756,0.12025
4598.12881,0.12050
4596.20007,0.12035
4594.27132,0.11986
4592.34258,0.11929
4590.41383,0.11894
4588.48509,0.11906
4586.55634,0.11944
4584.62760,0.11971
4582.69885,0.11966
4580.77010,0.11896
4578.84136,0.11804
4576.91261,0.11783
4574.98387,0.11824
4573.05512,0.11849
4571.12638,0.11839
4569.19763,0.11843
4567.26889,0.11868
4565.34014,0.11880
4563.41140,0.11885
4561.48265,0.11900
4559.55391,0.11929
4557.62516,0.11943
4555.69642,0.11922
4553.76767,0.11886
4551.83893,0.11861
4549.91018,0.11840
4547.98143,0.11818
4546.05269,0.11823
4544.12394,0.11852
4542.19520,0.11879
4540.26645,0.11915
4538.33771,0.11946
4536.40896,0.11935
4534.48022,0.11898
4532.55147,0.11893
4530.62273,0.11924
4528.69398,0.11940
4526.76524,0.11920
4524.83649,0.11882
4522.90775,0.11855
4520.97900,0.11863
4519.05025,0.11896
4517.12151,0.11918
4515.19276,0.11918
4513.26402,0.11898
4511.33527,0.11862
4509.40653,0.11838
4507.47778,0.11833
4505.54904,0.11818
4503.62029,0.11796
4501.69155,0.11790
4499.76280,0.11811
4497.83406,0.11826
4495.90531,0.11807
4493.97657,0.11788
4492.04782,0.11793
4490.11908,0.11815
4488.19033,0.11846
4486.26158,0.11870
4484.33284,0.11870
4482.40409,0.11850
4480.47535,0.11825
4478.54660,0.11802
4476.61786,0.11788
4474.68911,0.11800
4472.76037,0.11821
4470.83162,0.11811
4468.90288,0.11774
4466.97413,0.11749
4465.04539,0.11718
4463.11664,0.11644
4461.18790,0.11583
4459.25915,0.11575
4457.33041,0.11585
4455.40166,0.11577
4453.47291,0.11524
4451.54417,0.11461
4449.61542,0.11427
4447.68668,0.11387
4445.75793,0.11326
4443.82919,0.11254
4441.90044,0.11172
4439.97170,0.11086
4438.04295,0.10996
4436.11421,0.10924
4434.18546,0.10874
4432.25672,0.10778
4430.32797,0.10606
4428.39923,0.10413
4426.47048,0.10226
4424.54173,0.10028
4422.61299,0.09820
4420.68424,0.09646
4418.75550,0.09530
4416.82675,0.09405
4414.89801,0.09203
4412.96926,0.09005
4411.04052,0.08879
4409.11177,0.08772
4407.18303,0.08661
4405.25428,0.08571
4403.32554,0.08466
4401.39679,0.08301
4399.46805,0.08085
4397.53930,0.07853
4395.61056,0.07647
4393.68181,0.07499
4391.75306,0.07424
4389.82432,0.07428
4387.89557,0.07511
4385.96683,0.07635
4384.03808,0.07741
4382.10934,0.07837
4380.18059,0.07955
4378.25185,0.08083
4376.32310,0.08192
4374.39436,0.08276
4372.46561,0.08345
4370.53687,0.08391
4368.60812,0.08404
4366.67938,0.08432
4364.75063,0.08519
4362.82189,0.08617
4360.89314,0.08661
4358.96439,0.08671
4357.03565,0.08694
4355.10690,0.08678
4353.17816,0.08564
4351.24941,0.08416
4349.32067,0.08292
4347.39192,0.08133
4345.46318,0.07901
4343.53443,0.07635
4341.60569,0.07370
4339.67694,0.07097
4337.74820,0.06810
4335.81945,0.06554
4333.89071,0.06349
4331.96196,0.06170
4330.03321,0.06030
4328.10447,0.05932
4326.17572,0.05833
4324.24698,0.05756
4322.31823,0.05762
4320.38949,0.05826
4318.46074,0.05908
4316.53200,0.06020
4314.60325,0.06155
4312.67451,0.06251
4310.74576,0.06299
4308.81702,0.06346
4306.88827,0.06443
4304.95953,0.06624
4303.03078,0.06839
4301.10204,0.07001
4299.17329,0.07102
4297.24454,0.07196
4295.31580,0.07300
4293.38705,0.07381
4291.45831,0.07407
4289.52956,0.07397
4287.60082,0.07377
4285.67207,0.07344
4283.74333,0.07315
4281.81458,0.07325
4279.88584,0.07369
4277.95709,0.07398
4276.02835,0.07412
4274.09960,0.07438
4272.17086,0.07468
4270.24211,0.07470
4268.31336,0.07430
4266.38462,0.07360
4264.45587,0.07286
4262.52713,0.07211
4260.59838,0.07132
4258.66964,0.07058
4256.74089,0.06980
4254.81215,0.06867
4252.88340,0.06720
4250.95466,0.06583
4249.02591,0.06452
4247.09717,0.06299
4245.16842,0.06159
4243.23968,0.06098
4241.31093,0.06136
4239.38219,0.06233
4237.45344,0.06353
4235.52469,0.06503
4233.59595,0.06662
4231.66720,0.06773
4229.73846,0.06833
4227.80971,0.06892
4225.88097,0.06950
4223.95222,0.06968
4222.02348,0.06964
4220.09473,0.06966
4218.16599,0.06962
4216.23724,0.06944
4214.30850,0.06959
4212.37975,0.07040
4210.45101,0.07133
4208.52226,0.07195
4206.59352,0.07238
4204.66477,0.07272
4202.73602,0.07307
4200.80728,0.07362
4198.87853,0.07435
4196.94979,0.07532
4195.02104,0.07653
4193.09230,0.07758
4191.16355,0.07824
4189.23481,0.07869
4187.30606,0.07902
4185.37732,0.07899
4183.44857,0.07840
4181.51983,0.07755
4179.59108,0.07684
4177.66234,0.07622
4175.73359,0.07557
4173.80484,0.07485
4171.87610,0.07408
4169.94735,0.07363
4168.01861,0.07374
4166.08986,0.07424
4164.16112,0.07483
4162.23237,0.07535
4160.30363,0.07574
4158.37488,0.07622
4156.44614,0.07686
4154.51739,0.07725
4152.58865,0.07738
4150.65990,0.07779
4148.73116,0.07860
4146.80241,0.07951
4144.87367,0.08024
4142.94492,0.08050
4141.01617,0.08033
4139.08743,0.08023
4137.15868,0.08042
4135.22994,0.08047
4133.30119,0.08026
4131.37245,0.07999
4129.44370,0.07949
4127.51496,0.07889
4125.58621,0.07859
4123.65747,0.07834
4121.72872,0.07782
4119.79998,0.07742
4117.87123,0.07746
4115.94249,0.07781
4114.01374,0.07824
4112.08500,0.07855
4110.15625,0.07903
4108.22750,0.07997
4106.29876,0.08098
4104.37001,0.08166
4102.44127,0.08222
4100.51252,0.08294
4098.58378,0.08355
4096.65503,0.08387
4094.72629,0.08394
4092.79754,0.08383
4090.86880,0.08377
4088.94005,0.08371
4087.01131,0.08324
4085.08256,0.08230
4083.15382,0.08109
4081.22507,0.07973
4079.29632,0.07838
4077.36758,0.07717
4075.43883,0.07611
4073.51009,0.07525
4071.58134,0.07452
4069.65260,0.07364
4067.72385,0.07232
4065.79511,0.07085
4063.86636,0.06978
4061.93762,0.06913
4060.00887,0.06874
4058.08013,0.06900
4056.15138,0.07013
4054.22264,0.07180
4052.29389,0.07382
4050.36515,0.07608
4048.43640,0.07829
4046.50765,0.08021
4044.57891,0.08162
4042.65016,0.08251
4040.72142,0.08328
4038.79267,0.08422
4036.86393,0.08521
4034.93518,0.08590
4033.00644,0.08621
4031.07769,0.08640
4029.14895,0.08669
4027.22020,0.08702
4025.29146,0.08719
4023.36271,0.08742
4021.43397,0.08791
4019.50522,0.08849
4017.57648,0.08896
4015.64773,0.08934
4013.71898,0.08995
4011.79024,0.09069
4009.86149,0.09104
4007.93275,0.09124
4006.00400,0.09168
4004.07526,0.09211
4002.14651,0.09222
4000.21777,0.09182
3998.28902,0.09111
3996.36028,0.09068
3994.43153,0.09065
3992.50279,0.09071
3990.57404,0.09078
3988.64530,0.09119
3986.71655,0.09205
3984.78780,0.09302
3982.85906,0.09370
3980.93031,0.09422
3979.00157,0.09478
3977.07282,0.09520
3975.14408,0.09537
3973.21533,0.09553
3971.28659,0.09581
3969.35784,0.09610
3967.42910,0.09633
3965.50035,0.09649
3963.57161,0.09656
3961.64286,0.09671
3959.71412,0.09720
3957.78537,0.09785
3955.85663,0.09820
3953.92788,0.09833
3951.99913,0.09870
3950.07039,0.09917
3948.14164,0.09920
3946.21290,0.09876
3944.28415,0.09829
3942.35541,0.09811
3940.42666,0.09814
3938.49792,0.09824
3936.56917,0.09823
3934.64043,0.09805
3932.71168,0.09781
3930.78294,0.09767
3928.85419,0.09769
3926.92545,0.09771
3924.99670,0.09757
3923.06795,0.09743
3921.13921,0.09761
3919.21046,0.09817
3917.28172,0.09876
3915.35297,0.09898
3913.42423,0.09876
3911.49548,0.09850
3909.56674,0.09851
3907.63799,0.09870
3905.70925,0.09905
3903.78050,0.09957
3901.85176,0.09992
3899.92301,0.09985
3897.99427,0.09965
3896.06552,0.09952
3894.13678,0.09957
3892.20803,0.09981
3890.27928,0.10013
3888.35054,0.10033
3886.42179,0.10035
3884.49305,0.10033
3882.56430,0.10019
3880.63556,0.09983
3878.70681,0.09970
3876.77807,0.10000
3874.84932,0.10030
3872.92058,0.10068
3870.99183,0.10123
3869.06309,0.10172
3867.13434,0.10210
3865.20560,0.10234
3863.27685,0.10216
3861.34811,0.10176
3859.41936,0.10181
3857.49061,0.10240
3855.56187,0.10289
3853.63312,0.10290
3851.70438,0.10272
3849.77563,0.10270
3847.84689,0.10290
3845.91814,0.10322
3843.98940,0.10339
3842.06065,0.10332
3840.13191,0.10319
3838.20316,0.10306
3836.27442,0.10277
3834.34567,0.10232
3832.41693,0.10208
3830.48818,0.10219
3828.55943,0.10246
3826.63069,0.10270
3824.70194,0.10279
3822.77320,0.10271
3820.84445,0.10245
3818.91571,0.10218
3816.98696,0.10192
3815.05822,0.10157
3813.12947,0.10151
3811.20073,0.10191
3809.27198,0.10242
3807.34324,0.10265
3805.41449,0.10256
3803.48575,0.10261
3801.55700,0.10303
3799.62826,0.10337
3797.69951,0.10348
3795.77076,0.10374
3793.84202,0.10402
3791.91327,0.10398
3789.98453,0.10393
3788.05578,0.10428
3786.12704,0.10479
3784.19829,0.10517
3782.26955,0.10541
3780.34080,0.10532
3778.41206,0.10472
3776.48331,0.10403
3774.55457,0.10371
3772.62582,0.10359
3770.69708,0.10326
3768.76833,0.10265
3766.83959,0.10202
3764.91084,0.10157
3762.98209,0.10149
3761.05335,0.10188
3759.12460,0.10236
3757.19586,0.10257
3755.26711,0.10270
3753.33837,0.10301
3751.40962,0.10348
3749.48088,0.10399
3747.55213,0.10438
3745.62339,0.10446
3743.69464,0.10442
3741.76590,0.10491
3739.83715,0.10580
3737.90841,0.10650
3735.97966,0.10680
3734.05091,0.10690
3732.12217,0.10696
3730.19342,0.10703
3728.26468,0.10715
3726.33593,0.10727
3724.40719,0.10725
3722.47844,0.10707
3720.54970,0.10695
3718.62095,0.10699
3716.69221,0.10717
3714.76346,0.10741
3712.83472,0.10748
3710.90597,0.10733
3708.97723,0.10723
3707.04848,0.10726
3705.11974,0.10733
3703.19099,0.10743
3701.26224,0.10756
3699.33350,0.10755
3697.40475,0.10726
3695.47601,0.10694
3693.54726,0.10698
3691.61852,0.10729
3689.68977,0.10738
3687.76103,0.10727
3685.83228,0.10751
3683.90354,0.10810
3681.97479,0.10857
3680.04605,0.10872
3678.11730,0.10887
3676.18856,0.10928
3674.25981,0.10981
3672.33107,0.11031
3670.40232,0.11084
3668.47357,0.11143
3666.54483,0.11192
3664.61608,0.11216
3662.68734,0.11237
3660.75859,0.11274
3658.82985,0.11285
3656.90110,0.11252
3654.97236,0.11239
3653.04361,0.11278
3651.11487,0.11326
3649.18612,0.11333
3647.25738,0.11285
3645.32863,0.11219
3643.39989,0.11176
3641.47114,0.11150
3639.54239,0.11127
3637.61365,0.11102
3635.68490,0.11070
3633.75616,0.11040
3631.82741,0.11025
3629.89867,0.11043
3627.96992,0.11118
3626.04118,0.11213
3624.11243,0.11281
3622.18369,0.11316
3620.25494,0.11325
3618.32620,0.11321
3616.39745,0.11333
3614.46871,0.11362
3612.53996,0.11384
3610.61122,0.11384
3608.68247,0.11371
3606.75372,0.11345
3604.82498,0.11316
3602.89623,0.11317
3600.96749,0.11349
3599.03874,0.11374
3597.11000,0.11384
3595.18125,0.11393
3593.25251,0.11385
3591.32376,0.11351
3589.39502,0.11323
3587.46627,0.11336
3585.53753,0.11365
3583.60878,0.11344
3581.68004,0.11286
3579.75129,0.11263
3577.82254,0.11278
3575.89380,0.11274
3573.96505,0.11236
3572.03631,0.11199
3570.10756,0.11190
3568.17882,0.11191
3566.25007,0.11180
3564.32133,0.11151
3562.39258,0.11111
3560.46384,0.11067
3558.53509,0.11047
3556.60635,0.11069
3554.67760,0.11093
3552.74886,0.11074
3550.82011,0.11023
3548.89137,0.10984
3546.96262,0.10973
3545.03387,0.10962
3543.10513,0.10929
3541.17638,0.10891
3539.24764,0.10873
3537.31889,0.10867
3535.39015,0.10864
3533.46140,0.10862
3531.53266,0.10841
3529.60391,0.10815
3527.67517,0.10814
3525.74642,0.10825
3523.81768,0.10814
3521.88893,0.10769
3519.96019,0.10725
3518.03144,0.10724
3516.10270,0.10737
3514.17395,0.10709
3512.24520,0.10658
3510.31646,0.10629
3508.38771,0.10621
3506.45897,0.10617
3504.53022,0.10602
3502.60148,0.10576
3500.67273,0.10572
3498.74399,0.10578
3496.81524,0.10562
3494.88650,0.10530
3492.95775,0.10494
3491.02901,0.10463
3489.10026,0.10461
3487.17152,0.10480
3485.24277,0.10478
3483.31402,0.10450
3481.38528,0.10423
3479.45653,0.10397
3477.52779,0.10362
3475.59904,0.10319
3473.67030,0.10274
3471.74155,0.10229
3469.81281,0.10189
3467.88406,0.10165
3465.95532,0.10156
3464.02657,0.10141
3462.09783,0.10096
3460.16908,0.10050
3458.24034,0.10025
3456.31159,0.10001
3454.38285,0.09961
3452.45410,0.09905
3450.52535,0.09857
3448.59661,0.09824
3446.66786,0.09784
3444.73912,0.09740
3442.81037,0.09702
3440.88163,0.09662
3438.95288,0.09618
3437.02414,0.09576
3435.09539,0.09539
3433.16665,0.09505
3431.23790,0.09457
3429.30916,0.09398
3427.38041,0.09355
3425.45167,0.09326
3423.52292,0.09299
3421.59418,0.09279
3419.66543,0.09243
3417.73668,0.09171
3415.80794,0.09100
3413.87919,0.09074
3411.95045,0.09098
3410.02170,0.09133
3408.09296,0.09147
3406.16421,0.09177
3404.23547,0.09235
3402.30672,0.09282
3400.37798,0.09324
3398.44923,0.09374
3396.52049,0.09405
3394.59174,0.09402
3392.66300,0.09369
3390.73425,0.09330
3388.80550,0.09315
3386.87676,0.09320
3384.94801,0.09302
3383.01927,0.09258
3381.09052,0.09215
3379.16178,0.09171
3377.23303,0.09123
3375.30429,0.09085
3373.37554,0.09052
3371.44680,0.09036
3369.51805,0.09061
3367.58931,0.09094
3365.66056,0.09067
3363.73182,0.08982
3361.80307,0.08911
3359.87433,0.08878
3357.94558,0.08867
3356.01683,0.08859
3354.08809,0.08840
3352.15934,0.08818
3350.23060,0.08799
3348.30185,0.08781
3346.37311,0.08789
3344.44436,0.08811
3342.51562,0.08825
3340.58687,0.08850
3338.65813,0.08887
3336.72938,0.08920
3334.80064,0.08956
3332.87189,0.09024
3330.94315,0.09125
3329.01440,0.09207
3327.08566,0.09240
3325.15691,0.09241
3323.22816,0.09260
3321.29942,0.09327
3319.37067,0.09379
3317.44193,0.09353
3315.51318,0.09294
3313.58444,0.09261
3311.65569,0.09256
3309.72695,0.09266
3307.79820,0.09281
3305.86946,0.09273
3303.94071,0.09207
3302.01197,0.09118
3300.08322,0.09058
3298.15448,0.09034
3296.22573,0.09040
3294.29698,0.09065
3292.36824,0.09075
3290.43949,0.09064
3288.51075,0.09051
3286.58200,0.09045
3284.65326,0.09042
3282.72451,0.09049
3280.79577,0.09083
3278.86702,0.09112
3276.93828,0.09105
3275.00953,0.09088
3273.08079,0.09054
3271.15204,0.09009
3269.22330,0.09018
3267.29455,0.09086
3265.36581,0.09140
3263.43706,0.09170
3261.50831,0.09192
3259.57957,0.09195
3257.65082,0.09192
3255.72208,0.09201
3253.79333,0.09209
3251.86459,0.09194
3249.93584,0.09157
3248.00710,0.09129
3246.07835,0.09103
3244.14961,0.09052
3242.22086,0.08992
3240.29212,0.08939
3238.36337,0.08887
3236.43463,0.08836
3234.50588,0.08795
3232.57713,0.08736
3230.64839,0.08607
3228.71964,0.08414
3226.79090,0.08210
3224.86215,0.08040
3222.93341,0.07897
3221.00466,0.07743
3219.07592,0.07610
3217.14717,0.07508
3215.21843,0.07369
3213.28968,0.07211
3211.36094,0.07092
3209.43219,0.06997
3207.50345,0.06909
3205.57470,0.06821
3203.64596,0.06730
3201.71721,0.06640
3199.78846,0.06549
3197.85972,0.06460
3195.93097,0.06398
3194.00223,0.06381
3192.07348,0.06396
3190.14474,0.06427
3188.21599,0.06462
3186.28725,0.06475
3184.35850,0.06465
3182.42976,0.06469
3180.50101,0.06508
3178.57227,0.06566
3176.64352,0.06631
3174.71478,0.06713
3172.78603,0.06785
3170.85729,0.06806
3168.92854,0.06804
3166.99979,0.06822
3165.07105,0.06848
3163.14230,0.06844
3161.21356,0.06799
3159.28481,0.06755
3157.35607,0.06732
3155.42732,0.06700
3153.49858,0.06654
3151.56983,0.06611
3149.64109,0.06576
3147.71234,0.06557
3145.78360,0.06540
3143.85485,0.06527
3141.92611,0.06533
3139.99736,0.06534
3138.06861,0.06519
3136.13987,0.06510
3134.21112,0.06528
3132.28238,0.06585
3130.35363,0.06653
3128.42489,0.06716
3126.49614,0.06802
3124.56740,0.06914
3122.63865,0.06979
3120.70991,0.06969
3118.78116,0.06965
3116.85242,0.07018
3114.92367,0.07084
3112.99493,0.07114
3111.06618,0.07113
3109.13744,0.07131
3107.20869,0.07179
3105.27994,0.07199
3103.35120,0.07174
3101.42245,0.07164
3099.49371,0.07188
3097.56496,0.07212
3095.63622,0.07227
3093.70747,0.07244
3091.77873,0.07248
3089.84998,0.07234
3087.92124,0.07221
3085.99249,0.07200
3084.06375,0.07161
3082.13500,0.07122
3080.20626,0.07100
3078.27751,0.07087
3076.34877,0.07080
3074.42002,0.07068
3072.49127,0.07026
3070.56253,0.06963
3068.63378,0.06896
3066.70504,0.06816
3064.77629,0.06731
3062.84755,0.06676
3060.91880,0.06633
3058.99006,0.06563
3057.06131,0.06480
3055.13257,0.06408
3053.20382,0.06361
3051.27508,0.06341
3049.34633,0.06319
3047.41759,0.06273
3045.48884,0.06216
3043.56009,0.06150
3041.63135,0.06080
3039.70260,0.06018
3037.77386,0.05956
3035.84511,0.05873
3033.91637,0.05769
3031.98762,0.05658
3030.05888,0.05537
3028.13013,0.05404
3026.20139,0.05259
3024.27264,0.05097
3022.34390,0.04925
3020.41515,0.04752
3018.48641,0.04576
3016.55766,0.04394
3014.62892,0.04210
3012.70017,0.04033
3010.77142,0.03865
3008.84268,0.03692
3006.91393,0.03507
3004.98519,0.03320
3003.05644,0.03142
3001.12770,0.02968
2999.19895,0.02790
2997.27021,0.02602
2995.34146,0.02415
2993.41272,0.02262
2991.48397,0.02154
2989.55523,0.02058
2987.62648,0.01947
2985.69774,0.01836
2983.76899,0.01764
2981.84025,0.01738
2979.91150,0.01713
2977.98275,0.01651
2976.05401,0.01571
2974.12526,0.01514
2972.19652,0.01494
2970.26777,0.01493
2968.33903,0.01500
2966.41028,0.01519
2964.48154,0.01557
2962.55279,0.01617
2960.62405,0.01680
2958.69530,0.01720
2956.76656,0.01731
2954.83781,0.01731
2952.90907,0.01734
2950.98032,0.01736
2949.05157,0.01738
2947.12283,0.01764
2945.19408,0.01799
2943.26534,0.01800
2941.33659,0.01764
2939.40785,0.01713
2937.47910,0.01669
2935.55036,0.01641
2933.62161,0.01624
2931.69287,0.01620
2929.76412,0.01634
2927.83538,0.01669
2925.90663,0.01718
2923.97789,0.01751
2922.04914,0.01768
2920.12040,0.01800
2918.19165,0.01852
2916.26290,0.01892
2914.33416,0.01888
2912.40541,0.01858
2910.47667,0.01859
2908.54792,0.01900
2906.61918,0.01925
2904.69043,0.01901
2902.76169,0.01867
2900.83294,0.01863
2898.90420,0.01873
2896.97545,0.01858
2895.04671,0.01837
2893.11796,0.01844
2891.18922,0.01855
2889.26047,0.01846
2887.33172,0.01847
2885.40298,0.01864
2883.47423,0.01862
2881.54549,0.01839
2879.61674,0.01833
2877.68800,0.01854
2875.75925,0.01869
2873.83051,0.01860
2871.90176,0.01844
2869.97302,0.01834
2868.04427,0.01833
2866.11553,0.01840
2864.18678,0.01857
2862.25804,0.01883
2860.32929,0.01908
2858.40055,0.01927
2856.47180,0.01930
2854.54305,0.01909
2852.61431,0.01883
2850.68556,0.01865
2848.75682,0.01852
2846.82807,0.01843
2844.89933,0.01841
2842.97058,0.01840
2841.04184,0.01843
2839.11309,0.01864
2837.18435,0.01895
2835.25560,0.01917
2833.32686,0.01926
2831.39811,0.01927
2829.46937,0.01938
2827.54062,0.01965
2825.61188,0.02003
2823.68313,0.02059
2821.75438,0.02129
2819.82564,0.02196
2817.89689,0.02252
2815.96815,0.02299
2814.03940,0.02336
2812.11066,0.02371
2810.18191,0.02415
2808.25317,0.02474
2806.32442,0.02548
2804.39568,0.02653
2802.46693,0.02785
2800.53819,0.02908
2798.60944,0.02999
2796.68070,0.03062
2794.75195,0.03122
2792.82320,0.03213
2790.89446,0.03346
2788.96571,0.03520
2787.03697,0.03732
2785.10822,0.03963
2783.17948,0.04192
2781.25073,0.04413
2779.32199,0.04624
2777.39324,0.04815
2775.46450,0.04963
2773.53575,0.05064
2771.60701,0.05142
2769.67826,0.05194
2767.74952,0.05219
2765.82077,0.05252
2763.89203,0.05319
2761.96328,0.05404
2760.03453,0.05481
2758.10579,0.05552
2756.17704,0.05621
2754.24830,0.05663
2752.31955,0.05658
2750.39081,0.05626
2748.46206,0.05584
2746.53332,0.05525
2744.60457,0.05436
2742.67583,0.05315
2740.74708,0.05163
2738.81834,0.04984
2736.88959,0.04803
2734.96085,0.04646
2733.03210,0.04512
2731.10336,0.04378
2729.17461,0.04217
2727.24586,0.04027
2725.31712,0.03831
2723.38837,0.03702
2721.45963,0.03725
2719.53088,0.03889
2717.60214,0.04109
2715.67339,0.04340
2713.74465,0.04573
2711.81590,0.04780
2709.88716,0.04950
2707.95841,0.05102
2706.02967,0.05249
2704.10092,0.05391
2702.17218,0.05524
2700.24343,0.05637
2698.31468,0.05721
2696.38594,0.05780
2694.45719,0.05809
2692.52845,0.05798
2690.59970,0.05770
2688.67096,0.05763
2686.74221,0.05768
2684.81347,0.05759
2682.88472,0.05744
2680.95598,0.05742
2679.02723,0.05735
2677.09849,0.05723
2675.16974,0.05743
2673.24100,0.05804
2671.31225,0.05874
2669.38351,0.05934
2667.45476,0.05963
2665.52601,0.05947
2663.59727,0.05910
2661.66852,0.05893
2659.73978,0.05906
2657.81103,0.05961
2655.88229,0.06055
2653.95354,0.06163
2652.02480,0.06270
2650.09605,0.06364
2648.16731,0.06432
2646.23856,0.06485
2644.30982,0.06548
2642.38107,0.06623
2640.45233,0.06705
2638.52358,0.06796
2636.59484,0.06869
2634.66609,0.06887
2632.73734,0.06851
2630.80860,0.06785
2628.87985,0.06698
2626.95111,0.06591
2625.02236,0.06475
2623.09362,0.06381
2621.16487,0.06332
2619.23613,0.06310
2617.30738,0.06293
2615.37864,0.06296
2613.44989,0.06339
2611.52115,0.06431
2609.59240,0.06585
2607.66366,0.06781
2605.73491,0.06970
2603.80616,0.07127
2601.87742,0.07247
2599.94867,0.07332
2598.01993,0.07372
2596.09118,0.07354
2594.16244,0.07267
2592.23369,0.07127
2590.30495,0.06966
2588.37620,0.06801
2586.44746,0.06627
2584.51871,0.06450
2582.58997,0.06321
2580.66122,0.06308
2578.73248,0.06416
2576.80373,0.06587
2574.87499,0.06790
2572.94624,0.07010
2571.01749,0.07216
2569.08875,0.07390
2567.16000,0.07543
2565.23126,0.07673
2563.30251,0.07771
2561.37377,0.07834
2559.44502,0.07861
2557.51628,0.07874
2555.58753,0.07915
2553.65879,0.07983
2551.73004,0.08069
2549.80130,0.08180
2547.87255,0.08316
2545.94381,0.08444
2544.01506,0.08527
2542.08631,0.08575
2540.15757,0.08617
2538.22882,0.08652
2536.30008,0.08690
2534.37133,0.08749
2532.44259,0.08825
2530.51384,0.08916
2528.58510,0.09024
2526.65635,0.09138
2524.72761,0.09252
2522.79886,0.09360
2520.87012,0.09463
2518.94137,0.09561
2517.01263,0.09657
2515.08388,0.09745
2513.15514,0.09817
2511.22639,0.09870
2509.29764,0.09910
2507.36890,0.09950
2505.44015,0.09989
2503.51141,0.10025
2501.58266,0.10052
2499.65392,0.10045
2497.72517,0.10001
2495.79643,0.09954
2493.86768,0.09930
2491.93894,0.09929
2490.01019,0.09951
2488.08145,0.10006
2486.15270,0.10081
2484.22396,0.10147
2482.29521,0.10199
2480.36647,0.10249
2478.43772,0.10306
2476.50897,0.10365
2474.58023,0.10423
2472.65148,0.10479
2470.72274,0.10525
2468.79399,0.10553
2466.86525,0.10557
2464.93650,0.10543
2463.00776,0.10521
2461.07901,0.10487
2459.15027,0.10446
2457.22152,0.10420
2455.29278,0.10409
2453.36403,0.10401
2451.43529,0.10378
2449.50654,0.10326
2447.57779,0.10264
2445.64905,0.10212
2443.72030,0.10165
2441.79156,0.10107
2439.86281,0.10021
2437.93407,0.09890
2436.00532,0.09736
2434.07658,0.09592
2432.14783,0.09481
2430.21909,0.09432
2428.29034,0.09459
2426.36160,0.09526
2424.43285,0.09597
2422.50411,0.09676
2420.57536,0.09770
2418.64662,0.09873
2416.71787,0.09963
2414.78912,0.10013
2412.86038,0.10021
2410.93163,0.10007
2409.00289,0.09991
2407.07414,0.09972
2405.14540,0.09932
2403.21665,0.09872
2401.28791,0.09821
2399.35916,0.09802
2397.43042,0.09813
2395.50167,0.09843
2393.57293,0.09908
2391.64418,0.10002
2389.71544,0.10093
2387.78669,0.10157
2385.85795,0.10189
2383.92920,0.10205
2382.00045,0.10217
2380.07171,0.10209
2378.14296,0.10180
2376.21422,0.10157
2374.28547,0.10147
2372.35673,0.10145
2370.42798,0.10141
2368.49924,0.10121
2366.57049,0.10074
2364.64175,0.10012
2362.71300,0.09970
2360.78426,0.09973
2358.85551,0.10012
2356.92677,0.10063
2354.99802,0.10120
2353.06927,0.10184
2351.14053,0.10264
2349.21178,0.10370
2347.28304,0.10472
2345.35429,0.10545
2343.42555,0.10599
2341.49680,0.10643
2339.56806,0.10672
2337.63931,0.10696
2335.71057,0.10738
2333.78182,0.10798
2331.85308,0.10864
2329.92433,0.10933
2327.99559,0.11001
2326.06684,0.11059
2324.13810,0.11125
2322.20935,0.11221
2320.28060,0.11330
2318.35186,0.11426
2316.42311,0.11496
2314.49437,0.11549
2312.56562,0.11591
2310.63688,0.11606
2308.70813,0.11602
2306.77939,0.11604
2304.85064,0.11608
2302.92190,0.11598
2300.99315,0.11576
2299.06441,0.11556
2297.13566,0.11556
2295.20692,0.11589
2293.27817,0.11629
2291.34943,0.11644
2289.42068,0.11647
2287.49193,0.11681
2285.56319,0.11734
2283.63444,0.11753
2281.70570,0.11717
2279.77695,0.11649
2277.84821,0.11582
2275.91946,0.11525
2273.99072,0.11460
2272.06197,0.11376
2270.13323,0.11286
2268.20448,0.11219
2266.27574,0.11193
2264.34699,0.11178
2262.41825,0.11135
2260.48950,0.11072
2258.56075,0.11009
2256.63201,0.10957
2254.70326,0.10940
2252.77452,0.10991
2250.84577,0.11111
2248.91703,0.11262
2246.98828,0.11409
2245.05954,0.11526
2243.13079,0.11588
2241.20205,0.11601
2239.27330,0.11603
2237.34456,0.11610
2235.41581,0.11605
2233.48707,0.11575
2231.55832,0.11541
2229.62958,0.11531
2227.70083,0.11558
2225.77208,0.11615
2223.84334,0.11674
2221.91459,0.11719
2219.98585,0.11762
2218.05710,0.11800
2216.12836,0.11804
2214.19961,0.11770
2212.27087,0.11730
2210.34212,0.11707
2208.41338,0.11691
2206.48463,0.11663
2204.55589,0.11625
2202.62714,0.11594
2200.69840,0.11565
2198.76965,0.11532
2196.84090,0.11506
2194.91216,0.11494
2192.98341,0.11492
2191.05467,0.11494
2189.12592,0.11483
2187.19718,0.11445
2185.26843,0.11407
2183.33969,0.11400
2181.41094,0.11405
2179.48220,0.11388
2177.55345,0.11351
2175.62471,0.11308
2173.69596,0.11276
2171.76722,0.11273
2169.83847,0.11301
2167.90973,0.11356
2165.98098,0.11432
2164.05223,0.11528
2162.12349,0.11631
2160.19474,0.11714
2158.26600,0.11768
2156.33725,0.11818
2154.40851,0.11888
2152.47976,0.11972
2150.55102,0.12054
2148.62227,0.12134
2146.69353,0.12194
2144.76478,0.12209
2142.83604,0.12163
2140.90729,0.12074
2138.97855,0.11967
2137.04980,0.11838
2135.12106,0.11695
2133.19231,0.11589
2131.26356,0.11562
2129.33482,0.11619
2127.40607,0.11754
2125.47733,0.11963
2123.54858,0.12207
2121.61984,0.12435
2119.69109,0.12624
2117.76235,0.12768
2115.83360,0.12871
2113.90486,0.12946
2111.97611,0.13003
2110.04737,0.13058
2108.11862,0.13103
2106.18988,0.13115
2104.26113,0.13114
2102.33238,0.13126
2100.40364,0.13135
2098.47489,0.13133
2096.54615,0.13139
2094.61740,0.13146
2092.68866,0.13139
2090.75991,0.13132
2088.83117,0.13144
2086.90242,0.13193
2084.97368,0.13285
2083.04493,0.13391
2081.11619,0.13489
2079.18744,0.13587
2077.25870,0.13697
2075.32995,0.13793
2073.40121,0.13851
2071.47246,0.13892
2069.54371,0.13941
2067.61497,0.13990
2065.68622,0.14024
2063.75748,0.14036
2061.82873,0.14029
2059.89999,0.14014
2057.97124,0.13995
2056.04250,0.13968
2054.11375,0.13941
2052.18501,0.13929
2050.25626,0.13925
2048.32752,0.13924
2046.39877,0.13934
2044.47003,0.13952
2042.54128,0.13964
2040.61254,0.13960
2038.68379,0.13949
2036.75504,0.13933
2034.82630,0.13910
2032.89755,0.13883
2030.96881,0.13860
2029.04006,0.13858
2027.11132,0.13886
2025.18257,0.13928
2023.25383,0.13958
2021.32508,0.13976
2019.39634,0.13998
2017.46759,0.14025
2015.53885,0.14047
2013.61010,0.14055
2011.68136,0.14055
2009.75261,0.14061
2007.82386,0.14066
2005.89512,0.14063
2003.96637,0.14047
2002.03763,0.14022
2000.10888,0.13992
1998.18014,0.13959
1996.25139,0.13930
1994.32265,0.13910
1992.39390,0.13902
1990.46516,0.13908
1988.53641,0.13927
1986.60767,0.13946
1984.67892,0.13965
1982.75018,0.13995
1980.82143,0.14022
1978.89269,0.14034
1976.96394,0.14037
1975.03519,0.14028
1973.10645,0.14013
1971.17770,0.14003
1969.24896,0.13987
1967.32021,0.13957
1965.39147,0.13912
1963.46272,0.13861
1961.53398,0.13824
1959.60523,0.13804
1957.67649,0.13794
1955.74774,0.13790
1953.81900,0.13789
1951.89025,0.13797
1949.96151,0.13811
1948.03276,0.13808
1946.10402,0.13796
1944.17527,0.13792
1942.24652,0.13788
1940.31778,0.13782
1938.38903,0.13789
1936.46029,0.13807
1934.53154,0.13821
1932.60280,0.13815
1930.67405,0.13793
1928.74531,0.13771
1926.81656,0.13754
1924.88782,0.13726
1922.95907,0.13684
1921.03033,0.13636
1919.10158,0.13592
1917.17284,0.13556
1915.24409,0.13534
1913.31534,0.13521
1911.38660,0.13509
1909.45785,0.13506
1907.52911,0.13508
1905.60036,0.13488
1903.67162,0.13444
1901.74287,0.13384
1899.81413,0.13308
1897.88538,0.13225
1895.95664,0.13144
1894.02789,0.13086
1892.09915,0.13075
1890.17040,0.13131
1888.24166,0.13234
1886.31291,0.13340
1884.38417,0.13424
1882.45542,0.13487
1880.52667,0.13532
1878.59793,0.13565
1876.66918,0.13585
1874.74044,0.13597
1872.81169,0.13607
1870.88295,0.13615
1868.95420,0.13607
1867.02546,0.13589
1865.09671,0.13579
1863.16797,0.13567
1861.23922,0.13534
1859.31048,0.13477
1857.38173,0.13416
1855.45299,0.13377
1853.52424,0.13360
1851.59549,0.13349
1849.66675,0.13339
1847.73800,0.13317
1845.80926,0.13274
1843.88051,0.13228
1841.95177,0.13189
1840.02302,0.13145
1838.09428,0.13085
1836.16553,0.13020
1834.23679,0.12962
1832.30804,0.12928
1830.37930,0.12933
1828.45055,0.12972
1826.52181,0.13028
1824.59306,0.13097
1822.66432,0.13173
1820.73557,0.13236
1818.80682,0.13273
1816.87808,0.13298
1814.94933,0.13329
1813.02059,0.13357
1811.09184,0.13370
1809.16310,0.13364
1807.23435,0.13345
1805.30561,0.13315
1803.37686,0.13271
1801.44812,0.13211
1799.51937,0.13143
1797.59063,0.13081
1795.66188,0.13038
1793.73314,0.13013
1791.80439,0.12996
1789.87565,0.12976
1787.94690,0.12941
1786.01815,0.12902
1784.08941,0.12868
1782.16066,0.12836
1780.23192,0.12800
1778.30317,0.12763
1776.37443,0.12717
1774.44568,0.12655
1772.51694,0.12578
1770.58819,0.12477
1768.65945,0.12362
1766.73070,0.12258
1764.80196,0.12158
1762.87321,0.12036
1760.94447,0.11896
1759.01572,0.11767
1757.08697,0.11630
1755.15823,0.11458
1753.22948,0.11240
1751.30074,0.10959
1749.37199,0.10645
1747.44325,0.10349
1745.51450,0.10094
1743.58576,0.09908
1741.65701,0.09801
1739.72827,0.09758
1737.79952,0.09788
1735.87078,0.09880
1733.94203,0.09996
1732.01329,0.10098
1730.08454,0.10190
1728.15580,0.10275
1726.22705,0.10349
1724.29830,0.10425
1722.36956,0.10507
1720.44081,0.10571
1718.51207,0.10586
1716.58332,0.10554
1714.65458,0.10515
1712.72583,0.10489
1710.79709,0.10469
1708.86834,0.10434
1706.93960,0.10374
1705.01085,0.10312
1703.08211,0.10268
1701.15336,0.10235
1699.22462,0.10204
1697.29587,0.10178
1695.36713,0.10143
1693.43838,0.10096
1691.50963,0.10053
1689.58089,0.10035
1687.65214,0.10042
1685.72340,0.10057
1683.79465,0.10075
1681.86591,0.10087
1679.93716,0.10099
1678.00842,0.10123
1676.07967,0.10144
1674.15093,0.10148
1672.22218,0.10153
1670.29344,0.10162
1668.36469,0.10158
1666.43595,0.10144
1664.50720,0.10123
1662.57845,0.10089
1660.64971,0.10046
1658.72096,0.09996
1656.79222,0.09938
1654.86347,0.09836
1652.93473,0.09624
1651.00598,0.09373
1649.07724,0.09175
1647.14849,0.09033
1645.21975,0.08988
1643.29100,0.09044
1641.36226,0.09153
1639.43351,0.09273
1637.50477,0.09360
1635.57602,0.09407
1633.64728,0.09448
1631.71853,0.09488
1629.78978,0.09515
1627.86104,0.09541
1625.93229,0.09568
1624.00355,0.09582
1622.07480,0.09594
1620.14606,0.09630
1618.21731,0.09684
1616.28857,0.09708
1614.35982,0.09672
1612.43108,0.09603
1610.50233,0.09545
1608.57359,0.09542
1606.64484,0.09605
1604.71610,0.09713
1602.78735,0.09841
1600.85861,0.09971
1598.92986,0.10074
1597.00111,0.10145
1595.07237,0.10208
1593.14362,0.10258
1591.21488,0.10285
1589.28613,0.10307
1587.35739,0.10336
1585.42864,0.10361
1583.49990,0.10373
1581.57115,0.10376
1579.64241,0.10372
1577.71366,0.10357
1575.78492,0.10328
1573.85617,0.10291
1571.92743,0.10260
1569.99868,0.10235
1568.06993,0.10193
1566.14119,0.10118
1564.21244,0.10019
1562.28370,0.09930
1560.35495,0.09861
1558.42621,0.09765
1556.49746,0.09649
1554.56872,0.09569
1552.63997,0.09519
1550.71123,0.09470
1548.78248,0.09415
1546.85374,0.09363
1544.92499,0.09308
1542.99625,0.09229
1541.06750,0.09114
1539.13876,0.08983
1537.21001,0.08900
1535.28126,0.08868
1533.35252,0.08853
1531.42377,0.08841
1529.49503,0.08835
1527.56628,0.08838
1525.63754,0.08852
1523.70879,0.08853
1521.78005,0.08828
1519.85130,0.08798
1517.92256,0.08763
1515.99381,0.08696
1514.06507,0.08584
1512.13632,0.08433
1510.20758,0.08264
1508.27883,0.08077
1506.35008,0.07848
1504.42134,0.07624
1502.49259,0.07431
1500.56385,0.07216
1498.63510,0.06962
1496.70636,0.06675
1494.77761,0.06379
1492.84887,0.06096
1490.92012,0.05788
1488.99138,0.05427
1487.06263,0.05041
1485.13389,0.04640
1483.20514,0.04222
1481.27640,0.03790
1479.34765,0.03354
1477.41891,0.02932
1475.49016,0.02545
1473.56141,0.02209
1471.63267,0.01948
1469.70392,0.01791
1467.77518,0.01720
1465.84643,0.01698
1463.91769,0.01700
1461.98894,0.01713
1460.06020,0.01734
1458.13145,0.01749
1456.20271,0.01747
1454.27396,0.01743
1452.34522,0.01751
1450.41647,0.01770
1448.48773,0.01805
1446.55898,0.01852
1444.63024,0.01912
1442.70149,0.01990
1440.77274,0.02066
1438.84400,0.02114
1436.91525,0.02172
1434.98651,0.02352
1433.05776,0.02729
1431.12902,0.03255
1429.20027,0.03796
1427.27153,0.04241
1425.34278,0.04576
1423.41404,0.04813
1421.48529,0.04988
1419.55655,0.05149
1417.62780,0.05291
1415.69906,0.05395
1413.77031,0.05476
1411.84156,0.05533
1409.91282,0.05555
1407.98407,0.05549
1406.05533,0.05517
1404.12658,0.05451
1402.19784,0.05353
1400.26909,0.05214
1398.34035,0.05035
1396.41160,0.04834
1394.48286,0.04580
1392.55411,0.04231
1390.62537,0.03795
1388.69662,0.03273
1386.76788,0.02698
1384.83913,0.02205
1382.91039,0.01888
1380.98164,0.01739
1379.05289,0.01712
1377.12415,0.01753
1375.19540,0.01824
1373.26666,0.01914
1371.33791,0.02042
1369.40917,0.02226
1367.48042,0.02424
1365.55168,0.02544
1363.62293,0.02541
1361.69419,0.02464
1359.76544,0.02415
1357.83670,0.02472
1355.90795,0.02680
1353.97921,0.03036
1352.05046,0.03487
1350.12172,0.03978
1348.19297,0.04463
1346.26422,0.04909
1344.33548,0.05307
1342.40673,0.05639
1340.47799,0.05867
1338.54924,0.05962
1336.62050,0.05931
1334.69175,0.05778
1332.76301,0.05520
1330.83426,0.05264
1328.90552,0.05175
1326.97677,0.05315
1325.04803,0.05650
1323.11928,0.06089
1321.19054,0.06498
1319.26179,0.06791
1317.33304,0.06991
1315.40430,0.07116
1313.47555,0.07093
1311.54681,0.06821
1309.61806,0.06228
1307.68932,0.05362
1305.76057,0.04557
1303.83183,0.04241
1301.90308,0.04445
1299.97434,0.04793
1298.04559,0.05030
1296.11685,0.05241
1294.18810,0.05570
1292.25936,0.05999
1290.33061,0.06421
1288.40187,0.06785
1286.47312,0.07092
1284.54437,0.07351
1282.61563,0.07558
1280.68688,0.07722
1278.75814,0.07858
1276.82939,0.07951
1274.90065,0.07979
1272.97190,0.07952
1271.04316,0.07890
1269.11441,0.07779
1267.18567,0.07578
1265.25692,0.07273
1263.32818,0.06862
1261.39943,0.06312
1259.47069,0.05622
1257.54194,0.04959
1255.61320,0.04662
1253.68445,0.04960
1251.75570,0.05688
1249.82696,0.06462
1247.89821,0.07065
1245.96947,0.07496
1244.04072,0.07808
1242.11198,0.08036
1240.18323,0.08193
1238.25449,0.08291
1236.32574,0.08348
1234.39700,0.08376
1232.46825,0.08373
1230.53951,0.08347
1228.61076,0.08285
1226.68202,0.08134
1224.75327,0.07858
1222.82452,0.07505
1220.89578,0.07216
1218.96703,0.07123
1217.03829,0.07259
1215.10954,0.07539
1213.18080,0.07837
1211.25205,0.08081
1209.32331,0.08250
1207.39456,0.08342
1205.46582,0.08377
1203.53707,0.08388
1201.60833,0.08397
1199.67958,0.08403
1197.75084,0.08388
1195.82209,0.08357
1193.89335,0.08326
1191.96460,0.08301
1190.03585,0.08252
1188.10711,0.08123
1186.17836,0.07892
1184.24962,0.07582
1182.32087,0.07194
1180.39213,0.06679
1178.46338,0.05995
1176.53464,0.05180
1174.60589,0.04367
1172.67715,0.03692
1170.74840,0.03194
1168.81966,0.02869
1166.89091,0.02726
1164.96217,0.02757
1163.03342,0.02897
1161.10467,0.03060
1159.17593,0.03207
1157.24718,0.03337
1155.31844,0.03434
1153.38969,0.03520
1151.46095,0.03699
1149.53220,0.04038
1147.60346,0.04508
1145.67471,0.05043
1143.74597,0.05584
1141.81722,0.06110
1139.88848,0.06621
1137.95973,0.07087
1136.03099,0.07469
1134.10224,0.07761
1132.17350,0.07984
1130.24475,0.08162
1128.31600,0.08293
1126.38726,0.08360
1124.45851,0.08360
1122.52977,0.08310
1120.60102,0.08256
1118.67228,0.08224
1116.74353,0.08174
1114.81479,0.08055
1112.88604,0.07881
1110.95730,0.07646
1109.02855,0.07292
1107.09981,0.06811
1105.17106,0.06326
1103.24232,0.06042
1101.31357,0.06124
1099.38483,0.06552
1097.45608,0.07136
1095.52733,0.07691
1093.59859,0.08140
1091.66984,0.08473
1089.74110,0.08732
1087.81235,0.08962
1085.88361,0.09164
1083.95486,0.09334
1082.02612,0.09501
1080.09737,0.09671
1078.16863,0.09792
1076.23988,0.09848
1074.31114,0.09875
1072.38239,0.09891
1070.45365,0.09895
1068.52490,0.09900
1066.59615,0.09929
1064.66741,0.09958
1062.73866,0.09928
1060.80992,0.09838
1058.88117,0.09732
1056.95243,0.09607
1055.02368,0.09425
1053.09494,0.09156
1051.16619,0.08787
1049.23745,0.08306
1047.30870,0.07750
1045.37996,0.07300
1043.45121,0.07226
1041.52247,0.07583
1039.59372,0.08091
1037.66498,0.08480
1035.73623,0.08748
1033.80748,0.08980
1031.87874,0.09189
1029.94999,0.09350
1028.02125,0.09412
1026.09250,0.09370
1024.16376,0.09270
1022.23501,0.09129
1020.30627,0.08947
1018.37752,0.08727
1016.44878,0.08447
1014.52003,0.08105
1012.59129,0.07721
1010.66254,0.07248
1008.73380,0.06611
1006.80505,0.05829
1004.87631,0.05000
1002.94756,0.04246
1001.01881,0.03685
999.09007,0.03369
997.16132,0.03327
995.23258,0.03605
993.30383,0.04170
991.37509,0.04878
989.44634,0.05561
987.51760,0.06051
985.58885,0.06191
983.66011,0.05922
981.73136,0.05285
979.80262,0.04398
977.87387,0.03506
975.94513,0.02888
974.01638,0.02645
972.08763,0.02762
970.15889,0.03266
968.23014,0.04126
966.30140,0.05183
964.37265,0.06265
962.44391,0.07260
960.51516,0.08123
958.58642,0.08843
956.65767,0.09424
954.72893,0.09885
952.80018,0.10214
950.87144,0.10407
948.94269,0.10497
947.01395,0.10458
945.08520,0.10212
943.15646,0.09767
941.22771,0.09362
939.29896,0.09414
937.37022,0.10083
935.44147,0.11039
933.51273,0.11836
931.58398,0.12315
929.65524,0.12552
927.72649,0.12660
925.79775,0.12713
923.86900,0.12737
921.94026,0.12726
920.01151,0.12675
918.08277,0.12578
916.15402,0.12442
914.22528,0.12249
912.29653,0.11971
910.36779,0.11606
908.43904,0.11081
906.51029,0.10248
904.58155,0.09020
902.65280,0.07578
900.72406,0.06455
898.79531,0.06181
896.86657,0.06862
894.93782,0.08126
893.00908,0.09406
891.08033,0.10344
889.15159,0.10902
887.22284,0.11201
885.29410,0.11392
883.36535,0.11545
881.43661,0.11623
879.50786,0.11578
877.57911,0.11440
875.65037,0.11312
873.72162,0.11254
871.79288,0.11237
869.86413,0.11206
867.93539,0.11112
866.00664,0.10934
864.07790,0.10717
862.14915,0.10490
860.22041,0.10214
858.29166,0.09862
856.36292,0.09476
854.43417,0.09065
852.50543,0.08555
850.57668,0.07900
848.64794,0.07089
846.71919,0.06116
844.79044,0.05070
842.86170,0.04217
840.93295,0.03908
839.00421,0.04334
837.07546,0.05289
835.14672,0.06373
833.21797,0.07329
831.28923,0.08084
829.36048,0.08676
827.43174,0.09172
825.50299,0.09585
823.57425,0.09861
821.64550,0.09941
819.71676,0.09826
817.78801,0.09513
815.85926,0.08896
813.93052,0.07912
812.00177,0.06794
810.07303,0.06028
808.14428,0.05979
806.21554,0.06647
804.28679,0.07720
802.35805,0.08791
800.42930,0.09615
798.50056,0.10220
796.57181,0.10742
794.64307,0.11237
792.71432,0.11716
790.78558,0.12204
788.85683,0.12686
786.92809,0.13152
784.99934,0.13632
783.07059,0.14106
781.14185,0.14466
779.21310,0.14655
777.28436,0.14754
775.35561,0.14850
773.42687,0.14918
771.49812,0.14913
769.56938,0.14890
767.64063,0.14923
765.71189,0.14970
763.78314,0.15006
761.85440,0.15050
759.92565,0.15078
757.99691,0.15071
756.06816,0.15064
754.13942,0.15100
752.21067,0.15144
750.28192,0.15149
748.35318,0.15155
746.42443,0.15181
744.49569,0.15179
742.56694,0.15129
740.63820,0.15064
738.70945,0.14995
736.78071,0.14909
734.85196,0.14805
732.92322,0.14645
730.99447,0.14412
729.06573,0.14158
727.13698,0.13925
725.20824,0.13680
723.27949,0.13415
721.35074,0.13300
719.42200,0.13525
717.49325,0.13958
715.56451,0.14302
713.63576,0.14504
711.70702,0.14691
709.77827,0.14856
707.84953,0.14902
705.92078,0.14876
703.99204,0.14860
702.06329,0.14854
700.13455,0.14863
698.20580,0.14885
696.27706,0.14896
694.34831,0.14920
692.41957,0.14984
690.49082,0.15076
688.56207,0.15162
686.63333,0.15226
684.70458,0.15280
682.77584,0.15300
680.84709,0.15255
678.91835,0.15172
676.98960,0.15114
675.06086,0.15116
673.13211,0.15146
671.20337,0.15160
669.27462,0.15193
667.34588,0.15275
665.41713,0.15336
663.48839,0.15320
661.55964,0.15248
659.63090,0.15162
657.70215,0.15124
655.77340,0.15194
653.84466,0.15318
651.91591,0.15369
649.98717,0.15336
648.05842,0.15322
646.12968,0.15380
644.20093,0.15441
642.27219,0.15442
640.34344,0.15405
638.41470,0.15401
636.48595,0.15494
634.55721,0.15634
632.62846,0.15690
630.69972,0.15621
628.77097,0.15506
626.84222,0.15414
624.91348,0.15353
622.98473,0.15311
621.05599,0.15281
619.12724,0.15291
617.19850,0.15344
615.26975,0.15359
613.34101,0.15344
611.41226,0.15319
609.48352,0.15271
607.55477,0.15295
605.62603,0.15375
603.69728,0.15406
601.76854,0.15411
599.83979,0.15401
