7497.03301,0.11084
7495.10426,0.10786
7493.17552,0.11106
7491.24677,0.11846
7489.31803,0.12143
7487.38928,0.11816
7485.46054,0.11582
7483.53179,0.11900
7481.60305,0.12322
7479.67430,0.12377
7477.74556,0.12280
7475.81681,0.12263
7473.88807,0.12339
7471.95932,0.12410
7470.03057,0.12087
7468.10183,0.11530
7466.17308,0.11408
7464.24434,0.11640
7462.31559,0.11936
7460.38685,0.12201
7458.45810,0.12118
7456.52936,0.11947
7454.60061,0.12089
7452.67187,0.12103
7450.74312,0.11661
7448.81438,0.11344
7446.88563,0.11602
7444.95689,0.11948
7443.02814,0.12103
7441.09940,0.12464
7439.17065,0.12870
7437.24190,0.12770
7435.31316,0.12164
7433.38441,0.11459
7431.45567,0.11180
7429.52692,0.11480
7427.59818,0.11801
7425.66943,0.11792
7423.74069,0.11738
7421.81194,0.11788
7419.88320,0.11652
7417.95445,0.11469
7416.02571,0.11858
7414.09696,0.12506
7412.16822,0.12623
7410.23947,0.12244
7408.31073,0.11719
7406.38198,0.11525
7404.45323,0.11827
7402.52449,0.12055
7400.59574,0.11773
7398.66700,0.11401
7396.73825,0.11518
7394.80951,0.11846
7392.88076,0.11910
7390.95202,0.11787
7389.02327,0.11651
7387.09453,0.11676
7385.16578,0.11796
7383.23704,0.11726
7381.30829,0.11460
7379.37955,0.11302
7377.45080,0.11533
7375.52205,0.11891
7373.59331,0.11816
7371.66456,0.11511
7369.73582,0.11571
7367.80707,0.11737
7365.87833,0.11673
7363.94958,0.11735
7362.02084,0.11842
7360.09209,0.11687
7358.16335,0.11456
7356.23460,0.11405
7354.30586,0.11628
7352.37711,0.11895
7350.44837,0.11978
7348.51962,0.11925
7346.59088,0.11759
7344.66213,0.11631
7342.73338,0.11707
7340.80464,0.11919
7338.87589,0.11996
7336.94715,0.11788
7335.01840,0.11558
7333.08966,0.11561
7331.16091,0.11626
7329.23217,0.11623
7327.30342,0.11721
7325.37468,0.11877
7323.44593,0.11733
7321.51719,0.11348
7319.58844,0.11185
7317.65970,0.11304
7315.73095,0.11369
7313.80221,0.11366
7311.87346,0.11532
7309.94471,0.11869
7308.01597,0.12129
7306.08722,0.12140
7304.15848,0.11830
7302.22973,0.11387
7300.30099,0.11389
7298.37224,0.11792
7296.44350,0.11855
7294.51475,0.11732
7292.58601,0.11816
7290.65726,0.11761
7288.72852,0.11541
7286.79977,0.11546
7284.87103,0.11763
7282.94228,0.11991
7281.01353,0.12049
7279.08479,0.11940
7277.15604,0.11894
7275.22730,0.11754
7273.29855,0.11338
7271.36981,0.11202
7269.44106,0.11673
7267.51232,0.12224
7265.58357,0.12355
7263.65483,0.11977
7261.72608,0.11451
7259.79734,0.11439
7257.86859,0.11918
7255.93985,0.12130
7254.01110,0.11843
7252.08236,0.11567
7250.15361,0.11611
7248.22486,0.11761
7246.29612,0.11798
7244.36737,0.11810
7242.43863,0.11860
7240.50988,0.11902
7238.58114,0.11915
7236.65239,0.11866
7234.72365,0.11732
7232.79490,0.11569
7230.86616,0.11460
7228.93741,0.11416
7227.00867,0.11245
7225.07992,0.10981
7223.15118,0.10955
7221.22243,0.11149
7219.29369,0.11265
7217.36494,0.11248
7215.43619,0.11329
7213.50745,0.11643
7211.57870,0.11910
7209.64996,0.11824
7207.72121,0.11572
7205.79247,0.11499
7203.86372,0.11516
7201.93498,0.11450
7200.00623,0.11517
7198.07749,0.11786
7196.14874,0.11969
7194.22000,0.11988
7192.29125,0.11889
7190.36251,0.11725
7188.43376,0.11639
7186.50501,0.11628
7184.57627,0.11618
7182.64752,0.11639
7180.71878,0.11677
7178.79003,0.11695
7176.86129,0.11586
7174.93254,0.11477
7173.00380,0.11704
7171.07505,0.11980
7169.14631,0.11759
7167.21756,0.11286
7165.28882,0.11169
7163.36007,0.11442
7161.43133,0.11674
7159.50258,0.11674
7157.57384,0.11673
7155.64509,0.11824
7153.71634,0.11885
7151.78760,0.11805
7149.85885,0.11927
7147.93011,0.12257
7146.00136,0.12473
7144.07262,0.12407
7142.14387,0.12017
7140.21513,0.11506
7138.28638,0.11322
7136.35764,0.11547
7134.42889,0.11661
7132.50015,0.11429
7130.57140,0.11178
7128.64266,0.11148
7126.71391,0.11345
7124.78516,0.11624
7122.85642,0.11773
7120.92767,0.11826
7118.99893,0.11833
7117.07018,0.11684
7115.14144,0.11523
7113.21269,0.11633
7111.28395,0.11811
7109.35520,0.11723
7107.42646,0.11596
7105.49771,0.11756
7103.56897,0.11891
7101.64022,0.11782
7099.71148,0.11829
7097.78273,0.12071
7095.85399,0.12073
7093.92524,0.11855
7091.99649,0.11786
7090.06775,0.11999
7088.13900,0.12172
7086.21026,0.11988
7084.28151,0.11605
7082.35277,0.11421
7080.42402,0.11673
7078.49528,0.11930
7076.56653,0.11665
7074.63779,0.11342
7072.70904,0.11397
7070.78030,0.11499
7068.85155,0.11410
7066.92281,0.11285
7064.99406,0.11356
7063.06532,0.11569
7061.13657,0.11636
7059.20782,0.11559
7057.27908,0.11513
7055.35033,0.11395
7053.42159,0.11215
7051.49284,0.11284
7049.56410,0.11545
7047.63535,0.11597
7045.70661,0.11424
7043.77786,0.11482
7041.84912,0.11763
7039.92037,0.11769
7037.99163,0.11583
7036.06288,0.11462
7034.13414,0.11332
7032.20539,0.11320
7030.27664,0.11496
7028.34790,0.11738
7026.41915,0.12002
7024.49041,0.12102
7022.56166,0.11930
7020.63292,0.11741
7018.70417,0.11627
7016.77543,0.11624
7014.84668,0.11805
7012.91794,0.11898
7010.98919,0.11903
7009.06045,0.11952
7007.13170,0.11658
7005.20296,0.11078
7003.27421,0.10849
7001.34547,0.11097
6999.41672,0.11511
6997.48797,0.11843
6995.55923,0.11855
6993.63048,0.11638
6991.70174,0.11542
6989.77299,0.11562
6987.84425,0.11636
6985.91550,0.11735
6983.98676,0.11618
6982.05801,0.11389
6980.12927,0.11433
6978.20052,0.11730
6976.27178,0.11996
6974.34303,0.12072
6972.41429,0.11961
6970.48554,0.11942
6968.55680,0.12187
6966.62805,0.12347
6964.69930,0.12143
6962.77056,0.11678
6960.84181,0.11239
6958.91307,0.11118
6956.98432,0.11157
6955.05558,0.11116
6953.12683,0.11100
6951.19809,0.11149
6949.26934,0.11245
6947.34060,0.11456
6945.41185,0.11686
6943.48311,0.11862
6941.55436,0.12107
6939.62562,0.12394
6937.69687,0.12424
6935.76812,0.12059
6933.83938,0.11634
6931.91063,0.11480
6929.98189,0.11404
6928.05314,0.11206
6926.12440,0.11185
6924.19565,0.11481
6922.26691,0.11709
6920.33816,0.11632
6918.40942,0.11490
6916.48067,0.11608
6914.55193,0.11848
6912.62318,0.11777
6910.69444,0.11541
6908.76569,0.11589
6906.83695,0.11852
6904.90820,0.12043
6902.97945,0.11955
6901.05071,0.11612
6899.12196,0.11300
6897.19322,0.11326
6895.26447,0.11740
6893.33573,0.12106
6891.40698,0.12102
6889.47824,0.12033
6887.54949,0.12020
6885.62075,0.11870
6883.69200,0.11727
6881.76326,0.11751
6879.83451,0.11861
6877.90577,0.12013
6875.97702,0.12097
6874.04828,0.11992
6872.11953,0.11786
6870.19078,0.11729
6868.26204,0.11863
6866.33329,0.11961
6864.40455,0.11888
6862.47580,0.11631
6860.54706,0.11364
6858.61831,0.11334
6856.68957,0.11493
6854.76082,0.11736
6852.83208,0.11848
6850.90333,0.11746
6848.97459,0.11769
6847.04584,0.11975
6845.11710,0.11980
6843.18835,0.11721
6841.25960,0.11466
6839.33086,0.11385
6837.40211,0.11541
6835.47337,0.11821
6833.54462,0.11927
6831.61588,0.11814
6829.68713,0.11726
6827.75839,0.11782
6825.82964,0.11891
6823.90090,0.11906
6821.97215,0.11727
6820.04341,0.11510
6818.11466,0.11534
6816.18592,0.11731
6814.25717,0.11885
6812.32843,0.11984
6810.39968,0.12080
6808.47093,0.12216
6806.54219,0.12320
6804.61344,0.12225
6802.68470,0.11997
6800.75595,0.11855
6798.82721,0.11795
6796.89846,0.11683
6794.96972,0.11523
6793.04097,0.11479
6791.11223,0.11673
6789.18348,0.11841
6787.25474,0.11774
6785.32599,0.11829
6783.39725,0.12109
6781.46850,0.12245
6779.53975,0.12123
6777.61101,0.11923
6775.68226,0.11866
6773.75352,0.11967
6771.82477,0.12069
6769.89603,0.12089
6767.96728,0.11961
6766.03854,0.11680
6764.10979,0.11489
6762.18105,0.11570
6760.25230,0.11605
6758.32356,0.11507
6756.39481,0.11639
6754.46607,0.11845
6752.53732,0.11799
6750.60858,0.11613
6748.67983,0.11478
6746.75108,0.11481
6744.82234,0.11580
6742.89359,0.11680
6740.96485,0.11713
6739.03610,0.11689
6737.10736,0.11717
6735.17861,0.11873
6733.24987,0.12040
6731.32112,0.12051
6729.39238,0.11943
6727.46363,0.11822
6725.53489,0.11780
6723.60614,0.11768
6721.67740,0.11625
6719.74865,0.11471
6717.81991,0.11524
6715.89116,0.11726
6713.96241,0.11781
6712.03367,0.11598
6710.10492,0.11525
6708.17618,0.11726
6706.24743,0.11973
6704.31869,0.12098
6702.38994,0.11998
6700.46120,0.11689
6698.53245,0.11505
6696.60371,0.11746
6694.67496,0.12161
6692.74622,0.12255
6690.81747,0.12004
6688.88873,0.11795
6686.95998,0.11819
6685.03123,0.11955
6683.10249,0.12068
6681.17374,0.12110
6679.24500,0.12067
6677.31625,0.11987
6675.38751,0.11973
6673.45876,0.12073
6671.53002,0.12153
6669.60127,0.12143
6667.67253,0.12206
6665.74378,0.12286
6663.81504,0.12205
6661.88629,0.12153
6659.95755,0.12245
6658.02880,0.12240
6656.10006,0.12057
6654.17131,0.11894
6652.24256,0.11803
6650.31382,0.11736
6648.38507,0.11759
6646.45633,0.11878
6644.52758,0.11972
6642.59884,0.11916
6640.67009,0.11768
6638.74135,0.11697
6636.81260,0.11699
6634.88386,0.11734
6632.95511,0.11819
6631.02637,0.11833
6629.09762,0.11684
6627.16888,0.11510
6625.24013,0.11352
6623.31139,0.11237
6621.38264,0.11374
6619.45389,0.11654
6617.52515,0.11696
6615.59640,0.11605
6613.66766,0.11687
6611.73891,0.11714
6609.81017,0.11488
6607.88142,0.11420
6605.95268,0.11735
6604.02393,0.12058
6602.09519,0.12154
6600.16644,0.12149
6598.23770,0.12132
6596.30895,0.12120
6594.38021,0.12079
6592.45146,0.11882
6590.52271,0.11566
6588.59397,0.11416
6586.66522,0.11499
6584.73648,0.11579
6582.80773,0.11625
6580.87899,0.11762
6578.95024,0.11952
6577.02150,0.12029
6575.09275,0.11848
6573.16401,0.11589
6571.23526,0.11527
6569.30652,0.11608
6567.37777,0.11705
6565.44903,0.11828
6563.52028,0.12002
6561.59154,0.12119
6559.66279,0.12012
6557.73404,0.11774
6555.80530,0.11635
6553.87655,0.11609
6551.94781,0.11676
6550.01906,0.11870
6548.09032,0.11996
6546.16157,0.11908
6544.23283,0.11767
6542.30408,0.11713
6540.37534,0.11761
6538.44659,0.11801
6536.51785,0.11812
6534.58910,0.11981
6532.66036,0.12188
6530.73161,0.12112
6528.80287,0.11857
6526.87412,0.11726
6524.94537,0.11782
6523.01663,0.11844
6521.08788,0.11791
6519.15914,0.11775
6517.23039,0.11928
6515.30165,0.12135
6513.37290,0.12203
6511.44416,0.12191
6509.51541,0.12286
6507.58667,0.12425
6505.65792,0.12361
6503.72918,0.12040
6501.80043,0.11750
6499.87169,0.11740
6497.94294,0.11839
6496.01419,0.11826
6494.08545,0.11848
6492.15670,0.12062
6490.22796,0.12230
6488.29921,0.12207
6486.37047,0.12162
6484.44172,0.12101
6482.51298,0.11961
6480.58423,0.11826
6478.65549,0.11731
6476.72674,0.11687
6474.79800,0.11710
6472.86925,0.11723
6470.94051,0.11612
6469.01176,0.11432
6467.08302,0.11377
6465.15427,0.11550
6463.22552,0.11818
6461.29678,0.12022
6459.36803,0.12206
6457.43929,0.12298
6455.51054,0.12150
6453.58180,0.12004
6451.65305,0.12129
6449.72431,0.12263
6447.79556,0.12058
6445.86682,0.11770
6443.93807,0.11781
6442.00933,0.11930
6440.08058,0.11977
6438.15184,0.11980
6436.22309,0.11967
6434.29434,0.11894
6432.36560,0.11791
6430.43685,0.11790
6428.50811,0.11972
6426.57936,0.12147
6424.65062,0.12082
6422.72187,0.11871
6420.79313,0.11730
6418.86438,0.11700
6416.93564,0.11738
6415.00689,0.11864
6413.07815,0.12021
6411.14940,0.12002
6409.22066,0.11795
6407.29191,0.11759
6405.36317,0.11980
6403.43442,0.12076
6401.50567,0.11904
6399.57693,0.11719
6397.64818,0.11752
6395.71944,0.11945
6393.79069,0.11963
6391.86195,0.11710
6389.93320,0.11516
6388.00446,0.11589
6386.07571,0.11761
6384.14697,0.11884
6382.21822,0.12034
6380.28948,0.12210
6378.36073,0.12268
6376.43199,0.12218
6374.50324,0.12143
6372.57450,0.12084
6370.64575,0.12045
6368.71700,0.11892
6366.78826,0.11661
6364.85951,0.11576
6362.93077,0.11592
6361.00202,0.11639
6359.07328,0.11712
6357.14453,0.11705
6355.21579,0.11694
6353.28704,0.11768
6351.35830,0.11794
6349.42955,0.11791
6347.50081,0.11831
6345.57206,0.11833
6343.64332,0.11823
6341.71457,0.11847
6339.78582,0.11845
6337.85708,0.11832
6335.92833,0.11781
6333.99959,0.11673
6332.07084,0.11662
6330.14210,0.11748
6328.21335,0.11820
6326.28461,0.11919
6324.35586,0.12026
6322.42712,0.12033
6320.49837,0.11945
6318.56963,0.11884
6316.64088,0.11890
6314.71214,0.11918
6312.78339,0.12003
6310.85465,0.12098
6308.92590,0.12039
6306.99715,0.11895
6305.06841,0.11874
6303.13966,0.11997
6301.21092,0.12160
6299.28217,0.12243
6297.35343,0.12202
6295.42468,0.12170
6293.49594,0.12126
6291.56719,0.11984
6289.63845,0.11917
6287.70970,0.11932
6285.78096,0.11870
6283.85221,0.11850
6281.92347,0.11946
6279.99472,0.11969
6278.06598,0.11842
6276.13723,0.11686
6274.20848,0.11580
6272.27974,0.11560
6270.35099,0.11648
6268.42225,0.11767
6266.49350,0.11832
6264.56476,0.11839
6262.63601,0.11831
6260.70727,0.11812
6258.77852,0.11770
6256.84978,0.11745
6254.92103,0.11774
6252.99229,0.11862
6251.06354,0.11950
6249.13480,0.11998
6247.20605,0.12073
6245.27730,0.12107
6243.34856,0.11947
6241.41981,0.11751
6239.49107,0.11722
6237.56232,0.11726
6235.63358,0.11685
6233.70483,0.11715
6231.77609,0.11747
6229.84734,0.11644
6227.91860,0.11555
6225.98985,0.11727
6224.06111,0.12004
6222.13236,0.12064
6220.20362,0.11963
6218.27487,0.11896
6216.34613,0.11870
6214.41738,0.11886
6212.48863,0.11915
6210.55989,0.11877
6208.63114,0.11832
6206.70240,0.11886
6204.77365,0.11976
6202.84491,0.11981
6200.91616,0.11948
6198.98742,0.11957
6197.05867,0.11933
6195.12993,0.11877
6193.20118,0.11900
6191.27244,0.11947
6189.34369,0.11957
6187.41495,0.11938
6185.48620,0.11862
6183.55746,0.11849
6181.62871,0.11954
6179.69996,0.12011
6177.77122,0.11937
6175.84247,0.11821
6173.91373,0.11755
6171.98498,0.11788
6170.05624,0.11922
6168.12749,0.12000
6166.19875,0.11906
6164.27000,0.11821
6162.34126,0.11886
6160.41251,0.11994
6158.48377,0.12042
6156.55502,0.12082
6154.62628,0.12155
6152.69753,0.12128
6150.76878,0.12014
6148.84004,0.12012
6146.91129,0.12085
6144.98255,0.12086
6143.05380,0.12003
6141.12506,0.11869
6139.19631,0.11777
6137.26757,0.11774
6135.33882,0.11788
6133.41008,0.11788
6131.48133,0.11749
6129.55259,0.11660
6127.62384,0.11585
6125.69510,0.11554
6123.76635,0.11606
6121.83761,0.11738
6119.90886,0.11826
6117.98011,0.11807
6116.05137,0.11771
6114.12262,0.11796
6112.19388,0.11791
6110.26513,0.11757
6108.33639,0.11849
6106.40764,0.12016
6104.47890,0.12053
6102.55015,0.11948
6100.62141,0.11853
6098.69266,0.11778
6096.76392,0.11705
6094.83517,0.11749
6092.90643,0.11865
6090.97768,0.11905
6089.04893,0.11884
6087.12019,0.11876
6085.19144,0.11857
6083.26270,0.11775
6081.33395,0.11738
6079.40521,0.11806
6077.47646,0.11810
6075.54772,0.11779
6073.61897,0.11889
6071.69023,0.11983
6069.76148,0.11916
6067.83274,0.11852
6065.90399,0.11815
6063.97525,0.11693
6062.04650,0.11572
6060.11776,0.11530
6058.18901,0.11545
6056.26026,0.11648
6054.33152,0.11797
6052.40277,0.11873
6050.47403,0.11889
6048.54528,0.11921
6046.61654,0.11910
6044.68779,0.11784
6042.75905,0.11630
6040.83030,0.11603
6038.90156,0.11693
6036.97281,0.11738
6035.04407,0.11710
6033.11532,0.11695
6031.18658,0.11731
6029.25783,0.11812
6027.32909,0.11883
6025.40034,0.11907
6023.47159,0.11891
6021.54285,0.11879
6019.61410,0.11889
6017.68536,0.11867
6015.75661,0.11819
6013.82787,0.11767
6011.89912,0.11718
6009.97038,0.11775
6008.04163,0.11956
6006.11289,0.12095
6004.18414,0.12080
6002.25540,0.11954
6000.32665,0.11829
5998.39791,0.11770
5996.46916,0.11728
5994.54041,0.11670
5992.61167,0.11669
5990.68292,0.11763
5988.75418,0.11869
5986.82543,0.11895
5984.89669,0.11823
5982.96794,0.11665
5981.03920,0.11490
5979.11045,0.11445
5977.18171,0.11579
5975.25296,0.11739
5973.32422,0.11828
5971.39547,0.11897
5969.46673,0.11874
5967.53798,0.11782
5965.60924,0.11823
5963.68049,0.11885
5961.75174,0.11742
5959.82300,0.11560
5957.89425,0.11577
5955.96551,0.11692
5954.03676,0.11700
5952.10802,0.11676
5950.17927,0.11754
5948.25053,0.11820
5946.32178,0.11781
5944.39304,0.11701
5942.46429,0.11626
5940.53555,0.11598
5938.60680,0.11616
5936.67806,0.11570
5934.74931,0.11426
5932.82057,0.11276
5930.89182,0.11200
5928.96307,0.11204
5927.03433,0.11228
5925.10558,0.11210
5923.17684,0.11176
5921.24809,0.11128
5919.31935,0.11020
5917.39060,0.10942
5915.46186,0.10940
5913.53311,0.10918
5911.60437,0.10839
5909.67562,0.10717
5907.74688,0.10572
5905.81813,0.10469
5903.88939,0.10430
5901.96064,0.10460
5900.03189,0.10542
5898.10315,0.10610
5896.17440,0.10652
5894.24566,0.10670
5892.31691,0.10655
5890.38817,0.10628
5888.45942,0.10543
5886.53068,0.10407
5884.60193,0.10345
5882.67319,0.10344
5880.74444,0.10315
5878.81570,0.10302
5876.88695,0.10384
5874.95821,0.10457
5873.02946,0.10342
5871.10072,0.10104
5869.17197,0.09937
5867.24322,0.09898
5865.31448,0.09917
5863.38573,0.09905
5861.45699,0.09884
5859.52824,0.09940
5857.59950,0.10013
5855.67075,0.10009
5853.74201,0.09966
5851.81326,0.09970
5849.88452,0.10059
5847.95577,0.10178
5846.02703,0.10254
5844.09828,0.10305
5842.16954,0.10333
5840.24079,0.10272
5838.31205,0.10180
5836.38330,0.10214
5834.45455,0.10360
5832.52581,0.10444
5830.59706,0.10385
5828.66832,0.10308
5826.73957,0.10346
5824.81083,0.10437
5822.88208,0.10457
5820.95334,0.10374
5819.02459,0.10240
5817.09585,0.10123
5815.16710,0.10077
5813.23836,0.10112
5811.30961,0.10119
5809.38087,0.10091
5807.45212,0.10123
5805.52337,0.10124
5803.59463,0.10051
5801.66588,0.09997
5799.73714,0.09951
5797.80839,0.09877
5795.87965,0.09802
5793.95090,0.09776
5792.02216,0.09834
5790.09341,0.09938
5788.16467,0.09978
5786.23592,0.09939
5784.30718,0.09950
5782.37843,0.10063
5780.44969,0.10172
5778.52094,0.10184
5776.59220,0.10124
5774.66345,0.10079
5772.73470,0.10091
5770.80596,0.10158
5768.87721,0.10240
5766.94847,0.10262
5765.01972,0.10193
5763.09098,0.10047
5761.16223,0.09901
5759.23349,0.09874
5757.30474,0.09971
5755.37600,0.10077
5753.44725,0.10114
5751.51851,0.10143
5749.58976,0.10253
5747.66102,0.10372
5745.73227,0.10434
5743.80352,0.10474
5741.87478,0.10510
5739.94603,0.10533
5738.01729,0.10534
5736.08854,0.10570
5734.15980,0.10665
5732.23105,0.10724
5730.30231,0.10720
5728.37356,0.10718
5726.44482,0.10722
5724.51607,0.10711
5722.58733,0.10736
5720.65858,0.10777
5718.72984,0.10751
5716.80109,0.10754
5714.87235,0.10888
5712.94360,0.11026
5711.01485,0.11043
5709.08611,0.10979
5707.15736,0.10923
5705.22862,0.10874
5703.29987,0.10802
5701.37113,0.10783
5699.44238,0.10860
5697.51364,0.10933
5695.58489,0.10915
5693.65615,0.10873
5691.72740,0.10937
5689.79866,0.11055
5687.86991,0.11056
5685.94117,0.10935
5684.01242,0.10861
5682.08368,0.10930
5680.15493,0.11038
5678.22618,0.11071
5676.29744,0.11038
5674.36869,0.11020
5672.43995,0.11060
5670.51120,0.11055
5668.58246,0.10930
5666.65371,0.10777
5664.72497,0.10718
5662.79622,0.10776
5660.86748,0.10874
5658.93873,0.10946
5657.00999,0.10969
5655.08124,0.10956
5653.15250,0.10909
5651.22375,0.10821
5649.29500,0.10762
5647.36626,0.10764
5645.43751,0.10784
5643.50877,0.10855
5641.58002,0.10951
5639.65128,0.10993
5637.72253,0.11005
5635.79379,0.10997
5633.86504,0.10985
5631.93630,0.11063
5630.00755,0.11197
5628.07881,0.11202
5626.15006,0.11051
5624.22132,0.10928
5622.29257,0.10929
5620.36383,0.10989
5618.43508,0.11044
5616.50633,0.11074
5614.57759,0.11097
5612.64884,0.11122
5610.72010,0.11136
5608.79135,0.11124
5606.86261,0.11114
5604.93386,0.11147
5603.00512,0.11204
5601.07637,0.11246
5599.14763,0.11273
5597.21888,0.11233
5595.29014,0.11133
5593.36139,0.11141
5591.43265,0.11254
5589.50390,0.11306
5587.57516,0.11272
5585.64641,0.11200
5583.71766,0.11146
5581.78892,0.11190
5579.86017,0.11291
5577.93143,0.11302
5576.00268,0.11223
5574.07394,0.11209
5572.14519,0.11305
5570.21645,0.11390
5568.28770,0.11371
5566.35896,0.11288
5564.43021,0.11254
5562.50147,0.11293
5560.57272,0.11305
5558.64398,0.11222
5556.71523,0.11081
5554.78648,0.11008
5552.85774,0.11072
5550.92899,0.11175
5549.00025,0.11262
5547.07150,0.11376
5545.14276,0.11457
5543.21401,0.11402
5541.28527,0.11296
5539.35652,0.11303
5537.42778,0.11358
5535.49903,0.11312
5533.57029,0.11220
5531.64154,0.11211
5529.71280,0.11283
5527.78405,0.11331
5525.85531,0.11334
5523.92656,0.11347
5521.99781,0.11369
5520.06907,0.11372
5518.14032,0.11325
5516.21158,0.11258
5514.28283,0.11239
5512.35409,0.11246
5510.42534,0.11233
5508.49660,0.11230
5506.56785,0.11258
5504.63911,0.11288
5502.71036,0.11299
5500.78162,0.11254
5498.85287,0.11165
5496.92413,0.11080
5494.99538,0.11015
5493.06664,0.11028
5491.13789,0.11107
5489.20914,0.11185
5487.28040,0.11230
5485.35165,0.11228
5483.42291,0.11207
5481.49416,0.11207
5479.56542,0.11245
5477.63667,0.11293
5475.70793,0.11310
5473.77918,0.11295
5471.85044,0.11273
5469.92169,0.11256
5467.99295,0.11233
5466.06420,0.11250
5464.13546,0.11327
5462.20671,0.11366
5460.27796,0.11337
5458.34922,0.11311
5456.42047,0.11308
5454.49173,0.11311
5452.56298,0.11309
5450.63424,0.11302
5448.70549,0.11309
5446.77675,0.11348
5444.84800,0.11377
5442.91926,0.11336
5440.99051,0.11239
5439.06177,0.11201
5437.13302,0.11289
5435.20428,0.11412
5433.27553,0.11465
5431.34679,0.11427
5429.41804,0.11366
5427.48929,0.11352
5425.56055,0.11356
5423.63180,0.11346
5421.70306,0.11369
5419.77431,0.11422
5417.84557,0.11437
5415.91682,0.11414
5413.98808,0.11394
5412.05933,0.11422
5410.13059,0.11509
5408.20184,0.11570
5406.27310,0.11578
5404.34435,0.11617
5402.41561,0.11672
5400.48686,0.11665
5398.55811,0.11618
5396.62937,0.11591
5394.70062,0.11585
5392.77188,0.11577
5390.84313,0.11582
5388.91439,0.11595
5386.98564,0.11572
5385.05690,0.11550
5383.12815,0.11576
5381.19941,0.11609
5379.27066,0.11626
5377.34192,0.11650
5375.41317,0.11684
5373.48443,0.11716
5371.55568,0.11778
5369.62694,0.11840
5367.69819,0.11825
5365.76944,0.11772
5363.84070,0.11723
5361.91195,0.11654
5359.98321,0.11609
5358.05446,0.11615
5356.12572,0.11620
5354.19697,0.11615
5352.26823,0.11624
5350.33948,0.11635
5348.41074,0.11650
5346.48199,0.11649
5344.55325,0.11625
5342.62450,0.11618
5340.69576,0.11619
5338.76701,0.11630
5336.83827,0.11638
5334.90952,0.11591
5332.98077,0.11558
5331.05203,0.11606
5329.12328,0.11672
5327.19454,0.11722
5325.26579,0.11769
5323.33705,0.11773
5321.40830,0.11728
5319.47956,0.11696
5317.55081,0.11668
5315.62207,0.11624
5313.69332,0.11646
5311.76458,0.11744
5309.83583,0.11780
5307.90709,0.11725
5305.97834,0.11673
5304.04959,0.11653
5302.12085,0.11623
5300.19210,0.11582
5298.26336,0.11622
5296.33461,0.11745
5294.40587,0.11803
5292.47712,0.11753
5290.54838,0.11690
5288.61963,0.11645
5286.69089,0.11614
5284.76214,0.11612
5282.83340,0.11618
5280.90465,0.11628
5278.97591,0.11685
5277.04716,0.11759
5275.11842,0.11769
5273.18967,0.11718
5271.26092,0.11691
5269.33218,0.11720
5267.40343,0.11760
5265.47469,0.11781
5263.54594,0.11788
5261.61720,0.11791
5259.68845,0.11785
5257.75971,0.11778
5255.83096,0.11794
5253.90222,0.11797
5251.97347,0.11747
5250.04473,0.11675
5248.11598,0.11617
5246.18724,0.11601
5244.25849,0.11638
5242.32975,0.11680
5240.40100,0.11661
5238.47225,0.11595
5236.54351,0.11574
5234.61476,0.11624
5232.68602,0.11682
5230.75727,0.11693
5228.82853,0.11641
5226.89978,0.11567
5224.97104,0.11552
5223.04229,0.11597
5221.11355,0.11630
5219.18480,0.11630
5217.25606,0.11631
5215.32731,0.11631
5213.39857,0.11607
5211.46982,0.11582
5209.54107,0.11590
5207.61233,0.11623
5205.68358,0.11682
5203.75484,0.11747
5201.82609,0.11760
5199.89735,0.11726
5197.96860,0.11711
5196.03986,0.11754
5194.11111,0.11830
5192.18237,0.11846
5190.25362,0.11774
5188.32488,0.11719
5186.39613,0.11741
5184.46739,0.11803
5182.53864,0.11850
5180.60990,0.11836
5178.68115,0.11774
5176.75240,0.11755
5174.82366,0.11831
5172.89491,0.11935
5170.96617,0.11963
5169.03742,0.11912
5167.10868,0.11844
5165.17993,0.11793
5163.25119,0.11781
5161.32244,0.11810
5159.39370,0.11798
5157.46495,0.11700
5155.53621,0.11640
5153.60746,0.11699
5151.67872,0.11787
5149.74997,0.11832
5147.82123,0.11845
5145.89248,0.11830
5143.96373,0.11790
5142.03499,0.11774
5140.10624,0.11813
5138.17750,0.11853
5136.24875,0.11842
5134.32001,0.11843
5132.39126,0.11869
5130.46252,0.11830
5128.53377,0.11754
5126.60503,0.11742
5124.67628,0.11813
5122.74754,0.11901
5120.81879,0.11927
5118.89005,0.11907
5116.96130,0.11921
5115.03255,0.11955
5113.10381,0.11943
5111.17506,0.11907
5109.24632,0.11897
5107.31757,0.11866
5105.38883,0.11771
5103.46008,0.11683
5101.53134,0.11690
5099.60259,0.11759
5097.67385,0.11791
5095.74510,0.11766
5093.81636,0.11748
5091.88761,0.11766
5089.95887,0.11777
5088.03012,0.11748
5086.10138,0.11736
5084.17263,0.11778
5082.24388,0.11813
5080.31514,0.11852
5078.38639,0.11928
5076.45765,0.11970
5074.52890,0.11942
5072.60016,0.11872
5070.67141,0.11816
5068.74267,0.11833
5066.81392,0.11897
5064.88518,0.11951
5062.95643,0.11965
5061.02769,0.11935
5059.09894,0.11902
5057.17020,0.11894
5055.24145,0.11888
5053.31270,0.11854
5051.38396,0.11824
5049.45521,0.11851
5047.52647,0.11875
5045.59772,0.11843
5043.66898,0.11843
5041.74023,0.11915
5039.81149,0.11971
5037.88274,0.11928
5035.95400,0.11834
5034.02525,0.11797
5032.09651,0.11808
5030.16776,0.11812
5028.23902,0.11832
5026.31027,0.11855
5024.38153,0.11834
5022.45278,0.11808
5020.52403,0.11829
5018.59529,0.11857
5016.66654,0.11864
5014.73780,0.11886
5012.80905,0.11919
5010.88031,0.11948
5008.95156,0.11960
5007.02282,0.11942
5005.09407,0.11943
5003.16533,0.11986
5001.23658,0.11994
4999.30784,0.11923
4997.37909,0.11860
4995.45035,0.11901
4993.52160,0.12000
4991.59286,0.12028
4989.66411,0.11962
4987.73536,0.11900
4985.80662,0.11899
4983.87787,0.11910
4981.94913,0.11914
4980.02038,0.11949
4978.09164,0.11978
4976.16289,0.11953
4974.23415,0.11927
4972.30540,0.11935
4970.37666,0.11962
4968.44791,0.11985
4966.51917,0.11967
4964.59042,0.11928
4962.66168,0.11929
4960.73293,0.11965
4958.80418,0.11997
4956.87544,0.12025
4954.94669,0.12058
4953.01795,0.12080
4951.08920,0.12087
4949.16046,0.12082
4947.23171,0.12058
4945.30297,0.12035
4943.37422,0.12030
4941.44548,0.12041
4939.51673,0.12060
4937.58799,0.12060
4935.65924,0.12047
4933.73050,0.12070
4931.80175,0.12129
4929.87301,0.12155
4927.94426,0.12142
4926.01551,0.12129
4924.08677,0.12077
4922.15802,0.12020
4920.22928,0.12036
4918.30053,0.12100
4916.37179,0.12141
4914.44304,0.12136
4912.51430,0.12109
4910.58555,0.12085
4908.65681,0.12055
4906.72806,0.12024
4904.79932,0.12039
4902.87057,0.12099
4900.94183,0.12133
4899.01308,0.12139
4897.08434,0.12140
4895.15559,0.12098
4893.22684,0.12047
4891.29810,0.12068
4889.36935,0.12126
4887.44061,0.12132
4885.51186,0.12086
4883.58312,0.12054
4881.65437,0.12084
4879.72563,0.12138
4877.79688,0.12142
4875.86814,0.12089
4873.93939,0.12053
4872.01065,0.12078
4870.08190,0.12100
4868.15316,0.12053
4866.22441,0.11983
4864.29566,0.11987
4862.36692,0.12063
4860.43817,0.12106
4858.50943,0.12089
4856.58068,0.12075
4854.65194,0.12088
4852.72319,0.12110
4850.79445,0.12142
4848.86570,0.12159
4846.93696,0.12118
4845.00821,0.12051
4843.07947,0.12020
4841.15072,0.12014
4839.22198,0.12014
4837.29323,0.12031
4835.36449,0.12052
4833.43574,0.12045
4831.50699,0.12013
4829.57825,0.11999
4827.64950,0.12014
4825.72076,0.12023
4823.79201,0.12026
4821.86327,0.12060
4819.93452,0.12118
4818.00578,0.12151
4816.07703,0.12140
4814.14829,0.12121
4812.21954,0.12110
4810.29080,0.12117
4808.36205,0.12160
4806.43331,0.12193
4804.50456,0.12197
4802.57582,0.12193
4800.64707,0.12173
4798.71832,0.12152
4796.78958,0.12107
4794.86083,0.12046
4792.93209,0.12061
4791.00334,0.12122
4789.07460,0.12121
4787.14585,0.12085
4785.21711,0.12082
4783.28836,0.12087
4781.35962,0.12086
4779.43087,0.12098
4777.50213,0.12094
4775.57338,0.12062
4773.64464,0.12046
4771.71589,0.12061
4769.78714,0.12084
4767.85840,0.12100
4765.92965,0.12094
4764.00091,0.12074
4762.07216,0.12096
4760.14342,0.12154
4758.21467,0.12165
4756.28593,0.12122
4754.35718,0.12109
4752.42844,0.12149
4750.49969,0.12171
4748.57095,0.12140
4746.64220,0.12104
4744.71346,0.12102
4742.78471,0.12127
4740.85597,0.12163
4738.92722,0.12201
4736.99847,0.12234
4735.06973,0.12243
4733.14098,0.12216
4731.21224,0.12165
4729.28349,0.12118
4727.35475,0.12101
4725.42600,0.12106
4723.49726,0.12115
4721.56851,0.12131
4719.63977,0.12139
4717.71102,0.12133
4715.78228,0.12137
4713.85353,0.12170
4711.92479,0.12190
4709.99604,0.12165
4708.06729,0.12143
4706.13855,0.12152
4704.20980,0.12145
4702.28106,0.12129
4700.35231,0.12146
4698.42357,0.12191
4696.49482,0.12228
4694.56608,0.12223
4692.63733,0.12195
4690.70859,0.12169
4688.77984,0.12130
4686.85110,0.12113
4684.92235,0.12149
4682.99361,0.12182
4681.06486,0.12203
4679.13612,0.12240
4677.20737,0.12247
4675.27862,0.12192
4673.34988,0.12121
4671.42113,0.12077
4669.49239,0.12062
4667.56364,0.12057
4665.63490,0.12064
4663.70615,0.12086
4661.77741,0.12096
4659.84866,0.12095
4657.91992,0.12119
4655.99117,0.12159
4654.06243,0.12164
4652.13368,0.12118
4650.20494,0.12070
4648.27619,0.12069
4646.34745,0.12109
4644.41870,0.12131
4642.48995,0.12123
4640.56121,0.12122
4638.63246,0.12123
4636.70372,0.12111
4634.77497,0.12095
4632.84623,0.12062
4630.91748,0.12017
4628.98874,0.12003
4627.05999,0.12025
4625.13125,0.12048
4623.20250,0.12046
4621.27376,0.12037
4619.34501,0.12047
4617.41627,0.12056
4615.48752,0.12054
4613.55877,0.12056
4611.63003,0.12050
4609.70128,0.12051
4607.77254,0.12092
4605.84379,0.12139
4603.91505,0.12141
4601.98630,0.12113
4600.05756,0.12094
4598.12881,0.12075
4596.20007,0.12046
4594.27132,0.12027
4592.34258,0.12029
4590.41383,0.12042
4588.48509,0.12037
4586.55634,0.12000
4584.62760,0.11961
4582.69885,0.11932
4580.77010,0.11907
4578.84136,0.11891
4576.91261,0.11874
4574.98387,0.11851
4573.05512,0.11838
4571.12638,0.11845
4569.19763,0.11882
4567.26889,0.11915
4565.34014,0.11901
4563.41140,0.11872
4561.48265,0.11870
4559.55391,0.11899
4557.62516,0.11951
4555.69642,0.11985
4553.76767,0.11972
4551.83893,0.11952
4549.91018,0.11951
4547.98143,0.11931
4546.05269,0.11895
4544.12394,0.11913
4542.19520,0.11970
4540.26645,0.11981
4538.33771,0.11951
4536.40896,0.11934
4534.48022,0.11927
4532.55147,0.11915
4530.62273,0.11892
4528.69398,0.11877
4526.76524,0.11886
4524.83649,0.11891
4522.90775,0.11891
4520.97900,0.11910
4519.05025,0.11916
4517.12151,0.11904
4515.19276,0.11899
4513.26402,0.11894
4511.33527,0.11890
4509.40653,0.11912
4507.47778,0.11936
4505.54904,0.11925
4503.62029,0.11895
4501.69155,0.11888
4499.76280,0.11909
4497.83406,0.11908
4495.90531,0.11862
4493.97657,0.11828
4492.04782,0.11811
4490.11908,0.11793
4488.19033,0.11797
4486.26158,0.11820
4484.33284,0.11852
4482.40409,0.11887
4480.47535,0.11906
4478.54660,0.11891
4476.61786,0.11853
4474.68911,0.11839
4472.76037,0.11844
4470.83162,0.11830
4468.90288,0.11802
4466.97413,0.11779
4465.04539,0.11768
4463.11664,0.11762
4461.18790,0.11753
4459.25915,0.11731
4457.33041,0.11678
4455.40166,0.11608
4453.47291,0.11553
4451.54417,0.11500
4449.61542,0.11435
4447.68668,0.11372
4445.75793,0.11326
4443.82919,0.11273
4441.90044,0.11193
4439.97170,0.11129
4438.04295,0.11088
4436.11421,0.11004
4434.18546,0.10862
4432.25672,0.10703
4430.32797,0.10559
4428.39923,0.10429
4426.47048,0.10296
4424.54173,0.10144
4422.61299,0.09957
4420.68424,0.09772
4418.75550,0.09634
4416.82675,0.09485
4414.89801,0.09268
4412.96926,0.09033
4411.04052,0.08852
4409.11177,0.08724
4407.18303,0.08605
4405.25428,0.08476
4403.32554,0.08340
4401.39679,0.08191
4399.46805,0.08017
4397.53930,0.07834
4395.61056,0.07667
4393.68181,0.07527
4391.75306,0.07431
4389.82432,0.07422
4387.89557,0.07517
4385.96683,0.07657
4384.03808,0.07778
4382.10934,0.07873
4380.18059,0.07968
4378.25185,0.08076
4376.32310,0.08189
4374.39436,0.08295
4372.46561,0.08380
4370.53687,0.08440
4368.60812,0.08496
4366.67938,0.08577
4364.75063,0.08671
4362.82189,0.08727
4360.89314,0.08724
4358.96439,0.08688
4357.03565,0.08660
4355.10690,0.08637
4353.17816,0.08571
4351.24941,0.08434
4349.32067,0.08259
4347.39192,0.08096
4345.46318,0.07922
4343.53443,0.07694
4341.60569,0.07405
4339.67694,0.07088
4337.74820,0.06803
4335.81945,0.06576
4333.89071,0.06373
4331.96196,0.06168
4330.03321,0.05981
4328.10447,0.05854
4326.17572,0.05795
4324.24698,0.05790
4322.31823,0.05827
4320.38949,0.05888
4318.46074,0.05950
4316.53200,0.06013
4314.60325,0.06111
4312.67451,0.06247
4310.74576,0.06372
4308.81702,0.06460
4306.88827,0.06538
4304.95953,0.06650
4303.03078,0.06796
4301.10204,0.06929
4299.17329,0.07036
4297.24454,0.07140
4295.31580,0.07229
4293.38705,0.07294
4291.45831,0.07355
4289.52956,0.07397
4287.60082,0.07406
4285.67207,0.07413
4283.74333,0.07431
4281.81458,0.07437
4279.88584,0.07425
4277.95709,0.07399
4276.02835,0.07380
4274.09960,0.07391
4272.17086,0.07425
4270.24211,0.07457
4268.31336,0.07464
4266.38462,0.07431
4264.45587,0.07357
4262.52713,0.07262
4260.59838,0.07172
4258.66964,0.07090
4256.74089,0.06985
4254.81215,0.06849
4252.88340,0.06718
4250.95466,0.06608
4249.02591,0.06503
4247.09717,0.06410
4245.16842,0.06337
4243.23968,0.06268
4241.31093,0.06221
4239.38219,0.06225
4237.45344,0.06273
4235.52469,0.06366
4233.59595,0.06509
4231.66720,0.06677
4229.73846,0.06819
4227.80971,0.06898
4225.88097,0.06927
4223.95222,0.06930
4222.02348,0.06931
4220.09473,0.06951
4218.16599,0.06978
4216.23724,0.07006
4214.30850,0.07057
4212.37975,0.07106
4210.45101,0.07131
4208.52226,0.07164
4206.59352,0.07213
4204.66477,0.07281
4202.73602,0.07368
4200.80728,0.07434
4198.87853,0.07479
4196.94979,0.07552
4195.02104,0.07659
4193.09230,0.07769
4191.16355,0.07858
4189.23481,0.07922
4187.30606,0.07950
4185.37732,0.07920
4183.44857,0.07845
4181.51983,0.07779
4179.59108,0.07746
4177.66234,0.07709
4175.73359,0.07639
4173.80484,0.07556
4171.87610,0.07481
4169.94735,0.07406
4168.01861,0.07347
4166.08986,0.07350
4164.16112,0.07418
4162.23237,0.07506
4160.30363,0.07576
4158.37488,0.07637
4156.44614,0.07718
4154.51739,0.07803
4152.58865,0.07863
4150.65990,0.07909
4148.73116,0.07948
4146.80241,0.07959
4144.87367,0.07970
4142.94492,0.08021
4141.01617,0.08072
4139.08743,0.08097
4137.15868,0.08125
4135.22994,0.08146
4133.30119,0.08149
4131.37245,0.08144
4129.44370,0.08092
4127.51496,0.07995
4125.58621,0.07914
4123.65747,0.07862
4121.72872,0.07814
4119.79998,0.07781
4117.87123,0.07790
4115.94249,0.07827
4114.01374,0.07859
4112.08500,0.07892
4110.15625,0.07950
4108.22750,0.08039
4106.29876,0.08150
4104.37001,0.08251
4102.44127,0.08325
4100.51252,0.08395
4098.58378,0.08472
4096.65503,0.08529
4094.72629,0.08536
4092.79754,0.08488
4090.86880,0.08408
4088.94005,0.08334
4087.01131,0.08277
4085.08256,0.08212
4083.15382,0.08121
4081.22507,0.07994
4079.29632,0.07849
4077.36758,0.07737
4075.43883,0.07662
4073.51009,0.07573
4071.58134,0.07471
4069.65260,0.07384
4067.72385,0.07284
4065.79511,0.07147
4063.86636,0.07002
4061.93762,0.06904
4060.00887,0.06896
4058.08013,0.06958
4056.15138,0.07050
4054.22264,0.07170
4052.29389,0.07331
4050.36515,0.07540
4048.43640,0.07762
4046.50765,0.07956
4044.57891,0.08126
4042.65016,0.08288
4040.72142,0.08441
4038.79267,0.08556
4036.86393,0.08607
4034.93518,0.08624
4033.00644,0.08647
4031.07769,0.08683
4029.14895,0.08717
4027.22020,0.08727
4025.29146,0.08721
4023.36271,0.08738
4021.43397,0.08778
4019.50522,0.08821
4017.57648,0.08885
4015.64773,0.08966
4013.71898,0.09024
4011.79024,0.09053
4009.86149,0.09073
4007.93275,0.09113
4006.00400,0.09173
4004.07526,0.09210
4002.14651,0.09206
4000.21777,0.09184
3998.28902,0.09150
3996.36028,0.09114
3994.43153,0.09091
3992.50279,0.09100
3990.57404,0.09144
3988.64530,0.09188
3986.71655,0.09227
3984.78780,0.09285
3982.85906,0.09346
3980.93031,0.09388
3979.00157,0.09425
3977.07282,0.09476
3975.14408,0.09535
3973.21533,0.09577
3971.28659,0.09578
3969.35784,0.09572
3967.42910,0.09597
3965.50035,0.09651
3963.57161,0.09700
3961.64286,0.09717
3959.71412,0.09736
3957.78537,0.09797
3955.85663,0.09870
3953.92788,0.09896
3951.99913,0.09884
3950.07039,0.09885
3948.14164,0.09902
3946.21290,0.09900
3944.28415,0.09879
3942.35541,0.09857
3940.42666,0.09836
3938.49792,0.09815
3936.56917,0.09806
3934.64043,0.09809
3932.71168,0.09799
3930.78294,0.09794
3928.85419,0.09817
3926.92545,0.09829
3924.99670,0.09819
3923.06795,0.09823
3921.13921,0.09835
3919.21046,0.09842
3917.28172,0.09852
3915.35297,0.09865
3913.42423,0.09891
3911.49548,0.09937
3909.56674,0.09989
3907.63799,0.10016
3905.70925,0.10008
3903.78050,0.09992
3901.85176,0.09984
3899.92301,0.09977
3897.99427,0.09991
3896.06552,0.10019
3894.13678,0.10022
3892.20803,0.09990
3890.27928,0.09960
3888.35054,0.09980
3886.42179,0.10020
3884.49305,0.10036
3882.56430,0.10050
3880.63556,0.10072
3878.70681,0.10072
3876.77807,0.10058
3874.84932,0.10067
3872.92058,0.10110
3870.99183,0.10156
3869.06309,0.10175
3867.13434,0.10169
3865.20560,0.10160
3863.27685,0.10165
3861.34811,0.10188
3859.41936,0.10225
3857.49061,0.10268
3855.56187,0.10281
3853.63312,0.10263
3851.70438,0.10276
3849.77563,0.10308
3847.84689,0.10322
3845.91814,0.10331
3843.98940,0.10344
3842.06065,0.10346
3840.13191,0.10326
3838.20316,0.10289
3836.27442,0.10264
3834.34567,0.10270
3832.41693,0.10290
3830.48818,0.10300
3828.55943,0.10296
3826.63069,0.10295
3824.70194,0.10310
3822.77320,0.10309
3820.84445,0.10269
3818.91571,0.10242
3816.98696,0.10247
3815.05822,0.10252
3813.12947,0.10255
3811.20073,0.10274
3809.27198,0.10301
3807.34324,0.10316
3805.41449,0.10323
3803.48575,0.10324
3801.55700,0.10324
3799.62826,0.10339
3797.69951,0.10360
3795.77076,0.10371
3793.84202,0.10378
3791.91327,0.10406
3789.98453,0.10453
3788.05578,0.10494
3786.12704,0.10522
3784.19829,0.10538
3782.26955,0.10534
3780.34080,0.10516
3778.41206,0.10494
3776.48331,0.10455
3774.55457,0.10385
3772.62582,0.10309
3770.69708,0.10245
3768.76833,0.10189
3766.83959,0.10152
3764.91084,0.10146
3762.98209,0.10173
3761.05335,0.10227
3759.12460,0.10271
3757.19586,0.10288
3755.26711,0.10313
3753.33837,0.10367
3751.40962,0.10434
3749.48088,0.10487
3747.55213,0.10520
3745.62339,0.10541
3743.69464,0.10571
3741.76590,0.10615
3739.83715,0.10647
3737.90841,0.10663
3735.97966,0.10685
3734.05091,0.10717
3732.12217,0.10747
3730.19342,0.10767
3728.26468,0.10776
3726.33593,0.10780
3724.40719,0.10787
3722.47844,0.10786
3720.54970,0.10772
3718.62095,0.10774
3716.69221,0.10774
3714.76346,0.10743
3712.83472,0.10710
3710.90597,0.10714
3708.97723,0.10751
3707.04848,0.10782
3705.11974,0.10787
3703.19099,0.10781
3701.26224,0.10764
3699.33350,0.10731
3697.40475,0.10707
3695.47601,0.10717
3693.54726,0.10738
3691.61852,0.10739
3689.68977,0.10731
3687.76103,0.10739
3685.83228,0.10763
3683.90354,0.10793
3681.97479,0.10815
3680.04605,0.10817
3678.11730,0.10821
3676.18856,0.10855
3674.25981,0.10910
3672.33107,0.10984
3670.40232,0.11080
3668.47357,0.11159
3666.54483,0.11198
3664.61608,0.11220
3662.68734,0.11252
3660.75859,0.11304
3658.82985,0.11349
3656.90110,0.11359
3654.97236,0.11361
3653.04361,0.11374
3651.11487,0.11368
3649.18612,0.11330
3647.25738,0.11293
3645.32863,0.11267
3643.39989,0.11224
3641.47114,0.11177
3639.54239,0.11150
3637.61365,0.11126
3635.68490,0.11093
3633.75616,0.11067
3631.82741,0.11064
3629.89867,0.11090
3627.96992,0.11142
3626.04118,0.11199
3624.11243,0.11246
3622.18369,0.11291
3620.25494,0.11335
3618.32620,0.11352
3616.39745,0.11350
3614.46871,0.11359
3612.53996,0.11372
3610.61122,0.11383
3608.68247,0.11407
3606.75372,0.11433
3604.82498,0.11440
3602.89623,0.11425
3600.96749,0.11412
3599.03874,0.11420
3597.11000,0.11433
3595.18125,0.11427
3593.25251,0.11401
3591.32376,0.11368
3589.39502,0.11350
3587.46627,0.11340
3585.53753,0.11320
3583.60878,0.11311
3581.68004,0.11324
3579.75129,0.11332
3577.82254,0.11322
3575.89380,0.11305
3573.96505,0.11294
3572.03631,0.11288
3570.10756,0.11282
3568.17882,0.11251
3566.25007,0.11208
3564.32133,0.11199
3562.39258,0.11198
3560.46384,0.11167
3558.53509,0.11132
3556.60635,0.11127
3554.67760,0.11137
3552.74886,0.11119
3550.82011,0.11064
3548.89137,0.11019
3546.96262,0.11006
3545.03387,0.10990
3543.10513,0.10960
3541.17638,0.10940
3539.24764,0.10928
3537.31889,0.10906
3535.39015,0.10869
3533.46140,0.10838
3531.53266,0.10844
3529.60391,0.10857
3527.67517,0.10836
3525.74642,0.10792
3523.81768,0.10746
3521.88893,0.10717
3519.96019,0.10725
3518.03144,0.10746
3516.10270,0.10748
3514.17395,0.10739
3512.24520,0.10723
3510.31646,0.10693
3508.38771,0.10671
3506.45897,0.10686
3504.53022,0.10702
3502.60148,0.10679
3500.67273,0.10649
3498.74399,0.10644
3496.81524,0.10631
3494.88650,0.10608
3492.95775,0.10608
3491.02901,0.10607
3489.10026,0.10568
3487.17152,0.10506
3485.24277,0.10462
3483.31402,0.10445
3481.38528,0.10421
3479.45653,0.10377
3477.52779,0.10339
3475.59904,0.10321
3473.67030,0.10306
3471.74155,0.10282
3469.81281,0.10272
3467.88406,0.10267
3465.95532,0.10223
3464.02657,0.10144
3462.09783,0.10082
3460.16908,0.10045
3458.24034,0.10026
3456.31159,0.10034
3454.38285,0.10034
3452.45410,0.09996
3450.52535,0.09944
3448.59661,0.09874
3446.66786,0.09767
3444.73912,0.09667
3442.81037,0.09627
3440.88163,0.09640
3438.95288,0.09653
3437.02414,0.09634
3435.09539,0.09583
3433.16665,0.09534
3431.23790,0.09500
3429.30916,0.09470
3427.38041,0.09437
3425.45167,0.09402
3423.52292,0.09374
3421.59418,0.09342
3419.66543,0.09283
3417.73668,0.09232
3415.80794,0.09216
3413.87919,0.09208
3411.95045,0.09186
3410.02170,0.09149
3408.09296,0.09123
3406.16421,0.09148
3404.23547,0.09234
3402.30672,0.09328
3400.37798,0.09361
3398.44923,0.09352
3396.52049,0.09362
3394.59174,0.09383
3392.66300,0.09368
3390.73425,0.09333
3388.80550,0.09331
3386.87676,0.09359
3384.94801,0.09354
3383.01927,0.09287
3381.09052,0.09200
3379.16178,0.09128
3377.23303,0.09080
3375.30429,0.09062
3373.37554,0.09068
3371.44680,0.09077
3369.51805,0.09075
3367.58931,0.09055
3365.66056,0.09034
3363.73182,0.09027
3361.80307,0.09008
3359.87433,0.08960
3357.94558,0.08904
3356.01683,0.08864
3354.08809,0.08845
3352.15934,0.08816
3350.23060,0.08749
3348.30185,0.08685
3346.37311,0.08688
3344.44436,0.08723
3342.51562,0.08741
3340.58687,0.08789
3338.65813,0.08898
3336.72938,0.09002
3334.80064,0.09055
3332.87189,0.09077
3330.94315,0.09113
3329.01440,0.09176
3327.08566,0.09247
3325.15691,0.09280
3323.22816,0.09271
3321.29942,0.09284
3319.37067,0.09337
3317.44193,0.09377
3315.51318,0.09379
3313.58444,0.09363
3311.65569,0.09334
3309.72695,0.09296
3307.79820,0.09267
3305.86946,0.09241
3303.94071,0.09232
3302.01197,0.09231
3300.08322,0.09191
3298.15448,0.09111
3296.22573,0.09043
3294.29698,0.09034
3292.36824,0.09052
3290.43949,0.09050
3288.51075,0.09061
3286.58200,0.09097
3284.65326,0.09124
3282.72451,0.09145
3280.79577,0.09144
3278.86702,0.09097
3276.93828,0.09065
3275.00953,0.09101
3273.08079,0.09145
3271.15204,0.09156
3269.22330,0.09146
3267.29455,0.09127
3265.36581,0.09113
3263.43706,0.09119
3261.50831,0.09128
3259.57957,0.09135
3257.65082,0.09147
3255.72208,0.09158
3253.79333,0.09161
3251.86459,0.09166
3249.93584,0.09175
3248.00710,0.09197
3246.07835,0.09210
3244.14961,0.09150
3242.22086,0.09039
3240.29212,0.08940
3238.36337,0.08853
3236.43463,0.08770
3234.50588,0.08697
3232.57713,0.08606
3230.64839,0.08498
3228.71964,0.08400
3226.79090,0.08271
3224.86215,0.08094
3222.93341,0.07941
3221.00466,0.07820
3219.07592,0.07664
3217.14717,0.07474
3215.21843,0.07334
3213.28968,0.07258
3211.36094,0.07154
3209.43219,0.07008
3207.50345,0.06898
3205.57470,0.06825
3203.64596,0.06739
3201.71721,0.06638
3199.78846,0.06555
3197.85972,0.06509
3195.93097,0.06481
3194.00223,0.06471
3192.07348,0.06496
3190.14474,0.06518
3188.21599,0.06528
3186.28725,0.06557
3184.35850,0.06582
3182.42976,0.06593
3180.50101,0.06618
3178.57227,0.06657
3176.64352,0.06693
3174.71478,0.06715
3172.78603,0.06733
3170.85729,0.06782
3168.92854,0.06856
3166.99979,0.06894
3165.07105,0.06886
3163.14230,0.06864
3161.21356,0.06840
3159.28481,0.06812
3157.35607,0.06779
3155.42732,0.06745
3153.49858,0.06714
3151.56983,0.06668
3149.64109,0.06605
3147.71234,0.06540
3145.78360,0.06504
3143.85485,0.06515
3141.92611,0.06531
3139.99736,0.06516
3138.06861,0.06493
3136.13987,0.06510
3134.21112,0.06591
3132.28238,0.06694
3130.35363,0.06750
3128.42489,0.06750
3126.49614,0.06745
3124.56740,0.06783
3122.63865,0.06860
3120.70991,0.06958
3118.78116,0.07055
3116.85242,0.07108
3114.92367,0.07100
3112.99493,0.07095
3111.06618,0.07144
3109.13744,0.07204
3107.20869,0.07223
3105.27994,0.07211
3103.35120,0.07199
3101.42245,0.07196
3099.49371,0.07192
3097.56496,0.07196
3095.63622,0.07210
3093.70747,0.07213
3091.77873,0.07203
3089.84998,0.07200
3087.92124,0.07201
3085.99249,0.07201
3084.06375,0.07207
3082.13500,0.07210
3080.20626,0.07197
3078.27751,0.07173
3076.34877,0.07138
3074.42002,0.07092
3072.49127,0.07035
3070.56253,0.06967
3068.63378,0.06902
3066.70504,0.06859
3064.77629,0.06824
3062.84755,0.06770
3060.91880,0.06684
3058.99006,0.06604
3057.06131,0.06549
3055.13257,0.06500
3053.20382,0.06465
3051.27508,0.06441
3049.34633,0.06384
3047.41759,0.06297
3045.48884,0.06219
3043.56009,0.06163
3041.63135,0.06121
3039.70260,0.06076
3037.77386,0.06006
3035.84511,0.05899
3033.91637,0.05777
3031.98762,0.05661
3030.05888,0.05547
3028.13013,0.05424
3026.20139,0.05287
3024.27264,0.05126
3022.34390,0.04945
3020.41515,0.04756
3018.48641,0.04567
3016.55766,0.04391
3014.62892,0.04227
3012.70017,0.04063
3010.77142,0.03890
3008.84268,0.03711
3006.91393,0.03523
3004.98519,0.03323
3003.05644,0.03121
3001.12770,0.02934
2999.19895,0.02767
2997.27021,0.02611
2995.34146,0.02456
2993.41272,0.02292
2991.48397,0.02135
2989.55523,0.02008
2987.62648,0.01889
2985.69774,0.01775
2983.76899,0.01706
2981.84025,0.01668
2979.91150,0.01627
2977.98275,0.01593
2976.05401,0.01575
2974.12526,0.01555
2972.19652,0.01535
2970.26777,0.01526
2968.33903,0.01514
2966.41028,0.01502
2964.48154,0.01526
2962.55279,0.01599
2960.62405,0.01678
2958.69530,0.01720
2956.76656,0.01736
2954.83781,0.01750
2952.90907,0.01761
2950.98032,0.01769
2949.05157,0.01782
2947.12283,0.01795
2945.19408,0.01797
2943.26534,0.01787
2941.33659,0.01769
2939.40785,0.01733
2937.47910,0.01685
2935.55036,0.01674
2933.62161,0.01707
2931.69287,0.01731
2929.76412,0.01722
2927.83538,0.01703
2925.90663,0.01700
2923.97789,0.01717
2922.04914,0.01749
2920.12040,0.01794
2918.19165,0.01852
2916.26290,0.01902
2914.33416,0.01921
2912.40541,0.01903
2910.47667,0.01872
2908.54792,0.01863
2906.61918,0.01875
2904.69043,0.01882
2902.76169,0.01879
2900.83294,0.01881
2898.90420,0.01881
2896.97545,0.01863
2895.04671,0.01856
2893.11796,0.01879
2891.18922,0.01898
2889.26047,0.01887
2887.33172,0.01865
2885.40298,0.01863
2883.47423,0.01880
2881.54549,0.01893
2879.61674,0.01899
2877.68800,0.01900
2875.75925,0.01889
2873.83051,0.01869
2871.90176,0.01860
2869.97302,0.01868
2868.04427,0.01877
2866.11553,0.01883
2864.18678,0.01894
2862.25804,0.01898
2860.32929,0.01891
2858.40055,0.01888
2856.47180,0.01891
2854.54305,0.01885
2852.61431,0.01870
2850.68556,0.01857
2848.75682,0.01852
2846.82807,0.01856
2844.89933,0.01860
2842.97058,0.01861
2841.04184,0.01879
2839.11309,0.01918
2837.18435,0.01953
2835.25560,0.01952
2833.32686,0.01932
2831.39811,0.01931
2829.46937,0.01955
2827.54062,0.01995
2825.61188,0.02045
2823.68313,0.02084
2821.75438,0.02105
2819.82564,0.02143
2817.89689,0.02223
2815.96815,0.02307
2814.03940,0.02360
2812.11066,0.02397
2810.18191,0.02434
2808.25317,0.02477
2806.32442,0.02554
2804.39568,0.02682
2802.46693,0.02820
2800.53819,0.02923
2798.60944,0.02992
2796.68070,0.03048
2794.75195,0.03116
2792.82320,0.03214
2790.89446,0.03357
2788.96571,0.03548
2787.03697,0.03778
2785.10822,0.04032
2783.17948,0.04272
2781.25073,0.04472
2779.32199,0.04649
2777.39324,0.04815
2775.46450,0.04952
2773.53575,0.05054
2771.60701,0.05134
2769.67826,0.05198
2767.74952,0.05242
2765.82077,0.05274
2763.89203,0.05307
2761.96328,0.05357
2760.03453,0.05428
2758.10579,0.05507
2756.17704,0.05577
2754.24830,0.05624
2752.31955,0.05644
2750.39081,0.05635
2748.46206,0.05608
2746.53332,0.05552
2744.60457,0.05446
2742.67583,0.05295
2740.74708,0.05135
2738.81834,0.04982
2736.88959,0.04813
2734.96085,0.04649
2733.03210,0.04529
2731.10336,0.04406
2729.17461,0.04231
2727.24586,0.04038
2725.31712,0.03873
2723.38837,0.03766
2721.45963,0.03771
2719.53088,0.03905
2717.60214,0.04109
2715.67339,0.04334
2713.74465,0.04566
2711.81590,0.04789
2709.88716,0.04982
2707.95841,0.05134
2706.02967,0.05276
2704.10092,0.05435
2702.17218,0.05584
2700.24343,0.05685
2698.31468,0.05743
2696.38594,0.05777
2694.45719,0.05786
2692.52845,0.05769
2690.59970,0.05749
2688.67096,0.05737
2686.74221,0.05717
2684.81347,0.05699
2682.88472,0.05699
2680.95598,0.05709
2679.02723,0.05723
2677.09849,0.05746
2675.16974,0.05792
2673.24100,0.05854
2671.31225,0.05914
2669.38351,0.05958
2667.45476,0.05968
2665.52601,0.05942
2663.59727,0.05898
2661.66852,0.05864
2659.73978,0.05867
2657.81103,0.05918
2655.88229,0.06014
2653.95354,0.06141
2652.02480,0.06268
2650.09605,0.06371
2648.16731,0.06451
2646.23856,0.06521
2644.30982,0.06589
2642.38107,0.06666
2640.45233,0.06758
2638.52358,0.06858
2636.59484,0.06932
2634.66609,0.06943
2632.73734,0.06899
2630.80860,0.06824
2628.87985,0.06734
2626.95111,0.06647
2625.02236,0.06563
2623.09362,0.06466
2621.16487,0.06365
2619.23613,0.06299
2617.30738,0.06286
2615.37864,0.06308
2613.44989,0.06365
2611.52115,0.06478
2609.59240,0.06635
2607.66366,0.06809
2605.73491,0.06982
2603.80616,0.07142
2601.87742,0.07279
2599.94867,0.07377
2598.01993,0.07418
2596.09118,0.07391
2594.16244,0.07311
2592.23369,0.07195
2590.30495,0.07031
2588.37620,0.06818
2586.44746,0.06604
2584.51871,0.06438
2582.58997,0.06348
2580.66122,0.06353
2578.73248,0.06448
2576.80373,0.06604
2574.87499,0.06797
2572.94624,0.06996
2571.01749,0.07189
2569.08875,0.07376
2567.16000,0.07550
2565.23126,0.07696
2563.30251,0.07793
2561.37377,0.07837
2559.44502,0.07864
2557.51628,0.07907
2555.58753,0.07966
2553.65879,0.08033
2551.73004,0.08100
2549.80130,0.08181
2547.87255,0.08301
2545.94381,0.08436
2544.01506,0.08539
2542.08631,0.08603
2540.15757,0.08644
2538.22882,0.08683
2536.30008,0.08742
2534.37133,0.08825
2532.44259,0.08919
2530.51384,0.09010
2528.58510,0.09092
2526.65635,0.09179
2524.72761,0.09284
2522.79886,0.09401
2520.87012,0.09519
2518.94137,0.09633
2517.01263,0.09731
2515.08388,0.09805
2513.15514,0.09862
2511.22639,0.09913
2509.29764,0.09961
2507.36890,0.09998
2505.44015,0.10029
2503.51141,0.10057
2501.58266,0.10073
2499.65392,0.10064
2497.72517,0.10034
2495.79643,0.10000
2493.86768,0.09978
2491.93894,0.09981
2490.01019,0.10015
2488.08145,0.10069
2486.15270,0.10120
2484.22396,0.10168
2482.29521,0.10225
2480.36647,0.10292
2478.43772,0.10353
2476.50897,0.10386
2474.58023,0.10411
2472.65148,0.10464
2470.72274,0.10529
2468.79399,0.10570
2466.86525,0.10587
2464.93650,0.10592
2463.00776,0.10575
2461.07901,0.10534
2459.15027,0.10482
2457.22152,0.10434
2455.29278,0.10406
2453.36403,0.10394
2451.43529,0.10378
2449.50654,0.10348
2447.57779,0.10313
2445.64905,0.10279
2443.72030,0.10223
2441.79156,0.10129
2439.86281,0.10015
2437.93407,0.09895
2436.00532,0.09772
2434.07658,0.09651
2432.14783,0.09554
2430.21909,0.09499
2428.29034,0.09492
2426.36160,0.09531
2424.43285,0.09606
2422.50411,0.09703
2420.57536,0.09806
2418.64662,0.09900
2416.71787,0.09977
2414.78912,0.10034
2412.86038,0.10064
2410.93163,0.10055
2409.00289,0.10016
2407.07414,0.09977
2405.14540,0.09946
2403.21665,0.09914
2401.28791,0.09884
2399.35916,0.09871
2397.43042,0.09878
2395.50167,0.09913
2393.57293,0.09987
2391.64418,0.10077
2389.71544,0.10144
2387.78669,0.10189
2385.85795,0.10222
2383.92920,0.10236
2382.00045,0.10237
2380.07171,0.10237
2378.14296,0.10236
2376.21422,0.10224
2374.28547,0.10206
2372.35673,0.10195
2370.42798,0.10185
2368.49924,0.10160
2366.57049,0.10116
2364.64175,0.10069
2362.71300,0.10023
2360.78426,0.09995
2358.85551,0.10026
2356.92677,0.10098
2354.99802,0.10166
2353.06927,0.10238
2351.14053,0.10328
2349.21178,0.10421
2347.28304,0.10514
2345.35429,0.10603
2343.42555,0.10679
2341.49680,0.10741
2339.56806,0.10783
2337.63931,0.10791
2335.71057,0.10788
2333.78182,0.10816
2331.85308,0.10879
2329.92433,0.10947
2327.99559,0.11008
2326.06684,0.11076
2324.13810,0.11159
2322.20935,0.11262
2320.28060,0.11373
2318.35186,0.11460
2316.42311,0.11512
2314.49437,0.11550
2312.56562,0.11591
2310.63688,0.11630
2308.70813,0.11660
2306.77939,0.11670
2304.85064,0.11658
2302.92190,0.11643
2300.99315,0.11628
2299.06441,0.11611
2297.13566,0.11606
2295.20692,0.11628
2293.27817,0.11677
2291.34943,0.11733
2289.42068,0.11765
2287.49193,0.11773
2285.56319,0.11783
2283.63444,0.11791
2281.70570,0.11776
2279.77695,0.11740
2277.84821,0.11683
2275.91946,0.11604
2273.99072,0.11508
2272.06197,0.11414
2270.13323,0.11332
2268.20448,0.11275
2266.27574,0.11241
2264.34699,0.11205
2262.41825,0.11146
2260.48950,0.11072
2258.56075,0.11000
2256.63201,0.10945
2254.70326,0.10930
2252.77452,0.10979
2250.84577,0.11097
2248.91703,0.11257
2246.98828,0.11415
2245.05954,0.11533
2243.13079,0.11615
2241.20205,0.11685
2239.27330,0.11726
2237.34456,0.11712
2235.41581,0.11671
2233.48707,0.11635
2231.55832,0.11601
2229.62958,0.11580
2227.70083,0.11602
2225.77208,0.11659
2223.84334,0.11723
2221.91459,0.11779
2219.98585,0.11818
2218.05710,0.11841
2216.12836,0.11847
2214.19961,0.11836
2212.27087,0.11825
2210.34212,0.11819
2208.41338,0.11787
2206.48463,0.11726
2204.55589,0.11668
2202.62714,0.11630
2200.69840,0.11601
2198.76965,0.11565
2196.84090,0.11530
2194.91216,0.11509
2192.98341,0.11494
2191.05467,0.11483
2189.12592,0.11480
2187.19718,0.11474
2185.26843,0.11462
2183.33969,0.11451
2181.41094,0.11441
2179.48220,0.11422
2177.55345,0.11394
2175.62471,0.11364
2173.69596,0.11334
2171.76722,0.11314
2169.83847,0.11333
2167.90973,0.11394
2165.98098,0.11478
2164.05223,0.11586
2162.12349,0.11702
2160.19474,0.11794
2158.26600,0.11852
2156.33725,0.11896
2154.40851,0.11947
2152.47976,0.12017
2150.55102,0.12110
2148.62227,0.12203
2146.69353,0.12252
2144.76478,0.12245
2142.83604,0.12193
2140.90729,0.12103
2138.97855,0.11988
2137.04980,0.11863
2135.12106,0.11742
2133.19231,0.11646
2131.26356,0.11600
2129.33482,0.11638
2127.40607,0.11775
2125.47733,0.11987
2123.54858,0.12223
2121.61984,0.12452
2119.69109,0.12657
2117.76235,0.12824
2115.83360,0.12947
2113.90486,0.13031
2111.97611,0.13081
2110.04737,0.13106
2108.11862,0.13127
2106.18988,0.13156
2104.26113,0.13185
2102.33238,0.13202
2100.40364,0.13197
2098.47489,0.13180
2096.54615,0.13174
2094.61740,0.13179
2092.68866,0.13178
2090.75991,0.13178
2088.83117,0.13197
2086.90242,0.13244
2084.97368,0.13323
2083.04493,0.13420
2081.11619,0.13525
2079.18744,0.13639
2077.25870,0.13750
2075.32995,0.13844
2073.40121,0.13921
2071.47246,0.13979
2069.54371,0.14023
2067.61497,0.14046
2065.68622,0.14049
2063.75748,0.14055
2061.82873,0.14072
2059.89999,0.14073
2057.97124,0.14054
2056.04250,0.14040
2054.11375,0.14031
2052.18501,0.14005
2050.25626,0.13967
2048.32752,0.13947
2046.39877,0.13962
2044.47003,0.13993
2042.54128,0.14009
2040.61254,0.14008
2038.68379,0.13999
2036.75504,0.13980
2034.82630,0.13952
2032.89755,0.13925
2030.96881,0.13904
2029.04006,0.13895
2027.11132,0.13910
2025.18257,0.13949
2023.25383,0.13995
2021.32508,0.14030
2019.39634,0.14053
2017.46759,0.14075
2015.53885,0.14082
2013.61010,0.14076
2011.68136,0.14078
2009.75261,0.14091
2007.82386,0.14102
2005.89512,0.14110
2003.96637,0.14108
2002.03763,0.14085
2000.10888,0.14050
1998.18014,0.14013
1996.25139,0.13982
1994.32265,0.13972
1992.39390,0.13977
1990.46516,0.13976
1988.53641,0.13975
1986.60767,0.13997
1984.67892,0.14029
1982.75018,0.14053
1980.82143,0.14073
1978.89269,0.14093
1976.96394,0.14106
1975.03519,0.14105
1973.10645,0.14095
1971.17770,0.14082
1969.24896,0.14059
1967.32021,0.14017
1965.39147,0.13968
1963.46272,0.13930
1961.53398,0.13902
1959.60523,0.13881
1957.67649,0.13866
1955.74774,0.13853
1953.81900,0.13847
1951.89025,0.13852
1949.96151,0.13867
1948.03276,0.13880
1946.10402,0.13884
1944.17527,0.13882
1942.24652,0.13874
1940.31778,0.13858
1938.38903,0.13846
1936.46029,0.13846
1934.53154,0.13856
1932.60280,0.13870
1930.67405,0.13866
1928.74531,0.13826
1926.81656,0.13771
1924.88782,0.13730
1922.95907,0.13704
1921.03033,0.13676
1919.10158,0.13645
1917.17284,0.13614
1915.24409,0.13591
1913.31534,0.13582
1911.38660,0.13577
1909.45785,0.13561
1907.52911,0.13535
1905.60036,0.13496
1903.67162,0.13456
1901.74287,0.13422
1899.81413,0.13375
1897.88538,0.13304
1895.95664,0.13221
1894.02789,0.13151
1892.09915,0.13130
1890.17040,0.13182
1888.24166,0.13287
1886.31291,0.13400
1884.38417,0.13497
1882.45542,0.13566
1880.52667,0.13610
1878.59793,0.13640
1876.66918,0.13660
1874.74044,0.13675
1872.81169,0.13685
1870.88295,0.13684
1868.95420,0.13675
1867.02546,0.13663
1865.09671,0.13645
1863.16797,0.13619
1861.23922,0.13583
1859.31048,0.13540
1857.38173,0.13500
1855.45299,0.13472
1853.52424,0.13449
1851.59549,0.13418
1849.66675,0.13387
1847.73800,0.13377
1845.80926,0.13372
1843.88051,0.13325
1841.95177,0.13242
1840.02302,0.13171
1838.09428,0.13114
1836.16553,0.13051
1834.23679,0.12993
1832.30804,0.12961
1830.37930,0.12965
1828.45055,0.13003
1826.52181,0.13066
1824.59306,0.13149
1822.66432,0.13230
1820.73557,0.13286
1818.80682,0.13321
1816.87808,0.13343
1814.94933,0.13355
1813.02059,0.13375
1811.09184,0.13405
1809.16310,0.13417
1807.23435,0.13400
1805.30561,0.13367
1803.37686,0.13329
1801.44812,0.13282
1799.51937,0.13221
1797.59063,0.13160
1795.66188,0.13112
1793.73314,0.13078
1791.80439,0.13050
1789.87565,0.13023
1787.94690,0.12987
1786.01815,0.12936
1784.08941,0.12893
1782.16066,0.12872
1780.23192,0.12847
1778.30317,0.12797
1776.37443,0.12739
1774.44568,0.12691
1772.51694,0.12632
1770.58819,0.12542
1768.65945,0.12439
1766.73070,0.12332
1764.80196,0.12223
1762.87321,0.12102
1760.94447,0.11960
1759.01572,0.11811
1757.08697,0.11649
1755.15823,0.11452
1753.22948,0.11232
1751.30074,0.10988
1749.37199,0.10699
1747.44325,0.10387
1745.51450,0.10107
1743.58576,0.09910
1741.65701,0.09812
1739.72827,0.09800
1737.79952,0.09856
1735.87078,0.09956
1733.94203,0.10070
1732.01329,0.10170
1730.08454,0.10245
1728.15580,0.10309
1726.22705,0.10376
1724.29830,0.10447
1722.36956,0.10513
1720.44081,0.10567
1718.51207,0.10588
1716.58332,0.10569
1714.65458,0.10533
1712.72583,0.10486
1710.79709,0.10443
1708.86834,0.10426
1706.93960,0.10403
1705.01085,0.10340
1703.08211,0.10281
1701.15336,0.10254
1699.22462,0.10233
1697.29587,0.10199
1695.36713,0.10143
1693.43838,0.10091
1691.50963,0.10068
1689.58089,0.10065
1687.65214,0.10077
1685.72340,0.10102
1683.79465,0.10129
1681.86591,0.10143
1679.93716,0.10150
1678.00842,0.10164
1676.07967,0.10181
1674.15093,0.10193
1672.22218,0.10209
1670.29344,0.10230
1668.36469,0.10231
1666.43595,0.10205
1664.50720,0.10169
1662.57845,0.10129
1660.64971,0.10087
1658.72096,0.10044
1656.79222,0.09999
1654.86347,0.09911
1652.93473,0.09691
1651.00598,0.09420
1649.07724,0.09220
1647.14849,0.09074
1645.21975,0.09023
1643.29100,0.09087
1641.36226,0.09197
1639.43351,0.09304
1637.50477,0.09402
1635.57602,0.09485
1633.64728,0.09535
1631.71853,0.09551
1629.78978,0.09549
1627.86104,0.09546
1625.93229,0.09560
1624.00355,0.09581
1622.07480,0.09604
1620.14606,0.09646
1618.21731,0.09697
1616.28857,0.09721
1614.35982,0.09705
1612.43108,0.09658
1610.50233,0.09598
1608.57359,0.09576
1606.64484,0.09625
1604.71610,0.09734
1602.78735,0.09864
1600.85861,0.09992
1598.92986,0.10116
1597.00111,0.10215
1595.07237,0.10265
1593.14362,0.10290
1591.21488,0.10327
1589.28613,0.10376
1587.35739,0.10419
1585.42864,0.10445
1583.49990,0.10455
1581.57115,0.10457
1579.64241,0.10447
1577.71366,0.10421
1575.78492,0.10381
1573.85617,0.10344
1571.92743,0.10316
1569.99868,0.10273
1568.06993,0.10204
1566.14119,0.10126
1564.21244,0.10044
1562.28370,0.09962
1560.35495,0.09874
1558.42621,0.09773
1556.49746,0.09689
1554.56872,0.09623
1552.63997,0.09564
1550.71123,0.09515
1548.78248,0.09461
1546.85374,0.09387
1544.92499,0.09298
1542.99625,0.09206
1541.06750,0.09119
1539.13876,0.09035
1537.21001,0.08974
1535.28126,0.08936
1533.35252,0.08899
1531.42377,0.08860
1529.49503,0.08844
1527.56628,0.08864
1525.63754,0.08908
1523.70879,0.08951
1521.78005,0.08961
1519.85130,0.08925
1517.92256,0.08855
1515.99381,0.08749
1514.06507,0.08603
1512.13632,0.08440
1510.20758,0.08283
1508.27883,0.08114
1506.35008,0.07903
1504.42134,0.07691
1502.49259,0.07488
1500.56385,0.07248
1498.63510,0.06972
1496.70636,0.06671
1494.77761,0.06373
1492.84887,0.06103
1490.92012,0.05811
1488.99138,0.05453
1487.06263,0.05061
1485.13389,0.04662
1483.20514,0.04251
1481.27640,0.03817
1479.34765,0.03377
1477.41891,0.02948
1475.49016,0.02540
1473.56141,0.02179
1471.63267,0.01910
1469.70392,0.01765
1467.77518,0.01701
1465.84643,0.01665
1463.91769,0.01645
1461.98894,0.01656
1460.06020,0.01689
1458.13145,0.01711
1456.20271,0.01702
1454.27396,0.01691
1452.34522,0.01718
1450.41647,0.01769
1448.48773,0.01814
1446.55898,0.01851
1444.63024,0.01900
1442.70149,0.01965
1440.77274,0.02040
1438.84400,0.02117
1436.91525,0.02207
1434.98651,0.02394
1433.05776,0.02764
1431.12902,0.03282
1429.20027,0.03809
1427.27153,0.04228
1425.34278,0.04539
1423.41404,0.04774
1421.48529,0.04962
1419.55655,0.05141
1417.62780,0.05295
1415.69906,0.05396
1413.77031,0.05465
1411.84156,0.05515
1409.91282,0.05544
1407.98407,0.05551
1406.05533,0.05519
1404.12658,0.05441
1402.19784,0.05336
1400.26909,0.05211
1398.34035,0.05046
1396.41160,0.04829
1394.48286,0.04551
1392.55411,0.04208
1390.62537,0.03795
1388.69662,0.03286
1386.76788,0.02710
1384.83913,0.02199
1382.91039,0.01855
1380.98164,0.01690
1379.05289,0.01664
1377.12415,0.01724
1375.19540,0.01821
1373.26666,0.01931
1371.33791,0.02068
1369.40917,0.02255
1367.48042,0.02467
1365.55168,0.02604
1363.62293,0.02601
1361.69419,0.02511
1359.76544,0.02437
1357.83670,0.02476
1355.90795,0.02695
1353.97921,0.03071
1352.05046,0.03520
1350.12172,0.03986
1348.19297,0.04454
1346.26422,0.04914
1344.33548,0.05336
1342.40673,0.05680
1340.47799,0.05915
1338.54924,0.06013
1336.62050,0.05972
1334.69175,0.05803
1332.76301,0.05538
1330.83426,0.05284
1328.90552,0.05188
1326.97677,0.05322
1325.04803,0.05663
1323.11928,0.06109
1321.19054,0.06517
1319.26179,0.06812
1317.33304,0.07006
1315.40430,0.07113
1313.47555,0.07095
1311.54681,0.06848
1309.61806,0.06268
1307.68932,0.05402
1305.76057,0.04591
1303.83183,0.04269
1301.90308,0.04468
1299.97434,0.04817
1298.04559,0.05065
1296.11685,0.05276
1294.18810,0.05581
1292.25936,0.05998
1290.33061,0.06446
1288.40187,0.06835
1286.47312,0.07135
1284.54437,0.07373
1282.61563,0.07578
1280.68688,0.07750
1278.75814,0.07875
1276.82939,0.07957
1274.90065,0.08003
1272.97190,0.08001
1271.04316,0.07925
1269.11441,0.07778
1267.18567,0.07585
1265.25692,0.07317
1263.32818,0.06916
1261.39943,0.06352
1259.47069,0.05642
1257.54194,0.04958
1255.61320,0.04639
1253.68445,0.04924
1251.75570,0.05666
1249.82696,0.06472
1247.89821,0.07088
1245.96947,0.07505
1244.04072,0.07798
1242.11198,0.08021
1240.18323,0.08201
1238.25449,0.08345
1236.32574,0.08443
1234.39700,0.08484
1232.46825,0.08466
1230.53951,0.08401
1228.61076,0.08296
1226.68202,0.08132
1224.75327,0.07857
1222.82452,0.07487
1220.89578,0.07177
1218.96703,0.07093
1217.03829,0.07255
1215.10954,0.07567
1213.18080,0.07906
1211.25205,0.08154
1209.32331,0.08276
1207.39456,0.08331
1205.46582,0.08370
1203.53707,0.08388
1201.60833,0.08378
1199.67958,0.08369
1197.75084,0.08378
1195.82209,0.08383
1193.89335,0.08368
1191.96460,0.08345
1190.03585,0.08305
1188.10711,0.08206
1186.17836,0.08002
1184.24962,0.07684
1182.32087,0.07253
1180.39213,0.06688
1178.46338,0.05983
1176.53464,0.05177
1174.60589,0.04366
1172.67715,0.03665
1170.74840,0.03152
1168.81966,0.02854
1166.89091,0.02759
1164.96217,0.02809
1163.03342,0.02922
1161.10467,0.03060
1159.17593,0.03214
1157.24718,0.03345
1155.31844,0.03436
1153.38969,0.03554
1151.46095,0.03779
1149.53220,0.04123
1147.60346,0.04549
1145.67471,0.05022
1143.74597,0.05537
1141.81722,0.06070
1139.88848,0.06590
1137.95973,0.07080
1136.03099,0.07508
1134.10224,0.07829
1132.17350,0.08047
1130.24475,0.08190
1128.31600,0.08280
1126.38726,0.08323
1124.45851,0.08333
1122.52977,0.08326
1120.60102,0.08295
1118.67228,0.08223
1116.74353,0.08132
1114.81479,0.08043
1112.88604,0.07901
1110.95730,0.07657
1109.02855,0.07305
1107.09981,0.06840
1105.17106,0.06333
1103.24232,0.06007
1101.31357,0.06075
1099.38483,0.06521
1097.45608,0.07102
1095.52733,0.07618
1093.59859,0.08047
1091.66984,0.08422
1089.74110,0.08746
1087.81235,0.09016
1085.88361,0.09224
1083.95486,0.09364
1082.02612,0.09478
1080.09737,0.09608
1078.16863,0.09735
1076.23988,0.09825
1074.31114,0.09879
1072.38239,0.09933
1070.45365,0.09988
1068.52490,0.10020
1066.59615,0.10031
1064.66741,0.10024
1062.73866,0.09976
1060.80992,0.09877
1058.88117,0.09740
1056.95243,0.09575
1055.02368,0.09383
1053.09494,0.09136
1051.16619,0.08800
1049.23745,0.08332
1047.30870,0.07744
1045.37996,0.07260
1043.45121,0.07208
1041.52247,0.07614
1039.59372,0.08145
1037.66498,0.08525
1035.73623,0.08768
1033.80748,0.08996
1031.87874,0.09223
1029.94999,0.09386
1028.02125,0.09448
1026.09250,0.09415
1024.16376,0.09314
1022.23501,0.09160
1020.30627,0.08963
1018.37752,0.08738
1016.44878,0.08472
1014.52003,0.08115
1012.59129,0.07652
1010.66254,0.07127
1008.73380,0.06537
1006.80505,0.05835
1004.87631,0.05044
1002.94756,0.04271
1001.01881,0.03647
999.09007,0.03294
997.16132,0.03278
995.23258,0.03609
993.30383,0.04221
991.37509,0.04949
989.44634,0.05599
987.51760,0.06030
985.58885,0.06161
983.66011,0.05940
981.73136,0.05348
979.80262,0.04474
977.87387,0.03570
975.94513,0.02915
974.01638,0.02637
972.08763,0.02738
970.15889,0.03219
968.23014,0.04075
966.30140,0.05182
964.37265,0.06314
962.44391,0.07313
960.51516,0.08143
958.58642,0.08830
956.65767,0.09421
954.72893,0.09914
952.80018,0.10263
950.87144,0.10478
948.94269,0.10581
947.01395,0.10514
945.08520,0.10217
943.15646,0.09747
941.22771,0.09370
939.29896,0.09467
937.37022,0.10147
935.44147,0.11068
933.51273,0.11820
931.58398,0.12288
929.65524,0.12555
927.72649,0.12708
925.79775,0.12794
923.86900,0.12806
921.94026,0.12759
920.01151,0.12696
918.08277,0.12606
916.15402,0.12462
914.22528,0.12271
912.29653,0.12013
910.36779,0.11643
908.43904,0.11099
906.51029,0.10237
904.58155,0.08971
902.65280,0.07525
900.72406,0.06408
898.79531,0.06120
896.86657,0.06815
894.93782,0.08140
893.00908,0.09484
891.08033,0.10433
889.15159,0.10963
887.22284,0.11267
885.29410,0.11479
883.36535,0.11624
881.43661,0.11703
879.50786,0.11685
877.57911,0.11565
875.65037,0.11439
873.72162,0.11369
871.79288,0.11330
869.86413,0.11263
867.93539,0.11134
866.00664,0.10976
864.07790,0.10794
862.14915,0.10542
860.22041,0.10217
858.29166,0.09858
856.36292,0.09475
854.43417,0.09034
852.50543,0.08496
850.57668,0.07838
848.64794,0.07024
846.71919,0.06029
844.79044,0.04981
842.86170,0.04171
840.93295,0.03897
839.00421,0.04313
837.07546,0.05276
835.14672,0.06413
833.21797,0.07412
831.28923,0.08178
829.36048,0.08769
827.43174,0.09255
825.50299,0.09624
823.57425,0.09868
821.64550,0.09997
819.71676,0.09918
817.78801,0.09547
815.85926,0.08865
813.93052,0.07883
812.00177,0.06807
810.07303,0.06055
808.14428,0.05973
806.21554,0.06620
804.28679,0.07695
802.35805,0.08732
800.42930,0.09521
798.50056,0.10151
796.57181,0.10713
794.64307,0.11228
792.71432,0.11727
790.78558,0.12211
788.85683,0.12680
786.92809,0.13173
784.99934,0.13684
783.07059,0.14134
781.14185,0.14477
779.21310,0.14718
777.28436,0.14858
775.35561,0.14906
773.42687,0.14908
771.49812,0.14905
769.56938,0.14934
767.64063,0.14994
765.71189,0.15040
763.78314,0.15053
761.85440,0.15059
759.92565,0.15076
757.99691,0.15090
756.06816,0.15084
754.13942,0.15107
752.21067,0.15182
750.28192,0.15250
748.35318,0.15280
746.42443,0.15274
744.49569,0.15235
742.56694,0.15161
740.63820,0.15060
738.70945,0.14968
736.78071,0.14888
734.85196,0.14772
732.92322,0.14587
730.99447,0.14386
729.06573,0.14204
727.13698,0.13973
725.20824,0.13670
723.27949,0.13382
721.35074,0.13297
719.42200,0.13554
717.49325,0.14000
715.56451,0.14353
713.63576,0.14546
711.70702,0.14672
709.77827,0.14769
707.84953,0.14830
705.92078,0.14877
703.99204,0.14922
702.06329,0.14962
700.13455,0.14992
698.20580,0.14987
696.27706,0.14976
694.34831,0.15030
692.41957,0.15115
690.49082,0.15157
688.56207,0.15159
686.63333,0.15163
684.70458,0.15181
682.77584,0.15219
680.84709,0.15250
678.91835,0.15244
676.98960,0.15219
675.06086,0.15200
673.13211,0.15172
671.20337,0.15143
669.27462,0.15132
667.34588,0.15130
665.41713,0.15151
663.48839,0.15214
661.55964,0.15282
659.63090,0.15307
657.70215,0.15283
655.77340,0.15269
653.84466,0.15304
651.91591,0.15322
649.98717,0.15292
648.05842,0.15280
646.12968,0.15303
644.20093,0.15328
642.27219,0.15366
640.34344,0.15431
638.41470,0.15498
636.48595,0.15542
634.55721,0.15547
632.62846,0.15514
630.69972,0.15451
628.77097,0.15421
626.84222,0.15502
624.91348,0.15570
622.98473,0.15465
621.05599,0.15316
619.12724,0.15309
617.19850,0.15347
615.26975,0.15301
613.34101,0.15238
611.41226,0.15213
609.48352,0.15236
607.55477,0.15302
605.62603,0.15342
603.69728,0.15380
601.76854,0.15466
599.83979,0.15471
