7497.03301,0.55096
7495.10426,0.55143
7493.17552,0.55530
7491.24677,0.55885
7489.31803,0.56094
7487.38928,0.56067
7485.46054,0.56035
7483.53179,0.56087
7481.60305,0.56110
7479.67430,0.56393
7477.74556,0.57092
7475.81681,0.57698
7473.88807,0.57674
7471.95932,0.57243
7470.03057,0.56898
7468.10183,0.56688
7466.17308,0.56411
7464.24434,0.56120
7462.31559,0.56125
7460.38685,0.56309
7458.45810,0.56172
7456.52936,0.55714
7454.60061,0.55423
7452.67187,0.55337
7450.74312,0.55217
7448.81438,0.55339
7446.88563,0.55707
7444.95689,0.55749
7443.02814,0.55539
7441.09940,0.55519
7439.17065,0.55569
7437.24190,0.55415
7435.31316,0.55139
7433.38441,0.54986
7431.45567,0.55073
7429.52692,0.55451
7427.59818,0.55886
7425.66943,0.55937
7423.74069,0.55679
7421.81194,0.55414
7419.88320,0.55192
7417.95445,0.55059
7416.02571,0.54898
7414.09696,0.54615
7412.16822,0.54600
7410.23947,0.54945
7408.31073,0.55112
7406.38198,0.54976
7404.45323,0.54974
7402.52449,0.55345
7400.59574,0.55757
7398.66700,0.55670
7396.73825,0.55209
7394.80951,0.54854
7392.88076,0.54681
7390.95202,0.54647
7389.02327,0.54701
7387.09453,0.54648
7385.16578,0.54485
7383.23704,0.54366
7381.30829,0.54218
7379.37955,0.54131
7377.45080,0.54261
7375.52205,0.54308
7373.59331,0.54198
7371.66456,0.54365
7369.73582,0.54858
7367.80707,0.55138
7365.87833,0.55053
7363.94958,0.55058
7362.02084,0.55064
7360.09209,0.54673
7358.16335,0.54249
7356.23460,0.54338
7354.30586,0.54799
7352.37711,0.55116
7350.44837,0.55069
7348.51962,0.54768
7346.59088,0.54319
7344.66213,0.53976
7342.73338,0.54013
7340.80464,0.54201
7338.87589,0.54140
7336.94715,0.53934
7335.01840,0.53897
7333.08966,0.53981
7331.16091,0.53977
7329.23217,0.53994
7327.30342,0.54112
7325.37468,0.54161
7323.44593,0.54287
7321.51719,0.54626
7319.58844,0.54793
7317.65970,0.54727
7315.73095,0.54783
7313.80221,0.54777
7311.87346,0.54363
7309.94471,0.53743
7308.01597,0.53293
7306.08722,0.53243
7304.15848,0.53562
7302.22973,0.53873
7300.30099,0.53883
7298.37224,0.53718
7296.44350,0.53650
7294.51475,0.53753
7292.58601,0.53746
7290.65726,0.53490
7288.72852,0.53333
7286.79977,0.53307
7284.87103,0.53182
7282.94228,0.53156
7281.01353,0.53320
7279.08479,0.53373
7277.15604,0.53200
7275.22730,0.53063
7273.29855,0.53090
7271.36981,0.53040
7269.44106,0.52945
7267.51232,0.53187
7265.58357,0.53764
7263.65483,0.54283
7261.72608,0.54463
7259.79734,0.54334
7257.86859,0.53982
7255.93985,0.53597
7254.01110,0.53415
7252.08236,0.53230
7250.15361,0.52924
7248.22486,0.52832
7246.29612,0.52909
7244.36737,0.52732
7242.43863,0.52402
7240.50988,0.52496
7238.58114,0.52933
7236.65239,0.52950
7234.72365,0.52510
7232.79490,0.52235
7230.86616,0.52313
7228.93741,0.52527
7227.00867,0.52679
7225.07992,0.52742
7223.15118,0.52849
7221.22243,0.52873
7219.29369,0.52525
7217.36494,0.51993
7215.43619,0.51670
7213.50745,0.51549
7211.57870,0.51378
7209.64996,0.51278
7207.72121,0.51566
7205.79247,0.51902
7203.86372,0.51811
7201.93498,0.51554
7200.00623,0.51461
7198.07749,0.51351
7196.14874,0.51076
7194.22000,0.50917
7192.29125,0.51116
7190.36251,0.51527
7188.43376,0.51819
7186.50501,0.51652
7184.57627,0.51030
7182.64752,0.50560
7180.71878,0.50711
7178.79003,0.51078
7176.86129,0.50956
7174.93254,0.50367
7173.00380,0.49963
7171.07505,0.49992
7169.14631,0.50213
7167.21756,0.50543
7165.28882,0.50822
7163.36007,0.50793
7161.43133,0.50563
7159.50258,0.50431
7157.57384,0.50446
7155.64509,0.50352
7153.71634,0.50109
7151.78760,0.49966
7149.85885,0.49875
7147.93011,0.49653
7146.00136,0.49416
7144.07262,0.49307
7142.14387,0.49351
7140.21513,0.49558
7138.28638,0.49793
7136.35764,0.49815
7134.42889,0.49564
7132.50015,0.49188
7130.57140,0.48799
7128.64266,0.48487
7126.71391,0.48348
7124.78516,0.48342
7122.85642,0.48404
7120.92767,0.48413
7118.99893,0.48247
7117.07018,0.48134
7115.14144,0.48203
7113.21269,0.48160
7111.28395,0.47989
7109.35520,0.47929
7107.42646,0.47833
7105.49771,0.47672
7103.56897,0.47734
7101.64022,0.47827
7099.71148,0.47659
7097.78273,0.47451
7095.85399,0.47368
7093.92524,0.47277
7091.99649,0.47187
7090.06775,0.47254
7088.13900,0.47399
7086.21026,0.47447
7084.28151,0.47410
7082.35277,0.47247
7080.42402,0.46888
7078.49528,0.46566
7076.56653,0.46522
7074.63779,0.46545
7072.70904,0.46325
7070.78030,0.46064
7068.85155,0.46117
7066.92281,0.46231
7064.99406,0.46073
7063.06532,0.45909
7061.13657,0.45973
7059.20782,0.46112
7057.27908,0.46089
7055.35033,0.45875
7053.42159,0.45633
7051.49284,0.45391
7049.56410,0.45269
7047.63535,0.45453
7045.70661,0.45683
7043.77786,0.45769
7041.84912,0.46070
7039.92037,0.46503
7037.99163,0.46359
7036.06288,0.45736
7034.13414,0.45307
7032.20539,0.45103
7030.27664,0.44906
7028.34790,0.44725
7026.41915,0.44646
7024.49041,0.44753
7022.56166,0.44779
7020.63292,0.44500
7018.70417,0.44399
7016.77543,0.44638
7014.84668,0.44577
7012.91794,0.44132
7010.98919,0.44035
7009.06045,0.44489
7007.13170,0.44758
7005.20296,0.44593
7003.27421,0.44541
7001.34547,0.44600
6999.41672,0.44408
6997.48797,0.44236
6995.55923,0.44432
6993.63048,0.44693
6991.70174,0.44598
6989.77299,0.44120
6987.84425,0.43689
6985.91550,0.43753
6983.98676,0.44108
6982.05801,0.44333
6980.12927,0.44334
6978.20052,0.44158
6976.27178,0.43895
6974.34303,0.43642
6972.41429,0.43500
6970.48554,0.43516
6968.55680,0.43582
6966.62805,0.43594
6964.69930,0.43676
6962.77056,0.43854
6960.84181,0.44001
6958.91307,0.44101
6956.98432,0.43948
6955.05558,0.43523
6953.12683,0.43317
6951.19809,0.43431
6949.26934,0.43427
6947.34060,0.43310
6945.41185,0.43443
6943.48311,0.43765
6941.55436,0.43982
6939.62562,0.43961
6937.69687,0.43841
6935.76812,0.43805
6933.83938,0.43698
6931.91063,0.43473
6929.98189,0.43376
6928.05314,0.43457
6926.12440,0.43530
6924.19565,0.43353
6922.26691,0.42888
6920.33816,0.42480
6918.40942,0.42460
6916.48067,0.42776
6914.55193,0.43135
6912.62318,0.43237
6910.69444,0.43161
6908.76569,0.43126
6906.83695,0.42976
6904.90820,0.42700
6902.97945,0.42585
6901.05071,0.42746
6899.12196,0.42970
6897.19322,0.43057
6895.26447,0.43084
6893.33573,0.43005
6891.40698,0.42722
6889.47824,0.42348
6887.54949,0.42008
6885.62075,0.41735
6883.69200,0.41542
6881.76326,0.41602
6879.83451,0.41865
6877.90577,0.41971
6875.97702,0.41830
6874.04828,0.41675
6872.11953,0.41796
6870.19078,0.42059
6868.26204,0.42048
6866.33329,0.41897
6864.40455,0.41929
6862.47580,0.42004
6860.54706,0.41916
6858.61831,0.41632
6856.68957,0.41370
6854.76082,0.41498
6852.83208,0.41834
6850.90333,0.41875
6848.97459,0.41700
6847.04584,0.41651
6845.11710,0.41677
6843.18835,0.41531
6841.25960,0.41263
6839.33086,0.41207
6837.40211,0.41421
6835.47337,0.41680
6833.54462,0.41876
6831.61588,0.41775
6829.68713,0.41332
6827.75839,0.41081
6825.82964,0.41165
6823.90090,0.41246
6821.97215,0.41200
6820.04341,0.41019
6818.11466,0.40887
6816.18592,0.41029
6814.25717,0.41268
6812.32843,0.41295
6810.39968,0.41036
6808.47093,0.40702
6806.54219,0.40553
6804.61344,0.40638
6802.68470,0.40843
6800.75595,0.40894
6798.82721,0.40768
6796.89846,0.40814
6794.96972,0.40912
6793.04097,0.40757
6791.11223,0.40521
6789.18348,0.40322
6787.25474,0.40118
6785.32599,0.39967
6783.39725,0.39888
6781.46850,0.39875
6779.53975,0.39936
6777.61101,0.39954
6775.68226,0.39818
6773.75352,0.39746
6771.82477,0.39848
6769.89603,0.39864
6767.96728,0.39761
6766.03854,0.39706
6764.10979,0.39655
6762.18105,0.39469
6760.25230,0.39247
6758.32356,0.39234
6756.39481,0.39352
6754.46607,0.39367
6752.53732,0.39315
6750.60858,0.39311
6748.67983,0.39372
6746.75108,0.39386
6744.82234,0.39111
6742.89359,0.38547
6740.96485,0.38124
6739.03610,0.38058
6737.10736,0.38047
6735.17861,0.37997
6733.24987,0.38139
6731.32112,0.38333
6729.39238,0.38289
6727.46363,0.38073
6725.53489,0.37819
6723.60614,0.37652
6721.67740,0.37614
6719.74865,0.37477
6717.81991,0.37225
6715.89116,0.37117
6713.96241,0.37152
6712.03367,0.37158
6710.10492,0.37041
6708.17618,0.36763
6706.24743,0.36503
6704.31869,0.36508
6702.38994,0.36677
6700.46120,0.36796
6698.53245,0.36760
6696.60371,0.36525
6694.67496,0.36294
6692.74622,0.36363
6690.81747,0.36638
6688.88873,0.36667
6686.95998,0.36261
6685.03123,0.35797
6683.10249,0.35638
6681.17374,0.35714
6679.24500,0.35914
6677.31625,0.36136
6675.38751,0.36107
6673.45876,0.35891
6671.53002,0.35821
6669.60127,0.35899
6667.67253,0.36051
6665.74378,0.36242
6663.81504,0.36310
6661.88629,0.36238
6659.95755,0.36171
6658.02880,0.36167
6656.10006,0.36167
6654.17131,0.36060
6652.24256,0.35829
6650.31382,0.35700
6648.38507,0.35858
6646.45633,0.36057
6644.52758,0.36069
6642.59884,0.36172
6640.67009,0.36432
6638.74135,0.36495
6636.81260,0.36309
6634.88386,0.36016
6632.95511,0.35780
6631.02637,0.35778
6629.09762,0.35989
6627.16888,0.36247
6625.24013,0.36359
6623.31139,0.36311
6621.38264,0.36204
6619.45389,0.36177
6617.52515,0.36274
6615.59640,0.36224
6613.66766,0.36058
6611.73891,0.36058
6609.81017,0.36177
6607.88142,0.36348
6605.95268,0.36531
6604.02393,0.36600
6602.09519,0.36486
6600.16644,0.36252
6598.23770,0.36118
6596.30895,0.36171
6594.38021,0.36294
6592.45146,0.36378
6590.52271,0.36339
6588.59397,0.36219
6586.66522,0.36180
6584.73648,0.36211
6582.80773,0.36207
6580.87899,0.36250
6578.95024,0.36445
6577.02150,0.36779
6575.09275,0.37173
6573.16401,0.37471
6571.23526,0.37481
6569.30652,0.37200
6567.37777,0.36928
6565.44903,0.36938
6563.52028,0.37148
6561.59154,0.37280
6559.66279,0.37269
6557.73404,0.37215
6555.80530,0.37145
6553.87655,0.37202
6551.94781,0.37439
6550.01906,0.37517
6548.09032,0.37365
6546.16157,0.37305
6544.23283,0.37343
6542.30408,0.37318
6540.37534,0.37359
6538.44659,0.37546
6536.51785,0.37682
6534.58910,0.37705
6532.66036,0.37739
6530.73161,0.37820
6528.80287,0.37974
6526.87412,0.38180
6524.94537,0.38324
6523.01663,0.38390
6521.08788,0.38434
6519.15914,0.38432
6517.23039,0.38358
6515.30165,0.38320
6513.37290,0.38488
6511.44416,0.38791
6509.51541,0.38934
6507.58667,0.38898
6505.65792,0.38842
6503.72918,0.38696
6501.80043,0.38532
6499.87169,0.38532
6497.94294,0.38638
6496.01419,0.38819
6494.08545,0.39034
6492.15670,0.39176
6490.22796,0.39253
6488.29921,0.39267
6486.37047,0.39236
6484.44172,0.39237
6482.51298,0.39296
6480.58423,0.39429
6478.65549,0.39582
6476.72674,0.39594
6474.79800,0.39485
6472.86925,0.39432
6470.94051,0.39475
6469.01176,0.39590
6467.08302,0.39758
6465.15427,0.39854
6463.22552,0.39838
6461.29678,0.39855
6459.36803,0.39968
6457.43929,0.40138
6455.51054,0.40292
6453.58180,0.40350
6451.65305,0.40404
6449.72431,0.40522
6447.79556,0.40606
6445.86682,0.40689
6443.93807,0.40884
6442.00933,0.41025
6440.08058,0.41009
6438.15184,0.41040
6436.22309,0.41046
6434.29434,0.40921
6432.36560,0.40972
6430.43685,0.41251
6428.50811,0.41417
6426.57936,0.41396
6424.65062,0.41307
6422.72187,0.41160
6420.79313,0.41062
6418.86438,0.41135
6416.93564,0.41288
6415.00689,0.41391
6413.07815,0.41435
6411.14940,0.41512
6409.22066,0.41657
6407.29191,0.41776
6405.36317,0.41752
6403.43442,0.41627
6401.50567,0.41579
6399.57693,0.41664
6397.64818,0.41793
6395.71944,0.41836
6393.79069,0.41740
6391.86195,0.41653
6389.93320,0.41692
6388.00446,0.41721
6386.07571,0.41612
6384.14697,0.41529
6382.21822,0.41596
6380.28948,0.41665
6378.36073,0.41639
6376.43199,0.41678
6374.50324,0.41818
6372.57450,0.41818
6370.64575,0.41649
6368.71700,0.41521
6366.78826,0.41478
6364.85951,0.41479
6362.93077,0.41568
6361.00202,0.41735
6359.07328,0.41881
6357.14453,0.42011
6355.21579,0.42147
6353.28704,0.42173
6351.35830,0.42060
6349.42955,0.41940
6347.50081,0.41902
6345.57206,0.41972
6343.64332,0.42147
6341.71457,0.42303
6339.78582,0.42343
6337.85708,0.42345
6335.92833,0.42303
6333.99959,0.42102
6332.07084,0.41911
6330.14210,0.42037
6328.21335,0.42311
6326.28461,0.42421
6324.35586,0.42434
6322.42712,0.42358
6320.49837,0.42231
6318.56963,0.42298
6316.64088,0.42451
6314.71214,0.42468
6312.78339,0.42465
6310.85465,0.42518
6308.92590,0.42578
6306.99715,0.42718
6305.06841,0.42869
6303.13966,0.42851
6301.21092,0.42772
6299.28217,0.42739
6297.35343,0.42667
6295.42468,0.42578
6293.49594,0.42562
6291.56719,0.42697
6289.63845,0.42903
6287.70970,0.42994
6285.78096,0.43042
6283.85221,0.43085
6281.92347,0.43032
6279.99472,0.43057
6278.06598,0.43306
6276.13723,0.43603
6274.20848,0.43738
6272.27974,0.43664
6270.35099,0.43475
6268.42225,0.43386
6266.49350,0.43535
6264.56476,0.43733
6262.63601,0.43815
6260.70727,0.43841
6258.77852,0.43787
6256.84978,0.43687
6254.92103,0.43648
6252.99229,0.43621
6251.06354,0.43578
6249.13480,0.43609
6247.20605,0.43752
6245.27730,0.43891
6243.34856,0.43893
6241.41981,0.43788
6239.49107,0.43757
6237.56232,0.43938
6235.63358,0.44215
6233.70483,0.44358
6231.77609,0.44331
6229.84734,0.44306
6227.91860,0.44413
6225.98985,0.44592
6224.06111,0.44726
6222.13236,0.44740
6220.20362,0.44627
6218.27487,0.44553
6216.34613,0.44656
6214.41738,0.44817
6212.48863,0.44924
6210.55989,0.45011
6208.63114,0.45051
6206.70240,0.45038
6204.77365,0.45045
6202.84491,0.45043
6200.91616,0.45005
6198.98742,0.44994
6197.05867,0.45039
6195.12993,0.45128
6193.20118,0.45182
6191.27244,0.45163
6189.34369,0.45175
6187.41495,0.45248
6185.48620,0.45300
6183.55746,0.45327
6181.62871,0.45398
6179.69996,0.45474
6177.77122,0.45451
6175.84247,0.45459
6173.91373,0.45661
6171.98498,0.45918
6170.05624,0.46052
6168.12749,0.46055
6166.19875,0.45989
6164.27000,0.45937
6162.34126,0.45956
6160.41251,0.45980
6158.48377,0.45927
6156.55502,0.45907
6154.62628,0.46033
6152.69753,0.46157
6150.76878,0.46107
6148.84004,0.45963
6146.91129,0.45830
6144.98255,0.45745
6143.05380,0.45770
6141.12506,0.45833
6139.19631,0.45838
6137.26757,0.45906
6135.33882,0.46099
6133.41008,0.46230
6131.48133,0.46208
6129.55259,0.46210
6127.62384,0.46305
6125.69510,0.46368
6123.76635,0.46382
6121.83761,0.46418
6119.90886,0.46503
6117.98011,0.46566
6116.05137,0.46469
6114.12262,0.46243
6112.19388,0.46128
6110.26513,0.46211
6108.33639,0.46351
6106.40764,0.46433
6104.47890,0.46487
6102.55015,0.46603
6100.62141,0.46793
6098.69266,0.46958
6096.76392,0.46989
6094.83517,0.46869
6092.90643,0.46661
6090.97768,0.46518
6089.04893,0.46543
6087.12019,0.46664
6085.19144,0.46747
6083.26270,0.46703
6081.33395,0.46605
6079.40521,0.46608
6077.47646,0.46670
6075.54772,0.46716
6073.61897,0.46746
6071.69023,0.46750
6069.76148,0.46733
6067.83274,0.46641
6065.90399,0.46521
6063.97525,0.46542
6062.04650,0.46691
6060.11776,0.46830
6058.18901,0.46896
6056.26026,0.46949
6054.33152,0.46977
6052.40277,0.46866
6050.47403,0.46653
6048.54528,0.46541
6046.61654,0.46657
6044.68779,0.46799
6042.75905,0.46688
6040.83030,0.46421
6038.90156,0.46249
6036.97281,0.46230
6035.04407,0.46253
6033.11532,0.46198
6031.18658,0.46027
6029.25783,0.45896
6027.32909,0.45974
6025.40034,0.46029
6023.47159,0.45827
6021.54285,0.45600
6019.61410,0.45618
6017.68536,0.45812
6015.75661,0.45919
6013.82787,0.45845
6011.89912,0.45678
6009.97038,0.45496
6008.04163,0.45432
6006.11289,0.45443
6004.18414,0.45274
6002.25540,0.45037
6000.32665,0.45014
5998.39791,0.45036
5996.46916,0.44950
5994.54041,0.44911
5992.61167,0.44859
5990.68292,0.44612
5988.75418,0.44320
5986.82543,0.44208
5984.89669,0.44172
5982.96794,0.44044
5981.03920,0.43897
5979.11045,0.43822
5977.18171,0.43691
5975.25296,0.43380
5973.32422,0.43028
5971.39547,0.42784
5969.46673,0.42607
5967.53798,0.42454
5965.60924,0.42322
5963.68049,0.42151
5961.75174,0.41891
5959.82300,0.41647
5957.89425,0.41514
5955.96551,0.41363
5954.03676,0.41139
5952.10802,0.40936
5950.17927,0.40731
5948.25053,0.40561
5946.32178,0.40507
5944.39304,0.40429
5942.46429,0.40227
5940.53555,0.40048
5938.60680,0.39968
5936.67806,0.39831
5934.74931,0.39524
5932.82057,0.39168
5930.89182,0.38972
5928.96307,0.38923
5927.03433,0.38798
5925.10558,0.38520
5923.17684,0.38219
5921.24809,0.38029
5919.31935,0.37932
5917.39060,0.37793
5915.46186,0.37616
5913.53311,0.37502
5911.60437,0.37433
5909.67562,0.37371
5907.74688,0.37309
5905.81813,0.37227
5903.88939,0.37175
5901.96064,0.37184
5900.03189,0.37141
5898.10315,0.37076
5896.17440,0.37121
5894.24566,0.37191
5892.31691,0.37194
5890.38817,0.37195
5888.45942,0.37249
5886.53068,0.37312
5884.60193,0.37291
5882.67319,0.37179
5880.74444,0.37071
5878.81570,0.37047
5876.88695,0.37125
5874.95821,0.37279
5873.02946,0.37451
5871.10072,0.37535
5869.17197,0.37506
5867.24322,0.37486
5865.31448,0.37550
5863.38573,0.37627
5861.45699,0.37639
5859.52824,0.37588
5857.59950,0.37508
5855.67075,0.37459
5853.74201,0.37481
5851.81326,0.37545
5849.88452,0.37599
5847.95577,0.37646
5846.02703,0.37713
5844.09828,0.37706
5842.16954,0.37614
5840.24079,0.37587
5838.31205,0.37548
5836.38330,0.37385
5834.45455,0.37272
5832.52581,0.37272
5830.59706,0.37227
5828.66832,0.37075
5826.73957,0.36864
5824.81083,0.36689
5822.88208,0.36650
5820.95334,0.36713
5819.02459,0.36726
5817.09585,0.36632
5815.16710,0.36552
5813.23836,0.36565
5811.30961,0.36560
5809.38087,0.36451
5807.45212,0.36259
5805.52337,0.35987
5803.59463,0.35732
5801.66588,0.35640
5799.73714,0.35618
5797.80839,0.35528
5795.87965,0.35442
5793.95090,0.35369
5792.02216,0.35255
5790.09341,0.35193
5788.16467,0.35175
5786.23592,0.35088
5784.30718,0.34963
5782.37843,0.34862
5780.44969,0.34769
5778.52094,0.34624
5776.59220,0.34460
5774.66345,0.34368
5772.73470,0.34291
5770.80596,0.34193
5768.87721,0.34201
5766.94847,0.34313
5765.01972,0.34317
5763.09098,0.34200
5761.16223,0.34141
5759.23349,0.34161
5757.30474,0.34199
5755.37600,0.34248
5753.44725,0.34320
5751.51851,0.34382
5749.58976,0.34384
5747.66102,0.34390
5745.73227,0.34408
5743.80352,0.34367
5741.87478,0.34357
5739.94603,0.34489
5738.01729,0.34641
5736.08854,0.34667
5734.15980,0.34674
5732.23105,0.34776
5730.30231,0.34895
5728.37356,0.35000
5726.44482,0.35130
5724.51607,0.35241
5722.58733,0.35287
5720.65858,0.35338
5718.72984,0.35467
5716.80109,0.35593
5714.87235,0.35656
5712.94360,0.35743
5711.01485,0.35873
5709.08611,0.35982
5707.15736,0.36157
5705.22862,0.36485
5703.29987,0.36776
5701.37113,0.36882
5699.44238,0.36951
5697.51364,0.37101
5695.58489,0.37222
5693.65615,0.37267
5691.72740,0.37339
5689.79866,0.37457
5687.86991,0.37583
5685.94117,0.37724
5684.01242,0.37875
5682.08368,0.38032
5680.15493,0.38154
5678.22618,0.38214
5676.29744,0.38279
5674.36869,0.38420
5672.43995,0.38590
5670.51120,0.38689
5668.58246,0.38746
5666.65371,0.38884
5664.72497,0.39073
5662.79622,0.39155
5660.86748,0.39138
5658.93873,0.39204
5657.00999,0.39347
5655.08124,0.39403
5653.15250,0.39385
5651.22375,0.39443
5649.29500,0.39607
5647.36626,0.39752
5645.43751,0.39821
5643.50877,0.39927
5641.58002,0.40100
5639.65128,0.40219
5637.72253,0.40277
5635.79379,0.40320
5633.86504,0.40308
5631.93630,0.40292
5630.00755,0.40340
5628.07881,0.40403
5626.15006,0.40473
5624.22132,0.40554
5622.29257,0.40602
5620.36383,0.40625
5618.43508,0.40684
5616.50633,0.40829
5614.57759,0.40990
5612.64884,0.41062
5610.72010,0.41068
5608.79135,0.41014
5606.86261,0.40900
5604.93386,0.40841
5603.00512,0.40855
5601.07637,0.40847
5599.14763,0.40850
5597.21888,0.40916
5595.29014,0.40965
5593.36139,0.40940
5591.43265,0.40885
5589.50390,0.40840
5587.57516,0.40824
5585.64641,0.40857
5583.71766,0.40914
5581.78892,0.40914
5579.86017,0.40836
5577.93143,0.40752
5576.00268,0.40721
5574.07394,0.40732
5572.14519,0.40766
5570.21645,0.40838
5568.28770,0.40910
5566.35896,0.40895
5564.43021,0.40833
5562.50147,0.40846
5560.57272,0.40906
5558.64398,0.40905
5556.71523,0.40876
5554.78648,0.40938
5552.85774,0.41027
5550.92899,0.41019
5549.00025,0.40963
5547.07150,0.40946
5545.14276,0.40969
5543.21401,0.41025
5541.28527,0.41099
5539.35652,0.41133
5537.42778,0.41114
5535.49903,0.41120
5533.57029,0.41138
5531.64154,0.41116
5529.71280,0.41100
5527.78405,0.41149
5525.85531,0.41268
5523.92656,0.41366
5521.99781,0.41351
5520.06907,0.41252
5518.14032,0.41177
5516.21158,0.41198
5514.28283,0.41250
5512.35409,0.41230
5510.42534,0.41204
5508.49660,0.41273
5506.56785,0.41354
5504.63911,0.41361
5502.71036,0.41369
5500.78162,0.41411
5498.85287,0.41412
5496.92413,0.41400
5494.99538,0.41424
5493.06664,0.41424
5491.13789,0.41425
5489.20914,0.41520
5487.28040,0.41657
5485.35165,0.41714
5483.42291,0.41666
5481.49416,0.41639
5479.56542,0.41695
5477.63667,0.41755
5475.70793,0.41839
5473.77918,0.41942
5471.85044,0.41967
5469.92169,0.41951
5467.99295,0.41965
5466.06420,0.41973
5464.13546,0.41927
5462.20671,0.41897
5460.27796,0.41964
5458.34922,0.42049
5456.42047,0.42109
5454.49173,0.42217
5452.56298,0.42323
5450.63424,0.42334
5448.70549,0.42300
5446.77675,0.42250
5444.84800,0.42188
5442.91926,0.42231
5440.99051,0.42405
5439.06177,0.42555
5437.13302,0.42626
5435.20428,0.42685
5433.27553,0.42705
5431.34679,0.42655
5429.41804,0.42626
5427.48929,0.42699
5425.56055,0.42827
5423.63180,0.42913
5421.70306,0.42950
5419.77431,0.42986
5417.84557,0.42984
5415.91682,0.42922
5413.98808,0.42871
5412.05933,0.42855
5410.13059,0.42845
5408.20184,0.42844
5406.27310,0.42899
5404.34435,0.43011
5402.41561,0.43074
5400.48686,0.43014
5398.55811,0.42918
5396.62937,0.42932
5394.70062,0.43055
5392.77188,0.43149
5390.84313,0.43144
5388.91439,0.43052
5386.98564,0.42930
5385.05690,0.42828
5383.12815,0.42773
5381.19941,0.42770
5379.27066,0.42754
5377.34192,0.42691
5375.41317,0.42649
5373.48443,0.42658
5371.55568,0.42670
5369.62694,0.42663
5367.69819,0.42643
5365.76944,0.42614
5363.84070,0.42584
5361.91195,0.42544
5359.98321,0.42466
5358.05446,0.42339
5356.12572,0.42212
5354.19697,0.42163
5352.26823,0.42174
5350.33948,0.42155
5348.41074,0.42064
5346.48199,0.41899
5344.55325,0.41734
5342.62450,0.41692
5340.69576,0.41696
5338.76701,0.41600
5336.83827,0.41442
5334.90952,0.41289
5332.98077,0.41114
5331.05203,0.40918
5329.12328,0.40729
5327.19454,0.40546
5325.26579,0.40372
5323.33705,0.40190
5321.40830,0.39960
5319.47956,0.39729
5317.55081,0.39516
5315.62207,0.39249
5313.69332,0.38944
5311.76458,0.38667
5309.83583,0.38389
5307.90709,0.38075
5305.97834,0.37758
5304.04959,0.37434
5302.12085,0.37088
5300.19210,0.36745
5298.26336,0.36380
5296.33461,0.35976
5294.40587,0.35588
5292.47712,0.35242
5290.54838,0.34869
5288.61963,0.34455
5286.69089,0.34069
5284.76214,0.33699
5282.83340,0.33287
5280.90465,0.32852
5278.97591,0.32443
5277.04716,0.32004
5275.11842,0.31509
5273.18967,0.31100
5271.26092,0.30780
5269.33218,0.30437
5267.40343,0.30098
5265.47469,0.29808
5263.54594,0.29497
5261.61720,0.29085
5259.68845,0.28634
5257.75971,0.28259
5255.83096,0.27960
5253.90222,0.27674
5251.97347,0.27373
5250.04473,0.27056
5248.11598,0.26723
5246.18724,0.26431
5244.25849,0.26222
5242.32975,0.26008
5240.40100,0.25723
5238.47225,0.25428
5236.54351,0.25168
5234.61476,0.24945
5232.68602,0.24763
5230.75727,0.24584
5228.82853,0.24375
5226.89978,0.24159
5224.97104,0.23950
5223.04229,0.23758
5221.11355,0.23582
5219.18480,0.23384
5217.25606,0.23171
5215.32731,0.23030
5213.39857,0.22956
5211.46982,0.22876
5209.54107,0.22754
5207.61233,0.22575
5205.68358,0.22398
5203.75484,0.22264
5201.82609,0.22121
5199.89735,0.21982
5197.96860,0.21878
5196.03986,0.21762
5194.11111,0.21623
5192.18237,0.21510
5190.25362,0.21430
5188.32488,0.21337
5186.39613,0.21221
5184.46739,0.21121
5182.53864,0.21059
5180.60990,0.21028
5178.68115,0.21013
5176.75240,0.20978
5174.82366,0.20921
5172.89491,0.20883
5170.96617,0.20824
5169.03742,0.20723
5167.10868,0.20660
5165.17993,0.20648
5163.25119,0.20606
5161.32244,0.20545
5159.39370,0.20578
5157.46495,0.20650
5155.53621,0.20638
5153.60746,0.20583
5151.67872,0.20539
5149.74997,0.20499
5147.82123,0.20472
5145.89248,0.20465
5143.96373,0.20482
5142.03499,0.20517
5140.10624,0.20546
5138.17750,0.20560
5136.24875,0.20594
5134.32001,0.20646
5132.39126,0.20653
5130.46252,0.20608
5128.53377,0.20600
5126.60503,0.20685
5124.67628,0.20761
5122.74754,0.20734
5120.81879,0.20675
5118.89005,0.20675
5116.96130,0.20713
5115.03255,0.20749
5113.10381,0.20780
5111.17506,0.20787
5109.24632,0.20804
5107.31757,0.20903
5105.38883,0.21016
5103.46008,0.21029
5101.53134,0.20959
5099.60259,0.20887
5097.67385,0.20856
5095.74510,0.20863
5093.81636,0.20878
5091.88761,0.20850
5089.95887,0.20788
5088.03012,0.20744
5086.10138,0.20724
5084.17263,0.20721
5082.24388,0.20733
5080.31514,0.20739
5078.38639,0.20714
5076.45765,0.20624
5074.52890,0.20525
5072.60016,0.20514
5070.67141,0.20540
5068.74267,0.20515
5066.81392,0.20463
5064.88518,0.20451
5062.95643,0.20470
5061.02769,0.20492
5059.09894,0.20545
5057.17020,0.20607
5055.24145,0.20629
5053.31270,0.20645
5051.38396,0.20644
5049.45521,0.20576
5047.52647,0.20500
5045.59772,0.20493
5043.66898,0.20555
5041.74023,0.20644
5039.81149,0.20692
5037.88274,0.20673
5035.95400,0.20657
5034.02525,0.20726
5032.09651,0.20841
5030.16776,0.20908
5028.23902,0.20949
5026.31027,0.21001
5024.38153,0.21044
5022.45278,0.21076
5020.52403,0.21079
5018.59529,0.21092
5016.66654,0.21197
5014.73780,0.21314
5012.80905,0.21323
5010.88031,0.21285
5008.95156,0.21317
5007.02282,0.21399
5005.09407,0.21446
5003.16533,0.21461
5001.23658,0.21480
4999.30784,0.21515
4997.37909,0.21569
4995.45035,0.21640
4993.52160,0.21675
4991.59286,0.21639
4989.66411,0.21598
4987.73536,0.21622
4985.80662,0.21673
4983.87787,0.21679
4981.94913,0.21647
4980.02038,0.21621
4978.09164,0.21627
4976.16289,0.21670
4974.23415,0.21706
4972.30540,0.21684
4970.37666,0.21653
4968.44791,0.21670
4966.51917,0.21696
4964.59042,0.21701
4962.66168,0.21690
4960.73293,0.21643
4958.80418,0.21544
4956.87544,0.21423
4954.94669,0.21314
4953.01795,0.21261
4951.08920,0.21264
4949.16046,0.21268
4947.23171,0.21251
4945.30297,0.21217
4943.37422,0.21168
4941.44548,0.21079
4939.51673,0.20938
4937.58799,0.20810
4935.65924,0.20712
4933.73050,0.20597
4931.80175,0.20460
4929.87301,0.20349
4927.94426,0.20296
4926.01551,0.20244
4924.08677,0.20153
4922.15802,0.20054
4920.22928,0.19934
4918.30053,0.19786
4916.37179,0.19647
4914.44304,0.19536
4912.51430,0.19444
4910.58555,0.19330
4908.65681,0.19176
4906.72806,0.19026
4904.79932,0.18899
4902.87057,0.18787
4900.94183,0.18685
4899.01308,0.18580
4897.08434,0.18487
4895.15559,0.18401
4893.22684,0.18275
4891.29810,0.18131
4889.36935,0.18052
4887.44061,0.18016
4885.51186,0.17935
4883.58312,0.17794
4881.65437,0.17643
4879.72563,0.17513
4877.79688,0.17397
4875.86814,0.17310
4873.93939,0.17256
4872.01065,0.17202
4870.08190,0.17147
4868.15316,0.17096
4866.22441,0.17048
4864.29566,0.17025
4862.36692,0.17055
4860.43817,0.17117
4858.50943,0.17154
4856.58068,0.17169
4854.65194,0.17194
4852.72319,0.17270
4850.79445,0.17376
4848.86570,0.17447
4846.93696,0.17505
4845.00821,0.17605
4843.07947,0.17730
4841.15072,0.17868
4839.22198,0.18016
4837.29323,0.18131
4835.36449,0.18221
4833.43574,0.18359
4831.50699,0.18556
4829.57825,0.18768
4827.64950,0.18941
4825.72076,0.19065
4823.79201,0.19191
4821.86327,0.19336
4819.93452,0.19476
4818.00578,0.19601
4816.07703,0.19728
4814.14829,0.19870
4812.21954,0.20014
4810.29080,0.20171
4808.36205,0.20356
4806.43331,0.20500
4804.50456,0.20561
4802.57582,0.20630
4800.64707,0.20776
4798.71832,0.20923
4796.78958,0.20990
4794.86083,0.21024
4792.93209,0.21114
4791.00334,0.21236
4789.07460,0.21309
4787.14585,0.21332
4785.21711,0.21355
4783.28836,0.21401
4781.35962,0.21468
4779.43087,0.21526
4777.50213,0.21546
4775.57338,0.21555
4773.64464,0.21589
4771.71589,0.21646
4769.78714,0.21722
4767.85840,0.21796
4765.92965,0.21829
4764.00091,0.21833
4762.07216,0.21841
4760.14342,0.21856
4758.21467,0.21849
4756.28593,0.21801
4754.35718,0.21750
4752.42844,0.21722
4750.49969,0.21703
4748.57095,0.21719
4746.64220,0.21781
4744.71346,0.21814
4742.78471,0.21763
4740.85597,0.21664
4738.92722,0.21586
4736.99847,0.21543
4735.06973,0.21501
4733.14098,0.21461
4731.21224,0.21434
4729.28349,0.21418
4727.35475,0.21412
4725.42600,0.21373
4723.49726,0.21271
4721.56851,0.21169
4719.63977,0.21129
4717.71102,0.21117
4715.78228,0.21061
4713.85353,0.20964
4711.92479,0.20866
4709.99604,0.20776
4708.06729,0.20699
4706.13855,0.20624
4704.20980,0.20536
4702.28106,0.20448
4700.35231,0.20382
4698.42357,0.20317
4696.49482,0.20195
4694.56608,0.20017
4692.63733,0.19858
4690.70859,0.19743
4688.77984,0.19625
4686.85110,0.19473
4684.92235,0.19296
4682.99361,0.19146
4681.06486,0.19041
4679.13612,0.18915
4677.20737,0.18734
4675.27862,0.18551
4673.34988,0.18418
4671.42113,0.18315
4669.49239,0.18206
4667.56364,0.18089
4665.63490,0.17971
4663.70615,0.17840
4661.77741,0.17674
4659.84866,0.17509
4657.91992,0.17378
4655.99117,0.17249
4654.06243,0.17129
4652.13368,0.17024
4650.20494,0.16891
4648.27619,0.16748
4646.34745,0.16613
4644.41870,0.16448
4642.48995,0.16260
4640.56121,0.16115
4638.63246,0.16017
4636.70372,0.15903
4634.77497,0.15753
4632.84623,0.15604
4630.91748,0.15495
4628.98874,0.15405
4627.05999,0.15294
4625.13125,0.15177
4623.20250,0.15079
4621.27376,0.15008
4619.34501,0.14974
4617.41627,0.14946
4615.48752,0.14874
4613.55877,0.14793
4611.63003,0.14746
4609.70128,0.14711
4607.77254,0.14673
4605.84379,0.14653
4603.91505,0.14645
4601.98630,0.14615
4600.05756,0.14570
4598.12881,0.14550
4596.20007,0.14529
4594.27132,0.14491
4592.34258,0.14483
4590.41383,0.14504
4588.48509,0.14539
4586.55634,0.14578
4584.62760,0.14601
4582.69885,0.14630
4580.77010,0.14673
4578.84136,0.14699
4576.91261,0.14699
4574.98387,0.14698
4573.05512,0.14723
4571.12638,0.14783
4569.19763,0.14849
4567.26889,0.14895
4565.34014,0.14952
4563.41140,0.15037
4561.48265,0.15101
4559.55391,0.15132
4557.62516,0.15170
4555.69642,0.15220
4553.76767,0.15274
4551.83893,0.15318
4549.91018,0.15354
4547.98143,0.15403
4546.05269,0.15466
4544.12394,0.15541
4542.19520,0.15638
4540.26645,0.15725
4538.33771,0.15777
4536.40896,0.15823
4534.48022,0.15878
4532.55147,0.15946
4530.62273,0.16038
4528.69398,0.16117
4526.76524,0.16151
4524.83649,0.16178
4522.90775,0.16241
4520.97900,0.16324
4519.05025,0.16392
4517.12151,0.16439
4515.19276,0.16491
4513.26402,0.16568
4511.33527,0.16666
4509.40653,0.16754
4507.47778,0.16817
4505.54904,0.16872
4503.62029,0.16937
4501.69155,0.17003
4499.76280,0.17061
4497.83406,0.17119
4495.90531,0.17186
4493.97657,0.17257
4492.04782,0.17323
4490.11908,0.17377
4488.19033,0.17426
4486.26158,0.17481
4484.33284,0.17513
4482.40409,0.17524
4480.47535,0.17529
4478.54660,0.17526
4476.61786,0.17537
4474.68911,0.17570
4472.76037,0.17617
4470.83162,0.17657
4468.90288,0.17639
4466.97413,0.17566
4465.04539,0.17502
4463.11664,0.17448
4461.18790,0.17376
4459.25915,0.17303
4457.33041,0.17249
4455.40166,0.17201
4453.47291,0.17143
4451.54417,0.17054
4449.61542,0.16949
4447.68668,0.16850
4445.75793,0.16728
4443.82919,0.16554
4441.90044,0.16359
4439.97170,0.16202
4438.04295,0.16083
4436.11421,0.15948
4434.18546,0.15794
4432.25672,0.15662
4430.32797,0.15546
4428.39923,0.15404
4426.47048,0.15234
4424.54173,0.15058
4422.61299,0.14912
4420.68424,0.14811
4418.75550,0.14714
4416.82675,0.14604
4414.89801,0.14524
4412.96926,0.14471
4411.04052,0.14389
4409.11177,0.14290
4407.18303,0.14235
4405.25428,0.14189
4403.32554,0.14096
4401.39679,0.14000
4399.46805,0.13944
4397.53930,0.13905
4395.61056,0.13856
4393.68181,0.13805
4391.75306,0.13761
4389.82432,0.13719
4387.89557,0.13664
4385.96683,0.13603
4384.03808,0.13559
4382.10934,0.13523
4380.18059,0.13476
4378.25185,0.13420
4376.32310,0.13369
4374.39436,0.13332
4372.46561,0.13322
4370.53687,0.13325
4368.60812,0.13303
4366.67938,0.13266
4364.75063,0.13254
4362.82189,0.13247
4360.89314,0.13226
4358.96439,0.13215
4357.03565,0.13218
4355.10690,0.13246
4353.17816,0.13301
4351.24941,0.13340
4349.32067,0.13354
4347.39192,0.13375
4345.46318,0.13415
4343.53443,0.13477
4341.60569,0.13546
4339.67694,0.13592
4337.74820,0.13637
4335.81945,0.13711
4333.89071,0.13777
4331.96196,0.13784
4330.03321,0.13739
4328.10447,0.13698
4326.17572,0.13725
4324.24698,0.13797
4322.31823,0.13844
4320.38949,0.13878
4318.46074,0.13933
4316.53200,0.13988
4314.60325,0.14049
4312.67451,0.14128
4310.74576,0.14201
4308.81702,0.14232
4306.88827,0.14207
4304.95953,0.14173
4303.03078,0.14180
4301.10204,0.14219
4299.17329,0.14253
4297.24454,0.14272
4295.31580,0.14267
4293.38705,0.14241
4291.45831,0.14223
4289.52956,0.14227
4287.60082,0.14218
4285.67207,0.14186
4283.74333,0.14147
4281.81458,0.14114
4279.88584,0.14107
4277.95709,0.14117
4276.02835,0.14117
4274.09960,0.14101
4272.17086,0.14090
4270.24211,0.14079
4268.31336,0.14028
4266.38462,0.13926
4264.45587,0.13822
4262.52713,0.13762
4260.59838,0.13778
4258.66964,0.13844
4256.74089,0.13903
4254.81215,0.13945
4252.88340,0.13981
4250.95466,0.14006
4249.02591,0.14028
4247.09717,0.14065
4245.16842,0.14115
4243.23968,0.14176
4241.31093,0.14234
4239.38219,0.14261
4237.45344,0.14263
4235.52469,0.14281
4233.59595,0.14341
4231.66720,0.14391
4229.73846,0.14374
4227.80971,0.14344
4225.88097,0.14376
4223.95222,0.14450
4222.02348,0.14515
4220.09473,0.14559
4218.16599,0.14599
4216.23724,0.14655
4214.30850,0.14707
4212.37975,0.14743
4210.45101,0.14765
4208.52226,0.14767
4206.59352,0.14770
4204.66477,0.14804
4202.73602,0.14866
4200.80728,0.14927
4198.87853,0.14956
4196.94979,0.14947
4195.02104,0.14925
4193.09230,0.14916
4191.16355,0.14935
4189.23481,0.14987
4187.30606,0.15042
4185.37732,0.15061
4183.44857,0.15043
4181.51983,0.15017
4179.59108,0.15013
4177.66234,0.15027
4175.73359,0.15032
4173.80484,0.15031
4171.87610,0.15044
4169.94735,0.15086
4168.01861,0.15144
4166.08986,0.15180
4164.16112,0.15178
4162.23237,0.15161
4160.30363,0.15144
4158.37488,0.15118
4156.44614,0.15104
4154.51739,0.15119
4152.58865,0.15114
4150.65990,0.15058
4148.73116,0.14996
4146.80241,0.14968
4144.87367,0.14958
4142.94492,0.14940
4141.01617,0.14915
4139.08743,0.14901
4137.15868,0.14901
4135.22994,0.14887
4133.30119,0.14855
4131.37245,0.14821
4129.44370,0.14788
4127.51496,0.14758
4125.58621,0.14735
4123.65747,0.14700
4121.72872,0.14656
4119.79998,0.14650
4117.87123,0.14666
4115.94249,0.14650
4114.01374,0.14616
4112.08500,0.14576
4110.15625,0.14511
4108.22750,0.14425
4106.29876,0.14325
4104.37001,0.14212
4102.44127,0.14122
4100.51252,0.14068
4098.58378,0.14008
4096.65503,0.13918
4094.72629,0.13816
4092.79754,0.13709
4090.86880,0.13605
4088.94005,0.13529
4087.01131,0.13467
4085.08256,0.13376
4083.15382,0.13266
4081.22507,0.13182
4079.29632,0.13124
4077.36758,0.13059
4075.43883,0.12976
4073.51009,0.12909
4071.58134,0.12862
4069.65260,0.12783
4067.72385,0.12678
4065.79511,0.12605
4063.86636,0.12567
4061.93762,0.12539
4060.00887,0.12517
4058.08013,0.12488
4056.15138,0.12446
4054.22264,0.12406
4052.29389,0.12387
4050.36515,0.12396
4048.43640,0.12410
4046.50765,0.12402
4044.57891,0.12375
4042.65016,0.12365
4040.72142,0.12387
4038.79267,0.12415
4036.86393,0.12438
4034.93518,0.12458
4033.00644,0.12475
4031.07769,0.12491
4029.14895,0.12512
4027.22020,0.12541
4025.29146,0.12563
4023.36271,0.12563
4021.43397,0.12558
4019.50522,0.12578
4017.57648,0.12631
4015.64773,0.12679
4013.71898,0.12675
4011.79024,0.12633
4009.86149,0.12599
4007.93275,0.12588
4006.00400,0.12575
4004.07526,0.12544
4002.14651,0.12509
4000.21777,0.12480
3998.28902,0.12479
3996.36028,0.12513
3994.43153,0.12527
3992.50279,0.12492
3990.57404,0.12459
3988.64530,0.12452
3986.71655,0.12447
3984.78780,0.12439
3982.85906,0.12432
3980.93031,0.12411
3979.00157,0.12380
3977.07282,0.12368
3975.14408,0.12367
3973.21533,0.12338
3971.28659,0.12285
3969.35784,0.12241
3967.42910,0.12226
3965.50035,0.12228
3963.57161,0.12216
3961.64286,0.12167
3959.71412,0.12116
3957.78537,0.12106
3955.85663,0.12111
3953.92788,0.12096
3951.99913,0.12067
3950.07039,0.12056
3948.14164,0.12073
3946.21290,0.12092
3944.28415,0.12078
3942.35541,0.12037
3940.42666,0.12015
3938.49792,0.12034
3936.56917,0.12068
3934.64043,0.12092
3932.71168,0.12096
3930.78294,0.12084
3928.85419,0.12081
3926.92545,0.12085
3924.99670,0.12091
3923.06795,0.12127
3921.13921,0.12191
3919.21046,0.12253
3917.28172,0.12304
3915.35297,0.12358
3913.42423,0.12428
3911.49548,0.12519
3909.56674,0.12611
3907.63799,0.12680
3905.70925,0.12738
3903.78050,0.12809
3901.85176,0.12897
3899.92301,0.12985
3897.99427,0.13070
3896.06552,0.13152
3894.13678,0.13228
3892.20803,0.13307
3890.27928,0.13389
3888.35054,0.13465
3886.42179,0.13549
3884.49305,0.13650
3882.56430,0.13739
3880.63556,0.13803
3878.70681,0.13860
3876.77807,0.13923
3874.84932,0.13974
3872.92058,0.13999
3870.99183,0.14036
3869.06309,0.14113
3867.13434,0.14191
3865.20560,0.14246
3863.27685,0.14306
3861.34811,0.14374
3859.41936,0.14419
3857.49061,0.14435
3855.56187,0.14438
3853.63312,0.14449
3851.70438,0.14487
3849.77563,0.14547
3847.84689,0.14610
3845.91814,0.14656
3843.98940,0.14692
3842.06065,0.14742
3840.13191,0.14791
3838.20316,0.14825
3836.27442,0.14849
3834.34567,0.14859
3832.41693,0.14866
3830.48818,0.14888
3828.55943,0.14923
3826.63069,0.14960
3824.70194,0.14987
3822.77320,0.14991
3820.84445,0.14976
3818.91571,0.14968
3816.98696,0.14981
3815.05822,0.15009
3813.12947,0.15029
3811.20073,0.15025
3809.27198,0.15003
3807.34324,0.14989
3805.41449,0.14995
3803.48575,0.15003
3801.55700,0.14999
3799.62826,0.14987
3797.69951,0.14962
3795.77076,0.14934
3793.84202,0.14915
3791.91327,0.14895
3789.98453,0.14896
3788.05578,0.14926
3786.12704,0.14939
3784.19829,0.14922
3782.26955,0.14905
3780.34080,0.14873
3778.41206,0.14815
3776.48331,0.14756
3774.55457,0.14708
3772.62582,0.14669
3770.69708,0.14630
3768.76833,0.14598
3766.83959,0.14568
3764.91084,0.14498
3762.98209,0.14400
3761.05335,0.14306
3759.12460,0.14212
3757.19586,0.14122
3755.26711,0.14052
3753.33837,0.13988
3751.40962,0.13911
3749.48088,0.13832
3747.55213,0.13757
3745.62339,0.13669
3743.69464,0.13565
3741.76590,0.13483
3739.83715,0.13423
3737.90841,0.13342
3735.97966,0.13219
3734.05091,0.13082
3732.12217,0.12971
3730.19342,0.12884
3728.26468,0.12776
3726.33593,0.12641
3724.40719,0.12513
3722.47844,0.12400
3720.54970,0.12276
3718.62095,0.12122
3716.69221,0.11947
3714.76346,0.11769
3712.83472,0.11576
3710.90597,0.11369
3708.97723,0.11177
3707.04848,0.10980
3705.11974,0.10742
3703.19099,0.10480
3701.26224,0.10221
3699.33350,0.09972
3697.40475,0.09728
3695.47601,0.09475
3693.54726,0.09206
3691.61852,0.08930
3689.68977,0.08655
3687.76103,0.08367
3685.83228,0.08038
3683.90354,0.07671
3681.97479,0.07323
3680.04605,0.07019
3678.11730,0.06741
3676.18856,0.06465
3674.25981,0.06182
3672.33107,0.05927
3670.40232,0.05703
3668.47357,0.05479
3666.54483,0.05257
3664.61608,0.05048
3662.68734,0.04864
3660.75859,0.04723
3658.82985,0.04596
3656.90110,0.04434
3654.97236,0.04252
3653.04361,0.04099
3651.11487,0.03969
3649.18612,0.03858
3647.25738,0.03771
3645.32863,0.03692
3643.39989,0.03610
3641.47114,0.03541
3639.54239,0.03490
3637.61365,0.03426
3635.68490,0.03321
3633.75616,0.03226
3631.82741,0.03178
3629.89867,0.03127
3627.96992,0.03041
3626.04118,0.02966
3624.11243,0.02919
3622.18369,0.02871
3620.25494,0.02799
3618.32620,0.02735
3616.39745,0.02703
3614.46871,0.02667
3612.53996,0.02613
3610.61122,0.02573
3608.68247,0.02545
3606.75372,0.02519
3604.82498,0.02513
3602.89623,0.02509
3600.96749,0.02483
3599.03874,0.02456
3597.11000,0.02443
3595.18125,0.02427
3593.25251,0.02395
3591.32376,0.02361
3589.39502,0.02337
3587.46627,0.02305
3585.53753,0.02267
3583.60878,0.02239
3581.68004,0.02218
3579.75129,0.02198
3577.82254,0.02190
3575.89380,0.02194
3573.96505,0.02191
3572.03631,0.02171
3570.10756,0.02137
3568.17882,0.02095
3566.25007,0.02050
3564.32133,0.02017
3562.39258,0.02025
3560.46384,0.02067
3558.53509,0.02080
3556.60635,0.02051
3554.67760,0.02039
3552.74886,0.02057
3550.82011,0.02069
3548.89137,0.02070
3546.96262,0.02071
3545.03387,0.02054
3543.10513,0.02021
3541.17638,0.02013
3539.24764,0.02038
3537.31889,0.02060
3535.39015,0.02051
3533.46140,0.02018
3531.53266,0.01982
3529.60391,0.01967
3527.67517,0.01968
3525.74642,0.01965
3523.81768,0.01966
3521.88893,0.01975
3519.96019,0.01984
3518.03144,0.01997
3516.10270,0.01995
3514.17395,0.01974
3512.24520,0.01965
3510.31646,0.01958
3508.38771,0.01928
3506.45897,0.01906
3504.53022,0.01895
3502.60148,0.01871
3500.67273,0.01866
3498.74399,0.01911
3496.81524,0.01939
3494.88650,0.01908
3492.95775,0.01871
3491.02901,0.01844
3489.10026,0.01806
3487.17152,0.01785
3485.24277,0.01799
3483.31402,0.01822
3481.38528,0.01826
3479.45653,0.01816
3477.52779,0.01811
3475.59904,0.01820
3473.67030,0.01844
3471.74155,0.01851
3469.81281,0.01844
3467.88406,0.01857
3465.95532,0.01890
3464.02657,0.01903
3462.09783,0.01863
3460.16908,0.01809
3458.24034,0.01789
3456.31159,0.01792
3454.38285,0.01803
3452.45410,0.01812
3450.52535,0.01795
3448.59661,0.01761
3446.66786,0.01760
3444.73912,0.01790
3442.81037,0.01818
3440.88163,0.01836
3438.95288,0.01827
3437.02414,0.01780
3435.09539,0.01728
3433.16665,0.01724
3431.23790,0.01757
3429.30916,0.01774
3427.38041,0.01771
3425.45167,0.01779
3423.52292,0.01802
3421.59418,0.01811
3419.66543,0.01783
3417.73668,0.01739
3415.80794,0.01718
3413.87919,0.01714
3411.95045,0.01712
3410.02170,0.01720
3408.09296,0.01731
3406.16421,0.01725
3404.23547,0.01719
3402.30672,0.01733
3400.37798,0.01754
3398.44923,0.01760
3396.52049,0.01742
3394.59174,0.01729
3392.66300,0.01720
3390.73425,0.01696
3388.80550,0.01695
3386.87676,0.01748
3384.94801,0.01798
3383.01927,0.01791
3381.09052,0.01751
3379.16178,0.01733
3377.23303,0.01734
3375.30429,0.01725
3373.37554,0.01715
3371.44680,0.01715
3369.51805,0.01731
3367.58931,0.01755
3365.66056,0.01764
3363.73182,0.01740
3361.80307,0.01708
3359.87433,0.01691
3357.94558,0.01692
3356.01683,0.01702
3354.08809,0.01719
3352.15934,0.01735
3350.23060,0.01735
3348.30185,0.01733
3346.37311,0.01726
3344.44436,0.01682
3342.51562,0.01618
3340.58687,0.01590
3338.65813,0.01620
3336.72938,0.01669
3334.80064,0.01686
3332.87189,0.01696
3330.94315,0.01732
3329.01440,0.01740
3327.08566,0.01695
3325.15691,0.01673
3323.22816,0.01702
3321.29942,0.01747
3319.37067,0.01787
3317.44193,0.01802
3315.51318,0.01779
3313.58444,0.01733
3311.65569,0.01680
3309.72695,0.01641
3307.79820,0.01640
3305.86946,0.01665
3303.94071,0.01692
3302.01197,0.01713
3300.08322,0.01722
3298.15448,0.01731
3296.22573,0.01758
3294.29698,0.01784
3292.36824,0.01789
3290.43949,0.01768
3288.51075,0.01727
3286.58200,0.01698
3284.65326,0.01696
3282.72451,0.01702
3280.79577,0.01703
3278.86702,0.01716
3276.93828,0.01751
3275.00953,0.01782
3273.08079,0.01767
3271.15204,0.01721
3269.22330,0.01702
3267.29455,0.01740
3265.36581,0.01807
3263.43706,0.01853
3261.50831,0.01858
3259.57957,0.01850
3257.65082,0.01854
3255.72208,0.01869
3253.79333,0.01862
3251.86459,0.01818
3249.93584,0.01787
3248.00710,0.01808
3246.07835,0.01829
3244.14961,0.01797
3242.22086,0.01764
3240.29212,0.01782
3238.36337,0.01813
3236.43463,0.01822
3234.50588,0.01821
3232.57713,0.01827
3230.64839,0.01839
3228.71964,0.01851
3226.79090,0.01856
3224.86215,0.01851
3222.93341,0.01831
3221.00466,0.01812
3219.07592,0.01812
3217.14717,0.01823
3215.21843,0.01840
3213.28968,0.01846
3211.36094,0.01823
3209.43219,0.01800
3207.50345,0.01806
3205.57470,0.01818
3203.64596,0.01810
3201.71721,0.01796
3199.78846,0.01795
3197.85972,0.01803
3195.93097,0.01813
3194.00223,0.01832
3192.07348,0.01860
3190.14474,0.01884
3188.21599,0.01876
3186.28725,0.01845
3184.35850,0.01830
3182.42976,0.01823
3180.50101,0.01808
3178.57227,0.01821
3176.64352,0.01866
3174.71478,0.01895
3172.78603,0.01880
3170.85729,0.01847
3168.92854,0.01836
3166.99979,0.01847
3165.07105,0.01864
3163.14230,0.01898
3161.21356,0.01941
3159.28481,0.01945
3157.35607,0.01918
3155.42732,0.01910
3153.49858,0.01922
3151.56983,0.01916
3149.64109,0.01882
3147.71234,0.01857
3145.78360,0.01849
3143.85485,0.01835
3141.92611,0.01827
3139.99736,0.01848
3138.06861,0.01898
3136.13987,0.01946
3134.21112,0.01971
3132.28238,0.01979
3130.35363,0.01968
3128.42489,0.01938
3126.49614,0.01904
3124.56740,0.01874
3122.63865,0.01855
3120.70991,0.01861
3118.78116,0.01874
3116.85242,0.01869
3114.92367,0.01853
3112.99493,0.01846
3111.06618,0.01857
3109.13744,0.01882
3107.20869,0.01909
3105.27994,0.01926
3103.35120,0.01916
3101.42245,0.01895
3099.49371,0.01888
3097.56496,0.01881
3095.63622,0.01871
3093.70747,0.01871
3091.77873,0.01872
3089.84998,0.01863
3087.92124,0.01851
3085.99249,0.01851
3084.06375,0.01857
3082.13500,0.01858
3080.20626,0.01868
3078.27751,0.01887
3076.34877,0.01884
3074.42002,0.01869
3072.49127,0.01869
3070.56253,0.01875
3068.63378,0.01874
3066.70504,0.01887
3064.77629,0.01909
3062.84755,0.01905
3060.91880,0.01880
3058.99006,0.01866
3057.06131,0.01866
3055.13257,0.01881
3053.20382,0.01906
3051.27508,0.01932
3049.34633,0.01948
3047.41759,0.01939
3045.48884,0.01911
3043.56009,0.01895
3041.63135,0.01891
3039.70260,0.01888
3037.77386,0.01889
3035.84511,0.01896
3033.91637,0.01913
3031.98762,0.01938
3030.05888,0.01950
3028.13013,0.01945
3026.20139,0.01944
3024.27264,0.01949
3022.34390,0.01935
3020.41515,0.01915
3018.48641,0.01906
3016.55766,0.01895
3014.62892,0.01892
3012.70017,0.01914
3010.77142,0.01936
3008.84268,0.01930
3006.91393,0.01904
3004.98519,0.01881
3003.05644,0.01876
3001.12770,0.01905
2999.19895,0.01952
2997.27021,0.01971
2995.34146,0.01958
2993.41272,0.01947
2991.48397,0.01949
2989.55523,0.01943
2987.62648,0.01906
2985.69774,0.01865
2983.76899,0.01860
2981.84025,0.01879
2979.91150,0.01888
2977.98275,0.01878
2976.05401,0.01848
2974.12526,0.01823
2972.19652,0.01819
2970.26777,0.01821
2968.33903,0.01812
2966.41028,0.01804
2964.48154,0.01804
2962.55279,0.01796
2960.62405,0.01786
2958.69530,0.01781
2956.76656,0.01780
2954.83781,0.01786
2952.90907,0.01790
2950.98032,0.01790
2949.05157,0.01792
2947.12283,0.01800
2945.19408,0.01803
2943.26534,0.01788
2941.33659,0.01764
2939.40785,0.01757
2937.47910,0.01768
2935.55036,0.01773
2933.62161,0.01755
2931.69287,0.01736
2929.76412,0.01732
2927.83538,0.01739
2925.90663,0.01762
2923.97789,0.01796
2922.04914,0.01823
2920.12040,0.01841
2918.19165,0.01851
2916.26290,0.01858
2914.33416,0.01874
2912.40541,0.01885
2910.47667,0.01880
2908.54792,0.01872
2906.61918,0.01877
2904.69043,0.01893
2902.76169,0.01904
2900.83294,0.01908
2898.90420,0.01926
2896.97545,0.01942
2895.04671,0.01929
2893.11796,0.01926
2891.18922,0.01954
2889.26047,0.01974
2887.33172,0.01972
2885.40298,0.01965
2883.47423,0.01952
2881.54549,0.01936
2879.61674,0.01927
2877.68800,0.01925
2875.75925,0.01931
2873.83051,0.01940
2871.90176,0.01945
2869.97302,0.01942
2868.04427,0.01936
2866.11553,0.01938
2864.18678,0.01948
2862.25804,0.01952
2860.32929,0.01952
2858.40055,0.01960
2856.47180,0.01975
2854.54305,0.01982
2852.61431,0.01979
2850.68556,0.01995
2848.75682,0.02032
2846.82807,0.02071
2844.89933,0.02116
2842.97058,0.02156
2841.04184,0.02169
2839.11309,0.02167
2837.18435,0.02176
2835.25560,0.02203
2833.32686,0.02237
2831.39811,0.02257
2829.46937,0.02259
2827.54062,0.02251
2825.61188,0.02255
2823.68313,0.02289
2821.75438,0.02319
2819.82564,0.02305
2817.89689,0.02266
2815.96815,0.02243
2814.03940,0.02250
2812.11066,0.02285
2810.18191,0.02329
2808.25317,0.02353
2806.32442,0.02342
2804.39568,0.02323
2802.46693,0.02324
2800.53819,0.02331
2798.60944,0.02317
2796.68070,0.02314
2794.75195,0.02353
2792.82320,0.02401
2790.89446,0.02407
2788.96571,0.02385
2787.03697,0.02393
2785.10822,0.02423
2783.17948,0.02428
2781.25073,0.02417
2779.32199,0.02427
2777.39324,0.02453
2775.46450,0.02465
2773.53575,0.02457
2771.60701,0.02453
2769.67826,0.02468
2767.74952,0.02481
2765.82077,0.02489
2763.89203,0.02499
2761.96328,0.02510
2760.03453,0.02519
2758.10579,0.02524
2756.17704,0.02532
2754.24830,0.02554
2752.31955,0.02591
2750.39081,0.02628
2748.46206,0.02639
2746.53332,0.02629
2744.60457,0.02632
2742.67583,0.02654
2740.74708,0.02673
2738.81834,0.02678
2736.88959,0.02681
2734.96085,0.02685
2733.03210,0.02695
2731.10336,0.02718
2729.17461,0.02743
2727.24586,0.02759
2725.31712,0.02776
2723.38837,0.02805
2721.45963,0.02831
2719.53088,0.02839
2717.60214,0.02845
2715.67339,0.02861
2713.74465,0.02882
2711.81590,0.02906
2709.88716,0.02923
2707.95841,0.02934
2706.02967,0.02935
2704.10092,0.02923
2702.17218,0.02920
2700.24343,0.02946
2698.31468,0.02978
2696.38594,0.02995
2694.45719,0.03004
2692.52845,0.03008
2690.59970,0.03005
2688.67096,0.03009
2686.74221,0.03024
2684.81347,0.03044
2682.88472,0.03058
2680.95598,0.03068
2679.02723,0.03074
2677.09849,0.03078
2675.16974,0.03094
2673.24100,0.03111
2671.31225,0.03110
2669.38351,0.03104
2667.45476,0.03116
2665.52601,0.03147
2663.59727,0.03183
2661.66852,0.03206
2659.73978,0.03211
2657.81103,0.03215
2655.88229,0.03229
2653.95354,0.03240
2652.02480,0.03248
2650.09605,0.03257
2648.16731,0.03255
2646.23856,0.03256
2644.30982,0.03278
2642.38107,0.03305
2640.45233,0.03309
2638.52358,0.03291
2636.59484,0.03283
2634.66609,0.03294
2632.73734,0.03309
2630.80860,0.03324
2628.87985,0.03343
2626.95111,0.03357
2625.02236,0.03358
2623.09362,0.03362
2621.16487,0.03381
2619.23613,0.03404
2617.30738,0.03423
2615.37864,0.03439
2613.44989,0.03447
2611.52115,0.03448
2609.59240,0.03452
2607.66366,0.03466
2605.73491,0.03483
2603.80616,0.03500
2601.87742,0.03517
2599.94867,0.03523
2598.01993,0.03526
2596.09118,0.03548
2594.16244,0.03578
2592.23369,0.03605
2590.30495,0.03627
2588.37620,0.03636
2586.44746,0.03638
2584.51871,0.03646
2582.58997,0.03659
2580.66122,0.03673
2578.73248,0.03682
2576.80373,0.03691
2574.87499,0.03708
2572.94624,0.03723
2571.01749,0.03734
2569.08875,0.03756
2567.16000,0.03789
2565.23126,0.03826
2563.30251,0.03851
2561.37377,0.03860
2559.44502,0.03859
2557.51628,0.03862
2555.58753,0.03864
2553.65879,0.03851
2551.73004,0.03841
2549.80130,0.03861
2547.87255,0.03901
2545.94381,0.03934
2544.01506,0.03958
2542.08631,0.03990
2540.15757,0.04016
2538.22882,0.04009
2536.30008,0.03995
2534.37133,0.04017
2532.44259,0.04048
2530.51384,0.04054
2528.58510,0.04058
2526.65635,0.04080
2524.72761,0.04099
2522.79886,0.04112
2520.87012,0.04127
2518.94137,0.04122
2517.01263,0.04110
2515.08388,0.04135
2513.15514,0.04179
2511.22639,0.04189
2509.29764,0.04175
2507.36890,0.04188
2505.44015,0.04232
2503.51141,0.04261
2501.58266,0.04261
2499.65392,0.04254
2497.72517,0.04261
2495.79643,0.04284
2493.86768,0.04310
2491.93894,0.04323
2490.01019,0.04319
2488.08145,0.04330
2486.15270,0.04370
2484.22396,0.04419
2482.29521,0.04458
2480.36647,0.04478
2478.43772,0.04477
2476.50897,0.04469
2474.58023,0.04471
2472.65148,0.04489
2470.72274,0.04514
2468.79399,0.04545
2466.86525,0.04587
2464.93650,0.04637
2463.00776,0.04670
2461.07901,0.04669
2459.15027,0.04654
2457.22152,0.04657
2455.29278,0.04678
2453.36403,0.04706
2451.43529,0.04730
2449.50654,0.04741
2447.57779,0.04749
2445.64905,0.04773
2443.72030,0.04806
2441.79156,0.04831
2439.86281,0.04852
2437.93407,0.04876
2436.00532,0.04900
2434.07658,0.04921
2432.14783,0.04940
2430.21909,0.04961
2428.29034,0.04992
2426.36160,0.05024
2424.43285,0.05032
2422.50411,0.05027
2420.57536,0.05050
2418.64662,0.05097
2416.71787,0.05126
2414.78912,0.05129
2412.86038,0.05132
2410.93163,0.05155
2409.00289,0.05187
2407.07414,0.05215
2405.14540,0.05236
2403.21665,0.05254
2401.28791,0.05279
2399.35916,0.05303
2397.43042,0.05324
2395.50167,0.05347
2393.57293,0.05373
2391.64418,0.05394
2389.71544,0.05417
2387.78669,0.05447
2385.85795,0.05473
2383.92920,0.05492
2382.00045,0.05505
2380.07171,0.05518
2378.14296,0.05527
2376.21422,0.05541
2374.28547,0.05573
2372.35673,0.05608
2370.42798,0.05617
2368.49924,0.05613
2366.57049,0.05611
2364.64175,0.05613
2362.71300,0.05631
2360.78426,0.05664
2358.85551,0.05684
2356.92677,0.05690
2354.99802,0.05707
2353.06927,0.05728
2351.14053,0.05733
2349.21178,0.05733
2347.28304,0.05738
2345.35429,0.05734
2343.42555,0.05732
2341.49680,0.05750
2339.56806,0.05766
2337.63931,0.05765
2335.71057,0.05763
2333.78182,0.05770
2331.85308,0.05776
2329.92433,0.05777
2327.99559,0.05785
2326.06684,0.05804
2324.13810,0.05828
2322.20935,0.05833
2320.28060,0.05806
2318.35186,0.05791
2316.42311,0.05819
2314.49437,0.05856
2312.56562,0.05873
2310.63688,0.05883
2308.70813,0.05888
2306.77939,0.05886
2304.85064,0.05879
2302.92190,0.05866
2300.99315,0.05860
2299.06441,0.05867
2297.13566,0.05868
2295.20692,0.05878
2293.27817,0.05916
2291.34943,0.05946
2289.42068,0.05939
2287.49193,0.05918
2285.56319,0.05909
2283.63444,0.05915
2281.70570,0.05926
2279.77695,0.05925
2277.84821,0.05927
2275.91946,0.05952
2273.99072,0.05977
2272.06197,0.05984
2270.13323,0.05973
2268.20448,0.05947
2266.27574,0.05923
2264.34699,0.05917
2262.41825,0.05927
2260.48950,0.05940
2258.56075,0.05945
2256.63201,0.05943
2254.70326,0.05930
2252.77452,0.05905
2250.84577,0.05888
2248.91703,0.05885
2246.98828,0.05887
2245.05954,0.05901
2243.13079,0.05918
2241.20205,0.05910
2239.27330,0.05886
2237.34456,0.05873
2235.41581,0.05868
2233.48707,0.05869
2231.55832,0.05877
2229.62958,0.05885
2227.70083,0.05887
2225.77208,0.05896
2223.84334,0.05914
2221.91459,0.05918
2219.98585,0.05900
2218.05710,0.05876
2216.12836,0.05866
2214.19961,0.05874
2212.27087,0.05885
2210.34212,0.05889
2208.41338,0.05878
2206.48463,0.05870
2204.55589,0.05886
2202.62714,0.05905
2200.69840,0.05903
2198.76965,0.05885
2196.84090,0.05880
2194.91216,0.05886
2192.98341,0.05880
2191.05467,0.05864
2189.12592,0.05862
2187.19718,0.05871
2185.26843,0.05868
2183.33969,0.05854
2181.41094,0.05848
2179.48220,0.05855
2177.55345,0.05858
2175.62471,0.05849
2173.69596,0.05837
2171.76722,0.05834
2169.83847,0.05842
2167.90973,0.05858
2165.98098,0.05869
2164.05223,0.05863
2162.12349,0.05849
2160.19474,0.05845
2158.26600,0.05848
2156.33725,0.05843
2154.40851,0.05839
2152.47976,0.05843
2150.55102,0.05841
2148.62227,0.05832
2146.69353,0.05820
2144.76478,0.05810
2142.83604,0.05811
2140.90729,0.05824
2138.97855,0.05831
2137.04980,0.05823
2135.12106,0.05809
2133.19231,0.05792
2131.26356,0.05781
2129.33482,0.05779
2127.40607,0.05777
2125.47733,0.05780
2123.54858,0.05788
2121.61984,0.05789
2119.69109,0.05787
2117.76235,0.05789
2115.83360,0.05793
2113.90486,0.05799
2111.97611,0.05808
2110.04737,0.05814
2108.11862,0.05811
2106.18988,0.05808
2104.26113,0.05810
2102.33238,0.05809
2100.40364,0.05807
2098.47489,0.05813
2096.54615,0.05836
2094.61740,0.05867
2092.68866,0.05874
2090.75991,0.05847
2088.83117,0.05826
2086.90242,0.05833
2084.97368,0.05847
2083.04493,0.05861
2081.11619,0.05876
2079.18744,0.05886
2077.25870,0.05891
2075.32995,0.05902
2073.40121,0.05914
2071.47246,0.05930
2069.54371,0.05959
2067.61497,0.05982
2065.68622,0.05992
2063.75748,0.06002
2061.82873,0.06008
2059.89999,0.06006
2057.97124,0.06022
2056.04250,0.06057
2054.11375,0.06085
2052.18501,0.06097
2050.25626,0.06101
2048.32752,0.06102
2046.39877,0.06099
2044.47003,0.06104
2042.54128,0.06116
2040.61254,0.06129
2038.68379,0.06142
2036.75504,0.06148
2034.82630,0.06157
2032.89755,0.06179
2030.96881,0.06201
2029.04006,0.06205
2027.11132,0.06205
2025.18257,0.06220
2023.25383,0.06242
2021.32508,0.06258
2019.39634,0.06265
2017.46759,0.06264
2015.53885,0.06266
2013.61010,0.06287
2011.68136,0.06311
2009.75261,0.06328
2007.82386,0.06345
2005.89512,0.06356
2003.96637,0.06364
2002.03763,0.06382
2000.10888,0.06397
1998.18014,0.06396
1996.25139,0.06382
1994.32265,0.06362
1992.39390,0.06355
1990.46516,0.06367
1988.53641,0.06384
1986.60767,0.06398
1984.67892,0.06407
1982.75018,0.06405
1980.82143,0.06395
1978.89269,0.06383
1976.96394,0.06371
1975.03519,0.06363
1973.10645,0.06364
1971.17770,0.06379
1969.24896,0.06393
1967.32021,0.06396
1965.39147,0.06396
1963.46272,0.06393
1961.53398,0.06381
1959.60523,0.06374
1957.67649,0.06371
1955.74774,0.06368
1953.81900,0.06366
1951.89025,0.06355
1949.96151,0.06341
1948.03276,0.06345
1946.10402,0.06362
1944.17527,0.06385
1942.24652,0.06402
1940.31778,0.06409
1938.38903,0.06409
1936.46029,0.06401
1934.53154,0.06388
1932.60280,0.06382
1930.67405,0.06389
1928.74531,0.06396
1926.81656,0.06387
1924.88782,0.06369
1922.95907,0.06353
1921.03033,0.06344
1919.10158,0.06335
1917.17284,0.06329
1915.24409,0.06324
1913.31534,0.06315
1911.38660,0.06293
1909.45785,0.06263
1907.52911,0.06240
1905.60036,0.06218
1903.67162,0.06195
1901.74287,0.06179
1899.81413,0.06163
1897.88538,0.06133
1895.95664,0.06092
1894.02789,0.06047
1892.09915,0.06011
1890.17040,0.05993
1888.24166,0.05990
1886.31291,0.05984
1884.38417,0.05964
1882.45542,0.05944
1880.52667,0.05938
1878.59793,0.05930
1876.66918,0.05912
1874.74044,0.05891
1872.81169,0.05868
1870.88295,0.05842
1868.95420,0.05818
1867.02546,0.05796
1865.09671,0.05770
1863.16797,0.05750
1861.23922,0.05741
1859.31048,0.05728
1857.38173,0.05697
1855.45299,0.05652
1853.52424,0.05604
1851.59549,0.05563
1849.66675,0.05535
1847.73800,0.05513
1845.80926,0.05472
1843.88051,0.05422
1841.95177,0.05389
1840.02302,0.05352
1838.09428,0.05290
1836.16553,0.05230
1834.23679,0.05190
1832.30804,0.05144
1830.37930,0.05091
1828.45055,0.05045
1826.52181,0.05002
1824.59306,0.04962
1822.66432,0.04922
1820.73557,0.04865
1818.80682,0.04795
1816.87808,0.04732
1814.94933,0.04676
1813.02059,0.04626
1811.09184,0.04573
1809.16310,0.04512
1807.23435,0.04455
1805.30561,0.04408
1803.37686,0.04363
1801.44812,0.04313
1799.51937,0.04256
1797.59063,0.04186
1795.66188,0.04114
1793.73314,0.04059
1791.80439,0.04013
1789.87565,0.03944
1787.94690,0.03846
1786.01815,0.03760
1784.08941,0.03707
1782.16066,0.03664
1780.23192,0.03608
1778.30317,0.03556
1776.37443,0.03515
1774.44568,0.03465
1772.51694,0.03397
1770.58819,0.03317
1768.65945,0.03222
1766.73070,0.03126
1764.80196,0.03052
1762.87321,0.02996
1760.94447,0.02942
1759.01572,0.02877
1757.08697,0.02791
1755.15823,0.02694
1753.22948,0.02597
1751.30074,0.02498
1749.37199,0.02413
1747.44325,0.02351
1745.51450,0.02295
1743.58576,0.02237
1741.65701,0.02185
1739.72827,0.02139
1737.79952,0.02094
1735.87078,0.02057
1733.94203,0.02016
1732.01329,0.01951
1730.08454,0.01879
1728.15580,0.01830
1726.22705,0.01796
1724.29830,0.01768
1722.36956,0.01746
1720.44081,0.01716
1718.51207,0.01669
1716.58332,0.01622
1714.65458,0.01585
1712.72583,0.01547
1710.79709,0.01504
1708.86834,0.01463
1706.93960,0.01431
1705.01085,0.01402
1703.08211,0.01381
1701.15336,0.01370
1699.22462,0.01361
1697.29587,0.01349
1695.36713,0.01339
1693.43838,0.01333
1691.50963,0.01332
1689.58089,0.01345
1687.65214,0.01363
1685.72340,0.01368
1683.79465,0.01366
1681.86591,0.01376
1679.93716,0.01390
1678.00842,0.01403
1676.07967,0.01412
1674.15093,0.01417
1672.22218,0.01427
1670.29344,0.01442
1668.36469,0.01448
1666.43595,0.01446
1664.50720,0.01456
1662.57845,0.01483
1660.64971,0.01522
1658.72096,0.01564
1656.79222,0.01592
1654.86347,0.01606
1652.93473,0.01619
1651.00598,0.01640
1649.07724,0.01674
1647.14849,0.01712
1645.21975,0.01728
1643.29100,0.01720
1641.36226,0.01725
1639.43351,0.01752
1637.50477,0.01780
1635.57602,0.01796
1633.64728,0.01809
1631.71853,0.01819
1629.78978,0.01820
1627.86104,0.01824
1625.93229,0.01827
1624.00355,0.01824
1622.07480,0.01820
1620.14606,0.01818
1618.21731,0.01807
1616.28857,0.01781
1614.35982,0.01762
1612.43108,0.01766
1610.50233,0.01777
1608.57359,0.01780
1606.64484,0.01771
1604.71610,0.01751
1602.78735,0.01726
1600.85861,0.01714
1598.92986,0.01712
1597.00111,0.01700
1595.07237,0.01678
1593.14362,0.01661
1591.21488,0.01656
1589.28613,0.01669
1587.35739,0.01691
1585.42864,0.01696
1583.49990,0.01677
1581.57115,0.01652
1579.64241,0.01635
1577.71366,0.01629
1575.78492,0.01621
1573.85617,0.01610
1571.92743,0.01608
1569.99868,0.01608
1568.06993,0.01594
1566.14119,0.01576
1564.21244,0.01570
1562.28370,0.01567
1560.35495,0.01555
1558.42621,0.01538
1556.49746,0.01534
1554.56872,0.01552
1552.63997,0.01578
1550.71123,0.01592
1548.78248,0.01597
1546.85374,0.01614
1544.92499,0.01647
1542.99625,0.01679
1541.06750,0.01689
1539.13876,0.01688
1537.21001,0.01696
1535.28126,0.01712
1533.35252,0.01727
1531.42377,0.01742
1529.49503,0.01749
1527.56628,0.01748
1525.63754,0.01746
1523.70879,0.01757
1521.78005,0.01775
1519.85130,0.01782
1517.92256,0.01782
1515.99381,0.01798
1514.06507,0.01823
1512.13632,0.01830
1510.20758,0.01818
1508.27883,0.01807
1506.35008,0.01809
1504.42134,0.01825
1502.49259,0.01848
1500.56385,0.01861
1498.63510,0.01860
1496.70636,0.01860
1494.77761,0.01869
1492.84887,0.01879
1490.92012,0.01881
1488.99138,0.01871
1487.06263,0.01857
1485.13389,0.01852
1483.20514,0.01845
1481.27640,0.01833
1479.34765,0.01833
1477.41891,0.01832
1475.49016,0.01807
1473.56141,0.01776
1471.63267,0.01765
1469.70392,0.01760
1467.77518,0.01746
1465.84643,0.01734
1463.91769,0.01746
1461.98894,0.01770
1460.06020,0.01764
1458.13145,0.01732
1456.20271,0.01716
1454.27396,0.01725
1452.34522,0.01737
1450.41647,0.01748
1448.48773,0.01757
1446.55898,0.01750
1444.63024,0.01738
1442.70149,0.01741
1440.77274,0.01754
1438.84400,0.01771
1436.91525,0.01784
1434.98651,0.01784
1433.05776,0.01771
1431.12902,0.01763
1429.20027,0.01770
1427.27153,0.01781
1425.34278,0.01785
1423.41404,0.01771
1421.48529,0.01739
1419.55655,0.01713
1417.62780,0.01707
1415.69906,0.01709
1413.77031,0.01711
1411.84156,0.01711
1409.91282,0.01713
1407.98407,0.01719
1406.05533,0.01712
1404.12658,0.01707
1402.19784,0.01730
1400.26909,0.01752
1398.34035,0.01749
1396.41160,0.01735
1394.48286,0.01730
1392.55411,0.01737
1390.62537,0.01732
1388.69662,0.01711
1386.76788,0.01698
1384.83913,0.01713
1382.91039,0.01729
1380.98164,0.01733
1379.05289,0.01746
1377.12415,0.01761
1375.19540,0.01761
1373.26666,0.01756
1371.33791,0.01756
1369.40917,0.01759
1367.48042,0.01760
1365.55168,0.01756
1363.62293,0.01751
1361.69419,0.01752
1359.76544,0.01755
1357.83670,0.01759
1355.90795,0.01759
1353.97921,0.01760
1352.05046,0.01774
1350.12172,0.01788
1348.19297,0.01779
1346.26422,0.01760
1344.33548,0.01754
1342.40673,0.01753
1340.47799,0.01746
1338.54924,0.01742
1336.62050,0.01734
1334.69175,0.01721
1332.76301,0.01722
1330.83426,0.01735
1328.90552,0.01744
1326.97677,0.01740
1325.04803,0.01734
1323.11928,0.01731
1321.19054,0.01718
1319.26179,0.01711
1317.33304,0.01729
1315.40430,0.01745
1313.47555,0.01735
1311.54681,0.01718
1309.61806,0.01709
1307.68932,0.01700
1305.76057,0.01685
1303.83183,0.01671
1301.90308,0.01672
1299.97434,0.01696
1298.04559,0.01720
1296.11685,0.01735
1294.18810,0.01747
1292.25936,0.01749
1290.33061,0.01738
1288.40187,0.01730
1286.47312,0.01722
1284.54437,0.01703
1282.61563,0.01693
1280.68688,0.01702
1278.75814,0.01712
1276.82939,0.01716
1274.90065,0.01713
1272.97190,0.01707
1271.04316,0.01722
1269.11441,0.01753
1267.18567,0.01769
1265.25692,0.01771
1263.32818,0.01771
1261.39943,0.01774
1259.47069,0.01770
1257.54194,0.01754
1255.61320,0.01738
1253.68445,0.01733
1251.75570,0.01729
1249.82696,0.01714
1247.89821,0.01700
1245.96947,0.01708
1244.04072,0.01732
1242.11198,0.01747
1240.18323,0.01744
1238.25449,0.01732
1236.32574,0.01728
1234.39700,0.01735
1232.46825,0.01749
1230.53951,0.01754
1228.61076,0.01739
1226.68202,0.01735
1224.75327,0.01769
1222.82452,0.01810
1220.89578,0.01817
1218.96703,0.01801
1217.03829,0.01794
1215.10954,0.01799
1213.18080,0.01804
1211.25205,0.01806
1209.32331,0.01813
1207.39456,0.01833
1205.46582,0.01856
1203.53707,0.01855
1201.60833,0.01829
1199.67958,0.01815
1197.75084,0.01825
1195.82209,0.01836
1193.89335,0.01850
1191.96460,0.01862
1190.03585,0.01859
1188.10711,0.01855
1186.17836,0.01857
1184.24962,0.01850
1182.32087,0.01845
1180.39213,0.01852
1178.46338,0.01854
1176.53464,0.01845
1174.60589,0.01840
1172.67715,0.01850
1170.74840,0.01861
1168.81966,0.01857
1166.89091,0.01843
1164.96217,0.01837
1163.03342,0.01835
1161.10467,0.01821
1159.17593,0.01818
1157.24718,0.01840
1155.31844,0.01867
1153.38969,0.01893
1151.46095,0.01914
1149.53220,0.01911
1147.60346,0.01903
1145.67471,0.01903
1143.74597,0.01891
1141.81722,0.01888
1139.88848,0.01901
1137.95973,0.01900
1136.03099,0.01879
1134.10224,0.01859
1132.17350,0.01845
1130.24475,0.01838
1128.31600,0.01838
1126.38726,0.01844
1124.45851,0.01867
1122.52977,0.01889
1120.60102,0.01883
1118.67228,0.01859
1116.74353,0.01842
1114.81479,0.01841
1112.88604,0.01853
1110.95730,0.01854
1109.02855,0.01838
1107.09981,0.01850
1105.17106,0.01887
1103.24232,0.01899
1101.31357,0.01882
1099.38483,0.01866
1097.45608,0.01870
1095.52733,0.01892
1093.59859,0.01908
1091.66984,0.01907
1089.74110,0.01884
1087.81235,0.01850
1085.88361,0.01830
1083.95486,0.01815
1082.02612,0.01801
1080.09737,0.01823
1078.16863,0.01873
1076.23988,0.01900
1074.31114,0.01905
1072.38239,0.01908
1070.45365,0.01908
1068.52490,0.01923
1066.59615,0.01962
1064.66741,0.01980
1062.73866,0.01956
1060.80992,0.01942
1058.88117,0.01964
1056.95243,0.01990
1055.02368,0.01992
1053.09494,0.01974
1051.16619,0.01953
1049.23745,0.01937
1047.30870,0.01925
1045.37996,0.01930
1043.45121,0.01969
1041.52247,0.02020
1039.59372,0.02028
1037.66498,0.02003
1035.73623,0.01998
1033.80748,0.02033
1031.87874,0.02091
1029.94999,0.02144
1028.02125,0.02191
1026.09250,0.02241
1024.16376,0.02290
1022.23501,0.02314
1020.30627,0.02292
1018.37752,0.02264
1016.44878,0.02283
1014.52003,0.02339
1012.59129,0.02397
1010.66254,0.02445
1008.73380,0.02474
1006.80505,0.02477
1004.87631,0.02474
1002.94756,0.02497
1001.01881,0.02544
999.09007,0.02589
997.16132,0.02615
995.23258,0.02628
993.30383,0.02629
991.37509,0.02608
989.44634,0.02573
987.51760,0.02557
985.58885,0.02574
983.66011,0.02612
981.73136,0.02656
979.80262,0.02693
977.87387,0.02723
975.94513,0.02735
974.01638,0.02714
972.08763,0.02696
970.15889,0.02711
968.23014,0.02730
966.30140,0.02730
964.37265,0.02710
962.44391,0.02701
960.51516,0.02730
958.58642,0.02762
956.65767,0.02775
954.72893,0.02787
952.80018,0.02796
950.87144,0.02803
948.94269,0.02806
947.01395,0.02785
945.08520,0.02747
943.15646,0.02711
941.22771,0.02664
939.29896,0.02598
937.37022,0.02559
935.44147,0.02586
933.51273,0.02635
931.58398,0.02651
929.65524,0.02639
927.72649,0.02609
925.79775,0.02575
923.86900,0.02564
921.94026,0.02583
920.01151,0.02600
918.08277,0.02599
916.15402,0.02595
914.22528,0.02591
912.29653,0.02573
910.36779,0.02560
908.43904,0.02580
906.51029,0.02624
904.58155,0.02664
902.65280,0.02671
900.72406,0.02630
898.79531,0.02562
896.86657,0.02496
894.93782,0.02467
893.00908,0.02476
891.08033,0.02483
889.15159,0.02487
887.22284,0.02515
885.29410,0.02546
883.36535,0.02540
881.43661,0.02506
879.50786,0.02486
877.57911,0.02492
875.65037,0.02493
873.72162,0.02461
871.79288,0.02428
869.86413,0.02423
867.93539,0.02435
866.00664,0.02460
864.07790,0.02480
862.14915,0.02462
860.22041,0.02415
858.29166,0.02372
856.36292,0.02358
854.43417,0.02372
852.50543,0.02368
850.57668,0.02327
848.64794,0.02302
846.71919,0.02311
844.79044,0.02307
842.86170,0.02286
840.93295,0.02282
839.00421,0.02297
837.07546,0.02289
835.14672,0.02233
833.21797,0.02161
831.28923,0.02125
829.36048,0.02131
827.43174,0.02155
825.50299,0.02199
823.57425,0.02248
821.64550,0.02248
819.71676,0.02193
817.78801,0.02134
815.85926,0.02101
813.93052,0.02082
812.00177,0.02074
810.07303,0.02103
808.14428,0.02134
806.21554,0.02130
804.28679,0.02127
802.35805,0.02121
800.42930,0.02052
798.50056,0.01944
796.57181,0.01900
794.64307,0.01946
792.71432,0.01998
790.78558,0.01996
788.85683,0.01972
786.92809,0.01973
784.99934,0.02001
783.07059,0.02002
781.14185,0.01965
779.21310,0.01941
777.28436,0.01928
775.35561,0.01897
773.42687,0.01856
771.49812,0.01822
769.56938,0.01816
767.64063,0.01852
765.71189,0.01883
763.78314,0.01895
761.85440,0.01915
759.92565,0.01901
757.99691,0.01829
756.06816,0.01758
754.13942,0.01735
752.21067,0.01743
750.28192,0.01739
748.35318,0.01710
746.42443,0.01691
744.49569,0.01706
742.56694,0.01723
740.63820,0.01746
738.70945,0.01809
736.78071,0.01852
734.85196,0.01823
732.92322,0.01782
730.99447,0.01759
729.06573,0.01746
727.13698,0.01738
725.20824,0.01715
723.27949,0.01700
721.35074,0.01715
719.42200,0.01700
717.49325,0.01664
715.56451,0.01691
713.63576,0.01760
711.70702,0.01761
709.77827,0.01699
707.84953,0.01678
705.92078,0.01700
703.99204,0.01685
702.06329,0.01642
700.13455,0.01646
698.20580,0.01694
696.27706,0.01707
694.34831,0.01669
692.41957,0.01620
690.49082,0.01604
688.56207,0.01637
686.63333,0.01686
684.70458,0.01705
682.77584,0.01665
680.84709,0.01579
678.91835,0.01527
676.98960,0.01539
675.06086,0.01567
673.13211,0.01595
671.20337,0.01626
669.27462,0.01632
667.34588,0.01609
665.41713,0.01595
663.48839,0.01602
661.55964,0.01609
659.63090,0.01600
657.70215,0.01600
655.77340,0.01629
653.84466,0.01614
651.91591,0.01560
649.98717,0.01571
648.05842,0.01599
646.12968,0.01525
644.20093,0.01434
642.27219,0.01455
640.34344,0.01515
638.41470,0.01506
636.48595,0.01467
634.55721,0.01481
632.62846,0.01560
630.69972,0.01611
628.77097,0.01599
626.84222,0.01549
624.91348,0.01481
622.98473,0.01442
621.05599,0.01425
619.12724,0.01378
617.19850,0.01367
615.26975,0.01450
613.34101,0.01540
611.41226,0.01597
609.48352,0.01647
607.55477,0.01637
605.62603,0.01576
603.69728,0.01544
601.76854,0.01530
599.83979,0.01505
