7497.03301,0.56444
7495.10426,0.56030
7493.17552,0.56116
7491.24677,0.56281
7489.31803,0.56178
7487.38928,0.56134
7485.46054,0.56564
7483.53179,0.56971
7481.60305,0.56644
7479.67430,0.56174
7477.74556,0.56291
7475.81681,0.56590
7473.88807,0.56621
7471.95932,0.56575
7470.03057,0.56608
7468.10183,0.56522
7466.17308,0.56409
7464.24434,0.56598
7462.31559,0.56743
7460.38685,0.56401
7458.45810,0.56141
7456.52936,0.56393
7454.60061,0.56444
7452.67187,0.56025
7450.74312,0.55827
7448.81438,0.56080
7446.88563,0.56444
7444.95689,0.56579
7443.02814,0.56327
7441.09940,0.56041
7439.17065,0.56092
7437.24190,0.56135
7435.31316,0.55685
7433.38441,0.55176
7431.45567,0.55266
7429.52692,0.55586
7427.59818,0.55594
7425.66943,0.55392
7423.74069,0.55019
7421.81194,0.54654
7419.88320,0.54753
7417.95445,0.55147
7416.02571,0.55450
7414.09696,0.55580
7412.16822,0.55251
7410.23947,0.54675
7408.31073,0.54698
7406.38198,0.55269
7404.45323,0.55730
7402.52449,0.55868
7400.59574,0.55701
7398.66700,0.55347
7396.73825,0.55054
7394.80951,0.55043
7392.88076,0.55228
7390.95202,0.55334
7389.02327,0.55401
7387.09453,0.55589
7385.16578,0.55713
7383.23704,0.55447
7381.30829,0.54913
7379.37955,0.54553
7377.45080,0.54633
7375.52205,0.55130
7373.59331,0.55584
7371.66456,0.55518
7369.73582,0.55121
7367.80707,0.54867
7365.87833,0.54830
7363.94958,0.54839
7362.02084,0.54991
7360.09209,0.55392
7358.16335,0.55753
7356.23460,0.55890
7354.30586,0.55807
7352.37711,0.55416
7350.44837,0.54977
7348.51962,0.54826
7346.59088,0.54845
7344.66213,0.54873
7342.73338,0.54737
7340.80464,0.54392
7338.87589,0.54182
7336.94715,0.54187
7335.01840,0.54182
7333.08966,0.54162
7331.16091,0.54159
7329.23217,0.54105
7327.30342,0.54139
7325.37468,0.54418
7323.44593,0.54663
7321.51719,0.54615
7319.58844,0.54360
7317.65970,0.54088
7315.73095,0.53922
7313.80221,0.53894
7311.87346,0.54053
7309.94471,0.54303
7308.01597,0.54326
7306.08722,0.54117
7304.15848,0.54091
7302.22973,0.54261
7300.30099,0.54215
7298.37224,0.53985
7296.44350,0.53899
7294.51475,0.54062
7292.58601,0.54149
7290.65726,0.53838
7288.72852,0.53474
7286.79977,0.53413
7284.87103,0.53508
7282.94228,0.53553
7281.01353,0.53555
7279.08479,0.53584
7277.15604,0.53480
7275.22730,0.53296
7273.29855,0.53336
7271.36981,0.53485
7269.44106,0.53489
7267.51232,0.53321
7265.58357,0.53197
7263.65483,0.53476
7261.72608,0.53982
7259.79734,0.54116
7257.86859,0.53805
7255.93985,0.53391
7254.01110,0.53080
7252.08236,0.52868
7250.15361,0.52754
7248.22486,0.52868
7246.29612,0.53055
7244.36737,0.53085
7242.43863,0.53113
7240.50988,0.53168
7238.58114,0.53205
7236.65239,0.53293
7234.72365,0.53245
7232.79490,0.53019
7230.86616,0.52915
7228.93741,0.52968
7227.00867,0.52926
7225.07992,0.52732
7223.15118,0.52613
7221.22243,0.52595
7219.29369,0.52485
7217.36494,0.52371
7215.43619,0.52418
7213.50745,0.52489
7211.57870,0.52473
7209.64996,0.52484
7207.72121,0.52506
7205.79247,0.52412
7203.86372,0.52304
7201.93498,0.52111
7200.00623,0.51721
7198.07749,0.51532
7196.14874,0.51698
7194.22000,0.51904
7192.29125,0.51930
7190.36251,0.51670
7188.43376,0.51507
7186.50501,0.51830
7184.57627,0.52132
7182.64752,0.51924
7180.71878,0.51452
7178.79003,0.51153
7176.86129,0.51111
7174.93254,0.50938
7173.00380,0.50483
7171.07505,0.50219
7169.14631,0.50308
7167.21756,0.50359
7165.28882,0.50377
7163.36007,0.50583
7161.43133,0.50727
7159.50258,0.50665
7157.57384,0.50570
7155.64509,0.50349
7153.71634,0.50074
7151.78760,0.50211
7149.85885,0.50667
7147.93011,0.50899
7146.00136,0.50787
7144.07262,0.50571
7142.14387,0.50580
7140.21513,0.50783
7138.28638,0.50713
7136.35764,0.50331
7134.42889,0.50056
7132.50015,0.50042
7130.57140,0.49983
7128.64266,0.49724
7126.71391,0.49647
7124.78516,0.49669
7122.85642,0.49331
7120.92767,0.49041
7118.99893,0.49255
7117.07018,0.49602
7115.14144,0.49607
7113.21269,0.49208
7111.28395,0.48839
7109.35520,0.48834
7107.42646,0.48865
7105.49771,0.48647
7103.56897,0.48534
7101.64022,0.48809
7099.71148,0.49088
7097.78273,0.49040
7095.85399,0.48837
7093.92524,0.48606
7091.99649,0.48386
7090.06775,0.48323
7088.13900,0.48370
7086.21026,0.48319
7084.28151,0.48133
7082.35277,0.47904
7080.42402,0.47728
7078.49528,0.47671
7076.56653,0.47609
7074.63779,0.47445
7072.70904,0.47274
7070.78030,0.47124
7068.85155,0.46972
7066.92281,0.46962
7064.99406,0.47324
7063.06532,0.47892
7061.13657,0.48108
7059.20782,0.47775
7057.27908,0.47351
7055.35033,0.47303
7053.42159,0.47403
7051.49284,0.47285
7049.56410,0.47205
7047.63535,0.47314
7045.70661,0.47302
7043.77786,0.47109
7041.84912,0.46907
7039.92037,0.46781
7037.99163,0.46709
7036.06288,0.46533
7034.13414,0.46261
7032.20539,0.46094
7030.27664,0.46010
7028.34790,0.45921
7026.41915,0.45972
7024.49041,0.46140
7022.56166,0.46177
7020.63292,0.46134
7018.70417,0.46117
7016.77543,0.46097
7014.84668,0.46175
7012.91794,0.46380
7010.98919,0.46590
7009.06045,0.46606
7007.13170,0.46422
7005.20296,0.46400
7003.27421,0.46518
7001.34547,0.46377
6999.41672,0.46111
6997.48797,0.46069
6995.55923,0.46091
6993.63048,0.45935
6991.70174,0.45713
6989.77299,0.45551
6987.84425,0.45547
6985.91550,0.45734
6983.98676,0.45786
6982.05801,0.45551
6980.12927,0.45315
6978.20052,0.45277
6976.27178,0.45468
6974.34303,0.45728
6972.41429,0.45726
6970.48554,0.45531
6968.55680,0.45518
6966.62805,0.45648
6964.69930,0.45539
6962.77056,0.45206
6960.84181,0.44966
6958.91307,0.44898
6956.98432,0.45051
6955.05558,0.45329
6953.12683,0.45340
6951.19809,0.45084
6949.26934,0.44907
6947.34060,0.44881
6945.41185,0.44902
6943.48311,0.44930
6941.55436,0.45014
6939.62562,0.45134
6937.69687,0.45115
6935.76812,0.44998
6933.83938,0.44955
6931.91063,0.44881
6929.98189,0.44745
6928.05314,0.44672
6926.12440,0.44640
6924.19565,0.44647
6922.26691,0.44647
6920.33816,0.44489
6918.40942,0.44167
6916.48067,0.43897
6914.55193,0.43823
6912.62318,0.43778
6910.69444,0.43663
6908.76569,0.43690
6906.83695,0.43874
6904.90820,0.43959
6902.97945,0.43996
6901.05071,0.44078
6899.12196,0.43969
6897.19322,0.43765
6895.26447,0.43799
6893.33573,0.43958
6891.40698,0.44058
6889.47824,0.44087
6887.54949,0.43865
6885.62075,0.43492
6883.69200,0.43390
6881.76326,0.43495
6879.83451,0.43545
6877.90577,0.43568
6875.97702,0.43511
6874.04828,0.43351
6872.11953,0.43255
6870.19078,0.43218
6868.26204,0.43178
6866.33329,0.43205
6864.40455,0.43215
6862.47580,0.43077
6860.54706,0.42943
6858.61831,0.42949
6856.68957,0.42917
6854.76082,0.42687
6852.83208,0.42524
6850.90333,0.42648
6848.97459,0.42785
6847.04584,0.42818
6845.11710,0.42897
6843.18835,0.42963
6841.25960,0.42964
6839.33086,0.43013
6837.40211,0.43044
6835.47337,0.42765
6833.54462,0.42200
6831.61588,0.41893
6829.68713,0.42060
6827.75839,0.42153
6825.82964,0.41949
6823.90090,0.41924
6821.97215,0.42228
6820.04341,0.42576
6818.11466,0.42747
6816.18592,0.42575
6814.25717,0.42203
6812.32843,0.42033
6810.39968,0.42098
6808.47093,0.42169
6806.54219,0.42161
6804.61344,0.42054
6802.68470,0.41937
6800.75595,0.41919
6798.82721,0.41949
6796.89846,0.41924
6794.96972,0.41777
6793.04097,0.41628
6791.11223,0.41606
6789.18348,0.41583
6787.25474,0.41472
6785.32599,0.41408
6783.39725,0.41474
6781.46850,0.41457
6779.53975,0.41171
6777.61101,0.40886
6775.68226,0.40879
6773.75352,0.40941
6771.82477,0.40825
6769.89603,0.40645
6767.96728,0.40577
6766.03854,0.40682
6764.10979,0.40825
6762.18105,0.40680
6760.25230,0.40216
6758.32356,0.39758
6756.39481,0.39497
6754.46607,0.39443
6752.53732,0.39641
6750.60858,0.39902
6748.67983,0.39883
6746.75108,0.39686
6744.82234,0.39567
6742.89359,0.39478
6740.96485,0.39322
6739.03610,0.39152
6737.10736,0.38960
6735.17861,0.38667
6733.24987,0.38508
6731.32112,0.38581
6729.39238,0.38459
6727.46363,0.38065
6725.53489,0.37798
6723.60614,0.37669
6721.67740,0.37481
6719.74865,0.37458
6717.81991,0.37709
6715.89116,0.37813
6713.96241,0.37567
6712.03367,0.37275
6710.10492,0.37091
6708.17618,0.36843
6706.24743,0.36595
6704.31869,0.36599
6702.38994,0.36783
6700.46120,0.36891
6698.53245,0.36832
6696.60371,0.36725
6694.67496,0.36673
6692.74622,0.36691
6690.81747,0.36743
6688.88873,0.36677
6686.95998,0.36489
6685.03123,0.36342
6683.10249,0.36348
6681.17374,0.36499
6679.24500,0.36539
6677.31625,0.36398
6675.38751,0.36352
6673.45876,0.36402
6671.53002,0.36394
6669.60127,0.36420
6667.67253,0.36487
6665.74378,0.36448
6663.81504,0.36371
6661.88629,0.36364
6659.95755,0.36319
6658.02880,0.36196
6656.10006,0.36076
6654.17131,0.36030
6652.24256,0.36176
6650.31382,0.36358
6648.38507,0.36236
6646.45633,0.35961
6644.52758,0.35882
6642.59884,0.35927
6640.67009,0.35916
6638.74135,0.35871
6636.81260,0.35866
6634.88386,0.35960
6632.95511,0.36219
6631.02637,0.36531
6629.09762,0.36655
6627.16888,0.36613
6625.24013,0.36607
6623.31139,0.36595
6621.38264,0.36477
6619.45389,0.36427
6617.52515,0.36517
6615.59640,0.36543
6613.66766,0.36416
6611.73891,0.36268
6609.81017,0.36213
6607.88142,0.36264
6605.95268,0.36390
6604.02393,0.36504
6602.09519,0.36585
6600.16644,0.36690
6598.23770,0.36737
6596.30895,0.36685
6594.38021,0.36633
6592.45146,0.36600
6590.52271,0.36579
6588.59397,0.36564
6586.66522,0.36561
6584.73648,0.36621
6582.80773,0.36746
6580.87899,0.36895
6578.95024,0.37042
6577.02150,0.37125
6575.09275,0.37013
6573.16401,0.36713
6571.23526,0.36532
6569.30652,0.36749
6567.37777,0.37258
6565.44903,0.37684
6563.52028,0.37814
6561.59154,0.37753
6559.66279,0.37620
6557.73404,0.37484
6555.80530,0.37570
6553.87655,0.37924
6551.94781,0.38183
6550.01906,0.38150
6548.09032,0.38000
6546.16157,0.37877
6544.23283,0.37868
6542.30408,0.37961
6540.37534,0.37954
6538.44659,0.37842
6536.51785,0.37856
6534.58910,0.38014
6532.66036,0.38192
6530.73161,0.38338
6528.80287,0.38467
6526.87412,0.38599
6524.94537,0.38706
6523.01663,0.38779
6521.08788,0.38742
6519.15914,0.38575
6517.23039,0.38551
6515.30165,0.38718
6513.37290,0.38798
6511.44416,0.38795
6509.51541,0.38814
6507.58667,0.38855
6505.65792,0.38990
6503.72918,0.39152
6501.80043,0.39166
6499.87169,0.39129
6497.94294,0.39245
6496.01419,0.39423
6494.08545,0.39511
6492.15670,0.39562
6490.22796,0.39592
6488.29921,0.39641
6486.37047,0.39827
6484.44172,0.40029
6482.51298,0.40100
6480.58423,0.40138
6478.65549,0.40172
6476.72674,0.40145
6474.79800,0.40108
6472.86925,0.40066
6470.94051,0.40039
6469.01176,0.40152
6467.08302,0.40326
6465.15427,0.40357
6463.22552,0.40362
6461.29678,0.40508
6459.36803,0.40645
6457.43929,0.40707
6455.51054,0.40792
6453.58180,0.40869
6451.65305,0.40966
6449.72431,0.41203
6447.79556,0.41434
6445.86682,0.41462
6443.93807,0.41338
6442.00933,0.41127
6440.08058,0.40927
6438.15184,0.40968
6436.22309,0.41205
6434.29434,0.41359
6432.36560,0.41432
6430.43685,0.41507
6428.50811,0.41431
6426.57936,0.41313
6424.65062,0.41458
6422.72187,0.41667
6420.79313,0.41654
6418.86438,0.41534
6416.93564,0.41407
6415.00689,0.41338
6413.07815,0.41480
6411.14940,0.41688
6409.22066,0.41812
6407.29191,0.42006
6405.36317,0.42150
6403.43442,0.42019
6401.50567,0.41822
6399.57693,0.41798
6397.64818,0.41929
6395.71944,0.42123
6393.79069,0.42234
6391.86195,0.42192
6389.93320,0.42101
6388.00446,0.42024
6386.07571,0.42004
6384.14697,0.42124
6382.21822,0.42286
6380.28948,0.42291
6378.36073,0.42166
6376.43199,0.42094
6374.50324,0.42073
6372.57450,0.41953
6370.64575,0.41759
6368.71700,0.41655
6366.78826,0.41606
6364.85951,0.41506
6362.93077,0.41584
6361.00202,0.41978
6359.07328,0.42364
6357.14453,0.42452
6355.21579,0.42321
6353.28704,0.42224
6351.35830,0.42211
6349.42955,0.42176
6347.50081,0.42129
6345.57206,0.42157
6343.64332,0.42202
6341.71457,0.42162
6339.78582,0.42204
6337.85708,0.42336
6335.92833,0.42311
6333.99959,0.42306
6332.07084,0.42531
6330.14210,0.42743
6328.21335,0.42698
6326.28461,0.42450
6324.35586,0.42301
6322.42712,0.42406
6320.49837,0.42516
6318.56963,0.42482
6316.64088,0.42488
6314.71214,0.42624
6312.78339,0.42775
6310.85465,0.42780
6308.92590,0.42613
6306.99715,0.42521
6305.06841,0.42706
6303.13966,0.43018
6301.21092,0.43204
6299.28217,0.43204
6297.35343,0.43152
6295.42468,0.43206
6293.49594,0.43351
6291.56719,0.43471
6289.63845,0.43552
6287.70970,0.43598
6285.78096,0.43583
6283.85221,0.43524
6281.92347,0.43428
6279.99472,0.43325
6278.06598,0.43326
6276.13723,0.43408
6274.20848,0.43464
6272.27974,0.43558
6270.35099,0.43701
6268.42225,0.43788
6266.49350,0.43845
6264.56476,0.43860
6262.63601,0.43790
6260.70727,0.43785
6258.77852,0.43977
6256.84978,0.44162
6254.92103,0.44114
6252.99229,0.44035
6251.06354,0.44074
6249.13480,0.44113
6247.20605,0.44218
6245.27730,0.44411
6243.34856,0.44437
6241.41981,0.44195
6239.49107,0.43919
6237.56232,0.43908
6235.63358,0.44231
6233.70483,0.44646
6231.77609,0.44866
6229.84734,0.44884
6227.91860,0.44886
6225.98985,0.44905
6224.06111,0.44887
6222.13236,0.44834
6220.20362,0.44748
6218.27487,0.44674
6216.34613,0.44707
6214.41738,0.44808
6212.48863,0.44894
6210.55989,0.44977
6208.63114,0.45051
6206.70240,0.45111
6204.77365,0.45165
6202.84491,0.45165
6200.91616,0.45190
6198.98742,0.45308
6197.05867,0.45357
6195.12993,0.45252
6193.20118,0.45133
6191.27244,0.45173
6189.34369,0.45381
6187.41495,0.45566
6185.48620,0.45629
6183.55746,0.45697
6181.62871,0.45783
6179.69996,0.45758
6177.77122,0.45705
6175.84247,0.45748
6173.91373,0.45794
6171.98498,0.45836
6170.05624,0.46008
6168.12749,0.46207
6166.19875,0.46146
6164.27000,0.45904
6162.34126,0.45853
6160.41251,0.45997
6158.48377,0.46121
6156.55502,0.46249
6154.62628,0.46375
6152.69753,0.46372
6150.76878,0.46300
6148.84004,0.46298
6146.91129,0.46331
6144.98255,0.46320
6143.05380,0.46324
6141.12506,0.46394
6139.19631,0.46426
6137.26757,0.46413
6135.33882,0.46496
6133.41008,0.46499
6131.48133,0.46286
6129.55259,0.46209
6127.62384,0.46352
6125.69510,0.46422
6123.76635,0.46411
6121.83761,0.46424
6119.90886,0.46443
6117.98011,0.46470
6116.05137,0.46543
6114.12262,0.46666
6112.19388,0.46803
6110.26513,0.46923
6108.33639,0.46991
6106.40764,0.46976
6104.47890,0.46901
6102.55015,0.46829
6100.62141,0.46839
6098.69266,0.46857
6096.76392,0.46755
6094.83517,0.46713
6092.90643,0.46877
6090.97768,0.47050
6089.04893,0.47130
6087.12019,0.47155
6085.19144,0.47146
6083.26270,0.47144
6081.33395,0.47131
6079.40521,0.47098
6077.47646,0.47118
6075.54772,0.47132
6073.61897,0.47009
6071.69023,0.46839
6069.76148,0.46766
6067.83274,0.46793
6065.90399,0.46920
6063.97525,0.47067
6062.04650,0.47100
6060.11776,0.47050
6058.18901,0.47010
6056.26026,0.46990
6054.33152,0.46936
6052.40277,0.46808
6050.47403,0.46654
6048.54528,0.46529
6046.61654,0.46483
6044.68779,0.46531
6042.75905,0.46575
6040.83030,0.46536
6038.90156,0.46440
6036.97281,0.46357
6035.04407,0.46316
6033.11532,0.46286
6031.18658,0.46262
6029.25783,0.46227
6027.32909,0.46189
6025.40034,0.46191
6023.47159,0.46194
6021.54285,0.46185
6019.61410,0.46160
6017.68536,0.46077
6015.75661,0.45964
6013.82787,0.45840
6011.89912,0.45699
6009.97038,0.45587
6008.04163,0.45525
6006.11289,0.45459
6004.18414,0.45409
6002.25540,0.45387
6000.32665,0.45288
5998.39791,0.45121
5996.46916,0.44957
5994.54041,0.44802
5992.61167,0.44676
5990.68292,0.44568
5988.75418,0.44407
5986.82543,0.44199
5984.89669,0.44000
5982.96794,0.43796
5981.03920,0.43661
5979.11045,0.43663
5977.18171,0.43581
5975.25296,0.43250
5973.32422,0.42865
5971.39547,0.42651
5969.46673,0.42624
5967.53798,0.42622
5965.60924,0.42419
5963.68049,0.42036
5961.75174,0.41723
5959.82300,0.41522
5957.89425,0.41350
5955.96551,0.41281
5954.03676,0.41308
5952.10802,0.41208
5950.17927,0.40942
5948.25053,0.40692
5946.32178,0.40506
5944.39304,0.40312
5942.46429,0.40050
5940.53555,0.39731
5938.60680,0.39504
5936.67806,0.39404
5934.74931,0.39228
5932.82057,0.38972
5930.89182,0.38816
5928.96307,0.38713
5927.03433,0.38580
5925.10558,0.38420
5923.17684,0.38223
5921.24809,0.38030
5919.31935,0.37864
5917.39060,0.37727
5915.46186,0.37643
5913.53311,0.37537
5911.60437,0.37320
5909.67562,0.37074
5907.74688,0.36993
5905.81813,0.37032
5903.88939,0.36965
5901.96064,0.36834
5900.03189,0.36850
5898.10315,0.36980
5896.17440,0.37003
5894.24566,0.36857
5892.31691,0.36684
5890.38817,0.36648
5888.45942,0.36762
5886.53068,0.36874
5884.60193,0.36945
5882.67319,0.37058
5880.74444,0.37161
5878.81570,0.37171
5876.88695,0.37111
5874.95821,0.37049
5873.02946,0.37075
5871.10072,0.37222
5869.17197,0.37405
5867.24322,0.37558
5865.31448,0.37619
5863.38573,0.37554
5861.45699,0.37481
5859.52824,0.37454
5857.59950,0.37421
5855.67075,0.37421
5853.74201,0.37445
5851.81326,0.37437
5849.88452,0.37452
5847.95577,0.37462
5846.02703,0.37337
5844.09828,0.37186
5842.16954,0.37209
5840.24079,0.37334
5838.31205,0.37368
5836.38330,0.37284
5834.45455,0.37184
5832.52581,0.37113
5830.59706,0.37016
5828.66832,0.36894
5826.73957,0.36828
5824.81083,0.36824
5822.88208,0.36784
5820.95334,0.36646
5819.02459,0.36432
5817.09585,0.36227
5815.16710,0.36121
5813.23836,0.36075
5811.30961,0.36020
5809.38087,0.35944
5807.45212,0.35791
5805.52337,0.35583
5803.59463,0.35460
5801.66588,0.35446
5799.73714,0.35408
5797.80839,0.35319
5795.87965,0.35245
5793.95090,0.35130
5792.02216,0.35004
5790.09341,0.34963
5788.16467,0.34931
5786.23592,0.34872
5784.30718,0.34812
5782.37843,0.34702
5780.44969,0.34570
5778.52094,0.34496
5776.59220,0.34474
5774.66345,0.34449
5772.73470,0.34411
5770.80596,0.34388
5768.87721,0.34336
5766.94847,0.34187
5765.01972,0.34029
5763.09098,0.33974
5761.16223,0.33995
5759.23349,0.34005
5757.30474,0.33980
5755.37600,0.33964
5753.44725,0.33973
5751.51851,0.33996
5749.58976,0.34019
5747.66102,0.34008
5745.73227,0.34012
5743.80352,0.34099
5741.87478,0.34203
5739.94603,0.34304
5738.01729,0.34445
5736.08854,0.34539
5734.15980,0.34552
5732.23105,0.34593
5730.30231,0.34641
5728.37356,0.34657
5726.44482,0.34741
5724.51607,0.34927
5722.58733,0.35119
5720.65858,0.35237
5718.72984,0.35265
5716.80109,0.35276
5714.87235,0.35352
5712.94360,0.35510
5711.01485,0.35735
5709.08611,0.35973
5707.15736,0.36188
5705.22862,0.36424
5703.29987,0.36655
5701.37113,0.36804
5699.44238,0.36916
5697.51364,0.37047
5695.58489,0.37140
5693.65615,0.37173
5691.72740,0.37243
5689.79866,0.37385
5687.86991,0.37535
5685.94117,0.37668
5684.01242,0.37793
5682.08368,0.37882
5680.15493,0.37951
5678.22618,0.38061
5676.29744,0.38198
5674.36869,0.38304
5672.43995,0.38383
5670.51120,0.38442
5668.58246,0.38480
5666.65371,0.38586
5664.72497,0.38779
5662.79622,0.38930
5660.86748,0.39051
5658.93873,0.39234
5657.00999,0.39430
5655.08124,0.39565
5653.15250,0.39621
5651.22375,0.39646
5649.29500,0.39675
5647.36626,0.39730
5645.43751,0.39884
5643.50877,0.40065
5641.58002,0.40128
5639.65128,0.40117
5637.72253,0.40167
5635.79379,0.40289
5633.86504,0.40390
5631.93630,0.40445
5630.00755,0.40493
5628.07881,0.40557
5626.15006,0.40612
5624.22132,0.40663
5622.29257,0.40768
5620.36383,0.40895
5618.43508,0.40952
5616.50633,0.40887
5614.57759,0.40766
5612.64884,0.40758
5610.72010,0.40890
5608.79135,0.41025
5606.86261,0.41081
5604.93386,0.41068
5603.00512,0.40991
5601.07637,0.40884
5599.14763,0.40852
5597.21888,0.40953
5595.29014,0.41115
5593.36139,0.41236
5591.43265,0.41270
5589.50390,0.41264
5587.57516,0.41264
5585.64641,0.41241
5583.71766,0.41190
5581.78892,0.41179
5579.86017,0.41167
5577.93143,0.41088
5576.00268,0.41047
5574.07394,0.41126
5572.14519,0.41215
5570.21645,0.41201
5568.28770,0.41116
5566.35896,0.41048
5564.43021,0.41050
5562.50147,0.41084
5560.57272,0.41089
5558.64398,0.41084
5556.71523,0.41110
5554.78648,0.41157
5552.85774,0.41174
5550.92899,0.41137
5549.00025,0.41096
5547.07150,0.41128
5545.14276,0.41221
5543.21401,0.41274
5541.28527,0.41246
5539.35652,0.41193
5537.42778,0.41188
5535.49903,0.41240
5533.57029,0.41296
5531.64154,0.41336
5529.71280,0.41356
5527.78405,0.41393
5525.85531,0.41469
5523.92656,0.41520
5521.99781,0.41506
5520.06907,0.41437
5518.14032,0.41352
5516.21158,0.41297
5514.28283,0.41296
5512.35409,0.41364
5510.42534,0.41495
5508.49660,0.41605
5506.56785,0.41593
5504.63911,0.41499
5502.71036,0.41459
5500.78162,0.41514
5498.85287,0.41596
5496.92413,0.41613
5494.99538,0.41569
5493.06664,0.41563
5491.13789,0.41600
5489.20914,0.41626
5487.28040,0.41668
5485.35165,0.41735
5483.42291,0.41782
5481.49416,0.41835
5479.56542,0.41909
5477.63667,0.41955
5475.70793,0.41981
5473.77918,0.42022
5471.85044,0.42065
5469.92169,0.42085
5467.99295,0.42047
5466.06420,0.41959
5464.13546,0.41892
5462.20671,0.41925
5460.27796,0.42053
5458.34922,0.42167
5456.42047,0.42218
5454.49173,0.42234
5452.56298,0.42257
5450.63424,0.42323
5448.70549,0.42385
5446.77675,0.42405
5444.84800,0.42431
5442.91926,0.42460
5440.99051,0.42493
5439.06177,0.42566
5437.13302,0.42638
5435.20428,0.42701
5433.27553,0.42773
5431.34679,0.42800
5429.41804,0.42795
5427.48929,0.42815
5425.56055,0.42841
5423.63180,0.42893
5421.70306,0.43004
5419.77431,0.43121
5417.84557,0.43178
5415.91682,0.43158
5413.98808,0.43112
5412.05933,0.43081
5410.13059,0.43048
5408.20184,0.43046
5406.27310,0.43096
5404.34435,0.43123
5402.41561,0.43097
5400.48686,0.43031
5398.55811,0.42978
5396.62937,0.43024
5394.70062,0.43120
5392.77188,0.43174
5390.84313,0.43186
5388.91439,0.43145
5386.98564,0.43052
5385.05690,0.43004
5383.12815,0.43039
5381.19941,0.43096
5379.27066,0.43141
5377.34192,0.43167
5375.41317,0.43159
5373.48443,0.43116
5371.55568,0.43085
5369.62694,0.43094
5367.69819,0.43062
5365.76944,0.42967
5363.84070,0.42918
5361.91195,0.42942
5359.98321,0.42920
5358.05446,0.42806
5356.12572,0.42690
5354.19697,0.42621
5352.26823,0.42580
5350.33948,0.42553
5348.41074,0.42530
5346.48199,0.42471
5344.55325,0.42389
5342.62450,0.42367
5340.69576,0.42337
5338.76701,0.42187
5336.83827,0.42006
5334.90952,0.41893
5332.98077,0.41780
5331.05203,0.41608
5329.12328,0.41437
5327.19454,0.41307
5325.26579,0.41182
5323.33705,0.41032
5321.40830,0.40849
5319.47956,0.40645
5317.55081,0.40420
5315.62207,0.40170
5313.69332,0.39942
5311.76458,0.39778
5309.83583,0.39649
5307.90709,0.39486
5305.97834,0.39237
5304.04959,0.38918
5302.12085,0.38576
5300.19210,0.38211
5298.26336,0.37819
5296.33461,0.37468
5294.40587,0.37161
5292.47712,0.36797
5290.54838,0.36350
5288.61963,0.35927
5286.69089,0.35609
5284.76214,0.35339
5282.83340,0.35012
5280.90465,0.34609
5278.97591,0.34179
5277.04716,0.33761
5275.11842,0.33343
5273.18967,0.32924
5271.26092,0.32534
5269.33218,0.32164
5267.40343,0.31810
5265.47469,0.31494
5263.54594,0.31185
5261.61720,0.30839
5259.68845,0.30475
5257.75971,0.30130
5255.83096,0.29829
5253.90222,0.29559
5251.97347,0.29287
5250.04473,0.29004
5248.11598,0.28742
5246.18724,0.28529
5244.25849,0.28314
5242.32975,0.28030
5240.40100,0.27723
5238.47225,0.27485
5236.54351,0.27283
5234.61476,0.27060
5232.68602,0.26807
5230.75727,0.26531
5228.82853,0.26311
5226.89978,0.26169
5224.97104,0.25981
5223.04229,0.25751
5221.11355,0.25562
5219.18480,0.25394
5217.25606,0.25223
5215.32731,0.25063
5213.39857,0.24925
5211.46982,0.24824
5209.54107,0.24754
5207.61233,0.24677
5205.68358,0.24554
5203.75484,0.24378
5201.82609,0.24165
5199.89735,0.23949
5197.96860,0.23797
5196.03986,0.23735
5194.11111,0.23717
5192.18237,0.23666
5190.25362,0.23531
5188.32488,0.23387
5186.39613,0.23315
5184.46739,0.23265
5182.53864,0.23191
5180.60990,0.23082
5178.68115,0.22931
5176.75240,0.22809
5174.82366,0.22743
5172.89491,0.22648
5170.96617,0.22526
5169.03742,0.22477
5167.10868,0.22506
5165.17993,0.22535
5163.25119,0.22516
5161.32244,0.22456
5159.39370,0.22401
5157.46495,0.22369
5155.53621,0.22383
5153.60746,0.22431
5151.67872,0.22444
5149.74997,0.22445
5147.82123,0.22475
5145.89248,0.22477
5143.96373,0.22424
5142.03499,0.22369
5140.10624,0.22355
5138.17750,0.22367
5136.24875,0.22345
5134.32001,0.22302
5132.39126,0.22323
5130.46252,0.22379
5128.53377,0.22398
5126.60503,0.22416
5124.67628,0.22468
5122.74754,0.22532
5120.81879,0.22568
5118.89005,0.22554
5116.96130,0.22529
5115.03255,0.22524
5113.10381,0.22526
5111.17506,0.22546
5109.24632,0.22542
5107.31757,0.22462
5105.38883,0.22362
5103.46008,0.22335
5101.53134,0.22395
5099.60259,0.22440
5097.67385,0.22397
5095.74510,0.22320
5093.81636,0.22250
5091.88761,0.22190
5089.95887,0.22171
5088.03012,0.22181
5086.10138,0.22135
5084.17263,0.22022
5082.24388,0.21920
5080.31514,0.21828
5078.38639,0.21732
5076.45765,0.21680
5074.52890,0.21663
5072.60016,0.21615
5070.67141,0.21557
5068.74267,0.21561
5066.81392,0.21595
5064.88518,0.21573
5062.95643,0.21483
5061.02769,0.21383
5059.09894,0.21322
5057.17020,0.21318
5055.24145,0.21343
5053.31270,0.21375
5051.38396,0.21421
5049.45521,0.21452
5047.52647,0.21449
5045.59772,0.21457
5043.66898,0.21484
5041.74023,0.21498
5039.81149,0.21507
5037.88274,0.21564
5035.95400,0.21677
5034.02525,0.21744
5032.09651,0.21732
5030.16776,0.21726
5028.23902,0.21761
5026.31027,0.21810
5024.38153,0.21836
5022.45278,0.21793
5020.52403,0.21703
5018.59529,0.21673
5016.66654,0.21755
5014.73780,0.21866
5012.80905,0.21929
5010.88031,0.21959
5008.95156,0.21979
5007.02282,0.21982
5005.09407,0.21964
5003.16533,0.21972
5001.23658,0.22046
4999.30784,0.22165
4997.37909,0.22287
4995.45035,0.22312
4993.52160,0.22221
4991.59286,0.22170
4989.66411,0.22189
4987.73536,0.22167
4985.80662,0.22119
4983.87787,0.22127
4981.94913,0.22159
4980.02038,0.22171
4978.09164,0.22183
4976.16289,0.22207
4974.23415,0.22189
4972.30540,0.22100
4970.37666,0.22018
4968.44791,0.21985
4966.51917,0.21947
4964.59042,0.21897
4962.66168,0.21872
4960.73293,0.21857
4958.80418,0.21803
4956.87544,0.21716
4954.94669,0.21643
4953.01795,0.21606
4951.08920,0.21588
4949.16046,0.21547
4947.23171,0.21447
4945.30297,0.21328
4943.37422,0.21248
4941.44548,0.21170
4939.51673,0.21078
4937.58799,0.20992
4935.65924,0.20886
4933.73050,0.20783
4931.80175,0.20690
4929.87301,0.20545
4927.94426,0.20367
4926.01551,0.20241
4924.08677,0.20172
4922.15802,0.20079
4920.22928,0.19916
4918.30053,0.19705
4916.37179,0.19536
4914.44304,0.19461
4912.51430,0.19392
4910.58555,0.19254
4908.65681,0.19085
4906.72806,0.18938
4904.79932,0.18822
4902.87057,0.18742
4900.94183,0.18678
4899.01308,0.18564
4897.08434,0.18411
4895.15559,0.18254
4893.22684,0.18093
4891.29810,0.17968
4889.36935,0.17885
4887.44061,0.17788
4885.51186,0.17674
4883.58312,0.17574
4881.65437,0.17479
4879.72563,0.17376
4877.79688,0.17289
4875.86814,0.17216
4873.93939,0.17147
4872.01065,0.17088
4870.08190,0.17049
4868.15316,0.17036
4866.22441,0.17021
4864.29566,0.16993
4862.36692,0.16981
4860.43817,0.16999
4858.50943,0.17023
4856.58068,0.17035
4854.65194,0.17081
4852.72319,0.17170
4850.79445,0.17252
4848.86570,0.17323
4846.93696,0.17404
4845.00821,0.17502
4843.07947,0.17628
4841.15072,0.17781
4839.22198,0.17935
4837.29323,0.18060
4835.36449,0.18153
4833.43574,0.18281
4831.50699,0.18479
4829.57825,0.18664
4827.64950,0.18795
4825.72076,0.18917
4823.79201,0.19069
4821.86327,0.19243
4819.93452,0.19402
4818.00578,0.19536
4816.07703,0.19621
4814.14829,0.19682
4812.21954,0.19831
4810.29080,0.20060
4808.36205,0.20244
4806.43331,0.20368
4804.50456,0.20481
4802.57582,0.20571
4800.64707,0.20635
4798.71832,0.20698
4796.78958,0.20771
4794.86083,0.20880
4792.93209,0.21045
4791.00334,0.21206
4789.07460,0.21291
4787.14585,0.21326
4785.21711,0.21362
4783.28836,0.21422
4781.35962,0.21478
4779.43087,0.21498
4777.50213,0.21522
4775.57338,0.21565
4773.64464,0.21582
4771.71589,0.21585
4769.78714,0.21638
4767.85840,0.21731
4765.92965,0.21776
4764.00091,0.21760
4762.07216,0.21741
4760.14342,0.21749
4758.21467,0.21772
4756.28593,0.21760
4754.35718,0.21716
4752.42844,0.21707
4750.49969,0.21723
4748.57095,0.21691
4746.64220,0.21637
4744.71346,0.21600
4742.78471,0.21555
4740.85597,0.21515
4738.92722,0.21499
4736.99847,0.21497
4735.06973,0.21490
4733.14098,0.21444
4731.21224,0.21368
4729.28349,0.21296
4727.35475,0.21230
4725.42600,0.21186
4723.49726,0.21170
4721.56851,0.21124
4719.63977,0.21025
4717.71102,0.20920
4715.78228,0.20856
4713.85353,0.20816
4711.92479,0.20745
4709.99604,0.20623
4708.06729,0.20481
4706.13855,0.20351
4704.20980,0.20241
4702.28106,0.20166
4700.35231,0.20137
4698.42357,0.20085
4696.49482,0.19962
4694.56608,0.19817
4692.63733,0.19689
4690.70859,0.19599
4688.77984,0.19532
4686.85110,0.19408
4684.92235,0.19200
4682.99361,0.18994
4681.06486,0.18862
4679.13612,0.18748
4677.20737,0.18598
4675.27862,0.18450
4673.34988,0.18337
4671.42113,0.18224
4669.49239,0.18047
4667.56364,0.17838
4665.63490,0.17691
4663.70615,0.17595
4661.77741,0.17487
4659.84866,0.17354
4657.91992,0.17205
4655.99117,0.17060
4654.06243,0.16931
4652.13368,0.16799
4650.20494,0.16643
4648.27619,0.16461
4646.34745,0.16278
4644.41870,0.16134
4642.48995,0.16013
4640.56121,0.15870
4638.63246,0.15713
4636.70372,0.15578
4634.77497,0.15472
4632.84623,0.15358
4630.91748,0.15228
4628.98874,0.15123
4627.05999,0.15035
4625.13125,0.14932
4623.20250,0.14836
4621.27376,0.14754
4619.34501,0.14684
4617.41627,0.14631
4615.48752,0.14561
4613.55877,0.14472
4611.63003,0.14411
4609.70128,0.14385
4607.77254,0.14383
4605.84379,0.14380
4603.91505,0.14357
4601.98630,0.14329
4600.05756,0.14289
4598.12881,0.14230
4596.20007,0.14198
4594.27132,0.14213
4592.34258,0.14215
4590.41383,0.14217
4588.48509,0.14282
4586.55634,0.14359
4584.62760,0.14364
4582.69885,0.14347
4580.77010,0.14378
4578.84136,0.14417
4576.91261,0.14420
4574.98387,0.14454
4573.05512,0.14540
4571.12638,0.14606
4569.19763,0.14630
4567.26889,0.14640
4565.34014,0.14664
4563.41140,0.14707
4561.48265,0.14752
4559.55391,0.14800
4557.62516,0.14853
4555.69642,0.14917
4553.76767,0.15016
4551.83893,0.15107
4549.91018,0.15140
4547.98143,0.15169
4546.05269,0.15246
4544.12394,0.15333
4542.19520,0.15398
4540.26645,0.15452
4538.33771,0.15501
4536.40896,0.15552
4534.48022,0.15602
4532.55147,0.15621
4530.62273,0.15644
4528.69398,0.15737
4526.76524,0.15869
4524.83649,0.15980
4522.90775,0.16063
4520.97900,0.16123
4519.05025,0.16173
4517.12151,0.16235
4515.19276,0.16294
4513.26402,0.16327
4511.33527,0.16372
4509.40653,0.16474
4507.47778,0.16598
4505.54904,0.16679
4503.62029,0.16728
4501.69155,0.16780
4499.76280,0.16843
4497.83406,0.16926
4495.90531,0.17015
4493.97657,0.17061
4492.04782,0.17093
4490.11908,0.17173
4488.19033,0.17265
4486.26158,0.17308
4484.33284,0.17307
4482.40409,0.17291
4480.47535,0.17259
4478.54660,0.17222
4476.61786,0.17230
4474.68911,0.17295
4472.76037,0.17340
4470.83162,0.17320
4468.90288,0.17280
4466.97413,0.17251
4465.04539,0.17211
4463.11664,0.17172
4461.18790,0.17149
4459.25915,0.17119
4457.33041,0.17053
4455.40166,0.16958
4453.47291,0.16839
4451.54417,0.16691
4449.61542,0.16570
4447.68668,0.16501
4445.75793,0.16409
4443.82919,0.16283
4441.90044,0.16176
4439.97170,0.16053
4438.04295,0.15857
4436.11421,0.15642
4434.18546,0.15461
4432.25672,0.15294
4430.32797,0.15136
4428.39923,0.14995
4426.47048,0.14862
4424.54173,0.14743
4422.61299,0.14634
4420.68424,0.14511
4418.75550,0.14368
4416.82675,0.14243
4414.89801,0.14189
4412.96926,0.14190
4411.04052,0.14160
4409.11177,0.14082
4407.18303,0.14002
4405.25428,0.13912
4403.32554,0.13803
4401.39679,0.13715
4399.46805,0.13664
4397.53930,0.13619
4395.61056,0.13566
4393.68181,0.13499
4391.75306,0.13420
4389.82432,0.13365
4387.89557,0.13342
4385.96683,0.13313
4384.03808,0.13279
4382.10934,0.13261
4380.18059,0.13229
4378.25185,0.13174
4376.32310,0.13112
4374.39436,0.13053
4372.46561,0.13015
4370.53687,0.12995
4368.60812,0.12970
4366.67938,0.12956
4364.75063,0.12978
4362.82189,0.13016
4360.89314,0.13026
4358.96439,0.13014
4357.03565,0.13009
4355.10690,0.13026
4353.17816,0.13044
4351.24941,0.13035
4349.32067,0.13032
4347.39192,0.13073
4345.46318,0.13129
4343.53443,0.13161
4341.60569,0.13197
4339.67694,0.13271
4337.74820,0.13343
4335.81945,0.13368
4333.89071,0.13371
4331.96196,0.13391
4330.03321,0.13426
4328.10447,0.13467
4326.17572,0.13510
4324.24698,0.13544
4322.31823,0.13583
4320.38949,0.13649
4318.46074,0.13713
4316.53200,0.13758
4314.60325,0.13800
4312.67451,0.13854
4310.74576,0.13913
4308.81702,0.13950
4306.88827,0.13952
4304.95953,0.13949
4303.03078,0.13966
4301.10204,0.13975
4299.17329,0.13951
4297.24454,0.13922
4295.31580,0.13913
4293.38705,0.13928
4291.45831,0.13947
4289.52956,0.13952
4287.60082,0.13969
4285.67207,0.13982
4283.74333,0.13949
4281.81458,0.13896
4279.88584,0.13860
4277.95709,0.13849
4276.02835,0.13841
4274.09960,0.13808
4272.17086,0.13752
4270.24211,0.13697
4268.31336,0.13655
4266.38462,0.13617
4264.45587,0.13589
4262.52713,0.13586
4260.59838,0.13591
4258.66964,0.13598
4256.74089,0.13618
4254.81215,0.13652
4252.88340,0.13693
4250.95466,0.13734
4249.02591,0.13770
4247.09717,0.13815
4245.16842,0.13871
4243.23968,0.13908
4241.31093,0.13906
4239.38219,0.13912
4237.45344,0.13972
4235.52469,0.14046
4233.59595,0.14079
4231.66720,0.14096
4229.73846,0.14149
4227.80971,0.14214
4225.88097,0.14264
4223.95222,0.14324
4222.02348,0.14395
4220.09473,0.14451
4218.16599,0.14478
4216.23724,0.14475
4214.30850,0.14467
4212.37975,0.14477
4210.45101,0.14517
4208.52226,0.14572
4206.59352,0.14598
4204.66477,0.14608
4202.73602,0.14646
4200.80728,0.14688
4198.87853,0.14690
4196.94979,0.14691
4195.02104,0.14737
4193.09230,0.14787
4191.16355,0.14802
4189.23481,0.14808
4187.30606,0.14808
4185.37732,0.14799
4183.44857,0.14820
4181.51983,0.14861
4179.59108,0.14877
4177.66234,0.14869
4175.73359,0.14870
4173.80484,0.14912
4171.87610,0.14981
4169.94735,0.15017
4168.01861,0.15013
4166.08986,0.15018
4164.16112,0.15039
4162.23237,0.15054
4160.30363,0.15058
4158.37488,0.15046
4156.44614,0.15025
4154.51739,0.14991
4152.58865,0.14938
4150.65990,0.14890
4148.73116,0.14864
4146.80241,0.14863
4144.87367,0.14879
4142.94492,0.14877
4141.01617,0.14850
4139.08743,0.14825
4137.15868,0.14814
4135.22994,0.14807
4133.30119,0.14781
4131.37245,0.14737
4129.44370,0.14704
4127.51496,0.14694
4125.58621,0.14700
4123.65747,0.14705
4121.72872,0.14699
4119.79998,0.14697
4117.87123,0.14691
4115.94249,0.14664
4114.01374,0.14614
4112.08500,0.14539
4110.15625,0.14452
4108.22750,0.14377
4106.29876,0.14319
4104.37001,0.14249
4102.44127,0.14166
4100.51252,0.14100
4098.58378,0.14034
4096.65503,0.13931
4094.72629,0.13811
4092.79754,0.13729
4090.86880,0.13678
4088.94005,0.13587
4087.01131,0.13454
4085.08256,0.13345
4083.15382,0.13262
4081.22507,0.13176
4079.29632,0.13110
4077.36758,0.13064
4075.43883,0.12989
4073.51009,0.12902
4071.58134,0.12835
4069.65260,0.12767
4067.72385,0.12702
4065.79511,0.12659
4063.86636,0.12620
4061.93762,0.12582
4060.00887,0.12549
4058.08013,0.12509
4056.15138,0.12463
4054.22264,0.12435
4052.29389,0.12433
4050.36515,0.12427
4048.43640,0.12407
4046.50765,0.12393
4044.57891,0.12391
4042.65016,0.12396
4040.72142,0.12422
4038.79267,0.12460
4036.86393,0.12481
4034.93518,0.12491
4033.00644,0.12508
4031.07769,0.12539
4029.14895,0.12581
4027.22020,0.12612
4025.29146,0.12639
4023.36271,0.12673
4021.43397,0.12686
4019.50522,0.12667
4017.57648,0.12648
4015.64773,0.12646
4013.71898,0.12658
4011.79024,0.12684
4009.86149,0.12693
4007.93275,0.12678
4006.00400,0.12679
4004.07526,0.12690
4002.14651,0.12692
4000.21777,0.12677
3998.28902,0.12630
3996.36028,0.12569
3994.43153,0.12537
3992.50279,0.12536
3990.57404,0.12529
3988.64530,0.12501
3986.71655,0.12471
3984.78780,0.12443
3982.85906,0.12416
3980.93031,0.12408
3979.00157,0.12425
3977.07282,0.12450
3975.14408,0.12451
3973.21533,0.12409
3971.28659,0.12363
3969.35784,0.12346
3967.42910,0.12338
3965.50035,0.12308
3963.57161,0.12270
3961.64286,0.12250
3959.71412,0.12247
3957.78537,0.12237
3955.85663,0.12208
3953.92788,0.12172
3951.99913,0.12144
3950.07039,0.12111
3948.14164,0.12080
3946.21290,0.12072
3944.28415,0.12074
3942.35541,0.12076
3940.42666,0.12073
3938.49792,0.12049
3936.56917,0.12026
3934.64043,0.12032
3932.71168,0.12057
3930.78294,0.12080
3928.85419,0.12088
3926.92545,0.12089
3924.99670,0.12112
3923.06795,0.12166
3921.13921,0.12239
3919.21046,0.12307
3917.28172,0.12358
3915.35297,0.12407
3913.42423,0.12468
3911.49548,0.12532
3909.56674,0.12602
3907.63799,0.12679
3905.70925,0.12749
3903.78050,0.12813
3901.85176,0.12892
3899.92301,0.12995
3897.99427,0.13109
3896.06552,0.13219
3894.13678,0.13331
3892.20803,0.13427
3890.27928,0.13484
3888.35054,0.13533
3886.42179,0.13607
3884.49305,0.13693
3882.56430,0.13754
3880.63556,0.13798
3878.70681,0.13866
3876.77807,0.13956
3874.84932,0.14035
3872.92058,0.14103
3870.99183,0.14177
3869.06309,0.14244
3867.13434,0.14311
3865.20560,0.14384
3863.27685,0.14439
3861.34811,0.14458
3859.41936,0.14472
3857.49061,0.14514
3855.56187,0.14577
3853.63312,0.14645
3851.70438,0.14711
3849.77563,0.14779
3847.84689,0.14852
3845.91814,0.14898
3843.98940,0.14906
3842.06065,0.14913
3840.13191,0.14945
3838.20316,0.15000
3836.27442,0.15043
3834.34567,0.15046
3832.41693,0.15047
3830.48818,0.15089
3828.55943,0.15142
3826.63069,0.15174
3824.70194,0.15200
3822.77320,0.15219
3820.84445,0.15231
3818.91571,0.15262
3816.98696,0.15301
3815.05822,0.15322
3813.12947,0.15334
3811.20073,0.15345
3809.27198,0.15355
3807.34324,0.15380
3805.41449,0.15412
3803.48575,0.15435
3801.55700,0.15441
3799.62826,0.15425
3797.69951,0.15400
3795.77076,0.15377
3793.84202,0.15351
3791.91327,0.15323
3789.98453,0.15318
3788.05578,0.15349
3786.12704,0.15380
3784.19829,0.15389
3782.26955,0.15380
3780.34080,0.15363
3778.41206,0.15334
3776.48331,0.15286
3774.55457,0.15234
3772.62582,0.15186
3770.69708,0.15142
3768.76833,0.15117
3766.83959,0.15098
3764.91084,0.15053
3762.98209,0.14988
3761.05335,0.14920
3759.12460,0.14853
3757.19586,0.14800
3755.26711,0.14756
3753.33837,0.14675
3751.40962,0.14552
3749.48088,0.14439
3747.55213,0.14372
3745.62339,0.14312
3743.69464,0.14227
3741.76590,0.14161
3739.83715,0.14117
3737.90841,0.14042
3735.97966,0.13928
3734.05091,0.13822
3732.12217,0.13734
3730.19342,0.13623
3728.26468,0.13492
3726.33593,0.13373
3724.40719,0.13244
3722.47844,0.13090
3720.54970,0.12948
3718.62095,0.12835
3716.69221,0.12703
3714.76346,0.12517
3712.83472,0.12306
3710.90597,0.12115
3708.97723,0.11946
3707.04848,0.11760
3705.11974,0.11541
3703.19099,0.11301
3701.26224,0.11043
3699.33350,0.10776
3697.40475,0.10515
3695.47601,0.10256
3693.54726,0.09990
3691.61852,0.09719
3689.68977,0.09439
3687.76103,0.09142
3685.83228,0.08817
3683.90354,0.08463
3681.97479,0.08098
3680.04605,0.07738
3678.11730,0.07397
3676.18856,0.07081
3674.25981,0.06802
3672.33107,0.06562
3670.40232,0.06330
3668.47357,0.06094
3666.54483,0.05871
3664.61608,0.05668
3662.68734,0.05485
3660.75859,0.05308
3658.82985,0.05111
3656.90110,0.04927
3654.97236,0.04794
3653.04361,0.04689
3651.11487,0.04583
3649.18612,0.04457
3647.25738,0.04308
3645.32863,0.04167
3643.39989,0.04040
3641.47114,0.03920
3639.54239,0.03828
3637.61365,0.03747
3635.68490,0.03651
3633.75616,0.03556
3631.82741,0.03468
3629.89867,0.03373
3627.96992,0.03283
3626.04118,0.03222
3624.11243,0.03197
3622.18369,0.03169
3620.25494,0.03099
3618.32620,0.03014
3616.39745,0.02967
3614.46871,0.02953
3612.53996,0.02928
3610.61122,0.02873
3608.68247,0.02810
3606.75372,0.02786
3604.82498,0.02795
3602.89623,0.02777
3600.96749,0.02709
3599.03874,0.02636
3597.11000,0.02599
3595.18125,0.02577
3593.25251,0.02536
3591.32376,0.02497
3589.39502,0.02483
3587.46627,0.02470
3585.53753,0.02454
3583.60878,0.02445
3581.68004,0.02427
3579.75129,0.02405
3577.82254,0.02405
3575.89380,0.02412
3573.96505,0.02390
3572.03631,0.02352
3570.10756,0.02321
3568.17882,0.02282
3566.25007,0.02243
3564.32133,0.02235
3562.39258,0.02242
3560.46384,0.02235
3558.53509,0.02196
3556.60635,0.02139
3554.67760,0.02108
3552.74886,0.02105
3550.82011,0.02099
3548.89137,0.02090
3546.96262,0.02081
3545.03387,0.02080
3543.10513,0.02080
3541.17638,0.02068
3539.24764,0.02057
3537.31889,0.02044
3535.39015,0.02025
3533.46140,0.02016
3531.53266,0.01999
3529.60391,0.01966
3527.67517,0.01965
3525.74642,0.02013
3523.81768,0.02048
3521.88893,0.02041
3519.96019,0.02018
3518.03144,0.01996
3516.10270,0.01974
3514.17395,0.01953
3512.24520,0.01925
3510.31646,0.01877
3508.38771,0.01848
3506.45897,0.01880
3504.53022,0.01936
3502.60148,0.01963
3500.67273,0.01959
3498.74399,0.01938
3496.81524,0.01920
3494.88650,0.01922
3492.95775,0.01921
3491.02901,0.01902
3489.10026,0.01893
3487.17152,0.01901
3485.24277,0.01877
3483.31402,0.01826
3481.38528,0.01805
3479.45653,0.01830
3477.52779,0.01861
3475.59904,0.01864
3473.67030,0.01846
3471.74155,0.01824
3469.81281,0.01806
3467.88406,0.01806
3465.95532,0.01804
3464.02657,0.01778
3462.09783,0.01750
3460.16908,0.01740
3458.24034,0.01753
3456.31159,0.01784
3454.38285,0.01809
3452.45410,0.01820
3450.52535,0.01820
3448.59661,0.01808
3446.66786,0.01778
3444.73912,0.01761
3442.81037,0.01776
3440.88163,0.01790
3438.95288,0.01788
3437.02414,0.01784
3435.09539,0.01771
3433.16665,0.01751
3431.23790,0.01734
3429.30916,0.01723
3427.38041,0.01734
3425.45167,0.01763
3423.52292,0.01783
3421.59418,0.01789
3419.66543,0.01777
3417.73668,0.01756
3415.80794,0.01755
3413.87919,0.01768
3411.95045,0.01762
3410.02170,0.01731
3408.09296,0.01702
3406.16421,0.01710
3404.23547,0.01760
3402.30672,0.01811
3400.37798,0.01821
3398.44923,0.01794
3396.52049,0.01756
3394.59174,0.01744
3392.66300,0.01773
3390.73425,0.01783
3388.80550,0.01735
3386.87676,0.01692
3384.94801,0.01714
3383.01927,0.01749
3381.09052,0.01754
3379.16178,0.01751
3377.23303,0.01735
3375.30429,0.01702
3373.37554,0.01693
3371.44680,0.01720
3369.51805,0.01748
3367.58931,0.01762
3365.66056,0.01764
3363.73182,0.01739
3361.80307,0.01703
3359.87433,0.01694
3357.94558,0.01713
3356.01683,0.01742
3354.08809,0.01762
3352.15934,0.01756
3350.23060,0.01732
3348.30185,0.01712
3346.37311,0.01684
3344.44436,0.01659
3342.51562,0.01685
3340.58687,0.01748
3338.65813,0.01782
3336.72938,0.01770
3334.80064,0.01748
3332.87189,0.01745
3330.94315,0.01746
3329.01440,0.01732
3327.08566,0.01714
3325.15691,0.01702
3323.22816,0.01686
3321.29942,0.01677
3319.37067,0.01694
3317.44193,0.01715
3315.51318,0.01712
3313.58444,0.01700
3311.65569,0.01696
3309.72695,0.01691
3307.79820,0.01683
3305.86946,0.01680
3303.94071,0.01683
3302.01197,0.01697
3300.08322,0.01719
3298.15448,0.01737
3296.22573,0.01738
3294.29698,0.01731
3292.36824,0.01732
3290.43949,0.01726
3288.51075,0.01708
3286.58200,0.01698
3284.65326,0.01708
3282.72451,0.01745
3280.79577,0.01781
3278.86702,0.01783
3276.93828,0.01768
3275.00953,0.01771
3273.08079,0.01791
3271.15204,0.01796
3269.22330,0.01771
3267.29455,0.01735
3265.36581,0.01705
3263.43706,0.01705
3261.50831,0.01736
3259.57957,0.01763
3257.65082,0.01776
3255.72208,0.01778
3253.79333,0.01765
3251.86459,0.01756
3249.93584,0.01754
3248.00710,0.01742
3246.07835,0.01744
3244.14961,0.01776
3242.22086,0.01811
3240.29212,0.01832
3238.36337,0.01843
3236.43463,0.01843
3234.50588,0.01821
3232.57713,0.01787
3230.64839,0.01784
3228.71964,0.01809
3226.79090,0.01829
3224.86215,0.01841
3222.93341,0.01849
3221.00466,0.01836
3219.07592,0.01808
3217.14717,0.01803
3215.21843,0.01809
3213.28968,0.01801
3211.36094,0.01783
3209.43219,0.01751
3207.50345,0.01739
3205.57470,0.01771
3203.64596,0.01799
3201.71721,0.01814
3199.78846,0.01852
3197.85972,0.01891
3195.93097,0.01887
3194.00223,0.01856
3192.07348,0.01822
3190.14474,0.01787
3188.21599,0.01784
3186.28725,0.01815
3184.35850,0.01840
3182.42976,0.01862
3180.50101,0.01879
3178.57227,0.01873
3176.64352,0.01850
3174.71478,0.01833
3172.78603,0.01861
3170.85729,0.01912
3168.92854,0.01910
3166.99979,0.01866
3165.07105,0.01863
3163.14230,0.01900
3161.21356,0.01908
3159.28481,0.01889
3157.35607,0.01887
3155.42732,0.01891
3153.49858,0.01879
3151.56983,0.01868
3149.64109,0.01883
3147.71234,0.01911
3145.78360,0.01917
3143.85485,0.01900
3141.92611,0.01874
3139.99736,0.01849
3138.06861,0.01848
3136.13987,0.01872
3134.21112,0.01891
3132.28238,0.01888
3130.35363,0.01882
3128.42489,0.01885
3126.49614,0.01892
3124.56740,0.01897
3122.63865,0.01900
3120.70991,0.01902
3118.78116,0.01889
3116.85242,0.01863
3114.92367,0.01856
3112.99493,0.01866
3111.06618,0.01867
3109.13744,0.01864
3107.20869,0.01858
3105.27994,0.01853
3103.35120,0.01869
3101.42245,0.01899
3099.49371,0.01916
3097.56496,0.01909
3095.63622,0.01893
3093.70747,0.01869
3091.77873,0.01841
3089.84998,0.01846
3087.92124,0.01883
3085.99249,0.01900
3084.06375,0.01892
3082.13500,0.01887
3080.20626,0.01885
3078.27751,0.01873
3076.34877,0.01858
3074.42002,0.01844
3072.49127,0.01829
3070.56253,0.01818
3068.63378,0.01820
3066.70504,0.01838
3064.77629,0.01861
3062.84755,0.01874
3060.91880,0.01873
3058.99006,0.01870
3057.06131,0.01866
3055.13257,0.01860
3053.20382,0.01867
3051.27508,0.01892
3049.34633,0.01903
3047.41759,0.01895
3045.48884,0.01894
3043.56009,0.01913
3041.63135,0.01938
3039.70260,0.01959
3037.77386,0.01967
3035.84511,0.01955
3033.91637,0.01938
3031.98762,0.01921
3030.05888,0.01903
3028.13013,0.01901
3026.20139,0.01919
3024.27264,0.01936
3022.34390,0.01933
3020.41515,0.01911
3018.48641,0.01891
3016.55766,0.01883
3014.62892,0.01881
3012.70017,0.01893
3010.77142,0.01915
3008.84268,0.01917
3006.91393,0.01902
3004.98519,0.01900
3003.05644,0.01909
3001.12770,0.01909
2999.19895,0.01901
2997.27021,0.01896
2995.34146,0.01881
2993.41272,0.01857
2991.48397,0.01855
2989.55523,0.01875
2987.62648,0.01877
2985.69774,0.01863
2983.76899,0.01850
2981.84025,0.01815
2979.91150,0.01769
2977.98275,0.01754
2976.05401,0.01773
2974.12526,0.01783
2972.19652,0.01766
2970.26777,0.01754
2968.33903,0.01769
2966.41028,0.01779
2964.48154,0.01772
2962.55279,0.01774
2960.62405,0.01784
2958.69530,0.01775
2956.76656,0.01762
2954.83781,0.01782
2952.90907,0.01821
2950.98032,0.01833
2949.05157,0.01808
2947.12283,0.01777
2945.19408,0.01759
2943.26534,0.01751
2941.33659,0.01740
2939.40785,0.01735
2937.47910,0.01749
2935.55036,0.01767
2933.62161,0.01768
2931.69287,0.01761
2929.76412,0.01765
2927.83538,0.01782
2925.90663,0.01786
2923.97789,0.01763
2922.04914,0.01750
2920.12040,0.01785
2918.19165,0.01843
2916.26290,0.01872
2914.33416,0.01863
2912.40541,0.01847
2910.47667,0.01843
2908.54792,0.01855
2906.61918,0.01879
2904.69043,0.01906
2902.76169,0.01916
2900.83294,0.01903
2898.90420,0.01892
2896.97545,0.01890
2895.04671,0.01896
2893.11796,0.01907
2891.18922,0.01903
2889.26047,0.01894
2887.33172,0.01906
2885.40298,0.01920
2883.47423,0.01911
2881.54549,0.01896
2879.61674,0.01891
2877.68800,0.01899
2875.75925,0.01914
2873.83051,0.01932
2871.90176,0.01939
2869.97302,0.01924
2868.04427,0.01921
2866.11553,0.01954
2864.18678,0.01978
2862.25804,0.01968
2860.32929,0.01957
2858.40055,0.01963
2856.47180,0.01968
2854.54305,0.01965
2852.61431,0.01961
2850.68556,0.01964
2848.75682,0.01992
2846.82807,0.02047
2844.89933,0.02094
2842.97058,0.02117
2841.04184,0.02132
2839.11309,0.02138
2837.18435,0.02138
2835.25560,0.02146
2833.32686,0.02162
2831.39811,0.02191
2829.46937,0.02220
2827.54062,0.02222
2825.61188,0.02206
2823.68313,0.02213
2821.75438,0.02244
2819.82564,0.02261
2817.89689,0.02268
2815.96815,0.02288
2814.03940,0.02301
2812.11066,0.02285
2810.18191,0.02254
2808.25317,0.02229
2806.32442,0.02233
2804.39568,0.02270
2802.46693,0.02301
2800.53819,0.02292
2798.60944,0.02263
2796.68070,0.02264
2794.75195,0.02294
2792.82320,0.02313
2790.89446,0.02326
2788.96571,0.02352
2787.03697,0.02373
2785.10822,0.02381
2783.17948,0.02390
2781.25073,0.02401
2779.32199,0.02407
2777.39324,0.02426
2775.46450,0.02456
2773.53575,0.02462
2771.60701,0.02447
2769.67826,0.02450
2767.74952,0.02471
2765.82077,0.02488
2763.89203,0.02504
2761.96328,0.02514
2760.03453,0.02515
2758.10579,0.02531
2756.17704,0.02555
2754.24830,0.02552
2752.31955,0.02540
2750.39081,0.02551
2748.46206,0.02576
2746.53332,0.02580
2744.60457,0.02580
2742.67583,0.02603
2740.74708,0.02627
2738.81834,0.02648
2736.88959,0.02678
2734.96085,0.02685
2733.03210,0.02662
2731.10336,0.02658
2729.17461,0.02676
2727.24586,0.02692
2725.31712,0.02717
2723.38837,0.02749
2721.45963,0.02758
2719.53088,0.02736
2717.60214,0.02727
2715.67339,0.02763
2713.74465,0.02810
2711.81590,0.02833
2709.88716,0.02846
2707.95841,0.02854
2706.02967,0.02855
2704.10092,0.02870
2702.17218,0.02898
2700.24343,0.02908
2698.31468,0.02906
2696.38594,0.02915
2694.45719,0.02918
2692.52845,0.02915
2690.59970,0.02935
2688.67096,0.02970
2686.74221,0.02985
2684.81347,0.02976
2682.88472,0.02975
2680.95598,0.02994
2679.02723,0.03010
2677.09849,0.03010
2675.16974,0.03008
2673.24100,0.03011
2671.31225,0.03024
2669.38351,0.03048
2667.45476,0.03068
2665.52601,0.03068
2663.59727,0.03063
2661.66852,0.03082
2659.73978,0.03109
2657.81103,0.03124
2655.88229,0.03138
2653.95354,0.03156
2652.02480,0.03168
2650.09605,0.03177
2648.16731,0.03190
2646.23856,0.03209
2644.30982,0.03227
2642.38107,0.03238
2640.45233,0.03241
2638.52358,0.03241
2636.59484,0.03242
2634.66609,0.03247
2632.73734,0.03254
2630.80860,0.03259
2628.87985,0.03265
2626.95111,0.03271
2625.02236,0.03273
2623.09362,0.03280
2621.16487,0.03296
2619.23613,0.03309
2617.30738,0.03316
2615.37864,0.03328
2613.44989,0.03352
2611.52115,0.03377
2609.59240,0.03389
2607.66366,0.03398
2605.73491,0.03417
2603.80616,0.03431
2601.87742,0.03436
2599.94867,0.03448
2598.01993,0.03463
2596.09118,0.03462
2594.16244,0.03468
2592.23369,0.03502
2590.30495,0.03533
2588.37620,0.03544
2586.44746,0.03556
2584.51871,0.03572
2582.58997,0.03581
2580.66122,0.03587
2578.73248,0.03588
2576.80373,0.03600
2574.87499,0.03626
2572.94624,0.03644
2571.01749,0.03663
2569.08875,0.03686
2567.16000,0.03695
2565.23126,0.03693
2563.30251,0.03706
2561.37377,0.03735
2559.44502,0.03759
2557.51628,0.03773
2555.58753,0.03788
2553.65879,0.03810
2551.73004,0.03836
2549.80130,0.03853
2547.87255,0.03847
2545.94381,0.03822
2544.01506,0.03817
2542.08631,0.03847
2540.15757,0.03872
2538.22882,0.03875
2536.30008,0.03880
2534.37133,0.03903
2532.44259,0.03940
2530.51384,0.03974
2528.58510,0.03993
2526.65635,0.04003
2524.72761,0.04009
2522.79886,0.04018
2520.87012,0.04029
2518.94137,0.04041
2517.01263,0.04051
2515.08388,0.04052
2513.15514,0.04040
2511.22639,0.04033
2509.29764,0.04034
2507.36890,0.04042
2505.44015,0.04055
2503.51141,0.04072
2501.58266,0.04089
2499.65392,0.04110
2497.72517,0.04142
2495.79643,0.04171
2493.86768,0.04184
2491.93894,0.04191
2490.01019,0.04210
2488.08145,0.04231
2486.15270,0.04239
2484.22396,0.04238
2482.29521,0.04252
2480.36647,0.04284
2478.43772,0.04318
2476.50897,0.04347
2474.58023,0.04373
2472.65148,0.04398
2470.72274,0.04427
2468.79399,0.04459
2466.86525,0.04480
2464.93650,0.04493
2463.00776,0.04492
2461.07901,0.04482
2459.15027,0.04497
2457.22152,0.04536
2455.29278,0.04571
2453.36403,0.04599
2451.43529,0.04629
2449.50654,0.04647
2447.57779,0.04655
2445.64905,0.04671
2443.72030,0.04699
2441.79156,0.04721
2439.86281,0.04742
2437.93407,0.04776
2436.00532,0.04812
2434.07658,0.04839
2432.14783,0.04865
2430.21909,0.04891
2428.29034,0.04914
2426.36160,0.04921
2424.43285,0.04917
2422.50411,0.04924
2420.57536,0.04942
2418.64662,0.04968
2416.71787,0.05006
2414.78912,0.05042
2412.86038,0.05059
2410.93163,0.05073
2409.00289,0.05093
2407.07414,0.05103
2405.14540,0.05108
2403.21665,0.05128
2401.28791,0.05159
2399.35916,0.05188
2397.43042,0.05225
2395.50167,0.05272
2393.57293,0.05312
2391.64418,0.05327
2389.71544,0.05329
2387.78669,0.05345
2385.85795,0.05368
2383.92920,0.05379
2382.00045,0.05387
2380.07171,0.05402
2378.14296,0.05422
2376.21422,0.05439
2374.28547,0.05448
2372.35673,0.05455
2370.42798,0.05476
2368.49924,0.05510
2366.57049,0.05533
2364.64175,0.05535
2362.71300,0.05534
2360.78426,0.05548
2358.85551,0.05568
2356.92677,0.05582
2354.99802,0.05591
2353.06927,0.05598
2351.14053,0.05605
2349.21178,0.05608
2347.28304,0.05617
2345.35429,0.05637
2343.42555,0.05649
2341.49680,0.05657
2339.56806,0.05678
2337.63931,0.05703
2335.71057,0.05723
2333.78182,0.05731
2331.85308,0.05713
2329.92433,0.05688
2327.99559,0.05689
2326.06684,0.05726
2324.13810,0.05777
2322.20935,0.05795
2320.28060,0.05768
2318.35186,0.05732
2316.42311,0.05714
2314.49437,0.05716
2312.56562,0.05729
2310.63688,0.05746
2308.70813,0.05765
2306.77939,0.05780
2304.85064,0.05791
2302.92190,0.05803
2300.99315,0.05809
2299.06441,0.05814
2297.13566,0.05827
2295.20692,0.05838
2293.27817,0.05839
2291.34943,0.05835
2289.42068,0.05837
2287.49193,0.05848
2285.56319,0.05862
2283.63444,0.05867
2281.70570,0.05865
2279.77695,0.05873
2277.84821,0.05894
2275.91946,0.05910
2273.99072,0.05915
2272.06197,0.05916
2270.13323,0.05915
2268.20448,0.05910
2266.27574,0.05912
2264.34699,0.05922
2262.41825,0.05923
2260.48950,0.05924
2258.56075,0.05941
2256.63201,0.05961
2254.70326,0.05958
2252.77452,0.05941
2250.84577,0.05931
2248.91703,0.05938
2246.98828,0.05951
2245.05954,0.05951
2243.13079,0.05942
2241.20205,0.05940
2239.27330,0.05946
2237.34456,0.05947
2235.41581,0.05941
2233.48707,0.05945
2231.55832,0.05958
2229.62958,0.05967
2227.70083,0.05966
2225.77208,0.05956
2223.84334,0.05941
2221.91459,0.05925
2219.98585,0.05920
2218.05710,0.05926
2216.12836,0.05924
2214.19961,0.05917
2212.27087,0.05921
2210.34212,0.05933
2208.41338,0.05938
2206.48463,0.05932
2204.55589,0.05930
2202.62714,0.05937
2200.69840,0.05946
2198.76965,0.05953
2196.84090,0.05953
2194.91216,0.05942
2192.98341,0.05933
2191.05467,0.05942
2189.12592,0.05962
2187.19718,0.05972
2185.26843,0.05977
2183.33969,0.05993
2181.41094,0.06003
2179.48220,0.05995
2177.55345,0.05990
2175.62471,0.05999
2173.69596,0.06003
2171.76722,0.05993
2169.83847,0.05985
2167.90973,0.05989
2165.98098,0.05991
2164.05223,0.05971
2162.12349,0.05939
2160.19474,0.05934
2158.26600,0.05962
2156.33725,0.05986
2154.40851,0.05987
2152.47976,0.05984
2150.55102,0.05982
2148.62227,0.05969
2146.69353,0.05956
2144.76478,0.05961
2142.83604,0.05974
2140.90729,0.05960
2138.97855,0.05925
2137.04980,0.05926
2135.12106,0.05955
2133.19231,0.05969
2131.26356,0.05963
2129.33482,0.05949
2127.40607,0.05931
2125.47733,0.05921
2123.54858,0.05926
2121.61984,0.05941
2119.69109,0.05950
2117.76235,0.05946
2115.83360,0.05939
2113.90486,0.05931
2111.97611,0.05927
2110.04737,0.05936
2108.11862,0.05950
2106.18988,0.05956
2104.26113,0.05956
2102.33238,0.05956
2100.40364,0.05953
2098.47489,0.05944
2096.54615,0.05938
2094.61740,0.05948
2092.68866,0.05961
2090.75991,0.05954
2088.83117,0.05936
2086.90242,0.05938
2084.97368,0.05959
2083.04493,0.05987
2081.11619,0.06012
2079.18744,0.06024
2077.25870,0.06027
2075.32995,0.06032
2073.40121,0.06039
2071.47246,0.06046
2069.54371,0.06058
2067.61497,0.06068
2065.68622,0.06069
2063.75748,0.06071
2061.82873,0.06085
2059.89999,0.06103
2057.97124,0.06123
2056.04250,0.06145
2054.11375,0.06159
2052.18501,0.06172
2050.25626,0.06196
2048.32752,0.06214
2046.39877,0.06228
2044.47003,0.06239
2042.54128,0.06237
2040.61254,0.06238
2038.68379,0.06237
2036.75504,0.06228
2034.82630,0.06230
2032.89755,0.06245
2030.96881,0.06255
2029.04006,0.06262
2027.11132,0.06272
2025.18257,0.06281
2023.25383,0.06295
2021.32508,0.06311
2019.39634,0.06314
2017.46759,0.06310
2015.53885,0.06326
2013.61010,0.06352
2011.68136,0.06358
2009.75261,0.06357
2007.82386,0.06380
2005.89512,0.06411
2003.96637,0.06418
2002.03763,0.06406
2000.10888,0.06403
1998.18014,0.06405
1996.25139,0.06396
1994.32265,0.06390
1992.39390,0.06398
1990.46516,0.06406
1988.53641,0.06401
1986.60767,0.06398
1984.67892,0.06409
1982.75018,0.06410
1980.82143,0.06396
1978.89269,0.06391
1976.96394,0.06405
1975.03519,0.06413
1973.10645,0.06393
1971.17770,0.06365
1969.24896,0.06356
1967.32021,0.06362
1965.39147,0.06361
1963.46272,0.06345
1961.53398,0.06328
1959.60523,0.06326
1957.67649,0.06336
1955.74774,0.06344
1953.81900,0.06348
1951.89025,0.06350
1949.96151,0.06355
1948.03276,0.06362
1946.10402,0.06362
1944.17527,0.06357
1942.24652,0.06360
1940.31778,0.06367
1938.38903,0.06361
1936.46029,0.06352
1934.53154,0.06353
1932.60280,0.06358
1930.67405,0.06354
1928.74531,0.06350
1926.81656,0.06351
1924.88782,0.06354
1922.95907,0.06343
1921.03033,0.06316
1919.10158,0.06288
1917.17284,0.06265
1915.24409,0.06245
1913.31534,0.06233
1911.38660,0.06228
1909.45785,0.06216
1907.52911,0.06201
1905.60036,0.06186
1903.67162,0.06162
1901.74287,0.06140
1899.81413,0.06122
1897.88538,0.06091
1895.95664,0.06044
1894.02789,0.05995
1892.09915,0.05963
1890.17040,0.05946
1888.24166,0.05924
1886.31291,0.05893
1884.38417,0.05864
1882.45542,0.05853
1880.52667,0.05866
1878.59793,0.05876
1876.66918,0.05856
1874.74044,0.05822
1872.81169,0.05800
1870.88295,0.05784
1868.95420,0.05772
1867.02546,0.05760
1865.09671,0.05728
1863.16797,0.05684
1861.23922,0.05654
1859.31048,0.05634
1857.38173,0.05611
1855.45299,0.05584
1853.52424,0.05552
1851.59549,0.05511
1849.66675,0.05467
1847.73800,0.05430
1845.80926,0.05398
1843.88051,0.05356
1841.95177,0.05306
1840.02302,0.05256
1838.09428,0.05214
1836.16553,0.05175
1834.23679,0.05138
1832.30804,0.05104
1830.37930,0.05049
1828.45055,0.04973
1826.52181,0.04906
1824.59306,0.04851
1822.66432,0.04799
1820.73557,0.04754
1818.80682,0.04718
1816.87808,0.04687
1814.94933,0.04648
1813.02059,0.04585
1811.09184,0.04513
1809.16310,0.04453
1807.23435,0.04405
1805.30561,0.04359
1803.37686,0.04306
1801.44812,0.04249
1799.51937,0.04179
1797.59063,0.04098
1795.66188,0.04027
1793.73314,0.03971
1791.80439,0.03918
1789.87565,0.03857
1787.94690,0.03797
1786.01815,0.03743
1784.08941,0.03684
1782.16066,0.03609
1780.23192,0.03530
1778.30317,0.03465
1776.37443,0.03423
1774.44568,0.03387
1772.51694,0.03324
1770.58819,0.03235
1768.65945,0.03149
1766.73070,0.03079
1764.80196,0.03019
1762.87321,0.02961
1760.94447,0.02899
1759.01572,0.02817
1757.08697,0.02718
1755.15823,0.02630
1753.22948,0.02558
1751.30074,0.02484
1749.37199,0.02395
1747.44325,0.02308
1745.51450,0.02243
1743.58576,0.02191
1741.65701,0.02137
1739.72827,0.02083
1737.79952,0.02037
1735.87078,0.01985
1733.94203,0.01924
1732.01329,0.01870
1730.08454,0.01831
1728.15580,0.01794
1726.22705,0.01756
1724.29830,0.01717
1722.36956,0.01677
1720.44081,0.01643
1718.51207,0.01600
1716.58332,0.01544
1714.65458,0.01507
1712.72583,0.01496
1710.79709,0.01477
1708.86834,0.01436
1706.93960,0.01394
1705.01085,0.01376
1703.08211,0.01378
1701.15336,0.01375
1699.22462,0.01363
1697.29587,0.01350
1695.36713,0.01329
1693.43838,0.01314
1691.50963,0.01317
1689.58089,0.01322
1687.65214,0.01314
1685.72340,0.01302
1683.79465,0.01303
1681.86591,0.01322
1679.93716,0.01342
1678.00842,0.01365
1676.07967,0.01399
1674.15093,0.01427
1672.22218,0.01441
1670.29344,0.01449
1668.36469,0.01459
1666.43595,0.01473
1664.50720,0.01484
1662.57845,0.01501
1660.64971,0.01533
1658.72096,0.01561
1656.79222,0.01574
1654.86347,0.01576
1652.93473,0.01582
1651.00598,0.01615
1649.07724,0.01674
1647.14849,0.01725
1645.21975,0.01736
1643.29100,0.01739
1641.36226,0.01759
1639.43351,0.01778
1637.50477,0.01784
1635.57602,0.01772
1633.64728,0.01754
1631.71853,0.01757
1629.78978,0.01778
1627.86104,0.01801
1625.93229,0.01809
1624.00355,0.01800
1622.07480,0.01788
1620.14606,0.01777
1618.21731,0.01771
1616.28857,0.01773
1614.35982,0.01766
1612.43108,0.01737
1610.50233,0.01708
1608.57359,0.01711
1606.64484,0.01733
1604.71610,0.01740
1602.78735,0.01737
1600.85861,0.01730
1598.92986,0.01714
1597.00111,0.01705
1595.07237,0.01703
1593.14362,0.01682
1591.21488,0.01652
1589.28613,0.01645
1587.35739,0.01651
1585.42864,0.01650
1583.49990,0.01637
1581.57115,0.01614
1579.64241,0.01599
1577.71366,0.01606
1575.78492,0.01625
1573.85617,0.01634
1571.92743,0.01628
1569.99868,0.01612
1568.06993,0.01594
1566.14119,0.01574
1564.21244,0.01559
1562.28370,0.01560
1560.35495,0.01569
1558.42621,0.01562
1556.49746,0.01543
1554.56872,0.01529
1552.63997,0.01531
1550.71123,0.01553
1548.78248,0.01587
1546.85374,0.01615
1544.92499,0.01633
1542.99625,0.01654
1541.06750,0.01673
1539.13876,0.01672
1537.21001,0.01672
1535.28126,0.01692
1533.35252,0.01708
1531.42377,0.01694
1529.49503,0.01667
1527.56628,0.01650
1525.63754,0.01660
1523.70879,0.01694
1521.78005,0.01726
1519.85130,0.01738
1517.92256,0.01738
1515.99381,0.01743
1514.06507,0.01754
1512.13632,0.01770
1510.20758,0.01786
1508.27883,0.01794
1506.35008,0.01802
1504.42134,0.01816
1502.49259,0.01825
1500.56385,0.01838
1498.63510,0.01852
1496.70636,0.01849
1494.77761,0.01834
1492.84887,0.01822
1490.92012,0.01819
1488.99138,0.01829
1487.06263,0.01841
1485.13389,0.01844
1483.20514,0.01853
1481.27640,0.01866
1479.34765,0.01864
1477.41891,0.01852
1475.49016,0.01839
1473.56141,0.01807
1471.63267,0.01764
1469.70392,0.01748
1467.77518,0.01755
1465.84643,0.01753
1463.91769,0.01732
1461.98894,0.01712
1460.06020,0.01717
1458.13145,0.01742
1456.20271,0.01750
1454.27396,0.01745
1452.34522,0.01755
1450.41647,0.01771
1448.48773,0.01772
1446.55898,0.01762
1444.63024,0.01745
1442.70149,0.01734
1440.77274,0.01733
1438.84400,0.01728
1436.91525,0.01725
1434.98651,0.01735
1433.05776,0.01752
1431.12902,0.01768
1429.20027,0.01772
1427.27153,0.01771
1425.34278,0.01773
1423.41404,0.01768
1421.48529,0.01750
1419.55655,0.01724
1417.62780,0.01707
1415.69906,0.01711
1413.77031,0.01721
1411.84156,0.01720
1409.91282,0.01723
1407.98407,0.01734
1406.05533,0.01734
1404.12658,0.01721
1402.19784,0.01715
1400.26909,0.01724
1398.34035,0.01728
1396.41160,0.01712
1394.48286,0.01703
1392.55411,0.01710
1390.62537,0.01706
1388.69662,0.01700
1386.76788,0.01722
1384.83913,0.01747
1382.91039,0.01742
1380.98164,0.01722
1379.05289,0.01713
1377.12415,0.01718
1375.19540,0.01732
1373.26666,0.01752
1371.33791,0.01766
1369.40917,0.01759
1367.48042,0.01745
1365.55168,0.01744
1363.62293,0.01749
1361.69419,0.01752
1359.76544,0.01747
1357.83670,0.01747
1355.90795,0.01755
1353.97921,0.01747
1352.05046,0.01725
1350.12172,0.01721
1348.19297,0.01727
1346.26422,0.01728
1344.33548,0.01727
1342.40673,0.01733
1340.47799,0.01735
1338.54924,0.01728
1336.62050,0.01724
1334.69175,0.01728
1332.76301,0.01723
1330.83426,0.01703
1328.90552,0.01682
1326.97677,0.01677
1325.04803,0.01680
1323.11928,0.01670
1321.19054,0.01654
1319.26179,0.01662
1317.33304,0.01687
1315.40430,0.01698
1313.47555,0.01695
1311.54681,0.01690
1309.61806,0.01684
1307.68932,0.01685
1305.76057,0.01695
1303.83183,0.01705
1301.90308,0.01707
1299.97434,0.01706
1298.04559,0.01706
1296.11685,0.01699
1294.18810,0.01693
1292.25936,0.01704
1290.33061,0.01715
1288.40187,0.01709
1286.47312,0.01704
1284.54437,0.01702
1282.61563,0.01706
1280.68688,0.01719
1278.75814,0.01726
1276.82939,0.01723
1274.90065,0.01715
1272.97190,0.01704
1271.04316,0.01708
1269.11441,0.01737
1267.18567,0.01753
1265.25692,0.01732
1263.32818,0.01709
1261.39943,0.01710
1259.47069,0.01720
1257.54194,0.01727
1255.61320,0.01725
1253.68445,0.01723
1251.75570,0.01739
1249.82696,0.01744
1247.89821,0.01722
1245.96947,0.01708
1244.04072,0.01715
1242.11198,0.01728
1240.18323,0.01736
1238.25449,0.01729
1236.32574,0.01718
1234.39700,0.01717
1232.46825,0.01725
1230.53951,0.01746
1228.61076,0.01765
1226.68202,0.01756
1224.75327,0.01735
1222.82452,0.01735
1220.89578,0.01763
1218.96703,0.01787
1217.03829,0.01781
1215.10954,0.01761
1213.18080,0.01749
1211.25205,0.01762
1209.32331,0.01785
1207.39456,0.01785
1205.46582,0.01771
1203.53707,0.01771
1201.60833,0.01787
1199.67958,0.01806
1197.75084,0.01817
1195.82209,0.01813
1193.89335,0.01801
1191.96460,0.01795
1190.03585,0.01800
1188.10711,0.01812
1186.17836,0.01830
1184.24962,0.01852
1182.32087,0.01866
1180.39213,0.01856
1178.46338,0.01834
1176.53464,0.01819
1174.60589,0.01800
1172.67715,0.01774
1170.74840,0.01782
1168.81966,0.01835
1166.89091,0.01879
1164.96217,0.01872
1163.03342,0.01832
1161.10467,0.01807
1159.17593,0.01818
1157.24718,0.01826
1155.31844,0.01806
1153.38969,0.01808
1151.46095,0.01857
1149.53220,0.01909
1147.60346,0.01924
1145.67471,0.01903
1143.74597,0.01878
1141.81722,0.01884
1139.88848,0.01902
1137.95973,0.01885
1136.03099,0.01846
1134.10224,0.01845
1132.17350,0.01886
1130.24475,0.01906
1128.31600,0.01892
1126.38726,0.01881
1124.45851,0.01873
1122.52977,0.01850
1120.60102,0.01835
1118.67228,0.01826
1116.74353,0.01811
1114.81479,0.01806
1112.88604,0.01796
1110.95730,0.01778
1109.02855,0.01800
1107.09981,0.01854
1105.17106,0.01879
1103.24232,0.01860
1101.31357,0.01823
1099.38483,0.01799
1097.45608,0.01797
1095.52733,0.01795
1093.59859,0.01810
1091.66984,0.01867
1089.74110,0.01909
1087.81235,0.01897
1085.88361,0.01863
1083.95486,0.01847
1082.02612,0.01859
1080.09737,0.01888
1078.16863,0.01907
1076.23988,0.01900
1074.31114,0.01877
1072.38239,0.01842
1070.45365,0.01814
1068.52490,0.01834
1066.59615,0.01894
1064.66741,0.01935
1062.73866,0.01929
1060.80992,0.01894
1058.88117,0.01855
1056.95243,0.01842
1055.02368,0.01857
1053.09494,0.01879
1051.16619,0.01909
1049.23745,0.01935
1047.30870,0.01939
1045.37996,0.01938
1043.45121,0.01949
1041.52247,0.01966
1039.59372,0.01977
1037.66498,0.01965
1035.73623,0.01959
1033.80748,0.02007
1031.87874,0.02094
1029.94999,0.02159
1028.02125,0.02180
1026.09250,0.02198
1024.16376,0.02233
1022.23501,0.02255
1020.30627,0.02266
1018.37752,0.02283
1016.44878,0.02321
1014.52003,0.02378
1012.59129,0.02420
1010.66254,0.02440
1008.73380,0.02467
1006.80505,0.02499
1004.87631,0.02526
1002.94756,0.02545
1001.01881,0.02537
999.09007,0.02511
997.16132,0.02502
995.23258,0.02517
993.30383,0.02548
991.37509,0.02579
989.44634,0.02596
987.51760,0.02608
985.58885,0.02624
983.66011,0.02635
981.73136,0.02643
979.80262,0.02667
977.87387,0.02696
975.94513,0.02721
974.01638,0.02751
972.08763,0.02773
970.15889,0.02769
968.23014,0.02745
966.30140,0.02731
964.37265,0.02753
962.44391,0.02786
960.51516,0.02797
958.58642,0.02791
956.65767,0.02791
954.72893,0.02792
952.80018,0.02767
950.87144,0.02717
948.94269,0.02680
947.01395,0.02678
945.08520,0.02694
943.15646,0.02695
941.22771,0.02666
939.29896,0.02630
937.37022,0.02615
935.44147,0.02603
933.51273,0.02585
931.58398,0.02578
929.65524,0.02567
927.72649,0.02545
925.79775,0.02543
923.86900,0.02566
921.94026,0.02581
920.01151,0.02587
918.08277,0.02611
916.15402,0.02657
914.22528,0.02694
912.29653,0.02696
910.36779,0.02644
908.43904,0.02572
906.51029,0.02546
904.58155,0.02572
902.65280,0.02597
900.72406,0.02602
898.79531,0.02599
896.86657,0.02575
894.93782,0.02532
893.00908,0.02511
891.08033,0.02518
889.15159,0.02528
887.22284,0.02516
885.29410,0.02490
883.36535,0.02484
881.43661,0.02484
879.50786,0.02469
877.57911,0.02454
875.65037,0.02451
873.72162,0.02456
871.79288,0.02458
869.86413,0.02443
867.93539,0.02415
866.00664,0.02397
864.07790,0.02428
862.14915,0.02462
860.22041,0.02441
858.29166,0.02424
856.36292,0.02449
854.43417,0.02455
852.50543,0.02417
850.57668,0.02375
848.64794,0.02363
846.71919,0.02374
844.79044,0.02359
842.86170,0.02310
840.93295,0.02275
839.00421,0.02252
837.07546,0.02209
835.14672,0.02184
833.21797,0.02169
831.28923,0.02127
829.36048,0.02095
827.43174,0.02083
825.50299,0.02077
823.57425,0.02098
821.64550,0.02134
819.71676,0.02152
817.78801,0.02149
815.85926,0.02126
813.93052,0.02090
812.00177,0.02061
810.07303,0.02058
808.14428,0.02090
806.21554,0.02140
804.28679,0.02177
802.35805,0.02184
800.42930,0.02161
798.50056,0.02133
796.57181,0.02106
794.64307,0.02061
792.71432,0.02009
790.78558,0.01967
788.85683,0.01942
786.92809,0.01942
784.99934,0.01949
783.07059,0.01946
781.14185,0.01952
779.21310,0.01975
777.28436,0.01984
775.35561,0.01956
773.42687,0.01907
771.49812,0.01866
769.56938,0.01843
767.64063,0.01824
765.71189,0.01802
763.78314,0.01780
761.85440,0.01759
759.92565,0.01768
757.99691,0.01829
756.06816,0.01886
754.13942,0.01880
752.21067,0.01830
750.28192,0.01783
748.35318,0.01748
746.42443,0.01730
744.49569,0.01754
742.56694,0.01799
740.63820,0.01807
738.70945,0.01803
736.78071,0.01827
734.85196,0.01827
732.92322,0.01780
730.99447,0.01747
729.06573,0.01751
727.13698,0.01775
725.20824,0.01788
723.27949,0.01753
721.35074,0.01707
719.42200,0.01725
717.49325,0.01786
715.56451,0.01817
713.63576,0.01814
711.70702,0.01806
709.77827,0.01780
707.84953,0.01715
705.92078,0.01644
703.99204,0.01602
702.06329,0.01607
700.13455,0.01639
698.20580,0.01641
696.27706,0.01596
694.34831,0.01563
692.41957,0.01601
690.49082,0.01688
688.56207,0.01743
686.63333,0.01753
684.70458,0.01731
682.77584,0.01647
680.84709,0.01517
678.91835,0.01417
676.98960,0.01410
675.06086,0.01457
673.13211,0.01466
671.20337,0.01453
669.27462,0.01505
667.34588,0.01611
665.41713,0.01663
663.48839,0.01643
661.55964,0.01628
659.63090,0.01616
657.70215,0.01560
655.77340,0.01506
653.84466,0.01500
651.91591,0.01537
649.98717,0.01589
648.05842,0.01614
646.12968,0.01568
644.20093,0.01453
642.27219,0.01367
640.34344,0.01392
638.41470,0.01476
636.48595,0.01560
634.55721,0.01577
632.62846,0.01523
630.69972,0.01505
628.77097,0.01514
626.84222,0.01467
624.91348,0.01422
622.98473,0.01424
621.05599,0.01399
619.12724,0.01310
617.19850,0.01199
615.26975,0.01170
613.34101,0.01304
611.41226,0.01537
609.48352,0.01708
607.55477,0.01750
605.62603,0.01749
603.69728,0.01689
601.76854,0.01528
599.83979,0.01355
