7497.03301,0.54541
7495.10426,0.54704
7493.17552,0.55082
7491.24677,0.55473
7489.31803,0.55891
7487.38928,0.56047
7485.46054,0.55749
7483.53179,0.55380
7481.60305,0.55102
7479.67430,0.54868
7477.74556,0.54917
7475.81681,0.55106
7473.88807,0.55327
7471.95932,0.55766
7470.03057,0.56003
7468.10183,0.55706
7466.17308,0.55514
7464.24434,0.55909
7462.31559,0.56265
7460.38685,0.56020
7458.45810,0.55630
7456.52936,0.55537
7454.60061,0.55481
7452.67187,0.55373
7450.74312,0.55436
7448.81438,0.55548
7446.88563,0.55559
7444.95689,0.55405
7443.02814,0.55283
7441.09940,0.55473
7439.17065,0.55472
7437.24190,0.55068
7435.31316,0.54851
7433.38441,0.54917
7431.45567,0.54914
7429.52692,0.54749
7427.59818,0.54652
7425.66943,0.54757
7423.74069,0.54913
7421.81194,0.55035
7419.88320,0.55230
7417.95445,0.55390
7416.02571,0.55335
7414.09696,0.55158
7412.16822,0.55044
7410.23947,0.55154
7408.31073,0.55130
7406.38198,0.54527
7404.45323,0.53983
7402.52449,0.54137
7400.59574,0.54532
7398.66700,0.54752
7396.73825,0.54915
7394.80951,0.54883
7392.88076,0.54573
7390.95202,0.54348
7389.02327,0.54303
7387.09453,0.54317
7385.16578,0.54448
7383.23704,0.54594
7381.30829,0.54657
7379.37955,0.54953
7377.45080,0.55368
7375.52205,0.55206
7373.59331,0.54633
7371.66456,0.54407
7369.73582,0.54545
7367.80707,0.54528
7365.87833,0.54203
7363.94958,0.53893
7362.02084,0.53835
7360.09209,0.53969
7358.16335,0.54063
7356.23460,0.54092
7354.30586,0.54270
7352.37711,0.54353
7350.44837,0.54007
7348.51962,0.53524
7346.59088,0.53170
7344.66213,0.52949
7342.73338,0.53059
7340.80464,0.53531
7338.87589,0.53915
7336.94715,0.53991
7335.01840,0.54004
7333.08966,0.53955
7331.16091,0.53664
7329.23217,0.53430
7327.30342,0.53479
7325.37468,0.53452
7323.44593,0.53317
7321.51719,0.53399
7319.58844,0.53597
7317.65970,0.53760
7315.73095,0.53935
7313.80221,0.53924
7311.87346,0.53551
7309.94471,0.53162
7308.01597,0.53002
7306.08722,0.52949
7304.15848,0.53135
7302.22973,0.53580
7300.30099,0.53838
7298.37224,0.53620
7296.44350,0.53144
7294.51475,0.53004
7292.58601,0.53297
7290.65726,0.53365
7288.72852,0.52996
7286.79977,0.52622
7284.87103,0.52528
7282.94228,0.52735
7281.01353,0.52943
7279.08479,0.52831
7277.15604,0.52501
7275.22730,0.52078
7273.29855,0.51692
7271.36981,0.51539
7269.44106,0.51552
7267.51232,0.51859
7265.58357,0.52502
7263.65483,0.52972
7261.72608,0.53037
7259.79734,0.52788
7257.86859,0.52344
7255.93985,0.51987
7254.01110,0.51814
7252.08236,0.51874
7250.15361,0.52123
7248.22486,0.52233
7246.29612,0.52140
7244.36737,0.51910
7242.43863,0.51646
7240.50988,0.51704
7238.58114,0.52052
7236.65239,0.52301
7234.72365,0.52296
7232.79490,0.52128
7230.86616,0.51936
7228.93741,0.51803
7227.00867,0.51777
7225.07992,0.51723
7223.15118,0.51527
7221.22243,0.51460
7219.29369,0.51645
7217.36494,0.51892
7215.43619,0.52138
7213.50745,0.52260
7211.57870,0.52115
7209.64996,0.51804
7207.72121,0.51543
7205.79247,0.51530
7203.86372,0.51530
7201.93498,0.51081
7200.00623,0.50480
7198.07749,0.50402
7196.14874,0.50839
7194.22000,0.51233
7192.29125,0.51141
7190.36251,0.50648
7188.43376,0.50155
7186.50501,0.49819
7184.57627,0.49609
7182.64752,0.49564
7180.71878,0.49564
7178.79003,0.49405
7176.86129,0.49168
7174.93254,0.49005
7173.00380,0.48895
7171.07505,0.48912
7169.14631,0.49133
7167.21756,0.49389
7165.28882,0.49368
7163.36007,0.49047
7161.43133,0.48932
7159.50258,0.49205
7157.57384,0.49392
7155.64509,0.49294
7153.71634,0.49002
7151.78760,0.48649
7149.85885,0.48554
7147.93011,0.48810
7146.00136,0.49140
7144.07262,0.49289
7142.14387,0.49105
7140.21513,0.48671
7138.28638,0.48302
7136.35764,0.48028
7134.42889,0.47666
7132.50015,0.47406
7130.57140,0.47476
7128.64266,0.47575
7126.71391,0.47370
7124.78516,0.46993
7122.85642,0.46846
7120.92767,0.47050
7118.99893,0.47084
7117.07018,0.46775
7115.14144,0.46690
7113.21269,0.46858
7111.28395,0.46827
7109.35520,0.46724
7107.42646,0.46792
7105.49771,0.46713
7103.56897,0.46322
7101.64022,0.45993
7099.71148,0.45953
7097.78273,0.46100
7095.85399,0.46180
7093.92524,0.45926
7091.99649,0.45522
7090.06775,0.45430
7088.13900,0.45522
7086.21026,0.45316
7084.28151,0.44912
7082.35277,0.44707
7080.42402,0.44771
7078.49528,0.44892
7076.56653,0.44842
7074.63779,0.44721
7072.70904,0.44793
7070.78030,0.44946
7068.85155,0.44683
7066.92281,0.43909
7064.99406,0.43356
7063.06532,0.43448
7061.13657,0.43675
7059.20782,0.43705
7057.27908,0.43642
7055.35033,0.43484
7053.42159,0.43360
7051.49284,0.43368
7049.56410,0.43378
7047.63535,0.43355
7045.70661,0.43315
7043.77786,0.43195
7041.84912,0.43036
7039.92037,0.43015
7037.99163,0.43071
7036.06288,0.43093
7034.13414,0.43074
7032.20539,0.42917
7030.27664,0.42862
7028.34790,0.43025
7026.41915,0.43079
7024.49041,0.42970
7022.56166,0.42765
7020.63292,0.42551
7018.70417,0.42481
7016.77543,0.42459
7014.84668,0.42386
7012.91794,0.42345
7010.98919,0.42414
7009.06045,0.42598
7007.13170,0.42690
7005.20296,0.42438
7003.27421,0.42054
7001.34547,0.41959
6999.41672,0.42117
6997.48797,0.42252
6995.55923,0.42318
6993.63048,0.42285
6991.70174,0.42177
6989.77299,0.42240
6987.84425,0.42309
6985.91550,0.42059
6983.98676,0.41743
6982.05801,0.41626
6980.12927,0.41601
6978.20052,0.41583
6976.27178,0.41541
6974.34303,0.41373
6972.41429,0.41139
6970.48554,0.41154
6968.55680,0.41420
6966.62805,0.41517
6964.69930,0.41408
6962.77056,0.41446
6960.84181,0.41492
6958.91307,0.41267
6956.98432,0.41078
6955.05558,0.41175
6953.12683,0.41350
6951.19809,0.41292
6949.26934,0.40988
6947.34060,0.40784
6945.41185,0.40771
6943.48311,0.40720
6941.55436,0.40635
6939.62562,0.40704
6937.69687,0.40896
6935.76812,0.40985
6933.83938,0.40873
6931.91063,0.40693
6929.98189,0.40634
6928.05314,0.40692
6926.12440,0.40688
6924.19565,0.40519
6922.26691,0.40209
6920.33816,0.39986
6918.40942,0.40078
6916.48067,0.40336
6914.55193,0.40498
6912.62318,0.40529
6910.69444,0.40516
6908.76569,0.40571
6906.83695,0.40741
6904.90820,0.40798
6902.97945,0.40466
6901.05071,0.40048
6899.12196,0.40066
6897.19322,0.40374
6895.26447,0.40423
6893.33573,0.40124
6891.40698,0.39873
6889.47824,0.39871
6887.54949,0.40050
6885.62075,0.40401
6883.69200,0.40776
6881.76326,0.40874
6879.83451,0.40629
6877.90577,0.40257
6875.97702,0.40021
6874.04828,0.39995
6872.11953,0.40082
6870.19078,0.40141
6868.26204,0.39971
6866.33329,0.39631
6864.40455,0.39385
6862.47580,0.39350
6860.54706,0.39563
6858.61831,0.39840
6856.68957,0.39916
6854.76082,0.39802
6852.83208,0.39590
6850.90333,0.39417
6848.97459,0.39360
6847.04584,0.39287
6845.11710,0.39193
6843.18835,0.39227
6841.25960,0.39353
6839.33086,0.39415
6837.40211,0.39295
6835.47337,0.39060
6833.54462,0.39056
6831.61588,0.39313
6829.68713,0.39449
6827.75839,0.39477
6825.82964,0.39533
6823.90090,0.39441
6821.97215,0.39266
6820.04341,0.39237
6818.11466,0.39241
6816.18592,0.39112
6814.25717,0.38962
6812.32843,0.38943
6810.39968,0.39041
6808.47093,0.39123
6806.54219,0.39112
6804.61344,0.39051
6802.68470,0.38957
6800.75595,0.38819
6798.82721,0.38637
6796.89846,0.38530
6794.96972,0.38513
6793.04097,0.38379
6791.11223,0.38278
6789.18348,0.38431
6787.25474,0.38593
6785.32599,0.38559
6783.39725,0.38408
6781.46850,0.38308
6779.53975,0.38297
6777.61101,0.38252
6775.68226,0.38147
6773.75352,0.38035
6771.82477,0.37961
6769.89603,0.37939
6767.96728,0.37890
6766.03854,0.37832
6764.10979,0.37755
6762.18105,0.37477
6760.25230,0.37167
6758.32356,0.37257
6756.39481,0.37654
6754.46607,0.37857
6752.53732,0.37730
6750.60858,0.37495
6748.67983,0.37251
6746.75108,0.37081
6744.82234,0.37169
6742.89359,0.37302
6740.96485,0.37076
6739.03610,0.36687
6737.10736,0.36438
6735.17861,0.36269
6733.24987,0.36287
6731.32112,0.36520
6729.39238,0.36671
6727.46363,0.36711
6725.53489,0.36753
6723.60614,0.36749
6721.67740,0.36669
6719.74865,0.36469
6717.81991,0.36296
6715.89116,0.36310
6713.96241,0.36217
6712.03367,0.35847
6710.10492,0.35588
6708.17618,0.35642
6706.24743,0.35709
6704.31869,0.35702
6702.38994,0.35755
6700.46120,0.35731
6698.53245,0.35604
6696.60371,0.35546
6694.67496,0.35549
6692.74622,0.35552
6690.81747,0.35519
6688.88873,0.35469
6686.95998,0.35502
6685.03123,0.35586
6683.10249,0.35492
6681.17374,0.35172
6679.24500,0.34965
6677.31625,0.35044
6675.38751,0.35180
6673.45876,0.35217
6671.53002,0.35207
6669.60127,0.35124
6667.67253,0.34958
6665.74378,0.34932
6663.81504,0.35088
6661.88629,0.35146
6659.95755,0.35046
6658.02880,0.34947
6656.10006,0.34950
6654.17131,0.35073
6652.24256,0.35203
6650.31382,0.35229
6648.38507,0.35244
6646.45633,0.35262
6644.52758,0.35148
6642.59884,0.35060
6640.67009,0.35194
6638.74135,0.35358
6636.81260,0.35367
6634.88386,0.35261
6632.95511,0.35100
6631.02637,0.35023
6629.09762,0.35089
6627.16888,0.35145
6625.24013,0.35165
6623.31139,0.35216
6621.38264,0.35259
6619.45389,0.35265
6617.52515,0.35176
6615.59640,0.35036
6613.66766,0.35075
6611.73891,0.35288
6609.81017,0.35428
6607.88142,0.35473
6605.95268,0.35590
6604.02393,0.35758
6602.09519,0.35740
6600.16644,0.35474
6598.23770,0.35291
6596.30895,0.35387
6594.38021,0.35565
6592.45146,0.35690
6590.52271,0.35737
6588.59397,0.35764
6586.66522,0.35873
6584.73648,0.35963
6582.80773,0.35942
6580.87899,0.35849
6578.95024,0.35743
6577.02150,0.35669
6575.09275,0.35618
6573.16401,0.35609
6571.23526,0.35698
6569.30652,0.35848
6567.37777,0.35966
6565.44903,0.36071
6563.52028,0.36088
6561.59154,0.35858
6559.66279,0.35666
6557.73404,0.35904
6555.80530,0.36377
6553.87655,0.36718
6551.94781,0.36856
6550.01906,0.36840
6548.09032,0.36707
6546.16157,0.36609
6544.23283,0.36692
6542.30408,0.36909
6540.37534,0.37065
6538.44659,0.37002
6536.51785,0.36830
6534.58910,0.36701
6532.66036,0.36628
6530.73161,0.36754
6528.80287,0.37053
6526.87412,0.37214
6524.94537,0.37215
6523.01663,0.37200
6521.08788,0.37166
6519.15914,0.37161
6517.23039,0.37195
6515.30165,0.37261
6513.37290,0.37520
6511.44416,0.37809
6509.51541,0.37732
6507.58667,0.37455
6505.65792,0.37406
6503.72918,0.37596
6501.80043,0.37781
6499.87169,0.37820
6497.94294,0.37788
6496.01419,0.37801
6494.08545,0.37870
6492.15670,0.37988
6490.22796,0.38113
6488.29921,0.38164
6486.37047,0.38147
6484.44172,0.38171
6482.51298,0.38297
6480.58423,0.38406
6478.65549,0.38387
6476.72674,0.38319
6474.79800,0.38350
6472.86925,0.38568
6470.94051,0.38869
6469.01176,0.39023
6467.08302,0.38944
6465.15427,0.38827
6463.22552,0.38923
6461.29678,0.39209
6459.36803,0.39498
6457.43929,0.39550
6455.51054,0.39336
6453.58180,0.39242
6451.65305,0.39377
6449.72431,0.39448
6447.79556,0.39488
6445.86682,0.39646
6443.93807,0.39745
6442.00933,0.39741
6440.08058,0.39810
6438.15184,0.39921
6436.22309,0.39973
6434.29434,0.40020
6432.36560,0.40077
6430.43685,0.40092
6428.50811,0.40069
6426.57936,0.40063
6424.65062,0.40124
6422.72187,0.40215
6420.79313,0.40241
6418.86438,0.40147
6416.93564,0.39990
6415.00689,0.39914
6413.07815,0.40021
6411.14940,0.40248
6409.22066,0.40347
6407.29191,0.40165
6405.36317,0.39934
6403.43442,0.39959
6401.50567,0.40162
6399.57693,0.40224
6397.64818,0.40182
6395.71944,0.40291
6393.79069,0.40457
6391.86195,0.40577
6389.93320,0.40694
6388.00446,0.40683
6386.07571,0.40531
6384.14697,0.40453
6382.21822,0.40537
6380.28948,0.40666
6378.36073,0.40716
6376.43199,0.40746
6374.50324,0.40783
6372.57450,0.40699
6370.64575,0.40586
6368.71700,0.40556
6366.78826,0.40484
6364.85951,0.40438
6362.93077,0.40540
6361.00202,0.40662
6359.07328,0.40754
6357.14453,0.40858
6355.21579,0.40850
6353.28704,0.40711
6351.35830,0.40619
6349.42955,0.40556
6347.50081,0.40490
6345.57206,0.40600
6343.64332,0.40900
6341.71457,0.41146
6339.78582,0.41190
6337.85708,0.41180
6335.92833,0.41184
6333.99959,0.41121
6332.07084,0.41088
6330.14210,0.41187
6328.21335,0.41308
6326.28461,0.41298
6324.35586,0.41247
6322.42712,0.41317
6320.49837,0.41375
6318.56963,0.41296
6316.64088,0.41192
6314.71214,0.41140
6312.78339,0.41190
6310.85465,0.41411
6308.92590,0.41649
6306.99715,0.41679
6305.06841,0.41631
6303.13966,0.41679
6301.21092,0.41664
6299.28217,0.41522
6297.35343,0.41430
6295.42468,0.41416
6293.49594,0.41461
6291.56719,0.41643
6289.63845,0.41876
6287.70970,0.42000
6285.78096,0.41960
6283.85221,0.41848
6281.92347,0.41866
6279.99472,0.42008
6278.06598,0.42150
6276.13723,0.42266
6274.20848,0.42318
6272.27974,0.42279
6270.35099,0.42213
6268.42225,0.42301
6266.49350,0.42530
6264.56476,0.42666
6262.63601,0.42675
6260.70727,0.42575
6258.77852,0.42448
6256.84978,0.42490
6254.92103,0.42632
6252.99229,0.42819
6251.06354,0.43075
6249.13480,0.43176
6247.20605,0.43069
6245.27730,0.42991
6243.34856,0.43025
6241.41981,0.43110
6239.49107,0.43251
6237.56232,0.43405
6235.63358,0.43432
6233.70483,0.43297
6231.77609,0.43209
6229.84734,0.43377
6227.91860,0.43610
6225.98985,0.43642
6224.06111,0.43550
6222.13236,0.43465
6220.20362,0.43441
6218.27487,0.43507
6216.34613,0.43675
6214.41738,0.43901
6212.48863,0.43951
6210.55989,0.43788
6208.63114,0.43768
6206.70240,0.43976
6204.77365,0.44079
6202.84491,0.43971
6200.91616,0.43906
6198.98742,0.43978
6197.05867,0.44042
6195.12993,0.44053
6193.20118,0.44083
6191.27244,0.44160
6189.34369,0.44299
6187.41495,0.44489
6185.48620,0.44567
6183.55746,0.44480
6181.62871,0.44400
6179.69996,0.44374
6177.77122,0.44392
6175.84247,0.44494
6173.91373,0.44626
6171.98498,0.44756
6170.05624,0.44883
6168.12749,0.44958
6166.19875,0.45011
6164.27000,0.45075
6162.34126,0.45030
6160.41251,0.44888
6158.48377,0.44834
6156.55502,0.44923
6154.62628,0.45064
6152.69753,0.45142
6150.76878,0.45126
6148.84004,0.45100
6146.91129,0.45137
6144.98255,0.45253
6143.05380,0.45394
6141.12506,0.45411
6139.19631,0.45253
6137.26757,0.45109
6135.33882,0.45091
6133.41008,0.45136
6131.48133,0.45232
6129.55259,0.45319
6127.62384,0.45382
6125.69510,0.45492
6123.76635,0.45512
6121.83761,0.45364
6119.90886,0.45298
6117.98011,0.45447
6116.05137,0.45582
6114.12262,0.45526
6112.19388,0.45418
6110.26513,0.45397
6108.33639,0.45433
6106.40764,0.45579
6104.47890,0.45875
6102.55015,0.46089
6100.62141,0.46036
6098.69266,0.45857
6096.76392,0.45706
6094.83517,0.45605
6092.90643,0.45591
6090.97768,0.45680
6089.04893,0.45763
6087.12019,0.45737
6085.19144,0.45704
6083.26270,0.45804
6081.33395,0.45971
6079.40521,0.46039
6077.47646,0.45946
6075.54772,0.45893
6073.61897,0.46010
6071.69023,0.46036
6069.76148,0.45841
6067.83274,0.45655
6065.90399,0.45634
6063.97525,0.45744
6062.04650,0.45826
6060.11776,0.45781
6058.18901,0.45738
6056.26026,0.45791
6054.33152,0.45813
6052.40277,0.45742
6050.47403,0.45728
6048.54528,0.45825
6046.61654,0.45878
6044.68779,0.45868
6042.75905,0.45941
6040.83030,0.46052
6038.90156,0.46040
6036.97281,0.45890
6035.04407,0.45723
6033.11532,0.45651
6031.18658,0.45619
6029.25783,0.45552
6027.32909,0.45450
6025.40034,0.45335
6023.47159,0.45302
6021.54285,0.45357
6019.61410,0.45411
6017.68536,0.45428
6015.75661,0.45363
6013.82787,0.45207
6011.89912,0.44990
6009.97038,0.44785
6008.04163,0.44663
6006.11289,0.44545
6004.18414,0.44419
6002.25540,0.44365
6000.32665,0.44336
5998.39791,0.44301
5996.46916,0.44249
5994.54041,0.44110
5992.61167,0.43932
5990.68292,0.43852
5988.75418,0.43857
5986.82543,0.43781
5984.89669,0.43590
5982.96794,0.43388
5981.03920,0.43211
5979.11045,0.43067
5977.18171,0.42987
5975.25296,0.42877
5973.32422,0.42576
5971.39547,0.42219
5969.46673,0.42073
5967.53798,0.42031
5965.60924,0.41855
5963.68049,0.41623
5961.75174,0.41437
5959.82300,0.41213
5957.89425,0.40961
5955.96551,0.40775
5954.03676,0.40669
5952.10802,0.40636
5950.17927,0.40585
5948.25053,0.40365
5946.32178,0.40031
5944.39304,0.39787
5942.46429,0.39699
5940.53555,0.39646
5938.60680,0.39476
5936.67806,0.39196
5934.74931,0.38936
5932.82057,0.38731
5930.89182,0.38507
5928.96307,0.38261
5927.03433,0.38080
5925.10558,0.37985
5923.17684,0.37870
5921.24809,0.37668
5919.31935,0.37507
5917.39060,0.37506
5915.46186,0.37505
5913.53311,0.37368
5911.60437,0.37197
5909.67562,0.37103
5907.74688,0.37110
5905.81813,0.37119
5903.88939,0.37006
5901.96064,0.36848
5900.03189,0.36815
5898.10315,0.36921
5896.17440,0.37046
5894.24566,0.37139
5892.31691,0.37164
5890.38817,0.37071
5888.45942,0.36928
5886.53068,0.36813
5884.60193,0.36736
5882.67319,0.36700
5880.74444,0.36716
5878.81570,0.36816
5876.88695,0.37026
5874.95821,0.37241
5873.02946,0.37338
5871.10072,0.37359
5869.17197,0.37363
5867.24322,0.37365
5865.31448,0.37380
5863.38573,0.37390
5861.45699,0.37357
5859.52824,0.37291
5857.59950,0.37215
5855.67075,0.37138
5853.74201,0.37151
5851.81326,0.37301
5849.88452,0.37465
5847.95577,0.37531
5846.02703,0.37502
5844.09828,0.37467
5842.16954,0.37447
5840.24079,0.37380
5838.31205,0.37259
5836.38330,0.37150
5834.45455,0.37118
5832.52581,0.37097
5830.59706,0.37001
5828.66832,0.36897
5826.73957,0.36842
5824.81083,0.36773
5822.88208,0.36621
5820.95334,0.36412
5819.02459,0.36249
5817.09585,0.36166
5815.16710,0.36102
5813.23836,0.36058
5811.30961,0.36059
5809.38087,0.35985
5807.45212,0.35756
5805.52337,0.35459
5803.59463,0.35228
5801.66588,0.35158
5799.73714,0.35176
5797.80839,0.35135
5795.87965,0.35038
5793.95090,0.34934
5792.02216,0.34809
5790.09341,0.34690
5788.16467,0.34616
5786.23592,0.34607
5784.30718,0.34667
5782.37843,0.34691
5780.44969,0.34580
5778.52094,0.34435
5776.59220,0.34409
5774.66345,0.34430
5772.73470,0.34373
5770.80596,0.34297
5768.87721,0.34291
5766.94847,0.34349
5765.01972,0.34343
5763.09098,0.34173
5761.16223,0.34008
5759.23349,0.33990
5757.30474,0.33983
5755.37600,0.33900
5753.44725,0.33869
5751.51851,0.34014
5749.58976,0.34247
5747.66102,0.34358
5745.73227,0.34299
5743.80352,0.34212
5741.87478,0.34156
5739.94603,0.34101
5738.01729,0.34114
5736.08854,0.34261
5734.15980,0.34458
5732.23105,0.34585
5730.30231,0.34613
5728.37356,0.34592
5726.44482,0.34609
5724.51607,0.34686
5722.58733,0.34803
5720.65858,0.34949
5718.72984,0.35115
5716.80109,0.35306
5714.87235,0.35444
5712.94360,0.35480
5711.01485,0.35573
5709.08611,0.35816
5707.15736,0.36070
5705.22862,0.36202
5703.29987,0.36243
5701.37113,0.36328
5699.44238,0.36473
5697.51364,0.36562
5695.58489,0.36588
5693.65615,0.36645
5691.72740,0.36780
5689.79866,0.36980
5687.86991,0.37213
5685.94117,0.37415
5684.01242,0.37493
5682.08368,0.37458
5680.15493,0.37437
5678.22618,0.37496
5676.29744,0.37601
5674.36869,0.37711
5672.43995,0.37835
5670.51120,0.37950
5668.58246,0.37960
5666.65371,0.37909
5664.72497,0.37968
5662.79622,0.38185
5660.86748,0.38462
5658.93873,0.38675
5657.00999,0.38745
5655.08124,0.38737
5653.15250,0.38796
5651.22375,0.38957
5649.29500,0.39131
5647.36626,0.39194
5645.43751,0.39134
5643.50877,0.39093
5641.58002,0.39147
5639.65128,0.39281
5637.72253,0.39465
5635.79379,0.39602
5633.86504,0.39660
5631.93630,0.39722
5630.00755,0.39766
5628.07881,0.39723
5626.15006,0.39665
5624.22132,0.39672
5622.29257,0.39686
5620.36383,0.39660
5618.43508,0.39651
5616.50633,0.39705
5614.57759,0.39842
5612.64884,0.40013
5610.72010,0.40065
5608.79135,0.40008
5606.86261,0.40005
5604.93386,0.40078
5603.00512,0.40120
5601.07637,0.40079
5599.14763,0.40011
5597.21888,0.39975
5595.29014,0.39931
5593.36139,0.39898
5591.43265,0.39967
5589.50390,0.40030
5587.57516,0.39947
5585.64641,0.39816
5583.71766,0.39816
5581.78892,0.39927
5579.86017,0.39975
5577.93143,0.39967
5576.00268,0.39984
5574.07394,0.39961
5572.14519,0.39912
5570.21645,0.39939
5568.28770,0.40005
5566.35896,0.40002
5564.43021,0.39967
5562.50147,0.39957
5560.57272,0.39931
5558.64398,0.39911
5556.71523,0.39956
5554.78648,0.40048
5552.85774,0.40164
5550.92899,0.40292
5549.00025,0.40349
5547.07150,0.40309
5545.14276,0.40265
5543.21401,0.40218
5541.28527,0.40160
5539.35652,0.40161
5537.42778,0.40235
5535.49903,0.40288
5533.57029,0.40277
5531.64154,0.40263
5529.71280,0.40261
5527.78405,0.40240
5525.85531,0.40213
5523.92656,0.40210
5521.99781,0.40273
5520.06907,0.40381
5518.14032,0.40439
5516.21158,0.40412
5514.28283,0.40388
5512.35409,0.40426
5510.42534,0.40442
5508.49660,0.40397
5506.56785,0.40389
5504.63911,0.40481
5502.71036,0.40608
5500.78162,0.40717
5498.85287,0.40779
5496.92413,0.40752
5494.99538,0.40702
5493.06664,0.40718
5491.13789,0.40760
5489.20914,0.40797
5487.28040,0.40830
5485.35165,0.40854
5483.42291,0.40917
5481.49416,0.41033
5479.56542,0.41101
5477.63667,0.41103
5475.70793,0.41101
5473.77918,0.41053
5471.85044,0.40957
5469.92169,0.40949
5467.99295,0.41056
5466.06420,0.41172
5464.13546,0.41229
5462.20671,0.41250
5460.27796,0.41295
5458.34922,0.41374
5456.42047,0.41442
5454.49173,0.41487
5452.56298,0.41517
5450.63424,0.41501
5448.70549,0.41478
5446.77675,0.41531
5444.84800,0.41586
5442.91926,0.41547
5440.99051,0.41519
5439.06177,0.41582
5437.13302,0.41662
5435.20428,0.41731
5433.27553,0.41838
5431.34679,0.41955
5429.41804,0.41999
5427.48929,0.41988
5425.56055,0.42012
5423.63180,0.42094
5421.70306,0.42151
5419.77431,0.42150
5417.84557,0.42155
5415.91682,0.42142
5413.98808,0.42060
5412.05933,0.41960
5410.13059,0.41937
5408.20184,0.42007
5406.27310,0.42070
5404.34435,0.42079
5402.41561,0.42100
5400.48686,0.42149
5398.55811,0.42148
5396.62937,0.42079
5394.70062,0.42019
5392.77188,0.42017
5390.84313,0.42035
5388.91439,0.41999
5386.98564,0.41929
5385.05690,0.41905
5383.12815,0.41915
5381.19941,0.41930
5379.27066,0.41896
5377.34192,0.41768
5375.41317,0.41668
5373.48443,0.41686
5371.55568,0.41725
5369.62694,0.41704
5367.69819,0.41680
5365.76944,0.41699
5363.84070,0.41658
5361.91195,0.41505
5359.98321,0.41340
5358.05446,0.41217
5356.12572,0.41129
5354.19697,0.41055
5352.26823,0.40982
5350.33948,0.40952
5348.41074,0.40907
5346.48199,0.40764
5344.55325,0.40563
5342.62450,0.40352
5340.69576,0.40183
5338.76701,0.40099
5336.83827,0.40048
5334.90952,0.39933
5332.98077,0.39724
5331.05203,0.39471
5329.12328,0.39220
5327.19454,0.38998
5325.26579,0.38795
5323.33705,0.38588
5321.40830,0.38380
5319.47956,0.38175
5317.55081,0.37974
5315.62207,0.37747
5313.69332,0.37410
5311.76458,0.36968
5309.83583,0.36547
5307.90709,0.36155
5305.97834,0.35762
5304.04959,0.35414
5302.12085,0.35058
5300.19210,0.34623
5298.26336,0.34169
5296.33461,0.33765
5294.40587,0.33418
5292.47712,0.33074
5290.54838,0.32659
5288.61963,0.32168
5286.69089,0.31661
5284.76214,0.31181
5282.83340,0.30751
5280.90465,0.30389
5278.97591,0.30047
5277.04716,0.29644
5275.11842,0.29200
5273.18967,0.28770
5271.26092,0.28309
5269.33218,0.27804
5267.40343,0.27361
5265.47469,0.27008
5263.54594,0.26653
5261.61720,0.26275
5259.68845,0.25915
5257.75971,0.25583
5255.83096,0.25257
5253.90222,0.24932
5251.97347,0.24655
5250.04473,0.24397
5248.11598,0.24066
5246.18724,0.23705
5244.25849,0.23386
5242.32975,0.23117
5240.40100,0.22886
5238.47225,0.22647
5236.54351,0.22371
5234.61476,0.22075
5232.68602,0.21802
5230.75727,0.21613
5228.82853,0.21473
5226.89978,0.21289
5224.97104,0.21097
5223.04229,0.20948
5221.11355,0.20784
5219.18480,0.20579
5217.25606,0.20376
5215.32731,0.20189
5213.39857,0.19988
5211.46982,0.19771
5209.54107,0.19606
5207.61233,0.19540
5205.68358,0.19515
5203.75484,0.19423
5201.82609,0.19233
5199.89735,0.19038
5197.96860,0.18907
5196.03986,0.18818
5194.11111,0.18765
5192.18237,0.18707
5190.25362,0.18563
5188.32488,0.18367
5186.39613,0.18261
5184.46739,0.18279
5182.53864,0.18286
5180.60990,0.18218
5178.68115,0.18153
5176.75240,0.18128
5174.82366,0.18088
5172.89491,0.18000
5170.96617,0.17915
5169.03742,0.17886
5167.10868,0.17870
5165.17993,0.17836
5163.25119,0.17837
5161.32244,0.17835
5159.39370,0.17758
5157.46495,0.17675
5155.53621,0.17658
5153.60746,0.17681
5151.67872,0.17717
5149.74997,0.17737
5147.82123,0.17708
5145.89248,0.17670
5143.96373,0.17684
5142.03499,0.17747
5140.10624,0.17836
5138.17750,0.17880
5136.24875,0.17857
5134.32001,0.17871
5132.39126,0.17956
5130.46252,0.18021
5128.53377,0.18044
5126.60503,0.18094
5124.67628,0.18178
5122.74754,0.18237
5120.81879,0.18251
5118.89005,0.18234
5116.96130,0.18221
5115.03255,0.18253
5113.10381,0.18326
5111.17506,0.18386
5109.24632,0.18398
5107.31757,0.18404
5105.38883,0.18423
5103.46008,0.18414
5101.53134,0.18395
5099.60259,0.18401
5097.67385,0.18417
5095.74510,0.18465
5093.81636,0.18540
5091.88761,0.18582
5089.95887,0.18578
5088.03012,0.18548
5086.10138,0.18503
5084.17263,0.18452
5082.24388,0.18429
5080.31514,0.18441
5078.38639,0.18455
5076.45765,0.18497
5074.52890,0.18573
5072.60016,0.18607
5070.67141,0.18569
5068.74267,0.18519
5066.81392,0.18523
5064.88518,0.18589
5062.95643,0.18673
5061.02769,0.18717
5059.09894,0.18736
5057.17020,0.18791
5055.24145,0.18847
5053.31270,0.18822
5051.38396,0.18730
5049.45521,0.18665
5047.52647,0.18702
5045.59772,0.18835
5043.66898,0.18970
5041.74023,0.19056
5039.81149,0.19123
5037.88274,0.19146
5035.95400,0.19123
5034.02525,0.19156
5032.09651,0.19242
5030.16776,0.19310
5028.23902,0.19370
5026.31027,0.19416
5024.38153,0.19435
5022.45278,0.19459
5020.52403,0.19504
5018.59529,0.19549
5016.66654,0.19597
5014.73780,0.19683
5012.80905,0.19773
5010.88031,0.19823
5008.95156,0.19873
5007.02282,0.19924
5005.09407,0.19928
5003.16533,0.19926
5001.23658,0.19988
4999.30784,0.20075
4997.37909,0.20111
4995.45035,0.20119
4993.52160,0.20171
4991.59286,0.20285
4989.66411,0.20403
4987.73536,0.20461
4985.80662,0.20441
4983.87787,0.20377
4981.94913,0.20356
4980.02038,0.20419
4978.09164,0.20501
4976.16289,0.20536
4974.23415,0.20522
4972.30540,0.20496
4970.37666,0.20469
4968.44791,0.20438
4966.51917,0.20435
4964.59042,0.20466
4962.66168,0.20480
4960.73293,0.20474
4958.80418,0.20490
4956.87544,0.20486
4954.94669,0.20403
4953.01795,0.20286
4951.08920,0.20233
4949.16046,0.20254
4947.23171,0.20250
4945.30297,0.20189
4943.37422,0.20133
4941.44548,0.20098
4939.51673,0.20050
4937.58799,0.19985
4935.65924,0.19919
4933.73050,0.19821
4931.80175,0.19685
4929.87301,0.19584
4927.94426,0.19558
4926.01551,0.19545
4924.08677,0.19475
4922.15802,0.19374
4920.22928,0.19287
4918.30053,0.19193
4916.37179,0.19105
4914.44304,0.19030
4912.51430,0.18908
4910.58555,0.18734
4908.65681,0.18601
4906.72806,0.18549
4904.79932,0.18506
4902.87057,0.18396
4900.94183,0.18231
4899.01308,0.18070
4897.08434,0.17960
4895.15559,0.17877
4893.22684,0.17764
4891.29810,0.17628
4889.36935,0.17502
4887.44061,0.17363
4885.51186,0.17213
4883.58312,0.17107
4881.65437,0.17052
4879.72563,0.17016
4877.79688,0.16987
4875.86814,0.16961
4873.93939,0.16917
4872.01065,0.16839
4870.08190,0.16732
4868.15316,0.16635
4866.22441,0.16577
4864.29566,0.16574
4862.36692,0.16620
4860.43817,0.16668
4858.50943,0.16695
4856.58068,0.16738
4854.65194,0.16816
4852.72319,0.16909
4850.79445,0.16982
4848.86570,0.17034
4846.93696,0.17111
4845.00821,0.17219
4843.07947,0.17309
4841.15072,0.17403
4839.22198,0.17566
4837.29323,0.17760
4835.36449,0.17905
4833.43574,0.18038
4831.50699,0.18213
4829.57825,0.18382
4827.64950,0.18490
4825.72076,0.18572
4823.79201,0.18685
4821.86327,0.18825
4819.93452,0.18964
4818.00578,0.19109
4816.07703,0.19254
4814.14829,0.19374
4812.21954,0.19474
4810.29080,0.19583
4808.36205,0.19695
4806.43331,0.19786
4804.50456,0.19894
4802.57582,0.20041
4800.64707,0.20175
4798.71832,0.20270
4796.78958,0.20340
4794.86083,0.20423
4792.93209,0.20542
4791.00334,0.20642
4789.07460,0.20682
4787.14585,0.20720
4785.21711,0.20798
4783.28836,0.20887
4781.35962,0.20946
4779.43087,0.20961
4777.50213,0.20965
4775.57338,0.20995
4773.64464,0.21039
4771.71589,0.21084
4769.78714,0.21133
4767.85840,0.21188
4765.92965,0.21247
4764.00091,0.21263
4762.07216,0.21222
4760.14342,0.21201
4758.21467,0.21231
4756.28593,0.21263
4754.35718,0.21263
4752.42844,0.21242
4750.49969,0.21220
4748.57095,0.21216
4746.64220,0.21234
4744.71346,0.21233
4742.78471,0.21200
4740.85597,0.21176
4738.92722,0.21162
4736.99847,0.21128
4735.06973,0.21071
4733.14098,0.21003
4731.21224,0.20965
4729.28349,0.20959
4727.35475,0.20919
4725.42600,0.20840
4723.49726,0.20769
4721.56851,0.20719
4719.63977,0.20663
4717.71102,0.20591
4715.78228,0.20545
4713.85353,0.20515
4711.92479,0.20446
4709.99604,0.20353
4708.06729,0.20291
4706.13855,0.20257
4704.20980,0.20182
4702.28106,0.20055
4700.35231,0.19935
4698.42357,0.19839
4696.49482,0.19738
4694.56608,0.19597
4692.63733,0.19404
4690.70859,0.19249
4688.77984,0.19207
4686.85110,0.19185
4684.92235,0.19085
4682.99361,0.18958
4681.06486,0.18869
4679.13612,0.18775
4677.20737,0.18608
4675.27862,0.18417
4673.34988,0.18283
4671.42113,0.18184
4669.49239,0.18040
4667.56364,0.17843
4665.63490,0.17664
4663.70615,0.17527
4661.77741,0.17404
4659.84866,0.17291
4657.91992,0.17189
4655.99117,0.17077
4654.06243,0.16962
4652.13368,0.16880
4650.20494,0.16785
4648.27619,0.16629
4646.34745,0.16445
4644.41870,0.16270
4642.48995,0.16125
4640.56121,0.15996
4638.63246,0.15852
4636.70372,0.15743
4634.77497,0.15671
4632.84623,0.15549
4630.91748,0.15390
4628.98874,0.15274
4627.05999,0.15198
4625.13125,0.15120
4623.20250,0.15025
4621.27376,0.14909
4619.34501,0.14815
4617.41627,0.14756
4615.48752,0.14689
4613.55877,0.14625
4611.63003,0.14594
4609.70128,0.14581
4607.77254,0.14559
4605.84379,0.14514
4603.91505,0.14446
4601.98630,0.14393
4600.05756,0.14374
4598.12881,0.14359
4596.20007,0.14352
4594.27132,0.14382
4592.34258,0.14429
4590.41383,0.14448
4588.48509,0.14450
4586.55634,0.14475
4584.62760,0.14514
4582.69885,0.14527
4580.77010,0.14534
4578.84136,0.14579
4576.91261,0.14643
4574.98387,0.14702
4573.05512,0.14755
4571.12638,0.14796
4569.19763,0.14827
4567.26889,0.14845
4565.34014,0.14845
4563.41140,0.14850
4561.48265,0.14886
4559.55391,0.14942
4557.62516,0.15022
4555.69642,0.15118
4553.76767,0.15176
4551.83893,0.15205
4549.91018,0.15268
4547.98143,0.15355
4546.05269,0.15424
4544.12394,0.15477
4542.19520,0.15517
4540.26645,0.15533
4538.33771,0.15540
4536.40896,0.15589
4534.48022,0.15705
4532.55147,0.15837
4530.62273,0.15908
4528.69398,0.15933
4526.76524,0.15996
4524.83649,0.16105
4522.90775,0.16178
4520.97900,0.16184
4519.05025,0.16192
4517.12151,0.16251
4515.19276,0.16315
4513.26402,0.16368
4511.33527,0.16452
4509.40653,0.16549
4507.47778,0.16632
4505.54904,0.16722
4503.62029,0.16826
4501.69155,0.16931
4499.76280,0.17008
4497.83406,0.17044
4495.90531,0.17081
4493.97657,0.17127
4492.04782,0.17174
4490.11908,0.17228
4488.19033,0.17269
4486.26158,0.17288
4484.33284,0.17311
4482.40409,0.17345
4480.47535,0.17379
4478.54660,0.17411
4476.61786,0.17427
4474.68911,0.17413
4472.76037,0.17395
4470.83162,0.17405
4468.90288,0.17405
4466.97413,0.17358
4465.04539,0.17309
4463.11664,0.17280
4461.18790,0.17231
4459.25915,0.17159
4457.33041,0.17098
4455.40166,0.17053
4453.47291,0.17013
4451.54417,0.16950
4449.61542,0.16844
4447.68668,0.16715
4445.75793,0.16580
4443.82919,0.16438
4441.90044,0.16278
4439.97170,0.16108
4438.04295,0.15953
4436.11421,0.15812
4434.18546,0.15671
4432.25672,0.15527
4430.32797,0.15379
4428.39923,0.15250
4426.47048,0.15125
4424.54173,0.14982
4422.61299,0.14859
4420.68424,0.14770
4418.75550,0.14679
4416.82675,0.14596
4414.89801,0.14541
4412.96926,0.14485
4411.04052,0.14411
4409.11177,0.14326
4407.18303,0.14227
4405.25428,0.14123
4403.32554,0.14033
4401.39679,0.13959
4399.46805,0.13912
4397.53930,0.13893
4395.61056,0.13851
4393.68181,0.13769
4391.75306,0.13677
4389.82432,0.13596
4387.89557,0.13544
4385.96683,0.13507
4384.03808,0.13453
4382.10934,0.13377
4380.18059,0.13320
4378.25185,0.13315
4376.32310,0.13337
4374.39436,0.13331
4372.46561,0.13290
4370.53687,0.13261
4368.60812,0.13260
4366.67938,0.13258
4364.75063,0.13252
4362.82189,0.13245
4360.89314,0.13227
4358.96439,0.13206
4357.03565,0.13198
4355.10690,0.13203
4353.17816,0.13217
4351.24941,0.13242
4349.32067,0.13282
4347.39192,0.13330
4345.46318,0.13370
4343.53443,0.13422
4341.60569,0.13502
4339.67694,0.13563
4337.74820,0.13588
4335.81945,0.13610
4333.89071,0.13638
4331.96196,0.13665
4330.03321,0.13704
4328.10447,0.13736
4326.17572,0.13732
4324.24698,0.13744
4322.31823,0.13805
4320.38949,0.13863
4318.46074,0.13911
4316.53200,0.13964
4314.60325,0.14012
4312.67451,0.14052
4310.74576,0.14072
4308.81702,0.14065
4306.88827,0.14070
4304.95953,0.14117
4303.03078,0.14189
4301.10204,0.14250
4299.17329,0.14275
4297.24454,0.14257
4295.31580,0.14216
4293.38705,0.14185
4291.45831,0.14147
4289.52956,0.14072
4287.60082,0.14011
4285.67207,0.13992
4283.74333,0.13972
4281.81458,0.13929
4279.88584,0.13891
4277.95709,0.13878
4276.02835,0.13879
4274.09960,0.13867
4272.17086,0.13838
4270.24211,0.13809
4268.31336,0.13779
4266.38462,0.13743
4264.45587,0.13732
4262.52713,0.13759
4260.59838,0.13778
4258.66964,0.13754
4256.74089,0.13721
4254.81215,0.13728
4252.88340,0.13774
4250.95466,0.13816
4249.02591,0.13839
4247.09717,0.13857
4245.16842,0.13872
4243.23968,0.13887
4241.31093,0.13914
4239.38219,0.13967
4237.45344,0.14047
4235.52469,0.14113
4233.59595,0.14158
4231.66720,0.14192
4229.73846,0.14214
4227.80971,0.14236
4225.88097,0.14260
4223.95222,0.14292
4222.02348,0.14338
4220.09473,0.14379
4218.16599,0.14409
4216.23724,0.14450
4214.30850,0.14517
4212.37975,0.14575
4210.45101,0.14589
4208.52226,0.14592
4206.59352,0.14604
4204.66477,0.14607
4202.73602,0.14608
4200.80728,0.14621
4198.87853,0.14639
4196.94979,0.14665
4195.02104,0.14686
4193.09230,0.14689
4191.16355,0.14687
4189.23481,0.14682
4187.30606,0.14680
4185.37732,0.14696
4183.44857,0.14720
4181.51983,0.14736
4179.59108,0.14750
4177.66234,0.14758
4175.73359,0.14743
4173.80484,0.14720
4171.87610,0.14719
4169.94735,0.14736
4168.01861,0.14744
4166.08986,0.14730
4164.16112,0.14703
4162.23237,0.14695
4160.30363,0.14716
4158.37488,0.14744
4156.44614,0.14745
4154.51739,0.14715
4152.58865,0.14671
4150.65990,0.14623
4148.73116,0.14609
4146.80241,0.14643
4144.87367,0.14659
4142.94492,0.14595
4141.01617,0.14502
4139.08743,0.14461
4137.15868,0.14448
4135.22994,0.14407
4133.30119,0.14373
4131.37245,0.14374
4129.44370,0.14372
4127.51496,0.14352
4125.58621,0.14321
4123.65747,0.14276
4121.72872,0.14243
4119.79998,0.14209
4117.87123,0.14131
4115.94249,0.14040
4114.01374,0.13997
4112.08500,0.14000
4110.15625,0.13990
4108.22750,0.13936
4106.29876,0.13855
4104.37001,0.13762
4102.44127,0.13657
4100.51252,0.13554
4098.58378,0.13478
4096.65503,0.13416
4094.72629,0.13338
4092.79754,0.13232
4090.86880,0.13109
4088.94005,0.12999
4087.01131,0.12904
4085.08256,0.12811
4083.15382,0.12745
4081.22507,0.12708
4079.29632,0.12664
4077.36758,0.12609
4075.43883,0.12554
4073.51009,0.12476
4071.58134,0.12375
4069.65260,0.12291
4067.72385,0.12243
4065.79511,0.12212
4063.86636,0.12178
4061.93762,0.12145
4060.00887,0.12125
4058.08013,0.12101
4056.15138,0.12040
4054.22264,0.11954
4052.29389,0.11890
4050.36515,0.11866
4048.43640,0.11884
4046.50765,0.11910
4044.57891,0.11902
4042.65016,0.11885
4040.72142,0.11896
4038.79267,0.11939
4036.86393,0.11991
4034.93518,0.12008
4033.00644,0.11997
4031.07769,0.11993
4029.14895,0.11994
4027.22020,0.12000
4025.29146,0.12010
4023.36271,0.12018
4021.43397,0.12034
4019.50522,0.12047
4017.57648,0.12037
4015.64773,0.12034
4013.71898,0.12064
4011.79024,0.12087
4009.86149,0.12068
4007.93275,0.12031
4006.00400,0.12015
4004.07526,0.12015
4002.14651,0.12009
4000.21777,0.12005
3998.28902,0.12007
3996.36028,0.11993
3994.43153,0.11966
3992.50279,0.11944
3990.57404,0.11929
3988.64530,0.11916
3986.71655,0.11907
3984.78780,0.11897
3982.85906,0.11872
3980.93031,0.11836
3979.00157,0.11818
3977.07282,0.11830
3975.14408,0.11840
3973.21533,0.11829
3971.28659,0.11814
3969.35784,0.11806
3967.42910,0.11799
3965.50035,0.11777
3963.57161,0.11743
3961.64286,0.11730
3959.71412,0.11740
3957.78537,0.11735
3955.85663,0.11715
3953.92788,0.11702
3951.99913,0.11679
3950.07039,0.11646
3948.14164,0.11625
3946.21290,0.11602
3944.28415,0.11578
3942.35541,0.11576
3940.42666,0.11586
3938.49792,0.11592
3936.56917,0.11608
3934.64043,0.11636
3932.71168,0.11638
3930.78294,0.11613
3928.85419,0.11614
3926.92545,0.11645
3924.99670,0.11678
3923.06795,0.11702
3921.13921,0.11728
3919.21046,0.11780
3917.28172,0.11863
3915.35297,0.11934
3913.42423,0.11971
3911.49548,0.12026
3909.56674,0.12125
3907.63799,0.12226
3905.70925,0.12298
3903.78050,0.12343
3901.85176,0.12388
3899.92301,0.12455
3897.99427,0.12535
3896.06552,0.12614
3894.13678,0.12674
3892.20803,0.12725
3890.27928,0.12812
3888.35054,0.12917
3886.42179,0.12990
3884.49305,0.13035
3882.56430,0.13091
3880.63556,0.13166
3878.70681,0.13240
3876.77807,0.13319
3874.84932,0.13397
3872.92058,0.13431
3870.99183,0.13435
3869.06309,0.13467
3867.13434,0.13518
3865.20560,0.13554
3863.27685,0.13587
3861.34811,0.13636
3859.41936,0.13692
3857.49061,0.13740
3855.56187,0.13769
3853.63312,0.13785
3851.70438,0.13831
3849.77563,0.13882
3847.84689,0.13894
3845.91814,0.13888
3843.98940,0.13902
3842.06065,0.13946
3840.13191,0.14004
3838.20316,0.14041
3836.27442,0.14042
3834.34567,0.14020
3832.41693,0.14002
3830.48818,0.14014
3828.55943,0.14043
3826.63069,0.14051
3824.70194,0.14036
3822.77320,0.14030
3820.84445,0.14055
3818.91571,0.14085
3816.98696,0.14080
3815.05822,0.14046
3813.12947,0.14041
3811.20073,0.14068
3809.27198,0.14067
3807.34324,0.14045
3805.41449,0.14056
3803.48575,0.14065
3801.55700,0.14013
3799.62826,0.13939
3797.69951,0.13913
3795.77076,0.13917
3793.84202,0.13914
3791.91327,0.13907
3789.98453,0.13894
3788.05578,0.13856
3786.12704,0.13795
3784.19829,0.13739
3782.26955,0.13706
3780.34080,0.13688
3778.41206,0.13658
3776.48331,0.13608
3774.55457,0.13552
3772.62582,0.13492
3770.69708,0.13423
3768.76833,0.13347
3766.83959,0.13261
3764.91084,0.13168
3762.98209,0.13103
3761.05335,0.13075
3759.12460,0.13028
3757.19586,0.12937
3755.26711,0.12849
3753.33837,0.12793
3751.40962,0.12731
3749.48088,0.12627
3747.55213,0.12512
3745.62339,0.12399
3743.69464,0.12279
3741.76590,0.12176
3739.83715,0.12086
3737.90841,0.11983
3735.97966,0.11873
3734.05091,0.11784
3732.12217,0.11698
3730.19342,0.11571
3728.26468,0.11419
3726.33593,0.11274
3724.40719,0.11136
3722.47844,0.10986
3720.54970,0.10821
3718.62095,0.10651
3716.69221,0.10500
3714.76346,0.10363
3712.83472,0.10197
3710.90597,0.09995
3708.97723,0.09798
3707.04848,0.09613
3705.11974,0.09433
3703.19099,0.09249
3701.26224,0.09025
3699.33350,0.08744
3697.40475,0.08450
3695.47601,0.08187
3693.54726,0.07947
3691.61852,0.07697
3689.68977,0.07419
3687.76103,0.07111
3685.83228,0.06805
3683.90354,0.06528
3681.97479,0.06266
3680.04605,0.05992
3678.11730,0.05713
3676.18856,0.05452
3674.25981,0.05237
3672.33107,0.05052
3670.40232,0.04841
3668.47357,0.04617
3666.54483,0.04436
3664.61608,0.04276
3662.68734,0.04117
3660.75859,0.03984
3658.82985,0.03870
3656.90110,0.03753
3654.97236,0.03631
3653.04361,0.03504
3651.11487,0.03378
3649.18612,0.03290
3647.25738,0.03252
3645.32863,0.03213
3643.39989,0.03139
3641.47114,0.03040
3639.54239,0.02947
3637.61365,0.02882
3635.68490,0.02842
3633.75616,0.02803
3631.82741,0.02768
3629.89867,0.02734
3627.96992,0.02664
3626.04118,0.02573
3624.11243,0.02521
3622.18369,0.02499
3620.25494,0.02465
3618.32620,0.02434
3616.39745,0.02412
3614.46871,0.02362
3612.53996,0.02298
3610.61122,0.02280
3608.68247,0.02292
3606.75372,0.02276
3604.82498,0.02245
3602.89623,0.02248
3600.96749,0.02257
3599.03874,0.02223
3597.11000,0.02153
3595.18125,0.02099
3593.25251,0.02095
3591.32376,0.02117
3589.39502,0.02111
3587.46627,0.02071
3585.53753,0.02059
3583.60878,0.02087
3581.68004,0.02095
3579.75129,0.02094
3577.82254,0.02109
3575.89380,0.02102
3573.96505,0.02074
3572.03631,0.02048
3570.10756,0.02008
3568.17882,0.01971
3566.25007,0.01972
3564.32133,0.01992
3562.39258,0.01999
3560.46384,0.01980
3558.53509,0.01948
3556.60635,0.01932
3554.67760,0.01945
3552.74886,0.01962
3550.82011,0.01964
3548.89137,0.01964
3546.96262,0.01957
3545.03387,0.01938
3543.10513,0.01933
3541.17638,0.01954
3539.24764,0.01970
3537.31889,0.01965
3535.39015,0.01952
3533.46140,0.01949
3531.53266,0.01952
3529.60391,0.01952
3527.67517,0.01950
3525.74642,0.01955
3523.81768,0.01961
3521.88893,0.01935
3519.96019,0.01878
3518.03144,0.01851
3516.10270,0.01876
3514.17395,0.01895
3512.24520,0.01879
3510.31646,0.01859
3508.38771,0.01855
3506.45897,0.01850
3504.53022,0.01827
3502.60148,0.01810
3500.67273,0.01826
3498.74399,0.01865
3496.81524,0.01898
3494.88650,0.01896
3492.95775,0.01871
3491.02901,0.01853
3489.10026,0.01837
3487.17152,0.01823
3485.24277,0.01812
3483.31402,0.01809
3481.38528,0.01827
3479.45653,0.01852
3477.52779,0.01870
3475.59904,0.01862
3473.67030,0.01814
3471.74155,0.01767
3469.81281,0.01762
3467.88406,0.01811
3465.95532,0.01871
3464.02657,0.01876
3462.09783,0.01845
3460.16908,0.01833
3458.24034,0.01831
3456.31159,0.01807
3454.38285,0.01779
3452.45410,0.01776
3450.52535,0.01792
3448.59661,0.01816
3446.66786,0.01836
3444.73912,0.01832
3442.81037,0.01814
3440.88163,0.01822
3438.95288,0.01839
3437.02414,0.01814
3435.09539,0.01785
3433.16665,0.01794
3431.23790,0.01808
3429.30916,0.01806
3427.38041,0.01807
3425.45167,0.01810
3423.52292,0.01804
3421.59418,0.01791
3419.66543,0.01775
3417.73668,0.01759
3415.80794,0.01736
3413.87919,0.01722
3411.95045,0.01745
3410.02170,0.01772
3408.09296,0.01750
3406.16421,0.01719
3404.23547,0.01730
3402.30672,0.01747
3400.37798,0.01735
3398.44923,0.01724
3396.52049,0.01743
3394.59174,0.01772
3392.66300,0.01771
3390.73425,0.01763
3388.80550,0.01786
3386.87676,0.01801
3384.94801,0.01777
3383.01927,0.01749
3381.09052,0.01737
3379.16178,0.01727
3377.23303,0.01720
3375.30429,0.01734
3373.37554,0.01751
3371.44680,0.01756
3369.51805,0.01767
3367.58931,0.01774
3365.66056,0.01757
3363.73182,0.01720
3361.80307,0.01692
3359.87433,0.01695
3357.94558,0.01701
3356.01683,0.01694
3354.08809,0.01707
3352.15934,0.01740
3350.23060,0.01753
3348.30185,0.01740
3346.37311,0.01728
3344.44436,0.01736
3342.51562,0.01757
3340.58687,0.01772
3338.65813,0.01783
3336.72938,0.01785
3334.80064,0.01762
3332.87189,0.01729
3330.94315,0.01717
3329.01440,0.01729
3327.08566,0.01754
3325.15691,0.01781
3323.22816,0.01795
3321.29942,0.01787
3319.37067,0.01755
3317.44193,0.01729
3315.51318,0.01738
3313.58444,0.01748
3311.65569,0.01747
3309.72695,0.01751
3307.79820,0.01744
3305.86946,0.01738
3303.94071,0.01745
3302.01197,0.01747
3300.08322,0.01746
3298.15448,0.01726
3296.22573,0.01688
3294.29698,0.01676
3292.36824,0.01683
3290.43949,0.01687
3288.51075,0.01699
3286.58200,0.01707
3284.65326,0.01695
3282.72451,0.01703
3280.79577,0.01743
3278.86702,0.01767
3276.93828,0.01759
3275.00953,0.01748
3273.08079,0.01755
3271.15204,0.01774
3269.22330,0.01785
3267.29455,0.01777
3265.36581,0.01763
3263.43706,0.01753
3261.50831,0.01765
3259.57957,0.01794
3257.65082,0.01802
3255.72208,0.01785
3253.79333,0.01780
3251.86459,0.01802
3249.93584,0.01828
3248.00710,0.01838
3246.07835,0.01832
3244.14961,0.01810
3242.22086,0.01782
3240.29212,0.01760
3238.36337,0.01758
3236.43463,0.01788
3234.50588,0.01830
3232.57713,0.01860
3230.64839,0.01885
3228.71964,0.01914
3226.79090,0.01909
3224.86215,0.01852
3222.93341,0.01807
3221.00466,0.01815
3219.07592,0.01831
3217.14717,0.01820
3215.21843,0.01805
3213.28968,0.01804
3211.36094,0.01812
3209.43219,0.01836
3207.50345,0.01863
3205.57470,0.01852
3203.64596,0.01821
3201.71721,0.01821
3199.78846,0.01839
3197.85972,0.01837
3195.93097,0.01820
3194.00223,0.01813
3192.07348,0.01832
3190.14474,0.01870
3188.21599,0.01889
3186.28725,0.01882
3184.35850,0.01884
3182.42976,0.01896
3180.50101,0.01893
3178.57227,0.01871
3176.64352,0.01846
3174.71478,0.01826
3172.78603,0.01794
3170.85729,0.01776
3168.92854,0.01794
3166.99979,0.01818
3165.07105,0.01843
3163.14230,0.01874
3161.21356,0.01891
3159.28481,0.01888
3157.35607,0.01886
3155.42732,0.01895
3153.49858,0.01904
3151.56983,0.01909
3149.64109,0.01913
3147.71234,0.01904
3145.78360,0.01891
3143.85485,0.01886
3141.92611,0.01881
3139.99736,0.01888
3138.06861,0.01899
3136.13987,0.01885
3134.21112,0.01871
3132.28238,0.01881
3130.35363,0.01891
3128.42489,0.01885
3126.49614,0.01862
3124.56740,0.01836
3122.63865,0.01821
3120.70991,0.01828
3118.78116,0.01848
3116.85242,0.01858
3114.92367,0.01859
3112.99493,0.01865
3111.06618,0.01873
3109.13744,0.01883
3107.20869,0.01893
3105.27994,0.01897
3103.35120,0.01882
3101.42245,0.01843
3099.49371,0.01823
3097.56496,0.01852
3095.63622,0.01892
3093.70747,0.01902
3091.77873,0.01893
3089.84998,0.01887
3087.92124,0.01882
3085.99249,0.01875
3084.06375,0.01865
3082.13500,0.01857
3080.20626,0.01859
3078.27751,0.01863
3076.34877,0.01860
3074.42002,0.01859
3072.49127,0.01853
3070.56253,0.01832
3068.63378,0.01814
3066.70504,0.01807
3064.77629,0.01802
3062.84755,0.01815
3060.91880,0.01856
3058.99006,0.01894
3057.06131,0.01905
3055.13257,0.01906
3053.20382,0.01912
3051.27508,0.01912
3049.34633,0.01907
3047.41759,0.01896
3045.48884,0.01882
3043.56009,0.01877
3041.63135,0.01880
3039.70260,0.01885
3037.77386,0.01891
3035.84511,0.01902
3033.91637,0.01916
3031.98762,0.01923
3030.05888,0.01922
3028.13013,0.01916
3026.20139,0.01911
3024.27264,0.01929
3022.34390,0.01960
3020.41515,0.01969
3018.48641,0.01960
3016.55766,0.01949
3014.62892,0.01933
3012.70017,0.01916
3010.77142,0.01914
3008.84268,0.01907
3006.91393,0.01890
3004.98519,0.01888
3003.05644,0.01895
3001.12770,0.01905
2999.19895,0.01931
2997.27021,0.01955
2995.34146,0.01958
2993.41272,0.01948
2991.48397,0.01939
2989.55523,0.01928
2987.62648,0.01917
2985.69774,0.01910
2983.76899,0.01890
2981.84025,0.01863
2979.91150,0.01845
2977.98275,0.01830
2976.05401,0.01825
2974.12526,0.01835
2972.19652,0.01837
2970.26777,0.01821
2968.33903,0.01791
2966.41028,0.01771
2964.48154,0.01779
2962.55279,0.01797
2960.62405,0.01815
2958.69530,0.01837
2956.76656,0.01849
2954.83781,0.01847
2952.90907,0.01829
2950.98032,0.01810
2949.05157,0.01810
2947.12283,0.01815
2945.19408,0.01815
2943.26534,0.01819
2941.33659,0.01803
2939.40785,0.01766
2937.47910,0.01749
2935.55036,0.01759
2933.62161,0.01774
2931.69287,0.01778
2929.76412,0.01786
2927.83538,0.01804
2925.90663,0.01808
2923.97789,0.01797
2922.04914,0.01788
2920.12040,0.01787
2918.19165,0.01795
2916.26290,0.01814
2914.33416,0.01840
2912.40541,0.01861
2910.47667,0.01874
2908.54792,0.01887
2906.61918,0.01885
2904.69043,0.01862
2902.76169,0.01857
2900.83294,0.01875
2898.90420,0.01887
2896.97545,0.01891
2895.04671,0.01900
2893.11796,0.01925
2891.18922,0.01967
2889.26047,0.01981
2887.33172,0.01951
2885.40298,0.01935
2883.47423,0.01959
2881.54549,0.01979
2879.61674,0.01962
2877.68800,0.01922
2875.75925,0.01895
2873.83051,0.01897
2871.90176,0.01915
2869.97302,0.01932
2868.04427,0.01940
2866.11553,0.01946
2864.18678,0.01957
2862.25804,0.01964
2860.32929,0.01957
2858.40055,0.01956
2856.47180,0.01972
2854.54305,0.01981
2852.61431,0.01983
2850.68556,0.02004
2848.75682,0.02052
2846.82807,0.02117
2844.89933,0.02166
2842.97058,0.02174
2841.04184,0.02161
2839.11309,0.02165
2837.18435,0.02176
2835.25560,0.02172
2833.32686,0.02176
2831.39811,0.02186
2829.46937,0.02191
2827.54062,0.02208
2825.61188,0.02229
2823.68313,0.02231
2821.75438,0.02217
2819.82564,0.02219
2817.89689,0.02246
2815.96815,0.02273
2814.03940,0.02292
2812.11066,0.02306
2810.18191,0.02315
2808.25317,0.02324
2806.32442,0.02326
2804.39568,0.02324
2802.46693,0.02337
2800.53819,0.02356
2798.60944,0.02361
2796.68070,0.02361
2794.75195,0.02367
2792.82320,0.02375
2790.89446,0.02385
2788.96571,0.02406
2787.03697,0.02420
2785.10822,0.02421
2783.17948,0.02432
2781.25073,0.02452
2779.32199,0.02469
2777.39324,0.02495
2775.46450,0.02520
2773.53575,0.02516
2771.60701,0.02498
2769.67826,0.02489
2767.74952,0.02503
2765.82077,0.02543
2763.89203,0.02583
2761.96328,0.02586
2760.03453,0.02560
2758.10579,0.02553
2756.17704,0.02572
2754.24830,0.02592
2752.31955,0.02606
2750.39081,0.02627
2748.46206,0.02649
2746.53332,0.02655
2744.60457,0.02657
2742.67583,0.02677
2740.74708,0.02704
2738.81834,0.02717
2736.88959,0.02714
2734.96085,0.02710
2733.03210,0.02711
2731.10336,0.02719
2729.17461,0.02749
2727.24586,0.02785
2725.31712,0.02790
2723.38837,0.02773
2721.45963,0.02767
2719.53088,0.02792
2717.60214,0.02831
2715.67339,0.02853
2713.74465,0.02858
2711.81590,0.02858
2709.88716,0.02869
2707.95841,0.02903
2706.02967,0.02941
2704.10092,0.02962
2702.17218,0.02969
2700.24343,0.02966
2698.31468,0.02958
2696.38594,0.02964
2694.45719,0.03001
2692.52845,0.03044
2690.59970,0.03055
2688.67096,0.03040
2686.74221,0.03032
2684.81347,0.03043
2682.88472,0.03066
2680.95598,0.03088
2679.02723,0.03101
2677.09849,0.03107
2675.16974,0.03114
2673.24100,0.03125
2671.31225,0.03139
2669.38351,0.03160
2667.45476,0.03183
2665.52601,0.03189
2663.59727,0.03186
2661.66852,0.03196
2659.73978,0.03223
2657.81103,0.03245
2655.88229,0.03258
2653.95354,0.03269
2652.02480,0.03268
2650.09605,0.03250
2648.16731,0.03236
2646.23856,0.03240
2644.30982,0.03251
2642.38107,0.03260
2640.45233,0.03283
2638.52358,0.03327
2636.59484,0.03361
2634.66609,0.03365
2632.73734,0.03360
2630.80860,0.03357
2628.87985,0.03346
2626.95111,0.03337
2625.02236,0.03333
2623.09362,0.03332
2621.16487,0.03343
2619.23613,0.03365
2617.30738,0.03391
2615.37864,0.03419
2613.44989,0.03451
2611.52115,0.03481
2609.59240,0.03503
2607.66366,0.03515
2605.73491,0.03522
2603.80616,0.03532
2601.87742,0.03535
2599.94867,0.03532
2598.01993,0.03538
2596.09118,0.03556
2594.16244,0.03584
2592.23369,0.03613
2590.30495,0.03642
2588.37620,0.03667
2586.44746,0.03680
2584.51871,0.03695
2582.58997,0.03722
2580.66122,0.03747
2578.73248,0.03757
2576.80373,0.03760
2574.87499,0.03766
2572.94624,0.03786
2571.01749,0.03808
2569.08875,0.03804
2567.16000,0.03786
2565.23126,0.03795
2563.30251,0.03832
2561.37377,0.03870
2559.44502,0.03907
2557.51628,0.03928
2555.58753,0.03913
2553.65879,0.03898
2551.73004,0.03915
2549.80130,0.03937
2547.87255,0.03952
2545.94381,0.03973
2544.01506,0.03996
2542.08631,0.04010
2540.15757,0.04018
2538.22882,0.04029
2536.30008,0.04047
2534.37133,0.04070
2532.44259,0.04091
2530.51384,0.04112
2528.58510,0.04125
2526.65635,0.04121
2524.72761,0.04118
2522.79886,0.04130
2520.87012,0.04138
2518.94137,0.04136
2517.01263,0.04137
2515.08388,0.04147
2513.15514,0.04169
2511.22639,0.04192
2509.29764,0.04202
2507.36890,0.04205
2505.44015,0.04215
2503.51141,0.04236
2501.58266,0.04253
2499.65392,0.04258
2497.72517,0.04282
2495.79643,0.04328
2493.86768,0.04348
2491.93894,0.04343
2490.01019,0.04358
2488.08145,0.04390
2486.15270,0.04402
2484.22396,0.04401
2482.29521,0.04412
2480.36647,0.04431
2478.43772,0.04453
2476.50897,0.04484
2474.58023,0.04512
2472.65148,0.04532
2470.72274,0.04557
2468.79399,0.04587
2466.86525,0.04614
2464.93650,0.04636
2463.00776,0.04652
2461.07901,0.04664
2459.15027,0.04688
2457.22152,0.04718
2455.29278,0.04742
2453.36403,0.04748
2451.43529,0.04740
2449.50654,0.04747
2447.57779,0.04775
2445.64905,0.04800
2443.72030,0.04825
2441.79156,0.04853
2439.86281,0.04872
2437.93407,0.04887
2436.00532,0.04907
2434.07658,0.04930
2432.14783,0.04968
2430.21909,0.05017
2428.29034,0.05039
2426.36160,0.05035
2424.43285,0.05038
2422.50411,0.05056
2420.57536,0.05088
2418.64662,0.05125
2416.71787,0.05145
2414.78912,0.05148
2412.86038,0.05150
2410.93163,0.05162
2409.00289,0.05179
2407.07414,0.05196
2405.14540,0.05214
2403.21665,0.05245
2401.28791,0.05297
2399.35916,0.05353
2397.43042,0.05381
2395.50167,0.05378
2393.57293,0.05376
2391.64418,0.05403
2389.71544,0.05433
2387.78669,0.05440
2385.85795,0.05440
2383.92920,0.05443
2382.00045,0.05449
2380.07171,0.05463
2378.14296,0.05485
2376.21422,0.05511
2374.28547,0.05531
2372.35673,0.05524
2370.42798,0.05510
2368.49924,0.05530
2366.57049,0.05569
2364.64175,0.05585
2362.71300,0.05577
2360.78426,0.05571
2358.85551,0.05579
2356.92677,0.05591
2354.99802,0.05592
2353.06927,0.05597
2351.14053,0.05619
2349.21178,0.05637
2347.28304,0.05629
2345.35429,0.05613
2343.42555,0.05613
2341.49680,0.05620
2339.56806,0.05633
2337.63931,0.05659
2335.71057,0.05673
2333.78182,0.05662
2331.85308,0.05655
2329.92433,0.05660
2327.99559,0.05653
2326.06684,0.05643
2324.13810,0.05661
2322.20935,0.05694
2320.28060,0.05705
2318.35186,0.05690
2316.42311,0.05666
2314.49437,0.05655
2312.56562,0.05660
2310.63688,0.05665
2308.70813,0.05664
2306.77939,0.05673
2304.85064,0.05682
2302.92190,0.05666
2300.99315,0.05638
2299.06441,0.05636
2297.13566,0.05666
2295.20692,0.05692
2293.27817,0.05706
2291.34943,0.05719
2289.42068,0.05724
2287.49193,0.05716
2285.56319,0.05699
2283.63444,0.05682
2281.70570,0.05680
2279.77695,0.05698
2277.84821,0.05715
2275.91946,0.05714
2273.99072,0.05702
2272.06197,0.05704
2270.13323,0.05706
2268.20448,0.05691
2266.27574,0.05678
2264.34699,0.05689
2262.41825,0.05708
2260.48950,0.05708
2258.56075,0.05695
2256.63201,0.05693
2254.70326,0.05694
2252.77452,0.05678
2250.84577,0.05651
2248.91703,0.05634
2246.98828,0.05631
2245.05954,0.05626
2243.13079,0.05612
2241.20205,0.05599
2239.27330,0.05597
2237.34456,0.05602
2235.41581,0.05594
2233.48707,0.05569
2231.55832,0.05554
2229.62958,0.05563
2227.70083,0.05578
2225.77208,0.05574
2223.84334,0.05554
2221.91459,0.05543
2219.98585,0.05556
2218.05710,0.05564
2216.12836,0.05546
2214.19961,0.05526
2212.27087,0.05522
2210.34212,0.05524
2208.41338,0.05527
2206.48463,0.05529
2204.55589,0.05529
2202.62714,0.05528
2200.69840,0.05521
2198.76965,0.05514
2196.84090,0.05507
2194.91216,0.05490
2192.98341,0.05474
2191.05467,0.05472
2189.12592,0.05481
2187.19718,0.05494
2185.26843,0.05501
2183.33969,0.05500
2181.41094,0.05495
2179.48220,0.05482
2177.55345,0.05465
2175.62471,0.05456
2173.69596,0.05458
2171.76722,0.05470
2169.83847,0.05475
2167.90973,0.05458
2165.98098,0.05433
2164.05223,0.05422
2162.12349,0.05423
2160.19474,0.05428
2158.26600,0.05439
2156.33725,0.05455
2154.40851,0.05453
2152.47976,0.05429
2150.55102,0.05407
2148.62227,0.05395
2146.69353,0.05382
2144.76478,0.05366
2142.83604,0.05357
2140.90729,0.05357
2138.97855,0.05357
2137.04980,0.05359
2135.12106,0.05379
2133.19231,0.05408
2131.26356,0.05421
2129.33482,0.05415
2127.40607,0.05397
2125.47733,0.05381
2123.54858,0.05378
2121.61984,0.05381
2119.69109,0.05391
2117.76235,0.05406
2115.83360,0.05407
2113.90486,0.05395
2111.97611,0.05394
2110.04737,0.05400
2108.11862,0.05393
2106.18988,0.05376
2104.26113,0.05363
2102.33238,0.05358
2100.40364,0.05371
2098.47489,0.05389
2096.54615,0.05396
2094.61740,0.05402
2092.68866,0.05422
2090.75991,0.05442
2088.83117,0.05447
2086.90242,0.05441
2084.97368,0.05442
2083.04493,0.05455
2081.11619,0.05470
2079.18744,0.05483
2077.25870,0.05495
2075.32995,0.05502
2073.40121,0.05510
2071.47246,0.05533
2069.54371,0.05558
2067.61497,0.05572
2065.68622,0.05585
2063.75748,0.05603
2061.82873,0.05621
2059.89999,0.05641
2057.97124,0.05665
2056.04250,0.05682
2054.11375,0.05692
2052.18501,0.05708
2050.25626,0.05724
2048.32752,0.05728
2046.39877,0.05728
2044.47003,0.05735
2042.54128,0.05755
2040.61254,0.05785
2038.68379,0.05804
2036.75504,0.05811
2034.82630,0.05828
2032.89755,0.05849
2030.96881,0.05855
2029.04006,0.05852
2027.11132,0.05855
2025.18257,0.05866
2023.25383,0.05881
2021.32508,0.05897
2019.39634,0.05906
2017.46759,0.05911
2015.53885,0.05920
2013.61010,0.05937
2011.68136,0.05956
2009.75261,0.05977
2007.82386,0.05995
2005.89512,0.06009
2003.96637,0.06020
2002.03763,0.06021
2000.10888,0.06021
1998.18014,0.06033
1996.25139,0.06037
1994.32265,0.06025
1992.39390,0.06016
1990.46516,0.06024
1988.53641,0.06042
1986.60767,0.06065
1984.67892,0.06095
1982.75018,0.06119
1980.82143,0.06120
1978.89269,0.06118
1976.96394,0.06137
1975.03519,0.06161
1973.10645,0.06161
1971.17770,0.06137
1969.24896,0.06110
1967.32021,0.06102
1965.39147,0.06114
1963.46272,0.06124
1961.53398,0.06113
1959.60523,0.06096
1957.67649,0.06094
1955.74774,0.06111
1953.81900,0.06125
1951.89025,0.06122
1949.96151,0.06116
1948.03276,0.06127
1946.10402,0.06155
1944.17527,0.06177
1942.24652,0.06180
1940.31778,0.06180
1938.38903,0.06183
1936.46029,0.06178
1934.53154,0.06164
1932.60280,0.06155
1930.67405,0.06168
1928.74531,0.06190
1926.81656,0.06201
1924.88782,0.06190
1922.95907,0.06163
1921.03033,0.06141
1919.10158,0.06124
1917.17284,0.06105
1915.24409,0.06092
1913.31534,0.06087
1911.38660,0.06079
1909.45785,0.06062
1907.52911,0.06036
1905.60036,0.06004
1903.67162,0.05979
1901.74287,0.05971
1899.81413,0.05955
1897.88538,0.05919
1895.95664,0.05887
1894.02789,0.05867
1892.09915,0.05848
1890.17040,0.05835
1888.24166,0.05833
1886.31291,0.05835
1884.38417,0.05825
1882.45542,0.05797
1880.52667,0.05766
1878.59793,0.05749
1876.66918,0.05743
1874.74044,0.05731
1872.81169,0.05701
1870.88295,0.05669
1868.95420,0.05657
1867.02546,0.05651
1865.09671,0.05630
1863.16797,0.05599
1861.23922,0.05571
1859.31048,0.05546
1857.38173,0.05516
1855.45299,0.05482
1853.52424,0.05451
1851.59549,0.05428
1849.66675,0.05407
1847.73800,0.05381
1845.80926,0.05352
1843.88051,0.05317
1841.95177,0.05267
1840.02302,0.05206
1838.09428,0.05156
1836.16553,0.05131
1834.23679,0.05105
1832.30804,0.05058
1830.37930,0.05005
1828.45055,0.04957
1826.52181,0.04910
1824.59306,0.04852
1822.66432,0.04788
1820.73557,0.04739
1818.80682,0.04714
1816.87808,0.04676
1814.94933,0.04602
1813.02059,0.04532
1811.09184,0.04494
1809.16310,0.04452
1807.23435,0.04386
1805.30561,0.04320
1803.37686,0.04273
1801.44812,0.04236
1799.51937,0.04198
1797.59063,0.04147
1795.66188,0.04081
1793.73314,0.04010
1791.80439,0.03943
1789.87565,0.03876
1787.94690,0.03811
1786.01815,0.03751
1784.08941,0.03696
1782.16066,0.03628
1780.23192,0.03553
1778.30317,0.03496
1776.37443,0.03447
1774.44568,0.03384
1772.51694,0.03312
1770.58819,0.03245
1768.65945,0.03174
1766.73070,0.03105
1764.80196,0.03051
1762.87321,0.03003
1760.94447,0.02944
1759.01572,0.02872
1757.08697,0.02788
1755.15823,0.02695
1753.22948,0.02606
1751.30074,0.02530
1749.37199,0.02461
1747.44325,0.02387
1745.51450,0.02311
1743.58576,0.02247
1741.65701,0.02204
1739.72827,0.02164
1737.79952,0.02115
1735.87078,0.02061
1733.94203,0.01998
1732.01329,0.01941
1730.08454,0.01897
1728.15580,0.01850
1726.22705,0.01805
1724.29830,0.01779
1722.36956,0.01753
1720.44081,0.01711
1718.51207,0.01661
1716.58332,0.01613
1714.65458,0.01572
1712.72583,0.01544
1710.79709,0.01521
1708.86834,0.01489
1706.93960,0.01459
1705.01085,0.01437
1703.08211,0.01414
1701.15336,0.01384
1699.22462,0.01364
1697.29587,0.01359
1695.36713,0.01353
1693.43838,0.01353
1691.50963,0.01362
1689.58089,0.01363
1687.65214,0.01359
1685.72340,0.01365
1683.79465,0.01385
1681.86591,0.01402
1679.93716,0.01406
1678.00842,0.01395
1676.07967,0.01367
1674.15093,0.01352
1672.22218,0.01378
1670.29344,0.01415
1668.36469,0.01438
1666.43595,0.01455
1664.50720,0.01474
1662.57845,0.01500
1660.64971,0.01537
1658.72096,0.01570
1656.79222,0.01603
1654.86347,0.01641
1652.93473,0.01670
1651.00598,0.01677
1649.07724,0.01677
1647.14849,0.01674
1645.21975,0.01678
1643.29100,0.01695
1641.36226,0.01710
1639.43351,0.01723
1637.50477,0.01740
1635.57602,0.01756
1633.64728,0.01769
1631.71853,0.01783
1629.78978,0.01797
1627.86104,0.01814
1625.93229,0.01828
1624.00355,0.01818
1622.07480,0.01788
1620.14606,0.01768
1618.21731,0.01775
1616.28857,0.01786
1614.35982,0.01779
1612.43108,0.01767
1610.50233,0.01771
1608.57359,0.01784
1606.64484,0.01775
1604.71610,0.01748
1602.78735,0.01728
1600.85861,0.01722
1598.92986,0.01718
1597.00111,0.01713
1595.07237,0.01714
1593.14362,0.01727
1591.21488,0.01736
1589.28613,0.01729
1587.35739,0.01706
1585.42864,0.01676
1583.49990,0.01650
1581.57115,0.01640
1579.64241,0.01638
1577.71366,0.01640
1575.78492,0.01637
1573.85617,0.01630
1571.92743,0.01635
1569.99868,0.01649
1568.06993,0.01646
1566.14119,0.01615
1564.21244,0.01573
1562.28370,0.01554
1560.35495,0.01554
1558.42621,0.01553
1556.49746,0.01560
1554.56872,0.01569
1552.63997,0.01567
1550.71123,0.01566
1548.78248,0.01579
1546.85374,0.01605
1544.92499,0.01643
1542.99625,0.01681
1541.06750,0.01702
1539.13876,0.01700
1537.21001,0.01694
1535.28126,0.01705
1533.35252,0.01718
1531.42377,0.01718
1529.49503,0.01724
1527.56628,0.01744
1525.63754,0.01758
1523.70879,0.01753
1521.78005,0.01742
1519.85130,0.01740
1517.92256,0.01746
1515.99381,0.01747
1514.06507,0.01748
1512.13632,0.01775
1510.20758,0.01821
1508.27883,0.01839
1506.35008,0.01822
1504.42134,0.01827
1502.49259,0.01858
1500.56385,0.01867
1498.63510,0.01856
1496.70636,0.01860
1494.77761,0.01873
1492.84887,0.01883
1490.92012,0.01897
1488.99138,0.01907
1487.06263,0.01895
1485.13389,0.01875
1483.20514,0.01864
1481.27640,0.01868
1479.34765,0.01870
1477.41891,0.01849
1475.49016,0.01812
1473.56141,0.01789
1471.63267,0.01783
1469.70392,0.01786
1467.77518,0.01796
1465.84643,0.01798
1463.91769,0.01780
1461.98894,0.01762
1460.06020,0.01764
1458.13145,0.01764
1456.20271,0.01750
1454.27396,0.01739
1452.34522,0.01739
1450.41647,0.01749
1448.48773,0.01756
1446.55898,0.01757
1444.63024,0.01763
1442.70149,0.01770
1440.77274,0.01765
1438.84400,0.01749
1436.91525,0.01742
1434.98651,0.01756
1433.05776,0.01768
1431.12902,0.01759
1429.20027,0.01748
1427.27153,0.01748
1425.34278,0.01742
1423.41404,0.01733
1421.48529,0.01741
1419.55655,0.01761
1417.62780,0.01766
1415.69906,0.01749
1413.77031,0.01729
1411.84156,0.01724
1409.91282,0.01731
1407.98407,0.01735
1406.05533,0.01734
1404.12658,0.01730
1402.19784,0.01727
1400.26909,0.01729
1398.34035,0.01731
1396.41160,0.01729
1394.48286,0.01731
1392.55411,0.01729
1390.62537,0.01719
1388.69662,0.01721
1386.76788,0.01751
1384.83913,0.01781
1382.91039,0.01775
1380.98164,0.01756
1379.05289,0.01754
1377.12415,0.01763
1375.19540,0.01769
1373.26666,0.01767
1371.33791,0.01749
1369.40917,0.01733
1367.48042,0.01741
1365.55168,0.01756
1363.62293,0.01763
1361.69419,0.01766
1359.76544,0.01764
1357.83670,0.01764
1355.90795,0.01776
1353.97921,0.01790
1352.05046,0.01794
1350.12172,0.01798
1348.19297,0.01793
1346.26422,0.01770
1344.33548,0.01752
1342.40673,0.01760
1340.47799,0.01777
1338.54924,0.01774
1336.62050,0.01754
1334.69175,0.01736
1332.76301,0.01728
1330.83426,0.01734
1328.90552,0.01753
1326.97677,0.01757
1325.04803,0.01746
1323.11928,0.01749
1321.19054,0.01758
1319.26179,0.01740
1317.33304,0.01701
1315.40430,0.01672
1313.47555,0.01680
1311.54681,0.01708
1309.61806,0.01732
1307.68932,0.01745
1305.76057,0.01740
1303.83183,0.01720
1301.90308,0.01703
1299.97434,0.01695
1298.04559,0.01691
1296.11685,0.01699
1294.18810,0.01712
1292.25936,0.01718
1290.33061,0.01724
1288.40187,0.01733
1286.47312,0.01731
1284.54437,0.01725
1282.61563,0.01717
1280.68688,0.01706
1278.75814,0.01708
1276.82939,0.01715
1274.90065,0.01717
1272.97190,0.01723
1271.04316,0.01731
1269.11441,0.01732
1267.18567,0.01729
1265.25692,0.01738
1263.32818,0.01762
1261.39943,0.01783
1259.47069,0.01789
1257.54194,0.01785
1255.61320,0.01773
1253.68445,0.01761
1251.75570,0.01755
1249.82696,0.01758
1247.89821,0.01763
1245.96947,0.01752
1244.04072,0.01742
1242.11198,0.01753
1240.18323,0.01769
1238.25449,0.01768
1236.32574,0.01750
1234.39700,0.01729
1232.46825,0.01731
1230.53951,0.01752
1228.61076,0.01761
1226.68202,0.01762
1224.75327,0.01777
1222.82452,0.01786
1220.89578,0.01767
1218.96703,0.01766
1217.03829,0.01804
1215.10954,0.01845
1213.18080,0.01854
1211.25205,0.01840
1209.32331,0.01836
1207.39456,0.01847
1205.46582,0.01856
1203.53707,0.01865
1201.60833,0.01881
1199.67958,0.01885
1197.75084,0.01866
1195.82209,0.01850
1193.89335,0.01854
1191.96460,0.01857
1190.03585,0.01867
1188.10711,0.01884
1186.17836,0.01876
1184.24962,0.01861
1182.32087,0.01867
1180.39213,0.01874
1178.46338,0.01861
1176.53464,0.01837
1174.60589,0.01819
1172.67715,0.01820
1170.74840,0.01839
1168.81966,0.01856
1166.89091,0.01847
1164.96217,0.01814
1163.03342,0.01777
1161.10467,0.01768
1159.17593,0.01800
1157.24718,0.01838
1155.31844,0.01854
1153.38969,0.01860
1151.46095,0.01875
1149.53220,0.01890
1147.60346,0.01898
1145.67471,0.01903
1143.74597,0.01904
1141.81722,0.01887
1139.88848,0.01850
1137.95973,0.01824
1136.03099,0.01842
1134.10224,0.01879
1132.17350,0.01891
1130.24475,0.01888
1128.31600,0.01887
1126.38726,0.01876
1124.45851,0.01863
1122.52977,0.01860
1120.60102,0.01874
1118.67228,0.01875
1116.74353,0.01843
1114.81479,0.01810
1112.88604,0.01793
1110.95730,0.01808
1109.02855,0.01846
1107.09981,0.01841
1105.17106,0.01810
1103.24232,0.01812
1101.31357,0.01827
1099.38483,0.01840
1097.45608,0.01862
1095.52733,0.01879
1093.59859,0.01884
1091.66984,0.01870
1089.74110,0.01843
1087.81235,0.01847
1085.88361,0.01879
1083.95486,0.01880
1082.02612,0.01845
1080.09737,0.01833
1078.16863,0.01859
1076.23988,0.01874
1074.31114,0.01865
1072.38239,0.01861
1070.45365,0.01872
1068.52490,0.01870
1066.59615,0.01865
1064.66741,0.01902
1062.73866,0.01968
1060.80992,0.02010
1058.88117,0.02023
1056.95243,0.02013
1055.02368,0.01982
1053.09494,0.01957
1051.16619,0.01940
1049.23745,0.01914
1047.30870,0.01895
1045.37996,0.01892
1043.45121,0.01905
1041.52247,0.01935
1039.59372,0.01975
1037.66498,0.02006
1035.73623,0.02025
1033.80748,0.02063
1031.87874,0.02122
1029.94999,0.02168
1028.02125,0.02191
1026.09250,0.02206
1024.16376,0.02209
1022.23501,0.02217
1020.30627,0.02266
1018.37752,0.02335
1016.44878,0.02360
1014.52003,0.02351
1012.59129,0.02356
1010.66254,0.02384
1008.73380,0.02428
1006.80505,0.02477
1004.87631,0.02518
1002.94756,0.02542
1001.01881,0.02554
999.09007,0.02563
997.16132,0.02567
995.23258,0.02554
993.30383,0.02528
991.37509,0.02513
989.44634,0.02521
987.51760,0.02533
985.58885,0.02538
983.66011,0.02548
981.73136,0.02597
979.80262,0.02681
977.87387,0.02724
975.94513,0.02676
974.01638,0.02600
972.08763,0.02583
970.15889,0.02623
968.23014,0.02650
966.30140,0.02639
964.37265,0.02631
962.44391,0.02648
960.51516,0.02668
958.58642,0.02683
956.65767,0.02689
954.72893,0.02688
952.80018,0.02683
950.87144,0.02661
948.94269,0.02631
947.01395,0.02619
945.08520,0.02612
943.15646,0.02597
941.22771,0.02583
939.29896,0.02565
937.37022,0.02544
935.44147,0.02523
933.51273,0.02507
931.58398,0.02507
929.65524,0.02509
927.72649,0.02502
925.79775,0.02517
923.86900,0.02546
921.94026,0.02550
920.01151,0.02538
918.08277,0.02540
916.15402,0.02540
914.22528,0.02525
912.29653,0.02520
910.36779,0.02515
908.43904,0.02489
906.51029,0.02453
904.58155,0.02435
902.65280,0.02437
900.72406,0.02438
898.79531,0.02431
896.86657,0.02436
894.93782,0.02461
893.00908,0.02477
891.08033,0.02458
889.15159,0.02416
887.22284,0.02370
885.29410,0.02341
883.36535,0.02349
881.43661,0.02375
879.50786,0.02394
877.57911,0.02417
875.65037,0.02441
873.72162,0.02436
871.79288,0.02405
869.86413,0.02378
867.93539,0.02347
866.00664,0.02293
864.07790,0.02256
862.14915,0.02271
860.22041,0.02298
858.29166,0.02300
856.36292,0.02295
854.43417,0.02290
852.50543,0.02266
850.57668,0.02231
848.64794,0.02201
846.71919,0.02176
844.79044,0.02169
842.86170,0.02176
840.93295,0.02160
839.00421,0.02133
837.07546,0.02135
835.14672,0.02129
833.21797,0.02072
831.28923,0.02015
829.36048,0.02019
827.43174,0.02063
825.50299,0.02079
823.57425,0.02064
821.64550,0.02071
819.71676,0.02098
817.78801,0.02087
815.85926,0.02033
813.93052,0.01987
812.00177,0.01971
810.07303,0.01971
808.14428,0.01980
806.21554,0.01980
804.28679,0.01960
802.35805,0.01938
800.42930,0.01940
798.50056,0.01963
796.57181,0.01979
794.64307,0.01981
792.71432,0.01960
790.78558,0.01906
788.85683,0.01864
786.92809,0.01859
784.99934,0.01864
783.07059,0.01859
781.14185,0.01846
779.21310,0.01837
777.28436,0.01830
775.35561,0.01807
773.42687,0.01778
771.49812,0.01768
769.56938,0.01771
767.64063,0.01778
765.71189,0.01791
763.78314,0.01783
761.85440,0.01768
759.92565,0.01780
757.99691,0.01798
756.06816,0.01793
754.13942,0.01764
752.21067,0.01734
750.28192,0.01725
748.35318,0.01713
746.42443,0.01683
744.49569,0.01671
742.56694,0.01684
740.63820,0.01696
738.70945,0.01704
736.78071,0.01723
734.85196,0.01743
732.92322,0.01744
730.99447,0.01727
729.06573,0.01709
727.13698,0.01693
725.20824,0.01659
723.27949,0.01605
721.35074,0.01576
719.42200,0.01577
717.49325,0.01578
715.56451,0.01585
713.63576,0.01596
711.70702,0.01592
709.77827,0.01585
707.84953,0.01601
705.92078,0.01637
703.99204,0.01647
702.06329,0.01616
700.13455,0.01585
698.20580,0.01597
696.27706,0.01654
694.34831,0.01679
692.41957,0.01627
690.49082,0.01615
688.56207,0.01692
686.63333,0.01715
684.70458,0.01621
682.77584,0.01551
680.84709,0.01580
678.91835,0.01606
676.98960,0.01582
675.06086,0.01570
673.13211,0.01597
671.20337,0.01630
669.27462,0.01640
667.34588,0.01624
665.41713,0.01602
663.48839,0.01618
661.55964,0.01661
659.63090,0.01680
657.70215,0.01632
655.77340,0.01523
653.84466,0.01443
651.91591,0.01469
649.98717,0.01563
648.05842,0.01630
646.12968,0.01646
644.20093,0.01632
642.27219,0.01597
640.34344,0.01596
638.41470,0.01624
636.48595,0.01567
634.55721,0.01432
632.62846,0.01398
630.69972,0.01492
628.77097,0.01606
626.84222,0.01689
624.91348,0.01654
622.98473,0.01481
621.05599,0.01368
619.12724,0.01412
617.19850,0.01499
615.26975,0.01515
613.34101,0.01414
611.41226,0.01298
609.48352,0.01345
607.55477,0.01410
605.62603,0.01392
603.69728,0.01434
601.76854,0.01532
599.83979,0.01552
