7497.03301,0.55505
7495.10426,0.55954
7493.17552,0.55850
7491.24677,0.55731
7489.31803,0.55719
7487.38928,0.55680
7485.46054,0.55693
7483.53179,0.55670
7481.60305,0.55507
7479.67430,0.55617
7477.74556,0.56336
7475.81681,0.56962
7473.88807,0.56676
7471.95932,0.55854
7470.03057,0.55269
7468.10183,0.55196
7466.17308,0.55552
7464.24434,0.56004
7462.31559,0.56092
7460.38685,0.55640
7458.45810,0.55136
7456.52936,0.55136
7454.60061,0.55473
7452.67187,0.55602
7450.74312,0.55284
7448.81438,0.54932
7446.88563,0.55134
7444.95689,0.55839
7443.02814,0.56462
7441.09940,0.56658
7439.17065,0.56445
7437.24190,0.56011
7435.31316,0.55671
7433.38441,0.55599
7431.45567,0.55835
7429.52692,0.56141
7427.59818,0.56161
7425.66943,0.56080
7423.74069,0.56098
7421.81194,0.55901
7419.88320,0.55440
7417.95445,0.55082
7416.02571,0.54834
7414.09696,0.54586
7412.16822,0.54600
7410.23947,0.54896
7408.31073,0.55081
7406.38198,0.54940
7404.45323,0.54629
7402.52449,0.54435
7400.59574,0.54365
7398.66700,0.54328
7396.73825,0.54437
7394.80951,0.54666
7392.88076,0.54673
7390.95202,0.54369
7389.02327,0.54036
7387.09453,0.53805
7385.16578,0.53648
7383.23704,0.53571
7381.30829,0.53575
7379.37955,0.53816
7377.45080,0.54288
7375.52205,0.54473
7373.59331,0.54296
7371.66456,0.54301
7369.73582,0.54512
7367.80707,0.54532
7365.87833,0.54300
7363.94958,0.54180
7362.02084,0.54368
7360.09209,0.54552
7358.16335,0.54491
7356.23460,0.54203
7354.30586,0.53816
7352.37711,0.53659
7350.44837,0.53887
7348.51962,0.54160
7346.59088,0.54050
7344.66213,0.53556
7342.73338,0.53089
7340.80464,0.53069
7338.87589,0.53326
7336.94715,0.53341
7335.01840,0.53188
7333.08966,0.53312
7331.16091,0.53740
7329.23217,0.54014
7327.30342,0.53848
7325.37468,0.53657
7323.44593,0.53901
7321.51719,0.54281
7319.58844,0.54191
7317.65970,0.53687
7315.73095,0.53351
7313.80221,0.53415
7311.87346,0.53625
7309.94471,0.53576
7308.01597,0.53206
7306.08722,0.53030
7304.15848,0.53304
7302.22973,0.53690
7300.30099,0.53973
7298.37224,0.54054
7296.44350,0.53815
7294.51475,0.53440
7292.58601,0.53175
7290.65726,0.53182
7288.72852,0.53527
7286.79977,0.53879
7284.87103,0.53928
7282.94228,0.53814
7281.01353,0.53777
7279.08479,0.53859
7277.15604,0.53881
7275.22730,0.53564
7273.29855,0.52918
7271.36981,0.52500
7269.44106,0.52679
7267.51232,0.53014
7265.58357,0.53129
7263.65483,0.53115
7261.72608,0.53001
7259.79734,0.52859
7257.86859,0.52826
7255.93985,0.52837
7254.01110,0.52624
7252.08236,0.52166
7250.15361,0.51944
7248.22486,0.52194
7246.29612,0.52518
7244.36737,0.52455
7242.43863,0.52143
7240.50988,0.52226
7238.58114,0.52746
7236.65239,0.53139
7234.72365,0.53229
7232.79490,0.53047
7230.86616,0.52569
7228.93741,0.52047
7227.00867,0.51674
7225.07992,0.51501
7223.15118,0.51706
7221.22243,0.52187
7219.29369,0.52499
7217.36494,0.52371
7215.43619,0.52015
7213.50745,0.51863
7211.57870,0.51848
7209.64996,0.51680
7207.72121,0.51507
7205.79247,0.51376
7203.86372,0.51098
7201.93498,0.50909
7200.00623,0.51118
7198.07749,0.51437
7196.14874,0.51443
7194.22000,0.51076
7192.29125,0.50731
7190.36251,0.50936
7188.43376,0.51407
7186.50501,0.51455
7184.57627,0.51063
7182.64752,0.50618
7180.71878,0.50397
7178.79003,0.50385
7176.86129,0.50414
7174.93254,0.50366
7173.00380,0.50040
7171.07505,0.49514
7169.14631,0.49185
7167.21756,0.49205
7165.28882,0.49510
7163.36007,0.49769
7161.43133,0.49465
7159.50258,0.48768
7157.57384,0.48427
7155.64509,0.48738
7153.71634,0.49225
7151.78760,0.49366
7149.85885,0.49279
7147.93011,0.49135
7146.00136,0.48930
7144.07262,0.48863
7142.14387,0.48911
7140.21513,0.48879
7138.28638,0.48902
7136.35764,0.49126
7134.42889,0.49272
7132.50015,0.49061
7130.57140,0.48737
7128.64266,0.48599
7126.71391,0.48541
7124.78516,0.48453
7122.85642,0.48428
7120.92767,0.48447
7118.99893,0.48336
7117.07018,0.48068
7115.14144,0.47734
7113.21269,0.47409
7111.28395,0.47208
7109.35520,0.47162
7107.42646,0.47146
7105.49771,0.47085
7103.56897,0.47018
7101.64022,0.47088
7099.71148,0.47329
7097.78273,0.47391
7095.85399,0.47100
7093.92524,0.46806
7091.99649,0.46565
7090.06775,0.46178
7088.13900,0.45885
7086.21026,0.45843
7084.28151,0.45871
7082.35277,0.45987
7080.42402,0.46139
7078.49528,0.46109
7076.56653,0.45841
7074.63779,0.45449
7072.70904,0.45272
7070.78030,0.45437
7068.85155,0.45560
7066.92281,0.45475
7064.99406,0.45456
7063.06532,0.45522
7061.13657,0.45405
7059.20782,0.45124
7057.27908,0.44873
7055.35033,0.44877
7053.42159,0.45209
7051.49284,0.45402
7049.56410,0.45211
7047.63535,0.44994
7045.70661,0.44814
7043.77786,0.44521
7041.84912,0.44226
7039.92037,0.44125
7037.99163,0.44297
7036.06288,0.44507
7034.13414,0.44508
7032.20539,0.44434
7030.27664,0.44415
7028.34790,0.44368
7026.41915,0.44241
7024.49041,0.44050
7022.56166,0.43801
7020.63292,0.43561
7018.70417,0.43419
7016.77543,0.43478
7014.84668,0.43713
7012.91794,0.43749
7010.98919,0.43480
7009.06045,0.43237
7007.13170,0.43157
7005.20296,0.43231
7003.27421,0.43347
7001.34547,0.43426
6999.41672,0.43517
6997.48797,0.43499
6995.55923,0.43265
6993.63048,0.42979
6991.70174,0.42848
6989.77299,0.42879
6987.84425,0.42940
6985.91550,0.42955
6983.98676,0.42989
6982.05801,0.43116
6980.12927,0.43208
6978.20052,0.43154
6976.27178,0.43097
6974.34303,0.43178
6972.41429,0.43278
6970.48554,0.43182
6968.55680,0.42957
6966.62805,0.42836
6964.69930,0.42789
6962.77056,0.42659
6960.84181,0.42544
6958.91307,0.42645
6956.98432,0.42903
6955.05558,0.42993
6953.12683,0.42788
6951.19809,0.42594
6949.26934,0.42629
6947.34060,0.42802
6945.41185,0.42934
6943.48311,0.42753
6941.55436,0.42274
6939.62562,0.41936
6937.69687,0.41913
6935.76812,0.42022
6933.83938,0.42191
6931.91063,0.42306
6929.98189,0.42114
6928.05314,0.41700
6926.12440,0.41536
6924.19565,0.41815
6922.26691,0.42137
6920.33816,0.42148
6918.40942,0.42001
6916.48067,0.41980
6914.55193,0.42024
6912.62318,0.41996
6910.69444,0.41982
6908.76569,0.41908
6906.83695,0.41701
6904.90820,0.41549
6902.97945,0.41596
6901.05071,0.41866
6899.12196,0.42099
6897.19322,0.42008
6895.26447,0.41759
6893.33573,0.41530
6891.40698,0.41340
6889.47824,0.41295
6887.54949,0.41355
6885.62075,0.41416
6883.69200,0.41530
6881.76326,0.41673
6879.83451,0.41717
6877.90577,0.41690
6875.97702,0.41706
6874.04828,0.41633
6872.11953,0.41271
6870.19078,0.40845
6868.26204,0.40771
6866.33329,0.40978
6864.40455,0.41056
6862.47580,0.41050
6860.54706,0.41117
6858.61831,0.41067
6856.68957,0.40949
6854.76082,0.40973
6852.83208,0.41119
6850.90333,0.41193
6848.97459,0.41073
6847.04584,0.40944
6845.11710,0.40914
6843.18835,0.40775
6841.25960,0.40475
6839.33086,0.40336
6837.40211,0.40429
6835.47337,0.40461
6833.54462,0.40411
6831.61588,0.40373
6829.68713,0.40249
6827.75839,0.40047
6825.82964,0.40018
6823.90090,0.40259
6821.97215,0.40476
6820.04341,0.40411
6818.11466,0.40124
6816.18592,0.39880
6814.25717,0.39817
6812.32843,0.39821
6810.39968,0.39905
6808.47093,0.40092
6806.54219,0.40100
6804.61344,0.39892
6802.68470,0.39805
6800.75595,0.39805
6798.82721,0.39693
6796.89846,0.39663
6794.96972,0.39801
6793.04097,0.39798
6791.11223,0.39589
6789.18348,0.39479
6787.25474,0.39520
6785.32599,0.39469
6783.39725,0.39311
6781.46850,0.39270
6779.53975,0.39406
6777.61101,0.39578
6775.68226,0.39713
6773.75352,0.39744
6771.82477,0.39533
6769.89603,0.39125
6767.96728,0.38820
6766.03854,0.38835
6764.10979,0.38976
6762.18105,0.38962
6760.25230,0.38900
6758.32356,0.38849
6756.39481,0.38581
6754.46607,0.38275
6752.53732,0.38271
6750.60858,0.38351
6748.67983,0.38205
6746.75108,0.38055
6744.82234,0.38248
6742.89359,0.38563
6740.96485,0.38535
6739.03610,0.38135
6737.10736,0.37603
6735.17861,0.37202
6733.24987,0.37103
6731.32112,0.37215
6729.39238,0.37254
6727.46363,0.37099
6725.53489,0.36935
6723.60614,0.36880
6721.67740,0.36793
6719.74865,0.36627
6717.81991,0.36593
6715.89116,0.36733
6713.96241,0.36783
6712.03367,0.36645
6710.10492,0.36430
6708.17618,0.36309
6706.24743,0.36382
6704.31869,0.36428
6702.38994,0.36308
6700.46120,0.36174
6698.53245,0.36002
6696.60371,0.35846
6694.67496,0.35919
6692.74622,0.36082
6690.81747,0.36090
6688.88873,0.35911
6686.95998,0.35671
6685.03123,0.35570
6683.10249,0.35595
6681.17374,0.35645
6679.24500,0.35768
6677.31625,0.35916
6675.38751,0.35926
6673.45876,0.35856
6671.53002,0.35829
6669.60127,0.35716
6667.67253,0.35526
6665.74378,0.35435
6663.81504,0.35465
6661.88629,0.35644
6659.95755,0.35839
6658.02880,0.35776
6656.10006,0.35528
6654.17131,0.35369
6652.24256,0.35370
6650.31382,0.35413
6648.38507,0.35399
6646.45633,0.35360
6644.52758,0.35445
6642.59884,0.35677
6640.67009,0.35857
6638.74135,0.35894
6636.81260,0.35798
6634.88386,0.35620
6632.95511,0.35553
6631.02637,0.35598
6629.09762,0.35653
6627.16888,0.35819
6625.24013,0.35979
6623.31139,0.35920
6621.38264,0.35831
6619.45389,0.35834
6617.52515,0.35763
6615.59640,0.35702
6613.66766,0.35816
6611.73891,0.36014
6609.81017,0.36232
6607.88142,0.36423
6605.95268,0.36405
6604.02393,0.36182
6602.09519,0.35894
6600.16644,0.35638
6598.23770,0.35590
6596.30895,0.35885
6594.38021,0.36305
6592.45146,0.36419
6590.52271,0.36275
6588.59397,0.36314
6586.66522,0.36497
6584.73648,0.36473
6582.80773,0.36346
6580.87899,0.36346
6578.95024,0.36337
6577.02150,0.36233
6575.09275,0.36202
6573.16401,0.36346
6571.23526,0.36637
6569.30652,0.36845
6567.37777,0.36707
6565.44903,0.36412
6563.52028,0.36327
6561.59154,0.36502
6559.66279,0.36822
6557.73404,0.37102
6555.80530,0.37176
6553.87655,0.37066
6551.94781,0.36873
6550.01906,0.36835
6548.09032,0.37108
6546.16157,0.37406
6544.23283,0.37418
6542.30408,0.37297
6540.37534,0.37369
6538.44659,0.37509
6536.51785,0.37441
6534.58910,0.37335
6532.66036,0.37413
6530.73161,0.37679
6528.80287,0.37925
6526.87412,0.37879
6524.94537,0.37643
6523.01663,0.37478
6521.08788,0.37453
6519.15914,0.37515
6517.23039,0.37573
6515.30165,0.37731
6513.37290,0.38056
6511.44416,0.38291
6509.51541,0.38338
6507.58667,0.38310
6505.65792,0.38247
6503.72918,0.38228
6501.80043,0.38329
6499.87169,0.38553
6497.94294,0.38755
6496.01419,0.38751
6494.08545,0.38641
6492.15670,0.38628
6490.22796,0.38716
6488.29921,0.38795
6486.37047,0.38832
6484.44172,0.38839
6482.51298,0.38844
6480.58423,0.38956
6478.65549,0.39188
6476.72674,0.39363
6474.79800,0.39455
6472.86925,0.39624
6470.94051,0.39776
6469.01176,0.39748
6467.08302,0.39680
6465.15427,0.39660
6463.22552,0.39671
6461.29678,0.39765
6459.36803,0.39810
6457.43929,0.39711
6455.51054,0.39682
6453.58180,0.39830
6451.65305,0.40051
6449.72431,0.40230
6447.79556,0.40287
6445.86682,0.40346
6443.93807,0.40560
6442.00933,0.40764
6440.08058,0.40736
6438.15184,0.40500
6436.22309,0.40276
6434.29434,0.40285
6432.36560,0.40497
6430.43685,0.40754
6428.50811,0.40899
6426.57936,0.40791
6424.65062,0.40527
6422.72187,0.40408
6420.79313,0.40587
6418.86438,0.40909
6416.93564,0.41076
6415.00689,0.40976
6413.07815,0.40759
6411.14940,0.40605
6409.22066,0.40611
6407.29191,0.40825
6405.36317,0.41094
6403.43442,0.41176
6401.50567,0.41122
6399.57693,0.41059
6397.64818,0.41037
6395.71944,0.41112
6393.79069,0.41155
6391.86195,0.41096
6389.93320,0.41071
6388.00446,0.41095
6386.07571,0.41142
6384.14697,0.41217
6382.21822,0.41325
6380.28948,0.41451
6378.36073,0.41407
6376.43199,0.41207
6374.50324,0.41154
6372.57450,0.41239
6370.64575,0.41346
6368.71700,0.41479
6366.78826,0.41481
6364.85951,0.41301
6362.93077,0.41046
6361.00202,0.40881
6359.07328,0.41045
6357.14453,0.41460
6355.21579,0.41743
6353.28704,0.41722
6351.35830,0.41583
6349.42955,0.41492
6347.50081,0.41412
6345.57206,0.41334
6343.64332,0.41377
6341.71457,0.41536
6339.78582,0.41580
6337.85708,0.41464
6335.92833,0.41421
6333.99959,0.41447
6332.07084,0.41421
6330.14210,0.41439
6328.21335,0.41565
6326.28461,0.41734
6324.35586,0.41914
6322.42712,0.42014
6320.49837,0.41927
6318.56963,0.41736
6316.64088,0.41671
6314.71214,0.41784
6312.78339,0.41847
6310.85465,0.41811
6308.92590,0.41941
6306.99715,0.42255
6305.06841,0.42423
6303.13966,0.42312
6301.21092,0.42117
6299.28217,0.42059
6297.35343,0.42198
6295.42468,0.42284
6293.49594,0.42157
6291.56719,0.42090
6289.63845,0.42240
6287.70970,0.42432
6285.78096,0.42517
6283.85221,0.42486
6281.92347,0.42455
6279.99472,0.42596
6278.06598,0.42906
6276.13723,0.43160
6274.20848,0.43263
6272.27974,0.43253
6270.35099,0.43172
6268.42225,0.43139
6266.49350,0.43134
6264.56476,0.43076
6262.63601,0.43036
6260.70727,0.43098
6258.77852,0.43290
6256.84978,0.43504
6254.92103,0.43530
6252.99229,0.43407
6251.06354,0.43341
6249.13480,0.43373
6247.20605,0.43474
6245.27730,0.43580
6243.34856,0.43555
6241.41981,0.43440
6239.49107,0.43386
6237.56232,0.43425
6235.63358,0.43519
6233.70483,0.43605
6231.77609,0.43681
6229.84734,0.43840
6227.91860,0.44041
6225.98985,0.44127
6224.06111,0.44073
6222.13236,0.43966
6220.20362,0.43907
6218.27487,0.43973
6216.34613,0.44182
6214.41738,0.44472
6212.48863,0.44719
6210.55989,0.44871
6208.63114,0.44873
6206.70240,0.44673
6204.77365,0.44457
6202.84491,0.44379
6200.91616,0.44378
6198.98742,0.44452
6197.05867,0.44570
6195.12993,0.44571
6193.20118,0.44501
6191.27244,0.44552
6189.34369,0.44721
6187.41495,0.44933
6185.48620,0.45049
6183.55746,0.45023
6181.62871,0.45082
6179.69996,0.45237
6177.77122,0.45268
6175.84247,0.45140
6173.91373,0.45004
6171.98498,0.45004
6170.05624,0.45096
6168.12749,0.45209
6166.19875,0.45355
6164.27000,0.45471
6162.34126,0.45485
6160.41251,0.45437
6158.48377,0.45432
6156.55502,0.45430
6154.62628,0.45353
6152.69753,0.45302
6150.76878,0.45331
6148.84004,0.45402
6146.91129,0.45492
6144.98255,0.45585
6143.05380,0.45708
6141.12506,0.45813
6139.19631,0.45819
6137.26757,0.45747
6135.33882,0.45632
6133.41008,0.45542
6131.48133,0.45604
6129.55259,0.45834
6127.62384,0.46052
6125.69510,0.46029
6123.76635,0.45847
6121.83761,0.45789
6119.90886,0.45870
6117.98011,0.45992
6116.05137,0.46159
6114.12262,0.46287
6112.19388,0.46263
6110.26513,0.46180
6108.33639,0.46211
6106.40764,0.46307
6104.47890,0.46326
6102.55015,0.46264
6100.62141,0.46179
6098.69266,0.46128
6096.76392,0.46172
6094.83517,0.46299
6092.90643,0.46368
6090.97768,0.46351
6089.04893,0.46366
6087.12019,0.46377
6085.19144,0.46277
6083.26270,0.46137
6081.33395,0.46090
6079.40521,0.46185
6077.47646,0.46335
6075.54772,0.46385
6073.61897,0.46314
6071.69023,0.46227
6069.76148,0.46262
6067.83274,0.46458
6065.90399,0.46570
6063.97525,0.46446
6062.04650,0.46324
6060.11776,0.46305
6058.18901,0.46272
6056.26026,0.46242
6054.33152,0.46231
6052.40277,0.46204
6050.47403,0.46213
6048.54528,0.46297
6046.61654,0.46375
6044.68779,0.46346
6042.75905,0.46206
6040.83030,0.46051
6038.90156,0.46024
6036.97281,0.46133
6035.04407,0.46220
6033.11532,0.46206
6031.18658,0.46102
6029.25783,0.45944
6027.32909,0.45854
6025.40034,0.45840
6023.47159,0.45731
6021.54285,0.45518
6019.61410,0.45345
6017.68536,0.45277
6015.75661,0.45334
6013.82787,0.45443
6011.89912,0.45517
6009.97038,0.45535
6008.04163,0.45438
6006.11289,0.45256
6004.18414,0.45084
6002.25540,0.44923
6000.32665,0.44809
5998.39791,0.44729
5996.46916,0.44636
5994.54041,0.44615
5992.61167,0.44645
5990.68292,0.44500
5988.75418,0.44176
5986.82543,0.44007
5984.89669,0.44051
5982.96794,0.43947
5981.03920,0.43620
5979.11045,0.43331
5977.18171,0.43171
5975.25296,0.43047
5973.32422,0.42867
5971.39547,0.42661
5969.46673,0.42472
5967.53798,0.42292
5965.60924,0.42140
5963.68049,0.41971
5961.75174,0.41731
5959.82300,0.41456
5957.89425,0.41245
5955.96551,0.41147
5954.03676,0.41043
5952.10802,0.40868
5950.17927,0.40664
5948.25053,0.40470
5946.32178,0.40310
5944.39304,0.40147
5942.46429,0.39989
5940.53555,0.39869
5938.60680,0.39711
5936.67806,0.39441
5934.74931,0.39138
5932.82057,0.38930
5930.89182,0.38796
5928.96307,0.38626
5927.03433,0.38445
5925.10558,0.38302
5923.17684,0.38123
5921.24809,0.37929
5919.31935,0.37846
5917.39060,0.37807
5915.46186,0.37667
5913.53311,0.37477
5911.60437,0.37373
5909.67562,0.37355
5907.74688,0.37314
5905.81813,0.37201
5903.88939,0.37066
5901.96064,0.36992
5900.03189,0.37036
5898.10315,0.37163
5896.17440,0.37258
5894.24566,0.37277
5892.31691,0.37259
5890.38817,0.37131
5888.45942,0.36913
5886.53068,0.36835
5884.60193,0.36912
5882.67319,0.36995
5880.74444,0.37084
5878.81570,0.37116
5876.88695,0.37028
5874.95821,0.36987
5873.02946,0.37108
5871.10072,0.37267
5869.17197,0.37342
5867.24322,0.37354
5865.31448,0.37401
5863.38573,0.37466
5861.45699,0.37493
5859.52824,0.37529
5857.59950,0.37567
5855.67075,0.37568
5853.74201,0.37537
5851.81326,0.37474
5849.88452,0.37491
5847.95577,0.37623
5846.02703,0.37680
5844.09828,0.37608
5842.16954,0.37533
5840.24079,0.37489
5838.31205,0.37437
5836.38330,0.37365
5834.45455,0.37273
5832.52581,0.37161
5830.59706,0.37012
5828.66832,0.36792
5826.73957,0.36588
5824.81083,0.36538
5822.88208,0.36576
5820.95334,0.36581
5819.02459,0.36513
5817.09585,0.36332
5815.16710,0.36136
5813.23836,0.36080
5811.30961,0.36133
5809.38087,0.36172
5807.45212,0.36099
5805.52337,0.35923
5803.59463,0.35766
5801.66588,0.35678
5799.73714,0.35577
5797.80839,0.35405
5795.87965,0.35252
5793.95090,0.35204
5792.02216,0.35207
5790.09341,0.35179
5788.16467,0.35099
5786.23592,0.34986
5784.30718,0.34864
5782.37843,0.34828
5780.44969,0.34918
5778.52094,0.34947
5776.59220,0.34774
5774.66345,0.34567
5772.73470,0.34529
5770.80596,0.34576
5768.87721,0.34550
5766.94847,0.34482
5765.01972,0.34443
5763.09098,0.34420
5761.16223,0.34420
5759.23349,0.34489
5757.30474,0.34581
5755.37600,0.34550
5753.44725,0.34372
5751.51851,0.34175
5749.58976,0.34077
5747.66102,0.34155
5745.73227,0.34334
5743.80352,0.34386
5741.87478,0.34329
5739.94603,0.34373
5738.01729,0.34496
5736.08854,0.34602
5734.15980,0.34719
5732.23105,0.34867
5730.30231,0.35025
5728.37356,0.35146
5726.44482,0.35196
5724.51607,0.35165
5722.58733,0.35104
5720.65858,0.35118
5718.72984,0.35241
5716.80109,0.35408
5714.87235,0.35555
5712.94360,0.35660
5711.01485,0.35751
5709.08611,0.35921
5707.15736,0.36213
5705.22862,0.36505
5703.29987,0.36668
5701.37113,0.36746
5699.44238,0.36811
5697.51364,0.36873
5695.58489,0.36971
5693.65615,0.37124
5691.72740,0.37271
5689.79866,0.37400
5687.86991,0.37560
5685.94117,0.37713
5684.01242,0.37774
5682.08368,0.37780
5680.15493,0.37822
5678.22618,0.37899
5676.29744,0.37998
5674.36869,0.38122
5672.43995,0.38252
5670.51120,0.38376
5668.58246,0.38471
5666.65371,0.38526
5664.72497,0.38602
5662.79622,0.38699
5660.86748,0.38756
5658.93873,0.38831
5657.00999,0.38982
5655.08124,0.39136
5653.15250,0.39223
5651.22375,0.39255
5649.29500,0.39319
5647.36626,0.39432
5645.43751,0.39479
5643.50877,0.39487
5641.58002,0.39605
5639.65128,0.39774
5637.72253,0.39858
5635.79379,0.39874
5633.86504,0.39918
5631.93630,0.40040
5630.00755,0.40142
5628.07881,0.40140
5626.15006,0.40155
5624.22132,0.40263
5622.29257,0.40363
5620.36383,0.40348
5618.43508,0.40270
5616.50633,0.40273
5614.57759,0.40334
5612.64884,0.40369
5610.72010,0.40434
5608.79135,0.40528
5606.86261,0.40543
5604.93386,0.40453
5603.00512,0.40362
5601.07637,0.40357
5599.14763,0.40404
5597.21888,0.40431
5595.29014,0.40413
5593.36139,0.40370
5591.43265,0.40335
5589.50390,0.40328
5587.57516,0.40372
5585.64641,0.40471
5583.71766,0.40596
5581.78892,0.40705
5579.86017,0.40727
5577.93143,0.40660
5576.00268,0.40650
5574.07394,0.40694
5572.14519,0.40663
5570.21645,0.40577
5568.28770,0.40504
5566.35896,0.40489
5564.43021,0.40549
5562.50147,0.40629
5560.57272,0.40672
5558.64398,0.40648
5556.71523,0.40569
5554.78648,0.40494
5552.85774,0.40454
5550.92899,0.40440
5549.00025,0.40468
5547.07150,0.40574
5545.14276,0.40712
5543.21401,0.40791
5541.28527,0.40799
5539.35652,0.40810
5537.42778,0.40849
5535.49903,0.40869
5533.57029,0.40842
5531.64154,0.40782
5529.71280,0.40723
5527.78405,0.40734
5525.85531,0.40838
5523.92656,0.40893
5521.99781,0.40808
5520.06907,0.40712
5518.14032,0.40743
5516.21158,0.40899
5514.28283,0.41071
5512.35409,0.41170
5510.42534,0.41215
5508.49660,0.41225
5506.56785,0.41161
5504.63911,0.41048
5502.71036,0.41000
5500.78162,0.41024
5498.85287,0.41064
5496.92413,0.41135
5494.99538,0.41204
5493.06664,0.41207
5491.13789,0.41211
5489.20914,0.41243
5487.28040,0.41224
5485.35165,0.41177
5483.42291,0.41183
5481.49416,0.41240
5479.56542,0.41305
5477.63667,0.41347
5475.70793,0.41352
5473.77918,0.41347
5471.85044,0.41369
5469.92169,0.41418
5467.99295,0.41475
5466.06420,0.41491
5464.13546,0.41458
5462.20671,0.41498
5460.27796,0.41636
5458.34922,0.41745
5456.42047,0.41775
5454.49173,0.41777
5452.56298,0.41787
5450.63424,0.41805
5448.70549,0.41835
5446.77675,0.41887
5444.84800,0.41926
5442.91926,0.41957
5440.99051,0.42031
5439.06177,0.42100
5437.13302,0.42126
5435.20428,0.42169
5433.27553,0.42233
5431.34679,0.42287
5429.41804,0.42320
5427.48929,0.42338
5425.56055,0.42379
5423.63180,0.42434
5421.70306,0.42456
5419.77431,0.42442
5417.84557,0.42406
5415.91682,0.42378
5413.98808,0.42386
5412.05933,0.42390
5410.13059,0.42370
5408.20184,0.42383
5406.27310,0.42453
5404.34435,0.42531
5402.41561,0.42548
5400.48686,0.42493
5398.55811,0.42463
5396.62937,0.42504
5394.70062,0.42559
5392.77188,0.42603
5390.84313,0.42627
5388.91439,0.42612
5386.98564,0.42543
5385.05690,0.42432
5383.12815,0.42370
5381.19941,0.42389
5379.27066,0.42418
5377.34192,0.42427
5375.41317,0.42403
5373.48443,0.42351
5371.55568,0.42346
5369.62694,0.42347
5367.69819,0.42269
5365.76944,0.42168
5363.84070,0.42099
5361.91195,0.42026
5359.98321,0.41946
5358.05446,0.41895
5356.12572,0.41826
5354.19697,0.41684
5352.26823,0.41556
5350.33948,0.41489
5348.41074,0.41403
5346.48199,0.41286
5344.55325,0.41192
5342.62450,0.41122
5340.69576,0.41023
5338.76701,0.40871
5336.83827,0.40735
5334.90952,0.40630
5332.98077,0.40486
5331.05203,0.40328
5329.12328,0.40178
5327.19454,0.40010
5325.26579,0.39860
5323.33705,0.39701
5321.40830,0.39440
5319.47956,0.39127
5317.55081,0.38866
5315.62207,0.38631
5313.69332,0.38334
5311.76458,0.37974
5309.83583,0.37661
5307.90709,0.37409
5305.97834,0.37076
5304.04959,0.36631
5302.12085,0.36167
5300.19210,0.35755
5298.26336,0.35418
5296.33461,0.35113
5294.40587,0.34770
5292.47712,0.34354
5290.54838,0.33885
5288.61963,0.33449
5286.69089,0.33089
5284.76214,0.32701
5282.83340,0.32190
5280.90465,0.31656
5278.97591,0.31228
5277.04716,0.30862
5275.11842,0.30466
5273.18967,0.30064
5271.26092,0.29684
5269.33218,0.29288
5267.40343,0.28877
5265.47469,0.28499
5263.54594,0.28133
5261.61720,0.27719
5259.68845,0.27286
5257.75971,0.26938
5255.83096,0.26703
5253.90222,0.26468
5251.97347,0.26151
5250.04473,0.25813
5248.11598,0.25491
5246.18724,0.25151
5244.25849,0.24813
5242.32975,0.24516
5240.40100,0.24252
5238.47225,0.23999
5236.54351,0.23780
5234.61476,0.23594
5232.68602,0.23410
5230.75727,0.23232
5228.82853,0.23045
5226.89978,0.22807
5224.97104,0.22559
5223.04229,0.22359
5221.11355,0.22189
5219.18480,0.22029
5217.25606,0.21885
5215.32731,0.21755
5213.39857,0.21605
5211.46982,0.21410
5209.54107,0.21222
5207.61233,0.21102
5205.68358,0.21034
5203.75484,0.20955
5201.82609,0.20883
5199.89735,0.20833
5197.96860,0.20701
5196.03986,0.20475
5194.11111,0.20278
5192.18237,0.20186
5190.25362,0.20172
5188.32488,0.20124
5186.39613,0.20012
5184.46739,0.19924
5182.53864,0.19861
5180.60990,0.19774
5178.68115,0.19674
5176.75240,0.19606
5174.82366,0.19591
5172.89491,0.19584
5170.96617,0.19526
5169.03742,0.19435
5167.10868,0.19352
5165.17993,0.19303
5163.25119,0.19295
5161.32244,0.19288
5159.39370,0.19261
5157.46495,0.19220
5155.53621,0.19193
5153.60746,0.19227
5151.67872,0.19309
5149.74997,0.19371
5147.82123,0.19389
5145.89248,0.19370
5143.96373,0.19329
5142.03499,0.19328
5140.10624,0.19382
5138.17750,0.19390
5136.24875,0.19321
5134.32001,0.19284
5132.39126,0.19309
5130.46252,0.19353
5128.53377,0.19433
5126.60503,0.19526
5124.67628,0.19582
5122.74754,0.19630
5120.81879,0.19676
5118.89005,0.19697
5116.96130,0.19711
5115.03255,0.19740
5113.10381,0.19759
5111.17506,0.19783
5109.24632,0.19845
5107.31757,0.19893
5105.38883,0.19880
5103.46008,0.19850
5101.53134,0.19846
5099.60259,0.19847
5097.67385,0.19818
5095.74510,0.19773
5093.81636,0.19750
5091.88761,0.19777
5089.95887,0.19815
5088.03012,0.19821
5086.10138,0.19805
5084.17263,0.19801
5082.24388,0.19824
5080.31514,0.19832
5078.38639,0.19774
5076.45765,0.19656
5074.52890,0.19557
5072.60016,0.19531
5070.67141,0.19553
5068.74267,0.19588
5066.81392,0.19603
5064.88518,0.19597
5062.95643,0.19635
5061.02769,0.19714
5059.09894,0.19780
5057.17020,0.19852
5055.24145,0.19915
5053.31270,0.19910
5051.38396,0.19872
5049.45521,0.19853
5047.52647,0.19860
5045.59772,0.19898
5043.66898,0.19963
5041.74023,0.20016
5039.81149,0.20041
5037.88274,0.20062
5035.95400,0.20107
5034.02525,0.20165
5032.09651,0.20200
5030.16776,0.20205
5028.23902,0.20214
5026.31027,0.20249
5024.38153,0.20298
5022.45278,0.20333
5020.52403,0.20348
5018.59529,0.20398
5016.66654,0.20493
5014.73780,0.20551
5012.80905,0.20574
5010.88031,0.20642
5008.95156,0.20730
5007.02282,0.20774
5005.09407,0.20800
5003.16533,0.20840
5001.23658,0.20881
4999.30784,0.20922
4997.37909,0.20967
4995.45035,0.21031
4993.52160,0.21123
4991.59286,0.21187
4989.66411,0.21177
4987.73536,0.21140
4985.80662,0.21156
4983.87787,0.21215
4981.94913,0.21235
4980.02038,0.21216
4978.09164,0.21210
4976.16289,0.21189
4974.23415,0.21149
4972.30540,0.21149
4970.37666,0.21162
4968.44791,0.21144
4966.51917,0.21113
4964.59042,0.21094
4962.66168,0.21090
4960.73293,0.21089
4958.80418,0.21068
4956.87544,0.21027
4954.94669,0.20977
4953.01795,0.20912
4951.08920,0.20858
4949.16046,0.20846
4947.23171,0.20821
4945.30297,0.20739
4943.37422,0.20637
4941.44548,0.20565
4939.51673,0.20539
4937.58799,0.20513
4935.65924,0.20429
4933.73050,0.20309
4931.80175,0.20215
4929.87301,0.20114
4927.94426,0.19971
4926.01551,0.19869
4924.08677,0.19850
4922.15802,0.19832
4920.22928,0.19761
4918.30053,0.19646
4916.37179,0.19502
4914.44304,0.19353
4912.51430,0.19219
4910.58555,0.19065
4908.65681,0.18893
4906.72806,0.18757
4904.79932,0.18622
4902.87057,0.18455
4900.94183,0.18364
4899.01308,0.18372
4897.08434,0.18326
4895.15559,0.18186
4893.22684,0.18072
4891.29810,0.18009
4889.36935,0.17920
4887.44061,0.17781
4885.51186,0.17631
4883.58312,0.17496
4881.65437,0.17384
4879.72563,0.17269
4877.79688,0.17132
4875.86814,0.17031
4873.93939,0.16988
4872.01065,0.16966
4870.08190,0.16969
4868.15316,0.16984
4866.22441,0.16950
4864.29566,0.16872
4862.36692,0.16833
4860.43817,0.16853
4858.50943,0.16874
4856.58068,0.16898
4854.65194,0.16971
4852.72319,0.17082
4850.79445,0.17177
4848.86570,0.17258
4846.93696,0.17373
4845.00821,0.17503
4843.07947,0.17642
4841.15072,0.17803
4839.22198,0.17937
4837.29323,0.18005
4835.36449,0.18051
4833.43574,0.18142
4831.50699,0.18318
4829.57825,0.18551
4827.64950,0.18749
4825.72076,0.18866
4823.79201,0.18957
4821.86327,0.19074
4819.93452,0.19216
4818.00578,0.19382
4816.07703,0.19558
4814.14829,0.19687
4812.21954,0.19768
4810.29080,0.19873
4808.36205,0.20016
4806.43331,0.20177
4804.50456,0.20352
4802.57582,0.20507
4800.64707,0.20602
4798.71832,0.20661
4796.78958,0.20735
4794.86083,0.20830
4792.93209,0.20923
4791.00334,0.20999
4789.07460,0.21066
4787.14585,0.21140
4785.21711,0.21184
4783.28836,0.21160
4781.35962,0.21142
4779.43087,0.21199
4777.50213,0.21292
4775.57338,0.21362
4773.64464,0.21388
4771.71589,0.21407
4769.78714,0.21459
4767.85840,0.21490
4765.92965,0.21480
4764.00091,0.21501
4762.07216,0.21577
4760.14342,0.21635
4758.21467,0.21618
4756.28593,0.21555
4754.35718,0.21521
4752.42844,0.21530
4750.49969,0.21539
4748.57095,0.21526
4746.64220,0.21488
4744.71346,0.21445
4742.78471,0.21425
4740.85597,0.21417
4738.92722,0.21397
4736.99847,0.21362
4735.06973,0.21318
4733.14098,0.21299
4731.21224,0.21316
4729.28349,0.21311
4727.35475,0.21247
4725.42600,0.21167
4723.49726,0.21097
4721.56851,0.21024
4719.63977,0.20956
4717.71102,0.20886
4715.78228,0.20810
4713.85353,0.20752
4711.92479,0.20705
4709.99604,0.20628
4708.06729,0.20521
4706.13855,0.20445
4704.20980,0.20416
4702.28106,0.20355
4700.35231,0.20234
4698.42357,0.20105
4696.49482,0.19994
4694.56608,0.19872
4692.63733,0.19719
4690.70859,0.19544
4688.77984,0.19375
4686.85110,0.19233
4684.92235,0.19105
4682.99361,0.18982
4681.06486,0.18889
4679.13612,0.18824
4677.20737,0.18728
4675.27862,0.18566
4673.34988,0.18404
4671.42113,0.18290
4669.49239,0.18181
4667.56364,0.18052
4665.63490,0.17919
4663.70615,0.17775
4661.77741,0.17625
4659.84866,0.17498
4657.91992,0.17382
4655.99117,0.17254
4654.06243,0.17116
4652.13368,0.16951
4650.20494,0.16754
4648.27619,0.16579
4646.34745,0.16458
4644.41870,0.16359
4642.48995,0.16234
4640.56121,0.16066
4638.63246,0.15907
4636.70372,0.15795
4634.77497,0.15684
4632.84623,0.15562
4630.91748,0.15461
4628.98874,0.15352
4627.05999,0.15227
4625.13125,0.15132
4623.20250,0.15063
4621.27376,0.14986
4619.34501,0.14891
4617.41627,0.14792
4615.48752,0.14703
4613.55877,0.14646
4611.63003,0.14624
4609.70128,0.14615
4607.77254,0.14598
4605.84379,0.14571
4603.91505,0.14552
4601.98630,0.14558
4600.05756,0.14549
4598.12881,0.14499
4596.20007,0.14468
4594.27132,0.14496
4592.34258,0.14526
4590.41383,0.14516
4588.48509,0.14493
4586.55634,0.14482
4584.62760,0.14499
4582.69885,0.14545
4580.77010,0.14606
4578.84136,0.14678
4576.91261,0.14752
4574.98387,0.14790
4573.05512,0.14783
4571.12638,0.14775
4569.19763,0.14806
4567.26889,0.14864
4565.34014,0.14930
4563.41140,0.14999
4561.48265,0.15053
4559.55391,0.15077
4557.62516,0.15118
4555.69642,0.15211
4553.76767,0.15281
4551.83893,0.15298
4549.91018,0.15328
4547.98143,0.15394
4546.05269,0.15467
4544.12394,0.15532
4542.19520,0.15602
4540.26645,0.15705
4538.33771,0.15798
4536.40896,0.15830
4534.48022,0.15855
4532.55147,0.15901
4530.62273,0.15920
4528.69398,0.15946
4526.76524,0.16022
4524.83649,0.16118
4522.90775,0.16220
4520.97900,0.16292
4519.05025,0.16303
4517.12151,0.16328
4515.19276,0.16411
4513.26402,0.16500
4511.33527,0.16587
4509.40653,0.16682
4507.47778,0.16739
4505.54904,0.16766
4503.62029,0.16818
4501.69155,0.16903
4499.76280,0.17008
4497.83406,0.17102
4495.90531,0.17163
4493.97657,0.17208
4492.04782,0.17217
4490.11908,0.17215
4488.19033,0.17287
4486.26158,0.17387
4484.33284,0.17437
4482.40409,0.17484
4480.47535,0.17543
4478.54660,0.17553
4476.61786,0.17535
4474.68911,0.17529
4472.76037,0.17512
4470.83162,0.17489
4468.90288,0.17487
4466.97413,0.17477
4465.04539,0.17432
4463.11664,0.17363
4461.18790,0.17284
4459.25915,0.17198
4457.33041,0.17107
4455.40166,0.17007
4453.47291,0.16911
4451.54417,0.16843
4449.61542,0.16786
4447.68668,0.16699
4445.75793,0.16567
4443.82919,0.16433
4441.90044,0.16324
4439.97170,0.16196
4438.04295,0.16014
4436.11421,0.15836
4434.18546,0.15708
4432.25672,0.15604
4430.32797,0.15490
4428.39923,0.15348
4426.47048,0.15192
4424.54173,0.15060
4422.61299,0.14942
4420.68424,0.14802
4418.75550,0.14670
4416.82675,0.14592
4414.89801,0.14524
4412.96926,0.14429
4411.04052,0.14325
4409.11177,0.14245
4407.18303,0.14195
4405.25428,0.14145
4403.32554,0.14085
4401.39679,0.14018
4399.46805,0.13931
4397.53930,0.13830
4395.61056,0.13745
4393.68181,0.13696
4391.75306,0.13681
4389.82432,0.13679
4387.89557,0.13660
4385.96683,0.13623
4384.03808,0.13579
4382.10934,0.13494
4380.18059,0.13391
4378.25185,0.13342
4376.32310,0.13334
4374.39436,0.13325
4372.46561,0.13311
4370.53687,0.13290
4368.60812,0.13290
4366.67938,0.13313
4364.75063,0.13279
4362.82189,0.13191
4360.89314,0.13166
4358.96439,0.13209
4357.03565,0.13230
4355.10690,0.13225
4353.17816,0.13239
4351.24941,0.13285
4349.32067,0.13347
4347.39192,0.13398
4345.46318,0.13439
4343.53443,0.13486
4341.60569,0.13517
4339.67694,0.13532
4337.74820,0.13586
4335.81945,0.13663
4333.89071,0.13682
4331.96196,0.13673
4330.03321,0.13696
4328.10447,0.13728
4326.17572,0.13754
4324.24698,0.13792
4322.31823,0.13830
4320.38949,0.13845
4318.46074,0.13867
4316.53200,0.13947
4314.60325,0.14038
4312.67451,0.14080
4310.74576,0.14103
4308.81702,0.14118
4306.88827,0.14119
4304.95953,0.14156
4303.03078,0.14230
4301.10204,0.14269
4299.17329,0.14259
4297.24454,0.14229
4295.31580,0.14184
4293.38705,0.14148
4291.45831,0.14155
4289.52956,0.14171
4287.60082,0.14149
4285.67207,0.14115
4283.74333,0.14099
4281.81458,0.14087
4279.88584,0.14060
4277.95709,0.14023
4276.02835,0.14005
4274.09960,0.13993
4272.17086,0.13954
4270.24211,0.13895
4268.31336,0.13831
4266.38462,0.13790
4264.45587,0.13796
4262.52713,0.13828
4260.59838,0.13851
4258.66964,0.13855
4256.74089,0.13851
4254.81215,0.13837
4252.88340,0.13820
4250.95466,0.13844
4249.02591,0.13917
4247.09717,0.13996
4245.16842,0.14052
4243.23968,0.14070
4241.31093,0.14078
4239.38219,0.14113
4237.45344,0.14163
4235.52469,0.14211
4233.59595,0.14242
4231.66720,0.14256
4229.73846,0.14291
4227.80971,0.14346
4225.88097,0.14388
4223.95222,0.14426
4222.02348,0.14474
4220.09473,0.14515
4218.16599,0.14541
4216.23724,0.14572
4214.30850,0.14610
4212.37975,0.14646
4210.45101,0.14690
4208.52226,0.14741
4206.59352,0.14762
4204.66477,0.14749
4202.73602,0.14743
4200.80728,0.14756
4198.87853,0.14763
4196.94979,0.14776
4195.02104,0.14796
4193.09230,0.14792
4191.16355,0.14787
4189.23481,0.14825
4187.30606,0.14878
4185.37732,0.14896
4183.44857,0.14906
4181.51983,0.14934
4179.59108,0.14938
4177.66234,0.14919
4175.73359,0.14922
4173.80484,0.14931
4171.87610,0.14912
4169.94735,0.14888
4168.01861,0.14878
4166.08986,0.14882
4164.16112,0.14920
4162.23237,0.14983
4160.30363,0.15012
4158.37488,0.14982
4156.44614,0.14949
4154.51739,0.14950
4152.58865,0.14957
4150.65990,0.14944
4148.73116,0.14916
4146.80241,0.14874
4144.87367,0.14818
4142.94492,0.14769
4141.01617,0.14756
4139.08743,0.14754
4137.15868,0.14724
4135.22994,0.14678
4133.30119,0.14637
4131.37245,0.14615
4129.44370,0.14621
4127.51496,0.14630
4125.58621,0.14612
4123.65747,0.14569
4121.72872,0.14519
4119.79998,0.14485
4117.87123,0.14461
4115.94249,0.14416
4114.01374,0.14347
4112.08500,0.14285
4110.15625,0.14247
4108.22750,0.14211
4106.29876,0.14165
4104.37001,0.14107
4102.44127,0.14020
4100.51252,0.13905
4098.58378,0.13800
4096.65503,0.13712
4094.72629,0.13615
4092.79754,0.13508
4090.86880,0.13420
4088.94005,0.13366
4087.01131,0.13299
4085.08256,0.13189
4083.15382,0.13085
4081.22507,0.13003
4079.29632,0.12899
4077.36758,0.12778
4075.43883,0.12694
4073.51009,0.12654
4071.58134,0.12614
4069.65260,0.12571
4067.72385,0.12539
4065.79511,0.12478
4063.86636,0.12381
4061.93762,0.12320
4060.00887,0.12320
4058.08013,0.12315
4056.15138,0.12258
4054.22264,0.12183
4052.29389,0.12132
4050.36515,0.12125
4048.43640,0.12148
4046.50765,0.12156
4044.57891,0.12140
4042.65016,0.12130
4040.72142,0.12139
4038.79267,0.12168
4036.86393,0.12211
4034.93518,0.12232
4033.00644,0.12232
4031.07769,0.12241
4029.14895,0.12255
4027.22020,0.12272
4025.29146,0.12291
4023.36271,0.12301
4021.43397,0.12314
4019.50522,0.12334
4017.57648,0.12356
4015.64773,0.12390
4013.71898,0.12423
4011.79024,0.12428
4009.86149,0.12399
4007.93275,0.12379
4006.00400,0.12382
4004.07526,0.12366
4002.14651,0.12319
4000.21777,0.12263
3998.28902,0.12211
3996.36028,0.12199
3994.43153,0.12224
3992.50279,0.12219
3990.57404,0.12174
3988.64530,0.12152
3986.71655,0.12177
3984.78780,0.12204
3982.85906,0.12208
3980.93031,0.12193
3979.00157,0.12164
3977.07282,0.12125
3975.14408,0.12088
3973.21533,0.12063
3971.28659,0.12066
3969.35784,0.12102
3967.42910,0.12151
3965.50035,0.12165
3963.57161,0.12125
3961.64286,0.12052
3959.71412,0.11982
3957.78537,0.11938
3955.85663,0.11916
3953.92788,0.11908
3951.99913,0.11914
3950.07039,0.11920
3948.14164,0.11903
3946.21290,0.11867
3944.28415,0.11841
3942.35541,0.11833
3940.42666,0.11834
3938.49792,0.11842
3936.56917,0.11840
3934.64043,0.11824
3932.71168,0.11817
3930.78294,0.11844
3928.85419,0.11897
3926.92545,0.11947
3924.99670,0.11984
3923.06795,0.12011
3921.13921,0.12031
3919.21046,0.12049
3917.28172,0.12080
3915.35297,0.12138
3913.42423,0.12221
3911.49548,0.12318
3909.56674,0.12405
3907.63799,0.12470
3905.70925,0.12530
3903.78050,0.12608
3901.85176,0.12698
3899.92301,0.12783
3897.99427,0.12870
3896.06552,0.12965
3894.13678,0.13049
3892.20803,0.13124
3890.27928,0.13215
3888.35054,0.13310
3886.42179,0.13369
3884.49305,0.13400
3882.56430,0.13441
3880.63556,0.13502
3878.70681,0.13570
3876.77807,0.13651
3874.84932,0.13736
3872.92058,0.13790
3870.99183,0.13819
3869.06309,0.13867
3867.13434,0.13925
3865.20560,0.13956
3863.27685,0.13975
3861.34811,0.14017
3859.41936,0.14088
3857.49061,0.14153
3855.56187,0.14177
3853.63312,0.14177
3851.70438,0.14196
3849.77563,0.14242
3847.84689,0.14310
3845.91814,0.14387
3843.98940,0.14433
3842.06065,0.14430
3840.13191,0.14417
3838.20316,0.14422
3836.27442,0.14436
3834.34567,0.14445
3832.41693,0.14454
3830.48818,0.14474
3828.55943,0.14509
3826.63069,0.14542
3824.70194,0.14558
3822.77320,0.14555
3820.84445,0.14548
3818.91571,0.14557
3816.98696,0.14573
3815.05822,0.14579
3813.12947,0.14579
3811.20073,0.14575
3809.27198,0.14571
3807.34324,0.14572
3805.41449,0.14576
3803.48575,0.14583
3801.55700,0.14592
3799.62826,0.14590
3797.69951,0.14581
3795.77076,0.14566
3793.84202,0.14535
3791.91327,0.14483
3789.98453,0.14420
3788.05578,0.14364
3786.12704,0.14345
3784.19829,0.14358
3782.26955,0.14356
3780.34080,0.14320
3778.41206,0.14269
3776.48331,0.14219
3774.55457,0.14162
3772.62582,0.14107
3770.69708,0.14067
3768.76833,0.14024
3766.83959,0.13965
3764.91084,0.13891
3762.98209,0.13816
3761.05335,0.13760
3759.12460,0.13711
3757.19586,0.13654
3755.26711,0.13593
3753.33837,0.13510
3751.40962,0.13395
3749.48088,0.13285
3747.55213,0.13214
3745.62339,0.13151
3743.69464,0.13047
3741.76590,0.12916
3739.83715,0.12804
3737.90841,0.12708
3735.97966,0.12600
3734.05091,0.12485
3732.12217,0.12374
3730.19342,0.12263
3728.26468,0.12151
3726.33593,0.12049
3724.40719,0.11949
3722.47844,0.11837
3720.54970,0.11713
3718.62095,0.11561
3716.69221,0.11368
3714.76346,0.11160
3712.83472,0.10964
3710.90597,0.10782
3708.97723,0.10591
3707.04848,0.10366
3705.11974,0.10115
3703.19099,0.09871
3701.26224,0.09632
3699.33350,0.09388
3697.40475,0.09138
3695.47601,0.08888
3693.54726,0.08644
3691.61852,0.08383
3689.68977,0.08072
3687.76103,0.07734
3685.83228,0.07417
3683.90354,0.07112
3681.97479,0.06803
3680.04605,0.06514
3678.11730,0.06249
3676.18856,0.05976
3674.25981,0.05718
3672.33107,0.05505
3670.40232,0.05295
3668.47357,0.05066
3666.54483,0.04862
3664.61608,0.04697
3662.68734,0.04538
3660.75859,0.04375
3658.82985,0.04229
3656.90110,0.04099
3654.97236,0.03987
3653.04361,0.03876
3651.11487,0.03750
3649.18612,0.03638
3647.25738,0.03551
3645.32863,0.03459
3643.39989,0.03357
3641.47114,0.03260
3639.54239,0.03193
3637.61365,0.03137
3635.68490,0.03054
3633.75616,0.02969
3631.82741,0.02922
3629.89867,0.02882
3627.96992,0.02814
3626.04118,0.02760
3624.11243,0.02725
3622.18369,0.02674
3620.25494,0.02628
3618.32620,0.02608
3616.39745,0.02587
3614.46871,0.02555
3612.53996,0.02525
3610.61122,0.02502
3608.68247,0.02481
3606.75372,0.02450
3604.82498,0.02420
3602.89623,0.02425
3600.96749,0.02436
3599.03874,0.02404
3597.11000,0.02347
3595.18125,0.02317
3593.25251,0.02303
3591.32376,0.02273
3589.39502,0.02257
3587.46627,0.02262
3585.53753,0.02245
3583.60878,0.02210
3581.68004,0.02184
3579.75129,0.02167
3577.82254,0.02139
3575.89380,0.02095
3573.96505,0.02070
3572.03631,0.02072
3570.10756,0.02077
3568.17882,0.02069
3566.25007,0.02050
3564.32133,0.02027
3562.39258,0.02026
3560.46384,0.02044
3558.53509,0.02059
3556.60635,0.02060
3554.67760,0.02047
3552.74886,0.02035
3550.82011,0.02037
3548.89137,0.02040
3546.96262,0.02022
3545.03387,0.02002
3543.10513,0.02011
3541.17638,0.02034
3539.24764,0.02031
3537.31889,0.01998
3535.39015,0.01960
3533.46140,0.01935
3531.53266,0.01939
3529.60391,0.01946
3527.67517,0.01919
3525.74642,0.01898
3523.81768,0.01914
3521.88893,0.01923
3519.96019,0.01919
3518.03144,0.01926
3516.10270,0.01941
3514.17395,0.01948
3512.24520,0.01932
3510.31646,0.01905
3508.38771,0.01888
3506.45897,0.01887
3504.53022,0.01895
3502.60148,0.01879
3500.67273,0.01851
3498.74399,0.01855
3496.81524,0.01862
3494.88650,0.01839
3492.95775,0.01812
3491.02901,0.01800
3489.10026,0.01795
3487.17152,0.01785
3485.24277,0.01787
3483.31402,0.01819
3481.38528,0.01863
3479.45653,0.01888
3477.52779,0.01890
3475.59904,0.01875
3473.67030,0.01856
3471.74155,0.01871
3469.81281,0.01906
3467.88406,0.01907
3465.95532,0.01864
3464.02657,0.01816
3462.09783,0.01801
3460.16908,0.01806
3458.24034,0.01794
3456.31159,0.01783
3454.38285,0.01791
3452.45410,0.01820
3450.52535,0.01879
3448.59661,0.01932
3446.66786,0.01928
3444.73912,0.01885
3442.81037,0.01835
3440.88163,0.01778
3438.95288,0.01732
3437.02414,0.01724
3435.09539,0.01740
3433.16665,0.01761
3431.23790,0.01767
3429.30916,0.01752
3427.38041,0.01732
3425.45167,0.01710
3423.52292,0.01687
3421.59418,0.01688
3419.66543,0.01713
3417.73668,0.01738
3415.80794,0.01744
3413.87919,0.01738
3411.95045,0.01754
3410.02170,0.01774
3408.09296,0.01761
3406.16421,0.01749
3404.23547,0.01764
3402.30672,0.01763
3400.37798,0.01725
3398.44923,0.01687
3396.52049,0.01695
3394.59174,0.01737
3392.66300,0.01779
3390.73425,0.01815
3388.80550,0.01818
3386.87676,0.01769
3384.94801,0.01721
3383.01927,0.01726
3381.09052,0.01769
3379.16178,0.01795
3377.23303,0.01783
3375.30429,0.01762
3373.37554,0.01738
3371.44680,0.01710
3369.51805,0.01686
3367.58931,0.01670
3365.66056,0.01682
3363.73182,0.01723
3361.80307,0.01740
3359.87433,0.01713
3357.94558,0.01687
3356.01683,0.01686
3354.08809,0.01714
3352.15934,0.01755
3350.23060,0.01784
3348.30185,0.01802
3346.37311,0.01811
3344.44436,0.01811
3342.51562,0.01805
3340.58687,0.01810
3338.65813,0.01822
3336.72938,0.01801
3334.80064,0.01759
3332.87189,0.01740
3330.94315,0.01741
3329.01440,0.01737
3327.08566,0.01733
3325.15691,0.01734
3323.22816,0.01747
3321.29942,0.01771
3319.37067,0.01767
3317.44193,0.01732
3315.51318,0.01700
3313.58444,0.01684
3311.65569,0.01687
3309.72695,0.01697
3307.79820,0.01700
3305.86946,0.01712
3303.94071,0.01732
3302.01197,0.01744
3300.08322,0.01741
3298.15448,0.01724
3296.22573,0.01709
3294.29698,0.01711
3292.36824,0.01728
3290.43949,0.01756
3288.51075,0.01773
3286.58200,0.01748
3284.65326,0.01720
3282.72451,0.01742
3280.79577,0.01777
3278.86702,0.01792
3276.93828,0.01803
3275.00953,0.01794
3273.08079,0.01760
3271.15204,0.01732
3269.22330,0.01718
3267.29455,0.01708
3265.36581,0.01692
3263.43706,0.01676
3261.50831,0.01687
3259.57957,0.01734
3257.65082,0.01779
3255.72208,0.01783
3253.79333,0.01757
3251.86459,0.01737
3249.93584,0.01727
3248.00710,0.01711
3246.07835,0.01705
3244.14961,0.01730
3242.22086,0.01760
3240.29212,0.01770
3238.36337,0.01792
3236.43463,0.01829
3234.50588,0.01850
3232.57713,0.01837
3230.64839,0.01784
3228.71964,0.01716
3226.79090,0.01689
3224.86215,0.01711
3222.93341,0.01756
3221.00466,0.01804
3219.07592,0.01818
3217.14717,0.01794
3215.21843,0.01789
3213.28968,0.01816
3211.36094,0.01841
3209.43219,0.01852
3207.50345,0.01841
3205.57470,0.01811
3203.64596,0.01790
3201.71721,0.01794
3199.78846,0.01808
3197.85972,0.01826
3195.93097,0.01860
3194.00223,0.01889
3192.07348,0.01879
3190.14474,0.01856
3188.21599,0.01852
3186.28725,0.01848
3184.35850,0.01839
3182.42976,0.01834
3180.50101,0.01823
3178.57227,0.01817
3176.64352,0.01824
3174.71478,0.01830
3172.78603,0.01846
3170.85729,0.01867
3168.92854,0.01858
3166.99979,0.01828
3165.07105,0.01817
3163.14230,0.01822
3161.21356,0.01824
3159.28481,0.01830
3157.35607,0.01844
3155.42732,0.01854
3153.49858,0.01865
3151.56983,0.01885
3149.64109,0.01886
3147.71234,0.01853
3145.78360,0.01833
3143.85485,0.01850
3141.92611,0.01870
3139.99736,0.01864
3138.06861,0.01840
3136.13987,0.01823
3134.21112,0.01822
3132.28238,0.01835
3130.35363,0.01860
3128.42489,0.01896
3126.49614,0.01935
3124.56740,0.01966
3122.63865,0.01970
3120.70991,0.01949
3118.78116,0.01929
3116.85242,0.01921
3114.92367,0.01907
3112.99493,0.01884
3111.06618,0.01877
3109.13744,0.01889
3107.20869,0.01902
3105.27994,0.01912
3103.35120,0.01907
3101.42245,0.01872
3099.49371,0.01825
3097.56496,0.01795
3095.63622,0.01800
3093.70747,0.01834
3091.77873,0.01874
3089.84998,0.01883
3087.92124,0.01862
3085.99249,0.01854
3084.06375,0.01863
3082.13500,0.01864
3080.20626,0.01856
3078.27751,0.01858
3076.34877,0.01879
3074.42002,0.01906
3072.49127,0.01923
3070.56253,0.01928
3068.63378,0.01927
3066.70504,0.01920
3064.77629,0.01903
3062.84755,0.01885
3060.91880,0.01880
3058.99006,0.01890
3057.06131,0.01908
3055.13257,0.01933
3053.20382,0.01948
3051.27508,0.01943
3049.34633,0.01935
3047.41759,0.01934
3045.48884,0.01934
3043.56009,0.01931
3041.63135,0.01920
3039.70260,0.01905
3037.77386,0.01891
3035.84511,0.01878
3033.91637,0.01875
3031.98762,0.01877
3030.05888,0.01882
3028.13013,0.01892
3026.20139,0.01899
3024.27264,0.01907
3022.34390,0.01932
3020.41515,0.01961
3018.48641,0.01963
3016.55766,0.01937
3014.62892,0.01919
3012.70017,0.01938
3010.77142,0.01967
3008.84268,0.01970
3006.91393,0.01945
3004.98519,0.01929
3003.05644,0.01943
3001.12770,0.01951
2999.19895,0.01927
2997.27021,0.01900
2995.34146,0.01889
2993.41272,0.01879
2991.48397,0.01874
2989.55523,0.01888
2987.62648,0.01899
2985.69774,0.01890
2983.76899,0.01880
2981.84025,0.01876
2979.91150,0.01858
2977.98275,0.01826
2976.05401,0.01802
2974.12526,0.01800
2972.19652,0.01811
2970.26777,0.01818
2968.33903,0.01805
2966.41028,0.01781
2964.48154,0.01783
2962.55279,0.01804
2960.62405,0.01794
2958.69530,0.01753
2956.76656,0.01726
2954.83781,0.01732
2952.90907,0.01755
2950.98032,0.01787
2949.05157,0.01813
2947.12283,0.01809
2945.19408,0.01789
2943.26534,0.01778
2941.33659,0.01770
2939.40785,0.01767
2937.47910,0.01780
2935.55036,0.01796
2933.62161,0.01802
2931.69287,0.01791
2929.76412,0.01787
2927.83538,0.01809
2925.90663,0.01821
2923.97789,0.01808
2922.04914,0.01803
2920.12040,0.01826
2918.19165,0.01850
2916.26290,0.01841
2914.33416,0.01825
2912.40541,0.01833
2910.47667,0.01844
2908.54792,0.01846
2906.61918,0.01859
2904.69043,0.01880
2902.76169,0.01891
2900.83294,0.01905
2898.90420,0.01942
2896.97545,0.01978
2895.04671,0.01985
2893.11796,0.01979
2891.18922,0.01965
2889.26047,0.01938
2887.33172,0.01909
2885.40298,0.01888
2883.47423,0.01877
2881.54549,0.01879
2879.61674,0.01893
2877.68800,0.01908
2875.75925,0.01903
2873.83051,0.01893
2871.90176,0.01899
2869.97302,0.01915
2868.04427,0.01929
2866.11553,0.01947
2864.18678,0.01979
2862.25804,0.02008
2860.32929,0.02010
2858.40055,0.01996
2856.47180,0.01995
2854.54305,0.02004
2852.61431,0.02012
2850.68556,0.02023
2848.75682,0.02037
2846.82807,0.02053
2844.89933,0.02088
2842.97058,0.02134
2841.04184,0.02169
2839.11309,0.02194
2837.18435,0.02207
2835.25560,0.02195
2833.32686,0.02182
2831.39811,0.02195
2829.46937,0.02223
2827.54062,0.02250
2825.61188,0.02276
2823.68313,0.02291
2821.75438,0.02296
2819.82564,0.02295
2817.89689,0.02279
2815.96815,0.02267
2814.03940,0.02280
2812.11066,0.02304
2810.18191,0.02319
2808.25317,0.02314
2806.32442,0.02297
2804.39568,0.02305
2802.46693,0.02338
2800.53819,0.02361
2798.60944,0.02363
2796.68070,0.02353
2794.75195,0.02334
2792.82320,0.02335
2790.89446,0.02369
2788.96571,0.02410
2787.03697,0.02434
2785.10822,0.02442
2783.17948,0.02449
2781.25073,0.02442
2779.32199,0.02421
2777.39324,0.02422
2775.46450,0.02456
2773.53575,0.02491
2771.60701,0.02508
2769.67826,0.02517
2767.74952,0.02519
2765.82077,0.02516
2763.89203,0.02522
2761.96328,0.02529
2760.03453,0.02531
2758.10579,0.02543
2756.17704,0.02567
2754.24830,0.02583
2752.31955,0.02579
2750.39081,0.02572
2748.46206,0.02574
2746.53332,0.02596
2744.60457,0.02635
2742.67583,0.02670
2740.74708,0.02688
2738.81834,0.02699
2736.88959,0.02713
2734.96085,0.02726
2733.03210,0.02731
2731.10336,0.02745
2729.17461,0.02762
2727.24586,0.02766
2725.31712,0.02763
2723.38837,0.02774
2721.45963,0.02803
2719.53088,0.02836
2717.60214,0.02853
2715.67339,0.02856
2713.74465,0.02858
2711.81590,0.02872
2709.88716,0.02900
2707.95841,0.02916
2706.02967,0.02923
2704.10092,0.02947
2702.17218,0.02980
2700.24343,0.02992
2698.31468,0.02985
2696.38594,0.02997
2694.45719,0.03033
2692.52845,0.03052
2690.59970,0.03041
2688.67096,0.03021
2686.74221,0.03021
2684.81347,0.03044
2682.88472,0.03076
2680.95598,0.03102
2679.02723,0.03103
2677.09849,0.03086
2675.16974,0.03080
2673.24100,0.03085
2671.31225,0.03090
2669.38351,0.03096
2667.45476,0.03098
2665.52601,0.03107
2663.59727,0.03142
2661.66852,0.03181
2659.73978,0.03194
2657.81103,0.03200
2655.88229,0.03206
2653.95354,0.03197
2652.02480,0.03188
2650.09605,0.03193
2648.16731,0.03199
2646.23856,0.03205
2644.30982,0.03224
2642.38107,0.03248
2640.45233,0.03258
2638.52358,0.03250
2636.59484,0.03249
2634.66609,0.03269
2632.73734,0.03284
2630.80860,0.03287
2628.87985,0.03298
2626.95111,0.03329
2625.02236,0.03366
2623.09362,0.03397
2621.16487,0.03415
2619.23613,0.03426
2617.30738,0.03435
2615.37864,0.03436
2613.44989,0.03425
2611.52115,0.03411
2609.59240,0.03417
2607.66366,0.03447
2605.73491,0.03476
2603.80616,0.03481
2601.87742,0.03486
2599.94867,0.03512
2598.01993,0.03543
2596.09118,0.03576
2594.16244,0.03602
2592.23369,0.03605
2590.30495,0.03604
2588.37620,0.03617
2586.44746,0.03636
2584.51871,0.03651
2582.58997,0.03664
2580.66122,0.03679
2578.73248,0.03695
2576.80373,0.03717
2574.87499,0.03747
2572.94624,0.03767
2571.01749,0.03773
2569.08875,0.03780
2567.16000,0.03791
2565.23126,0.03806
2563.30251,0.03823
2561.37377,0.03835
2559.44502,0.03848
2557.51628,0.03868
2555.58753,0.03887
2553.65879,0.03905
2551.73004,0.03919
2549.80130,0.03936
2547.87255,0.03957
2545.94381,0.03962
2544.01506,0.03954
2542.08631,0.03964
2540.15757,0.03991
2538.22882,0.04014
2536.30008,0.04024
2534.37133,0.04022
2532.44259,0.04022
2530.51384,0.04035
2528.58510,0.04059
2526.65635,0.04083
2524.72761,0.04099
2522.79886,0.04109
2520.87012,0.04120
2518.94137,0.04142
2517.01263,0.04167
2515.08388,0.04186
2513.15514,0.04209
2511.22639,0.04231
2509.29764,0.04241
2507.36890,0.04255
2505.44015,0.04267
2503.51141,0.04258
2501.58266,0.04247
2499.65392,0.04256
2497.72517,0.04274
2495.79643,0.04289
2493.86768,0.04307
2491.93894,0.04324
2490.01019,0.04331
2488.08145,0.04334
2486.15270,0.04350
2484.22396,0.04382
2482.29521,0.04419
2480.36647,0.04456
2478.43772,0.04489
2476.50897,0.04500
2474.58023,0.04498
2472.65148,0.04510
2470.72274,0.04541
2468.79399,0.04578
2466.86525,0.04614
2464.93650,0.04639
2463.00776,0.04650
2461.07901,0.04650
2459.15027,0.04658
2457.22152,0.04692
2455.29278,0.04739
2453.36403,0.04778
2451.43529,0.04798
2449.50654,0.04803
2447.57779,0.04806
2445.64905,0.04815
2443.72030,0.04840
2441.79156,0.04886
2439.86281,0.04911
2437.93407,0.04901
2436.00532,0.04898
2434.07658,0.04913
2432.14783,0.04932
2430.21909,0.04960
2428.29034,0.04997
2426.36160,0.05029
2424.43285,0.05062
2422.50411,0.05100
2420.57536,0.05122
2418.64662,0.05120
2416.71787,0.05119
2414.78912,0.05136
2412.86038,0.05161
2410.93163,0.05181
2409.00289,0.05206
2407.07414,0.05229
2405.14540,0.05243
2403.21665,0.05265
2401.28791,0.05297
2399.35916,0.05318
2397.43042,0.05334
2395.50167,0.05363
2393.57293,0.05392
2391.64418,0.05394
2389.71544,0.05385
2387.78669,0.05397
2385.85795,0.05428
2383.92920,0.05455
2382.00045,0.05469
2380.07171,0.05481
2378.14296,0.05498
2376.21422,0.05513
2374.28547,0.05533
2372.35673,0.05564
2370.42798,0.05594
2368.49924,0.05606
2366.57049,0.05608
2364.64175,0.05615
2362.71300,0.05624
2360.78426,0.05632
2358.85551,0.05650
2356.92677,0.05663
2354.99802,0.05665
2353.06927,0.05670
2351.14053,0.05678
2349.21178,0.05677
2347.28304,0.05666
2345.35429,0.05654
2343.42555,0.05650
2341.49680,0.05661
2339.56806,0.05680
2337.63931,0.05708
2335.71057,0.05741
2333.78182,0.05751
2331.85308,0.05741
2329.92433,0.05746
2327.99559,0.05767
2326.06684,0.05773
2324.13810,0.05762
2322.20935,0.05751
2320.28060,0.05735
2318.35186,0.05727
2316.42311,0.05743
2314.49437,0.05764
2312.56562,0.05772
2310.63688,0.05772
2308.70813,0.05782
2306.77939,0.05803
2304.85064,0.05819
2302.92190,0.05815
2300.99315,0.05803
2299.06441,0.05796
2297.13566,0.05803
2295.20692,0.05809
2293.27817,0.05797
2291.34943,0.05788
2289.42068,0.05796
2287.49193,0.05813
2285.56319,0.05831
2283.63444,0.05838
2281.70570,0.05830
2279.77695,0.05829
2277.84821,0.05844
2275.91946,0.05856
2273.99072,0.05853
2272.06197,0.05844
2270.13323,0.05840
2268.20448,0.05839
2266.27574,0.05836
2264.34699,0.05836
2262.41825,0.05845
2260.48950,0.05852
2258.56075,0.05849
2256.63201,0.05844
2254.70326,0.05836
2252.77452,0.05815
2250.84577,0.05801
2248.91703,0.05807
2246.98828,0.05810
2245.05954,0.05797
2243.13079,0.05788
2241.20205,0.05789
2239.27330,0.05784
2237.34456,0.05764
2235.41581,0.05744
2233.48707,0.05744
2231.55832,0.05751
2229.62958,0.05749
2227.70083,0.05742
2225.77208,0.05732
2223.84334,0.05726
2221.91459,0.05737
2219.98585,0.05740
2218.05710,0.05724
2216.12836,0.05712
2214.19961,0.05711
2212.27087,0.05712
2210.34212,0.05714
2208.41338,0.05701
2206.48463,0.05669
2204.55589,0.05664
2202.62714,0.05701
2200.69840,0.05738
2198.76965,0.05748
2196.84090,0.05735
2194.91216,0.05716
2192.98341,0.05702
2191.05467,0.05694
2189.12592,0.05692
2187.19718,0.05697
2185.26843,0.05704
2183.33969,0.05703
2181.41094,0.05693
2179.48220,0.05683
2177.55345,0.05677
2175.62471,0.05681
2173.69596,0.05683
2171.76722,0.05672
2169.83847,0.05657
2167.90973,0.05657
2165.98098,0.05672
2164.05223,0.05687
2162.12349,0.05686
2160.19474,0.05669
2158.26600,0.05660
2156.33725,0.05664
2154.40851,0.05671
2152.47976,0.05676
2150.55102,0.05670
2148.62227,0.05653
2146.69353,0.05641
2144.76478,0.05636
2142.83604,0.05631
2140.90729,0.05626
2138.97855,0.05628
2137.04980,0.05630
2135.12106,0.05620
2133.19231,0.05604
2131.26356,0.05601
2129.33482,0.05607
2127.40607,0.05614
2125.47733,0.05613
2123.54858,0.05599
2121.61984,0.05580
2119.69109,0.05578
2117.76235,0.05586
2115.83360,0.05593
2113.90486,0.05609
2111.97611,0.05625
2110.04737,0.05624
2108.11862,0.05617
2106.18988,0.05614
2104.26113,0.05606
2102.33238,0.05593
2100.40364,0.05589
2098.47489,0.05609
2096.54615,0.05635
2094.61740,0.05648
2092.68866,0.05646
2090.75991,0.05645
2088.83117,0.05654
2086.90242,0.05659
2084.97368,0.05649
2083.04493,0.05646
2081.11619,0.05669
2079.18744,0.05705
2077.25870,0.05725
2075.32995,0.05716
2073.40121,0.05711
2071.47246,0.05744
2069.54371,0.05778
2067.61497,0.05797
2065.68622,0.05821
2063.75748,0.05847
2061.82873,0.05850
2059.89999,0.05831
2057.97124,0.05825
2056.04250,0.05844
2054.11375,0.05872
2052.18501,0.05898
2050.25626,0.05911
2048.32752,0.05915
2046.39877,0.05938
2044.47003,0.05983
2042.54128,0.06014
2040.61254,0.06011
2038.68379,0.05999
2036.75504,0.06000
2034.82630,0.06009
2032.89755,0.06028
2030.96881,0.06054
2029.04006,0.06078
2027.11132,0.06093
2025.18257,0.06088
2023.25383,0.06079
2021.32508,0.06086
2019.39634,0.06100
2017.46759,0.06102
2015.53885,0.06098
2013.61010,0.06113
2011.68136,0.06143
2009.75261,0.06163
2007.82386,0.06173
2005.89512,0.06195
2003.96637,0.06215
2002.03763,0.06215
2000.10888,0.06208
1998.18014,0.06210
1996.25139,0.06216
1994.32265,0.06227
1992.39390,0.06239
1990.46516,0.06251
1988.53641,0.06265
1986.60767,0.06271
1984.67892,0.06260
1982.75018,0.06248
1980.82143,0.06254
1978.89269,0.06271
1976.96394,0.06274
1975.03519,0.06267
1973.10645,0.06267
1971.17770,0.06263
1969.24896,0.06250
1967.32021,0.06246
1965.39147,0.06253
1963.46272,0.06254
1961.53398,0.06257
1959.60523,0.06273
1957.67649,0.06289
1955.74774,0.06289
1953.81900,0.06278
1951.89025,0.06266
1949.96151,0.06264
1948.03276,0.06269
1946.10402,0.06278
1944.17527,0.06302
1942.24652,0.06329
1940.31778,0.06331
1938.38903,0.06308
1936.46029,0.06291
1934.53154,0.06291
1932.60280,0.06294
1930.67405,0.06296
1928.74531,0.06307
1926.81656,0.06318
1924.88782,0.06319
1922.95907,0.06306
1921.03033,0.06280
1919.10158,0.06253
1917.17284,0.06244
1915.24409,0.06239
1913.31534,0.06219
1911.38660,0.06196
1909.45785,0.06180
1907.52911,0.06168
1905.60036,0.06149
1903.67162,0.06119
1901.74287,0.06090
1899.81413,0.06074
1897.88538,0.06061
1895.95664,0.06033
1894.02789,0.05993
1892.09915,0.05959
1890.17040,0.05932
1888.24166,0.05909
1886.31291,0.05898
1884.38417,0.05895
1882.45542,0.05890
1880.52667,0.05884
1878.59793,0.05869
1876.66918,0.05840
1874.74044,0.05810
1872.81169,0.05794
1870.88295,0.05780
1868.95420,0.05766
1867.02546,0.05757
1865.09671,0.05744
1863.16797,0.05716
1861.23922,0.05683
1859.31048,0.05651
1857.38173,0.05621
1855.45299,0.05598
1853.52424,0.05570
1851.59549,0.05525
1849.66675,0.05478
1847.73800,0.05444
1845.80926,0.05416
1843.88051,0.05381
1841.95177,0.05340
1840.02302,0.05298
1838.09428,0.05253
1836.16553,0.05206
1834.23679,0.05159
1832.30804,0.05102
1830.37930,0.05038
1828.45055,0.04979
1826.52181,0.04935
1824.59306,0.04901
1822.66432,0.04868
1820.73557,0.04827
1818.80682,0.04778
1816.87808,0.04721
1814.94933,0.04657
1813.02059,0.04605
1811.09184,0.04557
1809.16310,0.04494
1807.23435,0.04429
1805.30561,0.04370
1803.37686,0.04313
1801.44812,0.04251
1799.51937,0.04176
1797.59063,0.04096
1795.66188,0.04039
1793.73314,0.04001
1791.80439,0.03959
1789.87565,0.03913
1787.94690,0.03869
1786.01815,0.03815
1784.08941,0.03749
1782.16066,0.03687
1780.23192,0.03625
1778.30317,0.03554
1776.37443,0.03478
1774.44568,0.03407
1772.51694,0.03341
1770.58819,0.03285
1768.65945,0.03232
1766.73070,0.03170
1764.80196,0.03104
1762.87321,0.03036
1760.94447,0.02954
1759.01572,0.02866
1757.08697,0.02779
1755.15823,0.02686
1753.22948,0.02593
1751.30074,0.02510
1749.37199,0.02438
1747.44325,0.02370
1745.51450,0.02301
1743.58576,0.02238
1741.65701,0.02186
1739.72827,0.02131
1737.79952,0.02069
1735.87078,0.02019
1733.94203,0.01978
1732.01329,0.01930
1730.08454,0.01888
1728.15580,0.01860
1726.22705,0.01831
1724.29830,0.01787
1722.36956,0.01734
1720.44081,0.01677
1718.51207,0.01626
1716.58332,0.01590
1714.65458,0.01560
1712.72583,0.01531
1710.79709,0.01507
1708.86834,0.01485
1706.93960,0.01453
1705.01085,0.01422
1703.08211,0.01406
1701.15336,0.01395
1699.22462,0.01382
1697.29587,0.01372
1695.36713,0.01366
1693.43838,0.01361
1691.50963,0.01349
1689.58089,0.01336
1687.65214,0.01336
1685.72340,0.01342
1683.79465,0.01346
1681.86591,0.01354
1679.93716,0.01361
1678.00842,0.01369
1676.07967,0.01383
1674.15093,0.01403
1672.22218,0.01412
1670.29344,0.01411
1668.36469,0.01425
1666.43595,0.01464
1664.50720,0.01511
1662.57845,0.01541
1660.64971,0.01556
1658.72096,0.01569
1656.79222,0.01586
1654.86347,0.01603
1652.93473,0.01628
1651.00598,0.01655
1649.07724,0.01681
1647.14849,0.01706
1645.21975,0.01726
1643.29100,0.01735
1641.36226,0.01742
1639.43351,0.01752
1637.50477,0.01764
1635.57602,0.01771
1633.64728,0.01767
1631.71853,0.01769
1629.78978,0.01789
1627.86104,0.01808
1625.93229,0.01809
1624.00355,0.01804
1622.07480,0.01804
1620.14606,0.01802
1618.21731,0.01792
1616.28857,0.01776
1614.35982,0.01767
1612.43108,0.01768
1610.50233,0.01763
1608.57359,0.01748
1606.64484,0.01735
1604.71610,0.01738
1602.78735,0.01748
1600.85861,0.01738
1598.92986,0.01718
1597.00111,0.01707
1595.07237,0.01703
1593.14362,0.01700
1591.21488,0.01694
1589.28613,0.01689
1587.35739,0.01683
1585.42864,0.01663
1583.49990,0.01643
1581.57115,0.01636
1579.64241,0.01634
1577.71366,0.01626
1575.78492,0.01610
1573.85617,0.01598
1571.92743,0.01597
1569.99868,0.01591
1568.06993,0.01582
1566.14119,0.01587
1564.21244,0.01594
1562.28370,0.01596
1560.35495,0.01604
1558.42621,0.01601
1556.49746,0.01565
1554.56872,0.01529
1552.63997,0.01527
1550.71123,0.01551
1548.78248,0.01580
1546.85374,0.01613
1544.92499,0.01648
1542.99625,0.01670
1541.06750,0.01681
1539.13876,0.01683
1537.21001,0.01687
1535.28126,0.01700
1533.35252,0.01710
1531.42377,0.01715
1529.49503,0.01723
1527.56628,0.01730
1525.63754,0.01728
1523.70879,0.01729
1521.78005,0.01744
1519.85130,0.01764
1517.92256,0.01779
1515.99381,0.01792
1514.06507,0.01800
1512.13632,0.01815
1510.20758,0.01835
1508.27883,0.01840
1506.35008,0.01831
1504.42134,0.01825
1502.49259,0.01825
1500.56385,0.01834
1498.63510,0.01846
1496.70636,0.01848
1494.77761,0.01847
1492.84887,0.01858
1490.92012,0.01871
1488.99138,0.01870
1487.06263,0.01858
1485.13389,0.01848
1483.20514,0.01840
1481.27640,0.01837
1479.34765,0.01832
1477.41891,0.01818
1475.49016,0.01792
1473.56141,0.01767
1471.63267,0.01757
1469.70392,0.01768
1467.77518,0.01779
1465.84643,0.01762
1463.91769,0.01733
1461.98894,0.01727
1460.06020,0.01741
1458.13145,0.01755
1456.20271,0.01767
1454.27396,0.01780
1452.34522,0.01781
1450.41647,0.01763
1448.48773,0.01750
1446.55898,0.01751
1444.63024,0.01756
1442.70149,0.01757
1440.77274,0.01756
1438.84400,0.01761
1436.91525,0.01765
1434.98651,0.01763
1433.05776,0.01758
1431.12902,0.01752
1429.20027,0.01751
1427.27153,0.01752
1425.34278,0.01756
1423.41404,0.01770
1421.48529,0.01783
1419.55655,0.01779
1417.62780,0.01757
1415.69906,0.01730
1413.77031,0.01714
1411.84156,0.01713
1409.91282,0.01722
1407.98407,0.01734
1406.05533,0.01737
1404.12658,0.01727
1402.19784,0.01723
1400.26909,0.01720
1398.34035,0.01711
1396.41160,0.01715
1394.48286,0.01723
1392.55411,0.01705
1390.62537,0.01681
1388.69662,0.01681
1386.76788,0.01692
1384.83913,0.01702
1382.91039,0.01722
1380.98164,0.01744
1379.05289,0.01739
1377.12415,0.01719
1375.19540,0.01710
1373.26666,0.01713
1371.33791,0.01715
1369.40917,0.01727
1367.48042,0.01759
1365.55168,0.01789
1363.62293,0.01782
1361.69419,0.01745
1359.76544,0.01721
1357.83670,0.01725
1355.90795,0.01731
1353.97921,0.01731
1352.05046,0.01738
1350.12172,0.01744
1348.19297,0.01744
1346.26422,0.01749
1344.33548,0.01758
1342.40673,0.01763
1340.47799,0.01766
1338.54924,0.01767
1336.62050,0.01764
1334.69175,0.01753
1332.76301,0.01734
1330.83426,0.01724
1328.90552,0.01735
1326.97677,0.01747
1325.04803,0.01739
1323.11928,0.01724
1321.19054,0.01717
1319.26179,0.01713
1317.33304,0.01706
1315.40430,0.01696
1313.47555,0.01688
1311.54681,0.01693
1309.61806,0.01714
1307.68932,0.01730
1305.76057,0.01733
1303.83183,0.01736
1301.90308,0.01739
1299.97434,0.01734
1298.04559,0.01731
1296.11685,0.01736
1294.18810,0.01741
1292.25936,0.01744
1290.33061,0.01734
1288.40187,0.01711
1286.47312,0.01696
1284.54437,0.01692
1282.61563,0.01689
1280.68688,0.01692
1278.75814,0.01710
1276.82939,0.01737
1274.90065,0.01753
1272.97190,0.01748
1271.04316,0.01732
1269.11441,0.01719
1267.18567,0.01724
1265.25692,0.01739
1263.32818,0.01759
1261.39943,0.01777
1259.47069,0.01778
1257.54194,0.01763
1255.61320,0.01749
1253.68445,0.01747
1251.75570,0.01755
1249.82696,0.01750
1247.89821,0.01725
1245.96947,0.01705
1244.04072,0.01702
1242.11198,0.01703
1240.18323,0.01703
1238.25449,0.01718
1236.32574,0.01739
1234.39700,0.01742
1232.46825,0.01735
1230.53951,0.01734
1228.61076,0.01745
1226.68202,0.01760
1224.75327,0.01766
1222.82452,0.01767
1220.89578,0.01779
1218.96703,0.01792
1217.03829,0.01788
1215.10954,0.01775
1213.18080,0.01766
1211.25205,0.01775
1209.32331,0.01798
1207.39456,0.01810
1205.46582,0.01807
1203.53707,0.01801
1201.60833,0.01798
1199.67958,0.01801
1197.75084,0.01809
1195.82209,0.01821
1193.89335,0.01846
1191.96460,0.01874
1190.03585,0.01887
1188.10711,0.01880
1186.17836,0.01861
1184.24962,0.01843
1182.32087,0.01847
1180.39213,0.01853
1178.46338,0.01828
1176.53464,0.01791
1174.60589,0.01784
1172.67715,0.01819
1170.74840,0.01851
1168.81966,0.01849
1166.89091,0.01838
1164.96217,0.01844
1163.03342,0.01864
1161.10467,0.01884
1159.17593,0.01889
1157.24718,0.01885
1155.31844,0.01877
1153.38969,0.01862
1151.46095,0.01848
1149.53220,0.01856
1147.60346,0.01881
1145.67471,0.01888
1143.74597,0.01884
1141.81722,0.01909
1139.88848,0.01943
1137.95973,0.01945
1136.03099,0.01926
1134.10224,0.01917
1132.17350,0.01923
1130.24475,0.01921
1128.31600,0.01899
1126.38726,0.01879
1124.45851,0.01865
1122.52977,0.01833
1120.60102,0.01808
1118.67228,0.01830
1116.74353,0.01868
1114.81479,0.01881
1112.88604,0.01875
1110.95730,0.01879
1109.02855,0.01899
1107.09981,0.01904
1105.17106,0.01876
1103.24232,0.01841
1101.31357,0.01835
1099.38483,0.01855
1097.45608,0.01890
1095.52733,0.01927
1093.59859,0.01930
1091.66984,0.01906
1089.74110,0.01898
1087.81235,0.01901
1085.88361,0.01890
1083.95486,0.01883
1082.02612,0.01902
1080.09737,0.01923
1078.16863,0.01917
1076.23988,0.01888
1074.31114,0.01863
1072.38239,0.01866
1070.45365,0.01892
1068.52490,0.01898
1066.59615,0.01888
1064.66741,0.01909
1062.73866,0.01936
1060.80992,0.01946
1058.88117,0.01961
1056.95243,0.01961
1055.02368,0.01946
1053.09494,0.01950
1051.16619,0.01940
1049.23745,0.01897
1047.30870,0.01871
1045.37996,0.01891
1043.45121,0.01930
1041.52247,0.01959
1039.59372,0.01972
1037.66498,0.01999
1035.73623,0.02049
1033.80748,0.02079
1031.87874,0.02074
1029.94999,0.02084
1028.02125,0.02128
1026.09250,0.02160
1024.16376,0.02159
1022.23501,0.02170
1020.30627,0.02216
1018.37752,0.02274
1016.44878,0.02330
1014.52003,0.02379
1012.59129,0.02416
1010.66254,0.02458
1008.73380,0.02495
1006.80505,0.02500
1004.87631,0.02482
1002.94756,0.02472
1001.01881,0.02496
999.09007,0.02535
997.16132,0.02548
995.23258,0.02540
993.30383,0.02538
991.37509,0.02539
989.44634,0.02554
987.51760,0.02587
985.58885,0.02605
983.66011,0.02597
981.73136,0.02604
979.80262,0.02645
977.87387,0.02694
975.94513,0.02715
974.01638,0.02708
972.08763,0.02692
970.15889,0.02687
968.23014,0.02706
966.30140,0.02725
964.37265,0.02709
962.44391,0.02682
960.51516,0.02691
958.58642,0.02711
956.65767,0.02710
954.72893,0.02703
952.80018,0.02700
950.87144,0.02686
948.94269,0.02667
947.01395,0.02668
945.08520,0.02669
943.15646,0.02634
941.22771,0.02583
939.29896,0.02549
937.37022,0.02512
935.44147,0.02474
933.51273,0.02483
931.58398,0.02530
929.65524,0.02550
927.72649,0.02528
925.79775,0.02520
923.86900,0.02554
921.94026,0.02580
920.01151,0.02569
918.08277,0.02563
916.15402,0.02578
914.22528,0.02576
912.29653,0.02557
910.36779,0.02560
908.43904,0.02589
906.51029,0.02600
904.58155,0.02574
902.65280,0.02533
900.72406,0.02505
898.79531,0.02500
896.86657,0.02501
894.93782,0.02501
893.00908,0.02490
891.08033,0.02476
889.15159,0.02482
887.22284,0.02484
885.29410,0.02457
883.36535,0.02434
881.43661,0.02427
879.50786,0.02422
877.57911,0.02424
875.65037,0.02422
873.72162,0.02404
871.79288,0.02404
869.86413,0.02420
867.93539,0.02420
866.00664,0.02397
864.07790,0.02355
862.14915,0.02323
860.22041,0.02337
858.29166,0.02372
856.36292,0.02373
854.43417,0.02321
852.50543,0.02264
850.57668,0.02243
848.64794,0.02229
846.71919,0.02181
844.79044,0.02130
842.86170,0.02127
840.93295,0.02157
839.00421,0.02164
837.07546,0.02130
835.14672,0.02079
833.21797,0.02051
831.28923,0.02068
829.36048,0.02102
827.43174,0.02123
825.50299,0.02130
823.57425,0.02131
821.64550,0.02118
819.71676,0.02085
817.78801,0.02071
815.85926,0.02096
813.93052,0.02106
812.00177,0.02081
810.07303,0.02042
808.14428,0.02014
806.21554,0.02010
804.28679,0.02004
802.35805,0.01976
800.42930,0.01969
798.50056,0.01992
796.57181,0.01992
794.64307,0.01969
792.71432,0.01973
790.78558,0.01993
788.85683,0.01977
786.92809,0.01928
784.99934,0.01892
783.07059,0.01880
781.14185,0.01890
779.21310,0.01914
777.28436,0.01926
775.35561,0.01911
773.42687,0.01865
771.49812,0.01826
769.56938,0.01823
767.64063,0.01819
765.71189,0.01794
763.78314,0.01758
761.85440,0.01722
759.92565,0.01708
757.99691,0.01722
756.06816,0.01743
754.13942,0.01754
752.21067,0.01748
750.28192,0.01747
748.35318,0.01761
746.42443,0.01756
744.49569,0.01721
742.56694,0.01695
740.63820,0.01697
738.70945,0.01714
736.78071,0.01730
734.85196,0.01728
732.92322,0.01704
730.99447,0.01682
729.06573,0.01684
727.13698,0.01702
725.20824,0.01709
723.27949,0.01700
721.35074,0.01717
719.42200,0.01761
717.49325,0.01781
715.56451,0.01758
713.63576,0.01704
711.70702,0.01659
709.77827,0.01669
707.84953,0.01707
705.92078,0.01704
703.99204,0.01670
702.06329,0.01644
700.13455,0.01618
698.20580,0.01609
696.27706,0.01643
694.34831,0.01642
692.41957,0.01591
690.49082,0.01583
688.56207,0.01602
686.63333,0.01603
684.70458,0.01588
682.77584,0.01570
680.84709,0.01582
678.91835,0.01606
676.98960,0.01601
675.06086,0.01572
673.13211,0.01546
671.20337,0.01555
669.27462,0.01591
667.34588,0.01633
665.41713,0.01673
663.48839,0.01688
661.55964,0.01679
659.63090,0.01646
657.70215,0.01567
655.77340,0.01501
653.84466,0.01546
651.91591,0.01653
649.98717,0.01661
648.05842,0.01578
646.12968,0.01521
644.20093,0.01490
642.27219,0.01455
640.34344,0.01454
638.41470,0.01487
636.48595,0.01481
634.55721,0.01411
632.62846,0.01366
630.69972,0.01393
628.77097,0.01456
626.84222,0.01518
624.91348,0.01559
622.98473,0.01535
621.05599,0.01477
619.12724,0.01440
617.19850,0.01425
615.26975,0.01427
613.34101,0.01411
611.41226,0.01350
609.48352,0.01342
607.55477,0.01410
605.62603,0.01482
603.69728,0.01528
601.76854,0.01509
599.83979,0.01465
