7497.03301,0.57487
7495.10426,0.57030
7493.17552,0.56637
7491.24677,0.56325
7489.31803,0.56070
7487.38928,0.56122
7485.46054,0.56228
7483.53179,0.55932
7481.60305,0.55667
7479.67430,0.55880
7477.74556,0.56067
7475.81681,0.55878
7473.88807,0.55645
7471.95932,0.55743
7470.03057,0.56219
7468.10183,0.56541
7466.17308,0.56440
7464.24434,0.56296
7462.31559,0.56006
7460.38685,0.55535
7458.45810,0.55449
7456.52936,0.55705
7454.60061,0.55733
7452.67187,0.55558
7450.74312,0.55652
7448.81438,0.56090
7446.88563,0.56520
7444.95689,0.56557
7443.02814,0.56281
7441.09940,0.56179
7439.17065,0.56277
7437.24190,0.56391
7435.31316,0.56520
7433.38441,0.56558
7431.45567,0.56509
7429.52692,0.56415
7427.59818,0.56146
7425.66943,0.55686
7423.74069,0.55350
7421.81194,0.55307
7419.88320,0.55190
7417.95445,0.54785
7416.02571,0.54516
7414.09696,0.54809
7412.16822,0.55384
7410.23947,0.55737
7408.31073,0.55976
7406.38198,0.56254
7404.45323,0.56203
7402.52449,0.55862
7400.59574,0.55831
7398.66700,0.56023
7396.73825,0.55937
7394.80951,0.55603
7392.88076,0.55375
7390.95202,0.55507
7389.02327,0.55799
7387.09453,0.56024
7385.16578,0.56238
7383.23704,0.56386
7381.30829,0.56406
7379.37955,0.56209
7377.45080,0.55832
7375.52205,0.55667
7373.59331,0.55709
7371.66456,0.55499
7369.73582,0.55053
7367.80707,0.54592
7365.87833,0.54154
7363.94958,0.54200
7362.02084,0.54946
7360.09209,0.55510
7358.16335,0.55213
7356.23460,0.54586
7354.30586,0.54333
7352.37711,0.54591
7350.44837,0.55127
7348.51962,0.55558
7346.59088,0.55685
7344.66213,0.55551
7342.73338,0.55346
7340.80464,0.55367
7338.87589,0.55663
7336.94715,0.55930
7335.01840,0.55757
7333.08966,0.55291
7331.16091,0.55053
7329.23217,0.54932
7327.30342,0.54717
7325.37468,0.54703
7323.44593,0.54985
7321.51719,0.55195
7319.58844,0.55034
7317.65970,0.54781
7315.73095,0.54845
7313.80221,0.54895
7311.87346,0.54453
7309.94471,0.53894
7308.01597,0.53721
7306.08722,0.53803
7304.15848,0.53831
7302.22973,0.53796
7300.30099,0.53841
7298.37224,0.53886
7296.44350,0.53778
7294.51475,0.53583
7292.58601,0.53409
7290.65726,0.53247
7288.72852,0.53129
7286.79977,0.53163
7284.87103,0.53397
7282.94228,0.53771
7281.01353,0.54009
7279.08479,0.53966
7277.15604,0.53914
7275.22730,0.53878
7273.29855,0.53532
7271.36981,0.53145
7269.44106,0.53286
7267.51232,0.53641
7265.58357,0.53544
7263.65483,0.53118
7261.72608,0.52932
7259.79734,0.53128
7257.86859,0.53349
7255.93985,0.53401
7254.01110,0.53317
7252.08236,0.53256
7250.15361,0.53521
7248.22486,0.53886
7246.29612,0.53975
7244.36737,0.53972
7242.43863,0.53971
7240.50988,0.53959
7238.58114,0.54089
7236.65239,0.54149
7234.72365,0.53871
7232.79490,0.53496
7230.86616,0.53278
7228.93741,0.53210
7227.00867,0.53153
7225.07992,0.53015
7223.15118,0.53011
7221.22243,0.53190
7219.29369,0.53176
7217.36494,0.52911
7215.43619,0.52647
7213.50745,0.52368
7211.57870,0.52169
7209.64996,0.52398
7207.72121,0.52933
7205.79247,0.53279
7203.86372,0.53261
7201.93498,0.52944
7200.00623,0.52371
7198.07749,0.51869
7196.14874,0.51853
7194.22000,0.52034
7192.29125,0.52019
7190.36251,0.52006
7188.43376,0.51990
7186.50501,0.51777
7184.57627,0.51586
7182.64752,0.51604
7180.71878,0.51657
7178.79003,0.51555
7176.86129,0.51351
7174.93254,0.51307
7173.00380,0.51469
7171.07505,0.51577
7169.14631,0.51458
7167.21756,0.51096
7165.28882,0.50768
7163.36007,0.50815
7161.43133,0.50980
7159.50258,0.50940
7157.57384,0.50916
7155.64509,0.51063
7153.71634,0.51094
7151.78760,0.50824
7149.85885,0.50622
7147.93011,0.50776
7146.00136,0.51052
7144.07262,0.51137
7142.14387,0.50925
7140.21513,0.50751
7138.28638,0.50905
7136.35764,0.51113
7134.42889,0.51160
7132.50015,0.51089
7130.57140,0.50823
7128.64266,0.50203
7126.71391,0.49441
7124.78516,0.49033
7122.85642,0.49079
7120.92767,0.49335
7118.99893,0.49531
7117.07018,0.49539
7115.14144,0.49477
7113.21269,0.49507
7111.28395,0.49618
7109.35520,0.49637
7107.42646,0.49496
7105.49771,0.49281
7103.56897,0.49091
7101.64022,0.48891
7099.71148,0.48578
7097.78273,0.48422
7095.85399,0.48594
7093.92524,0.48839
7091.99649,0.49022
7090.06775,0.49150
7088.13900,0.49278
7086.21026,0.49198
7084.28151,0.48667
7082.35277,0.48256
7080.42402,0.48409
7078.49528,0.48679
7076.56653,0.48712
7074.63779,0.48592
7072.70904,0.48345
7070.78030,0.48110
7068.85155,0.48179
7066.92281,0.48308
7064.99406,0.48229
7063.06532,0.48288
7061.13657,0.48386
7059.20782,0.48141
7057.27908,0.47842
7055.35033,0.47724
7053.42159,0.47736
7051.49284,0.47885
7049.56410,0.48026
7047.63535,0.48043
7045.70661,0.47949
7043.77786,0.47728
7041.84912,0.47428
7039.92037,0.47248
7037.99163,0.47304
7036.06288,0.47457
7034.13414,0.47616
7032.20539,0.47616
7030.27664,0.47307
7028.34790,0.46997
7026.41915,0.46948
7024.49041,0.46968
7022.56166,0.46832
7020.63292,0.46776
7018.70417,0.46943
7016.77543,0.46915
7014.84668,0.46706
7012.91794,0.46723
7010.98919,0.46861
7009.06045,0.46804
7007.13170,0.46571
7005.20296,0.46454
7003.27421,0.46497
7001.34547,0.46515
6999.41672,0.46507
6997.48797,0.46523
6995.55923,0.46597
6993.63048,0.46645
6991.70174,0.46519
6989.77299,0.46511
6987.84425,0.46744
6985.91550,0.46739
6983.98676,0.46463
6982.05801,0.46339
6980.12927,0.46346
6978.20052,0.46187
6976.27178,0.45983
6974.34303,0.46200
6972.41429,0.46661
6970.48554,0.46733
6968.55680,0.46420
6966.62805,0.46076
6964.69930,0.45781
6962.77056,0.45565
6960.84181,0.45512
6958.91307,0.45492
6956.98432,0.45446
6955.05558,0.45693
6953.12683,0.46186
6951.19809,0.46497
6949.26934,0.46524
6947.34060,0.46238
6945.41185,0.45857
6943.48311,0.45910
6941.55436,0.46069
6939.62562,0.45759
6937.69687,0.45478
6935.76812,0.45572
6933.83938,0.45490
6931.91063,0.45211
6929.98189,0.45294
6928.05314,0.45656
6926.12440,0.45872
6924.19565,0.45852
6922.26691,0.45643
6920.33816,0.45425
6918.40942,0.45377
6916.48067,0.45369
6914.55193,0.45326
6912.62318,0.45371
6910.69444,0.45373
6908.76569,0.45236
6906.83695,0.45203
6904.90820,0.45262
6902.97945,0.45195
6901.05071,0.45111
6899.12196,0.45178
6897.19322,0.45244
6895.26447,0.45049
6893.33573,0.44723
6891.40698,0.44689
6889.47824,0.44969
6887.54949,0.45179
6885.62075,0.45086
6883.69200,0.44802
6881.76326,0.44545
6879.83451,0.44375
6877.90577,0.44296
6875.97702,0.44321
6874.04828,0.44202
6872.11953,0.43784
6870.19078,0.43423
6868.26204,0.43380
6866.33329,0.43449
6864.40455,0.43500
6862.47580,0.43654
6860.54706,0.43842
6858.61831,0.43790
6856.68957,0.43509
6854.76082,0.43350
6852.83208,0.43476
6850.90333,0.43587
6848.97459,0.43465
6847.04584,0.43371
6845.11710,0.43444
6843.18835,0.43475
6841.25960,0.43414
6839.33086,0.43419
6837.40211,0.43539
6835.47337,0.43616
6833.54462,0.43486
6831.61588,0.43268
6829.68713,0.43228
6827.75839,0.43303
6825.82964,0.43241
6823.90090,0.43156
6821.97215,0.43197
6820.04341,0.43140
6818.11466,0.42882
6816.18592,0.42585
6814.25717,0.42390
6812.32843,0.42376
6810.39968,0.42590
6808.47093,0.42962
6806.54219,0.43152
6804.61344,0.42941
6802.68470,0.42587
6800.75595,0.42455
6798.82721,0.42673
6796.89846,0.43003
6794.96972,0.43067
6793.04097,0.42795
6791.11223,0.42399
6789.18348,0.42112
6787.25474,0.41993
6785.32599,0.41912
6783.39725,0.41807
6781.46850,0.41752
6779.53975,0.41786
6777.61101,0.41798
6775.68226,0.41654
6773.75352,0.41449
6771.82477,0.41340
6769.89603,0.41300
6767.96728,0.41263
6766.03854,0.41197
6764.10979,0.41061
6762.18105,0.40939
6760.25230,0.40973
6758.32356,0.40987
6756.39481,0.40723
6754.46607,0.40375
6752.53732,0.40209
6750.60858,0.40105
6748.67983,0.39902
6746.75108,0.39737
6744.82234,0.39694
6742.89359,0.39662
6740.96485,0.39681
6739.03610,0.39705
6737.10736,0.39466
6735.17861,0.39043
6733.24987,0.38844
6731.32112,0.38961
6729.39238,0.39017
6727.46363,0.38806
6725.53489,0.38593
6723.60614,0.38434
6721.67740,0.38117
6719.74865,0.37822
6717.81991,0.37681
6715.89116,0.37494
6713.96241,0.37354
6712.03367,0.37412
6710.10492,0.37483
6708.17618,0.37493
6706.24743,0.37440
6704.31869,0.37224
6702.38994,0.37007
6700.46120,0.36975
6698.53245,0.37013
6696.60371,0.37091
6694.67496,0.37173
6692.74622,0.37130
6690.81747,0.36904
6688.88873,0.36461
6686.95998,0.36170
6685.03123,0.36397
6683.10249,0.36810
6681.17374,0.37033
6679.24500,0.37064
6677.31625,0.36879
6675.38751,0.36557
6673.45876,0.36433
6671.53002,0.36584
6669.60127,0.36779
6667.67253,0.36845
6665.74378,0.36674
6663.81504,0.36438
6661.88629,0.36437
6659.95755,0.36486
6658.02880,0.36271
6656.10006,0.36000
6654.17131,0.36074
6652.24256,0.36385
6650.31382,0.36452
6648.38507,0.36215
6646.45633,0.36090
6644.52758,0.36246
6642.59884,0.36484
6640.67009,0.36701
6638.74135,0.36847
6636.81260,0.36741
6634.88386,0.36478
6632.95511,0.36461
6631.02637,0.36717
6629.09762,0.36842
6627.16888,0.36747
6625.24013,0.36710
6623.31139,0.36689
6621.38264,0.36454
6619.45389,0.36212
6617.52515,0.36285
6615.59640,0.36481
6613.66766,0.36495
6611.73891,0.36473
6609.81017,0.36592
6607.88142,0.36754
6605.95268,0.36869
6604.02393,0.36900
6602.09519,0.36857
6600.16644,0.36857
6598.23770,0.36994
6596.30895,0.37170
6594.38021,0.37202
6592.45146,0.37083
6590.52271,0.36965
6588.59397,0.37030
6586.66522,0.37335
6584.73648,0.37610
6582.80773,0.37555
6580.87899,0.37358
6578.95024,0.37297
6577.02150,0.37368
6575.09275,0.37514
6573.16401,0.37568
6571.23526,0.37464
6569.30652,0.37450
6567.37777,0.37613
6565.44903,0.37710
6563.52028,0.37560
6561.59154,0.37423
6559.66279,0.37634
6557.73404,0.37966
6555.80530,0.37998
6553.87655,0.37828
6551.94781,0.37820
6550.01906,0.37935
6548.09032,0.37977
6546.16157,0.38003
6544.23283,0.38043
6542.30408,0.38109
6540.37534,0.38304
6538.44659,0.38458
6536.51785,0.38450
6534.58910,0.38563
6532.66036,0.38731
6530.73161,0.38729
6528.80287,0.38789
6526.87412,0.38949
6524.94537,0.38998
6523.01663,0.38964
6521.08788,0.38927
6519.15914,0.38889
6517.23039,0.38864
6515.30165,0.38835
6513.37290,0.38766
6511.44416,0.38788
6509.51541,0.39020
6507.58667,0.39297
6505.65792,0.39411
6503.72918,0.39407
6501.80043,0.39487
6499.87169,0.39656
6497.94294,0.39737
6496.01419,0.39669
6494.08545,0.39571
6492.15670,0.39624
6490.22796,0.39880
6488.29921,0.40135
6486.37047,0.40097
6484.44172,0.39781
6482.51298,0.39510
6480.58423,0.39594
6478.65549,0.39992
6476.72674,0.40366
6474.79800,0.40555
6472.86925,0.40519
6470.94051,0.40311
6469.01176,0.40244
6467.08302,0.40401
6465.15427,0.40611
6463.22552,0.40751
6461.29678,0.40734
6459.36803,0.40616
6457.43929,0.40550
6455.51054,0.40694
6453.58180,0.41035
6451.65305,0.41209
6449.72431,0.41014
6447.79556,0.40773
6445.86682,0.40838
6443.93807,0.41109
6442.00933,0.41290
6440.08058,0.41374
6438.15184,0.41479
6436.22309,0.41597
6434.29434,0.41690
6432.36560,0.41799
6430.43685,0.42000
6428.50811,0.42171
6426.57936,0.42161
6424.65062,0.42117
6422.72187,0.42203
6420.79313,0.42328
6418.86438,0.42325
6416.93564,0.42277
6415.00689,0.42325
6413.07815,0.42318
6411.14940,0.42224
6409.22066,0.42224
6407.29191,0.42207
6405.36317,0.42053
6403.43442,0.41971
6401.50567,0.42027
6399.57693,0.42102
6397.64818,0.42258
6395.71944,0.42449
6393.79069,0.42443
6391.86195,0.42321
6389.93320,0.42234
6388.00446,0.42122
6386.07571,0.42073
6384.14697,0.42180
6382.21822,0.42288
6380.28948,0.42352
6378.36073,0.42488
6376.43199,0.42681
6374.50324,0.42888
6372.57450,0.43080
6370.64575,0.43114
6368.71700,0.42908
6366.78826,0.42597
6364.85951,0.42388
6362.93077,0.42357
6361.00202,0.42416
6359.07328,0.42455
6357.14453,0.42482
6355.21579,0.42535
6353.28704,0.42593
6351.35830,0.42714
6349.42955,0.42852
6347.50081,0.42779
6345.57206,0.42559
6343.64332,0.42416
6341.71457,0.42419
6339.78582,0.42546
6337.85708,0.42665
6335.92833,0.42771
6333.99959,0.42941
6332.07084,0.42974
6330.14210,0.42854
6328.21335,0.42831
6326.28461,0.42856
6324.35586,0.42873
6322.42712,0.42982
6320.49837,0.43065
6318.56963,0.43081
6316.64088,0.43162
6314.71214,0.43290
6312.78339,0.43378
6310.85465,0.43341
6308.92590,0.43155
6306.99715,0.43014
6305.06841,0.43069
6303.13966,0.43198
6301.21092,0.43256
6299.28217,0.43275
6297.35343,0.43299
6295.42468,0.43342
6293.49594,0.43482
6291.56719,0.43667
6289.63845,0.43714
6287.70970,0.43657
6285.78096,0.43645
6283.85221,0.43654
6281.92347,0.43628
6279.99472,0.43552
6278.06598,0.43453
6276.13723,0.43472
6274.20848,0.43633
6272.27974,0.43763
6270.35099,0.43821
6268.42225,0.43944
6266.49350,0.44128
6264.56476,0.44186
6262.63601,0.44118
6260.70727,0.44100
6258.77852,0.44168
6256.84978,0.44259
6254.92103,0.44329
6252.99229,0.44406
6251.06354,0.44551
6249.13480,0.44701
6247.20605,0.44758
6245.27730,0.44711
6243.34856,0.44612
6241.41981,0.44526
6239.49107,0.44517
6237.56232,0.44608
6235.63358,0.44721
6233.70483,0.44840
6231.77609,0.45048
6229.84734,0.45196
6227.91860,0.45127
6225.98985,0.45041
6224.06111,0.45073
6222.13236,0.45103
6220.20362,0.45103
6218.27487,0.45160
6216.34613,0.45345
6214.41738,0.45501
6212.48863,0.45412
6210.55989,0.45238
6208.63114,0.45258
6206.70240,0.45375
6204.77365,0.45316
6202.84491,0.45161
6200.91616,0.45238
6198.98742,0.45546
6197.05867,0.45745
6195.12993,0.45711
6193.20118,0.45708
6191.27244,0.45914
6189.34369,0.46246
6187.41495,0.46568
6185.48620,0.46664
6183.55746,0.46410
6181.62871,0.46077
6179.69996,0.45985
6177.77122,0.46098
6175.84247,0.46217
6173.91373,0.46302
6171.98498,0.46409
6170.05624,0.46462
6168.12749,0.46414
6166.19875,0.46382
6164.27000,0.46393
6162.34126,0.46386
6160.41251,0.46423
6158.48377,0.46513
6156.55502,0.46543
6154.62628,0.46489
6152.69753,0.46405
6150.76878,0.46358
6148.84004,0.46459
6146.91129,0.46670
6144.98255,0.46765
6143.05380,0.46710
6141.12506,0.46723
6139.19631,0.46856
6137.26757,0.46949
6135.33882,0.46933
6133.41008,0.46873
6131.48133,0.46865
6129.55259,0.46897
6127.62384,0.46828
6125.69510,0.46708
6123.76635,0.46728
6121.83761,0.46870
6119.90886,0.46942
6117.98011,0.46879
6116.05137,0.46869
6114.12262,0.46995
6112.19388,0.47079
6110.26513,0.47068
6108.33639,0.47077
6106.40764,0.47138
6104.47890,0.47225
6102.55015,0.47300
6100.62141,0.47329
6098.69266,0.47338
6096.76392,0.47281
6094.83517,0.47094
6092.90643,0.46878
6090.97768,0.46751
6089.04893,0.46756
6087.12019,0.46879
6085.19144,0.47044
6083.26270,0.47235
6081.33395,0.47472
6079.40521,0.47599
6077.47646,0.47463
6075.54772,0.47273
6073.61897,0.47211
6071.69023,0.47147
6069.76148,0.47127
6067.83274,0.47262
6065.90399,0.47317
6063.97525,0.47189
6062.04650,0.47160
6060.11776,0.47323
6058.18901,0.47480
6056.26026,0.47525
6054.33152,0.47424
6052.40277,0.47212
6050.47403,0.47092
6048.54528,0.47112
6046.61654,0.47132
6044.68779,0.47119
6042.75905,0.47060
6040.83030,0.46958
6038.90156,0.46851
6036.97281,0.46677
6035.04407,0.46466
6033.11532,0.46367
6031.18658,0.46417
6029.25783,0.46541
6027.32909,0.46615
6025.40034,0.46639
6023.47159,0.46667
6021.54285,0.46630
6019.61410,0.46507
6017.68536,0.46308
6015.75661,0.46056
6013.82787,0.45866
6011.89912,0.45801
6009.97038,0.45809
6008.04163,0.45797
6006.11289,0.45767
6004.18414,0.45757
6002.25540,0.45643
6000.32665,0.45377
5998.39791,0.45192
5996.46916,0.45163
5994.54041,0.45103
5992.61167,0.45021
5990.68292,0.44960
5988.75418,0.44800
5986.82543,0.44554
5984.89669,0.44351
5982.96794,0.44189
5981.03920,0.44016
5979.11045,0.43863
5977.18171,0.43713
5975.25296,0.43546
5973.32422,0.43393
5971.39547,0.43195
5969.46673,0.42948
5967.53798,0.42734
5965.60924,0.42552
5963.68049,0.42383
5961.75174,0.42196
5959.82300,0.41955
5957.89425,0.41699
5955.96551,0.41468
5954.03676,0.41244
5952.10802,0.40995
5950.17927,0.40745
5948.25053,0.40630
5946.32178,0.40608
5944.39304,0.40449
5942.46429,0.40202
5940.53555,0.40059
5938.60680,0.39952
5936.67806,0.39716
5934.74931,0.39404
5932.82057,0.39152
5930.89182,0.38941
5928.96307,0.38739
5927.03433,0.38559
5925.10558,0.38363
5923.17684,0.38169
5921.24809,0.38043
5919.31935,0.37960
5917.39060,0.37857
5915.46186,0.37758
5913.53311,0.37679
5911.60437,0.37561
5909.67562,0.37453
5907.74688,0.37429
5905.81813,0.37405
5903.88939,0.37342
5901.96064,0.37336
5900.03189,0.37345
5898.10315,0.37239
5896.17440,0.37082
5894.24566,0.37048
5892.31691,0.37116
5890.38817,0.37175
5888.45942,0.37255
5886.53068,0.37286
5884.60193,0.37179
5882.67319,0.37084
5880.74444,0.37081
5878.81570,0.37096
5876.88695,0.37103
5874.95821,0.37090
5873.02946,0.37082
5871.10072,0.37129
5869.17197,0.37171
5867.24322,0.37162
5865.31448,0.37261
5863.38573,0.37497
5861.45699,0.37604
5859.52824,0.37536
5857.59950,0.37478
5855.67075,0.37468
5853.74201,0.37488
5851.81326,0.37563
5849.88452,0.37607
5847.95577,0.37563
5846.02703,0.37550
5844.09828,0.37597
5842.16954,0.37605
5840.24079,0.37557
5838.31205,0.37488
5836.38330,0.37427
5834.45455,0.37341
5832.52581,0.37211
5830.59706,0.37116
5828.66832,0.37073
5826.73957,0.37050
5824.81083,0.37036
5822.88208,0.36943
5820.95334,0.36789
5819.02459,0.36684
5817.09585,0.36561
5815.16710,0.36410
5813.23836,0.36367
5811.30961,0.36358
5809.38087,0.36211
5807.45212,0.35974
5805.52337,0.35771
5803.59463,0.35618
5801.66588,0.35506
5799.73714,0.35407
5797.80839,0.35283
5795.87965,0.35219
5793.95090,0.35269
5792.02216,0.35262
5790.09341,0.35109
5788.16467,0.34954
5786.23592,0.34855
5784.30718,0.34744
5782.37843,0.34666
5780.44969,0.34677
5778.52094,0.34742
5776.59220,0.34775
5774.66345,0.34688
5772.73470,0.34535
5770.80596,0.34419
5768.87721,0.34367
5766.94847,0.34427
5765.01972,0.34517
5763.09098,0.34432
5761.16223,0.34236
5759.23349,0.34123
5757.30474,0.34086
5755.37600,0.34104
5753.44725,0.34176
5751.51851,0.34234
5749.58976,0.34287
5747.66102,0.34343
5745.73227,0.34334
5743.80352,0.34274
5741.87478,0.34250
5739.94603,0.34277
5738.01729,0.34337
5736.08854,0.34451
5734.15980,0.34565
5732.23105,0.34638
5730.30231,0.34740
5728.37356,0.34879
5726.44482,0.34999
5724.51607,0.35085
5722.58733,0.35105
5720.65858,0.35063
5718.72984,0.35074
5716.80109,0.35253
5714.87235,0.35552
5712.94360,0.35829
5711.01485,0.36049
5709.08611,0.36233
5707.15736,0.36368
5705.22862,0.36485
5703.29987,0.36662
5701.37113,0.36883
5699.44238,0.37056
5697.51364,0.37175
5695.58489,0.37278
5693.65615,0.37377
5691.72740,0.37516
5689.79866,0.37702
5687.86991,0.37866
5685.94117,0.37962
5684.01242,0.38027
5682.08368,0.38133
5680.15493,0.38308
5678.22618,0.38487
5676.29744,0.38596
5674.36869,0.38676
5672.43995,0.38822
5670.51120,0.39028
5668.58246,0.39150
5666.65371,0.39129
5664.72497,0.39131
5662.79622,0.39184
5660.86748,0.39191
5658.93873,0.39256
5657.00999,0.39477
5655.08124,0.39732
5653.15250,0.39876
5651.22375,0.39923
5649.29500,0.39987
5647.36626,0.40100
5645.43751,0.40183
5643.50877,0.40216
5641.58002,0.40298
5639.65128,0.40453
5637.72253,0.40625
5635.79379,0.40769
5633.86504,0.40830
5631.93630,0.40859
5630.00755,0.40944
5628.07881,0.41055
5626.15006,0.41121
5624.22132,0.41124
5622.29257,0.41121
5620.36383,0.41177
5618.43508,0.41243
5616.50633,0.41248
5614.57759,0.41244
5612.64884,0.41285
5610.72010,0.41321
5608.79135,0.41359
5606.86261,0.41437
5604.93386,0.41505
5603.00512,0.41539
5601.07637,0.41532
5599.14763,0.41484
5597.21888,0.41477
5595.29014,0.41497
5593.36139,0.41422
5591.43265,0.41272
5589.50390,0.41183
5587.57516,0.41214
5585.64641,0.41305
5583.71766,0.41357
5581.78892,0.41370
5579.86017,0.41425
5577.93143,0.41482
5576.00268,0.41434
5574.07394,0.41342
5572.14519,0.41343
5570.21645,0.41440
5568.28770,0.41547
5566.35896,0.41596
5564.43021,0.41574
5562.50147,0.41550
5560.57272,0.41562
5558.64398,0.41529
5556.71523,0.41459
5554.78648,0.41473
5552.85774,0.41516
5550.92899,0.41486
5549.00025,0.41433
5547.07150,0.41396
5545.14276,0.41404
5543.21401,0.41490
5541.28527,0.41579
5539.35652,0.41644
5537.42778,0.41726
5535.49903,0.41753
5533.57029,0.41669
5531.64154,0.41570
5529.71280,0.41576
5527.78405,0.41687
5525.85531,0.41744
5523.92656,0.41639
5521.99781,0.41513
5520.06907,0.41527
5518.14032,0.41600
5516.21158,0.41629
5514.28283,0.41671
5512.35409,0.41750
5510.42534,0.41769
5508.49660,0.41719
5506.56785,0.41744
5504.63911,0.41884
5502.71036,0.41990
5500.78162,0.41964
5498.85287,0.41886
5496.92413,0.41864
5494.99538,0.41904
5493.06664,0.41954
5491.13789,0.41942
5489.20914,0.41870
5487.28040,0.41849
5485.35165,0.41894
5483.42291,0.41924
5481.49416,0.41975
5479.56542,0.42111
5477.63667,0.42281
5475.70793,0.42372
5473.77918,0.42343
5471.85044,0.42279
5469.92169,0.42260
5467.99295,0.42264
5466.06420,0.42294
5464.13546,0.42400
5462.20671,0.42516
5460.27796,0.42514
5458.34922,0.42432
5456.42047,0.42415
5454.49173,0.42503
5452.56298,0.42643
5450.63424,0.42771
5448.70549,0.42830
5446.77675,0.42831
5444.84800,0.42830
5442.91926,0.42841
5440.99051,0.42890
5439.06177,0.42988
5437.13302,0.43071
5435.20428,0.43114
5433.27553,0.43158
5431.34679,0.43230
5429.41804,0.43321
5427.48929,0.43377
5425.56055,0.43371
5423.63180,0.43342
5421.70306,0.43297
5419.77431,0.43233
5417.84557,0.43181
5415.91682,0.43147
5413.98808,0.43166
5412.05933,0.43311
5410.13059,0.43494
5408.20184,0.43534
5406.27310,0.43458
5404.34435,0.43462
5402.41561,0.43593
5400.48686,0.43686
5398.55811,0.43669
5396.62937,0.43649
5394.70062,0.43648
5392.77188,0.43612
5390.84313,0.43587
5388.91439,0.43626
5386.98564,0.43651
5385.05690,0.43594
5383.12815,0.43529
5381.19941,0.43489
5379.27066,0.43445
5377.34192,0.43454
5375.41317,0.43526
5373.48443,0.43545
5371.55568,0.43458
5369.62694,0.43320
5367.69819,0.43235
5365.76944,0.43245
5363.84070,0.43264
5361.91195,0.43264
5359.98321,0.43333
5358.05446,0.43435
5356.12572,0.43432
5354.19697,0.43316
5352.26823,0.43186
5350.33948,0.43075
5348.41074,0.42966
5346.48199,0.42895
5344.55325,0.42860
5342.62450,0.42771
5340.69576,0.42620
5338.76701,0.42511
5336.83827,0.42509
5334.90952,0.42514
5332.98077,0.42389
5331.05203,0.42204
5329.12328,0.42097
5327.19454,0.42029
5325.26579,0.41878
5323.33705,0.41636
5321.40830,0.41383
5319.47956,0.41182
5317.55081,0.41069
5315.62207,0.40983
5313.69332,0.40805
5311.76458,0.40569
5309.83583,0.40344
5307.90709,0.40055
5305.97834,0.39693
5304.04959,0.39359
5302.12085,0.39077
5300.19210,0.38823
5298.26336,0.38581
5296.33461,0.38286
5294.40587,0.37922
5292.47712,0.37558
5290.54838,0.37209
5288.61963,0.36878
5286.69089,0.36580
5284.76214,0.36263
5282.83340,0.35917
5280.90465,0.35588
5278.97591,0.35264
5277.04716,0.34918
5275.11842,0.34551
5273.18967,0.34167
5271.26092,0.33790
5269.33218,0.33418
5267.40343,0.33066
5265.47469,0.32778
5263.54594,0.32493
5261.61720,0.32134
5259.68845,0.31782
5257.75971,0.31506
5255.83096,0.31228
5253.90222,0.30894
5251.97347,0.30563
5250.04473,0.30271
5248.11598,0.29999
5246.18724,0.29733
5244.25849,0.29467
5242.32975,0.29228
5240.40100,0.29016
5238.47225,0.28771
5236.54351,0.28489
5234.61476,0.28233
5232.68602,0.28014
5230.75727,0.27797
5228.82853,0.27602
5226.89978,0.27451
5224.97104,0.27269
5223.04229,0.27030
5221.11355,0.26804
5219.18480,0.26620
5217.25606,0.26472
5215.32731,0.26343
5213.39857,0.26189
5211.46982,0.26030
5209.54107,0.25945
5207.61233,0.25910
5205.68358,0.25807
5203.75484,0.25613
5201.82609,0.25406
5199.89735,0.25247
5197.96860,0.25147
5196.03986,0.25078
5194.11111,0.24984
5192.18237,0.24850
5190.25362,0.24725
5188.32488,0.24631
5186.39613,0.24528
5184.46739,0.24417
5182.53864,0.24340
5180.60990,0.24295
5178.68115,0.24251
5176.75240,0.24182
5174.82366,0.24083
5172.89491,0.23990
5170.96617,0.23944
5169.03742,0.23923
5167.10868,0.23883
5165.17993,0.23820
5163.25119,0.23722
5161.32244,0.23590
5159.39370,0.23522
5157.46495,0.23568
5155.53621,0.23621
5153.60746,0.23620
5151.67872,0.23622
5149.74997,0.23617
5147.82123,0.23563
5145.89248,0.23524
5143.96373,0.23544
5142.03499,0.23568
5140.10624,0.23565
5138.17750,0.23543
5136.24875,0.23526
5134.32001,0.23555
5132.39126,0.23595
5130.46252,0.23570
5128.53377,0.23537
5126.60503,0.23567
5124.67628,0.23625
5122.74754,0.23663
5120.81879,0.23639
5118.89005,0.23593
5116.96130,0.23603
5115.03255,0.23622
5113.10381,0.23607
5111.17506,0.23586
5109.24632,0.23542
5107.31757,0.23456
5105.38883,0.23404
5103.46008,0.23405
5101.53134,0.23352
5099.60259,0.23252
5097.67385,0.23214
5095.74510,0.23207
5093.81636,0.23178
5091.88761,0.23159
5089.95887,0.23112
5088.03012,0.22985
5086.10138,0.22839
5084.17263,0.22722
5082.24388,0.22622
5080.31514,0.22576
5078.38639,0.22598
5076.45765,0.22569
5074.52890,0.22431
5072.60016,0.22297
5070.67141,0.22230
5068.74267,0.22192
5066.81392,0.22167
5064.88518,0.22134
5062.95643,0.22083
5061.02769,0.22035
5059.09894,0.21990
5057.17020,0.21936
5055.24145,0.21901
5053.31270,0.21937
5051.38396,0.22027
5049.45521,0.22084
5047.52647,0.22077
5045.59772,0.22066
5043.66898,0.22088
5041.74023,0.22141
5039.81149,0.22197
5037.88274,0.22207
5035.95400,0.22203
5034.02525,0.22234
5032.09651,0.22253
5030.16776,0.22219
5028.23902,0.22198
5026.31027,0.22259
5024.38153,0.22354
5022.45278,0.22408
5020.52403,0.22436
5018.59529,0.22442
5016.66654,0.22405
5014.73780,0.22383
5012.80905,0.22420
5010.88031,0.22456
5008.95156,0.22458
5007.02282,0.22457
5005.09407,0.22477
5003.16533,0.22544
5001.23658,0.22650
4999.30784,0.22717
4997.37909,0.22734
4995.45035,0.22754
4993.52160,0.22748
4991.59286,0.22683
4989.66411,0.22628
4987.73536,0.22631
4985.80662,0.22656
4983.87787,0.22687
4981.94913,0.22734
4980.02038,0.22742
4978.09164,0.22670
4976.16289,0.22572
4974.23415,0.22502
4972.30540,0.22477
4970.37666,0.22508
4968.44791,0.22548
4966.51917,0.22522
4964.59042,0.22418
4962.66168,0.22310
4960.73293,0.22235
4958.80418,0.22191
4956.87544,0.22174
4954.94669,0.22137
4953.01795,0.22030
4951.08920,0.21880
4949.16046,0.21753
4947.23171,0.21678
4945.30297,0.21615
4943.37422,0.21510
4941.44548,0.21356
4939.51673,0.21206
4937.58799,0.21119
4935.65924,0.21086
4933.73050,0.21019
4931.80175,0.20865
4929.87301,0.20706
4927.94426,0.20606
4926.01551,0.20511
4924.08677,0.20400
4922.15802,0.20295
4920.22928,0.20181
4918.30053,0.20055
4916.37179,0.19937
4914.44304,0.19821
4912.51430,0.19690
4910.58555,0.19524
4908.65681,0.19355
4906.72806,0.19227
4904.79932,0.19127
4902.87057,0.19012
4900.94183,0.18842
4899.01308,0.18645
4897.08434,0.18484
4895.15559,0.18358
4893.22684,0.18237
4891.29810,0.18132
4889.36935,0.18051
4887.44061,0.17919
4885.51186,0.17720
4883.58312,0.17575
4881.65437,0.17548
4879.72563,0.17554
4877.79688,0.17501
4875.86814,0.17369
4873.93939,0.17221
4872.01065,0.17157
4870.08190,0.17167
4868.15316,0.17157
4866.22441,0.17100
4864.29566,0.17048
4862.36692,0.17048
4860.43817,0.17067
4858.50943,0.17087
4856.58068,0.17143
4854.65194,0.17220
4852.72319,0.17308
4850.79445,0.17428
4848.86570,0.17560
4846.93696,0.17649
4845.00821,0.17725
4843.07947,0.17831
4841.15072,0.17939
4839.22198,0.18067
4837.29323,0.18231
4835.36449,0.18377
4833.43574,0.18495
4831.50699,0.18605
4829.57825,0.18708
4827.64950,0.18840
4825.72076,0.19030
4823.79201,0.19231
4821.86327,0.19408
4819.93452,0.19580
4818.00578,0.19752
4816.07703,0.19913
4814.14829,0.20048
4812.21954,0.20158
4810.29080,0.20262
4808.36205,0.20381
4806.43331,0.20497
4804.50456,0.20595
4802.57582,0.20702
4800.64707,0.20827
4798.71832,0.20945
4796.78958,0.21039
4794.86083,0.21136
4792.93209,0.21252
4791.00334,0.21356
4789.07460,0.21423
4787.14585,0.21450
4785.21711,0.21463
4783.28836,0.21496
4781.35962,0.21564
4779.43087,0.21653
4777.50213,0.21701
4775.57338,0.21701
4773.64464,0.21717
4771.71589,0.21757
4769.78714,0.21785
4767.85840,0.21801
4765.92965,0.21826
4764.00091,0.21874
4762.07216,0.21933
4760.14342,0.21942
4758.21467,0.21878
4756.28593,0.21812
4754.35718,0.21795
4752.42844,0.21814
4750.49969,0.21844
4748.57095,0.21864
4746.64220,0.21843
4744.71346,0.21792
4742.78471,0.21762
4740.85597,0.21748
4738.92722,0.21719
4736.99847,0.21709
4735.06973,0.21720
4733.14098,0.21678
4731.21224,0.21585
4729.28349,0.21504
4727.35475,0.21441
4725.42600,0.21388
4723.49726,0.21320
4721.56851,0.21240
4719.63977,0.21174
4717.71102,0.21104
4715.78228,0.21027
4713.85353,0.20958
4711.92479,0.20867
4709.99604,0.20752
4708.06729,0.20663
4706.13855,0.20621
4704.20980,0.20596
4702.28106,0.20527
4700.35231,0.20371
4698.42357,0.20168
4696.49482,0.20009
4694.56608,0.19929
4692.63733,0.19868
4690.70859,0.19756
4688.77984,0.19596
4686.85110,0.19441
4684.92235,0.19324
4682.99361,0.19210
4681.06486,0.19053
4679.13612,0.18856
4677.20737,0.18653
4675.27862,0.18482
4673.34988,0.18351
4671.42113,0.18230
4669.49239,0.18086
4667.56364,0.17895
4665.63490,0.17709
4663.70615,0.17595
4661.77741,0.17497
4659.84866,0.17331
4657.91992,0.17147
4655.99117,0.17018
4654.06243,0.16910
4652.13368,0.16762
4650.20494,0.16608
4648.27619,0.16495
4646.34745,0.16370
4644.41870,0.16213
4642.48995,0.16081
4640.56121,0.15973
4638.63246,0.15850
4636.70372,0.15705
4634.77497,0.15545
4632.84623,0.15394
4630.91748,0.15256
4628.98874,0.15119
4627.05999,0.15006
4625.13125,0.14931
4623.20250,0.14863
4621.27376,0.14781
4619.34501,0.14692
4617.41627,0.14617
4615.48752,0.14572
4613.55877,0.14546
4611.63003,0.14514
4609.70128,0.14447
4607.77254,0.14351
4605.84379,0.14290
4603.91505,0.14290
4601.98630,0.14310
4600.05756,0.14316
4598.12881,0.14283
4596.20007,0.14223
4594.27132,0.14188
4592.34258,0.14198
4590.41383,0.14255
4588.48509,0.14320
4586.55634,0.14334
4584.62760,0.14329
4582.69885,0.14354
4580.77010,0.14401
4578.84136,0.14446
4576.91261,0.14487
4574.98387,0.14568
4573.05512,0.14672
4571.12638,0.14699
4569.19763,0.14671
4567.26889,0.14691
4565.34014,0.14764
4563.41140,0.14851
4561.48265,0.14941
4559.55391,0.15010
4557.62516,0.15019
4555.69642,0.14999
4553.76767,0.15020
4551.83893,0.15083
4549.91018,0.15160
4547.98143,0.15226
4546.05269,0.15273
4544.12394,0.15321
4542.19520,0.15390
4540.26645,0.15487
4538.33771,0.15588
4536.40896,0.15651
4534.48022,0.15681
4532.55147,0.15710
4530.62273,0.15751
4528.69398,0.15821
4526.76524,0.15945
4524.83649,0.16086
4522.90775,0.16165
4520.97900,0.16159
4519.05025,0.16149
4517.12151,0.16210
4515.19276,0.16289
4513.26402,0.16328
4511.33527,0.16394
4509.40653,0.16522
4507.47778,0.16642
4505.54904,0.16721
4503.62029,0.16773
4501.69155,0.16819
4499.76280,0.16886
4497.83406,0.16980
4495.90531,0.17079
4493.97657,0.17159
4492.04782,0.17207
4490.11908,0.17218
4488.19033,0.17215
4486.26158,0.17245
4484.33284,0.17312
4482.40409,0.17371
4480.47535,0.17386
4478.54660,0.17376
4476.61786,0.17384
4474.68911,0.17391
4472.76037,0.17372
4470.83162,0.17352
4468.90288,0.17334
4466.97413,0.17290
4465.04539,0.17238
4463.11664,0.17212
4461.18790,0.17208
4459.25915,0.17200
4457.33041,0.17137
4455.40166,0.16999
4453.47291,0.16846
4451.54417,0.16721
4449.61542,0.16618
4447.68668,0.16520
4445.75793,0.16420
4443.82919,0.16320
4441.90044,0.16189
4439.97170,0.16032
4438.04295,0.15906
4436.11421,0.15801
4434.18546,0.15653
4432.25672,0.15469
4430.32797,0.15297
4428.39923,0.15119
4426.47048,0.14923
4424.54173,0.14769
4422.61299,0.14682
4420.68424,0.14613
4418.75550,0.14530
4416.82675,0.14447
4414.89801,0.14357
4412.96926,0.14233
4411.04052,0.14119
4409.11177,0.14045
4407.18303,0.13978
4405.25428,0.13902
4403.32554,0.13822
4401.39679,0.13743
4399.46805,0.13665
4397.53930,0.13614
4395.61056,0.13607
4393.68181,0.13602
4391.75306,0.13561
4389.82432,0.13491
4387.89557,0.13407
4385.96683,0.13336
4384.03808,0.13297
4382.10934,0.13281
4380.18059,0.13258
4378.25185,0.13212
4376.32310,0.13149
4374.39436,0.13073
4372.46561,0.13003
4370.53687,0.12980
4368.60812,0.12995
4366.67938,0.13019
4364.75063,0.13039
4362.82189,0.13040
4360.89314,0.13037
4358.96439,0.13034
4357.03565,0.13009
4355.10690,0.12975
4353.17816,0.12977
4351.24941,0.13032
4349.32067,0.13086
4347.39192,0.13108
4345.46318,0.13147
4343.53443,0.13225
4341.60569,0.13284
4339.67694,0.13299
4337.74820,0.13334
4335.81945,0.13415
4333.89071,0.13495
4331.96196,0.13529
4330.03321,0.13523
4328.10447,0.13514
4326.17572,0.13514
4324.24698,0.13528
4322.31823,0.13575
4320.38949,0.13634
4318.46074,0.13678
4316.53200,0.13733
4314.60325,0.13819
4312.67451,0.13890
4310.74576,0.13922
4308.81702,0.13952
4306.88827,0.13997
4304.95953,0.14033
4303.03078,0.14037
4301.10204,0.14022
4299.17329,0.14005
4297.24454,0.14012
4295.31580,0.14048
4293.38705,0.14065
4291.45831,0.14050
4289.52956,0.14033
4287.60082,0.14018
4285.67207,0.14011
4283.74333,0.13989
4281.81458,0.13894
4279.88584,0.13788
4277.95709,0.13784
4276.02835,0.13843
4274.09960,0.13871
4272.17086,0.13848
4270.24211,0.13806
4268.31336,0.13763
4266.38462,0.13714
4264.45587,0.13671
4262.52713,0.13649
4260.59838,0.13656
4258.66964,0.13699
4256.74089,0.13750
4254.81215,0.13771
4252.88340,0.13772
4250.95466,0.13772
4249.02591,0.13786
4247.09717,0.13830
4245.16842,0.13889
4243.23968,0.13918
4241.31093,0.13928
4239.38219,0.13992
4237.45344,0.14097
4235.52469,0.14165
4233.59595,0.14193
4231.66720,0.14229
4229.73846,0.14269
4227.80971,0.14293
4225.88097,0.14310
4223.95222,0.14327
4222.02348,0.14355
4220.09473,0.14419
4218.16599,0.14503
4216.23724,0.14559
4214.30850,0.14594
4212.37975,0.14634
4210.45101,0.14671
4208.52226,0.14706
4206.59352,0.14745
4204.66477,0.14786
4202.73602,0.14839
4200.80728,0.14879
4198.87853,0.14881
4196.94979,0.14885
4195.02104,0.14909
4193.09230,0.14916
4191.16355,0.14919
4189.23481,0.14943
4187.30606,0.14948
4185.37732,0.14936
4183.44857,0.14960
4181.51983,0.14990
4179.59108,0.14983
4177.66234,0.14977
4175.73359,0.14988
4173.80484,0.15000
4171.87610,0.15017
4169.94735,0.15031
4168.01861,0.15046
4166.08986,0.15085
4164.16112,0.15132
4162.23237,0.15158
4160.30363,0.15159
4158.37488,0.15136
4156.44614,0.15089
4154.51739,0.15055
4152.58865,0.15064
4150.65990,0.15099
4148.73116,0.15127
4146.80241,0.15123
4144.87367,0.15082
4142.94492,0.15030
4141.01617,0.15003
4139.08743,0.15005
4137.15868,0.14998
4135.22994,0.14958
4133.30119,0.14906
4131.37245,0.14886
4129.44370,0.14897
4127.51496,0.14912
4125.58621,0.14911
4123.65747,0.14882
4121.72872,0.14847
4119.79998,0.14837
4117.87123,0.14835
4115.94249,0.14812
4114.01374,0.14769
4112.08500,0.14703
4110.15625,0.14621
4108.22750,0.14558
4106.29876,0.14503
4104.37001,0.14436
4102.44127,0.14374
4100.51252,0.14300
4098.58378,0.14188
4096.65503,0.14075
4094.72629,0.13976
4092.79754,0.13860
4090.86880,0.13754
4088.94005,0.13702
4087.01131,0.13665
4085.08256,0.13588
4083.15382,0.13495
4081.22507,0.13430
4079.29632,0.13374
4077.36758,0.13303
4075.43883,0.13231
4073.51009,0.13164
4071.58134,0.13092
4069.65260,0.13036
4067.72385,0.13005
4065.79511,0.12937
4063.86636,0.12841
4061.93762,0.12786
4060.00887,0.12759
4058.08013,0.12724
4056.15138,0.12698
4054.22264,0.12707
4052.29389,0.12711
4050.36515,0.12668
4048.43640,0.12599
4046.50765,0.12546
4044.57891,0.12535
4042.65016,0.12559
4040.72142,0.12586
4038.79267,0.12594
4036.86393,0.12606
4034.93518,0.12657
4033.00644,0.12719
4031.07769,0.12756
4029.14895,0.12780
4027.22020,0.12797
4025.29146,0.12792
4023.36271,0.12780
4021.43397,0.12802
4019.50522,0.12840
4017.57648,0.12853
4015.64773,0.12856
4013.71898,0.12875
4011.79024,0.12895
4009.86149,0.12904
4007.93275,0.12902
4006.00400,0.12885
4004.07526,0.12850
4002.14651,0.12822
4000.21777,0.12815
3998.28902,0.12799
3996.36028,0.12756
3994.43153,0.12728
3992.50279,0.12742
3990.57404,0.12757
3988.64530,0.12743
3986.71655,0.12715
3984.78780,0.12677
3982.85906,0.12637
3980.93031,0.12617
3979.00157,0.12614
3977.07282,0.12615
3975.14408,0.12610
3973.21533,0.12588
3971.28659,0.12565
3969.35784,0.12559
3967.42910,0.12551
3965.50035,0.12511
3963.57161,0.12453
3961.64286,0.12425
3959.71412,0.12426
3957.78537,0.12402
3955.85663,0.12338
3953.92788,0.12273
3951.99913,0.12262
3950.07039,0.12300
3948.14164,0.12324
3946.21290,0.12295
3944.28415,0.12231
3942.35541,0.12170
3940.42666,0.12145
3938.49792,0.12149
3936.56917,0.12150
3934.64043,0.12145
3932.71168,0.12156
3930.78294,0.12186
3928.85419,0.12204
3926.92545,0.12208
3924.99670,0.12227
3923.06795,0.12268
3921.13921,0.12318
3919.21046,0.12370
3917.28172,0.12427
3915.35297,0.12497
3913.42423,0.12579
3911.49548,0.12657
3909.56674,0.12716
3907.63799,0.12781
3905.70925,0.12887
3903.78050,0.13009
3901.85176,0.13102
3899.92301,0.13169
3897.99427,0.13238
3896.06552,0.13337
3894.13678,0.13459
3892.20803,0.13570
3890.27928,0.13666
3888.35054,0.13750
3886.42179,0.13814
3884.49305,0.13892
3882.56430,0.13984
3880.63556,0.14058
3878.70681,0.14122
3876.77807,0.14174
3874.84932,0.14220
3872.92058,0.14302
3870.99183,0.14415
3869.06309,0.14508
3867.13434,0.14566
3865.20560,0.14599
3863.27685,0.14634
3861.34811,0.14682
3859.41936,0.14726
3857.49061,0.14789
3855.56187,0.14887
3853.63312,0.14960
3851.70438,0.14987
3849.77563,0.15015
3847.84689,0.15047
3845.91814,0.15070
3843.98940,0.15101
3842.06065,0.15156
3840.13191,0.15218
3838.20316,0.15274
3836.27442,0.15331
3834.34567,0.15379
3832.41693,0.15413
3830.48818,0.15447
3828.55943,0.15471
3826.63069,0.15475
3824.70194,0.15482
3822.77320,0.15514
3820.84445,0.15558
3818.91571,0.15604
3816.98696,0.15661
3815.05822,0.15707
3813.12947,0.15713
3811.20073,0.15709
3809.27198,0.15722
3807.34324,0.15705
3805.41449,0.15656
3803.48575,0.15661
3801.55700,0.15722
3799.62826,0.15762
3797.69951,0.15774
3795.77076,0.15791
3793.84202,0.15797
3791.91327,0.15781
3789.98453,0.15772
3788.05578,0.15777
3786.12704,0.15797
3784.19829,0.15820
3782.26955,0.15822
3780.34080,0.15799
3778.41206,0.15746
3776.48331,0.15682
3774.55457,0.15641
3772.62582,0.15617
3770.69708,0.15581
3768.76833,0.15530
3766.83959,0.15488
3764.91084,0.15459
3762.98209,0.15411
3761.05335,0.15330
3759.12460,0.15256
3757.19586,0.15221
3755.26711,0.15204
3753.33837,0.15158
3751.40962,0.15061
3749.48088,0.14936
3747.55213,0.14833
3745.62339,0.14789
3743.69464,0.14773
3741.76590,0.14724
3739.83715,0.14636
3737.90841,0.14539
3735.97966,0.14446
3734.05091,0.14333
3732.12217,0.14206
3730.19342,0.14086
3728.26468,0.13959
3726.33593,0.13820
3724.40719,0.13693
3722.47844,0.13589
3720.54970,0.13491
3718.62095,0.13379
3716.69221,0.13241
3714.76346,0.13071
3712.83472,0.12870
3710.90597,0.12668
3708.97723,0.12474
3707.04848,0.12255
3705.11974,0.12009
3703.19099,0.11768
3701.26224,0.11542
3699.33350,0.11326
3697.40475,0.11109
3695.47601,0.10863
3693.54726,0.10587
3691.61852,0.10304
3689.68977,0.10022
3687.76103,0.09707
3685.83228,0.09355
3683.90354,0.08996
3681.97479,0.08629
3680.04605,0.08245
3678.11730,0.07872
3676.18856,0.07547
3674.25981,0.07271
3672.33107,0.07034
3670.40232,0.06825
3668.47357,0.06603
3666.54483,0.06353
3664.61608,0.06122
3662.68734,0.05939
3660.75859,0.05779
3658.82985,0.05607
3656.90110,0.05407
3654.97236,0.05205
3653.04361,0.05032
3651.11487,0.04888
3649.18612,0.04764
3647.25738,0.04635
3645.32863,0.04485
3643.39989,0.04337
3641.47114,0.04227
3639.54239,0.04155
3637.61365,0.04076
3635.68490,0.03970
3633.75616,0.03855
3631.82741,0.03756
3629.89867,0.03683
3627.96992,0.03611
3626.04118,0.03525
3624.11243,0.03448
3622.18369,0.03381
3620.25494,0.03310
3618.32620,0.03247
3616.39745,0.03202
3614.46871,0.03170
3612.53996,0.03135
3610.61122,0.03097
3608.68247,0.03075
3606.75372,0.03060
3604.82498,0.03014
3602.89623,0.02930
3600.96749,0.02838
3599.03874,0.02775
3597.11000,0.02749
3595.18125,0.02754
3593.25251,0.02753
3591.32376,0.02712
3589.39502,0.02656
3587.46627,0.02614
3585.53753,0.02581
3583.60878,0.02545
3581.68004,0.02494
3579.75129,0.02443
3577.82254,0.02428
3575.89380,0.02444
3573.96505,0.02445
3572.03631,0.02418
3570.10756,0.02381
3568.17882,0.02334
3566.25007,0.02280
3564.32133,0.02249
3562.39258,0.02254
3560.46384,0.02264
3558.53509,0.02255
3556.60635,0.02234
3554.67760,0.02204
3552.74886,0.02169
3550.82011,0.02152
3548.89137,0.02170
3546.96262,0.02212
3545.03387,0.02231
3543.10513,0.02196
3541.17638,0.02133
3539.24764,0.02085
3537.31889,0.02068
3535.39015,0.02077
3533.46140,0.02090
3531.53266,0.02102
3529.60391,0.02111
3527.67517,0.02102
3525.74642,0.02069
3523.81768,0.02038
3521.88893,0.02031
3519.96019,0.02018
3518.03144,0.01996
3516.10270,0.01989
3514.17395,0.01987
3512.24520,0.01986
3510.31646,0.01990
3508.38771,0.01997
3506.45897,0.02008
3504.53022,0.02009
3502.60148,0.02007
3500.67273,0.02004
3498.74399,0.01987
3496.81524,0.01965
3494.88650,0.01955
3492.95775,0.01934
3491.02901,0.01901
3489.10026,0.01891
3487.17152,0.01889
3485.24277,0.01871
3483.31402,0.01860
3481.38528,0.01864
3479.45653,0.01864
3477.52779,0.01865
3475.59904,0.01867
3473.67030,0.01859
3471.74155,0.01845
3469.81281,0.01829
3467.88406,0.01821
3465.95532,0.01830
3464.02657,0.01849
3462.09783,0.01853
3460.16908,0.01826
3458.24034,0.01783
3456.31159,0.01770
3454.38285,0.01795
3452.45410,0.01827
3450.52535,0.01858
3448.59661,0.01883
3446.66786,0.01862
3444.73912,0.01809
3442.81037,0.01784
3440.88163,0.01788
3438.95288,0.01796
3437.02414,0.01789
3435.09539,0.01741
3433.16665,0.01696
3431.23790,0.01725
3429.30916,0.01794
3427.38041,0.01829
3425.45167,0.01835
3423.52292,0.01824
3421.59418,0.01786
3419.66543,0.01748
3417.73668,0.01738
3415.80794,0.01744
3413.87919,0.01742
3411.95045,0.01729
3410.02170,0.01711
3408.09296,0.01704
3406.16421,0.01721
3404.23547,0.01741
3402.30672,0.01753
3400.37798,0.01779
3398.44923,0.01824
3396.52049,0.01854
3394.59174,0.01855
3392.66300,0.01822
3390.73425,0.01765
3388.80550,0.01722
3386.87676,0.01698
3384.94801,0.01681
3383.01927,0.01685
3381.09052,0.01708
3379.16178,0.01725
3377.23303,0.01720
3375.30429,0.01695
3373.37554,0.01672
3371.44680,0.01670
3369.51805,0.01678
3367.58931,0.01672
3365.66056,0.01658
3363.73182,0.01665
3361.80307,0.01690
3359.87433,0.01706
3357.94558,0.01715
3356.01683,0.01721
3354.08809,0.01700
3352.15934,0.01670
3350.23060,0.01677
3348.30185,0.01719
3346.37311,0.01741
3344.44436,0.01720
3342.51562,0.01708
3340.58687,0.01731
3338.65813,0.01751
3336.72938,0.01760
3334.80064,0.01761
3332.87189,0.01742
3330.94315,0.01732
3329.01440,0.01749
3327.08566,0.01739
3325.15691,0.01696
3323.22816,0.01675
3321.29942,0.01674
3319.37067,0.01668
3317.44193,0.01661
3315.51318,0.01668
3313.58444,0.01694
3311.65569,0.01703
3309.72695,0.01684
3307.79820,0.01677
3305.86946,0.01685
3303.94071,0.01712
3302.01197,0.01776
3300.08322,0.01819
3298.15448,0.01798
3296.22573,0.01771
3294.29698,0.01777
3292.36824,0.01785
3290.43949,0.01773
3288.51075,0.01737
3286.58200,0.01704
3284.65326,0.01700
3282.72451,0.01714
3280.79577,0.01713
3278.86702,0.01687
3276.93828,0.01684
3275.00953,0.01730
3273.08079,0.01761
3271.15204,0.01738
3269.22330,0.01714
3267.29455,0.01728
3265.36581,0.01756
3263.43706,0.01762
3261.50831,0.01749
3259.57957,0.01745
3257.65082,0.01751
3255.72208,0.01741
3253.79333,0.01705
3251.86459,0.01682
3249.93584,0.01721
3248.00710,0.01789
3246.07835,0.01806
3244.14961,0.01803
3242.22086,0.01821
3240.29212,0.01817
3238.36337,0.01780
3236.43463,0.01744
3234.50588,0.01714
3232.57713,0.01705
3230.64839,0.01728
3228.71964,0.01767
3226.79090,0.01799
3224.86215,0.01810
3222.93341,0.01804
3221.00466,0.01786
3219.07592,0.01766
3217.14717,0.01758
3215.21843,0.01766
3213.28968,0.01787
3211.36094,0.01809
3209.43219,0.01824
3207.50345,0.01837
3205.57470,0.01841
3203.64596,0.01828
3201.71721,0.01806
3199.78846,0.01801
3197.85972,0.01842
3195.93097,0.01892
3194.00223,0.01890
3192.07348,0.01857
3190.14474,0.01827
3188.21599,0.01807
3186.28725,0.01814
3184.35850,0.01848
3182.42976,0.01878
3180.50101,0.01882
3178.57227,0.01877
3176.64352,0.01872
3174.71478,0.01870
3172.78603,0.01866
3170.85729,0.01858
3168.92854,0.01860
3166.99979,0.01864
3165.07105,0.01853
3163.14230,0.01835
3161.21356,0.01837
3159.28481,0.01852
3157.35607,0.01847
3155.42732,0.01835
3153.49858,0.01842
3151.56983,0.01859
3149.64109,0.01872
3147.71234,0.01872
3145.78360,0.01854
3143.85485,0.01838
3141.92611,0.01843
3139.99736,0.01863
3138.06861,0.01891
3136.13987,0.01919
3134.21112,0.01915
3132.28238,0.01889
3130.35363,0.01885
3128.42489,0.01903
3126.49614,0.01916
3124.56740,0.01916
3122.63865,0.01900
3120.70991,0.01884
3118.78116,0.01902
3116.85242,0.01930
3114.92367,0.01928
3112.99493,0.01912
3111.06618,0.01903
3109.13744,0.01891
3107.20869,0.01880
3105.27994,0.01881
3103.35120,0.01888
3101.42245,0.01892
3099.49371,0.01897
3097.56496,0.01902
3095.63622,0.01894
3093.70747,0.01883
3091.77873,0.01894
3089.84998,0.01918
3087.92124,0.01936
3085.99249,0.01942
3084.06375,0.01930
3082.13500,0.01899
3080.20626,0.01865
3078.27751,0.01844
3076.34877,0.01836
3074.42002,0.01839
3072.49127,0.01844
3070.56253,0.01849
3068.63378,0.01857
3066.70504,0.01862
3064.77629,0.01865
3062.84755,0.01869
3060.91880,0.01867
3058.99006,0.01868
3057.06131,0.01884
3055.13257,0.01892
3053.20382,0.01894
3051.27508,0.01903
3049.34633,0.01894
3047.41759,0.01868
3045.48884,0.01872
3043.56009,0.01913
3041.63135,0.01936
3039.70260,0.01907
3037.77386,0.01876
3035.84511,0.01891
3033.91637,0.01930
3031.98762,0.01945
3030.05888,0.01933
3028.13013,0.01935
3026.20139,0.01956
3024.27264,0.01972
3022.34390,0.01977
3020.41515,0.01973
3018.48641,0.01960
3016.55766,0.01933
3014.62892,0.01902
3012.70017,0.01896
3010.77142,0.01917
3008.84268,0.01947
3006.91393,0.01972
3004.98519,0.01970
3003.05644,0.01941
3001.12770,0.01923
2999.19895,0.01924
2997.27021,0.01920
2995.34146,0.01889
2993.41272,0.01846
2991.48397,0.01830
2989.55523,0.01842
2987.62648,0.01853
2985.69774,0.01851
2983.76899,0.01847
2981.84025,0.01841
2979.91150,0.01821
2977.98275,0.01801
2976.05401,0.01811
2974.12526,0.01829
2972.19652,0.01820
2970.26777,0.01798
2968.33903,0.01783
2966.41028,0.01762
2964.48154,0.01730
2962.55279,0.01723
2960.62405,0.01749
2958.69530,0.01761
2956.76656,0.01760
2954.83781,0.01772
2952.90907,0.01793
2950.98032,0.01806
2949.05157,0.01798
2947.12283,0.01778
2945.19408,0.01775
2943.26534,0.01797
2941.33659,0.01819
2939.40785,0.01803
2937.47910,0.01762
2935.55036,0.01747
2933.62161,0.01763
2931.69287,0.01781
2929.76412,0.01792
2927.83538,0.01785
2925.90663,0.01762
2923.97789,0.01763
2922.04914,0.01800
2920.12040,0.01825
2918.19165,0.01819
2916.26290,0.01814
2914.33416,0.01819
2912.40541,0.01811
2910.47667,0.01796
2908.54792,0.01805
2906.61918,0.01833
2904.69043,0.01862
2902.76169,0.01882
2900.83294,0.01894
2898.90420,0.01896
2896.97545,0.01890
2895.04671,0.01881
2893.11796,0.01880
2891.18922,0.01898
2889.26047,0.01917
2887.33172,0.01924
2885.40298,0.01932
2883.47423,0.01933
2881.54549,0.01918
2879.61674,0.01895
2877.68800,0.01887
2875.75925,0.01903
2873.83051,0.01910
2871.90176,0.01895
2869.97302,0.01893
2868.04427,0.01916
2866.11553,0.01956
2864.18678,0.01984
2862.25804,0.01975
2860.32929,0.01945
2858.40055,0.01931
2856.47180,0.01938
2854.54305,0.01949
2852.61431,0.01952
2850.68556,0.01958
2848.75682,0.01987
2846.82807,0.02052
2844.89933,0.02129
2842.97058,0.02166
2841.04184,0.02156
2839.11309,0.02149
2837.18435,0.02168
2835.25560,0.02194
2833.32686,0.02202
2831.39811,0.02191
2829.46937,0.02184
2827.54062,0.02205
2825.61188,0.02242
2823.68313,0.02267
2821.75438,0.02283
2819.82564,0.02276
2817.89689,0.02247
2815.96815,0.02241
2814.03940,0.02268
2812.11066,0.02292
2810.18191,0.02305
2808.25317,0.02314
2806.32442,0.02310
2804.39568,0.02306
2802.46693,0.02318
2800.53819,0.02335
2798.60944,0.02354
2796.68070,0.02371
2794.75195,0.02364
2792.82320,0.02336
2790.89446,0.02322
2788.96571,0.02344
2787.03697,0.02378
2785.10822,0.02391
2783.17948,0.02395
2781.25073,0.02411
2779.32199,0.02426
2777.39324,0.02429
2775.46450,0.02425
2773.53575,0.02419
2771.60701,0.02424
2769.67826,0.02454
2767.74952,0.02490
2765.82077,0.02504
2763.89203,0.02512
2761.96328,0.02534
2760.03453,0.02559
2758.10579,0.02561
2756.17704,0.02542
2754.24830,0.02547
2752.31955,0.02583
2750.39081,0.02604
2748.46206,0.02588
2746.53332,0.02566
2744.60457,0.02576
2742.67583,0.02616
2740.74708,0.02653
2738.81834,0.02663
2736.88959,0.02659
2734.96085,0.02669
2733.03210,0.02686
2731.10336,0.02709
2729.17461,0.02742
2727.24586,0.02761
2725.31712,0.02747
2723.38837,0.02732
2721.45963,0.02739
2719.53088,0.02768
2717.60214,0.02817
2715.67339,0.02841
2713.74465,0.02826
2711.81590,0.02821
2709.88716,0.02831
2707.95841,0.02833
2706.02967,0.02843
2704.10092,0.02870
2702.17218,0.02889
2700.24343,0.02893
2698.31468,0.02896
2696.38594,0.02910
2694.45719,0.02942
2692.52845,0.02972
2690.59970,0.02980
2688.67096,0.02980
2686.74221,0.02997
2684.81347,0.03021
2682.88472,0.03030
2680.95598,0.03026
2679.02723,0.03014
2677.09849,0.03003
2675.16974,0.03011
2673.24100,0.03040
2671.31225,0.03072
2669.38351,0.03089
2667.45476,0.03103
2665.52601,0.03129
2663.59727,0.03151
2661.66852,0.03144
2659.73978,0.03123
2657.81103,0.03123
2655.88229,0.03141
2653.95354,0.03159
2652.02480,0.03169
2650.09605,0.03179
2648.16731,0.03192
2646.23856,0.03206
2644.30982,0.03217
2642.38107,0.03217
2640.45233,0.03206
2638.52358,0.03202
2636.59484,0.03216
2634.66609,0.03235
2632.73734,0.03247
2630.80860,0.03251
2628.87985,0.03248
2626.95111,0.03252
2625.02236,0.03270
2623.09362,0.03286
2621.16487,0.03292
2619.23613,0.03309
2617.30738,0.03333
2615.37864,0.03342
2613.44989,0.03348
2611.52115,0.03372
2609.59240,0.03394
2607.66366,0.03392
2605.73491,0.03380
2603.80616,0.03372
2601.87742,0.03378
2599.94867,0.03413
2598.01993,0.03472
2596.09118,0.03518
2594.16244,0.03536
2592.23369,0.03540
2590.30495,0.03541
2588.37620,0.03541
2586.44746,0.03550
2584.51871,0.03571
2582.58997,0.03597
2580.66122,0.03620
2578.73248,0.03636
2576.80373,0.03643
2574.87499,0.03642
2572.94624,0.03641
2571.01749,0.03649
2569.08875,0.03666
2567.16000,0.03691
2565.23126,0.03729
2563.30251,0.03767
2561.37377,0.03776
2559.44502,0.03763
2557.51628,0.03766
2555.58753,0.03785
2553.65879,0.03803
2551.73004,0.03824
2549.80130,0.03848
2547.87255,0.03859
2545.94381,0.03855
2544.01506,0.03857
2542.08631,0.03878
2540.15757,0.03895
2538.22882,0.03897
2536.30008,0.03908
2534.37133,0.03937
2532.44259,0.03955
2530.51384,0.03952
2528.58510,0.03953
2526.65635,0.03966
2524.72761,0.03988
2522.79886,0.04012
2520.87012,0.04012
2518.94137,0.03994
2517.01263,0.03993
2515.08388,0.04011
2513.15514,0.04032
2511.22639,0.04048
2509.29764,0.04057
2507.36890,0.04071
2505.44015,0.04093
2503.51141,0.04108
2501.58266,0.04113
2499.65392,0.04127
2497.72517,0.04158
2495.79643,0.04187
2493.86768,0.04206
2491.93894,0.04218
2490.01019,0.04227
2488.08145,0.04244
2486.15270,0.04263
2484.22396,0.04268
2482.29521,0.04267
2480.36647,0.04281
2478.43772,0.04311
2476.50897,0.04347
2474.58023,0.04381
2472.65148,0.04407
2470.72274,0.04425
2468.79399,0.04441
2466.86525,0.04461
2464.93650,0.04489
2463.00776,0.04518
2461.07901,0.04541
2459.15027,0.04554
2457.22152,0.04568
2455.29278,0.04585
2453.36403,0.04591
2451.43529,0.04599
2449.50654,0.04632
2447.57779,0.04675
2445.64905,0.04703
2443.72030,0.04713
2441.79156,0.04720
2439.86281,0.04739
2437.93407,0.04767
2436.00532,0.04799
2434.07658,0.04825
2432.14783,0.04840
2430.21909,0.04850
2428.29034,0.04868
2426.36160,0.04893
2424.43285,0.04912
2422.50411,0.04928
2420.57536,0.04952
2418.64662,0.04973
2416.71787,0.04987
2414.78912,0.05003
2412.86038,0.05034
2410.93163,0.05064
2409.00289,0.05077
2407.07414,0.05096
2405.14540,0.05138
2403.21665,0.05183
2401.28791,0.05221
2399.35916,0.05251
2397.43042,0.05258
2395.50167,0.05248
2393.57293,0.05254
2391.64418,0.05281
2389.71544,0.05304
2387.78669,0.05320
2385.85795,0.05340
2383.92920,0.05372
2382.00045,0.05407
2380.07171,0.05424
2378.14296,0.05427
2376.21422,0.05436
2374.28547,0.05453
2372.35673,0.05472
2370.42798,0.05496
2368.49924,0.05523
2366.57049,0.05550
2364.64175,0.05566
2362.71300,0.05572
2360.78426,0.05571
2358.85551,0.05564
2356.92677,0.05563
2354.99802,0.05571
2353.06927,0.05591
2351.14053,0.05629
2349.21178,0.05666
2347.28304,0.05673
2345.35429,0.05665
2343.42555,0.05671
2341.49680,0.05687
2339.56806,0.05685
2337.63931,0.05676
2335.71057,0.05685
2333.78182,0.05708
2331.85308,0.05742
2329.92433,0.05773
2327.99559,0.05770
2326.06684,0.05757
2324.13810,0.05771
2322.20935,0.05799
2320.28060,0.05809
2318.35186,0.05802
2316.42311,0.05796
2314.49437,0.05804
2312.56562,0.05813
2310.63688,0.05812
2308.70813,0.05818
2306.77939,0.05832
2304.85064,0.05841
2302.92190,0.05853
2300.99315,0.05880
2299.06441,0.05910
2297.13566,0.05916
2295.20692,0.05902
2293.27817,0.05895
2291.34943,0.05899
2289.42068,0.05899
2287.49193,0.05906
2285.56319,0.05928
2283.63444,0.05945
2281.70570,0.05940
2279.77695,0.05939
2277.84821,0.05968
2275.91946,0.05997
2273.99072,0.05991
2272.06197,0.05975
2270.13323,0.05979
2268.20448,0.06006
2266.27574,0.06028
2264.34699,0.06025
2262.41825,0.06009
2260.48950,0.06001
2258.56075,0.06009
2256.63201,0.06019
2254.70326,0.06019
2252.77452,0.06006
2250.84577,0.05990
2248.91703,0.05994
2246.98828,0.06007
2245.05954,0.06003
2243.13079,0.05989
2241.20205,0.05986
2239.27330,0.06006
2237.34456,0.06035
2235.41581,0.06052
2233.48707,0.06053
2231.55832,0.06053
2229.62958,0.06058
2227.70083,0.06066
2225.77208,0.06070
2223.84334,0.06069
2221.91459,0.06063
2219.98585,0.06044
2218.05710,0.06020
2216.12836,0.06026
2214.19961,0.06052
2212.27087,0.06059
2210.34212,0.06053
2208.41338,0.06049
2206.48463,0.06041
2204.55589,0.06032
2202.62714,0.06037
2200.69840,0.06050
2198.76965,0.06059
2196.84090,0.06067
2194.91216,0.06085
2192.98341,0.06107
2191.05467,0.06111
2189.12592,0.06095
2187.19718,0.06088
2185.26843,0.06091
2183.33969,0.06084
2181.41094,0.06079
2179.48220,0.06088
2177.55345,0.06096
2175.62471,0.06099
2173.69596,0.06100
2171.76722,0.06102
2169.83847,0.06106
2167.90973,0.06111
2165.98098,0.06119
2164.05223,0.06118
2162.12349,0.06114
2160.19474,0.06120
2158.26600,0.06124
2156.33725,0.06115
2154.40851,0.06109
2152.47976,0.06099
2150.55102,0.06083
2148.62227,0.06076
2146.69353,0.06078
2144.76478,0.06074
2142.83604,0.06065
2140.90729,0.06065
2138.97855,0.06073
2137.04980,0.06081
2135.12106,0.06081
2133.19231,0.06077
2131.26356,0.06085
2129.33482,0.06092
2127.40607,0.06085
2125.47733,0.06079
2123.54858,0.06077
2121.61984,0.06069
2119.69109,0.06065
2117.76235,0.06079
2115.83360,0.06092
2113.90486,0.06098
2111.97611,0.06101
2110.04737,0.06105
2108.11862,0.06112
2106.18988,0.06104
2104.26113,0.06082
2102.33238,0.06075
2100.40364,0.06082
2098.47489,0.06084
2096.54615,0.06091
2094.61740,0.06105
2092.68866,0.06104
2090.75991,0.06096
2088.83117,0.06100
2086.90242,0.06112
2084.97368,0.06118
2083.04493,0.06120
2081.11619,0.06130
2079.18744,0.06150
2077.25870,0.06170
2075.32995,0.06166
2073.40121,0.06147
2071.47246,0.06149
2069.54371,0.06178
2067.61497,0.06202
2065.68622,0.06208
2063.75748,0.06216
2061.82873,0.06232
2059.89999,0.06242
2057.97124,0.06255
2056.04250,0.06272
2054.11375,0.06279
2052.18501,0.06277
2050.25626,0.06272
2048.32752,0.06278
2046.39877,0.06316
2044.47003,0.06356
2042.54128,0.06368
2040.61254,0.06373
2038.68379,0.06383
2036.75504,0.06373
2034.82630,0.06348
2032.89755,0.06347
2030.96881,0.06374
2029.04006,0.06399
2027.11132,0.06410
2025.18257,0.06417
2023.25383,0.06422
2021.32508,0.06421
2019.39634,0.06429
2017.46759,0.06444
2015.53885,0.06458
2013.61010,0.06469
2011.68136,0.06473
2009.75261,0.06478
2007.82386,0.06488
2005.89512,0.06496
2003.96637,0.06499
2002.03763,0.06493
2000.10888,0.06479
1998.18014,0.06475
1996.25139,0.06487
1994.32265,0.06497
1992.39390,0.06492
1990.46516,0.06482
1988.53641,0.06470
1986.60767,0.06457
1984.67892,0.06453
1982.75018,0.06462
1980.82143,0.06469
1978.89269,0.06467
1976.96394,0.06455
1975.03519,0.06440
1973.10645,0.06437
1971.17770,0.06442
1969.24896,0.06433
1967.32021,0.06416
1965.39147,0.06414
1963.46272,0.06422
1961.53398,0.06423
1959.60523,0.06420
1957.67649,0.06419
1955.74774,0.06425
1953.81900,0.06435
1951.89025,0.06438
1949.96151,0.06432
1948.03276,0.06427
1946.10402,0.06438
1944.17527,0.06451
1942.24652,0.06441
1940.31778,0.06418
1938.38903,0.06404
1936.46029,0.06402
1934.53154,0.06405
1932.60280,0.06408
1930.67405,0.06408
1928.74531,0.06406
1926.81656,0.06400
1924.88782,0.06393
1922.95907,0.06383
1921.03033,0.06366
1919.10158,0.06353
1917.17284,0.06347
1915.24409,0.06321
1913.31534,0.06285
1911.38660,0.06274
1909.45785,0.06278
1907.52911,0.06262
1905.60036,0.06224
1903.67162,0.06192
1901.74287,0.06171
1899.81413,0.06145
1897.88538,0.06116
1895.95664,0.06096
1894.02789,0.06075
1892.09915,0.06045
1890.17040,0.06024
1888.24166,0.06004
1886.31291,0.05967
1884.38417,0.05928
1882.45542,0.05909
1880.52667,0.05906
1878.59793,0.05897
1876.66918,0.05878
1874.74044,0.05864
1872.81169,0.05847
1870.88295,0.05812
1868.95420,0.05780
1867.02546,0.05761
1865.09671,0.05735
1863.16797,0.05695
1861.23922,0.05668
1859.31048,0.05658
1857.38173,0.05646
1855.45299,0.05635
1853.52424,0.05614
1851.59549,0.05563
1849.66675,0.05501
1847.73800,0.05463
1845.80926,0.05448
1843.88051,0.05426
1841.95177,0.05378
1840.02302,0.05313
1838.09428,0.05249
1836.16553,0.05196
1834.23679,0.05151
1832.30804,0.05102
1830.37930,0.05044
1828.45055,0.04990
1826.52181,0.04939
1824.59306,0.04878
1822.66432,0.04818
1820.73557,0.04772
1818.80682,0.04735
1816.87808,0.04696
1814.94933,0.04643
1813.02059,0.04574
1811.09184,0.04510
1809.16310,0.04460
1807.23435,0.04413
1805.30561,0.04366
1803.37686,0.04311
1801.44812,0.04233
1799.51937,0.04147
1797.59063,0.04096
1795.66188,0.04074
1793.73314,0.04026
1791.80439,0.03936
1789.87565,0.03840
1787.94690,0.03769
1786.01815,0.03721
1784.08941,0.03678
1782.16066,0.03620
1780.23192,0.03555
1778.30317,0.03496
1776.37443,0.03440
1774.44568,0.03378
1772.51694,0.03298
1770.58819,0.03210
1768.65945,0.03135
1766.73070,0.03067
1764.80196,0.03001
1762.87321,0.02942
1760.94447,0.02881
1759.01572,0.02807
1757.08697,0.02717
1755.15823,0.02626
1753.22948,0.02552
1751.30074,0.02485
1749.37199,0.02412
1747.44325,0.02329
1745.51450,0.02251
1743.58576,0.02193
1741.65701,0.02143
1739.72827,0.02094
1737.79952,0.02049
1735.87078,0.01996
1733.94203,0.01934
1732.01329,0.01887
1730.08454,0.01855
1728.15580,0.01822
1726.22705,0.01781
1724.29830,0.01738
1722.36956,0.01702
1720.44081,0.01671
1718.51207,0.01630
1716.58332,0.01581
1714.65458,0.01541
1712.72583,0.01509
1710.79709,0.01476
1708.86834,0.01445
1706.93960,0.01415
1705.01085,0.01393
1703.08211,0.01385
1701.15336,0.01376
1699.22462,0.01362
1697.29587,0.01359
1695.36713,0.01362
1693.43838,0.01356
1691.50963,0.01349
1689.58089,0.01347
1687.65214,0.01347
1685.72340,0.01350
1683.79465,0.01366
1681.86591,0.01395
1679.93716,0.01423
1678.00842,0.01431
1676.07967,0.01401
1674.15093,0.01366
1672.22218,0.01373
1670.29344,0.01412
1668.36469,0.01448
1666.43595,0.01479
1664.50720,0.01508
1662.57845,0.01533
1660.64971,0.01556
1658.72096,0.01569
1656.79222,0.01577
1654.86347,0.01599
1652.93473,0.01632
1651.00598,0.01659
1649.07724,0.01685
1647.14849,0.01703
1645.21975,0.01702
1643.29100,0.01711
1641.36226,0.01743
1639.43351,0.01766
1637.50477,0.01764
1635.57602,0.01761
1633.64728,0.01773
1631.71853,0.01781
1629.78978,0.01780
1627.86104,0.01783
1625.93229,0.01799
1624.00355,0.01800
1622.07480,0.01772
1620.14606,0.01751
1618.21731,0.01762
1616.28857,0.01781
1614.35982,0.01779
1612.43108,0.01752
1610.50233,0.01721
1608.57359,0.01708
1606.64484,0.01716
1604.71610,0.01729
1602.78735,0.01720
1600.85861,0.01694
1598.92986,0.01680
1597.00111,0.01683
1595.07237,0.01687
1593.14362,0.01679
1591.21488,0.01666
1589.28613,0.01667
1587.35739,0.01678
1585.42864,0.01686
1583.49990,0.01687
1581.57115,0.01686
1579.64241,0.01671
1577.71366,0.01636
1575.78492,0.01598
1573.85617,0.01576
1571.92743,0.01569
1569.99868,0.01571
1568.06993,0.01572
1566.14119,0.01568
1564.21244,0.01564
1562.28370,0.01563
1560.35495,0.01559
1558.42621,0.01550
1556.49746,0.01555
1554.56872,0.01567
1552.63997,0.01553
1550.71123,0.01525
1548.78248,0.01529
1546.85374,0.01566
1544.92499,0.01610
1542.99625,0.01647
1541.06750,0.01670
1539.13876,0.01671
1537.21001,0.01669
1535.28126,0.01685
1533.35252,0.01710
1531.42377,0.01724
1529.49503,0.01724
1527.56628,0.01721
1525.63754,0.01713
1523.70879,0.01702
1521.78005,0.01699
1519.85130,0.01713
1517.92256,0.01732
1515.99381,0.01741
1514.06507,0.01748
1512.13632,0.01765
1510.20758,0.01780
1508.27883,0.01793
1506.35008,0.01810
1504.42134,0.01818
1502.49259,0.01816
1500.56385,0.01817
1498.63510,0.01827
1496.70636,0.01846
1494.77761,0.01858
1492.84887,0.01862
1490.92012,0.01871
1488.99138,0.01868
1487.06263,0.01837
1485.13389,0.01816
1483.20514,0.01819
1481.27640,0.01820
1479.34765,0.01809
1477.41891,0.01791
1475.49016,0.01780
1473.56141,0.01775
1471.63267,0.01776
1469.70392,0.01785
1467.77518,0.01784
1465.84643,0.01755
1463.91769,0.01716
1461.98894,0.01703
1460.06020,0.01716
1458.13145,0.01724
1456.20271,0.01712
1454.27396,0.01695
1452.34522,0.01693
1450.41647,0.01708
1448.48773,0.01724
1446.55898,0.01730
1444.63024,0.01728
1442.70149,0.01732
1440.77274,0.01746
1438.84400,0.01761
1436.91525,0.01778
1434.98651,0.01782
1433.05776,0.01768
1431.12902,0.01760
1429.20027,0.01763
1427.27153,0.01767
1425.34278,0.01762
1423.41404,0.01744
1421.48529,0.01728
1419.55655,0.01728
1417.62780,0.01729
1415.69906,0.01719
1413.77031,0.01709
1411.84156,0.01707
1409.91282,0.01710
1407.98407,0.01714
1406.05533,0.01714
1404.12658,0.01706
1402.19784,0.01693
1400.26909,0.01672
1398.34035,0.01657
1396.41160,0.01665
1394.48286,0.01683
1392.55411,0.01696
1390.62537,0.01704
1388.69662,0.01715
1386.76788,0.01725
1384.83913,0.01717
1382.91039,0.01703
1380.98164,0.01703
1379.05289,0.01716
1377.12415,0.01735
1375.19540,0.01742
1373.26666,0.01727
1371.33791,0.01723
1369.40917,0.01743
1367.48042,0.01757
1365.55168,0.01750
1363.62293,0.01748
1361.69419,0.01759
1359.76544,0.01760
1357.83670,0.01755
1355.90795,0.01763
1353.97921,0.01768
1352.05046,0.01755
1350.12172,0.01742
1348.19297,0.01749
1346.26422,0.01772
1344.33548,0.01775
1342.40673,0.01746
1340.47799,0.01720
1338.54924,0.01720
1336.62050,0.01721
1334.69175,0.01706
1332.76301,0.01695
1330.83426,0.01705
1328.90552,0.01725
1326.97677,0.01735
1325.04803,0.01730
1323.11928,0.01714
1321.19054,0.01701
1319.26179,0.01712
1317.33304,0.01738
1315.40430,0.01752
1313.47555,0.01750
1311.54681,0.01739
1309.61806,0.01724
1307.68932,0.01716
1305.76057,0.01718
1303.83183,0.01711
1301.90308,0.01692
1299.97434,0.01676
1298.04559,0.01678
1296.11685,0.01687
1294.18810,0.01684
1292.25936,0.01677
1290.33061,0.01689
1288.40187,0.01711
1286.47312,0.01710
1284.54437,0.01682
1282.61563,0.01671
1280.68688,0.01690
1278.75814,0.01715
1276.82939,0.01719
1274.90065,0.01702
1272.97190,0.01697
1271.04316,0.01711
1269.11441,0.01723
1267.18567,0.01721
1265.25692,0.01711
1263.32818,0.01709
1261.39943,0.01711
1259.47069,0.01706
1257.54194,0.01701
1255.61320,0.01696
1253.68445,0.01686
1251.75570,0.01677
1249.82696,0.01680
1247.89821,0.01691
1245.96947,0.01697
1244.04072,0.01693
1242.11198,0.01700
1240.18323,0.01719
1238.25449,0.01730
1236.32574,0.01728
1234.39700,0.01722
1232.46825,0.01725
1230.53951,0.01748
1228.61076,0.01778
1226.68202,0.01787
1224.75327,0.01781
1222.82452,0.01782
1220.89578,0.01791
1218.96703,0.01804
1217.03829,0.01817
1215.10954,0.01812
1213.18080,0.01792
1211.25205,0.01784
1209.32331,0.01792
1207.39456,0.01799
1205.46582,0.01799
1203.53707,0.01803
1201.60833,0.01813
1199.67958,0.01817
1197.75084,0.01816
1195.82209,0.01808
1193.89335,0.01799
1191.96460,0.01814
1190.03585,0.01841
1188.10711,0.01844
1186.17836,0.01824
1184.24962,0.01802
1182.32087,0.01793
1180.39213,0.01806
1178.46338,0.01829
1176.53464,0.01833
1174.60589,0.01814
1172.67715,0.01794
1170.74840,0.01790
1168.81966,0.01794
1166.89091,0.01797
1164.96217,0.01814
1163.03342,0.01842
1161.10467,0.01859
1159.17593,0.01843
1157.24718,0.01797
1155.31844,0.01779
1153.38969,0.01808
1151.46095,0.01833
1149.53220,0.01851
1147.60346,0.01869
1145.67471,0.01857
1143.74597,0.01848
1141.81722,0.01890
1139.88848,0.01937
1137.95973,0.01927
1136.03099,0.01882
1134.10224,0.01856
1132.17350,0.01863
1130.24475,0.01881
1128.31600,0.01873
1126.38726,0.01844
1124.45851,0.01835
1122.52977,0.01835
1120.60102,0.01809
1118.67228,0.01786
1116.74353,0.01808
1114.81479,0.01840
1112.88604,0.01841
1110.95730,0.01820
1109.02855,0.01812
1107.09981,0.01832
1105.17106,0.01852
1103.24232,0.01858
1101.31357,0.01874
1099.38483,0.01887
1097.45608,0.01871
1095.52733,0.01841
1093.59859,0.01815
1091.66984,0.01820
1089.74110,0.01856
1087.81235,0.01877
1085.88361,0.01881
1083.95486,0.01911
1082.02612,0.01958
1080.09737,0.01982
1078.16863,0.01988
1076.23988,0.01994
1074.31114,0.01989
1072.38239,0.01965
1070.45365,0.01937
1068.52490,0.01943
1066.59615,0.01963
1064.66741,0.01952
1062.73866,0.01937
1060.80992,0.01957
1058.88117,0.01988
1056.95243,0.01986
1055.02368,0.01946
1053.09494,0.01908
1051.16619,0.01893
1049.23745,0.01875
1047.30870,0.01848
1045.37996,0.01849
1043.45121,0.01875
1041.52247,0.01888
1039.59372,0.01897
1037.66498,0.01934
1035.73623,0.01983
1033.80748,0.02015
1031.87874,0.02043
1029.94999,0.02074
1028.02125,0.02106
1026.09250,0.02160
1024.16376,0.02225
1022.23501,0.02255
1020.30627,0.02253
1018.37752,0.02266
1016.44878,0.02300
1014.52003,0.02358
1012.59129,0.02436
1010.66254,0.02490
1008.73380,0.02502
1006.80505,0.02512
1004.87631,0.02544
1002.94756,0.02570
1001.01881,0.02569
999.09007,0.02568
997.16132,0.02567
995.23258,0.02521
993.30383,0.02457
991.37509,0.02461
989.44634,0.02535
987.51760,0.02605
985.58885,0.02637
983.66011,0.02645
981.73136,0.02646
979.80262,0.02656
977.87387,0.02687
975.94513,0.02712
974.01638,0.02715
972.08763,0.02715
970.15889,0.02725
968.23014,0.02745
966.30140,0.02769
964.37265,0.02787
962.44391,0.02805
960.51516,0.02821
958.58642,0.02802
956.65767,0.02758
954.72893,0.02746
952.80018,0.02757
950.87144,0.02751
948.94269,0.02729
947.01395,0.02709
945.08520,0.02708
943.15646,0.02724
941.22771,0.02736
939.29896,0.02724
937.37022,0.02673
935.44147,0.02608
933.51273,0.02579
931.58398,0.02596
929.65524,0.02626
927.72649,0.02638
925.79775,0.02636
923.86900,0.02632
921.94026,0.02630
920.01151,0.02625
918.08277,0.02615
916.15402,0.02612
914.22528,0.02608
912.29653,0.02601
910.36779,0.02624
908.43904,0.02663
906.51029,0.02682
904.58155,0.02682
902.65280,0.02671
900.72406,0.02646
898.79531,0.02609
896.86657,0.02564
894.93782,0.02529
893.00908,0.02520
891.08033,0.02535
889.15159,0.02549
887.22284,0.02547
885.29410,0.02538
883.36535,0.02527
881.43661,0.02511
879.50786,0.02498
877.57911,0.02483
875.65037,0.02467
873.72162,0.02491
871.79288,0.02525
869.86413,0.02517
867.93539,0.02500
866.00664,0.02503
864.07790,0.02493
862.14915,0.02448
860.22041,0.02407
858.29166,0.02397
856.36292,0.02417
854.43417,0.02450
852.50543,0.02447
850.57668,0.02396
848.64794,0.02350
846.71919,0.02344
844.79044,0.02364
842.86170,0.02365
840.93295,0.02306
839.00421,0.02225
837.07546,0.02173
835.14672,0.02160
833.21797,0.02187
831.28923,0.02229
829.36048,0.02241
827.43174,0.02220
825.50299,0.02198
823.57425,0.02194
821.64550,0.02190
819.71676,0.02173
817.78801,0.02157
815.85926,0.02166
813.93052,0.02193
812.00177,0.02203
810.07303,0.02185
808.14428,0.02162
806.21554,0.02155
804.28679,0.02152
802.35805,0.02156
800.42930,0.02169
798.50056,0.02176
796.57181,0.02177
794.64307,0.02165
792.71432,0.02113
790.78558,0.02034
788.85683,0.01987
786.92809,0.01999
784.99934,0.02013
783.07059,0.01976
781.14185,0.01934
779.21310,0.01938
777.28436,0.01966
775.35561,0.01967
773.42687,0.01933
771.49812,0.01910
769.56938,0.01905
767.64063,0.01885
765.71189,0.01855
763.78314,0.01834
761.85440,0.01808
759.92565,0.01792
757.99691,0.01819
756.06816,0.01875
754.13942,0.01899
752.21067,0.01859
750.28192,0.01811
748.35318,0.01818
746.42443,0.01863
744.49569,0.01891
742.56694,0.01873
740.63820,0.01823
738.70945,0.01775
736.78071,0.01753
734.85196,0.01742
732.92322,0.01714
730.99447,0.01674
729.06573,0.01640
727.13698,0.01626
725.20824,0.01639
723.27949,0.01667
721.35074,0.01701
719.42200,0.01732
717.49325,0.01729
715.56451,0.01695
713.63576,0.01666
711.70702,0.01638
709.77827,0.01619
707.84953,0.01630
705.92078,0.01648
703.99204,0.01655
702.06329,0.01645
700.13455,0.01620
698.20580,0.01593
696.27706,0.01556
694.34831,0.01537
692.41957,0.01588
690.49082,0.01667
688.56207,0.01686
686.63333,0.01674
684.70458,0.01684
682.77584,0.01683
680.84709,0.01637
678.91835,0.01567
676.98960,0.01528
675.06086,0.01557
673.13211,0.01598
671.20337,0.01607
669.27462,0.01618
667.34588,0.01651
665.41713,0.01678
663.48839,0.01676
661.55964,0.01646
659.63090,0.01593
657.70215,0.01542
655.77340,0.01523
653.84466,0.01518
651.91591,0.01530
649.98717,0.01559
648.05842,0.01547
646.12968,0.01509
644.20093,0.01480
642.27219,0.01443
640.34344,0.01436
638.41470,0.01481
636.48595,0.01517
634.55721,0.01499
632.62846,0.01474
630.69972,0.01508
628.77097,0.01587
626.84222,0.01598
624.91348,0.01485
622.98473,0.01356
621.05599,0.01307
619.12724,0.01337
617.19850,0.01408
615.26975,0.01465
613.34101,0.01504
611.41226,0.01543
609.48352,0.01551
607.55477,0.01520
605.62603,0.01543
603.69728,0.01596
601.76854,0.01526
599.83979,0.01383
