7497.03301,0.56221
7495.10426,0.56250
7493.17552,0.56367
7491.24677,0.56322
7489.31803,0.56482
7487.38928,0.56662
7485.46054,0.56521
7483.53179,0.56459
7481.60305,0.56506
7479.67430,0.56376
7477.74556,0.56401
7475.81681,0.56751
7473.88807,0.56841
7471.95932,0.56476
7470.03057,0.56144
7468.10183,0.56039
7466.17308,0.56047
7464.24434,0.56017
7462.31559,0.55957
7460.38685,0.56003
7458.45810,0.56143
7456.52936,0.56445
7454.60061,0.56653
7452.67187,0.56444
7450.74312,0.56288
7448.81438,0.56294
7446.88563,0.55996
7444.95689,0.55730
7443.02814,0.55865
7441.09940,0.55947
7439.17065,0.55750
7437.24190,0.55538
7435.31316,0.55431
7433.38441,0.55414
7431.45567,0.55527
7429.52692,0.55834
7427.59818,0.56281
7425.66943,0.56545
7423.74069,0.56287
7421.81194,0.55782
7419.88320,0.55633
7417.95445,0.55841
7416.02571,0.55959
7414.09696,0.55785
7412.16822,0.55485
7410.23947,0.55330
7408.31073,0.55347
7406.38198,0.55358
7404.45323,0.55326
7402.52449,0.55295
7400.59574,0.55126
7398.66700,0.54853
7396.73825,0.54877
7394.80951,0.55318
7392.88076,0.55819
7390.95202,0.56054
7389.02327,0.55954
7387.09453,0.55514
7385.16578,0.54721
7383.23704,0.54051
7381.30829,0.54173
7379.37955,0.54810
7377.45080,0.55211
7375.52205,0.55230
7373.59331,0.55025
7371.66456,0.54843
7369.73582,0.55096
7367.80707,0.55706
7365.87833,0.55938
7363.94958,0.55462
7362.02084,0.54824
7360.09209,0.54580
7358.16335,0.54578
7356.23460,0.54462
7354.30586,0.54315
7352.37711,0.54318
7350.44837,0.54491
7348.51962,0.54791
7346.59088,0.54981
7344.66213,0.54714
7342.73338,0.54069
7340.80464,0.53648
7338.87589,0.53637
7336.94715,0.53662
7335.01840,0.53711
7333.08966,0.54011
7331.16091,0.54442
7329.23217,0.54675
7327.30342,0.54603
7325.37468,0.54348
7323.44593,0.53968
7321.51719,0.53619
7319.58844,0.53546
7317.65970,0.53740
7315.73095,0.54016
7313.80221,0.54262
7311.87346,0.54384
7309.94471,0.54206
7308.01597,0.53852
7306.08722,0.53668
7304.15848,0.53639
7302.22973,0.53691
7300.30099,0.53842
7298.37224,0.53889
7296.44350,0.53798
7294.51475,0.53897
7292.58601,0.54181
7290.65726,0.54251
7288.72852,0.54008
7286.79977,0.53782
7284.87103,0.53828
7282.94228,0.54020
7281.01353,0.54265
7279.08479,0.54601
7277.15604,0.54534
7275.22730,0.53724
7273.29855,0.53021
7271.36981,0.53144
7269.44106,0.53651
7267.51232,0.53977
7265.58357,0.53936
7263.65483,0.53668
7261.72608,0.53536
7259.79734,0.53484
7257.86859,0.53278
7255.93985,0.53089
7254.01110,0.53209
7252.08236,0.53485
7250.15361,0.53337
7248.22486,0.52739
7246.29612,0.52341
7244.36737,0.52479
7242.43863,0.52943
7240.50988,0.53314
7238.58114,0.53395
7236.65239,0.53278
7234.72365,0.53235
7232.79490,0.53448
7230.86616,0.53695
7228.93741,0.53635
7227.00867,0.53108
7225.07992,0.52427
7223.15118,0.52194
7221.22243,0.52426
7219.29369,0.52528
7217.36494,0.52272
7215.43619,0.52218
7213.50745,0.52474
7211.57870,0.52393
7209.64996,0.52061
7207.72121,0.51994
7205.79247,0.52126
7203.86372,0.52191
7201.93498,0.52132
7200.00623,0.51923
7198.07749,0.51499
7196.14874,0.51312
7194.22000,0.51859
7192.29125,0.52564
7190.36251,0.52666
7188.43376,0.52340
7186.50501,0.52045
7184.57627,0.51863
7182.64752,0.51692
7180.71878,0.51566
7178.79003,0.51464
7176.86129,0.51311
7174.93254,0.51315
7173.00380,0.51461
7171.07505,0.51451
7169.14631,0.51468
7167.21756,0.51626
7165.28882,0.51435
7163.36007,0.50794
7161.43133,0.50439
7159.50258,0.50730
7157.57384,0.51072
7155.64509,0.51038
7153.71634,0.50933
7151.78760,0.51180
7149.85885,0.51606
7147.93011,0.51626
7146.00136,0.51250
7144.07262,0.50943
7142.14387,0.50875
7140.21513,0.51017
7138.28638,0.51259
7136.35764,0.51380
7134.42889,0.51037
7132.50015,0.50267
7130.57140,0.49789
7128.64266,0.49920
7126.71391,0.50226
7124.78516,0.50362
7122.85642,0.50124
7120.92767,0.49640
7118.99893,0.49508
7117.07018,0.49758
7115.14144,0.49942
7113.21269,0.50091
7111.28395,0.50321
7109.35520,0.50317
7107.42646,0.49984
7105.49771,0.49779
7103.56897,0.49794
7101.64022,0.49615
7099.71148,0.49226
7097.78273,0.48894
7095.85399,0.48760
7093.92524,0.48956
7091.99649,0.49327
7090.06775,0.49461
7088.13900,0.49287
7086.21026,0.48965
7084.28151,0.48609
7082.35277,0.48510
7080.42402,0.48728
7078.49528,0.48865
7076.56653,0.48684
7074.63779,0.48326
7072.70904,0.48133
7070.78030,0.48281
7068.85155,0.48449
7066.92281,0.48397
7064.99406,0.48401
7063.06532,0.48497
7061.13657,0.48387
7059.20782,0.48218
7057.27908,0.48267
7055.35033,0.48358
7053.42159,0.48105
7051.49284,0.47461
7049.56410,0.47003
7047.63535,0.47158
7045.70661,0.47492
7043.77786,0.47444
7041.84912,0.47219
7039.92037,0.47418
7037.99163,0.47998
7036.06288,0.48364
7034.13414,0.48327
7032.20539,0.48152
7030.27664,0.47855
7028.34790,0.47347
7026.41915,0.46998
7024.49041,0.47055
7022.56166,0.47206
7020.63292,0.47211
7018.70417,0.47143
7016.77543,0.47162
7014.84668,0.47116
7012.91794,0.46768
7010.98919,0.46574
7009.06045,0.46789
7007.13170,0.46875
7005.20296,0.46755
7003.27421,0.46812
7001.34547,0.47014
6999.41672,0.47110
6997.48797,0.46993
6995.55923,0.46767
6993.63048,0.46642
6991.70174,0.46717
6989.77299,0.46826
6987.84425,0.46709
6985.91550,0.46451
6983.98676,0.46397
6982.05801,0.46657
6980.12927,0.46830
6978.20052,0.46479
6976.27178,0.46038
6974.34303,0.46122
6972.41429,0.46376
6970.48554,0.46338
6968.55680,0.46230
6966.62805,0.46293
6964.69930,0.46390
6962.77056,0.46310
6960.84181,0.46141
6958.91307,0.46044
6956.98432,0.45900
6955.05558,0.45755
6953.12683,0.45809
6951.19809,0.45988
6949.26934,0.46119
6947.34060,0.46051
6945.41185,0.45982
6943.48311,0.46171
6941.55436,0.46225
6939.62562,0.45905
6937.69687,0.45637
6935.76812,0.45643
6933.83938,0.45677
6931.91063,0.45522
6929.98189,0.45328
6928.05314,0.45303
6926.12440,0.45318
6924.19565,0.45190
6922.26691,0.44961
6920.33816,0.44909
6918.40942,0.45217
6916.48067,0.45401
6914.55193,0.45237
6912.62318,0.45238
6910.69444,0.45389
6908.76569,0.45407
6906.83695,0.45333
6904.90820,0.45131
6902.97945,0.44982
6901.05071,0.45140
6899.12196,0.45327
6897.19322,0.45191
6895.26447,0.44852
6893.33573,0.44550
6891.40698,0.44469
6889.47824,0.44662
6887.54949,0.44795
6885.62075,0.44700
6883.69200,0.44569
6881.76326,0.44426
6879.83451,0.44317
6877.90577,0.44342
6875.97702,0.44340
6874.04828,0.44291
6872.11953,0.44341
6870.19078,0.44364
6868.26204,0.44323
6866.33329,0.44326
6864.40455,0.44266
6862.47580,0.44115
6860.54706,0.43967
6858.61831,0.43800
6856.68957,0.43600
6854.76082,0.43461
6852.83208,0.43437
6850.90333,0.43421
6848.97459,0.43321
6847.04584,0.43298
6845.11710,0.43589
6843.18835,0.43988
6841.25960,0.44075
6839.33086,0.43889
6837.40211,0.43737
6835.47337,0.43718
6833.54462,0.43761
6831.61588,0.43781
6829.68713,0.43714
6827.75839,0.43640
6825.82964,0.43657
6823.90090,0.43623
6821.97215,0.43440
6820.04341,0.43282
6818.11466,0.43195
6816.18592,0.42999
6814.25717,0.42731
6812.32843,0.42569
6810.39968,0.42462
6808.47093,0.42367
6806.54219,0.42437
6804.61344,0.42682
6802.68470,0.42777
6800.75595,0.42513
6798.82721,0.42211
6796.89846,0.42324
6794.96972,0.42709
6793.04097,0.42794
6791.11223,0.42529
6789.18348,0.42351
6787.25474,0.42370
6785.32599,0.42373
6783.39725,0.42361
6781.46850,0.42451
6779.53975,0.42537
6777.61101,0.42459
6775.68226,0.42186
6773.75352,0.41846
6771.82477,0.41643
6769.89603,0.41556
6767.96728,0.41377
6766.03854,0.41115
6764.10979,0.40933
6762.18105,0.40753
6760.25230,0.40520
6758.32356,0.40398
6756.39481,0.40473
6754.46607,0.40589
6752.53732,0.40473
6750.60858,0.40194
6748.67983,0.40030
6746.75108,0.39978
6744.82234,0.39879
6742.89359,0.39670
6740.96485,0.39372
6739.03610,0.39033
6737.10736,0.38834
6735.17861,0.38852
6733.24987,0.38844
6731.32112,0.38701
6729.39238,0.38532
6727.46363,0.38394
6725.53489,0.38257
6723.60614,0.38159
6721.67740,0.38200
6719.74865,0.38248
6717.81991,0.38115
6715.89116,0.37951
6713.96241,0.37902
6712.03367,0.37803
6710.10492,0.37564
6708.17618,0.37372
6706.24743,0.37281
6704.31869,0.37120
6702.38994,0.36887
6700.46120,0.36719
6698.53245,0.36653
6696.60371,0.36647
6694.67496,0.36582
6692.74622,0.36445
6690.81747,0.36379
6688.88873,0.36437
6686.95998,0.36559
6685.03123,0.36553
6683.10249,0.36399
6681.17374,0.36293
6679.24500,0.36181
6677.31625,0.36004
6675.38751,0.35952
6673.45876,0.35981
6671.53002,0.35921
6669.60127,0.35942
6667.67253,0.36201
6665.74378,0.36406
6663.81504,0.36321
6661.88629,0.36165
6659.95755,0.36293
6658.02880,0.36773
6656.10006,0.37173
6654.17131,0.37080
6652.24256,0.36790
6650.31382,0.36726
6648.38507,0.36739
6646.45633,0.36659
6644.52758,0.36601
6642.59884,0.36609
6640.67009,0.36625
6638.74135,0.36660
6636.81260,0.36713
6634.88386,0.36676
6632.95511,0.36580
6631.02637,0.36523
6629.09762,0.36446
6627.16888,0.36427
6625.24013,0.36532
6623.31139,0.36536
6621.38264,0.36470
6619.45389,0.36606
6617.52515,0.36822
6615.59640,0.36803
6613.66766,0.36551
6611.73891,0.36412
6609.81017,0.36643
6607.88142,0.37029
6605.95268,0.37174
6604.02393,0.37021
6602.09519,0.36877
6600.16644,0.36860
6598.23770,0.36738
6596.30895,0.36616
6594.38021,0.36760
6592.45146,0.36972
6590.52271,0.37055
6588.59397,0.37066
6586.66522,0.36970
6584.73648,0.36865
6582.80773,0.36980
6580.87899,0.37256
6578.95024,0.37491
6577.02150,0.37522
6575.09275,0.37318
6573.16401,0.37151
6571.23526,0.37228
6569.30652,0.37395
6567.37777,0.37433
6565.44903,0.37404
6563.52028,0.37524
6561.59154,0.37775
6559.66279,0.37953
6557.73404,0.37966
6555.80530,0.37927
6553.87655,0.37987
6551.94781,0.38144
6550.01906,0.38329
6548.09032,0.38410
6546.16157,0.38304
6544.23283,0.38131
6542.30408,0.38021
6540.37534,0.38124
6538.44659,0.38436
6536.51785,0.38647
6534.58910,0.38680
6532.66036,0.38661
6530.73161,0.38612
6528.80287,0.38674
6526.87412,0.38886
6524.94537,0.39055
6523.01663,0.39071
6521.08788,0.39015
6519.15914,0.39012
6517.23039,0.38990
6515.30165,0.38904
6513.37290,0.38978
6511.44416,0.39289
6509.51541,0.39563
6507.58667,0.39573
6505.65792,0.39422
6503.72918,0.39282
6501.80043,0.39263
6499.87169,0.39406
6497.94294,0.39603
6496.01419,0.39719
6494.08545,0.39733
6492.15670,0.39800
6490.22796,0.39937
6488.29921,0.39813
6486.37047,0.39529
6484.44172,0.39673
6482.51298,0.40216
6480.58423,0.40575
6478.65549,0.40574
6476.72674,0.40421
6474.79800,0.40317
6472.86925,0.40367
6470.94051,0.40457
6469.01176,0.40441
6467.08302,0.40373
6465.15427,0.40371
6463.22552,0.40461
6461.29678,0.40662
6459.36803,0.40964
6457.43929,0.41243
6455.51054,0.41431
6453.58180,0.41500
6451.65305,0.41420
6449.72431,0.41310
6447.79556,0.41328
6445.86682,0.41474
6443.93807,0.41612
6442.00933,0.41621
6440.08058,0.41505
6438.15184,0.41341
6436.22309,0.41247
6434.29434,0.41324
6432.36560,0.41479
6430.43685,0.41514
6428.50811,0.41513
6426.57936,0.41646
6424.65062,0.41845
6422.72187,0.42020
6420.79313,0.42072
6418.86438,0.41950
6416.93564,0.41895
6415.00689,0.42076
6413.07815,0.42302
6411.14940,0.42357
6409.22066,0.42249
6407.29191,0.42111
6405.36317,0.42044
6403.43442,0.42137
6401.50567,0.42302
6399.57693,0.42287
6397.64818,0.42251
6395.71944,0.42409
6393.79069,0.42461
6391.86195,0.42289
6389.93320,0.42175
6388.00446,0.42240
6386.07571,0.42363
6384.14697,0.42390
6382.21822,0.42384
6380.28948,0.42533
6378.36073,0.42757
6376.43199,0.42758
6374.50324,0.42490
6372.57450,0.42260
6370.64575,0.42252
6368.71700,0.42388
6366.78826,0.42543
6364.85951,0.42505
6362.93077,0.42233
6361.00202,0.42116
6359.07328,0.42311
6357.14453,0.42465
6355.21579,0.42386
6353.28704,0.42310
6351.35830,0.42417
6349.42955,0.42567
6347.50081,0.42598
6345.57206,0.42497
6343.64332,0.42407
6341.71457,0.42464
6339.78582,0.42555
6337.85708,0.42582
6335.92833,0.42638
6333.99959,0.42692
6332.07084,0.42628
6330.14210,0.42577
6328.21335,0.42694
6326.28461,0.42795
6324.35586,0.42736
6322.42712,0.42728
6320.49837,0.42906
6318.56963,0.43060
6316.64088,0.42979
6314.71214,0.42821
6312.78339,0.42856
6310.85465,0.43021
6308.92590,0.43121
6306.99715,0.43181
6305.06841,0.43269
6303.13966,0.43294
6301.21092,0.43197
6299.28217,0.43137
6297.35343,0.43271
6295.42468,0.43507
6293.49594,0.43705
6291.56719,0.43819
6289.63845,0.43818
6287.70970,0.43757
6285.78096,0.43720
6283.85221,0.43692
6281.92347,0.43642
6279.99472,0.43604
6278.06598,0.43619
6276.13723,0.43706
6274.20848,0.43835
6272.27974,0.43957
6270.35099,0.44065
6268.42225,0.44038
6266.49350,0.43838
6264.56476,0.43754
6262.63601,0.43836
6260.70727,0.43903
6258.77852,0.44053
6256.84978,0.44271
6254.92103,0.44372
6252.99229,0.44374
6251.06354,0.44348
6249.13480,0.44391
6247.20605,0.44554
6245.27730,0.44700
6243.34856,0.44731
6241.41981,0.44702
6239.49107,0.44705
6237.56232,0.44792
6235.63358,0.44898
6233.70483,0.44915
6231.77609,0.44839
6229.84734,0.44788
6227.91860,0.44839
6225.98985,0.44918
6224.06111,0.44936
6222.13236,0.44910
6220.20362,0.44909
6218.27487,0.44964
6216.34613,0.45061
6214.41738,0.45148
6212.48863,0.45198
6210.55989,0.45315
6208.63114,0.45532
6206.70240,0.45613
6204.77365,0.45463
6202.84491,0.45324
6200.91616,0.45419
6198.98742,0.45721
6197.05867,0.45952
6195.12993,0.45952
6193.20118,0.45868
6191.27244,0.45802
6189.34369,0.45756
6187.41495,0.45762
6185.48620,0.45810
6183.55746,0.45881
6181.62871,0.45942
6179.69996,0.45882
6177.77122,0.45779
6175.84247,0.45880
6173.91373,0.46079
6171.98498,0.46124
6170.05624,0.46111
6168.12749,0.46195
6166.19875,0.46344
6164.27000,0.46461
6162.34126,0.46481
6160.41251,0.46405
6158.48377,0.46310
6156.55502,0.46294
6154.62628,0.46364
6152.69753,0.46446
6150.76878,0.46492
6148.84004,0.46511
6146.91129,0.46533
6144.98255,0.46537
6143.05380,0.46506
6141.12506,0.46449
6139.19631,0.46345
6137.26757,0.46253
6135.33882,0.46338
6133.41008,0.46583
6131.48133,0.46765
6129.55259,0.46809
6127.62384,0.46781
6125.69510,0.46695
6123.76635,0.46660
6121.83761,0.46811
6119.90886,0.46971
6117.98011,0.46936
6116.05137,0.46844
6114.12262,0.46883
6112.19388,0.47030
6110.26513,0.47109
6108.33639,0.47062
6106.40764,0.47063
6104.47890,0.47118
6102.55015,0.47045
6100.62141,0.46882
6098.69266,0.46803
6096.76392,0.46844
6094.83517,0.46970
6092.90643,0.47117
6090.97768,0.47128
6089.04893,0.47030
6087.12019,0.47063
6085.19144,0.47181
6083.26270,0.47177
6081.33395,0.47125
6079.40521,0.47095
6077.47646,0.47013
6075.54772,0.46961
6073.61897,0.47030
6071.69023,0.47123
6069.76148,0.47160
6067.83274,0.47140
6065.90399,0.47158
6063.97525,0.47236
6062.04650,0.47179
6060.11776,0.47011
6058.18901,0.46958
6056.26026,0.47032
6054.33152,0.47104
6052.40277,0.47151
6050.47403,0.47210
6048.54528,0.47222
6046.61654,0.47173
6044.68779,0.47116
6042.75905,0.47043
6040.83030,0.47000
6038.90156,0.47004
6036.97281,0.47024
6035.04407,0.47054
6033.11532,0.46991
6031.18658,0.46760
6029.25783,0.46520
6027.32909,0.46414
6025.40034,0.46371
6023.47159,0.46288
6021.54285,0.46184
6019.61410,0.46162
6017.68536,0.46241
6015.75661,0.46292
6013.82787,0.46212
6011.89912,0.46072
6009.97038,0.46006
6008.04163,0.45954
6006.11289,0.45817
6004.18414,0.45694
6002.25540,0.45615
6000.32665,0.45456
5998.39791,0.45230
5996.46916,0.45088
5994.54041,0.45042
5992.61167,0.44919
5990.68292,0.44696
5988.75418,0.44513
5986.82543,0.44320
5984.89669,0.44073
5982.96794,0.43933
5981.03920,0.43889
5979.11045,0.43772
5977.18171,0.43552
5975.25296,0.43312
5973.32422,0.43119
5971.39547,0.42971
5969.46673,0.42832
5967.53798,0.42641
5965.60924,0.42433
5963.68049,0.42224
5961.75174,0.41880
5959.82300,0.41488
5957.89425,0.41226
5955.96551,0.41037
5954.03676,0.40938
5952.10802,0.40989
5950.17927,0.40993
5948.25053,0.40790
5946.32178,0.40541
5944.39304,0.40405
5942.46429,0.40317
5940.53555,0.40080
5938.60680,0.39657
5936.67806,0.39327
5934.74931,0.39219
5932.82057,0.39148
5930.89182,0.38948
5928.96307,0.38685
5927.03433,0.38511
5925.10558,0.38364
5923.17684,0.38189
5921.24809,0.38041
5919.31935,0.37852
5917.39060,0.37579
5915.46186,0.37341
5913.53311,0.37221
5911.60437,0.37161
5909.67562,0.37088
5907.74688,0.37020
5905.81813,0.36996
5903.88939,0.36993
5901.96064,0.36959
5900.03189,0.36830
5898.10315,0.36685
5896.17440,0.36763
5894.24566,0.37023
5892.31691,0.37194
5890.38817,0.37240
5888.45942,0.37244
5886.53068,0.37196
5884.60193,0.37112
5882.67319,0.37048
5880.74444,0.37015
5878.81570,0.37006
5876.88695,0.37043
5874.95821,0.37073
5873.02946,0.37060
5871.10072,0.37080
5869.17197,0.37114
5867.24322,0.37127
5865.31448,0.37202
5863.38573,0.37271
5861.45699,0.37240
5859.52824,0.37286
5857.59950,0.37475
5855.67075,0.37576
5853.74201,0.37522
5851.81326,0.37461
5849.88452,0.37436
5847.95577,0.37436
5846.02703,0.37456
5844.09828,0.37434
5842.16954,0.37379
5840.24079,0.37311
5838.31205,0.37178
5836.38330,0.37056
5834.45455,0.37005
5832.52581,0.36943
5830.59706,0.36884
5828.66832,0.36842
5826.73957,0.36727
5824.81083,0.36556
5822.88208,0.36432
5820.95334,0.36349
5819.02459,0.36259
5817.09585,0.36187
5815.16710,0.36133
5813.23836,0.36063
5811.30961,0.35958
5809.38087,0.35818
5807.45212,0.35709
5805.52337,0.35660
5803.59463,0.35627
5801.66588,0.35579
5799.73714,0.35519
5797.80839,0.35460
5795.87965,0.35357
5793.95090,0.35182
5792.02216,0.35022
5790.09341,0.34968
5788.16467,0.34995
5786.23592,0.34975
5784.30718,0.34850
5782.37843,0.34697
5780.44969,0.34600
5778.52094,0.34545
5776.59220,0.34480
5774.66345,0.34379
5772.73470,0.34222
5770.80596,0.34111
5768.87721,0.34162
5766.94847,0.34248
5765.01972,0.34232
5763.09098,0.34200
5761.16223,0.34173
5759.23349,0.34047
5757.30474,0.33880
5755.37600,0.33808
5753.44725,0.33846
5751.51851,0.33950
5749.58976,0.34032
5747.66102,0.34027
5745.73227,0.33967
5743.80352,0.33955
5741.87478,0.34072
5739.94603,0.34228
5738.01729,0.34257
5736.08854,0.34217
5734.15980,0.34273
5732.23105,0.34413
5730.30231,0.34550
5728.37356,0.34649
5726.44482,0.34733
5724.51607,0.34888
5722.58733,0.35135
5720.65858,0.35329
5718.72984,0.35401
5716.80109,0.35497
5714.87235,0.35663
5712.94360,0.35767
5711.01485,0.35861
5709.08611,0.36099
5707.15736,0.36352
5705.22862,0.36443
5703.29987,0.36503
5701.37113,0.36663
5699.44238,0.36900
5697.51364,0.37176
5695.58489,0.37373
5693.65615,0.37425
5691.72740,0.37465
5689.79866,0.37591
5687.86991,0.37699
5685.94117,0.37713
5684.01242,0.37762
5682.08368,0.37948
5680.15493,0.38167
5678.22618,0.38312
5676.29744,0.38394
5674.36869,0.38418
5672.43995,0.38413
5670.51120,0.38495
5668.58246,0.38665
5666.65371,0.38775
5664.72497,0.38824
5662.79622,0.38959
5660.86748,0.39190
5658.93873,0.39425
5657.00999,0.39603
5655.08124,0.39695
5653.15250,0.39768
5651.22375,0.39890
5649.29500,0.40003
5647.36626,0.40074
5645.43751,0.40148
5643.50877,0.40253
5641.58002,0.40378
5639.65128,0.40441
5637.72253,0.40435
5635.79379,0.40502
5633.86504,0.40675
5631.93630,0.40862
5630.00755,0.40991
5628.07881,0.41018
5626.15006,0.40991
5624.22132,0.40987
5622.29257,0.41023
5620.36383,0.41040
5618.43508,0.40974
5616.50633,0.40912
5614.57759,0.41012
5612.64884,0.41215
5610.72010,0.41327
5608.79135,0.41351
5606.86261,0.41400
5604.93386,0.41441
5603.00512,0.41451
5601.07637,0.41504
5599.14763,0.41594
5597.21888,0.41625
5595.29014,0.41577
5593.36139,0.41500
5591.43265,0.41403
5589.50390,0.41305
5587.57516,0.41247
5585.64641,0.41256
5583.71766,0.41344
5581.78892,0.41406
5579.86017,0.41373
5577.93143,0.41396
5576.00268,0.41497
5574.07394,0.41518
5572.14519,0.41484
5570.21645,0.41485
5568.28770,0.41487
5566.35896,0.41452
5564.43021,0.41375
5562.50147,0.41315
5560.57272,0.41356
5558.64398,0.41459
5556.71523,0.41528
5554.78648,0.41535
5552.85774,0.41526
5550.92899,0.41552
5549.00025,0.41561
5547.07150,0.41500
5545.14276,0.41456
5543.21401,0.41509
5541.28527,0.41589
5539.35652,0.41599
5537.42778,0.41561
5535.49903,0.41554
5533.57029,0.41563
5531.64154,0.41544
5529.71280,0.41554
5527.78405,0.41624
5525.85531,0.41705
5523.92656,0.41764
5521.99781,0.41766
5520.06907,0.41676
5518.14032,0.41564
5516.21158,0.41533
5514.28283,0.41545
5512.35409,0.41528
5510.42534,0.41527
5508.49660,0.41559
5506.56785,0.41575
5504.63911,0.41558
5502.71036,0.41526
5500.78162,0.41541
5498.85287,0.41618
5496.92413,0.41698
5494.99538,0.41771
5493.06664,0.41824
5491.13789,0.41824
5489.20914,0.41833
5487.28040,0.41899
5485.35165,0.41919
5483.42291,0.41834
5481.49416,0.41746
5479.56542,0.41732
5477.63667,0.41801
5475.70793,0.41944
5473.77918,0.42113
5471.85044,0.42235
5469.92169,0.42265
5467.99295,0.42271
5466.06420,0.42354
5464.13546,0.42457
5462.20671,0.42478
5460.27796,0.42448
5458.34922,0.42443
5456.42047,0.42464
5454.49173,0.42514
5452.56298,0.42576
5450.63424,0.42606
5448.70549,0.42642
5446.77675,0.42696
5444.84800,0.42733
5442.91926,0.42766
5440.99051,0.42786
5439.06177,0.42796
5437.13302,0.42842
5435.20428,0.42915
5433.27553,0.42952
5431.34679,0.42949
5429.41804,0.42981
5427.48929,0.43078
5425.56055,0.43167
5423.63180,0.43186
5421.70306,0.43178
5419.77431,0.43197
5417.84557,0.43219
5415.91682,0.43238
5413.98808,0.43256
5412.05933,0.43247
5410.13059,0.43284
5408.20184,0.43389
5406.27310,0.43429
5404.34435,0.43380
5402.41561,0.43355
5400.48686,0.43370
5398.55811,0.43393
5396.62937,0.43420
5394.70062,0.43404
5392.77188,0.43357
5390.84313,0.43360
5388.91439,0.43368
5386.98564,0.43344
5385.05690,0.43363
5383.12815,0.43408
5381.19941,0.43419
5379.27066,0.43412
5377.34192,0.43390
5375.41317,0.43348
5373.48443,0.43326
5371.55568,0.43337
5369.62694,0.43335
5367.69819,0.43333
5365.76944,0.43358
5363.84070,0.43352
5361.91195,0.43281
5359.98321,0.43190
5358.05446,0.43136
5356.12572,0.43134
5354.19697,0.43134
5352.26823,0.43091
5350.33948,0.43045
5348.41074,0.43006
5346.48199,0.42919
5344.55325,0.42808
5342.62450,0.42739
5340.69576,0.42697
5338.76701,0.42640
5336.83827,0.42562
5334.90952,0.42487
5332.98077,0.42392
5331.05203,0.42267
5329.12328,0.42143
5327.19454,0.42015
5325.26579,0.41892
5323.33705,0.41746
5321.40830,0.41522
5319.47956,0.41290
5317.55081,0.41126
5315.62207,0.40982
5313.69332,0.40812
5311.76458,0.40608
5309.83583,0.40362
5307.90709,0.40155
5305.97834,0.40027
5304.04959,0.39843
5302.12085,0.39554
5300.19210,0.39222
5298.26336,0.38853
5296.33461,0.38455
5294.40587,0.38065
5292.47712,0.37705
5290.54838,0.37368
5288.61963,0.37043
5286.69089,0.36737
5284.76214,0.36418
5282.83340,0.36059
5280.90465,0.35690
5278.97591,0.35347
5277.04716,0.35028
5275.11842,0.34711
5273.18967,0.34392
5271.26092,0.34065
5269.33218,0.33687
5267.40343,0.33291
5265.47469,0.32979
5263.54594,0.32771
5261.61720,0.32565
5259.68845,0.32279
5257.75971,0.31964
5255.83096,0.31668
5253.90222,0.31346
5251.97347,0.30991
5250.04473,0.30673
5248.11598,0.30426
5246.18724,0.30242
5244.25849,0.30054
5242.32975,0.29800
5240.40100,0.29515
5238.47225,0.29249
5236.54351,0.29017
5234.61476,0.28826
5232.68602,0.28650
5230.75727,0.28431
5228.82853,0.28176
5226.89978,0.27934
5224.97104,0.27682
5223.04229,0.27431
5221.11355,0.27223
5219.18480,0.27039
5217.25606,0.26873
5215.32731,0.26738
5213.39857,0.26616
5211.46982,0.26504
5209.54107,0.26370
5207.61233,0.26196
5205.68358,0.26070
5203.75484,0.26017
5201.82609,0.25933
5199.89735,0.25819
5197.96860,0.25736
5196.03986,0.25634
5194.11111,0.25486
5192.18237,0.25329
5190.25362,0.25193
5188.32488,0.25121
5186.39613,0.25088
5184.46739,0.25016
5182.53864,0.24904
5180.60990,0.24768
5178.68115,0.24627
5176.75240,0.24530
5174.82366,0.24496
5172.89491,0.24483
5170.96617,0.24439
5169.03742,0.24372
5167.10868,0.24326
5165.17993,0.24291
5163.25119,0.24233
5161.32244,0.24173
5159.39370,0.24140
5157.46495,0.24131
5155.53621,0.24139
5153.60746,0.24086
5151.67872,0.23948
5149.74997,0.23875
5147.82123,0.23935
5145.89248,0.24016
5143.96373,0.24032
5142.03499,0.23996
5140.10624,0.23946
5138.17750,0.23914
5136.24875,0.23889
5134.32001,0.23851
5132.39126,0.23839
5130.46252,0.23862
5128.53377,0.23868
5126.60503,0.23854
5124.67628,0.23856
5122.74754,0.23881
5120.81879,0.23921
5118.89005,0.23944
5116.96130,0.23924
5115.03255,0.23884
5113.10381,0.23862
5111.17506,0.23855
5109.24632,0.23828
5107.31757,0.23773
5105.38883,0.23725
5103.46008,0.23703
5101.53134,0.23694
5099.60259,0.23660
5097.67385,0.23564
5095.74510,0.23440
5093.81636,0.23366
5091.88761,0.23340
5089.95887,0.23288
5088.03012,0.23184
5086.10138,0.23077
5084.17263,0.22983
5082.24388,0.22897
5080.31514,0.22825
5078.38639,0.22740
5076.45765,0.22646
5074.52890,0.22560
5072.60016,0.22474
5070.67141,0.22399
5068.74267,0.22343
5066.81392,0.22313
5064.88518,0.22318
5062.95643,0.22323
5061.02769,0.22308
5059.09894,0.22303
5057.17020,0.22301
5055.24145,0.22284
5053.31270,0.22274
5051.38396,0.22268
5049.45521,0.22255
5047.52647,0.22225
5045.59772,0.22195
5043.66898,0.22214
5041.74023,0.22283
5039.81149,0.22321
5037.88274,0.22287
5035.95400,0.22260
5034.02525,0.22273
5032.09651,0.22290
5030.16776,0.22331
5028.23902,0.22376
5026.31027,0.22379
5024.38153,0.22399
5022.45278,0.22478
5020.52403,0.22563
5018.59529,0.22619
5016.66654,0.22642
5014.73780,0.22627
5012.80905,0.22611
5010.88031,0.22637
5008.95156,0.22681
5007.02282,0.22712
5005.09407,0.22734
5003.16533,0.22743
5001.23658,0.22716
4999.30784,0.22672
4997.37909,0.22678
4995.45035,0.22754
4993.52160,0.22849
4991.59286,0.22879
4989.66411,0.22808
4987.73536,0.22711
4985.80662,0.22678
4983.87787,0.22680
4981.94913,0.22683
4980.02038,0.22709
4978.09164,0.22712
4976.16289,0.22675
4974.23415,0.22646
4972.30540,0.22609
4970.37666,0.22552
4968.44791,0.22498
4966.51917,0.22433
4964.59042,0.22368
4962.66168,0.22336
4960.73293,0.22293
4958.80418,0.22202
4956.87544,0.22114
4954.94669,0.22061
4953.01795,0.22005
4951.08920,0.21918
4949.16046,0.21810
4947.23171,0.21700
4945.30297,0.21587
4943.37422,0.21467
4941.44548,0.21394
4939.51673,0.21369
4937.58799,0.21288
4935.65924,0.21128
4933.73050,0.20985
4931.80175,0.20887
4929.87301,0.20791
4927.94426,0.20690
4926.01551,0.20557
4924.08677,0.20374
4922.15802,0.20212
4920.22928,0.20112
4918.30053,0.20032
4916.37179,0.19908
4914.44304,0.19718
4912.51430,0.19541
4910.58555,0.19436
4908.65681,0.19346
4906.72806,0.19209
4904.79932,0.19044
4902.87057,0.18898
4900.94183,0.18775
4899.01308,0.18654
4897.08434,0.18542
4895.15559,0.18443
4893.22684,0.18327
4891.29810,0.18161
4889.36935,0.17975
4887.44061,0.17848
4885.51186,0.17777
4883.58312,0.17676
4881.65437,0.17551
4879.72563,0.17469
4877.79688,0.17414
4875.86814,0.17354
4873.93939,0.17282
4872.01065,0.17178
4870.08190,0.17061
4868.15316,0.17002
4866.22441,0.17022
4864.29566,0.17063
4862.36692,0.17075
4860.43817,0.17059
4858.50943,0.17040
4856.58068,0.17071
4854.65194,0.17175
4852.72319,0.17307
4850.79445,0.17409
4848.86570,0.17466
4846.93696,0.17529
4845.00821,0.17644
4843.07947,0.17784
4841.15072,0.17914
4839.22198,0.18037
4837.29323,0.18160
4835.36449,0.18285
4833.43574,0.18421
4831.50699,0.18568
4829.57825,0.18715
4827.64950,0.18864
4825.72076,0.19032
4823.79201,0.19228
4821.86327,0.19408
4819.93452,0.19552
4818.00578,0.19688
4816.07703,0.19826
4814.14829,0.19959
4812.21954,0.20057
4810.29080,0.20161
4808.36205,0.20324
4806.43331,0.20492
4804.50456,0.20600
4802.57582,0.20669
4800.64707,0.20767
4798.71832,0.20908
4796.78958,0.21048
4794.86083,0.21158
4792.93209,0.21223
4791.00334,0.21257
4789.07460,0.21299
4787.14585,0.21354
4785.21711,0.21415
4783.28836,0.21491
4781.35962,0.21574
4779.43087,0.21633
4777.50213,0.21668
4775.57338,0.21710
4773.64464,0.21757
4771.71589,0.21804
4769.78714,0.21865
4767.85840,0.21916
4765.92965,0.21936
4764.00091,0.21928
4762.07216,0.21891
4760.14342,0.21851
4758.21467,0.21838
4756.28593,0.21847
4754.35718,0.21852
4752.42844,0.21837
4750.49969,0.21796
4748.57095,0.21754
4746.64220,0.21740
4744.71346,0.21748
4742.78471,0.21750
4740.85597,0.21721
4738.92722,0.21659
4736.99847,0.21598
4735.06973,0.21560
4733.14098,0.21537
4731.21224,0.21526
4729.28349,0.21494
4727.35475,0.21394
4725.42600,0.21273
4723.49726,0.21214
4721.56851,0.21206
4719.63977,0.21179
4717.71102,0.21095
4715.78228,0.20977
4713.85353,0.20856
4711.92479,0.20759
4709.99604,0.20719
4708.06729,0.20689
4706.13855,0.20604
4704.20980,0.20492
4702.28106,0.20379
4700.35231,0.20253
4698.42357,0.20124
4696.49482,0.20014
4694.56608,0.19919
4692.63733,0.19806
4690.70859,0.19675
4688.77984,0.19537
4686.85110,0.19373
4684.92235,0.19204
4682.99361,0.19076
4681.06486,0.18979
4679.13612,0.18837
4677.20737,0.18630
4675.27862,0.18432
4673.34988,0.18288
4671.42113,0.18192
4669.49239,0.18108
4667.56364,0.17991
4665.63490,0.17857
4663.70615,0.17734
4661.77741,0.17601
4659.84866,0.17431
4657.91992,0.17236
4655.99117,0.17065
4654.06243,0.16929
4652.13368,0.16796
4650.20494,0.16651
4648.27619,0.16498
4646.34745,0.16354
4644.41870,0.16217
4642.48995,0.16071
4640.56121,0.15904
4638.63246,0.15735
4636.70372,0.15617
4634.77497,0.15525
4632.84623,0.15389
4630.91748,0.15245
4628.98874,0.15139
4627.05999,0.15043
4625.13125,0.14956
4623.20250,0.14876
4621.27376,0.14783
4619.34501,0.14683
4617.41627,0.14598
4615.48752,0.14527
4613.55877,0.14445
4611.63003,0.14368
4609.70128,0.14324
4607.77254,0.14299
4605.84379,0.14300
4603.91505,0.14322
4601.98630,0.14327
4600.05756,0.14326
4598.12881,0.14327
4596.20007,0.14305
4594.27132,0.14293
4592.34258,0.14319
4590.41383,0.14325
4588.48509,0.14302
4586.55634,0.14301
4584.62760,0.14321
4582.69885,0.14343
4580.77010,0.14386
4578.84136,0.14444
4576.91261,0.14498
4574.98387,0.14558
4573.05512,0.14625
4571.12638,0.14662
4569.19763,0.14661
4567.26889,0.14657
4565.34014,0.14680
4563.41140,0.14747
4561.48265,0.14835
4559.55391,0.14898
4557.62516,0.14932
4555.69642,0.14949
4553.76767,0.14960
4551.83893,0.15010
4549.91018,0.15116
4547.98143,0.15239
4546.05269,0.15350
4544.12394,0.15424
4542.19520,0.15455
4540.26645,0.15491
4538.33771,0.15550
4536.40896,0.15594
4534.48022,0.15645
4532.55147,0.15717
4530.62273,0.15768
4528.69398,0.15816
4526.76524,0.15879
4524.83649,0.15928
4522.90775,0.15964
4520.97900,0.16016
4519.05025,0.16108
4517.12151,0.16224
4515.19276,0.16320
4513.26402,0.16401
4511.33527,0.16470
4509.40653,0.16535
4507.47778,0.16633
4505.54904,0.16728
4503.62029,0.16761
4501.69155,0.16785
4499.76280,0.16857
4497.83406,0.16938
4495.90531,0.16995
4493.97657,0.17058
4492.04782,0.17140
4490.11908,0.17206
4488.19033,0.17229
4486.26158,0.17227
4484.33284,0.17245
4482.40409,0.17274
4480.47535,0.17261
4478.54660,0.17217
4476.61786,0.17183
4474.68911,0.17182
4472.76037,0.17209
4470.83162,0.17251
4468.90288,0.17299
4466.97413,0.17308
4465.04539,0.17229
4463.11664,0.17116
4461.18790,0.17065
4459.25915,0.17056
4457.33041,0.17003
4455.40166,0.16902
4453.47291,0.16800
4451.54417,0.16715
4449.61542,0.16631
4447.68668,0.16539
4445.75793,0.16445
4443.82919,0.16348
4441.90044,0.16212
4439.97170,0.16010
4438.04295,0.15797
4436.11421,0.15624
4434.18546,0.15478
4432.25672,0.15348
4430.32797,0.15219
4428.39923,0.15086
4426.47048,0.14962
4424.54173,0.14815
4422.61299,0.14619
4420.68424,0.14448
4418.75550,0.14370
4416.82675,0.14334
4414.89801,0.14262
4412.96926,0.14145
4411.04052,0.14049
4409.11177,0.14003
4407.18303,0.13944
4405.25428,0.13847
4403.32554,0.13784
4401.39679,0.13765
4399.46805,0.13743
4397.53930,0.13702
4395.61056,0.13628
4393.68181,0.13552
4391.75306,0.13514
4389.82432,0.13468
4387.89557,0.13387
4385.96683,0.13310
4384.03808,0.13260
4382.10934,0.13226
4380.18059,0.13199
4378.25185,0.13170
4376.32310,0.13119
4374.39436,0.13063
4372.46561,0.13044
4370.53687,0.13063
4368.60812,0.13082
4366.67938,0.13073
4364.75063,0.13025
4362.82189,0.12964
4360.89314,0.12946
4358.96439,0.12955
4357.03565,0.12929
4355.10690,0.12900
4353.17816,0.12941
4351.24941,0.13025
4349.32067,0.13084
4347.39192,0.13110
4345.46318,0.13128
4343.53443,0.13170
4341.60569,0.13250
4339.67694,0.13338
4337.74820,0.13372
4335.81945,0.13359
4333.89071,0.13357
4331.96196,0.13380
4330.03321,0.13414
4328.10447,0.13452
4326.17572,0.13495
4324.24698,0.13538
4322.31823,0.13593
4320.38949,0.13664
4318.46074,0.13729
4316.53200,0.13771
4314.60325,0.13797
4312.67451,0.13814
4310.74576,0.13830
4308.81702,0.13861
4306.88827,0.13899
4304.95953,0.13922
4303.03078,0.13958
4301.10204,0.14009
4299.17329,0.14014
4297.24454,0.13978
4295.31580,0.13948
4293.38705,0.13930
4291.45831,0.13923
4289.52956,0.13930
4287.60082,0.13928
4285.67207,0.13906
4283.74333,0.13871
4281.81458,0.13828
4279.88584,0.13808
4277.95709,0.13812
4276.02835,0.13808
4274.09960,0.13792
4272.17086,0.13775
4270.24211,0.13750
4268.31336,0.13714
4266.38462,0.13689
4264.45587,0.13687
4262.52713,0.13689
4260.59838,0.13676
4258.66964,0.13663
4256.74089,0.13678
4254.81215,0.13729
4252.88340,0.13777
4250.95466,0.13804
4249.02591,0.13834
4247.09717,0.13868
4245.16842,0.13892
4243.23968,0.13924
4241.31093,0.13974
4239.38219,0.14025
4237.45344,0.14058
4235.52469,0.14086
4233.59595,0.14139
4231.66720,0.14195
4229.73846,0.14229
4227.80971,0.14267
4225.88097,0.14320
4223.95222,0.14367
4222.02348,0.14398
4220.09473,0.14441
4218.16599,0.14504
4216.23724,0.14556
4214.30850,0.14591
4212.37975,0.14623
4210.45101,0.14644
4208.52226,0.14656
4206.59352,0.14672
4204.66477,0.14689
4202.73602,0.14718
4200.80728,0.14767
4198.87853,0.14817
4196.94979,0.14841
4195.02104,0.14851
4193.09230,0.14872
4191.16355,0.14906
4189.23481,0.14934
4187.30606,0.14927
4185.37732,0.14905
4183.44857,0.14928
4181.51983,0.14989
4179.59108,0.15035
4177.66234,0.15048
4175.73359,0.15064
4173.80484,0.15105
4171.87610,0.15130
4169.94735,0.15117
4168.01861,0.15100
4166.08986,0.15098
4164.16112,0.15113
4162.23237,0.15147
4160.30363,0.15157
4158.37488,0.15115
4156.44614,0.15086
4154.51739,0.15105
4152.58865,0.15121
4150.65990,0.15113
4148.73116,0.15094
4146.80241,0.15067
4144.87367,0.15051
4142.94492,0.15042
4141.01617,0.15027
4139.08743,0.15023
4137.15868,0.15009
4135.22994,0.14971
4133.30119,0.14958
4131.37245,0.14981
4129.44370,0.14999
4127.51496,0.14977
4125.58621,0.14928
4123.65747,0.14906
4121.72872,0.14917
4119.79998,0.14921
4117.87123,0.14911
4115.94249,0.14903
4114.01374,0.14854
4112.08500,0.14749
4110.15625,0.14651
4108.22750,0.14596
4106.29876,0.14556
4104.37001,0.14496
4102.44127,0.14410
4100.51252,0.14315
4098.58378,0.14218
4096.65503,0.14113
4094.72629,0.13999
4092.79754,0.13880
4090.86880,0.13759
4088.94005,0.13673
4087.01131,0.13631
4085.08256,0.13586
4083.15382,0.13509
4081.22507,0.13420
4079.29632,0.13338
4077.36758,0.13271
4075.43883,0.13195
4073.51009,0.13108
4071.58134,0.13031
4069.65260,0.12952
4067.72385,0.12875
4065.79511,0.12826
4063.86636,0.12799
4061.93762,0.12777
4060.00887,0.12735
4058.08013,0.12685
4056.15138,0.12661
4054.22264,0.12651
4052.29389,0.12638
4050.36515,0.12615
4048.43640,0.12568
4046.50765,0.12538
4044.57891,0.12570
4042.65016,0.12614
4040.72142,0.12633
4038.79267,0.12657
4036.86393,0.12688
4034.93518,0.12716
4033.00644,0.12744
4031.07769,0.12772
4029.14895,0.12802
4027.22020,0.12839
4025.29146,0.12882
4023.36271,0.12911
4021.43397,0.12892
4019.50522,0.12859
4017.57648,0.12871
4015.64773,0.12898
4013.71898,0.12900
4011.79024,0.12880
4009.86149,0.12850
4007.93275,0.12834
4006.00400,0.12832
4004.07526,0.12836
4002.14651,0.12850
4000.21777,0.12851
3998.28902,0.12827
3996.36028,0.12796
3994.43153,0.12765
3992.50279,0.12734
3990.57404,0.12709
3988.64530,0.12704
3986.71655,0.12709
3984.78780,0.12702
3982.85906,0.12692
3980.93031,0.12685
3979.00157,0.12663
3977.07282,0.12622
3975.14408,0.12580
3973.21533,0.12548
3971.28659,0.12521
3969.35784,0.12485
3967.42910,0.12454
3965.50035,0.12445
3963.57161,0.12455
3961.64286,0.12468
3959.71412,0.12462
3957.78537,0.12445
3955.85663,0.12432
3953.92788,0.12418
3951.99913,0.12397
3950.07039,0.12366
3948.14164,0.12321
3946.21290,0.12270
3944.28415,0.12241
3942.35541,0.12237
3940.42666,0.12228
3938.49792,0.12206
3936.56917,0.12199
3934.64043,0.12215
3932.71168,0.12221
3930.78294,0.12216
3928.85419,0.12237
3926.92545,0.12278
3924.99670,0.12313
3923.06795,0.12339
3921.13921,0.12367
3919.21046,0.12405
3917.28172,0.12454
3915.35297,0.12505
3913.42423,0.12572
3911.49548,0.12666
3909.56674,0.12767
3907.63799,0.12859
3905.70925,0.12932
3903.78050,0.12998
3901.85176,0.13089
3899.92301,0.13192
3897.99427,0.13281
3896.06552,0.13364
3894.13678,0.13442
3892.20803,0.13542
3890.27928,0.13671
3888.35054,0.13778
3886.42179,0.13842
3884.49305,0.13892
3882.56430,0.13944
3880.63556,0.14007
3878.70681,0.14084
3876.77807,0.14172
3874.84932,0.14269
3872.92058,0.14364
3870.99183,0.14452
3869.06309,0.14536
3867.13434,0.14604
3865.20560,0.14650
3863.27685,0.14693
3861.34811,0.14742
3859.41936,0.14787
3857.49061,0.14839
3855.56187,0.14903
3853.63312,0.14967
3851.70438,0.15028
3849.77563,0.15074
3847.84689,0.15091
3845.91814,0.15100
3843.98940,0.15140
3842.06065,0.15206
3840.13191,0.15275
3838.20316,0.15336
3836.27442,0.15375
3834.34567,0.15402
3832.41693,0.15438
3830.48818,0.15461
3828.55943,0.15468
3826.63069,0.15491
3824.70194,0.15528
3822.77320,0.15543
3820.84445,0.15562
3818.91571,0.15625
3816.98696,0.15698
3815.05822,0.15736
3813.12947,0.15738
3811.20073,0.15735
3809.27198,0.15757
3807.34324,0.15777
3805.41449,0.15776
3803.48575,0.15783
3801.55700,0.15802
3799.62826,0.15832
3797.69951,0.15848
3795.77076,0.15822
3793.84202,0.15799
3791.91327,0.15804
3789.98453,0.15797
3788.05578,0.15768
3786.12704,0.15768
3784.19829,0.15812
3782.26955,0.15848
3780.34080,0.15851
3778.41206,0.15841
3776.48331,0.15830
3774.55457,0.15807
3772.62582,0.15765
3770.69708,0.15724
3768.76833,0.15693
3766.83959,0.15658
3764.91084,0.15609
3762.98209,0.15536
3761.05335,0.15445
3759.12460,0.15376
3757.19586,0.15334
3755.26711,0.15281
3753.33837,0.15216
3751.40962,0.15161
3749.48088,0.15107
3747.55213,0.15037
3745.62339,0.14965
3743.69464,0.14895
3741.76590,0.14815
3739.83715,0.14715
3737.90841,0.14609
3735.97966,0.14523
3734.05091,0.14443
3732.12217,0.14339
3730.19342,0.14220
3728.26468,0.14109
3726.33593,0.14007
3724.40719,0.13902
3722.47844,0.13779
3720.54970,0.13639
3718.62095,0.13508
3716.69221,0.13387
3714.76346,0.13236
3712.83472,0.13038
3710.90597,0.12826
3708.97723,0.12626
3707.04848,0.12415
3705.11974,0.12188
3703.19099,0.11959
3701.26224,0.11712
3699.33350,0.11449
3697.40475,0.11196
3695.47601,0.10937
3693.54726,0.10657
3691.61852,0.10381
3689.68977,0.10104
3687.76103,0.09794
3685.83228,0.09473
3683.90354,0.09164
3681.97479,0.08842
3680.04605,0.08495
3678.11730,0.08166
3676.18856,0.07876
3674.25981,0.07576
3672.33107,0.07241
3670.40232,0.06919
3668.47357,0.06651
3666.54483,0.06431
3664.61608,0.06234
3662.68734,0.06041
3660.75859,0.05865
3658.82985,0.05710
3656.90110,0.05533
3654.97236,0.05336
3653.04361,0.05168
3651.11487,0.05011
3649.18612,0.04831
3647.25738,0.04679
3645.32863,0.04587
3643.39989,0.04502
3641.47114,0.04387
3639.54239,0.04259
3637.61365,0.04131
3635.68490,0.04008
3633.75616,0.03911
3631.82741,0.03835
3629.89867,0.03742
3627.96992,0.03627
3626.04118,0.03524
3624.11243,0.03457
3622.18369,0.03430
3620.25494,0.03399
3618.32620,0.03354
3616.39745,0.03332
3614.46871,0.03307
3612.53996,0.03225
3610.61122,0.03109
3608.68247,0.03026
3606.75372,0.02984
3604.82498,0.02942
3602.89623,0.02914
3600.96749,0.02916
3599.03874,0.02909
3597.11000,0.02870
3595.18125,0.02812
3593.25251,0.02743
3591.32376,0.02699
3589.39502,0.02694
3587.46627,0.02681
3585.53753,0.02638
3583.60878,0.02600
3581.68004,0.02586
3579.75129,0.02569
3577.82254,0.02528
3575.89380,0.02490
3573.96505,0.02471
3572.03631,0.02447
3570.10756,0.02424
3568.17882,0.02415
3566.25007,0.02393
3564.32133,0.02358
3562.39258,0.02327
3560.46384,0.02287
3558.53509,0.02240
3556.60635,0.02217
3554.67760,0.02221
3552.74886,0.02231
3550.82011,0.02230
3548.89137,0.02223
3546.96262,0.02219
3545.03387,0.02213
3543.10513,0.02194
3541.17638,0.02169
3539.24764,0.02152
3537.31889,0.02143
3535.39015,0.02124
3533.46140,0.02088
3531.53266,0.02053
3529.60391,0.02048
3527.67517,0.02080
3525.74642,0.02106
3523.81768,0.02088
3521.88893,0.02059
3519.96019,0.02055
3518.03144,0.02050
3516.10270,0.02026
3514.17395,0.01996
3512.24520,0.01971
3510.31646,0.01958
3508.38771,0.01957
3506.45897,0.01976
3504.53022,0.02006
3502.60148,0.02005
3500.67273,0.01993
3498.74399,0.02002
3496.81524,0.01987
3494.88650,0.01937
3492.95775,0.01895
3491.02901,0.01878
3489.10026,0.01881
3487.17152,0.01903
3485.24277,0.01914
3483.31402,0.01902
3481.38528,0.01895
3479.45653,0.01904
3477.52779,0.01904
3475.59904,0.01881
3473.67030,0.01849
3471.74155,0.01840
3469.81281,0.01854
3467.88406,0.01851
3465.95532,0.01826
3464.02657,0.01821
3462.09783,0.01854
3460.16908,0.01890
3458.24034,0.01894
3456.31159,0.01875
3454.38285,0.01851
3452.45410,0.01825
3450.52535,0.01811
3448.59661,0.01810
3446.66786,0.01796
3444.73912,0.01788
3442.81037,0.01816
3440.88163,0.01843
3438.95288,0.01837
3437.02414,0.01825
3435.09539,0.01816
3433.16665,0.01797
3431.23790,0.01804
3429.30916,0.01838
3427.38041,0.01840
3425.45167,0.01809
3423.52292,0.01774
3421.59418,0.01753
3419.66543,0.01757
3417.73668,0.01772
3415.80794,0.01769
3413.87919,0.01761
3411.95045,0.01778
3410.02170,0.01786
3408.09296,0.01760
3406.16421,0.01744
3404.23547,0.01749
3402.30672,0.01756
3400.37798,0.01770
3398.44923,0.01792
3396.52049,0.01804
3394.59174,0.01800
3392.66300,0.01784
3390.73425,0.01765
3388.80550,0.01754
3386.87676,0.01755
3384.94801,0.01772
3383.01927,0.01788
3381.09052,0.01765
3379.16178,0.01703
3377.23303,0.01657
3375.30429,0.01655
3373.37554,0.01664
3371.44680,0.01665
3369.51805,0.01661
3367.58931,0.01661
3365.66056,0.01661
3363.73182,0.01661
3361.80307,0.01654
3359.87433,0.01648
3357.94558,0.01661
3356.01683,0.01673
3354.08809,0.01667
3352.15934,0.01681
3350.23060,0.01731
3348.30185,0.01761
3346.37311,0.01740
3344.44436,0.01723
3342.51562,0.01746
3340.58687,0.01768
3338.65813,0.01754
3336.72938,0.01719
3334.80064,0.01693
3332.87189,0.01693
3330.94315,0.01715
3329.01440,0.01732
3327.08566,0.01722
3325.15691,0.01696
3323.22816,0.01687
3321.29942,0.01697
3319.37067,0.01705
3317.44193,0.01689
3315.51318,0.01658
3313.58444,0.01661
3311.65569,0.01699
3309.72695,0.01720
3307.79820,0.01719
3305.86946,0.01732
3303.94071,0.01747
3302.01197,0.01734
3300.08322,0.01716
3298.15448,0.01715
3296.22573,0.01716
3294.29698,0.01708
3292.36824,0.01681
3290.43949,0.01649
3288.51075,0.01659
3286.58200,0.01721
3284.65326,0.01789
3282.72451,0.01811
3280.79577,0.01785
3278.86702,0.01751
3276.93828,0.01758
3275.00953,0.01811
3273.08079,0.01855
3271.15204,0.01852
3269.22330,0.01805
3267.29455,0.01751
3265.36581,0.01729
3263.43706,0.01739
3261.50831,0.01753
3259.57957,0.01750
3257.65082,0.01743
3255.72208,0.01760
3253.79333,0.01787
3251.86459,0.01792
3249.93584,0.01787
3248.00710,0.01793
3246.07835,0.01808
3244.14961,0.01805
3242.22086,0.01769
3240.29212,0.01730
3238.36337,0.01724
3236.43463,0.01743
3234.50588,0.01770
3232.57713,0.01790
3230.64839,0.01790
3228.71964,0.01787
3226.79090,0.01804
3224.86215,0.01835
3222.93341,0.01838
3221.00466,0.01799
3219.07592,0.01768
3217.14717,0.01769
3215.21843,0.01775
3213.28968,0.01781
3211.36094,0.01796
3209.43219,0.01813
3207.50345,0.01825
3205.57470,0.01821
3203.64596,0.01811
3201.71721,0.01801
3199.78846,0.01791
3197.85972,0.01806
3195.93097,0.01836
3194.00223,0.01839
3192.07348,0.01825
3190.14474,0.01836
3188.21599,0.01869
3186.28725,0.01880
3184.35850,0.01860
3182.42976,0.01847
3180.50101,0.01859
3178.57227,0.01868
3176.64352,0.01871
3174.71478,0.01887
3172.78603,0.01905
3170.85729,0.01907
3168.92854,0.01903
3166.99979,0.01895
3165.07105,0.01881
3163.14230,0.01875
3161.21356,0.01880
3159.28481,0.01879
3157.35607,0.01873
3155.42732,0.01869
3153.49858,0.01875
3151.56983,0.01882
3149.64109,0.01880
3147.71234,0.01875
3145.78360,0.01868
3143.85485,0.01862
3141.92611,0.01851
3139.99736,0.01832
3138.06861,0.01826
3136.13987,0.01851
3134.21112,0.01895
3132.28238,0.01928
3130.35363,0.01937
3128.42489,0.01940
3126.49614,0.01935
3124.56740,0.01921
3122.63865,0.01912
3120.70991,0.01911
3118.78116,0.01911
3116.85242,0.01906
3114.92367,0.01904
3112.99493,0.01914
3111.06618,0.01923
3109.13744,0.01923
3107.20869,0.01910
3105.27994,0.01897
3103.35120,0.01898
3101.42245,0.01896
3099.49371,0.01887
3097.56496,0.01899
3095.63622,0.01928
3093.70747,0.01918
3091.77873,0.01863
3089.84998,0.01814
3087.92124,0.01798
3085.99249,0.01801
3084.06375,0.01802
3082.13500,0.01808
3080.20626,0.01828
3078.27751,0.01854
3076.34877,0.01869
3074.42002,0.01873
3072.49127,0.01875
3070.56253,0.01872
3068.63378,0.01863
3066.70504,0.01858
3064.77629,0.01857
3062.84755,0.01849
3060.91880,0.01844
3058.99006,0.01857
3057.06131,0.01873
3055.13257,0.01885
3053.20382,0.01901
3051.27508,0.01904
3049.34633,0.01889
3047.41759,0.01879
3045.48884,0.01892
3043.56009,0.01917
3041.63135,0.01927
3039.70260,0.01919
3037.77386,0.01911
3035.84511,0.01905
3033.91637,0.01896
3031.98762,0.01887
3030.05888,0.01884
3028.13013,0.01898
3026.20139,0.01912
3024.27264,0.01898
3022.34390,0.01873
3020.41515,0.01872
3018.48641,0.01901
3016.55766,0.01934
3014.62892,0.01934
3012.70017,0.01906
3010.77142,0.01898
3008.84268,0.01912
3006.91393,0.01921
3004.98519,0.01920
3003.05644,0.01917
3001.12770,0.01904
2999.19895,0.01868
2997.27021,0.01828
2995.34146,0.01815
2993.41272,0.01817
2991.48397,0.01813
2989.55523,0.01816
2987.62648,0.01834
2985.69774,0.01842
2983.76899,0.01839
2981.84025,0.01844
2979.91150,0.01844
2977.98275,0.01827
2976.05401,0.01828
2974.12526,0.01840
2972.19652,0.01828
2970.26777,0.01798
2968.33903,0.01766
2966.41028,0.01730
2964.48154,0.01705
2962.55279,0.01718
2960.62405,0.01752
2958.69530,0.01765
2956.76656,0.01774
2954.83781,0.01802
2952.90907,0.01813
2950.98032,0.01796
2949.05157,0.01774
2947.12283,0.01756
2945.19408,0.01741
2943.26534,0.01739
2941.33659,0.01757
2939.40785,0.01781
2937.47910,0.01780
2935.55036,0.01752
2933.62161,0.01728
2931.69287,0.01729
2929.76412,0.01745
2927.83538,0.01750
2925.90663,0.01755
2923.97789,0.01775
2922.04914,0.01805
2920.12040,0.01831
2918.19165,0.01827
2916.26290,0.01806
2914.33416,0.01810
2912.40541,0.01830
2910.47667,0.01842
2908.54792,0.01856
2906.61918,0.01878
2904.69043,0.01896
2902.76169,0.01892
2900.83294,0.01875
2898.90420,0.01890
2896.97545,0.01928
2895.04671,0.01939
2893.11796,0.01929
2891.18922,0.01922
2889.26047,0.01919
2887.33172,0.01925
2885.40298,0.01949
2883.47423,0.01962
2881.54549,0.01943
2879.61674,0.01928
2877.68800,0.01929
2875.75925,0.01915
2873.83051,0.01901
2871.90176,0.01915
2869.97302,0.01941
2868.04427,0.01957
2866.11553,0.01967
2864.18678,0.01976
2862.25804,0.01983
2860.32929,0.01980
2858.40055,0.01976
2856.47180,0.01993
2854.54305,0.02016
2852.61431,0.02019
2850.68556,0.02014
2848.75682,0.02023
2846.82807,0.02044
2844.89933,0.02070
2842.97058,0.02104
2841.04184,0.02143
2839.11309,0.02173
2837.18435,0.02184
2835.25560,0.02189
2833.32686,0.02207
2831.39811,0.02227
2829.46937,0.02226
2827.54062,0.02217
2825.61188,0.02227
2823.68313,0.02257
2821.75438,0.02283
2819.82564,0.02283
2817.89689,0.02260
2815.96815,0.02253
2814.03940,0.02274
2812.11066,0.02286
2810.18191,0.02279
2808.25317,0.02283
2806.32442,0.02296
2804.39568,0.02294
2802.46693,0.02308
2800.53819,0.02348
2798.60944,0.02367
2796.68070,0.02363
2794.75195,0.02371
2792.82320,0.02393
2790.89446,0.02417
2788.96571,0.02421
2787.03697,0.02402
2785.10822,0.02395
2783.17948,0.02406
2781.25073,0.02419
2779.32199,0.02427
2777.39324,0.02423
2775.46450,0.02424
2773.53575,0.02437
2771.60701,0.02439
2769.67826,0.02430
2767.74952,0.02437
2765.82077,0.02450
2763.89203,0.02453
2761.96328,0.02464
2760.03453,0.02481
2758.10579,0.02499
2756.17704,0.02531
2754.24830,0.02565
2752.31955,0.02581
2750.39081,0.02588
2748.46206,0.02594
2746.53332,0.02589
2744.60457,0.02583
2742.67583,0.02594
2740.74708,0.02615
2738.81834,0.02628
2736.88959,0.02624
2734.96085,0.02611
2733.03210,0.02608
2731.10336,0.02633
2729.17461,0.02670
2727.24586,0.02686
2725.31712,0.02685
2723.38837,0.02701
2721.45963,0.02728
2719.53088,0.02744
2717.60214,0.02752
2715.67339,0.02765
2713.74465,0.02784
2711.81590,0.02816
2709.88716,0.02857
2707.95841,0.02885
2706.02967,0.02886
2704.10092,0.02870
2702.17218,0.02867
2700.24343,0.02903
2698.31468,0.02940
2696.38594,0.02942
2694.45719,0.02930
2692.52845,0.02927
2690.59970,0.02928
2688.67096,0.02936
2686.74221,0.02946
2684.81347,0.02945
2682.88472,0.02955
2680.95598,0.02990
2679.02723,0.03026
2677.09849,0.03040
2675.16974,0.03033
2673.24100,0.03014
2671.31225,0.02996
2669.38351,0.03002
2667.45476,0.03029
2665.52601,0.03058
2663.59727,0.03079
2661.66852,0.03089
2659.73978,0.03096
2657.81103,0.03109
2655.88229,0.03122
2653.95354,0.03129
2652.02480,0.03133
2650.09605,0.03148
2648.16731,0.03173
2646.23856,0.03190
2644.30982,0.03195
2642.38107,0.03195
2640.45233,0.03192
2638.52358,0.03189
2636.59484,0.03195
2634.66609,0.03214
2632.73734,0.03236
2630.80860,0.03258
2628.87985,0.03293
2626.95111,0.03326
2625.02236,0.03338
2623.09362,0.03342
2621.16487,0.03340
2619.23613,0.03327
2617.30738,0.03323
2615.37864,0.03334
2613.44989,0.03344
2611.52115,0.03352
2609.59240,0.03366
2607.66366,0.03378
2605.73491,0.03385
2603.80616,0.03392
2601.87742,0.03403
2599.94867,0.03416
2598.01993,0.03429
2596.09118,0.03453
2594.16244,0.03490
2592.23369,0.03524
2590.30495,0.03533
2588.37620,0.03517
2586.44746,0.03502
2584.51871,0.03520
2582.58997,0.03549
2580.66122,0.03549
2578.73248,0.03547
2576.80373,0.03583
2574.87499,0.03624
2572.94624,0.03635
2571.01749,0.03638
2569.08875,0.03653
2567.16000,0.03671
2565.23126,0.03687
2563.30251,0.03699
2561.37377,0.03707
2559.44502,0.03731
2557.51628,0.03777
2555.58753,0.03804
2553.65879,0.03788
2551.73004,0.03773
2549.80130,0.03799
2547.87255,0.03840
2545.94381,0.03857
2544.01506,0.03858
2542.08631,0.03871
2540.15757,0.03887
2538.22882,0.03896
2536.30008,0.03913
2534.37133,0.03940
2532.44259,0.03959
2530.51384,0.03967
2528.58510,0.03973
2526.65635,0.03981
2524.72761,0.03993
2522.79886,0.04008
2520.87012,0.04023
2518.94137,0.04037
2517.01263,0.04042
2515.08388,0.04031
2513.15514,0.04018
2511.22639,0.04027
2509.29764,0.04058
2507.36890,0.04096
2505.44015,0.04129
2503.51141,0.04140
2501.58266,0.04131
2499.65392,0.04128
2497.72517,0.04145
2495.79643,0.04161
2493.86768,0.04167
2491.93894,0.04174
2490.01019,0.04193
2488.08145,0.04217
2486.15270,0.04228
2484.22396,0.04234
2482.29521,0.04253
2480.36647,0.04285
2478.43772,0.04316
2476.50897,0.04336
2474.58023,0.04353
2472.65148,0.04375
2470.72274,0.04393
2468.79399,0.04410
2466.86525,0.04435
2464.93650,0.04464
2463.00776,0.04503
2461.07901,0.04545
2459.15027,0.04563
2457.22152,0.04567
2455.29278,0.04587
2453.36403,0.04621
2451.43529,0.04649
2449.50654,0.04661
2447.57779,0.04661
2445.64905,0.04673
2443.72030,0.04697
2441.79156,0.04712
2439.86281,0.04719
2437.93407,0.04746
2436.00532,0.04786
2434.07658,0.04812
2432.14783,0.04819
2430.21909,0.04825
2428.29034,0.04846
2426.36160,0.04879
2424.43285,0.04906
2422.50411,0.04933
2420.57536,0.04963
2418.64662,0.04983
2416.71787,0.04992
2414.78912,0.05017
2412.86038,0.05062
2410.93163,0.05102
2409.00289,0.05117
2407.07414,0.05106
2405.14540,0.05101
2403.21665,0.05123
2401.28791,0.05149
2399.35916,0.05177
2397.43042,0.05219
2395.50167,0.05254
2393.57293,0.05266
2391.64418,0.05275
2389.71544,0.05292
2387.78669,0.05304
2385.85795,0.05305
2383.92920,0.05311
2382.00045,0.05335
2380.07171,0.05369
2378.14296,0.05401
2376.21422,0.05424
2374.28547,0.05438
2372.35673,0.05462
2370.42798,0.05497
2368.49924,0.05513
2366.57049,0.05515
2364.64175,0.05538
2362.71300,0.05572
2360.78426,0.05593
2358.85551,0.05596
2356.92677,0.05590
2354.99802,0.05590
2353.06927,0.05601
2351.14053,0.05612
2349.21178,0.05629
2347.28304,0.05651
2345.35429,0.05660
2343.42555,0.05656
2341.49680,0.05656
2339.56806,0.05664
2337.63931,0.05679
2335.71057,0.05695
2333.78182,0.05707
2331.85308,0.05718
2329.92433,0.05723
2327.99559,0.05723
2326.06684,0.05738
2324.13810,0.05764
2322.20935,0.05778
2320.28060,0.05780
2318.35186,0.05795
2316.42311,0.05814
2314.49437,0.05820
2312.56562,0.05817
2310.63688,0.05814
2308.70813,0.05811
2306.77939,0.05813
2304.85064,0.05820
2302.92190,0.05828
2300.99315,0.05845
2299.06441,0.05881
2297.13566,0.05915
2295.20692,0.05915
2293.27817,0.05899
2291.34943,0.05891
2289.42068,0.05888
2287.49193,0.05888
2285.56319,0.05900
2283.63444,0.05916
2281.70570,0.05922
2279.77695,0.05924
2277.84821,0.05939
2275.91946,0.05972
2273.99072,0.06002
2272.06197,0.06004
2270.13323,0.05994
2268.20448,0.06001
2266.27574,0.06017
2264.34699,0.06030
2262.41825,0.06034
2260.48950,0.06025
2258.56075,0.06018
2256.63201,0.06023
2254.70326,0.06024
2252.77452,0.06016
2250.84577,0.06014
2248.91703,0.06017
2246.98828,0.06022
2245.05954,0.06025
2243.13079,0.06020
2241.20205,0.06007
2239.27330,0.05994
2237.34456,0.05990
2235.41581,0.06004
2233.48707,0.06030
2231.55832,0.06048
2229.62958,0.06048
2227.70083,0.06042
2225.77208,0.06046
2223.84334,0.06064
2221.91459,0.06077
2219.98585,0.06069
2218.05710,0.06051
2216.12836,0.06033
2214.19961,0.06021
2212.27087,0.06023
2210.34212,0.06038
2208.41338,0.06052
2206.48463,0.06064
2204.55589,0.06073
2202.62714,0.06068
2200.69840,0.06057
2198.76965,0.06053
2196.84090,0.06070
2194.91216,0.06100
2192.98341,0.06119
2191.05467,0.06125
2189.12592,0.06129
2187.19718,0.06133
2185.26843,0.06130
2183.33969,0.06116
2181.41094,0.06098
2179.48220,0.06097
2177.55345,0.06121
2175.62471,0.06133
2173.69596,0.06125
2171.76722,0.06130
2169.83847,0.06156
2167.90973,0.06171
2165.98098,0.06156
2164.05223,0.06136
2162.12349,0.06143
2160.19474,0.06169
2158.26600,0.06185
2156.33725,0.06175
2154.40851,0.06146
2152.47976,0.06133
2150.55102,0.06138
2148.62227,0.06128
2146.69353,0.06105
2144.76478,0.06092
2142.83604,0.06097
2140.90729,0.06115
2138.97855,0.06121
2137.04980,0.06121
2135.12106,0.06134
2133.19231,0.06144
2131.26356,0.06131
2129.33482,0.06108
2127.40607,0.06102
2125.47733,0.06110
2123.54858,0.06111
2121.61984,0.06096
2119.69109,0.06075
2117.76235,0.06065
2115.83360,0.06071
2113.90486,0.06088
2111.97611,0.06104
2110.04737,0.06105
2108.11862,0.06092
2106.18988,0.06089
2104.26113,0.06106
2102.33238,0.06120
2100.40364,0.06113
2098.47489,0.06099
2096.54615,0.06099
2094.61740,0.06117
2092.68866,0.06142
2090.75991,0.06151
2088.83117,0.06143
2086.90242,0.06134
2084.97368,0.06144
2083.04493,0.06170
2081.11619,0.06186
2079.18744,0.06184
2077.25870,0.06179
2075.32995,0.06184
2073.40121,0.06209
2071.47246,0.06233
2069.54371,0.06227
2067.61497,0.06216
2065.68622,0.06233
2063.75748,0.06259
2061.82873,0.06264
2059.89999,0.06255
2057.97124,0.06264
2056.04250,0.06288
2054.11375,0.06312
2052.18501,0.06334
2050.25626,0.06354
2048.32752,0.06373
2046.39877,0.06383
2044.47003,0.06369
2042.54128,0.06344
2040.61254,0.06337
2038.68379,0.06349
2036.75504,0.06366
2034.82630,0.06389
2032.89755,0.06407
2030.96881,0.06403
2029.04006,0.06395
2027.11132,0.06409
2025.18257,0.06431
2023.25383,0.06444
2021.32508,0.06455
2019.39634,0.06464
2017.46759,0.06473
2015.53885,0.06478
2013.61010,0.06478
2011.68136,0.06481
2009.75261,0.06490
2007.82386,0.06497
2005.89512,0.06499
2003.96637,0.06501
2002.03763,0.06504
2000.10888,0.06505
1998.18014,0.06502
1996.25139,0.06497
1994.32265,0.06495
1992.39390,0.06492
1990.46516,0.06487
1988.53641,0.06494
1986.60767,0.06514
1984.67892,0.06517
1982.75018,0.06497
1980.82143,0.06477
1978.89269,0.06470
1976.96394,0.06478
1975.03519,0.06495
1973.10645,0.06503
1971.17770,0.06498
1969.24896,0.06489
1967.32021,0.06477
1965.39147,0.06457
1963.46272,0.06426
1961.53398,0.06402
1959.60523,0.06403
1957.67649,0.06419
1955.74774,0.06417
1953.81900,0.06395
1951.89025,0.06386
1949.96151,0.06400
1948.03276,0.06410
1946.10402,0.06409
1944.17527,0.06419
1942.24652,0.06443
1940.31778,0.06449
1938.38903,0.06430
1936.46029,0.06415
1934.53154,0.06410
1932.60280,0.06403
1930.67405,0.06405
1928.74531,0.06419
1926.81656,0.06421
1924.88782,0.06402
1922.95907,0.06378
1921.03033,0.06365
1919.10158,0.06359
1917.17284,0.06348
1915.24409,0.06338
1913.31534,0.06330
1911.38660,0.06304
1909.45785,0.06269
1907.52911,0.06250
1905.60036,0.06224
1903.67162,0.06181
1901.74287,0.06146
1899.81413,0.06125
1897.88538,0.06098
1895.95664,0.06073
1894.02789,0.06060
1892.09915,0.06043
1890.17040,0.06006
1888.24166,0.05957
1886.31291,0.05920
1884.38417,0.05904
1882.45542,0.05895
1880.52667,0.05885
1878.59793,0.05872
1876.66918,0.05855
1874.74044,0.05832
1872.81169,0.05813
1870.88295,0.05810
1868.95420,0.05804
1867.02546,0.05776
1865.09671,0.05737
1863.16797,0.05709
1861.23922,0.05691
1859.31048,0.05672
1857.38173,0.05642
1855.45299,0.05610
1853.52424,0.05584
1851.59549,0.05549
1849.66675,0.05498
1847.73800,0.05445
1845.80926,0.05403
1843.88051,0.05368
1841.95177,0.05321
1840.02302,0.05266
1838.09428,0.05226
1836.16553,0.05198
1834.23679,0.05166
1832.30804,0.05131
1830.37930,0.05090
1828.45055,0.05034
1826.52181,0.04961
1824.59306,0.04895
1822.66432,0.04856
1820.73557,0.04826
1818.80682,0.04779
1816.87808,0.04721
1814.94933,0.04663
1813.02059,0.04605
1811.09184,0.04539
1809.16310,0.04475
1807.23435,0.04421
1805.30561,0.04364
1803.37686,0.04300
1801.44812,0.04238
1799.51937,0.04178
1797.59063,0.04118
1795.66188,0.04063
1793.73314,0.04014
1791.80439,0.03961
1789.87565,0.03896
1787.94690,0.03826
1786.01815,0.03767
1784.08941,0.03717
1782.16066,0.03642
1780.23192,0.03540
1778.30317,0.03448
1776.37443,0.03383
1774.44568,0.03334
1772.51694,0.03282
1770.58819,0.03219
1768.65945,0.03163
1766.73070,0.03112
1764.80196,0.03036
1762.87321,0.02939
1760.94447,0.02863
1759.01572,0.02806
1757.08697,0.02729
1755.15823,0.02636
1753.22948,0.02554
1751.30074,0.02491
1749.37199,0.02436
1747.44325,0.02365
1745.51450,0.02278
1743.58576,0.02209
1741.65701,0.02159
1739.72827,0.02108
1737.79952,0.02063
1735.87078,0.02021
1733.94203,0.01962
1732.01329,0.01901
1730.08454,0.01860
1728.15580,0.01822
1726.22705,0.01769
1724.29830,0.01714
1722.36956,0.01673
1720.44081,0.01637
1718.51207,0.01600
1716.58332,0.01573
1714.65458,0.01553
1712.72583,0.01528
1710.79709,0.01498
1708.86834,0.01474
1706.93960,0.01453
1705.01085,0.01429
1703.08211,0.01399
1701.15336,0.01373
1699.22462,0.01367
1697.29587,0.01372
1695.36713,0.01367
1693.43838,0.01360
1691.50963,0.01361
1689.58089,0.01362
1687.65214,0.01365
1685.72340,0.01375
1683.79465,0.01380
1681.86591,0.01379
1679.93716,0.01385
1678.00842,0.01403
1676.07967,0.01421
1674.15093,0.01427
1672.22218,0.01431
1670.29344,0.01448
1668.36469,0.01473
1666.43595,0.01497
1664.50720,0.01517
1662.57845,0.01542
1660.64971,0.01561
1658.72096,0.01568
1656.79222,0.01586
1654.86347,0.01624
1652.93473,0.01661
1651.00598,0.01681
1649.07724,0.01696
1647.14849,0.01716
1645.21975,0.01724
1643.29100,0.01718
1641.36226,0.01722
1639.43351,0.01736
1637.50477,0.01750
1635.57602,0.01763
1633.64728,0.01777
1631.71853,0.01788
1629.78978,0.01787
1627.86104,0.01782
1625.93229,0.01783
1624.00355,0.01790
1622.07480,0.01788
1620.14606,0.01766
1618.21731,0.01732
1616.28857,0.01718
1614.35982,0.01737
1612.43108,0.01757
1610.50233,0.01754
1608.57359,0.01740
1606.64484,0.01725
1604.71610,0.01721
1602.78735,0.01727
1600.85861,0.01718
1598.92986,0.01692
1597.00111,0.01677
1595.07237,0.01686
1593.14362,0.01701
1591.21488,0.01706
1589.28613,0.01704
1587.35739,0.01695
1585.42864,0.01677
1583.49990,0.01659
1581.57115,0.01647
1579.64241,0.01631
1577.71366,0.01611
1575.78492,0.01607
1573.85617,0.01625
1571.92743,0.01633
1569.99868,0.01614
1568.06993,0.01585
1566.14119,0.01565
1564.21244,0.01555
1562.28370,0.01552
1560.35495,0.01551
1558.42621,0.01540
1556.49746,0.01527
1554.56872,0.01528
1552.63997,0.01536
1550.71123,0.01546
1548.78248,0.01556
1546.85374,0.01562
1544.92499,0.01571
1542.99625,0.01599
1541.06750,0.01638
1539.13876,0.01661
1537.21001,0.01670
1535.28126,0.01680
1533.35252,0.01693
1531.42377,0.01702
1529.49503,0.01704
1527.56628,0.01717
1525.63754,0.01740
1523.70879,0.01756
1521.78005,0.01752
1519.85130,0.01741
1517.92256,0.01736
1515.99381,0.01742
1514.06507,0.01761
1512.13632,0.01784
1510.20758,0.01801
1508.27883,0.01806
1506.35008,0.01800
1504.42134,0.01795
1502.49259,0.01796
1500.56385,0.01802
1498.63510,0.01819
1496.70636,0.01839
1494.77761,0.01842
1492.84887,0.01830
1490.92012,0.01820
1488.99138,0.01818
1487.06263,0.01823
1485.13389,0.01831
1483.20514,0.01832
1481.27640,0.01817
1479.34765,0.01789
1477.41891,0.01770
1475.49016,0.01768
1473.56141,0.01761
1471.63267,0.01738
1469.70392,0.01718
1467.77518,0.01708
1465.84643,0.01706
1463.91769,0.01714
1461.98894,0.01725
1460.06020,0.01736
1458.13145,0.01745
1456.20271,0.01747
1454.27396,0.01738
1452.34522,0.01724
1450.41647,0.01721
1448.48773,0.01726
1446.55898,0.01717
1444.63024,0.01701
1442.70149,0.01703
1440.77274,0.01733
1438.84400,0.01762
1436.91525,0.01763
1434.98651,0.01755
1433.05776,0.01758
1431.12902,0.01761
1429.20027,0.01757
1427.27153,0.01750
1425.34278,0.01740
1423.41404,0.01720
1421.48529,0.01712
1419.55655,0.01730
1417.62780,0.01744
1415.69906,0.01734
1413.77031,0.01714
1411.84156,0.01704
1409.91282,0.01706
1407.98407,0.01723
1406.05533,0.01751
1404.12658,0.01758
1402.19784,0.01742
1400.26909,0.01733
1398.34035,0.01735
1396.41160,0.01735
1394.48286,0.01734
1392.55411,0.01729
1390.62537,0.01713
1388.69662,0.01695
1386.76788,0.01685
1384.83913,0.01686
1382.91039,0.01690
1380.98164,0.01694
1379.05289,0.01705
1377.12415,0.01720
1375.19540,0.01724
1373.26666,0.01719
1371.33791,0.01721
1369.40917,0.01728
1367.48042,0.01722
1365.55168,0.01712
1363.62293,0.01718
1361.69419,0.01746
1359.76544,0.01769
1357.83670,0.01764
1355.90795,0.01742
1353.97921,0.01726
1352.05046,0.01714
1350.12172,0.01714
1348.19297,0.01735
1346.26422,0.01750
1344.33548,0.01738
1342.40673,0.01716
1340.47799,0.01707
1338.54924,0.01706
1336.62050,0.01702
1334.69175,0.01702
1332.76301,0.01720
1330.83426,0.01744
1328.90552,0.01740
1326.97677,0.01706
1325.04803,0.01688
1323.11928,0.01698
1321.19054,0.01707
1319.26179,0.01694
1317.33304,0.01677
1315.40430,0.01679
1313.47555,0.01701
1311.54681,0.01720
1309.61806,0.01715
1307.68932,0.01703
1305.76057,0.01705
1303.83183,0.01705
1301.90308,0.01690
1299.97434,0.01675
1298.04559,0.01672
1296.11685,0.01676
1294.18810,0.01689
1292.25936,0.01708
1290.33061,0.01714
1288.40187,0.01706
1286.47312,0.01702
1284.54437,0.01700
1282.61563,0.01681
1280.68688,0.01659
1278.75814,0.01662
1276.82939,0.01684
1274.90065,0.01697
1272.97190,0.01708
1271.04316,0.01738
1269.11441,0.01760
1267.18567,0.01752
1265.25692,0.01741
1263.32818,0.01739
1261.39943,0.01727
1259.47069,0.01706
1257.54194,0.01691
1255.61320,0.01689
1253.68445,0.01696
1251.75570,0.01703
1249.82696,0.01697
1247.89821,0.01688
1245.96947,0.01697
1244.04072,0.01704
1242.11198,0.01707
1240.18323,0.01725
1238.25449,0.01738
1236.32574,0.01735
1234.39700,0.01738
1232.46825,0.01742
1230.53951,0.01738
1228.61076,0.01740
1226.68202,0.01761
1224.75327,0.01789
1222.82452,0.01797
1220.89578,0.01788
1218.96703,0.01779
1217.03829,0.01776
1215.10954,0.01787
1213.18080,0.01797
1211.25205,0.01793
1209.32331,0.01796
1207.39456,0.01820
1205.46582,0.01850
1203.53707,0.01871
1201.60833,0.01870
1199.67958,0.01838
1197.75084,0.01790
1195.82209,0.01768
1193.89335,0.01789
1191.96460,0.01819
1190.03585,0.01816
1188.10711,0.01796
1186.17836,0.01780
1184.24962,0.01772
1182.32087,0.01776
1180.39213,0.01784
1178.46338,0.01780
1176.53464,0.01766
1174.60589,0.01759
1172.67715,0.01761
1170.74840,0.01762
1168.81966,0.01774
1166.89091,0.01814
1164.96217,0.01855
1163.03342,0.01862
1161.10467,0.01842
1159.17593,0.01831
1157.24718,0.01837
1155.31844,0.01844
1153.38969,0.01849
1151.46095,0.01856
1149.53220,0.01871
1147.60346,0.01885
1145.67471,0.01889
1143.74597,0.01894
1141.81722,0.01908
1139.88848,0.01911
1137.95973,0.01886
1136.03099,0.01863
1134.10224,0.01868
1132.17350,0.01867
1130.24475,0.01852
1128.31600,0.01850
1126.38726,0.01858
1124.45851,0.01852
1122.52977,0.01830
1120.60102,0.01824
1118.67228,0.01835
1116.74353,0.01844
1114.81479,0.01860
1112.88604,0.01868
1110.95730,0.01844
1109.02855,0.01824
1107.09981,0.01828
1105.17106,0.01839
1103.24232,0.01854
1101.31357,0.01878
1099.38483,0.01891
1097.45608,0.01876
1095.52733,0.01863
1093.59859,0.01874
1091.66984,0.01890
1089.74110,0.01899
1087.81235,0.01907
1085.88361,0.01899
1083.95486,0.01883
1082.02612,0.01864
1080.09737,0.01837
1078.16863,0.01823
1076.23988,0.01838
1074.31114,0.01864
1072.38239,0.01886
1070.45365,0.01910
1068.52490,0.01925
1066.59615,0.01920
1064.66741,0.01925
1062.73866,0.01953
1060.80992,0.01973
1058.88117,0.01977
1056.95243,0.01977
1055.02368,0.01971
1053.09494,0.01961
1051.16619,0.01947
1049.23745,0.01936
1047.30870,0.01933
1045.37996,0.01929
1043.45121,0.01911
1041.52247,0.01894
1039.59372,0.01915
1037.66498,0.01974
1035.73623,0.02023
1033.80748,0.02032
1031.87874,0.02024
1029.94999,0.02042
1028.02125,0.02113
1026.09250,0.02201
1024.16376,0.02272
1022.23501,0.02322
1020.30627,0.02333
1018.37752,0.02300
1016.44878,0.02268
1014.52003,0.02286
1012.59129,0.02353
1010.66254,0.02423
1008.73380,0.02478
1006.80505,0.02526
1004.87631,0.02541
1002.94756,0.02520
1001.01881,0.02511
999.09007,0.02537
997.16132,0.02567
995.23258,0.02581
993.30383,0.02592
991.37509,0.02617
989.44634,0.02648
987.51760,0.02667
985.58885,0.02662
983.66011,0.02636
981.73136,0.02637
979.80262,0.02676
977.87387,0.02710
975.94513,0.02722
974.01638,0.02731
972.08763,0.02745
970.15889,0.02761
968.23014,0.02778
966.30140,0.02786
964.37265,0.02782
962.44391,0.02791
960.51516,0.02810
958.58642,0.02811
956.65767,0.02794
954.72893,0.02774
952.80018,0.02757
950.87144,0.02746
948.94269,0.02735
947.01395,0.02729
945.08520,0.02730
943.15646,0.02716
941.22771,0.02689
939.29896,0.02663
937.37022,0.02625
935.44147,0.02584
933.51273,0.02574
931.58398,0.02589
929.65524,0.02602
927.72649,0.02612
925.79775,0.02618
923.86900,0.02620
921.94026,0.02627
920.01151,0.02637
918.08277,0.02659
916.15402,0.02686
914.22528,0.02692
912.29653,0.02680
910.36779,0.02659
908.43904,0.02636
906.51029,0.02636
904.58155,0.02647
902.65280,0.02648
900.72406,0.02637
898.79531,0.02612
896.86657,0.02583
894.93782,0.02576
893.00908,0.02578
891.08033,0.02556
889.15159,0.02527
887.22284,0.02503
885.29410,0.02471
883.36535,0.02440
881.43661,0.02425
879.50786,0.02441
877.57911,0.02473
875.65037,0.02481
873.72162,0.02486
871.79288,0.02517
869.86413,0.02521
867.93539,0.02481
866.00664,0.02456
864.07790,0.02454
862.14915,0.02453
860.22041,0.02463
858.29166,0.02478
856.36292,0.02452
854.43417,0.02390
852.50543,0.02355
850.57668,0.02367
848.64794,0.02384
846.71919,0.02379
844.79044,0.02344
842.86170,0.02295
840.93295,0.02291
839.00421,0.02317
837.07546,0.02300
835.14672,0.02249
833.21797,0.02230
831.28923,0.02253
829.36048,0.02266
827.43174,0.02228
825.50299,0.02184
823.57425,0.02175
821.64550,0.02162
819.71676,0.02144
817.78801,0.02161
815.85926,0.02198
813.93052,0.02215
812.00177,0.02186
810.07303,0.02127
808.14428,0.02107
806.21554,0.02128
804.28679,0.02119
802.35805,0.02086
800.42930,0.02084
798.50056,0.02107
796.57181,0.02104
794.64307,0.02063
792.71432,0.02003
790.78558,0.01952
788.85683,0.01936
786.92809,0.01960
784.99934,0.01976
783.07059,0.01961
781.14185,0.01952
779.21310,0.01972
777.28436,0.02003
775.35561,0.02009
773.42687,0.01973
771.49812,0.01942
769.56938,0.01945
767.64063,0.01950
765.71189,0.01934
763.78314,0.01903
761.85440,0.01890
759.92565,0.01898
757.99691,0.01885
756.06816,0.01853
754.13942,0.01841
752.21067,0.01844
750.28192,0.01838
748.35318,0.01825
746.42443,0.01802
744.49569,0.01763
742.56694,0.01748
740.63820,0.01783
738.70945,0.01825
736.78071,0.01846
734.85196,0.01858
732.92322,0.01845
730.99447,0.01800
729.06573,0.01767
727.13698,0.01763
725.20824,0.01774
723.27949,0.01799
721.35074,0.01826
719.42200,0.01816
717.49325,0.01752
715.56451,0.01679
713.63576,0.01656
711.70702,0.01675
709.77827,0.01669
707.84953,0.01629
705.92078,0.01611
703.99204,0.01617
702.06329,0.01614
700.13455,0.01597
698.20580,0.01576
696.27706,0.01560
694.34831,0.01547
692.41957,0.01548
690.49082,0.01592
688.56207,0.01644
686.63333,0.01641
684.70458,0.01603
682.77584,0.01619
680.84709,0.01680
678.91835,0.01682
676.98960,0.01623
675.06086,0.01594
673.13211,0.01609
671.20337,0.01609
669.27462,0.01571
667.34588,0.01534
665.41713,0.01536
663.48839,0.01567
661.55964,0.01612
659.63090,0.01657
657.70215,0.01677
655.77340,0.01684
653.84466,0.01687
651.91591,0.01631
649.98717,0.01499
648.05842,0.01392
646.12968,0.01378
644.20093,0.01430
642.27219,0.01506
640.34344,0.01557
638.41470,0.01568
636.48595,0.01595
634.55721,0.01669
632.62846,0.01731
630.69972,0.01686
628.77097,0.01575
626.84222,0.01538
624.91348,0.01637
622.98473,0.01737
621.05599,0.01670
619.12724,0.01495
617.19850,0.01362
615.26975,0.01265
613.34101,0.01240
611.41226,0.01368
609.48352,0.01503
607.55477,0.01506
605.62603,0.01558
603.69728,0.01740
601.76854,0.01846
599.83979,0.01788
