7497.03301,0.77648
7495.10426,0.76880
7493.17552,0.76391
7491.24677,0.77056
7489.31803,0.77742
7487.38928,0.77188
7485.46054,0.76276
7483.53179,0.75913
7481.60305,0.75576
7479.67430,0.75153
7477.74556,0.75364
7475.81681,0.75985
7473.88807,0.76174
7471.95932,0.76033
7470.03057,0.76150
7468.10183,0.76420
7466.17308,0.76178
7464.24434,0.75445
7462.31559,0.74956
7460.38685,0.74842
7458.45810,0.74626
7456.52936,0.74322
7454.60061,0.74488
7452.67187,0.75158
7450.74312,0.75550
7448.81438,0.75227
7446.88563,0.74577
7444.95689,0.74036
7443.02814,0.73890
7441.09940,0.74148
7439.17065,0.74472
7437.24190,0.74700
7435.31316,0.74562
7433.38441,0.73893
7431.45567,0.73266
7429.52692,0.73038
7427.59818,0.72945
7425.66943,0.72713
7423.74069,0.72354
7421.81194,0.72313
7419.88320,0.72700
7417.95445,0.72914
7416.02571,0.72848
7414.09696,0.72781
7412.16822,0.72611
7410.23947,0.72518
7408.31073,0.72626
7406.38198,0.72636
7404.45323,0.72533
7402.52449,0.72124
7400.59574,0.71472
7398.66700,0.71375
7396.73825,0.71725
7394.80951,0.71910
7392.88076,0.72007
7390.95202,0.72022
7389.02327,0.71979
7387.09453,0.71986
7385.16578,0.71844
7383.23704,0.71522
7381.30829,0.71116
7379.37955,0.70897
7377.45080,0.71128
7375.52205,0.71368
7373.59331,0.71123
7371.66456,0.70733
7369.73582,0.70744
7367.80707,0.71085
7365.87833,0.71294
7363.94958,0.71140
7362.02084,0.70765
7360.09209,0.70539
7358.16335,0.70636
7356.23460,0.70796
7354.30586,0.70754
7352.37711,0.70531
7350.44837,0.70213
7348.51962,0.69879
7346.59088,0.69705
7344.66213,0.69801
7342.73338,0.69969
7340.80464,0.69939
7338.87589,0.69631
7336.94715,0.69216
7335.01840,0.69106
7333.08966,0.69320
7331.16091,0.69482
7329.23217,0.69420
7327.30342,0.69040
7325.37468,0.68456
7323.44593,0.68058
7321.51719,0.68082
7319.58844,0.68492
7317.65970,0.69078
7315.73095,0.69451
7313.80221,0.69243
7311.87346,0.68787
7309.94471,0.68667
7308.01597,0.68742
7306.08722,0.68649
7304.15848,0.68565
7302.22973,0.68901
7300.30099,0.69417
7298.37224,0.69412
7296.44350,0.69024
7294.51475,0.68988
7292.58601,0.69321
7290.65726,0.69355
7288.72852,0.68752
7286.79977,0.68030
7284.87103,0.67848
7282.94228,0.68161
7281.01353,0.68502
7279.08479,0.68570
7277.15604,0.68485
7275.22730,0.68266
7273.29855,0.67810
7271.36981,0.67575
7269.44106,0.67813
7267.51232,0.68206
7265.58357,0.68580
7263.65483,0.68876
7261.72608,0.69005
7259.79734,0.68840
7257.86859,0.68743
7255.93985,0.69092
7254.01110,0.69204
7252.08236,0.68677
7250.15361,0.68297
7248.22486,0.68398
7246.29612,0.68357
7244.36737,0.67925
7242.43863,0.67546
7240.50988,0.67570
7238.58114,0.67822
7236.65239,0.67959
7234.72365,0.68085
7232.79490,0.68336
7230.86616,0.68486
7228.93741,0.68412
7227.00867,0.68199
7225.07992,0.67950
7223.15118,0.67782
7221.22243,0.67817
7219.29369,0.67821
7217.36494,0.67588
7215.43619,0.67476
7213.50745,0.67503
7211.57870,0.67257
7209.64996,0.66749
7207.72121,0.66334
7205.79247,0.66229
7203.86372,0.66277
7201.93498,0.66411
7200.00623,0.66847
7198.07749,0.67289
7196.14874,0.67093
7194.22000,0.66364
7192.29125,0.65724
7190.36251,0.65401
7188.43376,0.65186
7186.50501,0.65056
7184.57627,0.65230
7182.64752,0.65508
7180.71878,0.65692
7178.79003,0.65911
7176.86129,0.65976
7174.93254,0.65790
7173.00380,0.65584
7171.07505,0.65512
7169.14631,0.65523
7167.21756,0.65449
7165.28882,0.65347
7163.36007,0.65176
7161.43133,0.64755
7159.50258,0.64342
7157.57384,0.64146
7155.64509,0.63952
7153.71634,0.63626
7151.78760,0.63361
7149.85885,0.63322
7147.93011,0.63351
7146.00136,0.63423
7144.07262,0.63630
7142.14387,0.63684
7140.21513,0.63409
7138.28638,0.62954
7136.35764,0.62575
7134.42889,0.62533
7132.50015,0.62644
7130.57140,0.62627
7128.64266,0.62573
7126.71391,0.62422
7124.78516,0.62035
7122.85642,0.61568
7120.92767,0.61217
7118.99893,0.60941
7117.07018,0.60607
7115.14144,0.60322
7113.21269,0.60158
7111.28395,0.60038
7109.35520,0.59998
7107.42646,0.59988
7105.49771,0.59911
7103.56897,0.59603
7101.64022,0.59011
7099.71148,0.58631
7097.78273,0.58720
7095.85399,0.58850
7093.92524,0.58765
7091.99649,0.58568
7090.06775,0.58270
7088.13900,0.57787
7086.21026,0.57299
7084.28151,0.57241
7082.35277,0.57592
7080.42402,0.57695
7078.49528,0.57420
7076.56653,0.57302
7074.63779,0.57415
7072.70904,0.57439
7070.78030,0.57096
7068.85155,0.56415
7066.92281,0.55917
7064.99406,0.55838
7063.06532,0.55863
7061.13657,0.55809
7059.20782,0.55656
7057.27908,0.55393
7055.35033,0.55210
7053.42159,0.55118
7051.49284,0.54889
7049.56410,0.54637
7047.63535,0.54473
7045.70661,0.54209
7043.77786,0.53870
7041.84912,0.53603
7039.92037,0.53432
7037.99163,0.53457
7036.06288,0.53539
7034.13414,0.53267
7032.20539,0.52835
7030.27664,0.52791
7028.34790,0.53021
7026.41915,0.53036
7024.49041,0.52798
7022.56166,0.52595
7020.63292,0.52397
7018.70417,0.52033
7016.77543,0.51689
7014.84668,0.51510
7012.91794,0.51355
7010.98919,0.51274
7009.06045,0.51349
7007.13170,0.51357
7005.20296,0.51306
7003.27421,0.51378
7001.34547,0.51403
6999.41672,0.51198
6997.48797,0.50802
6995.55923,0.50374
6993.63048,0.50217
6991.70174,0.50386
6989.77299,0.50511
6987.84425,0.50412
6985.91550,0.50170
6983.98676,0.49771
6982.05801,0.49441
6980.12927,0.49586
6978.20052,0.50038
6976.27178,0.50215
6974.34303,0.50051
6972.41429,0.49799
6970.48554,0.49404
6968.55680,0.48971
6966.62805,0.48927
6964.69930,0.49342
6962.77056,0.49776
6960.84181,0.49845
6958.91307,0.49577
6956.98432,0.49137
6955.05558,0.48719
6953.12683,0.48532
6951.19809,0.48452
6949.26934,0.48379
6947.34060,0.48616
6945.41185,0.48993
6943.48311,0.48957
6941.55436,0.48738
6939.62562,0.48824
6937.69687,0.49002
6935.76812,0.48913
6933.83938,0.48731
6931.91063,0.48724
6929.98189,0.48744
6928.05314,0.48695
6926.12440,0.48676
6924.19565,0.48687
6922.26691,0.48728
6920.33816,0.48677
6918.40942,0.48449
6916.48067,0.48281
6914.55193,0.48311
6912.62318,0.48504
6910.69444,0.48738
6908.76569,0.48752
6906.83695,0.48582
6904.90820,0.48515
6902.97945,0.48502
6901.05071,0.48342
6899.12196,0.48174
6897.19322,0.48131
6895.26447,0.47947
6893.33573,0.47690
6891.40698,0.47803
6889.47824,0.48131
6887.54949,0.48303
6885.62075,0.48409
6883.69200,0.48520
6881.76326,0.48482
6879.83451,0.48394
6877.90577,0.48433
6875.97702,0.48377
6874.04828,0.48221
6872.11953,0.48304
6870.19078,0.48456
6868.26204,0.48315
6866.33329,0.47982
6864.40455,0.47741
6862.47580,0.47672
6860.54706,0.47679
6858.61831,0.47708
6856.68957,0.47753
6854.76082,0.47766
6852.83208,0.47732
6850.90333,0.47826
6848.97459,0.48010
6847.04584,0.47893
6845.11710,0.47577
6843.18835,0.47584
6841.25960,0.47910
6839.33086,0.48149
6837.40211,0.48163
6835.47337,0.48128
6833.54462,0.48119
6831.61588,0.48002
6829.68713,0.47841
6827.75839,0.47871
6825.82964,0.47975
6823.90090,0.47904
6821.97215,0.47697
6820.04341,0.47515
6818.11466,0.47544
6816.18592,0.47692
6814.25717,0.47731
6812.32843,0.47789
6810.39968,0.47861
6808.47093,0.47732
6806.54219,0.47600
6804.61344,0.47762
6802.68470,0.48010
6800.75595,0.48104
6798.82721,0.48203
6796.89846,0.48344
6794.96972,0.48393
6793.04097,0.48339
6791.11223,0.48197
6789.18348,0.48095
6787.25474,0.48113
6785.32599,0.48026
6783.39725,0.47770
6781.46850,0.47685
6779.53975,0.47883
6777.61101,0.48127
6775.68226,0.48274
6773.75352,0.48265
6771.82477,0.48106
6769.89603,0.47989
6767.96728,0.48016
6766.03854,0.47995
6764.10979,0.47838
6762.18105,0.47768
6760.25230,0.47878
6758.32356,0.47984
6756.39481,0.47988
6754.46607,0.48031
6752.53732,0.48157
6750.60858,0.48252
6748.67983,0.48273
6746.75108,0.48221
6744.82234,0.48072
6742.89359,0.47833
6740.96485,0.47704
6739.03610,0.47812
6737.10736,0.47987
6735.17861,0.48210
6733.24987,0.48456
6731.32112,0.48478
6729.39238,0.48259
6727.46363,0.48001
6725.53489,0.47936
6723.60614,0.48223
6721.67740,0.48632
6719.74865,0.48769
6717.81991,0.48627
6715.89116,0.48473
6713.96241,0.48493
6712.03367,0.48653
6710.10492,0.48681
6708.17618,0.48540
6706.24743,0.48614
6704.31869,0.49000
6702.38994,0.49314
6700.46120,0.49304
6698.53245,0.49147
6696.60371,0.49093
6694.67496,0.49027
6692.74622,0.48774
6690.81747,0.48601
6688.88873,0.48733
6686.95998,0.48955
6685.03123,0.49039
6683.10249,0.48961
6681.17374,0.48827
6679.24500,0.48854
6677.31625,0.49087
6675.38751,0.49249
6673.45876,0.49258
6671.53002,0.49323
6669.60127,0.49335
6667.67253,0.49020
6665.74378,0.48685
6663.81504,0.48824
6661.88629,0.49252
6659.95755,0.49572
6658.02880,0.49819
6656.10006,0.50044
6654.17131,0.50104
6652.24256,0.50028
6650.31382,0.50032
6648.38507,0.50138
6646.45633,0.50121
6644.52758,0.49842
6642.59884,0.49540
6640.67009,0.49591
6638.74135,0.49872
6636.81260,0.49908
6634.88386,0.49670
6632.95511,0.49608
6631.02637,0.49942
6629.09762,0.50308
6627.16888,0.50271
6625.24013,0.49990
6623.31139,0.49823
6621.38264,0.49725
6619.45389,0.49718
6617.52515,0.49912
6615.59640,0.50111
6613.66766,0.50165
6611.73891,0.50109
6609.81017,0.50103
6607.88142,0.50221
6605.95268,0.50217
6604.02393,0.50120
6602.09519,0.50268
6600.16644,0.50634
6598.23770,0.50970
6596.30895,0.51116
6594.38021,0.50951
6592.45146,0.50608
6590.52271,0.50451
6588.59397,0.50625
6586.66522,0.50921
6584.73648,0.51097
6582.80773,0.51103
6580.87899,0.50983
6578.95024,0.50825
6577.02150,0.50771
6575.09275,0.50798
6573.16401,0.50703
6571.23526,0.50596
6569.30652,0.50727
6567.37777,0.50933
6565.44903,0.50990
6563.52028,0.50957
6561.59154,0.50992
6559.66279,0.51136
6557.73404,0.51213
6555.80530,0.51206
6553.87655,0.51324
6551.94781,0.51541
6550.01906,0.51644
6548.09032,0.51565
6546.16157,0.51395
6544.23283,0.51287
6542.30408,0.51354
6540.37534,0.51441
6538.44659,0.51382
6536.51785,0.51342
6534.58910,0.51450
6532.66036,0.51566
6530.73161,0.51571
6528.80287,0.51577
6526.87412,0.51653
6524.94537,0.51631
6523.01663,0.51550
6521.08788,0.51610
6519.15914,0.51765
6517.23039,0.51923
6515.30165,0.52060
6513.37290,0.52079
6511.44416,0.51982
6509.51541,0.51955
6507.58667,0.52101
6505.65792,0.52278
6503.72918,0.52250
6501.80043,0.52040
6499.87169,0.51910
6497.94294,0.51872
6496.01419,0.51739
6494.08545,0.51657
6492.15670,0.51947
6490.22796,0.52377
6488.29921,0.52383
6486.37047,0.52032
6484.44172,0.51784
6482.51298,0.51723
6480.58423,0.51805
6478.65549,0.52001
6476.72674,0.52136
6474.79800,0.52172
6472.86925,0.52230
6470.94051,0.52246
6469.01176,0.52138
6467.08302,0.52114
6465.15427,0.52236
6463.22552,0.52265
6461.29678,0.52240
6459.36803,0.52302
6457.43929,0.52407
6455.51054,0.52532
6453.58180,0.52542
6451.65305,0.52385
6449.72431,0.52236
6447.79556,0.52205
6445.86682,0.52292
6443.93807,0.52383
6442.00933,0.52355
6440.08058,0.52242
6438.15184,0.52204
6436.22309,0.52335
6434.29434,0.52562
6432.36560,0.52726
6430.43685,0.52779
6428.50811,0.52903
6426.57936,0.53078
6424.65062,0.53045
6422.72187,0.52886
6420.79313,0.52748
6418.86438,0.52558
6416.93564,0.52405
6415.00689,0.52403
6413.07815,0.52406
6411.14940,0.52304
6409.22066,0.52221
6407.29191,0.52293
6405.36317,0.52442
6403.43442,0.52501
6401.50567,0.52494
6399.57693,0.52561
6397.64818,0.52655
6395.71944,0.52652
6393.79069,0.52676
6391.86195,0.52841
6389.93320,0.52949
6388.00446,0.52860
6386.07571,0.52715
6384.14697,0.52643
6382.21822,0.52647
6380.28948,0.52741
6378.36073,0.52914
6376.43199,0.53024
6374.50324,0.53038
6372.57450,0.53098
6370.64575,0.53182
6368.71700,0.53249
6366.78826,0.53347
6364.85951,0.53343
6362.93077,0.53135
6361.00202,0.52887
6359.07328,0.52894
6357.14453,0.53196
6355.21579,0.53367
6353.28704,0.53148
6351.35830,0.52843
6349.42955,0.52799
6347.50081,0.52962
6345.57206,0.53130
6343.64332,0.53302
6341.71457,0.53379
6339.78582,0.53224
6337.85708,0.53018
6335.92833,0.52947
6333.99959,0.53049
6332.07084,0.53278
6330.14210,0.53437
6328.21335,0.53403
6326.28461,0.53311
6324.35586,0.53214
6322.42712,0.53036
6320.49837,0.52997
6318.56963,0.53259
6316.64088,0.53467
6314.71214,0.53396
6312.78339,0.53320
6310.85465,0.53395
6308.92590,0.53498
6306.99715,0.53608
6305.06841,0.53700
6303.13966,0.53667
6301.21092,0.53548
6299.28217,0.53481
6297.35343,0.53530
6295.42468,0.53656
6293.49594,0.53805
6291.56719,0.53940
6289.63845,0.54024
6287.70970,0.54049
6285.78096,0.53987
6283.85221,0.53841
6281.92347,0.53706
6279.99472,0.53741
6278.06598,0.53981
6276.13723,0.54179
6274.20848,0.54168
6272.27974,0.54108
6270.35099,0.54106
6268.42225,0.54084
6266.49350,0.54036
6264.56476,0.54149
6262.63601,0.54474
6260.70727,0.54729
6258.77852,0.54821
6256.84978,0.54930
6254.92103,0.54997
6252.99229,0.54936
6251.06354,0.54908
6249.13480,0.54988
6247.20605,0.55088
6245.27730,0.55085
6243.34856,0.54931
6241.41981,0.54793
6239.49107,0.54838
6237.56232,0.55043
6235.63358,0.55233
6233.70483,0.55266
6231.77609,0.55257
6229.84734,0.55320
6227.91860,0.55343
6225.98985,0.55259
6224.06111,0.55248
6222.13236,0.55423
6220.20362,0.55636
6218.27487,0.55831
6216.34613,0.55942
6214.41738,0.55802
6212.48863,0.55568
6210.55989,0.55585
6208.63114,0.55846
6206.70240,0.55998
6204.77365,0.55999
6202.84491,0.56119
6200.91616,0.56331
6198.98742,0.56447
6197.05867,0.56429
6195.12993,0.56395
6193.20118,0.56504
6191.27244,0.56718
6189.34369,0.56815
6187.41495,0.56716
6185.48620,0.56611
6183.55746,0.56633
6181.62871,0.56754
6179.69996,0.56881
6177.77122,0.56929
6175.84247,0.56936
6173.91373,0.56922
6171.98498,0.56915
6170.05624,0.57040
6168.12749,0.57253
6166.19875,0.57309
6164.27000,0.57154
6162.34126,0.57058
6160.41251,0.57181
6158.48377,0.57345
6156.55502,0.57386
6154.62628,0.57332
6152.69753,0.57251
6150.76878,0.57207
6148.84004,0.57218
6146.91129,0.57239
6144.98255,0.57300
6143.05380,0.57376
6141.12506,0.57358
6139.19631,0.57338
6137.26757,0.57437
6135.33882,0.57530
6133.41008,0.57494
6131.48133,0.57446
6129.55259,0.57550
6127.62384,0.57740
6125.69510,0.57820
6123.76635,0.57744
6121.83761,0.57677
6119.90886,0.57706
6117.98011,0.57762
6116.05137,0.57878
6114.12262,0.57995
6112.19388,0.57924
6110.26513,0.57756
6108.33639,0.57750
6106.40764,0.57917
6104.47890,0.58070
6102.55015,0.58064
6100.62141,0.57888
6098.69266,0.57748
6096.76392,0.57833
6094.83517,0.57960
6092.90643,0.57944
6090.97768,0.57913
6089.04893,0.57930
6087.12019,0.57925
6085.19144,0.57880
6083.26270,0.57832
6081.33395,0.57863
6079.40521,0.57991
6077.47646,0.58111
6075.54772,0.58180
6073.61897,0.58246
6071.69023,0.58266
6069.76148,0.58135
6067.83274,0.57940
6065.90399,0.57835
6063.97525,0.57767
6062.04650,0.57722
6060.11776,0.57791
6058.18901,0.57882
6056.26026,0.57859
6054.33152,0.57791
6052.40277,0.57815
6050.47403,0.57854
6048.54528,0.57719
6046.61654,0.57435
6044.68779,0.57216
6042.75905,0.57208
6040.83030,0.57338
6038.90156,0.57392
6036.97281,0.57308
6035.04407,0.57261
6033.11532,0.57338
6031.18658,0.57419
6029.25783,0.57416
6027.32909,0.57348
6025.40034,0.57233
6023.47159,0.57093
6021.54285,0.57020
6019.61410,0.57013
6017.68536,0.56907
6015.75661,0.56662
6013.82787,0.56390
6011.89912,0.56174
6009.97038,0.56132
6008.04163,0.56241
6006.11289,0.56285
6004.18414,0.56237
6002.25540,0.56240
6000.32665,0.56292
5998.39791,0.56263
5996.46916,0.56165
5994.54041,0.56111
5992.61167,0.56054
5990.68292,0.55944
5988.75418,0.55848
5986.82543,0.55760
5984.89669,0.55691
5982.96794,0.55727
5981.03920,0.55847
5979.11045,0.55942
5977.18171,0.55969
5975.25296,0.55889
5973.32422,0.55673
5971.39547,0.55438
5969.46673,0.55323
5967.53798,0.55310
5965.60924,0.55316
5963.68049,0.55334
5961.75174,0.55375
5959.82300,0.55383
5957.89425,0.55362
5955.96551,0.55409
5954.03676,0.55518
5952.10802,0.55570
5950.17927,0.55502
5948.25053,0.55332
5946.32178,0.55123
5944.39304,0.55003
5942.46429,0.55070
5940.53555,0.55260
5938.60680,0.55412
5936.67806,0.55444
5934.74931,0.55369
5932.82057,0.55225
5930.89182,0.55108
5928.96307,0.55106
5927.03433,0.55216
5925.10558,0.55383
5923.17684,0.55486
5921.24809,0.55421
5919.31935,0.55289
5917.39060,0.55216
5915.46186,0.55167
5913.53311,0.55090
5911.60437,0.55018
5909.67562,0.54990
5907.74688,0.54997
5905.81813,0.54968
5903.88939,0.54909
5901.96064,0.54932
5900.03189,0.54969
5898.10315,0.54896
5896.17440,0.54804
5894.24566,0.54755
5892.31691,0.54719
5890.38817,0.54706
5888.45942,0.54728
5886.53068,0.54802
5884.60193,0.54868
5882.67319,0.54820
5880.74444,0.54715
5878.81570,0.54718
5876.88695,0.54861
5874.95821,0.54967
5873.02946,0.54943
5871.10072,0.54912
5869.17197,0.54903
5867.24322,0.54825
5865.31448,0.54743
5863.38573,0.54744
5861.45699,0.54732
5859.52824,0.54685
5857.59950,0.54742
5855.67075,0.54893
5853.74201,0.54969
5851.81326,0.54891
5849.88452,0.54757
5847.95577,0.54738
5846.02703,0.54797
5844.09828,0.54707
5842.16954,0.54473
5840.24079,0.54349
5838.31205,0.54370
5836.38330,0.54400
5834.45455,0.54407
5832.52581,0.54376
5830.59706,0.54265
5828.66832,0.54117
5826.73957,0.54023
5824.81083,0.54016
5822.88208,0.54014
5820.95334,0.53957
5819.02459,0.53904
5817.09585,0.53882
5815.16710,0.53862
5813.23836,0.53833
5811.30961,0.53745
5809.38087,0.53570
5807.45212,0.53425
5805.52337,0.53438
5803.59463,0.53573
5801.66588,0.53693
5799.73714,0.53712
5797.80839,0.53689
5795.87965,0.53735
5793.95090,0.53789
5792.02216,0.53750
5790.09341,0.53725
5788.16467,0.53872
5786.23592,0.54102
5784.30718,0.54207
5782.37843,0.54208
5780.44969,0.54253
5778.52094,0.54309
5776.59220,0.54280
5774.66345,0.54210
5772.73470,0.54215
5770.80596,0.54313
5768.87721,0.54446
5766.94847,0.54530
5765.01972,0.54500
5763.09098,0.54461
5761.16223,0.54536
5759.23349,0.54637
5757.30474,0.54628
5755.37600,0.54536
5753.44725,0.54457
5751.51851,0.54423
5749.58976,0.54477
5747.66102,0.54634
5745.73227,0.54766
5743.80352,0.54770
5741.87478,0.54705
5739.94603,0.54696
5738.01729,0.54721
5736.08854,0.54695
5734.15980,0.54680
5732.23105,0.54675
5730.30231,0.54612
5728.37356,0.54568
5726.44482,0.54594
5724.51607,0.54672
5722.58733,0.54791
5720.65858,0.54870
5718.72984,0.54907
5716.80109,0.54980
5714.87235,0.55015
5712.94360,0.54924
5711.01485,0.54801
5709.08611,0.54730
5707.15736,0.54685
5705.22862,0.54659
5703.29987,0.54631
5701.37113,0.54580
5699.44238,0.54517
5697.51364,0.54456
5695.58489,0.54460
5693.65615,0.54529
5691.72740,0.54525
5689.79866,0.54428
5687.86991,0.54345
5685.94117,0.54340
5684.01242,0.54397
5682.08368,0.54426
5680.15493,0.54367
5678.22618,0.54288
5676.29744,0.54295
5674.36869,0.54352
5672.43995,0.54350
5670.51120,0.54305
5668.58246,0.54295
5666.65371,0.54334
5664.72497,0.54341
5662.79622,0.54265
5660.86748,0.54228
5658.93873,0.54288
5657.00999,0.54290
5655.08124,0.54191
5653.15250,0.54103
5651.22375,0.54008
5649.29500,0.53900
5647.36626,0.53886
5645.43751,0.53967
5643.50877,0.54089
5641.58002,0.54212
5639.65128,0.54279
5637.72253,0.54292
5635.79379,0.54272
5633.86504,0.54197
5631.93630,0.54115
5630.00755,0.54154
5628.07881,0.54271
5626.15006,0.54299
5624.22132,0.54234
5622.29257,0.54161
5620.36383,0.54119
5618.43508,0.54102
5616.50633,0.54065
5614.57759,0.54008
5612.64884,0.53986
5610.72010,0.53999
5608.79135,0.54067
5606.86261,0.54187
5604.93386,0.54226
5603.00512,0.54153
5601.07637,0.54069
5599.14763,0.54013
5597.21888,0.54008
5595.29014,0.54048
5593.36139,0.54048
5591.43265,0.53948
5589.50390,0.53829
5587.57516,0.53774
5585.64641,0.53784
5583.71766,0.53927
5581.78892,0.54150
5579.86017,0.54238
5577.93143,0.54167
5576.00268,0.54113
5574.07394,0.54167
5572.14519,0.54248
5570.21645,0.54288
5568.28770,0.54352
5566.35896,0.54479
5564.43021,0.54572
5562.50147,0.54585
5560.57272,0.54585
5558.64398,0.54597
5556.71523,0.54611
5554.78648,0.54632
5552.85774,0.54653
5550.92899,0.54681
5549.00025,0.54712
5547.07150,0.54715
5545.14276,0.54708
5543.21401,0.54707
5541.28527,0.54726
5539.35652,0.54788
5537.42778,0.54823
5535.49903,0.54764
5533.57029,0.54669
5531.64154,0.54649
5529.71280,0.54752
5527.78405,0.54879
5525.85531,0.54914
5523.92656,0.54893
5521.99781,0.54873
5520.06907,0.54856
5518.14032,0.54888
5516.21158,0.54995
5514.28283,0.55083
5512.35409,0.55074
5510.42534,0.55029
5508.49660,0.55024
5506.56785,0.55019
5504.63911,0.54984
5502.71036,0.55006
5500.78162,0.55131
5498.85287,0.55255
5496.92413,0.55278
5494.99538,0.55219
5493.06664,0.55132
5491.13789,0.55044
5489.20914,0.54981
5487.28040,0.54977
5485.35165,0.55026
5483.42291,0.55094
5481.49416,0.55182
5479.56542,0.55251
5477.63667,0.55224
5475.70793,0.55170
5473.77918,0.55219
5471.85044,0.55347
5469.92169,0.55432
5467.99295,0.55430
5466.06420,0.55404
5464.13546,0.55363
5462.20671,0.55292
5460.27796,0.55277
5458.34922,0.55412
5456.42047,0.55600
5454.49173,0.55658
5452.56298,0.55646
5450.63424,0.55719
5448.70549,0.55839
5446.77675,0.55898
5444.84800,0.55909
5442.91926,0.55937
5440.99051,0.55959
5439.06177,0.55964
5437.13302,0.56014
5435.20428,0.56077
5433.27553,0.56125
5431.34679,0.56191
5429.41804,0.56243
5427.48929,0.56279
5425.56055,0.56355
5423.63180,0.56459
5421.70306,0.56535
5419.77431,0.56576
5417.84557,0.56584
5415.91682,0.56547
5413.98808,0.56501
5412.05933,0.56502
5410.13059,0.56582
5408.20184,0.56694
5406.27310,0.56736
5404.34435,0.56719
5402.41561,0.56734
5400.48686,0.56771
5398.55811,0.56804
5396.62937,0.56832
5394.70062,0.56797
5392.77188,0.56700
5390.84313,0.56619
5388.91439,0.56551
5386.98564,0.56478
5385.05690,0.56498
5383.12815,0.56649
5381.19941,0.56756
5379.27066,0.56704
5377.34192,0.56595
5375.41317,0.56525
5373.48443,0.56502
5371.55568,0.56495
5369.62694,0.56424
5367.69819,0.56297
5365.76944,0.56265
5363.84070,0.56358
5361.91195,0.56424
5359.98321,0.56407
5358.05446,0.56383
5356.12572,0.56345
5354.19697,0.56275
5352.26823,0.56228
5350.33948,0.56192
5348.41074,0.56129
5346.48199,0.56030
5344.55325,0.55911
5342.62450,0.55843
5340.69576,0.55808
5338.76701,0.55713
5336.83827,0.55600
5334.90952,0.55512
5332.98077,0.55378
5331.05203,0.55195
5329.12328,0.55001
5327.19454,0.54802
5325.26579,0.54634
5323.33705,0.54498
5321.40830,0.54302
5319.47956,0.54019
5317.55081,0.53796
5315.62207,0.53695
5313.69332,0.53552
5311.76458,0.53280
5309.83583,0.53006
5307.90709,0.52791
5305.97834,0.52541
5304.04959,0.52244
5302.12085,0.51925
5300.19210,0.51538
5298.26336,0.51153
5296.33461,0.50854
5294.40587,0.50572
5292.47712,0.50265
5290.54838,0.49938
5288.61963,0.49552
5286.69089,0.49115
5284.76214,0.48659
5282.83340,0.48171
5280.90465,0.47687
5278.97591,0.47279
5277.04716,0.46933
5275.11842,0.46600
5273.18967,0.46205
5271.26092,0.45679
5269.33218,0.45101
5267.40343,0.44585
5265.47469,0.44132
5263.54594,0.43698
5261.61720,0.43279
5259.68845,0.42901
5257.75971,0.42541
5255.83096,0.42169
5253.90222,0.41799
5251.97347,0.41422
5250.04473,0.41043
5248.11598,0.40722
5246.18724,0.40466
5244.25849,0.40219
5242.32975,0.39914
5240.40100,0.39562
5238.47225,0.39268
5236.54351,0.39070
5234.61476,0.38871
5232.68602,0.38633
5230.75727,0.38443
5228.82853,0.38310
5226.89978,0.38150
5224.97104,0.37976
5223.04229,0.37847
5221.11355,0.37733
5219.18480,0.37585
5217.25606,0.37458
5215.32731,0.37436
5213.39857,0.37447
5211.46982,0.37364
5209.54107,0.37225
5207.61233,0.37128
5205.68358,0.37074
5203.75484,0.37043
5201.82609,0.37031
5199.89735,0.37002
5197.96860,0.36928
5196.03986,0.36837
5194.11111,0.36792
5192.18237,0.36840
5190.25362,0.36948
5188.32488,0.37014
5186.39613,0.37013
5184.46739,0.37032
5182.53864,0.37098
5180.60990,0.37127
5178.68115,0.37112
5176.75240,0.37161
5174.82366,0.37296
5172.89491,0.37449
5170.96617,0.37591
5169.03742,0.37707
5167.10868,0.37765
5165.17993,0.37779
5163.25119,0.37827
5161.32244,0.37936
5159.39370,0.38060
5157.46495,0.38164
5155.53621,0.38262
5153.60746,0.38391
5151.67872,0.38519
5149.74997,0.38619
5147.82123,0.38720
5145.89248,0.38804
5143.96373,0.38872
5142.03499,0.38987
5140.10624,0.39156
5138.17750,0.39305
5136.24875,0.39416
5134.32001,0.39568
5132.39126,0.39770
5130.46252,0.39933
5128.53377,0.40029
5126.60503,0.40104
5124.67628,0.40198
5122.74754,0.40282
5120.81879,0.40318
5118.89005,0.40385
5116.96130,0.40550
5115.03255,0.40731
5113.10381,0.40866
5111.17506,0.40992
5109.24632,0.41103
5107.31757,0.41163
5105.38883,0.41241
5103.46008,0.41383
5101.53134,0.41505
5099.60259,0.41572
5097.67385,0.41647
5095.74510,0.41755
5093.81636,0.41854
5091.88761,0.41935
5089.95887,0.42035
5088.03012,0.42172
5086.10138,0.42301
5084.17263,0.42413
5082.24388,0.42561
5080.31514,0.42688
5078.38639,0.42712
5076.45765,0.42730
5074.52890,0.42850
5072.60016,0.43043
5070.67141,0.43215
5068.74267,0.43317
5066.81392,0.43400
5064.88518,0.43487
5062.95643,0.43565
5061.02769,0.43644
5059.09894,0.43724
5057.17020,0.43799
5055.24145,0.43891
5053.31270,0.44022
5051.38396,0.44169
5049.45521,0.44300
5047.52647,0.44425
5045.59772,0.44543
5043.66898,0.44619
5041.74023,0.44648
5039.81149,0.44684
5037.88274,0.44773
5035.95400,0.44859
5034.02525,0.44881
5032.09651,0.44910
5030.16776,0.45001
5028.23902,0.45105
5026.31027,0.45183
5024.38153,0.45251
5022.45278,0.45329
5020.52403,0.45378
5018.59529,0.45410
5016.66654,0.45491
5014.73780,0.45588
5012.80905,0.45651
5010.88031,0.45675
5008.95156,0.45671
5007.02282,0.45689
5005.09407,0.45743
5003.16533,0.45801
5001.23658,0.45826
4999.30784,0.45781
4997.37909,0.45720
4995.45035,0.45729
4993.52160,0.45778
4991.59286,0.45788
4989.66411,0.45763
4987.73536,0.45763
4985.80662,0.45786
4983.87787,0.45791
4981.94913,0.45788
4980.02038,0.45766
4978.09164,0.45701
4976.16289,0.45641
4974.23415,0.45599
4972.30540,0.45538
4970.37666,0.45461
4968.44791,0.45385
4966.51917,0.45302
4964.59042,0.45207
4962.66168,0.45120
4960.73293,0.45012
4958.80418,0.44849
4956.87544,0.44712
4954.94669,0.44627
4953.01795,0.44509
4951.08920,0.44358
4949.16046,0.44233
4947.23171,0.44118
4945.30297,0.43987
4943.37422,0.43864
4941.44548,0.43751
4939.51673,0.43613
4937.58799,0.43435
4935.65924,0.43228
4933.73050,0.43015
4931.80175,0.42795
4929.87301,0.42587
4927.94426,0.42427
4926.01551,0.42305
4924.08677,0.42187
4922.15802,0.42019
4920.22928,0.41792
4918.30053,0.41583
4916.37179,0.41446
4914.44304,0.41349
4912.51430,0.41244
4910.58555,0.41074
4908.65681,0.40850
4906.72806,0.40662
4904.79932,0.40506
4902.87057,0.40315
4900.94183,0.40093
4899.01308,0.39878
4897.08434,0.39708
4895.15559,0.39549
4893.22684,0.39351
4891.29810,0.39165
4889.36935,0.39025
4887.44061,0.38892
4885.51186,0.38741
4883.58312,0.38610
4881.65437,0.38526
4879.72563,0.38401
4877.79688,0.38156
4875.86814,0.37897
4873.93939,0.37735
4872.01065,0.37631
4870.08190,0.37507
4868.15316,0.37311
4866.22441,0.37064
4864.29566,0.36893
4862.36692,0.36854
4860.43817,0.36810
4858.50943,0.36645
4856.58068,0.36444
4854.65194,0.36321
4852.72319,0.36260
4850.79445,0.36171
4848.86570,0.36015
4846.93696,0.35853
4845.00821,0.35731
4843.07947,0.35606
4841.15072,0.35454
4839.22198,0.35315
4837.29323,0.35208
4835.36449,0.35116
4833.43574,0.35048
4831.50699,0.34998
4829.57825,0.34934
4827.64950,0.34842
4825.72076,0.34732
4823.79201,0.34636
4821.86327,0.34576
4819.93452,0.34506
4818.00578,0.34401
4816.07703,0.34305
4814.14829,0.34219
4812.21954,0.34127
4810.29080,0.34064
4808.36205,0.34041
4806.43331,0.34008
4804.50456,0.33946
4802.57582,0.33883
4800.64707,0.33817
4798.71832,0.33765
4796.78958,0.33764
4794.86083,0.33784
4792.93209,0.33775
4791.00334,0.33732
4789.07460,0.33664
4787.14585,0.33610
4785.21711,0.33584
4783.28836,0.33549
4781.35962,0.33511
4779.43087,0.33489
4777.50213,0.33486
4775.57338,0.33514
4773.64464,0.33516
4771.71589,0.33429
4769.78714,0.33326
4767.85840,0.33300
4765.92965,0.33330
4764.00091,0.33352
4762.07216,0.33364
4760.14342,0.33365
4758.21467,0.33321
4756.28593,0.33241
4754.35718,0.33184
4752.42844,0.33177
4750.49969,0.33185
4748.57095,0.33171
4746.64220,0.33146
4744.71346,0.33143
4742.78471,0.33173
4740.85597,0.33215
4738.92722,0.33232
4736.99847,0.33233
4735.06973,0.33255
4733.14098,0.33283
4731.21224,0.33306
4729.28349,0.33350
4727.35475,0.33412
4725.42600,0.33456
4723.49726,0.33455
4721.56851,0.33418
4719.63977,0.33407
4717.71102,0.33477
4715.78228,0.33550
4713.85353,0.33542
4711.92479,0.33522
4709.99604,0.33546
4708.06729,0.33572
4706.13855,0.33566
4704.20980,0.33539
4702.28106,0.33534
4700.35231,0.33578
4698.42357,0.33635
4696.49482,0.33668
4694.56608,0.33701
4692.63733,0.33757
4690.70859,0.33804
4688.77984,0.33837
4686.85110,0.33884
4684.92235,0.33942
4682.99361,0.33982
4681.06486,0.34014
4679.13612,0.34079
4677.20737,0.34160
4675.27862,0.34224
4673.34988,0.34284
4671.42113,0.34336
4669.49239,0.34371
4667.56364,0.34414
4665.63490,0.34494
4663.70615,0.34627
4661.77741,0.34768
4659.84866,0.34855
4657.91992,0.34900
4655.99117,0.34925
4654.06243,0.34957
4652.13368,0.35048
4650.20494,0.35172
4648.27619,0.35262
4646.34745,0.35317
4644.41870,0.35388
4642.48995,0.35470
4640.56121,0.35536
4638.63246,0.35593
4636.70372,0.35645
4634.77497,0.35700
4632.84623,0.35780
4630.91748,0.35885
4628.98874,0.35982
4627.05999,0.36016
4625.13125,0.35987
4623.20250,0.35988
4621.27376,0.36100
4619.34501,0.36271
4617.41627,0.36404
4615.48752,0.36492
4613.55877,0.36550
4611.63003,0.36584
4609.70128,0.36634
4607.77254,0.36715
4605.84379,0.36800
4603.91505,0.36855
4601.98630,0.36888
4600.05756,0.36946
4598.12881,0.37039
4596.20007,0.37135
4594.27132,0.37226
4592.34258,0.37320
4590.41383,0.37387
4588.48509,0.37428
4586.55634,0.37465
4584.62760,0.37494
4582.69885,0.37551
4580.77010,0.37666
4578.84136,0.37783
4576.91261,0.37842
4574.98387,0.37839
4573.05512,0.37800
4571.12638,0.37802
4569.19763,0.37878
4567.26889,0.37971
4565.34014,0.38047
4563.41140,0.38081
4561.48265,0.38066
4559.55391,0.38064
4557.62516,0.38113
4555.69642,0.38206
4553.76767,0.38309
4551.83893,0.38370
4549.91018,0.38369
4547.98143,0.38366
4546.05269,0.38427
4544.12394,0.38516
4542.19520,0.38550
4540.26645,0.38551
4538.33771,0.38585
4536.40896,0.38631
4534.48022,0.38655
4532.55147,0.38681
4530.62273,0.38717
4528.69398,0.38729
4526.76524,0.38712
4524.83649,0.38704
4522.90775,0.38721
4520.97900,0.38770
4519.05025,0.38831
4517.12151,0.38847
4515.19276,0.38802
4513.26402,0.38743
4511.33527,0.38708
4509.40653,0.38675
4507.47778,0.38626
4505.54904,0.38584
4503.62029,0.38551
4501.69155,0.38505
4499.76280,0.38417
4497.83406,0.38307
4495.90531,0.38190
4493.97657,0.38032
4492.04782,0.37849
4490.11908,0.37677
4488.19033,0.37522
4486.26158,0.37381
4484.33284,0.37240
4482.40409,0.37068
4480.47535,0.36879
4478.54660,0.36708
4476.61786,0.36522
4474.68911,0.36268
4472.76037,0.35970
4470.83162,0.35697
4468.90288,0.35453
4466.97413,0.35192
4465.04539,0.34935
4463.11664,0.34706
4461.18790,0.34480
4459.25915,0.34227
4457.33041,0.33935
4455.40166,0.33631
4453.47291,0.33353
4451.54417,0.33094
4449.61542,0.32845
4447.68668,0.32637
4445.75793,0.32454
4443.82919,0.32241
4441.90044,0.31997
4439.97170,0.31754
4438.04295,0.31551
4436.11421,0.31396
4434.18546,0.31238
4432.25672,0.31059
4430.32797,0.30893
4428.39923,0.30755
4426.47048,0.30601
4424.54173,0.30399
4422.61299,0.30200
4420.68424,0.30055
4418.75550,0.29956
4416.82675,0.29888
4414.89801,0.29826
4412.96926,0.29731
4411.04052,0.29629
4409.11177,0.29568
4407.18303,0.29547
4405.25428,0.29549
4403.32554,0.29549
4401.39679,0.29508
4399.46805,0.29441
4397.53930,0.29433
4395.61056,0.29489
4393.68181,0.29513
4391.75306,0.29467
4389.82432,0.29426
4387.89557,0.29441
4385.96683,0.29500
4384.03808,0.29583
4382.10934,0.29662
4380.18059,0.29727
4378.25185,0.29800
4376.32310,0.29879
4374.39436,0.29965
4372.46561,0.30052
4370.53687,0.30099
4368.60812,0.30111
4366.67938,0.30161
4364.75063,0.30230
4362.82189,0.30236
4360.89314,0.30201
4358.96439,0.30204
4357.03565,0.30241
4355.10690,0.30258
4353.17816,0.30219
4351.24941,0.30135
4349.32067,0.30063
4347.39192,0.30046
4345.46318,0.30051
4343.53443,0.30035
4341.60569,0.30003
4339.67694,0.29947
4337.74820,0.29859
4335.81945,0.29761
4333.89071,0.29674
4331.96196,0.29604
4330.03321,0.29546
4328.10447,0.29475
4326.17572,0.29377
4324.24698,0.29287
4322.31823,0.29221
4320.38949,0.29157
4318.46074,0.29082
4316.53200,0.28987
4314.60325,0.28899
4312.67451,0.28839
4310.74576,0.28787
4308.81702,0.28724
4306.88827,0.28653
4304.95953,0.28573
4303.03078,0.28490
4301.10204,0.28435
4299.17329,0.28426
4297.24454,0.28416
4295.31580,0.28367
4293.38705,0.28313
4291.45831,0.28279
4289.52956,0.28248
4287.60082,0.28218
4285.67207,0.28209
4283.74333,0.28223
4281.81458,0.28250
4279.88584,0.28259
4277.95709,0.28230
4276.02835,0.28197
4274.09960,0.28220
4272.17086,0.28288
4270.24211,0.28346
4268.31336,0.28389
4266.38462,0.28430
4264.45587,0.28470
4262.52713,0.28505
4260.59838,0.28523
4258.66964,0.28530
4256.74089,0.28558
4254.81215,0.28619
4252.88340,0.28683
4250.95466,0.28709
4249.02591,0.28690
4247.09717,0.28673
4245.16842,0.28680
4243.23968,0.28689
4241.31093,0.28714
4239.38219,0.28761
4237.45344,0.28800
4235.52469,0.28826
4233.59595,0.28852
4231.66720,0.28894
4229.73846,0.28938
4227.80971,0.28942
4225.88097,0.28938
4223.95222,0.28968
4222.02348,0.29001
4220.09473,0.29011
4218.16599,0.29007
4216.23724,0.29001
4214.30850,0.29009
4212.37975,0.29038
4210.45101,0.29062
4208.52226,0.29072
4206.59352,0.29089
4204.66477,0.29104
4202.73602,0.29104
4200.80728,0.29103
4198.87853,0.29118
4196.94979,0.29143
4195.02104,0.29166
4193.09230,0.29185
4191.16355,0.29193
4189.23481,0.29178
4187.30606,0.29163
4185.37732,0.29168
4183.44857,0.29190
4181.51983,0.29212
4179.59108,0.29226
4177.66234,0.29258
4175.73359,0.29291
4173.80484,0.29296
4171.87610,0.29311
4169.94735,0.29356
4168.01861,0.29397
4166.08986,0.29433
4164.16112,0.29475
4162.23237,0.29486
4160.30363,0.29433
4158.37488,0.29349
4156.44614,0.29258
4154.51739,0.29176
4152.58865,0.29140
4150.65990,0.29131
4148.73116,0.29108
4146.80241,0.29073
4144.87367,0.29023
4142.94492,0.28950
4141.01617,0.28868
4139.08743,0.28784
4137.15868,0.28686
4135.22994,0.28575
4133.30119,0.28458
4131.37245,0.28339
4129.44370,0.28235
4127.51496,0.28136
4125.58621,0.28014
4123.65747,0.27879
4121.72872,0.27745
4119.79998,0.27619
4117.87123,0.27508
4115.94249,0.27388
4114.01374,0.27259
4112.08500,0.27152
4110.15625,0.27055
4108.22750,0.26951
4106.29876,0.26849
4104.37001,0.26720
4102.44127,0.26546
4100.51252,0.26380
4098.58378,0.26242
4096.65503,0.26096
4094.72629,0.25931
4092.79754,0.25761
4090.86880,0.25598
4088.94005,0.25446
4087.01131,0.25320
4085.08256,0.25209
4083.15382,0.25063
4081.22507,0.24871
4079.29632,0.24682
4077.36758,0.24532
4075.43883,0.24394
4073.51009,0.24211
4071.58134,0.24006
4069.65260,0.23845
4067.72385,0.23724
4065.79511,0.23606
4063.86636,0.23468
4061.93762,0.23310
4060.00887,0.23155
4058.08013,0.23004
4056.15138,0.22864
4054.22264,0.22750
4052.29389,0.22652
4050.36515,0.22551
4048.43640,0.22443
4046.50765,0.22349
4044.57891,0.22264
4042.65016,0.22136
4040.72142,0.21967
4038.79267,0.21828
4036.86393,0.21737
4034.93518,0.21656
4033.00644,0.21583
4031.07769,0.21533
4029.14895,0.21491
4027.22020,0.21450
4025.29146,0.21413
4023.36271,0.21368
4021.43397,0.21312
4019.50522,0.21272
4017.57648,0.21258
4015.64773,0.21240
4013.71898,0.21210
4011.79024,0.21196
4009.86149,0.21206
4007.93275,0.21218
4006.00400,0.21230
4004.07526,0.21262
4002.14651,0.21300
4000.21777,0.21314
3998.28902,0.21316
3996.36028,0.21345
3994.43153,0.21409
3992.50279,0.21481
3990.57404,0.21530
3988.64530,0.21551
3986.71655,0.21570
3984.78780,0.21605
3982.85906,0.21644
3980.93031,0.21671
3979.00157,0.21688
3977.07282,0.21714
3975.14408,0.21775
3973.21533,0.21866
3971.28659,0.21957
3969.35784,0.22019
3967.42910,0.22064
3965.50035,0.22111
3963.57161,0.22159
3961.64286,0.22219
3959.71412,0.22303
3957.78537,0.22394
3955.85663,0.22468
3953.92788,0.22517
3951.99913,0.22579
3950.07039,0.22674
3948.14164,0.22758
3946.21290,0.22808
3944.28415,0.22861
3942.35541,0.22931
3940.42666,0.23013
3938.49792,0.23093
3936.56917,0.23138
3934.64043,0.23177
3932.71168,0.23272
3930.78294,0.23389
3928.85419,0.23467
3926.92545,0.23508
3924.99670,0.23556
3923.06795,0.23639
3921.13921,0.23736
3919.21046,0.23827
3917.28172,0.23907
3915.35297,0.23975
3913.42423,0.24047
3911.49548,0.24124
3909.56674,0.24188
3907.63799,0.24245
3905.70925,0.24312
3903.78050,0.24374
3901.85176,0.24436
3899.92301,0.24529
3897.99427,0.24658
3896.06552,0.24776
3894.13678,0.24839
3892.20803,0.24860
3890.27928,0.24888
3888.35054,0.24954
3886.42179,0.25034
3884.49305,0.25099
3882.56430,0.25175
3880.63556,0.25262
3878.70681,0.25332
3876.77807,0.25388
3874.84932,0.25425
3872.92058,0.25453
3870.99183,0.25503
3869.06309,0.25597
3867.13434,0.25721
3865.20560,0.25827
3863.27685,0.25906
3861.34811,0.25995
3859.41936,0.26112
3857.49061,0.26236
3855.56187,0.26328
3853.63312,0.26358
3851.70438,0.26371
3849.77563,0.26423
3847.84689,0.26510
3845.91814,0.26608
3843.98940,0.26700
3842.06065,0.26799
3840.13191,0.26903
3838.20316,0.26982
3836.27442,0.27019
3834.34567,0.27029
3832.41693,0.27027
3830.48818,0.27015
3828.55943,0.27010
3826.63069,0.27032
3824.70194,0.27090
3822.77320,0.27165
3820.84445,0.27194
3818.91571,0.27163
3816.98696,0.27128
3815.05822,0.27101
3813.12947,0.27089
3811.20073,0.27115
3809.27198,0.27158
3807.34324,0.27163
3805.41449,0.27136
3803.48575,0.27111
3801.55700,0.27071
3799.62826,0.27030
3797.69951,0.27013
3795.77076,0.26992
3793.84202,0.26949
3791.91327,0.26890
3789.98453,0.26842
3788.05578,0.26835
3786.12704,0.26854
3784.19829,0.26858
3782.26955,0.26826
3780.34080,0.26761
3778.41206,0.26674
3776.48331,0.26598
3774.55457,0.26543
3772.62582,0.26486
3770.69708,0.26417
3768.76833,0.26351
3766.83959,0.26285
3764.91084,0.26207
3762.98209,0.26138
3761.05335,0.26088
3759.12460,0.26013
3757.19586,0.25905
3755.26711,0.25811
3753.33837,0.25751
3751.40962,0.25696
3749.48088,0.25608
3747.55213,0.25525
3745.62339,0.25446
3743.69464,0.25322
3741.76590,0.25231
3739.83715,0.25204
3737.90841,0.25122
3735.97966,0.24953
3734.05091,0.24796
3732.12217,0.24662
3730.19342,0.24516
3728.26468,0.24384
3726.33593,0.24264
3724.40719,0.24122
3722.47844,0.23945
3720.54970,0.23754
3718.62095,0.23564
3716.69221,0.23379
3714.76346,0.23181
3712.83472,0.22938
3710.90597,0.22683
3708.97723,0.22457
3707.04848,0.22227
3705.11974,0.21971
3703.19099,0.21678
3701.26224,0.21340
3699.33350,0.21003
3697.40475,0.20696
3695.47601,0.20392
3693.54726,0.20058
3691.61852,0.19683
3689.68977,0.19249
3687.76103,0.18753
3685.83228,0.18265
3683.90354,0.17831
3681.97479,0.17425
3680.04605,0.17018
3678.11730,0.16611
3676.18856,0.16137
3674.25981,0.15600
3672.33107,0.15138
3670.40232,0.14711
3668.47357,0.14252
3666.54483,0.13829
3664.61608,0.13446
3662.68734,0.13071
3660.75859,0.12704
3658.82985,0.12372
3656.90110,0.12078
3654.97236,0.11775
3653.04361,0.11464
3651.11487,0.11171
3649.18612,0.10900
3647.25738,0.10643
3645.32863,0.10389
3643.39989,0.10138
3641.47114,0.09908
3639.54239,0.09711
3637.61365,0.09524
3635.68490,0.09332
3633.75616,0.09164
3631.82741,0.09020
3629.89867,0.08854
3627.96992,0.08655
3626.04118,0.08479
3624.11243,0.08346
3622.18369,0.08226
3620.25494,0.08083
3618.32620,0.07924
3616.39745,0.07799
3614.46871,0.07706
3612.53996,0.07601
3610.61122,0.07472
3608.68247,0.07346
3606.75372,0.07241
3604.82498,0.07128
3602.89623,0.06985
3600.96749,0.06853
3599.03874,0.06763
3597.11000,0.06679
3595.18125,0.06574
3593.25251,0.06461
3591.32376,0.06357
3589.39502,0.06264
3587.46627,0.06160
3585.53753,0.06050
3583.60878,0.05975
3581.68004,0.05918
3579.75129,0.05855
3577.82254,0.05805
3575.89380,0.05755
3573.96505,0.05681
3572.03631,0.05601
3570.10756,0.05523
3568.17882,0.05453
3566.25007,0.05410
3564.32133,0.05374
3562.39258,0.05314
3560.46384,0.05240
3558.53509,0.05171
3556.60635,0.05110
3554.67760,0.05060
3552.74886,0.05031
3550.82011,0.05005
3548.89137,0.04975
3546.96262,0.04932
3545.03387,0.04863
3543.10513,0.04796
3541.17638,0.04755
3539.24764,0.04732
3537.31889,0.04707
3535.39015,0.04664
3533.46140,0.04614
3531.53266,0.04582
3529.60391,0.04573
3527.67517,0.04574
3525.74642,0.04559
3523.81768,0.04526
3521.88893,0.04495
3519.96019,0.04462
3518.03144,0.04426
3516.10270,0.04400
3514.17395,0.04368
3512.24520,0.04324
3510.31646,0.04295
3508.38771,0.04284
3506.45897,0.04271
3504.53022,0.04248
3502.60148,0.04242
3500.67273,0.04267
3498.74399,0.04288
3496.81524,0.04265
3494.88650,0.04210
3492.95775,0.04166
3491.02901,0.04159
3489.10026,0.04156
3487.17152,0.04117
3485.24277,0.04065
3483.31402,0.04045
3481.38528,0.04046
3479.45653,0.04032
3477.52779,0.04002
3475.59904,0.03980
3473.67030,0.03968
3471.74155,0.03963
3469.81281,0.03976
3467.88406,0.04009
3465.95532,0.04023
3464.02657,0.04013
3462.09783,0.04011
3460.16908,0.03988
3458.24034,0.03919
3456.31159,0.03876
3454.38285,0.03899
3452.45410,0.03920
3450.52535,0.03905
3448.59661,0.03897
3446.66786,0.03916
3444.73912,0.03943
3442.81037,0.03958
3440.88163,0.03969
3438.95288,0.03978
3437.02414,0.03965
3435.09539,0.03956
3433.16665,0.03975
3431.23790,0.03993
3429.30916,0.03999
3427.38041,0.04002
3425.45167,0.03987
3423.52292,0.03948
3421.59418,0.03922
3419.66543,0.03931
3417.73668,0.03956
3415.80794,0.03982
3413.87919,0.03987
3411.95045,0.03982
3410.02170,0.04012
3408.09296,0.04046
3406.16421,0.04040
3404.23547,0.04018
3402.30672,0.04024
3400.37798,0.04055
3398.44923,0.04086
3396.52049,0.04113
3394.59174,0.04122
3392.66300,0.04087
3390.73425,0.04056
3388.80550,0.04064
3386.87676,0.04081
3384.94801,0.04088
3383.01927,0.04090
3381.09052,0.04090
3379.16178,0.04089
3377.23303,0.04103
3375.30429,0.04134
3373.37554,0.04163
3371.44680,0.04173
3369.51805,0.04164
3367.58931,0.04159
3365.66056,0.04168
3363.73182,0.04193
3361.80307,0.04235
3359.87433,0.04260
3357.94558,0.04236
3356.01683,0.04198
3354.08809,0.04194
3352.15934,0.04226
3350.23060,0.04266
3348.30185,0.04299
3346.37311,0.04325
3344.44436,0.04333
3342.51562,0.04332
3340.58687,0.04354
3338.65813,0.04373
3336.72938,0.04353
3334.80064,0.04331
3332.87189,0.04344
3330.94315,0.04387
3329.01440,0.04441
3327.08566,0.04475
3325.15691,0.04477
3323.22816,0.04463
3321.29942,0.04442
3319.37067,0.04440
3317.44193,0.04475
3315.51318,0.04507
3313.58444,0.04516
3311.65569,0.04537
3309.72695,0.04574
3307.79820,0.04590
3305.86946,0.04582
3303.94071,0.04593
3302.01197,0.04630
3300.08322,0.04646
3298.15448,0.04635
3296.22573,0.04641
3294.29698,0.04677
3292.36824,0.04718
3290.43949,0.04735
3288.51075,0.04732
3286.58200,0.04755
3284.65326,0.04801
3282.72451,0.04813
3280.79577,0.04795
3278.86702,0.04796
3276.93828,0.04828
3275.00953,0.04865
3273.08079,0.04890
3271.15204,0.04917
3269.22330,0.04958
3267.29455,0.04976
3265.36581,0.04972
3263.43706,0.05002
3261.50831,0.05056
3259.57957,0.05090
3257.65082,0.05101
3255.72208,0.05105
3253.79333,0.05107
3251.86459,0.05108
3249.93584,0.05132
3248.00710,0.05198
3246.07835,0.05264
3244.14961,0.05286
3242.22086,0.05294
3240.29212,0.05318
3238.36337,0.05326
3236.43463,0.05309
3234.50588,0.05320
3232.57713,0.05373
3230.64839,0.05443
3228.71964,0.05494
3226.79090,0.05517
3224.86215,0.05521
3222.93341,0.05532
3221.00466,0.05557
3219.07592,0.05568
3217.14717,0.05571
3215.21843,0.05607
3213.28968,0.05661
3211.36094,0.05697
3209.43219,0.05727
3207.50345,0.05781
3205.57470,0.05850
3203.64596,0.05878
3201.71721,0.05848
3199.78846,0.05841
3197.85972,0.05886
3195.93097,0.05913
3194.00223,0.05929
3192.07348,0.05972
3190.14474,0.06012
3188.21599,0.06042
3186.28725,0.06094
3184.35850,0.06132
3182.42976,0.06120
3180.50101,0.06121
3178.57227,0.06185
3176.64352,0.06246
3174.71478,0.06250
3172.78603,0.06243
3170.85729,0.06256
3168.92854,0.06285
3166.99979,0.06333
3165.07105,0.06395
3163.14230,0.06446
3161.21356,0.06462
3159.28481,0.06455
3157.35607,0.06467
3155.42732,0.06519
3153.49858,0.06585
3151.56983,0.06625
3149.64109,0.06652
3147.71234,0.06686
3145.78360,0.06720
3143.85485,0.06760
3141.92611,0.06809
3139.99736,0.06848
3138.06861,0.06875
3136.13987,0.06902
3134.21112,0.06931
3132.28238,0.06946
3130.35363,0.06948
3128.42489,0.06958
3126.49614,0.06973
3124.56740,0.06997
3122.63865,0.07042
3120.70991,0.07077
3118.78116,0.07093
3116.85242,0.07116
3114.92367,0.07158
3112.99493,0.07212
3111.06618,0.07259
3109.13744,0.07295
3107.20869,0.07317
3105.27994,0.07320
3103.35120,0.07333
3101.42245,0.07376
3099.49371,0.07416
3097.56496,0.07419
3095.63622,0.07399
3093.70747,0.07409
3091.77873,0.07460
3089.84998,0.07518
3087.92124,0.07565
3085.99249,0.07590
3084.06375,0.07599
3082.13500,0.07624
3080.20626,0.07663
3078.27751,0.07688
3076.34877,0.07710
3074.42002,0.07734
3072.49127,0.07761
3070.56253,0.07808
3068.63378,0.07853
3066.70504,0.07870
3064.77629,0.07889
3062.84755,0.07914
3060.91880,0.07928
3058.99006,0.07948
3057.06131,0.07977
3055.13257,0.08009
3053.20382,0.08053
3051.27508,0.08094
3049.34633,0.08121
3047.41759,0.08148
3045.48884,0.08175
3043.56009,0.08175
3041.63135,0.08156
3039.70260,0.08146
3037.77386,0.08161
3035.84511,0.08189
3033.91637,0.08193
3031.98762,0.08163
3030.05888,0.08127
3028.13013,0.08112
3026.20139,0.08127
3024.27264,0.08131
3022.34390,0.08094
3020.41515,0.08048
3018.48641,0.08013
3016.55766,0.07986
3014.62892,0.07974
3012.70017,0.07960
3010.77142,0.07916
3008.84268,0.07865
3006.91393,0.07832
3004.98519,0.07799
3003.05644,0.07760
3001.12770,0.07726
2999.19895,0.07695
2997.27021,0.07642
2995.34146,0.07571
2993.41272,0.07517
2991.48397,0.07474
2989.55523,0.07411
2987.62648,0.07335
2985.69774,0.07267
2983.76899,0.07202
2981.84025,0.07121
2979.91150,0.07022
2977.98275,0.06903
2976.05401,0.06779
2974.12526,0.06680
2972.19652,0.06607
2970.26777,0.06542
2968.33903,0.06470
2966.41028,0.06390
2964.48154,0.06321
2962.55279,0.06264
2960.62405,0.06218
2958.69530,0.06189
2956.76656,0.06145
2954.83781,0.06068
2952.90907,0.06002
2950.98032,0.05969
2949.05157,0.05935
2947.12283,0.05888
2945.19408,0.05830
2943.26534,0.05767
2941.33659,0.05728
2939.40785,0.05713
2937.47910,0.05699
2935.55036,0.05705
2933.62161,0.05733
2931.69287,0.05739
2929.76412,0.05720
2927.83538,0.05699
2925.90663,0.05687
2923.97789,0.05683
2922.04914,0.05693
2920.12040,0.05716
2918.19165,0.05733
2916.26290,0.05736
2914.33416,0.05747
2912.40541,0.05772
2910.47667,0.05786
2908.54792,0.05781
2906.61918,0.05777
2904.69043,0.05785
2902.76169,0.05798
2900.83294,0.05802
2898.90420,0.05801
2896.97545,0.05823
2895.04671,0.05864
2893.11796,0.05883
2891.18922,0.05883
2889.26047,0.05910
2887.33172,0.05965
2885.40298,0.06018
2883.47423,0.06045
2881.54549,0.06049
2879.61674,0.06055
2877.68800,0.06077
2875.75925,0.06111
2873.83051,0.06141
2871.90176,0.06161
2869.97302,0.06180
2868.04427,0.06213
2866.11553,0.06254
2864.18678,0.06288
2862.25804,0.06326
2860.32929,0.06382
2858.40055,0.06438
2856.47180,0.06482
2854.54305,0.06525
2852.61431,0.06578
2850.68556,0.06653
2848.75682,0.06754
2846.82807,0.06867
2844.89933,0.06969
2842.97058,0.07050
2841.04184,0.07120
2839.11309,0.07208
2837.18435,0.07327
2835.25560,0.07464
2833.32686,0.07600
2831.39811,0.07723
2829.46937,0.07831
2827.54062,0.07935
2825.61188,0.08033
2823.68313,0.08118
2821.75438,0.08203
2819.82564,0.08301
2817.89689,0.08405
2815.96815,0.08500
2814.03940,0.08573
2812.11066,0.08635
2810.18191,0.08707
2808.25317,0.08773
2806.32442,0.08811
2804.39568,0.08842
2802.46693,0.08891
2800.53819,0.08946
2798.60944,0.08984
2796.68070,0.09011
2794.75195,0.09046
2792.82320,0.09098
2790.89446,0.09151
2788.96571,0.09192
2787.03697,0.09237
2785.10822,0.09279
2783.17948,0.09302
2781.25073,0.09329
2779.32199,0.09376
2777.39324,0.09427
2775.46450,0.09473
2773.53575,0.09512
2771.60701,0.09530
2769.67826,0.09531
2767.74952,0.09532
2765.82077,0.09556
2763.89203,0.09593
2761.96328,0.09617
2760.03453,0.09641
2758.10579,0.09670
2756.17704,0.09691
2754.24830,0.09696
2752.31955,0.09696
2750.39081,0.09709
2748.46206,0.09730
2746.53332,0.09736
2744.60457,0.09746
2742.67583,0.09771
2740.74708,0.09793
2738.81834,0.09804
2736.88959,0.09805
2734.96085,0.09797
2733.03210,0.09804
2731.10336,0.09841
2729.17461,0.09878
2727.24586,0.09904
2725.31712,0.09936
2723.38837,0.09965
2721.45963,0.09971
2719.53088,0.09981
2717.60214,0.10028
2715.67339,0.10085
2713.74465,0.10123
2711.81590,0.10154
2709.88716,0.10198
2707.95841,0.10250
2706.02967,0.10295
2704.10092,0.10345
2702.17218,0.10393
2700.24343,0.10415
2698.31468,0.10424
2696.38594,0.10451
2694.45719,0.10499
2692.52845,0.10551
2690.59970,0.10597
2688.67096,0.10637
2686.74221,0.10672
2684.81347,0.10707
2682.88472,0.10739
2680.95598,0.10777
2679.02723,0.10828
2677.09849,0.10875
2675.16974,0.10905
2673.24100,0.10921
2671.31225,0.10935
2669.38351,0.10964
2667.45476,0.11006
2665.52601,0.11042
2663.59727,0.11072
2661.66852,0.11106
2659.73978,0.11134
2657.81103,0.11141
2655.88229,0.11145
2653.95354,0.11180
2652.02480,0.11234
2650.09605,0.11268
2648.16731,0.11284
2646.23856,0.11300
2644.30982,0.11321
2642.38107,0.11356
2640.45233,0.11404
2638.52358,0.11448
2636.59484,0.11488
2634.66609,0.11538
2632.73734,0.11595
2630.80860,0.11641
2628.87985,0.11666
2626.95111,0.11687
2625.02236,0.11720
2623.09362,0.11763
2621.16487,0.11807
2619.23613,0.11851
2617.30738,0.11895
2615.37864,0.11928
2613.44989,0.11948
2611.52115,0.11976
2609.59240,0.12019
2607.66366,0.12055
2605.73491,0.12075
2603.80616,0.12087
2601.87742,0.12096
2599.94867,0.12110
2598.01993,0.12140
2596.09118,0.12187
2594.16244,0.12244
2592.23369,0.12307
2590.30495,0.12366
2588.37620,0.12406
2586.44746,0.12419
2584.51871,0.12409
2582.58997,0.12419
2580.66122,0.12466
2578.73248,0.12509
2576.80373,0.12531
2574.87499,0.12555
2572.94624,0.12584
2571.01749,0.12608
2569.08875,0.12622
2567.16000,0.12628
2565.23126,0.12641
2563.30251,0.12652
2561.37377,0.12649
2559.44502,0.12644
2557.51628,0.12657
2555.58753,0.12693
2553.65879,0.12733
2551.73004,0.12752
2549.80130,0.12754
2547.87255,0.12762
2545.94381,0.12787
2544.01506,0.12806
2542.08631,0.12808
2540.15757,0.12831
2538.22882,0.12883
2536.30008,0.12925
2534.37133,0.12945
2532.44259,0.12958
2530.51384,0.12963
2528.58510,0.12979
2526.65635,0.13022
2524.72761,0.13069
2522.79886,0.13098
2520.87012,0.13118
2518.94137,0.13138
2517.01263,0.13150
2515.08388,0.13148
2513.15514,0.13142
2511.22639,0.13159
2509.29764,0.13209
2507.36890,0.13271
2505.44015,0.13321
2503.51141,0.13360
2501.58266,0.13407
2499.65392,0.13462
2497.72517,0.13502
2495.79643,0.13527
2493.86768,0.13558
2491.93894,0.13593
2490.01019,0.13632
2488.08145,0.13678
2486.15270,0.13731
2484.22396,0.13791
2482.29521,0.13857
2480.36647,0.13919
2478.43772,0.13958
2476.50897,0.13980
2474.58023,0.14010
2472.65148,0.14047
2470.72274,0.14086
2468.79399,0.14127
2466.86525,0.14170
2464.93650,0.14198
2463.00776,0.14202
2461.07901,0.14212
2459.15027,0.14245
2457.22152,0.14291
2455.29278,0.14345
2453.36403,0.14404
2451.43529,0.14459
2449.50654,0.14517
2447.57779,0.14579
2445.64905,0.14637
2443.72030,0.14689
2441.79156,0.14757
2439.86281,0.14839
2437.93407,0.14898
2436.00532,0.14938
2434.07658,0.14993
2432.14783,0.15046
2430.21909,0.15091
2428.29034,0.15152
2426.36160,0.15226
2424.43285,0.15295
2422.50411,0.15359
2420.57536,0.15424
2418.64662,0.15489
2416.71787,0.15558
2414.78912,0.15640
2412.86038,0.15725
2410.93163,0.15795
2409.00289,0.15859
2407.07414,0.15944
2405.14540,0.16043
2403.21665,0.16123
2401.28791,0.16188
2399.35916,0.16254
2397.43042,0.16322
2395.50167,0.16378
2393.57293,0.16426
2391.64418,0.16473
2389.71544,0.16528
2387.78669,0.16596
2385.85795,0.16663
2383.92920,0.16719
2382.00045,0.16775
2380.07171,0.16821
2378.14296,0.16850
2376.21422,0.16885
2374.28547,0.16935
2372.35673,0.16983
2370.42798,0.17018
2368.49924,0.17042
2366.57049,0.17070
2364.64175,0.17110
2362.71300,0.17165
2360.78426,0.17229
2358.85551,0.17286
2356.92677,0.17336
2354.99802,0.17393
2353.06927,0.17443
2351.14053,0.17469
2349.21178,0.17486
2347.28304,0.17521
2345.35429,0.17569
2343.42555,0.17617
2341.49680,0.17664
2339.56806,0.17712
2337.63931,0.17751
2335.71057,0.17768
2333.78182,0.17777
2331.85308,0.17802
2329.92433,0.17830
2327.99559,0.17843
2326.06684,0.17856
2324.13810,0.17886
2322.20935,0.17918
2320.28060,0.17938
2318.35186,0.17947
2316.42311,0.17950
2314.49437,0.17946
2312.56562,0.17938
2310.63688,0.17932
2308.70813,0.17938
2306.77939,0.17941
2304.85064,0.17922
2302.92190,0.17899
2300.99315,0.17883
2299.06441,0.17868
2297.13566,0.17861
2295.20692,0.17866
2293.27817,0.17874
2291.34943,0.17874
2289.42068,0.17872
2287.49193,0.17878
2285.56319,0.17882
2283.63444,0.17866
2281.70570,0.17840
2279.77695,0.17823
2277.84821,0.17799
2275.91946,0.17768
2273.99072,0.17761
2272.06197,0.17756
2270.13323,0.17719
2268.20448,0.17665
2266.27574,0.17620
2264.34699,0.17597
2262.41825,0.17582
2260.48950,0.17560
2258.56075,0.17530
2256.63201,0.17487
2254.70326,0.17425
2252.77452,0.17353
2250.84577,0.17289
2248.91703,0.17246
2246.98828,0.17217
2245.05954,0.17195
2243.13079,0.17181
2241.20205,0.17169
2239.27330,0.17152
2237.34456,0.17140
2235.41581,0.17141
2233.48707,0.17156
2231.55832,0.17175
2229.62958,0.17189
2227.70083,0.17203
2225.77208,0.17217
2223.84334,0.17220
2221.91459,0.17210
2219.98585,0.17198
2218.05710,0.17190
2216.12836,0.17186
2214.19961,0.17187
2212.27087,0.17185
2210.34212,0.17161
2208.41338,0.17118
2206.48463,0.17063
2204.55589,0.17004
2202.62714,0.16958
2200.69840,0.16926
2198.76965,0.16886
2196.84090,0.16824
2194.91216,0.16742
2192.98341,0.16657
2191.05467,0.16582
2189.12592,0.16511
2187.19718,0.16432
2185.26843,0.16338
2183.33969,0.16229
2181.41094,0.16115
2179.48220,0.16017
2177.55345,0.15937
2175.62471,0.15854
2173.69596,0.15759
2171.76722,0.15673
2169.83847,0.15591
2167.90973,0.15493
2165.98098,0.15397
2164.05223,0.15330
2162.12349,0.15288
2160.19474,0.15245
2158.26600,0.15196
2156.33725,0.15146
2154.40851,0.15089
2152.47976,0.15031
2150.55102,0.15000
2148.62227,0.14992
2146.69353,0.14975
2144.76478,0.14932
2142.83604,0.14884
2140.90729,0.14857
2138.97855,0.14848
2137.04980,0.14840
2135.12106,0.14838
2133.19231,0.14835
2131.26356,0.14814
2129.33482,0.14797
2127.40607,0.14803
2125.47733,0.14813
2123.54858,0.14829
2121.61984,0.14851
2119.69109,0.14867
2117.76235,0.14865
2115.83360,0.14863
2113.90486,0.14888
2111.97611,0.14930
2110.04737,0.14967
2108.11862,0.15001
2106.18988,0.15040
2104.26113,0.15076
2102.33238,0.15095
2100.40364,0.15105
2098.47489,0.15135
2096.54615,0.15192
2094.61740,0.15253
2092.68866,0.15297
2090.75991,0.15308
2088.83117,0.15306
2086.90242,0.15322
2084.97368,0.15354
2083.04493,0.15381
2081.11619,0.15388
2079.18744,0.15381
2077.25870,0.15373
2075.32995,0.15372
2073.40121,0.15374
2071.47246,0.15364
2069.54371,0.15349
2067.61497,0.15346
2065.68622,0.15350
2063.75748,0.15361
2061.82873,0.15377
2059.89999,0.15382
2057.97124,0.15375
2056.04250,0.15374
2054.11375,0.15386
2052.18501,0.15405
2050.25626,0.15436
2048.32752,0.15480
2046.39877,0.15510
2044.47003,0.15523
2042.54128,0.15537
2040.61254,0.15557
2038.68379,0.15578
2036.75504,0.15609
2034.82630,0.15654
2032.89755,0.15704
2030.96881,0.15754
2029.04006,0.15810
2027.11132,0.15871
2025.18257,0.15936
2023.25383,0.16006
2021.32508,0.16081
2019.39634,0.16167
2017.46759,0.16254
2015.53885,0.16335
2013.61010,0.16426
2011.68136,0.16518
2009.75261,0.16590
2007.82386,0.16657
2005.89512,0.16726
2003.96637,0.16790
2002.03763,0.16850
2000.10888,0.16903
1998.18014,0.16940
1996.25139,0.16971
1994.32265,0.17008
1992.39390,0.17054
1990.46516,0.17094
1988.53641,0.17121
1986.60767,0.17143
1984.67892,0.17161
1982.75018,0.17169
1980.82143,0.17178
1978.89269,0.17198
1976.96394,0.17215
1975.03519,0.17215
1973.10645,0.17195
1971.17770,0.17166
1969.24896,0.17149
1967.32021,0.17137
1965.39147,0.17113
1963.46272,0.17082
1961.53398,0.17056
1959.60523,0.17031
1957.67649,0.17006
1955.74774,0.16989
1953.81900,0.16992
1951.89025,0.17017
1949.96151,0.17052
1948.03276,0.17093
1946.10402,0.17137
1944.17527,0.17187
1942.24652,0.17248
1940.31778,0.17309
1938.38903,0.17365
1936.46029,0.17429
1934.53154,0.17496
1932.60280,0.17554
1930.67405,0.17606
1928.74531,0.17656
1926.81656,0.17707
1924.88782,0.17757
1922.95907,0.17791
1921.03033,0.17818
1919.10158,0.17859
1917.17284,0.17897
1915.24409,0.17909
1913.31534,0.17909
1911.38660,0.17922
1909.45785,0.17931
1907.52911,0.17918
1905.60036,0.17905
1903.67162,0.17907
1901.74287,0.17910
1899.81413,0.17904
1897.88538,0.17902
1895.95664,0.17911
1894.02789,0.17917
1892.09915,0.17919
1890.17040,0.17920
1888.24166,0.17913
1886.31291,0.17913
1884.38417,0.17930
1882.45542,0.17951
1880.52667,0.17949
1878.59793,0.17931
1876.66918,0.17917
1874.74044,0.17895
1872.81169,0.17864
1870.88295,0.17832
1868.95420,0.17787
1867.02546,0.17724
1865.09671,0.17654
1863.16797,0.17590
1861.23922,0.17546
1859.31048,0.17506
1857.38173,0.17446
1855.45299,0.17381
1853.52424,0.17323
1851.59549,0.17237
1849.66675,0.17108
1847.73800,0.16991
1845.80926,0.16909
1843.88051,0.16827
1841.95177,0.16737
1840.02302,0.16656
1838.09428,0.16573
1836.16553,0.16478
1834.23679,0.16366
1832.30804,0.16233
1830.37930,0.16075
1828.45055,0.15908
1826.52181,0.15748
1824.59306,0.15585
1822.66432,0.15422
1820.73557,0.15266
1818.80682,0.15096
1816.87808,0.14897
1814.94933,0.14669
1813.02059,0.14431
1811.09184,0.14192
1809.16310,0.13953
1807.23435,0.13702
1805.30561,0.13428
1803.37686,0.13141
1801.44812,0.12840
1799.51937,0.12528
1797.59063,0.12225
1795.66188,0.11932
1793.73314,0.11627
1791.80439,0.11295
1789.87565,0.10959
1787.94690,0.10643
1786.01815,0.10339
1784.08941,0.10041
1782.16066,0.09743
1780.23192,0.09419
1778.30317,0.09066
1776.37443,0.08710
1774.44568,0.08352
1772.51694,0.07957
1770.58819,0.07531
1768.65945,0.07120
1766.73070,0.06740
1764.80196,0.06402
1762.87321,0.06093
1760.94447,0.05805
1759.01572,0.05571
1757.08697,0.05376
1755.15823,0.05206
1753.22948,0.05061
1751.30074,0.04928
1749.37199,0.04805
1747.44325,0.04710
1745.51450,0.04653
1743.58576,0.04627
1741.65701,0.04607
1739.72827,0.04589
1737.79952,0.04601
1735.87078,0.04649
1733.94203,0.04710
1732.01329,0.04766
1730.08454,0.04819
1728.15580,0.04879
1726.22705,0.04946
1724.29830,0.05016
1722.36956,0.05091
1720.44081,0.05170
1718.51207,0.05254
1716.58332,0.05330
1714.65458,0.05399
1712.72583,0.05480
1710.79709,0.05568
1708.86834,0.05648
1706.93960,0.05717
1705.01085,0.05778
1703.08211,0.05843
1701.15336,0.05918
1699.22462,0.05983
1697.29587,0.06025
1695.36713,0.06037
1693.43838,0.06026
1691.50963,0.06029
1689.58089,0.06047
1687.65214,0.06053
1685.72340,0.06042
1683.79465,0.06016
1681.86591,0.05987
1679.93716,0.05970
1678.00842,0.05961
1676.07967,0.05946
1674.15093,0.05916
1672.22218,0.05883
1670.29344,0.05848
1668.36469,0.05809
1666.43595,0.05778
1664.50720,0.05760
1662.57845,0.05744
1660.64971,0.05719
1658.72096,0.05695
1656.79222,0.05687
1654.86347,0.05692
1652.93473,0.05681
1651.00598,0.05646
1649.07724,0.05623
1647.14849,0.05611
1645.21975,0.05592
1643.29100,0.05560
1641.36226,0.05514
1639.43351,0.05470
1637.50477,0.05442
1635.57602,0.05421
1633.64728,0.05406
1631.71853,0.05405
1629.78978,0.05402
1627.86104,0.05401
1625.93229,0.05407
1624.00355,0.05396
1622.07480,0.05369
1620.14606,0.05358
1618.21731,0.05345
1616.28857,0.05298
1614.35982,0.05231
1612.43108,0.05167
1610.50233,0.05109
1608.57359,0.05064
1606.64484,0.05033
1604.71610,0.05018
1602.78735,0.05019
1600.85861,0.05021
1598.92986,0.05021
1597.00111,0.05027
1595.07237,0.05052
1593.14362,0.05103
1591.21488,0.05172
1589.28613,0.05257
1587.35739,0.05377
1585.42864,0.05530
1583.49990,0.05685
1581.57115,0.05844
1579.64241,0.06026
1577.71366,0.06227
1575.78492,0.06416
1573.85617,0.06567
1571.92743,0.06699
1569.99868,0.06826
1568.06993,0.06929
1566.14119,0.07008
1564.21244,0.07077
1562.28370,0.07147
1560.35495,0.07211
1558.42621,0.07237
1556.49746,0.07242
1554.56872,0.07252
1552.63997,0.07269
1550.71123,0.07292
1548.78248,0.07306
1546.85374,0.07306
1544.92499,0.07294
1542.99625,0.07266
1541.06750,0.07214
1539.13876,0.07120
1537.21001,0.07016
1535.28126,0.06926
1533.35252,0.06819
1531.42377,0.06680
1529.49503,0.06528
1527.56628,0.06363
1525.63754,0.06155
1523.70879,0.05898
1521.78005,0.05580
1519.85130,0.05252
1517.92256,0.05030
1515.99381,0.04923
1514.06507,0.04886
1512.13632,0.04881
1510.20758,0.04888
1508.27883,0.04898
1506.35008,0.04905
1504.42134,0.04927
1502.49259,0.04986
1500.56385,0.05077
1498.63510,0.05169
1496.70636,0.05249
1494.77761,0.05329
1492.84887,0.05406
1490.92012,0.05476
1488.99138,0.05524
1487.06263,0.05522
1485.13389,0.05467
1483.20514,0.05371
1481.27640,0.05246
1479.34765,0.05101
1477.41891,0.04946
1475.49016,0.04780
1473.56141,0.04596
1471.63267,0.04422
1469.70392,0.04298
1467.77518,0.04220
1465.84643,0.04175
1463.91769,0.04165
1461.98894,0.04187
1460.06020,0.04223
1458.13145,0.04254
1456.20271,0.04278
1454.27396,0.04298
1452.34522,0.04313
1450.41647,0.04328
1448.48773,0.04343
1446.55898,0.04349
1444.63024,0.04353
1442.70149,0.04360
1440.77274,0.04355
1438.84400,0.04331
1436.91525,0.04286
1434.98651,0.04236
1433.05776,0.04201
1431.12902,0.04188
1429.20027,0.04199
1427.27153,0.04225
1425.34278,0.04251
1423.41404,0.04268
1421.48529,0.04287
1419.55655,0.04331
1417.62780,0.04397
1415.69906,0.04443
1413.77031,0.04460
1411.84156,0.04464
1409.91282,0.04472
1407.98407,0.04480
1406.05533,0.04478
1404.12658,0.04467
1402.19784,0.04452
1400.26909,0.04421
1398.34035,0.04374
1396.41160,0.04326
1394.48286,0.04269
1392.55411,0.04205
1390.62537,0.04150
1388.69662,0.04095
1386.76788,0.04039
1384.83913,0.04000
1382.91039,0.03984
1380.98164,0.03977
1379.05289,0.03975
1377.12415,0.03977
1375.19540,0.03981
1373.26666,0.04002
1371.33791,0.04052
1369.40917,0.04121
1367.48042,0.04198
1365.55168,0.04253
1363.62293,0.04266
1361.69419,0.04266
1359.76544,0.04280
1357.83670,0.04300
1355.90795,0.04314
1353.97921,0.04322
1352.05046,0.04318
1350.12172,0.04296
1348.19297,0.04270
1346.26422,0.04243
1344.33548,0.04206
1342.40673,0.04156
1340.47799,0.04106
1338.54924,0.04076
1336.62050,0.04072
1334.69175,0.04086
1332.76301,0.04107
1330.83426,0.04125
1328.90552,0.04139
1326.97677,0.04156
1325.04803,0.04177
1323.11928,0.04195
1321.19054,0.04205
1319.26179,0.04204
1317.33304,0.04201
1315.40430,0.04218
1313.47555,0.04267
1311.54681,0.04324
1309.61806,0.04360
1307.68932,0.04372
1305.76057,0.04380
1303.83183,0.04394
1301.90308,0.04406
1299.97434,0.04409
1298.04559,0.04397
1296.11685,0.04366
1294.18810,0.04322
1292.25936,0.04269
1290.33061,0.04208
1288.40187,0.04146
1286.47312,0.04086
1284.54437,0.04033
1282.61563,0.03999
1280.68688,0.03973
1278.75814,0.03941
1276.82939,0.03901
1274.90065,0.03858
1272.97190,0.03825
1271.04316,0.03803
1269.11441,0.03786
1267.18567,0.03771
1265.25692,0.03754
1263.32818,0.03737
1261.39943,0.03725
1259.47069,0.03713
1257.54194,0.03708
1255.61320,0.03713
1253.68445,0.03729
1251.75570,0.03744
1249.82696,0.03755
1247.89821,0.03778
1245.96947,0.03815
1244.04072,0.03849
1242.11198,0.03876
1240.18323,0.03905
1238.25449,0.03954
1236.32574,0.04017
1234.39700,0.04069
1232.46825,0.04103
1230.53951,0.04144
1228.61076,0.04190
1226.68202,0.04211
1224.75327,0.04204
1222.82452,0.04203
1220.89578,0.04227
1218.96703,0.04271
1217.03829,0.04303
1215.10954,0.04303
1213.18080,0.04282
1211.25205,0.04258
1209.32331,0.04234
1207.39456,0.04210
1205.46582,0.04199
1203.53707,0.04200
1201.60833,0.04191
1199.67958,0.04160
1197.75084,0.04132
1195.82209,0.04120
1193.89335,0.04091
1191.96460,0.04017
1190.03585,0.03926
1188.10711,0.03853
1186.17836,0.03779
1184.24962,0.03670
1182.32087,0.03547
1180.39213,0.03449
1178.46338,0.03388
1176.53464,0.03348
1174.60589,0.03329
1172.67715,0.03351
1170.74840,0.03430
1168.81966,0.03551
1166.89091,0.03681
1164.96217,0.03798
1163.03342,0.03889
1161.10467,0.03957
1159.17593,0.04025
1157.24718,0.04079
1155.31844,0.04088
1153.38969,0.04056
1151.46095,0.04018
1149.53220,0.03992
1147.60346,0.03947
1145.67471,0.03856
1143.74597,0.03737
1141.81722,0.03637
1139.88848,0.03566
1137.95973,0.03496
1136.03099,0.03421
1134.10224,0.03368
1132.17350,0.03338
1130.24475,0.03328
1128.31600,0.03364
1126.38726,0.03443
1124.45851,0.03544
1122.52977,0.03650
1120.60102,0.03731
1118.67228,0.03789
1116.74353,0.03852
1114.81479,0.03936
1112.88604,0.04011
1110.95730,0.04038
1109.02855,0.04066
1107.09981,0.04147
1105.17106,0.04231
1103.24232,0.04261
1101.31357,0.04244
1099.38483,0.04215
1097.45608,0.04189
1095.52733,0.04158
1093.59859,0.04122
1091.66984,0.04083
1089.74110,0.04040
1087.81235,0.04009
1085.88361,0.04020
1083.95486,0.04088
1082.02612,0.04202
1080.09737,0.04322
1078.16863,0.04417
1076.23988,0.04498
1074.31114,0.04603
1072.38239,0.04744
1070.45365,0.04889
1068.52490,0.05025
1066.59615,0.05188
1064.66741,0.05408
1062.73866,0.05655
1060.80992,0.05879
1058.88117,0.06072
1056.95243,0.06247
1055.02368,0.06392
1053.09494,0.06476
1051.16619,0.06496
1049.23745,0.06497
1047.30870,0.06513
1045.37996,0.06536
1043.45121,0.06573
1041.52247,0.06657
1039.59372,0.06797
1037.66498,0.06954
1035.73623,0.07086
1033.80748,0.07184
1031.87874,0.07240
1029.94999,0.07238
1028.02125,0.07197
1026.09250,0.07156
1024.16376,0.07137
1022.23501,0.07133
1020.30627,0.07120
1018.37752,0.07082
1016.44878,0.07040
1014.52003,0.07015
1012.59129,0.06987
1010.66254,0.06958
1008.73380,0.06960
1006.80505,0.06984
1004.87631,0.06996
1002.94756,0.06997
1001.01881,0.07005
999.09007,0.07032
997.16132,0.07070
995.23258,0.07086
993.30383,0.07090
991.37509,0.07124
989.44634,0.07197
987.51760,0.07304
985.58885,0.07416
983.66011,0.07483
981.73136,0.07527
979.80262,0.07598
977.87387,0.07682
975.94513,0.07745
974.01638,0.07789
972.08763,0.07836
970.15889,0.07903
968.23014,0.07980
966.30140,0.08053
964.37265,0.08135
962.44391,0.08248
960.51516,0.08385
958.58642,0.08518
956.65767,0.08629
954.72893,0.08725
952.80018,0.08824
950.87144,0.08915
948.94269,0.08979
947.01395,0.09019
945.08520,0.09050
943.15646,0.09069
941.22771,0.09062
939.29896,0.09027
937.37022,0.08971
935.44147,0.08902
933.51273,0.08836
931.58398,0.08791
929.65524,0.08769
927.72649,0.08741
925.79775,0.08704
923.86900,0.08688
921.94026,0.08691
920.01151,0.08683
918.08277,0.08648
916.15402,0.08580
914.22528,0.08498
912.29653,0.08429
910.36779,0.08348
908.43904,0.08236
906.51029,0.08111
904.58155,0.07992
902.65280,0.07906
900.72406,0.07850
898.79531,0.07822
896.86657,0.07864
894.93782,0.07989
893.00908,0.08144
891.08033,0.08278
889.15159,0.08395
887.22284,0.08518
885.29410,0.08625
883.36535,0.08682
881.43661,0.08695
879.50786,0.08689
877.57911,0.08662
875.65037,0.08625
873.72162,0.08610
871.79288,0.08594
869.86413,0.08563
867.93539,0.08561
866.00664,0.08575
864.07790,0.08583
862.14915,0.08602
860.22041,0.08619
858.29166,0.08605
856.36292,0.08556
854.43417,0.08502
852.50543,0.08471
850.57668,0.08449
848.64794,0.08397
846.71919,0.08313
844.79044,0.08227
842.86170,0.08150
840.93295,0.08075
839.00421,0.08013
837.07546,0.07990
835.14672,0.08018
833.21797,0.08070
831.28923,0.08109
829.36048,0.08136
827.43174,0.08185
825.50299,0.08247
823.57425,0.08301
821.64550,0.08358
819.71676,0.08387
817.78801,0.08373
815.85926,0.08372
813.93052,0.08398
812.00177,0.08425
810.07303,0.08440
808.14428,0.08437
806.21554,0.08436
804.28679,0.08445
802.35805,0.08431
800.42930,0.08391
798.50056,0.08349
796.57181,0.08319
794.64307,0.08313
792.71432,0.08320
790.78558,0.08315
788.85683,0.08300
786.92809,0.08277
784.99934,0.08218
783.07059,0.08134
781.14185,0.08084
779.21310,0.08062
777.28436,0.08018
775.35561,0.07952
773.42687,0.07883
771.49812,0.07813
769.56938,0.07751
767.64063,0.07697
765.71189,0.07639
763.78314,0.07584
761.85440,0.07542
759.92565,0.07498
757.99691,0.07437
756.06816,0.07357
754.13942,0.07281
752.21067,0.07222
750.28192,0.07168
748.35318,0.07126
746.42443,0.07097
744.49569,0.07056
742.56694,0.06996
740.63820,0.06939
738.70945,0.06902
736.78071,0.06855
734.85196,0.06762
732.92322,0.06678
730.99447,0.06663
729.06573,0.06666
727.13698,0.06632
725.20824,0.06586
723.27949,0.06568
721.35074,0.06575
719.42200,0.06549
717.49325,0.06471
715.56451,0.06407
713.63576,0.06403
711.70702,0.06441
709.77827,0.06484
707.84953,0.06510
705.92078,0.06501
703.99204,0.06472
702.06329,0.06462
700.13455,0.06450
698.20580,0.06391
696.27706,0.06336
694.34831,0.06340
692.41957,0.06348
690.49082,0.06305
688.56207,0.06207
686.63333,0.06085
684.70458,0.05996
682.77584,0.05948
680.84709,0.05893
678.91835,0.05837
676.98960,0.05803
675.06086,0.05797
673.13211,0.05826
671.20337,0.05874
669.27462,0.05915
667.34588,0.05950
665.41713,0.05983
663.48839,0.06017
661.55964,0.06057
659.63090,0.06084
657.70215,0.06068
655.77340,0.06039
653.84466,0.06036
651.91591,0.06004
649.98717,0.05917
648.05842,0.05861
646.12968,0.05873
644.20093,0.05896
642.27219,0.05904
640.34344,0.05893
638.41470,0.05866
636.48595,0.05852
634.55721,0.05855
632.62846,0.05852
630.69972,0.05838
628.77097,0.05836
626.84222,0.05830
624.91348,0.05780
622.98473,0.05734
621.05599,0.05741
619.12724,0.05782
617.19850,0.05832
615.26975,0.05828
613.34101,0.05781
611.41226,0.05852
609.48352,0.06059
607.55477,0.06207
605.62603,0.06254
603.69728,0.06305
601.76854,0.06337
599.83979,0.06318
