7497.03301,0.76914
7495.10426,0.76771
7493.17552,0.76678
7491.24677,0.76600
7489.31803,0.76691
7487.38928,0.76637
7485.46054,0.76270
7483.53179,0.75951
7481.60305,0.75806
7479.67430,0.75818
7477.74556,0.75829
7475.81681,0.75709
7473.88807,0.75691
7471.95932,0.75736
7470.03057,0.75526
7468.10183,0.75218
7466.17308,0.75231
7464.24434,0.75458
7462.31559,0.75473
7460.38685,0.75193
7458.45810,0.74718
7456.52936,0.74251
7454.60061,0.74068
7452.67187,0.74040
7450.74312,0.73770
7448.81438,0.73232
7446.88563,0.73089
7444.95689,0.73880
7443.02814,0.75027
7441.09940,0.75523
7439.17065,0.74994
7437.24190,0.73758
7435.31316,0.72710
7433.38441,0.72624
7431.45567,0.73255
7429.52692,0.73849
7427.59818,0.73977
7425.66943,0.73769
7423.74069,0.73787
7421.81194,0.73938
7419.88320,0.73567
7417.95445,0.72956
7416.02571,0.72801
7414.09696,0.72817
7412.16822,0.72351
7410.23947,0.71682
7408.31073,0.71540
7406.38198,0.71882
7404.45323,0.72147
7402.52449,0.72172
7400.59574,0.72198
7398.66700,0.72320
7396.73825,0.72540
7394.80951,0.72798
7392.88076,0.72768
7390.95202,0.72442
7389.02327,0.71888
7387.09453,0.71008
7385.16578,0.70431
7383.23704,0.70631
7381.30829,0.71030
7379.37955,0.71197
7377.45080,0.71253
7375.52205,0.71218
7373.59331,0.70963
7371.66456,0.70586
7369.73582,0.70370
7367.80707,0.70235
7365.87833,0.69930
7363.94958,0.69740
7362.02084,0.70080
7360.09209,0.70655
7358.16335,0.70893
7356.23460,0.70876
7354.30586,0.70977
7352.37711,0.71033
7350.44837,0.70712
7348.51962,0.70126
7346.59088,0.69593
7344.66213,0.69527
7342.73338,0.69941
7340.80464,0.69947
7338.87589,0.69281
7336.94715,0.68796
7335.01840,0.68792
7333.08966,0.68974
7331.16091,0.69063
7329.23217,0.68974
7327.30342,0.68898
7325.37468,0.68880
7323.44593,0.68794
7321.51719,0.68701
7319.58844,0.68807
7317.65970,0.69116
7315.73095,0.69279
7313.80221,0.69014
7311.87346,0.68636
7309.94471,0.68541
7308.01597,0.68436
7306.08722,0.68149
7304.15848,0.68179
7302.22973,0.68664
7300.30099,0.68980
7298.37224,0.68846
7296.44350,0.68750
7294.51475,0.68732
7292.58601,0.68480
7290.65726,0.68249
7288.72852,0.68226
7286.79977,0.68240
7284.87103,0.68196
7282.94228,0.68276
7281.01353,0.68533
7279.08479,0.68625
7277.15604,0.68510
7275.22730,0.68353
7273.29855,0.68118
7271.36981,0.67984
7269.44106,0.67986
7267.51232,0.67898
7265.58357,0.67943
7263.65483,0.68358
7261.72608,0.68698
7259.79734,0.68409
7257.86859,0.67789
7255.93985,0.67668
7254.01110,0.68039
7252.08236,0.68141
7250.15361,0.67741
7248.22486,0.67498
7246.29612,0.67769
7244.36737,0.67925
7242.43863,0.67717
7240.50988,0.67634
7238.58114,0.67702
7236.65239,0.67677
7234.72365,0.67476
7232.79490,0.67185
7230.86616,0.66992
7228.93741,0.66905
7227.00867,0.66874
7225.07992,0.67011
7223.15118,0.67399
7221.22243,0.67664
7219.29369,0.67475
7217.36494,0.67257
7215.43619,0.67187
7213.50745,0.66885
7211.57870,0.66534
7209.64996,0.66537
7207.72121,0.66789
7205.79247,0.66863
7203.86372,0.66512
7201.93498,0.66056
7200.00623,0.65895
7198.07749,0.66053
7196.14874,0.66227
7194.22000,0.66162
7192.29125,0.66052
7190.36251,0.66061
7188.43376,0.66107
7186.50501,0.66094
7184.57627,0.65977
7182.64752,0.65823
7180.71878,0.65620
7178.79003,0.65398
7176.86129,0.65345
7174.93254,0.65412
7173.00380,0.65308
7171.07505,0.65025
7169.14631,0.64823
7167.21756,0.64700
7165.28882,0.64589
7163.36007,0.64623
7161.43133,0.64714
7159.50258,0.64564
7157.57384,0.64149
7155.64509,0.63683
7153.71634,0.63375
7151.78760,0.63231
7149.85885,0.63058
7147.93011,0.62911
7146.00136,0.62979
7144.07262,0.63006
7142.14387,0.62717
7140.21513,0.62475
7138.28638,0.62639
7136.35764,0.62856
7134.42889,0.62797
7132.50015,0.62533
7130.57140,0.62100
7128.64266,0.61628
7126.71391,0.61400
7124.78516,0.61509
7122.85642,0.61640
7120.92767,0.61457
7118.99893,0.61054
7117.07018,0.60664
7115.14144,0.60377
7113.21269,0.60158
7111.28395,0.59962
7109.35520,0.59798
7107.42646,0.59511
7105.49771,0.59136
7103.56897,0.59017
7101.64022,0.59001
7099.71148,0.58857
7097.78273,0.58840
7095.85399,0.58864
7093.92524,0.58607
7091.99649,0.58243
7090.06775,0.58022
7088.13900,0.57827
7086.21026,0.57523
7084.28151,0.57120
7082.35277,0.56720
7080.42402,0.56663
7078.49528,0.56895
7076.56653,0.56863
7074.63779,0.56557
7072.70904,0.56289
7070.78030,0.56099
7068.85155,0.56051
7066.92281,0.56080
7064.99406,0.56003
7063.06532,0.55928
7061.13657,0.55897
7059.20782,0.55633
7057.27908,0.55180
7055.35033,0.54929
7053.42159,0.54761
7051.49284,0.54343
7049.56410,0.53959
7047.63535,0.53815
7045.70661,0.53775
7043.77786,0.53860
7041.84912,0.53892
7039.92037,0.53725
7037.99163,0.53482
7036.06288,0.53191
7034.13414,0.52993
7032.20539,0.53028
7030.27664,0.53090
7028.34790,0.52950
7026.41915,0.52552
7024.49041,0.52004
7022.56166,0.51693
7020.63292,0.51650
7018.70417,0.51334
7016.77543,0.50863
7014.84668,0.50849
7012.91794,0.51066
7010.98919,0.50992
7009.06045,0.50702
7007.13170,0.50550
7005.20296,0.50696
7003.27421,0.50850
7001.34547,0.50765
6999.41672,0.50574
6997.48797,0.50234
6995.55923,0.49686
6993.63048,0.49332
6991.70174,0.49500
6989.77299,0.49956
6987.84425,0.50217
6985.91550,0.50187
6983.98676,0.50131
6982.05801,0.50064
6980.12927,0.49869
6978.20052,0.49766
6976.27178,0.49814
6974.34303,0.49724
6972.41429,0.49512
6970.48554,0.49286
6968.55680,0.48992
6966.62805,0.48819
6964.69930,0.48871
6962.77056,0.48841
6960.84181,0.48565
6958.91307,0.48367
6956.98432,0.48571
6955.05558,0.48873
6953.12683,0.48906
6951.19809,0.49011
6949.26934,0.49218
6947.34060,0.48988
6945.41185,0.48567
6943.48311,0.48509
6941.55436,0.48588
6939.62562,0.48494
6937.69687,0.48335
6935.76812,0.48156
6933.83938,0.48068
6931.91063,0.48294
6929.98189,0.48496
6928.05314,0.48395
6926.12440,0.48395
6924.19565,0.48509
6922.26691,0.48436
6920.33816,0.48395
6918.40942,0.48480
6916.48067,0.48421
6914.55193,0.48204
6912.62318,0.47970
6910.69444,0.47908
6908.76569,0.48083
6906.83695,0.48207
6904.90820,0.48162
6902.97945,0.48102
6901.05071,0.48129
6899.12196,0.48224
6897.19322,0.48126
6895.26447,0.47769
6893.33573,0.47601
6891.40698,0.47763
6889.47824,0.47798
6887.54949,0.47672
6885.62075,0.47784
6883.69200,0.48000
6881.76326,0.48129
6879.83451,0.48303
6877.90577,0.48335
6875.97702,0.48073
6874.04828,0.47829
6872.11953,0.47850
6870.19078,0.48102
6868.26204,0.48398
6866.33329,0.48401
6864.40455,0.48036
6862.47580,0.47770
6860.54706,0.47808
6858.61831,0.47795
6856.68957,0.47615
6854.76082,0.47478
6852.83208,0.47556
6850.90333,0.47729
6848.97459,0.47694
6847.04584,0.47565
6845.11710,0.47590
6843.18835,0.47709
6841.25960,0.47889
6839.33086,0.47978
6837.40211,0.47715
6835.47337,0.47328
6833.54462,0.47252
6831.61588,0.47498
6829.68713,0.47823
6827.75839,0.48053
6825.82964,0.48091
6823.90090,0.47906
6821.97215,0.47625
6820.04341,0.47398
6818.11466,0.47296
6816.18592,0.47363
6814.25717,0.47501
6812.32843,0.47611
6810.39968,0.47646
6808.47093,0.47471
6806.54219,0.47181
6804.61344,0.47066
6802.68470,0.47148
6800.75595,0.47233
6798.82721,0.47314
6796.89846,0.47393
6794.96972,0.47384
6793.04097,0.47434
6791.11223,0.47641
6789.18348,0.47939
6787.25474,0.48202
6785.32599,0.48200
6783.39725,0.47975
6781.46850,0.47763
6779.53975,0.47627
6777.61101,0.47632
6775.68226,0.47723
6773.75352,0.47729
6771.82477,0.47734
6769.89603,0.47867
6767.96728,0.48036
6766.03854,0.48093
6764.10979,0.48029
6762.18105,0.47969
6760.25230,0.47918
6758.32356,0.47820
6756.39481,0.47791
6754.46607,0.47874
6752.53732,0.47902
6750.60858,0.47839
6748.67983,0.47847
6746.75108,0.47887
6744.82234,0.47845
6742.89359,0.47797
6740.96485,0.47788
6739.03610,0.47919
6737.10736,0.48223
6735.17861,0.48356
6733.24987,0.48217
6731.32112,0.48108
6729.39238,0.48083
6727.46363,0.48144
6725.53489,0.48296
6723.60614,0.48355
6721.67740,0.48371
6719.74865,0.48476
6717.81991,0.48632
6715.89116,0.48792
6713.96241,0.48870
6712.03367,0.48873
6710.10492,0.48773
6708.17618,0.48479
6706.24743,0.48236
6704.31869,0.48339
6702.38994,0.48586
6700.46120,0.48762
6698.53245,0.48966
6696.60371,0.48988
6694.67496,0.48696
6692.74622,0.48525
6690.81747,0.48536
6688.88873,0.48446
6686.95998,0.48387
6685.03123,0.48530
6683.10249,0.48726
6681.17374,0.48804
6679.24500,0.48819
6677.31625,0.48914
6675.38751,0.49080
6673.45876,0.49207
6671.53002,0.49182
6669.60127,0.49062
6667.67253,0.49116
6665.74378,0.49281
6663.81504,0.49312
6661.88629,0.49280
6659.95755,0.49271
6658.02880,0.49353
6656.10006,0.49577
6654.17131,0.49725
6652.24256,0.49580
6650.31382,0.49327
6648.38507,0.49320
6646.45633,0.49567
6644.52758,0.49822
6642.59884,0.49848
6640.67009,0.49640
6638.74135,0.49520
6636.81260,0.49539
6634.88386,0.49434
6632.95511,0.49291
6631.02637,0.49358
6629.09762,0.49540
6627.16888,0.49572
6625.24013,0.49460
6623.31139,0.49460
6621.38264,0.49584
6619.45389,0.49722
6617.52515,0.50011
6615.59640,0.50320
6613.66766,0.50431
6611.73891,0.50486
6609.81017,0.50439
6607.88142,0.50227
6605.95268,0.50132
6604.02393,0.50289
6602.09519,0.50421
6600.16644,0.50259
6598.23770,0.50099
6596.30895,0.50235
6594.38021,0.50359
6592.45146,0.50264
6590.52271,0.50205
6588.59397,0.50393
6586.66522,0.50631
6584.73648,0.50587
6582.80773,0.50420
6580.87899,0.50458
6578.95024,0.50546
6577.02150,0.50553
6575.09275,0.50616
6573.16401,0.50617
6571.23526,0.50446
6569.30652,0.50344
6567.37777,0.50466
6565.44903,0.50636
6563.52028,0.50613
6561.59154,0.50494
6559.66279,0.50562
6557.73404,0.50782
6555.80530,0.50992
6553.87655,0.51170
6551.94781,0.51315
6550.01906,0.51434
6548.09032,0.51467
6546.16157,0.51343
6544.23283,0.51153
6542.30408,0.51033
6540.37534,0.51034
6538.44659,0.51145
6536.51785,0.51299
6534.58910,0.51351
6532.66036,0.51271
6530.73161,0.51229
6528.80287,0.51290
6526.87412,0.51352
6524.94537,0.51382
6523.01663,0.51403
6521.08788,0.51410
6519.15914,0.51377
6517.23039,0.51385
6515.30165,0.51529
6513.37290,0.51673
6511.44416,0.51719
6509.51541,0.51756
6507.58667,0.51750
6505.65792,0.51606
6503.72918,0.51482
6501.80043,0.51655
6499.87169,0.51987
6497.94294,0.52064
6496.01419,0.51849
6494.08545,0.51649
6492.15670,0.51651
6490.22796,0.51784
6488.29921,0.51897
6486.37047,0.51949
6484.44172,0.51932
6482.51298,0.51816
6480.58423,0.51694
6478.65549,0.51681
6476.72674,0.51754
6474.79800,0.51855
6472.86925,0.51842
6470.94051,0.51690
6469.01176,0.51707
6467.08302,0.51892
6465.15427,0.51933
6463.22552,0.51842
6461.29678,0.51747
6459.36803,0.51692
6457.43929,0.51796
6455.51054,0.52086
6453.58180,0.52266
6451.65305,0.52109
6449.72431,0.51891
6447.79556,0.51887
6445.86682,0.51993
6443.93807,0.52178
6442.00933,0.52496
6440.08058,0.52601
6438.15184,0.52276
6436.22309,0.51990
6434.29434,0.52100
6432.36560,0.52406
6430.43685,0.52599
6428.50811,0.52583
6426.57936,0.52529
6424.65062,0.52499
6422.72187,0.52345
6420.79313,0.52149
6418.86438,0.52084
6416.93564,0.52137
6415.00689,0.52342
6413.07815,0.52650
6411.14940,0.52702
6409.22066,0.52428
6407.29191,0.52290
6405.36317,0.52457
6403.43442,0.52573
6401.50567,0.52529
6399.57693,0.52530
6397.64818,0.52538
6395.71944,0.52466
6393.79069,0.52538
6391.86195,0.52763
6389.93320,0.52763
6388.00446,0.52568
6386.07571,0.52514
6384.14697,0.52558
6382.21822,0.52630
6380.28948,0.52679
6378.36073,0.52524
6376.43199,0.52403
6374.50324,0.52531
6372.57450,0.52598
6370.64575,0.52473
6368.71700,0.52427
6366.78826,0.52543
6364.85951,0.52596
6362.93077,0.52570
6361.00202,0.52579
6359.07328,0.52549
6357.14453,0.52574
6355.21579,0.52748
6353.28704,0.52868
6351.35830,0.52823
6349.42955,0.52742
6347.50081,0.52812
6345.57206,0.52985
6343.64332,0.52943
6341.71457,0.52738
6339.78582,0.52761
6337.85708,0.52943
6335.92833,0.52940
6333.99959,0.52803
6332.07084,0.52763
6330.14210,0.52894
6328.21335,0.53102
6326.28461,0.53251
6324.35586,0.53252
6322.42712,0.53129
6320.49837,0.53062
6318.56963,0.53097
6316.64088,0.53140
6314.71214,0.53218
6312.78339,0.53359
6310.85465,0.53483
6308.92590,0.53461
6306.99715,0.53256
6305.06841,0.53080
6303.13966,0.53142
6301.21092,0.53338
6299.28217,0.53443
6297.35343,0.53431
6295.42468,0.53378
6293.49594,0.53308
6291.56719,0.53287
6289.63845,0.53346
6287.70970,0.53365
6285.78096,0.53305
6283.85221,0.53333
6281.92347,0.53476
6279.99472,0.53581
6278.06598,0.53746
6276.13723,0.54015
6274.20848,0.54050
6272.27974,0.53815
6270.35099,0.53602
6268.42225,0.53580
6266.49350,0.53844
6264.56476,0.54206
6262.63601,0.54403
6260.70727,0.54461
6258.77852,0.54470
6256.84978,0.54469
6254.92103,0.54383
6252.99229,0.54195
6251.06354,0.54112
6249.13480,0.54194
6247.20605,0.54281
6245.27730,0.54310
6243.34856,0.54373
6241.41981,0.54489
6239.49107,0.54515
6237.56232,0.54520
6235.63358,0.54761
6233.70483,0.55079
6231.77609,0.55146
6229.84734,0.55083
6227.91860,0.55127
6225.98985,0.55249
6224.06111,0.55390
6222.13236,0.55485
6220.20362,0.55418
6218.27487,0.55286
6216.34613,0.55238
6214.41738,0.55238
6212.48863,0.55356
6210.55989,0.55621
6208.63114,0.55767
6206.70240,0.55716
6204.77365,0.55660
6202.84491,0.55683
6200.91616,0.55833
6198.98742,0.55993
6197.05867,0.55959
6195.12993,0.55958
6193.20118,0.56149
6191.27244,0.56216
6189.34369,0.56108
6187.41495,0.56152
6185.48620,0.56366
6183.55746,0.56477
6181.62871,0.56483
6179.69996,0.56543
6177.77122,0.56649
6175.84247,0.56736
6173.91373,0.56743
6171.98498,0.56744
6170.05624,0.56858
6168.12749,0.57051
6166.19875,0.57262
6164.27000,0.57385
6162.34126,0.57284
6160.41251,0.57048
6158.48377,0.56922
6156.55502,0.56930
6154.62628,0.56956
6152.69753,0.57074
6150.76878,0.57335
6148.84004,0.57521
6146.91129,0.57431
6144.98255,0.57234
6143.05380,0.57213
6141.12506,0.57381
6139.19631,0.57556
6137.26757,0.57615
6135.33882,0.57630
6133.41008,0.57709
6131.48133,0.57813
6129.55259,0.57881
6127.62384,0.57884
6125.69510,0.57793
6123.76635,0.57630
6121.83761,0.57461
6119.90886,0.57380
6117.98011,0.57473
6116.05137,0.57664
6114.12262,0.57801
6112.19388,0.57916
6110.26513,0.57995
6108.33639,0.57881
6106.40764,0.57698
6104.47890,0.57712
6102.55015,0.57907
6100.62141,0.58059
6098.69266,0.57948
6096.76392,0.57675
6094.83517,0.57611
6092.90643,0.57781
6090.97768,0.57875
6089.04893,0.57818
6087.12019,0.57755
6085.19144,0.57735
6083.26270,0.57750
6081.33395,0.57811
6079.40521,0.57886
6077.47646,0.57937
6075.54772,0.57937
6073.61897,0.57837
6071.69023,0.57754
6069.76148,0.57799
6067.83274,0.57783
6065.90399,0.57665
6063.97525,0.57665
6062.04650,0.57753
6060.11776,0.57797
6058.18901,0.57781
6056.26026,0.57682
6054.33152,0.57557
6052.40277,0.57459
6050.47403,0.57321
6048.54528,0.57155
6046.61654,0.57033
6044.68779,0.56964
6042.75905,0.56923
6040.83030,0.56929
6038.90156,0.57019
6036.97281,0.57055
6035.04407,0.56924
6033.11532,0.56806
6031.18658,0.56851
6029.25783,0.56937
6027.32909,0.56894
6025.40034,0.56718
6023.47159,0.56552
6021.54285,0.56543
6019.61410,0.56633
6017.68536,0.56613
6015.75661,0.56464
6013.82787,0.56392
6011.89912,0.56420
6009.97038,0.56375
6008.04163,0.56267
6006.11289,0.56188
6004.18414,0.56062
6002.25540,0.55873
6000.32665,0.55769
5998.39791,0.55804
5996.46916,0.55884
5994.54041,0.55990
5992.61167,0.56111
5990.68292,0.56116
5988.75418,0.55975
5986.82543,0.55800
5984.89669,0.55653
5982.96794,0.55548
5981.03920,0.55488
5979.11045,0.55474
5977.18171,0.55482
5975.25296,0.55506
5973.32422,0.55546
5971.39547,0.55515
5969.46673,0.55420
5967.53798,0.55392
5965.60924,0.55386
5963.68049,0.55255
5961.75174,0.55099
5959.82300,0.55140
5957.89425,0.55304
5955.96551,0.55334
5954.03676,0.55185
5952.10802,0.55045
5950.17927,0.55043
5948.25053,0.55126
5946.32178,0.55230
5944.39304,0.55281
5942.46429,0.55188
5940.53555,0.55049
5938.60680,0.54987
5936.67806,0.54986
5934.74931,0.55086
5932.82057,0.55205
5930.89182,0.55107
5928.96307,0.54927
5927.03433,0.54974
5925.10558,0.55112
5923.17684,0.55129
5921.24809,0.55157
5919.31935,0.55250
5917.39060,0.55187
5915.46186,0.54930
5913.53311,0.54755
5911.60437,0.54788
5909.67562,0.54864
5907.74688,0.54849
5905.81813,0.54774
5903.88939,0.54678
5901.96064,0.54595
5900.03189,0.54583
5898.10315,0.54611
5896.17440,0.54607
5894.24566,0.54599
5892.31691,0.54593
5890.38817,0.54526
5888.45942,0.54443
5886.53068,0.54422
5884.60193,0.54429
5882.67319,0.54495
5880.74444,0.54637
5878.81570,0.54658
5876.88695,0.54517
5874.95821,0.54492
5873.02946,0.54613
5871.10072,0.54612
5869.17197,0.54515
5867.24322,0.54510
5865.31448,0.54560
5863.38573,0.54608
5861.45699,0.54681
5859.52824,0.54669
5857.59950,0.54531
5855.67075,0.54466
5853.74201,0.54555
5851.81326,0.54615
5849.88452,0.54523
5847.95577,0.54406
5846.02703,0.54422
5844.09828,0.54534
5842.16954,0.54595
5840.24079,0.54520
5838.31205,0.54435
5836.38330,0.54436
5834.45455,0.54389
5832.52581,0.54234
5830.59706,0.54089
5828.66832,0.54042
5826.73957,0.54028
5824.81083,0.53923
5822.88208,0.53750
5820.95334,0.53611
5819.02459,0.53587
5817.09585,0.53625
5815.16710,0.53577
5813.23836,0.53466
5811.30961,0.53392
5809.38087,0.53383
5807.45212,0.53444
5805.52337,0.53507
5803.59463,0.53497
5801.66588,0.53453
5799.73714,0.53414
5797.80839,0.53383
5795.87965,0.53392
5793.95090,0.53455
5792.02216,0.53514
5790.09341,0.53554
5788.16467,0.53665
5786.23592,0.53831
5784.30718,0.53920
5782.37843,0.53914
5780.44969,0.53886
5778.52094,0.53884
5776.59220,0.53933
5774.66345,0.54032
5772.73470,0.54123
5770.80596,0.54161
5768.87721,0.54167
5766.94847,0.54178
5765.01972,0.54232
5763.09098,0.54308
5761.16223,0.54337
5759.23349,0.54366
5757.30474,0.54417
5755.37600,0.54376
5753.44725,0.54300
5751.51851,0.54364
5749.58976,0.54461
5747.66102,0.54422
5745.73227,0.54334
5743.80352,0.54336
5741.87478,0.54465
5739.94603,0.54632
5738.01729,0.54719
5736.08854,0.54721
5734.15980,0.54709
5732.23105,0.54735
5730.30231,0.54711
5728.37356,0.54559
5726.44482,0.54429
5724.51607,0.54472
5722.58733,0.54609
5720.65858,0.54692
5718.72984,0.54700
5716.80109,0.54689
5714.87235,0.54668
5712.94360,0.54622
5711.01485,0.54611
5709.08611,0.54627
5707.15736,0.54557
5705.22862,0.54445
5703.29987,0.54422
5701.37113,0.54493
5699.44238,0.54561
5697.51364,0.54539
5695.58489,0.54441
5693.65615,0.54347
5691.72740,0.54285
5689.79866,0.54193
5687.86991,0.54087
5685.94117,0.54061
5684.01242,0.54085
5682.08368,0.54132
5680.15493,0.54219
5678.22618,0.54236
5676.29744,0.54152
5674.36869,0.54137
5672.43995,0.54227
5670.51120,0.54264
5668.58246,0.54197
5666.65371,0.54142
5664.72497,0.54152
5662.79622,0.54127
5660.86748,0.54042
5658.93873,0.53949
5657.00999,0.53884
5655.08124,0.53907
5653.15250,0.53975
5651.22375,0.53996
5649.29500,0.53985
5647.36626,0.53927
5645.43751,0.53831
5643.50877,0.53777
5641.58002,0.53760
5639.65128,0.53754
5637.72253,0.53797
5635.79379,0.53884
5633.86504,0.53947
5631.93630,0.53947
5630.00755,0.53933
5628.07881,0.53961
5626.15006,0.53950
5624.22132,0.53840
5622.29257,0.53747
5620.36383,0.53753
5618.43508,0.53783
5616.50633,0.53775
5614.57759,0.53736
5612.64884,0.53694
5610.72010,0.53676
5608.79135,0.53698
5606.86261,0.53749
5604.93386,0.53774
5603.00512,0.53738
5601.07637,0.53684
5599.14763,0.53657
5597.21888,0.53701
5595.29014,0.53801
5593.36139,0.53851
5591.43265,0.53845
5589.50390,0.53853
5587.57516,0.53865
5585.64641,0.53874
5583.71766,0.53895
5581.78892,0.53882
5579.86017,0.53856
5577.93143,0.53913
5576.00268,0.54052
5574.07394,0.54140
5572.14519,0.54074
5570.21645,0.53954
5568.28770,0.53934
5566.35896,0.54028
5564.43021,0.54145
5562.50147,0.54216
5560.57272,0.54258
5558.64398,0.54284
5556.71523,0.54273
5554.78648,0.54239
5552.85774,0.54210
5550.92899,0.54184
5549.00025,0.54176
5547.07150,0.54200
5545.14276,0.54250
5543.21401,0.54338
5541.28527,0.54467
5539.35652,0.54598
5537.42778,0.54678
5535.49903,0.54681
5533.57029,0.54638
5531.64154,0.54630
5529.71280,0.54663
5527.78405,0.54657
5525.85531,0.54616
5523.92656,0.54593
5521.99781,0.54536
5520.06907,0.54418
5518.14032,0.54368
5516.21158,0.54448
5514.28283,0.54559
5512.35409,0.54658
5510.42534,0.54730
5508.49660,0.54725
5506.56785,0.54696
5504.63911,0.54703
5502.71036,0.54705
5500.78162,0.54672
5498.85287,0.54651
5496.92413,0.54715
5494.99538,0.54853
5493.06664,0.54948
5491.13789,0.54916
5489.20914,0.54856
5487.28040,0.54862
5485.35165,0.54865
5483.42291,0.54888
5481.49416,0.54987
5479.56542,0.55045
5477.63667,0.55012
5475.70793,0.54966
5473.77918,0.54937
5471.85044,0.54948
5469.92169,0.55052
5467.99295,0.55204
5466.06420,0.55257
5464.13546,0.55189
5462.20671,0.55129
5460.27796,0.55133
5458.34922,0.55153
5456.42047,0.55166
5454.49173,0.55201
5452.56298,0.55305
5450.63424,0.55474
5448.70549,0.55579
5446.77675,0.55551
5444.84800,0.55516
5442.91926,0.55571
5440.99051,0.55676
5439.06177,0.55774
5437.13302,0.55845
5435.20428,0.55895
5433.27553,0.55927
5431.34679,0.55937
5429.41804,0.55940
5427.48929,0.55983
5425.56055,0.56044
5423.63180,0.56059
5421.70306,0.56054
5419.77431,0.56102
5417.84557,0.56182
5415.91682,0.56229
5413.98808,0.56241
5412.05933,0.56214
5410.13059,0.56172
5408.20184,0.56191
5406.27310,0.56290
5404.34435,0.56409
5402.41561,0.56440
5400.48686,0.56356
5398.55811,0.56260
5396.62937,0.56250
5394.70062,0.56340
5392.77188,0.56397
5390.84313,0.56351
5388.91439,0.56323
5386.98564,0.56350
5385.05690,0.56395
5383.12815,0.56470
5381.19941,0.56504
5379.27066,0.56426
5377.34192,0.56323
5375.41317,0.56288
5373.48443,0.56309
5371.55568,0.56341
5369.62694,0.56331
5367.69819,0.56257
5365.76944,0.56160
5363.84070,0.56072
5361.91195,0.56004
5359.98321,0.55936
5358.05446,0.55859
5356.12572,0.55822
5354.19697,0.55840
5352.26823,0.55867
5350.33948,0.55846
5348.41074,0.55687
5346.48199,0.55467
5344.55325,0.55410
5342.62450,0.55475
5340.69576,0.55446
5338.76701,0.55322
5336.83827,0.55184
5334.90952,0.55026
5332.98077,0.54894
5331.05203,0.54828
5329.12328,0.54735
5327.19454,0.54547
5325.26579,0.54311
5323.33705,0.54076
5321.40830,0.53835
5319.47956,0.53621
5317.55081,0.53477
5315.62207,0.53370
5313.69332,0.53207
5311.76458,0.52936
5309.83583,0.52635
5307.90709,0.52369
5305.97834,0.52091
5304.04959,0.51795
5302.12085,0.51514
5300.19210,0.51217
5298.26336,0.50862
5296.33461,0.50459
5294.40587,0.50046
5292.47712,0.49639
5290.54838,0.49236
5288.61963,0.48829
5286.69089,0.48404
5284.76214,0.48000
5282.83340,0.47647
5280.90465,0.47267
5278.97591,0.46832
5277.04716,0.46400
5275.11842,0.45961
5273.18967,0.45463
5271.26092,0.44918
5269.33218,0.44384
5267.40343,0.43880
5265.47469,0.43402
5263.54594,0.42943
5261.61720,0.42458
5259.68845,0.41955
5257.75971,0.41521
5255.83096,0.41193
5253.90222,0.40872
5251.97347,0.40492
5250.04473,0.40147
5248.11598,0.39877
5246.18724,0.39606
5244.25849,0.39321
5242.32975,0.39061
5240.40100,0.38814
5238.47225,0.38530
5236.54351,0.38253
5234.61476,0.38064
5232.68602,0.37890
5230.75727,0.37676
5228.82853,0.37503
5226.89978,0.37388
5224.97104,0.37274
5223.04229,0.37123
5221.11355,0.36928
5219.18480,0.36747
5217.25606,0.36678
5215.32731,0.36694
5213.39857,0.36688
5211.46982,0.36619
5209.54107,0.36493
5207.61233,0.36387
5205.68358,0.36342
5203.75484,0.36279
5201.82609,0.36223
5199.89735,0.36224
5197.96860,0.36189
5196.03986,0.36094
5194.11111,0.36047
5192.18237,0.36083
5190.25362,0.36135
5188.32488,0.36152
5186.39613,0.36151
5184.46739,0.36175
5182.53864,0.36228
5180.60990,0.36299
5178.68115,0.36382
5176.75240,0.36497
5174.82366,0.36647
5172.89491,0.36761
5170.96617,0.36813
5169.03742,0.36827
5167.10868,0.36831
5165.17993,0.36877
5163.25119,0.36964
5161.32244,0.37060
5159.39370,0.37163
5157.46495,0.37272
5155.53621,0.37374
5153.60746,0.37474
5151.67872,0.37614
5149.74997,0.37784
5147.82123,0.37925
5145.89248,0.38034
5143.96373,0.38152
5142.03499,0.38325
5140.10624,0.38535
5138.17750,0.38685
5136.24875,0.38716
5134.32001,0.38711
5132.39126,0.38782
5130.46252,0.38911
5128.53377,0.39057
5126.60503,0.39243
5124.67628,0.39399
5122.74754,0.39427
5120.81879,0.39399
5118.89005,0.39464
5116.96130,0.39618
5115.03255,0.39751
5113.10381,0.39844
5111.17506,0.39965
5109.24632,0.40133
5107.31757,0.40303
5105.38883,0.40455
5103.46008,0.40577
5101.53134,0.40663
5099.60259,0.40761
5097.67385,0.40919
5095.74510,0.41104
5093.81636,0.41219
5091.88761,0.41246
5089.95887,0.41293
5088.03012,0.41429
5086.10138,0.41612
5084.17263,0.41754
5082.24388,0.41841
5080.31514,0.41937
5078.38639,0.42042
5076.45765,0.42106
5074.52890,0.42137
5072.60016,0.42191
5070.67141,0.42327
5068.74267,0.42496
5066.81392,0.42611
5064.88518,0.42707
5062.95643,0.42845
5061.02769,0.42985
5059.09894,0.43062
5057.17020,0.43095
5055.24145,0.43144
5053.31270,0.43243
5051.38396,0.43384
5049.45521,0.43527
5047.52647,0.43636
5045.59772,0.43705
5043.66898,0.43766
5041.74023,0.43854
5039.81149,0.43948
5037.88274,0.44052
5035.95400,0.44202
5034.02525,0.44328
5032.09651,0.44378
5030.16776,0.44416
5028.23902,0.44486
5026.31027,0.44581
5024.38153,0.44681
5022.45278,0.44758
5020.52403,0.44779
5018.59529,0.44755
5016.66654,0.44741
5014.73780,0.44783
5012.80905,0.44864
5010.88031,0.44942
5008.95156,0.45029
5007.02282,0.45105
5005.09407,0.45110
5003.16533,0.45092
5001.23658,0.45136
4999.30784,0.45214
4997.37909,0.45266
4995.45035,0.45307
4993.52160,0.45361
4991.59286,0.45396
4989.66411,0.45367
4987.73536,0.45312
4985.80662,0.45302
4983.87787,0.45284
4981.94913,0.45215
4980.02038,0.45172
4978.09164,0.45183
4976.16289,0.45195
4974.23415,0.45166
4972.30540,0.45085
4970.37666,0.44971
4968.44791,0.44860
4966.51917,0.44779
4964.59042,0.44727
4962.66168,0.44687
4960.73293,0.44649
4958.80418,0.44580
4956.87544,0.44441
4954.94669,0.44256
4953.01795,0.44099
4951.08920,0.43995
4949.16046,0.43893
4947.23171,0.43751
4945.30297,0.43596
4943.37422,0.43453
4941.44548,0.43331
4939.51673,0.43213
4937.58799,0.43036
4935.65924,0.42808
4933.73050,0.42617
4931.80175,0.42495
4929.87301,0.42399
4927.94426,0.42277
4926.01551,0.42094
4924.08677,0.41877
4922.15802,0.41665
4920.22928,0.41483
4918.30053,0.41355
4916.37179,0.41235
4914.44304,0.41073
4912.51430,0.40893
4910.58555,0.40700
4908.65681,0.40482
4906.72806,0.40286
4904.79932,0.40138
4902.87057,0.39997
4900.94183,0.39846
4899.01308,0.39703
4897.08434,0.39579
4895.15559,0.39435
4893.22684,0.39229
4891.29810,0.38999
4889.36935,0.38804
4887.44061,0.38638
4885.51186,0.38491
4883.58312,0.38378
4881.65437,0.38288
4879.72563,0.38153
4877.79688,0.37942
4875.86814,0.37694
4873.93939,0.37495
4872.01065,0.37394
4870.08190,0.37321
4868.15316,0.37204
4866.22441,0.37048
4864.29566,0.36874
4862.36692,0.36702
4860.43817,0.36570
4858.50943,0.36449
4856.58068,0.36265
4854.65194,0.36063
4852.72319,0.35956
4850.79445,0.35904
4848.86570,0.35806
4846.93696,0.35689
4845.00821,0.35602
4843.07947,0.35501
4841.15072,0.35371
4839.22198,0.35244
4837.29323,0.35116
4835.36449,0.34988
4833.43574,0.34881
4831.50699,0.34785
4829.57825,0.34704
4827.64950,0.34653
4825.72076,0.34570
4823.79201,0.34427
4821.86327,0.34313
4819.93452,0.34299
4818.00578,0.34312
4816.07703,0.34264
4814.14829,0.34169
4812.21954,0.34068
4810.29080,0.33957
4808.36205,0.33842
4806.43331,0.33772
4804.50456,0.33772
4802.57582,0.33791
4800.64707,0.33777
4798.71832,0.33741
4796.78958,0.33718
4794.86083,0.33721
4792.93209,0.33736
4791.00334,0.33744
4789.07460,0.33708
4787.14585,0.33604
4785.21711,0.33491
4783.28836,0.33445
4781.35962,0.33434
4779.43087,0.33399
4777.50213,0.33368
4775.57338,0.33384
4773.64464,0.33396
4771.71589,0.33373
4769.78714,0.33323
4767.85840,0.33234
4765.92965,0.33149
4764.00091,0.33117
4762.07216,0.33121
4760.14342,0.33121
4758.21467,0.33102
4756.28593,0.33089
4754.35718,0.33108
4752.42844,0.33146
4750.49969,0.33170
4748.57095,0.33160
4746.64220,0.33134
4744.71346,0.33122
4742.78471,0.33128
4740.85597,0.33134
4738.92722,0.33139
4736.99847,0.33146
4735.06973,0.33152
4733.14098,0.33144
4731.21224,0.33119
4729.28349,0.33106
4727.35475,0.33127
4725.42600,0.33190
4723.49726,0.33269
4721.56851,0.33330
4719.63977,0.33376
4717.71102,0.33426
4715.78228,0.33454
4713.85353,0.33421
4711.92479,0.33368
4709.99604,0.33343
4708.06729,0.33318
4706.13855,0.33312
4704.20980,0.33373
4702.28106,0.33453
4700.35231,0.33498
4698.42357,0.33535
4696.49482,0.33574
4694.56608,0.33584
4692.63733,0.33567
4690.70859,0.33557
4688.77984,0.33591
4686.85110,0.33658
4684.92235,0.33714
4682.99361,0.33767
4681.06486,0.33841
4679.13612,0.33913
4677.20737,0.33959
4675.27862,0.34009
4673.34988,0.34093
4671.42113,0.34184
4669.49239,0.34248
4667.56364,0.34287
4665.63490,0.34342
4663.70615,0.34441
4661.77741,0.34549
4659.84866,0.34640
4657.91992,0.34705
4655.99117,0.34770
4654.06243,0.34852
4652.13368,0.34915
4650.20494,0.34961
4648.27619,0.35056
4646.34745,0.35185
4644.41870,0.35272
4642.48995,0.35298
4640.56121,0.35317
4638.63246,0.35386
4636.70372,0.35489
4634.77497,0.35554
4632.84623,0.35597
4630.91748,0.35699
4628.98874,0.35814
4627.05999,0.35859
4625.13125,0.35897
4623.20250,0.36000
4621.27376,0.36126
4619.34501,0.36219
4617.41627,0.36271
4615.48752,0.36306
4613.55877,0.36363
4611.63003,0.36442
4609.70128,0.36532
4607.77254,0.36627
4605.84379,0.36694
4603.91505,0.36733
4601.98630,0.36798
4600.05756,0.36894
4598.12881,0.36978
4596.20007,0.37048
4594.27132,0.37124
4592.34258,0.37176
4590.41383,0.37195
4588.48509,0.37215
4586.55634,0.37270
4584.62760,0.37344
4582.69885,0.37385
4580.77010,0.37400
4578.84136,0.37453
4576.91261,0.37546
4574.98387,0.37620
4573.05512,0.37675
4571.12638,0.37732
4569.19763,0.37765
4567.26889,0.37782
4565.34014,0.37824
4563.41140,0.37891
4561.48265,0.37964
4559.55391,0.38035
4557.62516,0.38096
4555.69642,0.38129
4553.76767,0.38133
4551.83893,0.38148
4549.91018,0.38204
4547.98143,0.38278
4546.05269,0.38335
4544.12394,0.38380
4542.19520,0.38406
4540.26645,0.38391
4538.33771,0.38396
4536.40896,0.38464
4534.48022,0.38533
4532.55147,0.38568
4530.62273,0.38570
4528.69398,0.38534
4526.76524,0.38500
4524.83649,0.38513
4522.90775,0.38556
4520.97900,0.38594
4519.05025,0.38601
4517.12151,0.38578
4515.19276,0.38544
4513.26402,0.38506
4511.33527,0.38460
4509.40653,0.38427
4507.47778,0.38387
4505.54904,0.38298
4503.62029,0.38204
4501.69155,0.38163
4499.76280,0.38128
4497.83406,0.38034
4495.90531,0.37919
4493.97657,0.37831
4492.04782,0.37728
4490.11908,0.37566
4488.19033,0.37374
4486.26158,0.37207
4484.33284,0.37070
4482.40409,0.36934
4480.47535,0.36762
4478.54660,0.36533
4476.61786,0.36278
4474.68911,0.36060
4472.76037,0.35880
4470.83162,0.35646
4468.90288,0.35337
4466.97413,0.35036
4465.04539,0.34765
4463.11664,0.34508
4461.18790,0.34267
4459.25915,0.34026
4457.33041,0.33763
4455.40166,0.33496
4453.47291,0.33254
4451.54417,0.33023
4449.61542,0.32780
4447.68668,0.32544
4445.75793,0.32315
4443.82919,0.32069
4441.90044,0.31809
4439.97170,0.31557
4438.04295,0.31339
4436.11421,0.31172
4434.18546,0.31033
4432.25672,0.30895
4430.32797,0.30749
4428.39923,0.30594
4426.47048,0.30427
4424.54173,0.30251
4422.61299,0.30085
4420.68424,0.29950
4418.75550,0.29861
4416.82675,0.29806
4414.89801,0.29736
4412.96926,0.29636
4411.04052,0.29539
4409.11177,0.29475
4407.18303,0.29449
4405.25428,0.29434
4403.32554,0.29412
4401.39679,0.29380
4399.46805,0.29347
4397.53930,0.29313
4395.61056,0.29303
4393.68181,0.29337
4391.75306,0.29380
4389.82432,0.29411
4387.89557,0.29437
4385.96683,0.29460
4384.03808,0.29496
4382.10934,0.29535
4380.18059,0.29570
4378.25185,0.29637
4376.32310,0.29735
4374.39436,0.29830
4372.46561,0.29910
4370.53687,0.29993
4368.60812,0.30061
4366.67938,0.30086
4364.75063,0.30106
4362.82189,0.30148
4360.89314,0.30191
4358.96439,0.30206
4357.03565,0.30190
4355.10690,0.30158
4353.17816,0.30119
4351.24941,0.30081
4349.32067,0.30047
4347.39192,0.30010
4345.46318,0.29962
4343.53443,0.29901
4341.60569,0.29841
4339.67694,0.29784
4337.74820,0.29715
4335.81945,0.29639
4333.89071,0.29562
4331.96196,0.29489
4330.03321,0.29412
4328.10447,0.29332
4326.17572,0.29248
4324.24698,0.29143
4322.31823,0.29058
4320.38949,0.29020
4318.46074,0.28969
4316.53200,0.28878
4314.60325,0.28797
4312.67451,0.28757
4310.74576,0.28733
4308.81702,0.28666
4306.88827,0.28546
4304.95953,0.28438
4303.03078,0.28376
4301.10204,0.28339
4299.17329,0.28314
4297.24454,0.28290
4295.31580,0.28270
4293.38705,0.28249
4291.45831,0.28216
4289.52956,0.28173
4287.60082,0.28131
4285.67207,0.28114
4283.74333,0.28125
4281.81458,0.28124
4279.88584,0.28116
4277.95709,0.28140
4276.02835,0.28172
4274.09960,0.28195
4272.17086,0.28227
4270.24211,0.28267
4268.31336,0.28314
4266.38462,0.28359
4264.45587,0.28387
4262.52713,0.28402
4260.59838,0.28407
4258.66964,0.28442
4256.74089,0.28514
4254.81215,0.28558
4252.88340,0.28544
4250.95466,0.28522
4249.02591,0.28536
4247.09717,0.28588
4245.16842,0.28640
4243.23968,0.28642
4241.31093,0.28629
4239.38219,0.28661
4237.45344,0.28702
4235.52469,0.28717
4233.59595,0.28733
4231.66720,0.28763
4229.73846,0.28797
4227.80971,0.28845
4225.88097,0.28887
4223.95222,0.28880
4222.02348,0.28844
4220.09473,0.28825
4218.16599,0.28850
4216.23724,0.28898
4214.30850,0.28915
4212.37975,0.28900
4210.45101,0.28893
4208.52226,0.28894
4206.59352,0.28881
4204.66477,0.28878
4202.73602,0.28906
4200.80728,0.28938
4198.87853,0.28960
4196.94979,0.28983
4195.02104,0.29015
4193.09230,0.29038
4191.16355,0.29034
4189.23481,0.29015
4187.30606,0.29003
4185.37732,0.29027
4183.44857,0.29084
4181.51983,0.29132
4179.59108,0.29157
4177.66234,0.29179
4175.73359,0.29194
4173.80484,0.29195
4171.87610,0.29194
4169.94735,0.29199
4168.01861,0.29214
4166.08986,0.29221
4164.16112,0.29203
4162.23237,0.29187
4160.30363,0.29190
4158.37488,0.29184
4156.44614,0.29150
4154.51739,0.29111
4152.58865,0.29080
4150.65990,0.29021
4148.73116,0.28929
4146.80241,0.28855
4144.87367,0.28798
4142.94492,0.28732
4141.01617,0.28658
4139.08743,0.28580
4137.15868,0.28494
4135.22994,0.28389
4133.30119,0.28265
4131.37245,0.28146
4129.44370,0.28046
4127.51496,0.27958
4125.58621,0.27851
4123.65747,0.27711
4121.72872,0.27551
4119.79998,0.27408
4117.87123,0.27309
4115.94249,0.27217
4114.01374,0.27097
4112.08500,0.26956
4110.15625,0.26810
4108.22750,0.26683
4106.29876,0.26591
4104.37001,0.26505
4102.44127,0.26367
4100.51252,0.26189
4098.58378,0.26048
4096.65503,0.25934
4094.72629,0.25777
4092.79754,0.25595
4090.86880,0.25439
4088.94005,0.25286
4087.01131,0.25118
4085.08256,0.24979
4083.15382,0.24866
4081.22507,0.24731
4079.29632,0.24572
4077.36758,0.24421
4075.43883,0.24283
4073.51009,0.24142
4071.58134,0.23984
4069.65260,0.23819
4067.72385,0.23665
4065.79511,0.23521
4063.86636,0.23359
4061.93762,0.23181
4060.00887,0.23020
4058.08013,0.22891
4056.15138,0.22774
4054.22264,0.22645
4052.29389,0.22526
4050.36515,0.22454
4048.43640,0.22388
4046.50765,0.22261
4044.57891,0.22107
4042.65016,0.21980
4040.72142,0.21861
4038.79267,0.21741
4036.86393,0.21649
4034.93518,0.21587
4033.00644,0.21522
4031.07769,0.21439
4029.14895,0.21363
4027.22020,0.21299
4025.29146,0.21234
4023.36271,0.21179
4021.43397,0.21161
4019.50522,0.21161
4017.57648,0.21144
4015.64773,0.21116
4013.71898,0.21094
4011.79024,0.21063
4009.86149,0.21031
4007.93275,0.21034
4006.00400,0.21070
4004.07526,0.21105
4002.14651,0.21127
4000.21777,0.21150
3998.28902,0.21186
3996.36028,0.21229
3994.43153,0.21274
3992.50279,0.21325
3990.57404,0.21372
3988.64530,0.21404
3986.71655,0.21429
3984.78780,0.21458
3982.85906,0.21498
3980.93031,0.21557
3979.00157,0.21617
3977.07282,0.21639
3975.14408,0.21631
3973.21533,0.21658
3971.28659,0.21736
3969.35784,0.21817
3967.42910,0.21878
3965.50035,0.21941
3963.57161,0.22012
3961.64286,0.22077
3959.71412,0.22135
3957.78537,0.22187
3955.85663,0.22240
3953.92788,0.22309
3951.99913,0.22393
3950.07039,0.22480
3948.14164,0.22568
3946.21290,0.22660
3944.28415,0.22749
3942.35541,0.22821
3940.42666,0.22872
3938.49792,0.22920
3936.56917,0.22980
3934.64043,0.23050
3932.71168,0.23112
3930.78294,0.23171
3928.85419,0.23248
3926.92545,0.23330
3924.99670,0.23399
3923.06795,0.23481
3921.13921,0.23580
3919.21046,0.23650
3917.28172,0.23692
3915.35297,0.23763
3913.42423,0.23861
3911.49548,0.23941
3909.56674,0.23988
3907.63799,0.24042
3905.70925,0.24134
3903.78050,0.24229
3901.85176,0.24289
3899.92301,0.24335
3897.99427,0.24412
3896.06552,0.24515
3894.13678,0.24608
3892.20803,0.24670
3890.27928,0.24717
3888.35054,0.24786
3886.42179,0.24864
3884.49305,0.24931
3882.56430,0.25009
3880.63556,0.25077
3878.70681,0.25119
3876.77807,0.25185
3874.84932,0.25277
3872.92058,0.25359
3870.99183,0.25422
3869.06309,0.25455
3867.13434,0.25495
3865.20560,0.25581
3863.27685,0.25682
3861.34811,0.25776
3859.41936,0.25881
3857.49061,0.26001
3855.56187,0.26105
3853.63312,0.26149
3851.70438,0.26173
3849.77563,0.26236
3847.84689,0.26312
3845.91814,0.26397
3843.98940,0.26499
3842.06065,0.26575
3840.13191,0.26610
3838.20316,0.26641
3836.27442,0.26682
3834.34567,0.26727
3832.41693,0.26758
3830.48818,0.26768
3828.55943,0.26772
3826.63069,0.26777
3824.70194,0.26804
3822.77320,0.26835
3820.84445,0.26833
3818.91571,0.26852
3816.98696,0.26903
3815.05822,0.26917
3813.12947,0.26882
3811.20073,0.26848
3809.27198,0.26833
3807.34324,0.26820
3805.41449,0.26791
3803.48575,0.26762
3801.55700,0.26733
3799.62826,0.26698
3797.69951,0.26660
3795.77076,0.26628
3793.84202,0.26614
3791.91327,0.26606
3789.98453,0.26591
3788.05578,0.26571
3786.12704,0.26521
3784.19829,0.26426
3782.26955,0.26330
3780.34080,0.26271
3778.41206,0.26249
3776.48331,0.26232
3774.55457,0.26190
3772.62582,0.26135
3770.69708,0.26081
3768.76833,0.26012
3766.83959,0.25918
3764.91084,0.25833
3762.98209,0.25770
3761.05335,0.25689
3759.12460,0.25583
3757.19586,0.25522
3755.26711,0.25515
3753.33837,0.25485
3751.40962,0.25369
3749.48088,0.25214
3747.55213,0.25119
3745.62339,0.25043
3743.69464,0.24907
3741.76590,0.24784
3739.83715,0.24726
3737.90841,0.24658
3735.97966,0.24522
3734.05091,0.24352
3732.12217,0.24197
3730.19342,0.24063
3728.26468,0.23930
3726.33593,0.23781
3724.40719,0.23634
3722.47844,0.23474
3720.54970,0.23282
3718.62095,0.23091
3716.69221,0.22912
3714.76346,0.22719
3712.83472,0.22497
3710.90597,0.22251
3708.97723,0.21973
3707.04848,0.21680
3705.11974,0.21418
3703.19099,0.21180
3701.26224,0.20908
3699.33350,0.20582
3697.40475,0.20231
3695.47601,0.19890
3693.54726,0.19558
3691.61852,0.19200
3689.68977,0.18766
3687.76103,0.18271
3685.83228,0.17813
3683.90354,0.17403
3681.97479,0.16983
3680.04605,0.16554
3678.11730,0.16129
3676.18856,0.15649
3674.25981,0.15147
3672.33107,0.14713
3670.40232,0.14262
3668.47357,0.13768
3666.54483,0.13337
3664.61608,0.12980
3662.68734,0.12653
3660.75859,0.12329
3658.82985,0.11998
3656.90110,0.11659
3654.97236,0.11340
3653.04361,0.11068
3651.11487,0.10791
3649.18612,0.10492
3647.25738,0.10246
3645.32863,0.10039
3643.39989,0.09827
3641.47114,0.09607
3639.54239,0.09388
3637.61365,0.09188
3635.68490,0.09003
3633.75616,0.08809
3631.82741,0.08632
3629.89867,0.08485
3627.96992,0.08333
3626.04118,0.08197
3624.11243,0.08089
3622.18369,0.07964
3620.25494,0.07809
3618.32620,0.07659
3616.39745,0.07534
3614.46871,0.07418
3612.53996,0.07304
3610.61122,0.07190
3608.68247,0.07073
3606.75372,0.06966
3604.82498,0.06865
3602.89623,0.06760
3600.96749,0.06653
3599.03874,0.06553
3597.11000,0.06474
3595.18125,0.06407
3593.25251,0.06336
3591.32376,0.06265
3589.39502,0.06183
3587.46627,0.06086
3585.53753,0.06002
3583.60878,0.05926
3581.68004,0.05841
3579.75129,0.05756
3577.82254,0.05689
3575.89380,0.05641
3573.96505,0.05582
3572.03631,0.05501
3570.10756,0.05435
3568.17882,0.05405
3566.25007,0.05376
3564.32133,0.05314
3562.39258,0.05234
3560.46384,0.05176
3558.53509,0.05147
3556.60635,0.05097
3554.67760,0.05015
3552.74886,0.04957
3550.82011,0.04940
3548.89137,0.04921
3546.96262,0.04875
3545.03387,0.04821
3543.10513,0.04778
3541.17638,0.04749
3539.24764,0.04726
3537.31889,0.04697
3535.39015,0.04662
3533.46140,0.04630
3531.53266,0.04594
3529.60391,0.04562
3527.67517,0.04547
3525.74642,0.04539
3523.81768,0.04514
3521.88893,0.04467
3519.96019,0.04411
3518.03144,0.04356
3516.10270,0.04322
3514.17395,0.04311
3512.24520,0.04307
3510.31646,0.04306
3508.38771,0.04284
3506.45897,0.04226
3504.53022,0.04162
3502.60148,0.04140
3500.67273,0.04174
3498.74399,0.04227
3496.81524,0.04242
3494.88650,0.04217
3492.95775,0.04189
3491.02901,0.04166
3489.10026,0.04132
3487.17152,0.04107
3485.24277,0.04088
3483.31402,0.04047
3481.38528,0.04015
3479.45653,0.04024
3477.52779,0.04027
3475.59904,0.03995
3473.67030,0.03966
3471.74155,0.03972
3469.81281,0.03982
3467.88406,0.03964
3465.95532,0.03940
3464.02657,0.03944
3462.09783,0.03957
3460.16908,0.03944
3458.24034,0.03914
3456.31159,0.03898
3454.38285,0.03896
3452.45410,0.03911
3450.52535,0.03927
3448.59661,0.03917
3446.66786,0.03903
3444.73912,0.03905
3442.81037,0.03907
3440.88163,0.03909
3438.95288,0.03915
3437.02414,0.03923
3435.09539,0.03923
3433.16665,0.03914
3431.23790,0.03920
3429.30916,0.03956
3427.38041,0.03988
3425.45167,0.03976
3423.52292,0.03938
3421.59418,0.03903
3419.66543,0.03888
3417.73668,0.03912
3415.80794,0.03950
3413.87919,0.03978
3411.95045,0.04012
3410.02170,0.04054
3408.09296,0.04075
3406.16421,0.04069
3404.23547,0.04052
3402.30672,0.04031
3400.37798,0.04037
3398.44923,0.04074
3396.52049,0.04099
3394.59174,0.04097
3392.66300,0.04062
3390.73425,0.04011
3388.80550,0.04006
3386.87676,0.04056
3384.94801,0.04101
3383.01927,0.04101
3381.09052,0.04091
3379.16178,0.04120
3377.23303,0.04167
3375.30429,0.04190
3373.37554,0.04179
3371.44680,0.04137
3369.51805,0.04090
3367.58931,0.04095
3365.66056,0.04140
3363.73182,0.04157
3361.80307,0.04146
3359.87433,0.04155
3357.94558,0.04185
3356.01683,0.04214
3354.08809,0.04214
3352.15934,0.04187
3350.23060,0.04192
3348.30185,0.04222
3346.37311,0.04243
3344.44436,0.04282
3342.51562,0.04339
3340.58687,0.04377
3338.65813,0.04386
3336.72938,0.04385
3334.80064,0.04394
3332.87189,0.04410
3330.94315,0.04418
3329.01440,0.04432
3327.08566,0.04452
3325.15691,0.04479
3323.22816,0.04516
3321.29942,0.04536
3319.37067,0.04521
3317.44193,0.04489
3315.51318,0.04476
3313.58444,0.04506
3311.65569,0.04555
3309.72695,0.04603
3307.79820,0.04641
3305.86946,0.04652
3303.94071,0.04641
3302.01197,0.04636
3300.08322,0.04644
3298.15448,0.04659
3296.22573,0.04682
3294.29698,0.04696
3292.36824,0.04674
3290.43949,0.04639
3288.51075,0.04645
3286.58200,0.04696
3284.65326,0.04744
3282.72451,0.04756
3280.79577,0.04755
3278.86702,0.04775
3276.93828,0.04807
3275.00953,0.04843
3273.08079,0.04889
3271.15204,0.04933
3269.22330,0.04950
3267.29455,0.04946
3265.36581,0.04959
3263.43706,0.05006
3261.50831,0.05053
3259.57957,0.05079
3257.65082,0.05097
3255.72208,0.05107
3253.79333,0.05101
3251.86459,0.05087
3249.93584,0.05087
3248.00710,0.05125
3246.07835,0.05188
3244.14961,0.05234
3242.22086,0.05252
3240.29212,0.05257
3238.36337,0.05281
3236.43463,0.05349
3234.50588,0.05424
3232.57713,0.05460
3230.64839,0.05476
3228.71964,0.05496
3226.79090,0.05508
3224.86215,0.05504
3222.93341,0.05506
3221.00466,0.05536
3219.07592,0.05578
3217.14717,0.05611
3215.21843,0.05636
3213.28968,0.05643
3211.36094,0.05637
3209.43219,0.05663
3207.50345,0.05715
3205.57470,0.05754
3203.64596,0.05793
3201.71721,0.05838
3199.78846,0.05867
3197.85972,0.05883
3195.93097,0.05896
3194.00223,0.05901
3192.07348,0.05908
3190.14474,0.05932
3188.21599,0.05959
3186.28725,0.05985
3184.35850,0.06025
3182.42976,0.06075
3180.50101,0.06123
3178.57227,0.06164
3176.64352,0.06188
3174.71478,0.06192
3172.78603,0.06196
3170.85729,0.06214
3168.92854,0.06224
3166.99979,0.06235
3165.07105,0.06277
3163.14230,0.06337
3161.21356,0.06371
3159.28481,0.06371
3157.35607,0.06370
3155.42732,0.06395
3153.49858,0.06449
3151.56983,0.06517
3149.64109,0.06577
3147.71234,0.06619
3145.78360,0.06651
3143.85485,0.06672
3141.92611,0.06681
3139.99736,0.06710
3138.06861,0.06768
3136.13987,0.06810
3134.21112,0.06818
3132.28238,0.06832
3130.35363,0.06864
3128.42489,0.06890
3126.49614,0.06897
3124.56740,0.06912
3122.63865,0.06946
3120.70991,0.06987
3118.78116,0.07037
3116.85242,0.07091
3114.92367,0.07149
3112.99493,0.07202
3111.06618,0.07225
3109.13744,0.07237
3107.20869,0.07261
3105.27994,0.07283
3103.35120,0.07296
3101.42245,0.07310
3099.49371,0.07330
3097.56496,0.07353
3095.63622,0.07382
3093.70747,0.07417
3091.77873,0.07443
3089.84998,0.07450
3087.92124,0.07449
3085.99249,0.07465
3084.06375,0.07503
3082.13500,0.07549
3080.20626,0.07593
3078.27751,0.07619
3076.34877,0.07630
3074.42002,0.07653
3072.49127,0.07701
3070.56253,0.07745
3068.63378,0.07769
3066.70504,0.07806
3064.77629,0.07849
3062.84755,0.07853
3060.91880,0.07837
3058.99006,0.07863
3057.06131,0.07929
3055.13257,0.07987
3053.20382,0.08023
3051.27508,0.08039
3049.34633,0.08025
3047.41759,0.07992
3045.48884,0.07980
3043.56009,0.08006
3041.63135,0.08044
3039.70260,0.08074
3037.77386,0.08086
3035.84511,0.08083
3033.91637,0.08076
3031.98762,0.08063
3030.05888,0.08046
3028.13013,0.08043
3026.20139,0.08051
3024.27264,0.08044
3022.34390,0.08024
3020.41515,0.08004
3018.48641,0.07986
3016.55766,0.07959
3014.62892,0.07924
3012.70017,0.07905
3010.77142,0.07897
3008.84268,0.07861
3006.91393,0.07793
3004.98519,0.07729
3003.05644,0.07691
3001.12770,0.07659
2999.19895,0.07622
2997.27021,0.07610
2995.34146,0.07620
2993.41272,0.07588
2991.48397,0.07494
2989.55523,0.07392
2987.62648,0.07310
2985.69774,0.07223
2983.76899,0.07127
2981.84025,0.07040
2979.91150,0.06965
2977.98275,0.06890
2976.05401,0.06807
2974.12526,0.06711
2972.19652,0.06609
2970.26777,0.06530
2968.33903,0.06474
2966.41028,0.06420
2964.48154,0.06370
2962.55279,0.06318
2960.62405,0.06251
2958.69530,0.06181
2956.76656,0.06125
2954.83781,0.06076
2952.90907,0.06015
2950.98032,0.05946
2949.05157,0.05888
2947.12283,0.05833
2945.19408,0.05786
2943.26534,0.05759
2941.33659,0.05736
2939.40785,0.05706
2937.47910,0.05689
2935.55036,0.05694
2933.62161,0.05706
2931.69287,0.05711
2929.76412,0.05722
2927.83538,0.05737
2925.90663,0.05736
2923.97789,0.05717
2922.04914,0.05709
2920.12040,0.05733
2918.19165,0.05768
2916.26290,0.05786
2914.33416,0.05783
2912.40541,0.05771
2910.47667,0.05754
2908.54792,0.05749
2906.61918,0.05773
2904.69043,0.05790
2902.76169,0.05773
2900.83294,0.05757
2898.90420,0.05774
2896.97545,0.05804
2895.04671,0.05831
2893.11796,0.05860
2891.18922,0.05883
2889.26047,0.05895
2887.33172,0.05913
2885.40298,0.05945
2883.47423,0.05986
2881.54549,0.06029
2879.61674,0.06061
2877.68800,0.06080
2875.75925,0.06101
2873.83051,0.06140
2871.90176,0.06183
2869.97302,0.06220
2868.04427,0.06259
2866.11553,0.06303
2864.18678,0.06354
2862.25804,0.06399
2860.32929,0.06424
2858.40055,0.06453
2856.47180,0.06505
2854.54305,0.06554
2852.61431,0.06597
2850.68556,0.06651
2848.75682,0.06728
2846.82807,0.06819
2844.89933,0.06904
2842.97058,0.07001
2841.04184,0.07112
2839.11309,0.07216
2837.18435,0.07310
2835.25560,0.07403
2833.32686,0.07510
2831.39811,0.07648
2829.46937,0.07789
2827.54062,0.07899
2825.61188,0.07997
2823.68313,0.08103
2821.75438,0.08196
2819.82564,0.08272
2817.89689,0.08356
2815.96815,0.08444
2814.03940,0.08517
2812.11066,0.08574
2810.18191,0.08630
2808.25317,0.08690
2806.32442,0.08752
2804.39568,0.08820
2802.46693,0.08888
2800.53819,0.08941
2798.60944,0.08982
2796.68070,0.09036
2794.75195,0.09096
2792.82320,0.09135
2790.89446,0.09159
2788.96571,0.09195
2787.03697,0.09248
2785.10822,0.09298
2783.17948,0.09327
2781.25073,0.09336
2779.32199,0.09341
2777.39324,0.09359
2775.46450,0.09388
2773.53575,0.09410
2771.60701,0.09421
2769.67826,0.09437
2767.74952,0.09467
2765.82077,0.09498
2763.89203,0.09512
2761.96328,0.09519
2760.03453,0.09537
2758.10579,0.09557
2756.17704,0.09579
2754.24830,0.09603
2752.31955,0.09617
2750.39081,0.09629
2748.46206,0.09658
2746.53332,0.09693
2744.60457,0.09715
2742.67583,0.09727
2740.74708,0.09740
2738.81834,0.09761
2736.88959,0.09789
2734.96085,0.09803
2733.03210,0.09797
2731.10336,0.09797
2729.17461,0.09819
2727.24586,0.09842
2725.31712,0.09849
2723.38837,0.09861
2721.45963,0.09895
2719.53088,0.09946
2717.60214,0.10000
2715.67339,0.10045
2713.74465,0.10072
2711.81590,0.10097
2709.88716,0.10135
2707.95841,0.10171
2706.02967,0.10205
2704.10092,0.10250
2702.17218,0.10292
2700.24343,0.10333
2698.31468,0.10391
2696.38594,0.10446
2694.45719,0.10478
2692.52845,0.10504
2690.59970,0.10531
2688.67096,0.10554
2686.74221,0.10584
2684.81347,0.10618
2682.88472,0.10648
2680.95598,0.10681
2679.02723,0.10730
2677.09849,0.10778
2675.16974,0.10808
2673.24100,0.10841
2671.31225,0.10886
2669.38351,0.10917
2667.45476,0.10933
2665.52601,0.10962
2663.59727,0.11006
2661.66852,0.11040
2659.73978,0.11059
2657.81103,0.11072
2655.88229,0.11084
2653.95354,0.11095
2652.02480,0.11114
2650.09605,0.11147
2648.16731,0.11188
2646.23856,0.11228
2644.30982,0.11266
2642.38107,0.11306
2640.45233,0.11345
2638.52358,0.11382
2636.59484,0.11423
2634.66609,0.11455
2632.73734,0.11477
2630.80860,0.11508
2628.87985,0.11547
2626.95111,0.11600
2625.02236,0.11660
2623.09362,0.11707
2621.16487,0.11739
2619.23613,0.11776
2617.30738,0.11820
2615.37864,0.11858
2613.44989,0.11885
2611.52115,0.11904
2609.59240,0.11921
2607.66366,0.11940
2605.73491,0.11972
2603.80616,0.12003
2601.87742,0.12025
2599.94867,0.12060
2598.01993,0.12127
2596.09118,0.12193
2594.16244,0.12221
2592.23369,0.12226
2590.30495,0.12250
2588.37620,0.12295
2586.44746,0.12334
2584.51871,0.12357
2582.58997,0.12360
2580.66122,0.12372
2578.73248,0.12417
2576.80373,0.12466
2574.87499,0.12483
2572.94624,0.12479
2571.01749,0.12486
2569.08875,0.12507
2567.16000,0.12521
2565.23126,0.12525
2563.30251,0.12538
2561.37377,0.12576
2559.44502,0.12630
2557.51628,0.12675
2555.58753,0.12694
2553.65879,0.12682
2551.73004,0.12659
2549.80130,0.12657
2547.87255,0.12691
2545.94381,0.12739
2544.01506,0.12770
2542.08631,0.12791
2540.15757,0.12816
2538.22882,0.12838
2536.30008,0.12859
2534.37133,0.12886
2532.44259,0.12904
2530.51384,0.12900
2528.58510,0.12900
2526.65635,0.12925
2524.72761,0.12964
2522.79886,0.12990
2520.87012,0.13003
2518.94137,0.13027
2517.01263,0.13055
2515.08388,0.13072
2513.15514,0.13087
2511.22639,0.13107
2509.29764,0.13141
2507.36890,0.13202
2505.44015,0.13269
2503.51141,0.13317
2501.58266,0.13350
2499.65392,0.13387
2497.72517,0.13442
2495.79643,0.13485
2493.86768,0.13495
2491.93894,0.13513
2490.01019,0.13572
2488.08145,0.13641
2486.15270,0.13692
2484.22396,0.13731
2482.29521,0.13774
2480.36647,0.13815
2478.43772,0.13852
2476.50897,0.13898
2474.58023,0.13950
2472.65148,0.13989
2470.72274,0.14014
2468.79399,0.14044
2466.86525,0.14085
2464.93650,0.14118
2463.00776,0.14140
2461.07901,0.14171
2459.15027,0.14218
2457.22152,0.14260
2455.29278,0.14291
2453.36403,0.14325
2451.43529,0.14379
2449.50654,0.14453
2447.57779,0.14523
2445.64905,0.14584
2443.72030,0.14647
2441.79156,0.14704
2439.86281,0.14748
2437.93407,0.14793
2436.00532,0.14843
2434.07658,0.14892
2432.14783,0.14956
2430.21909,0.15038
2428.29034,0.15113
2426.36160,0.15162
2424.43285,0.15207
2422.50411,0.15274
2420.57536,0.15355
2418.64662,0.15425
2416.71787,0.15487
2414.78912,0.15558
2412.86038,0.15631
2410.93163,0.15699
2409.00289,0.15775
2407.07414,0.15854
2405.14540,0.15916
2403.21665,0.15973
2401.28791,0.16049
2399.35916,0.16137
2397.43042,0.16219
2395.50167,0.16298
2393.57293,0.16373
2391.64418,0.16422
2389.71544,0.16456
2387.78669,0.16502
2385.85795,0.16557
2383.92920,0.16600
2382.00045,0.16634
2380.07171,0.16674
2378.14296,0.16721
2376.21422,0.16764
2374.28547,0.16805
2372.35673,0.16851
2370.42798,0.16881
2368.49924,0.16901
2366.57049,0.16939
2364.64175,0.16985
2362.71300,0.17024
2360.78426,0.17063
2358.85551,0.17102
2356.92677,0.17153
2354.99802,0.17216
2353.06927,0.17269
2351.14053,0.17314
2349.21178,0.17359
2347.28304,0.17401
2345.35429,0.17434
2343.42555,0.17465
2341.49680,0.17495
2339.56806,0.17522
2337.63931,0.17559
2335.71057,0.17609
2333.78182,0.17646
2331.85308,0.17664
2329.92433,0.17677
2327.99559,0.17687
2326.06684,0.17700
2324.13810,0.17726
2322.20935,0.17760
2320.28060,0.17779
2318.35186,0.17766
2316.42311,0.17743
2314.49437,0.17736
2312.56562,0.17734
2310.63688,0.17726
2308.70813,0.17721
2306.77939,0.17716
2304.85064,0.17712
2302.92190,0.17707
2300.99315,0.17698
2299.06441,0.17689
2297.13566,0.17672
2295.20692,0.17648
2293.27817,0.17642
2291.34943,0.17653
2289.42068,0.17660
2287.49193,0.17657
2285.56319,0.17646
2283.63444,0.17627
2281.70570,0.17619
2279.77695,0.17628
2277.84821,0.17636
2275.91946,0.17635
2273.99072,0.17622
2272.06197,0.17584
2270.13323,0.17531
2268.20448,0.17487
2266.27574,0.17456
2264.34699,0.17428
2262.41825,0.17390
2260.48950,0.17344
2258.56075,0.17296
2256.63201,0.17236
2254.70326,0.17183
2252.77452,0.17161
2250.84577,0.17143
2248.91703,0.17096
2246.98828,0.17039
2245.05954,0.17014
2243.13079,0.17018
2241.20205,0.17015
2239.27330,0.16984
2237.34456,0.16943
2235.41581,0.16934
2233.48707,0.16962
2231.55832,0.16984
2229.62958,0.16986
2227.70083,0.16987
2225.77208,0.17001
2223.84334,0.17021
2221.91459,0.17037
2219.98585,0.17039
2218.05710,0.17022
2216.12836,0.17003
2214.19961,0.16990
2212.27087,0.16967
2210.34212,0.16935
2208.41338,0.16905
2206.48463,0.16875
2204.55589,0.16841
2202.62714,0.16795
2200.69840,0.16734
2198.76965,0.16672
2196.84090,0.16606
2194.91216,0.16527
2192.98341,0.16448
2191.05467,0.16380
2189.12592,0.16311
2187.19718,0.16234
2185.26843,0.16152
2183.33969,0.16065
2181.41094,0.15972
2179.48220,0.15864
2177.55345,0.15749
2175.62471,0.15654
2173.69596,0.15577
2171.76722,0.15488
2169.83847,0.15389
2167.90973,0.15298
2165.98098,0.15212
2164.05223,0.15134
2162.12349,0.15079
2160.19474,0.15033
2158.26600,0.14982
2156.33725,0.14934
2154.40851,0.14885
2152.47976,0.14831
2150.55102,0.14786
2148.62227,0.14757
2146.69353,0.14733
2144.76478,0.14703
2142.83604,0.14677
2140.90729,0.14666
2138.97855,0.14657
2137.04980,0.14650
2135.12106,0.14650
2133.19231,0.14654
2131.26356,0.14662
2129.33482,0.14665
2127.40607,0.14647
2125.47733,0.14634
2123.54858,0.14655
2121.61984,0.14689
2119.69109,0.14714
2117.76235,0.14738
2115.83360,0.14768
2113.90486,0.14796
2111.97611,0.14814
2110.04737,0.14822
2108.11862,0.14833
2106.18988,0.14854
2104.26113,0.14884
2102.33238,0.14920
2100.40364,0.14951
2098.47489,0.14977
2096.54615,0.15008
2094.61740,0.15039
2092.68866,0.15066
2090.75991,0.15100
2088.83117,0.15134
2086.90242,0.15148
2084.97368,0.15151
2083.04493,0.15159
2081.11619,0.15164
2079.18744,0.15160
2077.25870,0.15153
2075.32995,0.15157
2073.40121,0.15164
2071.47246,0.15166
2069.54371,0.15157
2067.61497,0.15133
2065.68622,0.15121
2063.75748,0.15143
2061.82873,0.15177
2059.89999,0.15205
2057.97124,0.15226
2056.04250,0.15242
2054.11375,0.15254
2052.18501,0.15259
2050.25626,0.15260
2048.32752,0.15276
2046.39877,0.15309
2044.47003,0.15338
2042.54128,0.15351
2040.61254,0.15355
2038.68379,0.15363
2036.75504,0.15394
2034.82630,0.15454
2032.89755,0.15514
2030.96881,0.15562
2029.04006,0.15605
2027.11132,0.15649
2025.18257,0.15699
2023.25383,0.15761
2021.32508,0.15838
2019.39634,0.15930
2017.46759,0.16034
2015.53885,0.16132
2013.61010,0.16209
2011.68136,0.16274
2009.75261,0.16346
2007.82386,0.16421
2005.89512,0.16483
2003.96637,0.16539
2002.03763,0.16598
2000.10888,0.16651
1998.18014,0.16707
1996.25139,0.16776
1994.32265,0.16837
1992.39390,0.16862
1990.46516,0.16864
1988.53641,0.16888
1986.60767,0.16926
1984.67892,0.16946
1982.75018,0.16960
1980.82143,0.16975
1978.89269,0.16973
1976.96394,0.16954
1975.03519,0.16939
1973.10645,0.16940
1971.17770,0.16947
1969.24896,0.16935
1967.32021,0.16903
1965.39147,0.16875
1963.46272,0.16856
1961.53398,0.16839
1959.60523,0.16837
1957.67649,0.16848
1955.74774,0.16852
1953.81900,0.16850
1951.89025,0.16853
1949.96151,0.16865
1948.03276,0.16897
1946.10402,0.16946
1944.17527,0.16992
1942.24652,0.17035
1940.31778,0.17081
1938.38903,0.17138
1936.46029,0.17201
1934.53154,0.17263
1932.60280,0.17327
1930.67405,0.17393
1928.74531,0.17454
1926.81656,0.17505
1924.88782,0.17548
1922.95907,0.17590
1921.03033,0.17635
1919.10158,0.17682
1917.17284,0.17712
1915.24409,0.17720
1913.31534,0.17726
1911.38660,0.17738
1909.45785,0.17733
1907.52911,0.17724
1905.60036,0.17735
1903.67162,0.17745
1901.74287,0.17731
1899.81413,0.17717
1897.88538,0.17721
1895.95664,0.17727
1894.02789,0.17724
1892.09915,0.17725
1890.17040,0.17725
1888.24166,0.17717
1886.31291,0.17724
1884.38417,0.17744
1882.45542,0.17747
1880.52667,0.17736
1878.59793,0.17725
1876.66918,0.17713
1874.74044,0.17692
1872.81169,0.17660
1870.88295,0.17617
1868.95420,0.17562
1867.02546,0.17505
1865.09671,0.17447
1863.16797,0.17387
1861.23922,0.17330
1859.31048,0.17277
1857.38173,0.17223
1855.45299,0.17159
1853.52424,0.17079
1851.59549,0.16998
1849.66675,0.16931
1847.73800,0.16871
1845.80926,0.16795
1843.88051,0.16695
1841.95177,0.16589
1840.02302,0.16491
1838.09428,0.16396
1836.16553,0.16297
1834.23679,0.16189
1832.30804,0.16069
1830.37930,0.15935
1828.45055,0.15795
1826.52181,0.15656
1824.59306,0.15504
1822.66432,0.15329
1820.73557,0.15140
1818.80682,0.14952
1816.87808,0.14766
1814.94933,0.14572
1813.02059,0.14354
1811.09184,0.14111
1809.16310,0.13862
1807.23435,0.13610
1805.30561,0.13355
1803.37686,0.13082
1801.44812,0.12775
1799.51937,0.12462
1797.59063,0.12171
1795.66188,0.11889
1793.73314,0.11584
1791.80439,0.11250
1789.87565,0.10927
1787.94690,0.10634
1786.01815,0.10340
1784.08941,0.10032
1782.16066,0.09718
1780.23192,0.09395
1778.30317,0.09061
1776.37443,0.08734
1774.44568,0.08388
1772.51694,0.07967
1770.58819,0.07518
1768.65945,0.07112
1766.73070,0.06735
1764.80196,0.06398
1762.87321,0.06097
1760.94447,0.05815
1759.01572,0.05580
1757.08697,0.05380
1755.15823,0.05199
1753.22948,0.05043
1751.30074,0.04906
1749.37199,0.04779
1747.44325,0.04683
1745.51450,0.04632
1743.58576,0.04612
1741.65701,0.04598
1739.72827,0.04588
1737.79952,0.04607
1735.87078,0.04661
1733.94203,0.04730
1732.01329,0.04779
1730.08454,0.04813
1728.15580,0.04864
1726.22705,0.04937
1724.29830,0.05017
1722.36956,0.05095
1720.44081,0.05175
1718.51207,0.05259
1716.58332,0.05335
1714.65458,0.05397
1712.72583,0.05455
1710.79709,0.05527
1708.86834,0.05616
1706.93960,0.05693
1705.01085,0.05750
1703.08211,0.05810
1701.15336,0.05861
1699.22462,0.05890
1697.29587,0.05914
1695.36713,0.05940
1693.43838,0.05967
1691.50963,0.05996
1689.58089,0.06017
1687.65214,0.06016
1685.72340,0.06000
1683.79465,0.05985
1681.86591,0.05975
1679.93716,0.05950
1678.00842,0.05913
1676.07967,0.05885
1674.15093,0.05862
1672.22218,0.05821
1670.29344,0.05771
1668.36469,0.05743
1666.43595,0.05738
1664.50720,0.05721
1662.57845,0.05677
1660.64971,0.05635
1658.72096,0.05608
1656.79222,0.05588
1654.86347,0.05580
1652.93473,0.05578
1651.00598,0.05571
1649.07724,0.05571
1647.14849,0.05568
1645.21975,0.05545
1643.29100,0.05521
1641.36226,0.05508
1639.43351,0.05497
1637.50477,0.05484
1635.57602,0.05460
1633.64728,0.05432
1631.71853,0.05408
1629.78978,0.05374
1627.86104,0.05341
1625.93229,0.05340
1624.00355,0.05361
1622.07480,0.05378
1620.14606,0.05376
1618.21731,0.05354
1616.28857,0.05298
1614.35982,0.05220
1612.43108,0.05162
1610.50233,0.05111
1608.57359,0.05049
1606.64484,0.05006
1604.71610,0.05004
1602.78735,0.05014
1600.85861,0.05016
1598.92986,0.05029
1597.00111,0.05051
1595.07237,0.05063
1593.14362,0.05085
1591.21488,0.05147
1589.28613,0.05252
1587.35739,0.05387
1585.42864,0.05534
1583.49990,0.05678
1581.57115,0.05830
1579.64241,0.06002
1577.71366,0.06189
1575.78492,0.06381
1573.85617,0.06537
1571.92743,0.06651
1569.99868,0.06745
1568.06993,0.06829
1566.14119,0.06913
1564.21244,0.07009
1562.28370,0.07104
1560.35495,0.07181
1558.42621,0.07237
1556.49746,0.07275
1554.56872,0.07284
1552.63997,0.07257
1550.71123,0.07230
1548.78248,0.07217
1546.85374,0.07201
1544.92499,0.07190
1542.99625,0.07181
1541.06750,0.07131
1539.13876,0.07031
1537.21001,0.06958
1535.28126,0.06905
1533.35252,0.06807
1531.42377,0.06665
1529.49503,0.06510
1527.56628,0.06331
1525.63754,0.06122
1523.70879,0.05883
1521.78005,0.05582
1519.85130,0.05271
1517.92256,0.05053
1515.99381,0.04928
1514.06507,0.04867
1512.13632,0.04854
1510.20758,0.04872
1508.27883,0.04902
1506.35008,0.04931
1504.42134,0.04963
1502.49259,0.05008
1500.56385,0.05070
1498.63510,0.05156
1496.70636,0.05252
1494.77761,0.05338
1492.84887,0.05419
1490.92012,0.05495
1488.99138,0.05541
1487.06263,0.05535
1485.13389,0.05489
1483.20514,0.05411
1481.27640,0.05296
1479.34765,0.05143
1477.41891,0.04967
1475.49016,0.04784
1473.56141,0.04597
1471.63267,0.04422
1469.70392,0.04295
1467.77518,0.04224
1465.84643,0.04193
1463.91769,0.04192
1461.98894,0.04206
1460.06020,0.04220
1458.13145,0.04238
1456.20271,0.04274
1454.27396,0.04316
1452.34522,0.04347
1450.41647,0.04363
1448.48773,0.04375
1446.55898,0.04389
1444.63024,0.04397
1442.70149,0.04386
1440.77274,0.04354
1438.84400,0.04313
1436.91525,0.04262
1434.98651,0.04208
1433.05776,0.04179
1431.12902,0.04179
1429.20027,0.04193
1427.27153,0.04213
1425.34278,0.04237
1423.41404,0.04260
1421.48529,0.04284
1419.55655,0.04322
1417.62780,0.04375
1415.69906,0.04418
1413.77031,0.04448
1411.84156,0.04476
1409.91282,0.04494
1407.98407,0.04491
1406.05533,0.04482
1404.12658,0.04471
1402.19784,0.04444
1400.26909,0.04404
1398.34035,0.04365
1396.41160,0.04324
1394.48286,0.04269
1392.55411,0.04212
1390.62537,0.04158
1388.69662,0.04106
1386.76788,0.04062
1384.83913,0.04032
1382.91039,0.04012
1380.98164,0.03984
1379.05289,0.03951
1377.12415,0.03953
1375.19540,0.03993
1373.26666,0.04029
1371.33791,0.04058
1369.40917,0.04104
1367.48042,0.04161
1365.55168,0.04212
1363.62293,0.04250
1361.69419,0.04275
1359.76544,0.04296
1357.83670,0.04318
1355.90795,0.04331
1353.97921,0.04332
1352.05046,0.04316
1350.12172,0.04288
1348.19297,0.04275
1346.26422,0.04274
1344.33548,0.04251
1342.40673,0.04199
1340.47799,0.04133
1338.54924,0.04073
1336.62050,0.04045
1334.69175,0.04068
1332.76301,0.04110
1330.83426,0.04127
1328.90552,0.04126
1326.97677,0.04128
1325.04803,0.04129
1323.11928,0.04140
1321.19054,0.04173
1319.26179,0.04216
1317.33304,0.04250
1315.40430,0.04277
1313.47555,0.04312
1311.54681,0.04346
1309.61806,0.04367
1307.68932,0.04374
1305.76057,0.04378
1303.83183,0.04394
1301.90308,0.04409
1299.97434,0.04399
1298.04559,0.04376
1296.11685,0.04350
1294.18810,0.04310
1292.25936,0.04255
1290.33061,0.04197
1288.40187,0.04146
1286.47312,0.04112
1284.54437,0.04085
1282.61563,0.04047
1280.68688,0.03991
1278.75814,0.03937
1276.82939,0.03901
1274.90065,0.03880
1272.97190,0.03844
1271.04316,0.03788
1269.11441,0.03745
1267.18567,0.03720
1265.25692,0.03699
1263.32818,0.03687
1261.39943,0.03685
1259.47069,0.03693
1257.54194,0.03713
1255.61320,0.03722
1253.68445,0.03715
1251.75570,0.03723
1249.82696,0.03750
1247.89821,0.03776
1245.96947,0.03808
1244.04072,0.03842
1242.11198,0.03852
1240.18323,0.03863
1238.25449,0.03907
1236.32574,0.03970
1234.39700,0.04027
1232.46825,0.04084
1230.53951,0.04143
1228.61076,0.04193
1226.68202,0.04216
1224.75327,0.04215
1222.82452,0.04219
1220.89578,0.04248
1218.96703,0.04273
1217.03829,0.04277
1215.10954,0.04272
1213.18080,0.04271
1211.25205,0.04278
1209.32331,0.04279
1207.39456,0.04255
1205.46582,0.04219
1203.53707,0.04195
1201.60833,0.04182
1199.67958,0.04165
1197.75084,0.04133
1195.82209,0.04090
1193.89335,0.04050
1191.96460,0.04006
1190.03585,0.03940
1188.10711,0.03862
1186.17836,0.03784
1184.24962,0.03700
1182.32087,0.03603
1180.39213,0.03500
1178.46338,0.03411
1176.53464,0.03374
1174.60589,0.03385
1172.67715,0.03403
1170.74840,0.03444
1168.81966,0.03549
1166.89091,0.03687
1164.96217,0.03809
1163.03342,0.03906
1161.10467,0.03999
1159.17593,0.04084
1157.24718,0.04118
1155.31844,0.04103
1153.38969,0.04080
1151.46095,0.04053
1149.53220,0.03996
1147.60346,0.03915
1145.67471,0.03836
1143.74597,0.03769
1141.81722,0.03693
1139.88848,0.03588
1137.95973,0.03473
1136.03099,0.03384
1134.10224,0.03323
1132.17350,0.03303
1130.24475,0.03341
1128.31600,0.03416
1126.38726,0.03503
1124.45851,0.03590
1122.52977,0.03659
1120.60102,0.03715
1118.67228,0.03772
1116.74353,0.03825
1114.81479,0.03879
1112.88604,0.03936
1110.95730,0.03984
1109.02855,0.04037
1107.09981,0.04114
1105.17106,0.04182
1103.24232,0.04213
1101.31357,0.04224
1099.38483,0.04204
1097.45608,0.04140
1095.52733,0.04066
1093.59859,0.04028
1091.66984,0.04025
1089.74110,0.04033
1087.81235,0.04043
1085.88361,0.04048
1083.95486,0.04066
1082.02612,0.04144
1080.09737,0.04280
1078.16863,0.04417
1076.23988,0.04520
1074.31114,0.04602
1072.38239,0.04696
1070.45365,0.04827
1068.52490,0.04996
1066.59615,0.05187
1064.66741,0.05400
1062.73866,0.05650
1060.80992,0.05905
1058.88117,0.06118
1056.95243,0.06290
1055.02368,0.06411
1053.09494,0.06467
1051.16619,0.06493
1049.23745,0.06517
1047.30870,0.06551
1045.37996,0.06602
1043.45121,0.06654
1041.52247,0.06723
1039.59372,0.06837
1037.66498,0.06984
1035.73623,0.07114
1033.80748,0.07182
1031.87874,0.07195
1029.94999,0.07185
1028.02125,0.07143
1026.09250,0.07084
1024.16376,0.07057
1022.23501,0.07073
1020.30627,0.07102
1018.37752,0.07126
1016.44878,0.07135
1014.52003,0.07117
1012.59129,0.07070
1010.66254,0.07023
1008.73380,0.07000
1006.80505,0.07000
1004.87631,0.06993
1002.94756,0.06967
1001.01881,0.06951
999.09007,0.06961
997.16132,0.06990
995.23258,0.07025
993.30383,0.07074
991.37509,0.07142
989.44634,0.07218
987.51760,0.07305
985.58885,0.07400
983.66011,0.07492
981.73136,0.07587
979.80262,0.07685
977.87387,0.07751
975.94513,0.07771
974.01638,0.07793
972.08763,0.07850
970.15889,0.07910
968.23014,0.07953
966.30140,0.07997
964.37265,0.08080
962.44391,0.08213
960.51516,0.08354
958.58642,0.08466
956.65767,0.08565
954.72893,0.08681
952.80018,0.08818
950.87144,0.08932
948.94269,0.08985
947.01395,0.09006
945.08520,0.09027
943.15646,0.09029
941.22771,0.09010
939.29896,0.09002
937.37022,0.08991
935.44147,0.08940
933.51273,0.08890
931.58398,0.08869
929.65524,0.08834
927.72649,0.08783
925.79775,0.08738
923.86900,0.08683
921.94026,0.08612
920.01151,0.08553
918.08277,0.08525
916.15402,0.08501
914.22528,0.08447
912.29653,0.08367
910.36779,0.08284
908.43904,0.08191
906.51029,0.08071
904.58155,0.07940
902.65280,0.07846
900.72406,0.07796
898.79531,0.07761
896.86657,0.07765
894.93782,0.07854
893.00908,0.08018
891.08033,0.08204
889.15159,0.08371
887.22284,0.08510
885.29410,0.08606
883.36535,0.08654
881.43661,0.08664
879.50786,0.08631
877.57911,0.08567
875.65037,0.08528
873.72162,0.08532
871.79288,0.08545
869.86413,0.08550
867.93539,0.08546
866.00664,0.08540
864.07790,0.08555
862.14915,0.08588
860.22041,0.08610
858.29166,0.08587
856.36292,0.08523
854.43417,0.08453
852.50543,0.08386
850.57668,0.08322
848.64794,0.08279
846.71919,0.08251
844.79044,0.08196
842.86170,0.08106
840.93295,0.08032
839.00421,0.07990
837.07546,0.07961
835.14672,0.07946
833.21797,0.07960
831.28923,0.08013
829.36048,0.08083
827.43174,0.08130
825.50299,0.08164
823.57425,0.08216
821.64550,0.08281
819.71676,0.08317
817.78801,0.08301
815.85926,0.08267
813.93052,0.08269
812.00177,0.08318
810.07303,0.08365
808.14428,0.08348
806.21554,0.08293
804.28679,0.08278
802.35805,0.08302
800.42930,0.08297
798.50056,0.08260
796.57181,0.08247
794.64307,0.08260
792.71432,0.08269
790.78558,0.08275
788.85683,0.08252
786.92809,0.08177
784.99934,0.08101
783.07059,0.08052
781.14185,0.07993
779.21310,0.07906
777.28436,0.07823
775.35561,0.07784
773.42687,0.07761
771.49812,0.07710
769.56938,0.07647
767.64063,0.07600
765.71189,0.07563
763.78314,0.07521
761.85440,0.07479
759.92565,0.07439
757.99691,0.07372
756.06816,0.07289
754.13942,0.07236
752.21067,0.07222
750.28192,0.07205
748.35318,0.07149
746.42443,0.07068
744.49569,0.06977
742.56694,0.06864
740.63820,0.06787
738.70945,0.06800
736.78071,0.06817
734.85196,0.06765
732.92322,0.06695
730.99447,0.06644
729.06573,0.06611
727.13698,0.06595
725.20824,0.06576
723.27949,0.06539
721.35074,0.06473
719.42200,0.06410
717.49325,0.06406
715.56451,0.06440
713.63576,0.06459
711.70702,0.06457
709.77827,0.06469
707.84953,0.06498
705.92078,0.06486
703.99204,0.06425
702.06329,0.06365
700.13455,0.06324
698.20580,0.06292
696.27706,0.06292
694.34831,0.06292
692.41957,0.06240
690.49082,0.06192
688.56207,0.06161
686.63333,0.06100
684.70458,0.06028
682.77584,0.05985
680.84709,0.05963
678.91835,0.05930
676.98960,0.05902
675.06086,0.05909
673.13211,0.05890
671.20337,0.05834
669.27462,0.05843
667.34588,0.05929
665.41713,0.06018
663.48839,0.06049
661.55964,0.06018
659.63090,0.05978
657.70215,0.05956
655.77340,0.05961
653.84466,0.05971
651.91591,0.05910
649.98717,0.05824
648.05842,0.05805
646.12968,0.05821
644.20093,0.05804
642.27219,0.05765
640.34344,0.05722
638.41470,0.05650
636.48595,0.05626
634.55721,0.05701
632.62846,0.05754
630.69972,0.05751
628.77097,0.05757
626.84222,0.05747
624.91348,0.05709
622.98473,0.05706
621.05599,0.05791
619.12724,0.05902
617.19850,0.05911
615.26975,0.05848
613.34101,0.05863
611.41226,0.05956
609.48352,0.06018
607.55477,0.06005
605.62603,0.05973
603.69728,0.06011
601.76854,0.06103
599.83979,0.06157
