7497.03301,0.76518
7495.10426,0.76304
7493.17552,0.76397
7491.24677,0.76883
7489.31803,0.77259
7487.38928,0.76763
7485.46054,0.75746
7483.53179,0.75075
7481.60305,0.75014
7479.67430,0.75485
7477.74556,0.75983
7475.81681,0.75878
7473.88807,0.75446
7471.95932,0.75229
7470.03057,0.74926
7468.10183,0.74430
7466.17308,0.74250
7464.24434,0.74403
7462.31559,0.74641
7460.38685,0.74879
7458.45810,0.74831
7456.52936,0.74456
7454.60061,0.74143
7452.67187,0.73965
7450.74312,0.73744
7448.81438,0.73466
7446.88563,0.73306
7444.95689,0.73518
7443.02814,0.73972
7441.09940,0.74165
7439.17065,0.73880
7437.24190,0.73474
7435.31316,0.73193
7433.38441,0.72902
7431.45567,0.72627
7429.52692,0.72503
7427.59818,0.72678
7425.66943,0.73167
7423.74069,0.73524
7421.81194,0.73378
7419.88320,0.72949
7417.95445,0.72484
7416.02571,0.71968
7414.09696,0.71605
7412.16822,0.71569
7410.23947,0.71659
7408.31073,0.71790
7406.38198,0.72133
7404.45323,0.72496
7402.52449,0.72187
7400.59574,0.71217
7398.66700,0.70647
7396.73825,0.70892
7394.80951,0.71244
7392.88076,0.71303
7390.95202,0.71255
7389.02327,0.71184
7387.09453,0.71196
7385.16578,0.71315
7383.23704,0.71302
7381.30829,0.71115
7379.37955,0.71102
7377.45080,0.71374
7375.52205,0.71197
7373.59331,0.70242
7371.66456,0.69408
7369.73582,0.69308
7367.80707,0.69608
7365.87833,0.69766
7363.94958,0.69782
7362.02084,0.69908
7360.09209,0.69975
7358.16335,0.69905
7356.23460,0.69959
7354.30586,0.70119
7352.37711,0.70168
7350.44837,0.70113
7348.51962,0.69950
7346.59088,0.69627
7344.66213,0.69361
7342.73338,0.69343
7340.80464,0.69457
7338.87589,0.69561
7336.94715,0.69629
7335.01840,0.69545
7333.08966,0.69137
7331.16091,0.68564
7329.23217,0.68283
7327.30342,0.68480
7325.37468,0.68812
7323.44593,0.68878
7321.51719,0.68587
7319.58844,0.68227
7317.65970,0.68134
7315.73095,0.68269
7313.80221,0.68485
7311.87346,0.68544
7309.94471,0.68318
7308.01597,0.68162
7306.08722,0.68256
7304.15848,0.68284
7302.22973,0.68034
7300.30099,0.67839
7298.37224,0.68144
7296.44350,0.68566
7294.51475,0.68329
7292.58601,0.67621
7290.65726,0.67421
7288.72852,0.67945
7286.79977,0.68557
7284.87103,0.68949
7282.94228,0.69032
7281.01353,0.68547
7279.08479,0.67853
7277.15604,0.67786
7275.22730,0.68136
7273.29855,0.67956
7271.36981,0.67515
7269.44106,0.67645
7267.51232,0.67986
7265.58357,0.67995
7263.65483,0.68105
7261.72608,0.68498
7259.79734,0.68627
7257.86859,0.68304
7255.93985,0.67732
7254.01110,0.67133
7252.08236,0.66778
7250.15361,0.66597
7248.22486,0.66580
7246.29612,0.67021
7244.36737,0.67591
7242.43863,0.67679
7240.50988,0.67416
7238.58114,0.67272
7236.65239,0.67344
7234.72365,0.67309
7232.79490,0.67152
7230.86616,0.67209
7228.93741,0.67240
7227.00867,0.67060
7225.07992,0.66897
7223.15118,0.66680
7221.22243,0.66485
7219.29369,0.66597
7217.36494,0.66993
7215.43619,0.67431
7213.50745,0.67486
7211.57870,0.67063
7209.64996,0.66796
7207.72121,0.66945
7205.79247,0.66805
7203.86372,0.66069
7201.93498,0.65540
7200.00623,0.65536
7198.07749,0.65465
7196.14874,0.65275
7194.22000,0.65314
7192.29125,0.65539
7190.36251,0.65814
7188.43376,0.65896
7186.50501,0.65657
7184.57627,0.65313
7182.64752,0.64878
7180.71878,0.64356
7178.79003,0.64052
7176.86129,0.64113
7174.93254,0.64319
7173.00380,0.64364
7171.07505,0.64157
7169.14631,0.63856
7167.21756,0.63766
7165.28882,0.63994
7163.36007,0.64195
7161.43133,0.63950
7159.50258,0.63406
7157.57384,0.63075
7155.64509,0.62986
7153.71634,0.62938
7151.78760,0.62952
7149.85885,0.62770
7147.93011,0.62307
7146.00136,0.62144
7144.07262,0.62414
7142.14387,0.62543
7140.21513,0.62321
7138.28638,0.61908
7136.35764,0.61415
7134.42889,0.61145
7132.50015,0.61219
7130.57140,0.61229
7128.64266,0.60967
7126.71391,0.60659
7124.78516,0.60456
7122.85642,0.60388
7120.92767,0.60356
7118.99893,0.60195
7117.07018,0.60008
7115.14144,0.59851
7113.21269,0.59593
7111.28395,0.59358
7109.35520,0.59310
7107.42646,0.59307
7105.49771,0.59081
7103.56897,0.58575
7101.64022,0.58122
7099.71148,0.57995
7097.78273,0.57980
7095.85399,0.57910
7093.92524,0.57820
7091.99649,0.57451
7090.06775,0.56819
7088.13900,0.56486
7086.21026,0.56694
7084.28151,0.57006
7082.35277,0.56899
7080.42402,0.56505
7078.49528,0.56227
7076.56653,0.55958
7074.63779,0.55561
7072.70904,0.55368
7070.78030,0.55519
7068.85155,0.55664
7066.92281,0.55545
7064.99406,0.55101
7063.06532,0.54426
7061.13657,0.53901
7059.20782,0.53858
7057.27908,0.54211
7055.35033,0.54459
7053.42159,0.54270
7051.49284,0.53912
7049.56410,0.53716
7047.63535,0.53686
7045.70661,0.53649
7043.77786,0.53452
7041.84912,0.53298
7039.92037,0.53393
7037.99163,0.53407
7036.06288,0.53115
7034.13414,0.52642
7032.20539,0.52191
7030.27664,0.52045
7028.34790,0.52058
7026.41915,0.51876
7024.49041,0.51558
7022.56166,0.51354
7020.63292,0.51367
7018.70417,0.51320
7016.77543,0.50994
7014.84668,0.50682
7012.91794,0.50516
7010.98919,0.50340
7009.06045,0.50242
7007.13170,0.50194
7005.20296,0.49980
7003.27421,0.49829
7001.34547,0.50008
6999.41672,0.50197
6997.48797,0.50003
6995.55923,0.49498
6993.63048,0.49007
6991.70174,0.48771
6989.77299,0.48787
6987.84425,0.48827
6985.91550,0.48741
6983.98676,0.48671
6982.05801,0.48790
6980.12927,0.48908
6978.20052,0.48775
6976.27178,0.48605
6974.34303,0.48590
6972.41429,0.48582
6970.48554,0.48624
6968.55680,0.48826
6966.62805,0.48972
6964.69930,0.48879
6962.77056,0.48685
6960.84181,0.48547
6958.91307,0.48477
6956.98432,0.48409
6955.05558,0.48232
6953.12683,0.47885
6951.19809,0.47638
6949.26934,0.47777
6947.34060,0.48019
6945.41185,0.48101
6943.48311,0.48118
6941.55436,0.47978
6939.62562,0.47814
6937.69687,0.47920
6935.76812,0.48033
6933.83938,0.47842
6931.91063,0.47574
6929.98189,0.47604
6928.05314,0.47836
6926.12440,0.47914
6924.19565,0.47956
6922.26691,0.48146
6920.33816,0.48131
6918.40942,0.47728
6916.48067,0.47357
6914.55193,0.47345
6912.62318,0.47596
6910.69444,0.47878
6908.76569,0.47884
6906.83695,0.47519
6904.90820,0.47128
6902.97945,0.46954
6901.05071,0.46962
6899.12196,0.47069
6897.19322,0.47221
6895.26447,0.47410
6893.33573,0.47480
6891.40698,0.47308
6889.47824,0.47136
6887.54949,0.47271
6885.62075,0.47593
6883.69200,0.47702
6881.76326,0.47583
6879.83451,0.47519
6877.90577,0.47522
6875.97702,0.47479
6874.04828,0.47402
6872.11953,0.47342
6870.19078,0.47365
6868.26204,0.47471
6866.33329,0.47527
6864.40455,0.47515
6862.47580,0.47567
6860.54706,0.47608
6858.61831,0.47554
6856.68957,0.47543
6854.76082,0.47677
6852.83208,0.47854
6850.90333,0.47840
6848.97459,0.47593
6847.04584,0.47418
6845.11710,0.47473
6843.18835,0.47510
6841.25960,0.47424
6839.33086,0.47415
6837.40211,0.47522
6835.47337,0.47576
6833.54462,0.47406
6831.61588,0.47100
6829.68713,0.46953
6827.75839,0.46963
6825.82964,0.47046
6823.90090,0.47351
6821.97215,0.47670
6820.04341,0.47497
6818.11466,0.47033
6816.18592,0.46875
6814.25717,0.46984
6812.32843,0.47027
6810.39968,0.47007
6808.47093,0.46940
6806.54219,0.46726
6804.61344,0.46621
6802.68470,0.46878
6800.75595,0.47143
6798.82721,0.47223
6796.89846,0.47330
6794.96972,0.47318
6793.04097,0.47094
6791.11223,0.47064
6789.18348,0.47333
6787.25474,0.47477
6785.32599,0.47344
6783.39725,0.47135
6781.46850,0.47069
6779.53975,0.47255
6777.61101,0.47389
6775.68226,0.47220
6773.75352,0.46977
6771.82477,0.46796
6769.89603,0.46702
6767.96728,0.46898
6766.03854,0.47375
6764.10979,0.47756
6762.18105,0.47759
6760.25230,0.47556
6758.32356,0.47384
6756.39481,0.47285
6754.46607,0.47404
6752.53732,0.47607
6750.60858,0.47500
6748.67983,0.47220
6746.75108,0.47055
6744.82234,0.47056
6742.89359,0.47290
6740.96485,0.47613
6739.03610,0.47721
6737.10736,0.47574
6735.17861,0.47412
6733.24987,0.47424
6731.32112,0.47545
6729.39238,0.47518
6727.46363,0.47351
6725.53489,0.47368
6723.60614,0.47590
6721.67740,0.47773
6719.74865,0.47818
6717.81991,0.47758
6715.89116,0.47690
6713.96241,0.47655
6712.03367,0.47654
6710.10492,0.47713
6708.17618,0.47873
6706.24743,0.48103
6704.31869,0.48212
6702.38994,0.48224
6700.46120,0.48406
6698.53245,0.48593
6696.60371,0.48490
6694.67496,0.48328
6692.74622,0.48300
6690.81747,0.48224
6688.88873,0.48058
6686.95998,0.47911
6685.03123,0.47852
6683.10249,0.48004
6681.17374,0.48321
6679.24500,0.48502
6677.31625,0.48465
6675.38751,0.48413
6673.45876,0.48408
6671.53002,0.48299
6669.60127,0.48071
6667.67253,0.48025
6665.74378,0.48316
6663.81504,0.48604
6661.88629,0.48592
6659.95755,0.48457
6658.02880,0.48478
6656.10006,0.48691
6654.17131,0.48821
6652.24256,0.48655
6650.31382,0.48519
6648.38507,0.48671
6646.45633,0.48843
6644.52758,0.48826
6642.59884,0.48750
6640.67009,0.48706
6638.74135,0.48649
6636.81260,0.48683
6634.88386,0.48786
6632.95511,0.48738
6631.02637,0.48642
6629.09762,0.48741
6627.16888,0.48946
6625.24013,0.49008
6623.31139,0.48970
6621.38264,0.49037
6619.45389,0.49225
6617.52515,0.49427
6615.59640,0.49543
6613.66766,0.49542
6611.73891,0.49502
6609.81017,0.49537
6607.88142,0.49585
6605.95268,0.49526
6604.02393,0.49455
6602.09519,0.49432
6600.16644,0.49543
6598.23770,0.49939
6596.30895,0.50282
6594.38021,0.50128
6592.45146,0.49724
6590.52271,0.49581
6588.59397,0.49761
6586.66522,0.49900
6584.73648,0.49757
6582.80773,0.49551
6580.87899,0.49453
6578.95024,0.49433
6577.02150,0.49633
6575.09275,0.50053
6573.16401,0.50337
6571.23526,0.50273
6569.30652,0.50079
6567.37777,0.50055
6565.44903,0.50215
6563.52028,0.50386
6561.59154,0.50392
6559.66279,0.50239
6557.73404,0.50171
6555.80530,0.50295
6553.87655,0.50503
6551.94781,0.50681
6550.01906,0.50690
6548.09032,0.50552
6546.16157,0.50442
6544.23283,0.50428
6542.30408,0.50505
6540.37534,0.50603
6538.44659,0.50604
6536.51785,0.50554
6534.58910,0.50499
6532.66036,0.50394
6530.73161,0.50459
6528.80287,0.50778
6526.87412,0.50924
6524.94537,0.50837
6523.01663,0.50892
6521.08788,0.51123
6519.15914,0.51236
6517.23039,0.51056
6515.30165,0.50804
6513.37290,0.50703
6511.44416,0.50699
6509.51541,0.50807
6507.58667,0.50984
6505.65792,0.51018
6503.72918,0.50959
6501.80043,0.51071
6499.87169,0.51336
6497.94294,0.51487
6496.01419,0.51466
6494.08545,0.51438
6492.15670,0.51407
6490.22796,0.51283
6488.29921,0.51194
6486.37047,0.51253
6484.44172,0.51366
6482.51298,0.51380
6480.58423,0.51301
6478.65549,0.51325
6476.72674,0.51472
6474.79800,0.51563
6472.86925,0.51554
6470.94051,0.51515
6469.01176,0.51481
6467.08302,0.51480
6465.15427,0.51560
6463.22552,0.51684
6461.29678,0.51773
6459.36803,0.51784
6457.43929,0.51691
6455.51054,0.51558
6453.58180,0.51456
6451.65305,0.51393
6449.72431,0.51398
6447.79556,0.51438
6445.86682,0.51523
6443.93807,0.51689
6442.00933,0.51758
6440.08058,0.51710
6438.15184,0.51743
6436.22309,0.51819
6434.29434,0.51817
6432.36560,0.51786
6430.43685,0.51769
6428.50811,0.51765
6426.57936,0.51790
6424.65062,0.51736
6422.72187,0.51597
6420.79313,0.51607
6418.86438,0.51708
6416.93564,0.51719
6415.00689,0.51691
6413.07815,0.51662
6411.14940,0.51734
6409.22066,0.51907
6407.29191,0.51992
6405.36317,0.52031
6403.43442,0.52069
6401.50567,0.52015
6399.57693,0.51947
6397.64818,0.51895
6395.71944,0.51839
6393.79069,0.51890
6391.86195,0.52032
6389.93320,0.52087
6388.00446,0.51992
6386.07571,0.51874
6384.14697,0.51857
6382.21822,0.52006
6380.28948,0.52228
6378.36073,0.52289
6376.43199,0.52272
6374.50324,0.52340
6372.57450,0.52397
6370.64575,0.52378
6368.71700,0.52266
6366.78826,0.52183
6364.85951,0.52253
6362.93077,0.52292
6361.00202,0.52240
6359.07328,0.52251
6357.14453,0.52246
6355.21579,0.52185
6353.28704,0.52230
6351.35830,0.52344
6349.42955,0.52429
6347.50081,0.52470
6345.57206,0.52386
6343.64332,0.52228
6341.71457,0.52192
6339.78582,0.52287
6337.85708,0.52336
6335.92833,0.52318
6333.99959,0.52376
6332.07084,0.52539
6330.14210,0.52777
6328.21335,0.52945
6326.28461,0.52826
6324.35586,0.52604
6322.42712,0.52543
6320.49837,0.52532
6318.56963,0.52505
6316.64088,0.52454
6314.71214,0.52324
6312.78339,0.52317
6310.85465,0.52649
6308.92590,0.53122
6306.99715,0.53330
6305.06841,0.53210
6303.13966,0.53081
6301.21092,0.53076
6299.28217,0.53037
6297.35343,0.52982
6295.42468,0.53053
6293.49594,0.53172
6291.56719,0.53269
6289.63845,0.53377
6287.70970,0.53386
6285.78096,0.53198
6283.85221,0.53020
6281.92347,0.53131
6279.99472,0.53403
6278.06598,0.53555
6276.13723,0.53585
6274.20848,0.53552
6272.27974,0.53511
6270.35099,0.53547
6268.42225,0.53654
6266.49350,0.53798
6264.56476,0.53948
6262.63601,0.54043
6260.70727,0.54023
6258.77852,0.53900
6256.84978,0.53812
6254.92103,0.53894
6252.99229,0.54123
6251.06354,0.54295
6249.13480,0.54165
6247.20605,0.53830
6245.27730,0.53728
6243.34856,0.53990
6241.41981,0.54348
6239.49107,0.54531
6237.56232,0.54485
6235.63358,0.54508
6233.70483,0.54698
6231.77609,0.54704
6229.84734,0.54546
6227.91860,0.54548
6225.98985,0.54645
6224.06111,0.54686
6222.13236,0.54710
6220.20362,0.54792
6218.27487,0.54989
6216.34613,0.55203
6214.41738,0.55289
6212.48863,0.55296
6210.55989,0.55300
6208.63114,0.55320
6206.70240,0.55409
6204.77365,0.55560
6202.84491,0.55702
6200.91616,0.55760
6198.98742,0.55702
6197.05867,0.55639
6195.12993,0.55700
6193.20118,0.55782
6191.27244,0.55729
6189.34369,0.55651
6187.41495,0.55734
6185.48620,0.55904
6183.55746,0.55986
6181.62871,0.55966
6179.69996,0.55957
6177.77122,0.56007
6175.84247,0.56057
6173.91373,0.56047
6171.98498,0.56057
6170.05624,0.56118
6168.12749,0.56087
6166.19875,0.56031
6164.27000,0.56111
6162.34126,0.56216
6160.41251,0.56288
6158.48377,0.56441
6156.55502,0.56655
6154.62628,0.56868
6152.69753,0.57081
6150.76878,0.57183
6148.84004,0.57091
6146.91129,0.56923
6144.98255,0.56797
6143.05380,0.56750
6141.12506,0.56778
6139.19631,0.56865
6137.26757,0.57009
6135.33882,0.57085
6133.41008,0.56973
6131.48133,0.56879
6129.55259,0.56973
6127.62384,0.57061
6125.69510,0.57141
6123.76635,0.57386
6121.83761,0.57613
6119.90886,0.57591
6117.98011,0.57364
6116.05137,0.57167
6114.12262,0.57181
6112.19388,0.57262
6110.26513,0.57254
6108.33639,0.57208
6106.40764,0.57165
6104.47890,0.57189
6102.55015,0.57308
6100.62141,0.57373
6098.69266,0.57302
6096.76392,0.57264
6094.83517,0.57330
6092.90643,0.57330
6090.97768,0.57266
6089.04893,0.57265
6087.12019,0.57275
6085.19144,0.57227
6083.26270,0.57157
6081.33395,0.57076
6079.40521,0.57026
6077.47646,0.57170
6075.54772,0.57429
6073.61897,0.57428
6071.69023,0.57206
6069.76148,0.57126
6067.83274,0.57204
6065.90399,0.57188
6063.97525,0.57026
6062.04650,0.56920
6060.11776,0.56948
6058.18901,0.56977
6056.26026,0.56959
6054.33152,0.56963
6052.40277,0.56968
6050.47403,0.56967
6048.54528,0.57027
6046.61654,0.57063
6044.68779,0.56939
6042.75905,0.56712
6040.83030,0.56573
6038.90156,0.56586
6036.97281,0.56611
6035.04407,0.56560
6033.11532,0.56491
6031.18658,0.56479
6029.25783,0.56493
6027.32909,0.56406
6025.40034,0.56268
6023.47159,0.56298
6021.54285,0.56490
6019.61410,0.56554
6017.68536,0.56368
6015.75661,0.56174
6013.82787,0.56098
6011.89912,0.56007
6009.97038,0.55902
6008.04163,0.55881
6006.11289,0.55898
6004.18414,0.55872
6002.25540,0.55815
6000.32665,0.55757
5998.39791,0.55675
5996.46916,0.55562
5994.54041,0.55462
5992.61167,0.55423
5990.68292,0.55474
5988.75418,0.55550
5986.82543,0.55566
5984.89669,0.55541
5982.96794,0.55511
5981.03920,0.55462
5979.11045,0.55379
5977.18171,0.55276
5975.25296,0.55169
5973.32422,0.55060
5971.39547,0.54975
5969.46673,0.54970
5967.53798,0.55064
5965.60924,0.55139
5963.68049,0.55060
5961.75174,0.54880
5959.82300,0.54757
5957.89425,0.54742
5955.96551,0.54781
5954.03676,0.54841
5952.10802,0.54875
5950.17927,0.54856
5948.25053,0.54877
5946.32178,0.54952
5944.39304,0.54947
5942.46429,0.54877
5940.53555,0.54836
5938.60680,0.54811
5936.67806,0.54829
5934.74931,0.54860
5932.82057,0.54799
5930.89182,0.54725
5928.96307,0.54740
5927.03433,0.54795
5925.10558,0.54800
5923.17684,0.54743
5921.24809,0.54672
5919.31935,0.54596
5917.39060,0.54540
5915.46186,0.54531
5913.53311,0.54505
5911.60437,0.54443
5909.67562,0.54442
5907.74688,0.54512
5905.81813,0.54514
5903.88939,0.54413
5901.96064,0.54352
5900.03189,0.54401
5898.10315,0.54421
5896.17440,0.54354
5894.24566,0.54329
5892.31691,0.54374
5890.38817,0.54413
5888.45942,0.54418
5886.53068,0.54366
5884.60193,0.54274
5882.67319,0.54243
5880.74444,0.54360
5878.81570,0.54589
5876.88695,0.54718
5874.95821,0.54598
5873.02946,0.54438
5871.10072,0.54386
5869.17197,0.54310
5867.24322,0.54255
5865.31448,0.54334
5863.38573,0.54411
5861.45699,0.54360
5859.52824,0.54192
5857.59950,0.54033
5855.67075,0.54066
5853.74201,0.54294
5851.81326,0.54486
5849.88452,0.54474
5847.95577,0.54334
5846.02703,0.54235
5844.09828,0.54167
5842.16954,0.54047
5840.24079,0.53973
5838.31205,0.53968
5836.38330,0.53911
5834.45455,0.53844
5832.52581,0.53814
5830.59706,0.53731
5828.66832,0.53560
5826.73957,0.53416
5824.81083,0.53400
5822.88208,0.53429
5820.95334,0.53392
5819.02459,0.53295
5817.09585,0.53222
5815.16710,0.53216
5813.23836,0.53210
5811.30961,0.53200
5809.38087,0.53264
5807.45212,0.53344
5805.52337,0.53335
5803.59463,0.53267
5801.66588,0.53235
5799.73714,0.53250
5797.80839,0.53247
5795.87965,0.53254
5793.95090,0.53320
5792.02216,0.53380
5790.09341,0.53387
5788.16467,0.53418
5786.23592,0.53520
5784.30718,0.53602
5782.37843,0.53615
5780.44969,0.53606
5778.52094,0.53611
5776.59220,0.53628
5774.66345,0.53648
5772.73470,0.53701
5770.80596,0.53797
5768.87721,0.53880
5766.94847,0.53948
5765.01972,0.54030
5763.09098,0.54092
5761.16223,0.54093
5759.23349,0.54083
5757.30474,0.54102
5755.37600,0.54094
5753.44725,0.54047
5751.51851,0.54062
5749.58976,0.54166
5747.66102,0.54257
5745.73227,0.54281
5743.80352,0.54274
5741.87478,0.54263
5739.94603,0.54239
5738.01729,0.54263
5736.08854,0.54332
5734.15980,0.54309
5732.23105,0.54189
5730.30231,0.54129
5728.37356,0.54204
5726.44482,0.54297
5724.51607,0.54258
5722.58733,0.54160
5720.65858,0.54170
5718.72984,0.54266
5716.80109,0.54300
5714.87235,0.54248
5712.94360,0.54166
5711.01485,0.54101
5709.08611,0.54101
5707.15736,0.54135
5705.22862,0.54158
5703.29987,0.54176
5701.37113,0.54186
5699.44238,0.54165
5697.51364,0.54067
5695.58489,0.53925
5693.65615,0.53892
5691.72740,0.53992
5689.79866,0.54044
5687.86991,0.53953
5685.94117,0.53839
5684.01242,0.53812
5682.08368,0.53811
5680.15493,0.53783
5678.22618,0.53824
5676.29744,0.53938
5674.36869,0.53982
5672.43995,0.53891
5670.51120,0.53759
5668.58246,0.53698
5666.65371,0.53679
5664.72497,0.53655
5662.79622,0.53630
5660.86748,0.53598
5658.93873,0.53612
5657.00999,0.53639
5655.08124,0.53604
5653.15250,0.53552
5651.22375,0.53529
5649.29500,0.53563
5647.36626,0.53632
5645.43751,0.53626
5643.50877,0.53527
5641.58002,0.53402
5639.65128,0.53315
5637.72253,0.53295
5635.79379,0.53356
5633.86504,0.53486
5631.93630,0.53527
5630.00755,0.53415
5628.07881,0.53357
5626.15006,0.53409
5624.22132,0.53411
5622.29257,0.53360
5620.36383,0.53328
5618.43508,0.53299
5616.50633,0.53325
5614.57759,0.53438
5612.64884,0.53516
5610.72010,0.53508
5608.79135,0.53521
5606.86261,0.53559
5604.93386,0.53513
5603.00512,0.53419
5601.07637,0.53365
5599.14763,0.53312
5597.21888,0.53260
5595.29014,0.53326
5593.36139,0.53515
5591.43265,0.53667
5589.50390,0.53701
5587.57516,0.53666
5585.64641,0.53563
5583.71766,0.53445
5581.78892,0.53430
5579.86017,0.53507
5577.93143,0.53626
5576.00268,0.53717
5574.07394,0.53671
5572.14519,0.53590
5570.21645,0.53649
5568.28770,0.53748
5566.35896,0.53752
5564.43021,0.53717
5562.50147,0.53731
5560.57272,0.53819
5558.64398,0.53926
5556.71523,0.54012
5554.78648,0.54113
5552.85774,0.54179
5550.92899,0.54149
5549.00025,0.54090
5547.07150,0.54063
5545.14276,0.54067
5543.21401,0.54071
5541.28527,0.54013
5539.35652,0.53935
5537.42778,0.53967
5535.49903,0.54069
5533.57029,0.54113
5531.64154,0.54122
5529.71280,0.54182
5527.78405,0.54293
5525.85531,0.54367
5523.92656,0.54382
5521.99781,0.54413
5520.06907,0.54479
5518.14032,0.54518
5516.21158,0.54469
5514.28283,0.54364
5512.35409,0.54324
5510.42534,0.54357
5508.49660,0.54367
5506.56785,0.54360
5504.63911,0.54345
5502.71036,0.54288
5500.78162,0.54281
5498.85287,0.54368
5496.92413,0.54454
5494.99538,0.54492
5493.06664,0.54470
5491.13789,0.54442
5489.20914,0.54458
5487.28040,0.54461
5485.35165,0.54445
5483.42291,0.54452
5481.49416,0.54485
5479.56542,0.54545
5477.63667,0.54588
5475.70793,0.54603
5473.77918,0.54632
5471.85044,0.54654
5469.92169,0.54661
5467.99295,0.54681
5466.06420,0.54716
5464.13546,0.54809
5462.20671,0.54919
5460.27796,0.54935
5458.34922,0.54930
5456.42047,0.54983
5454.49173,0.55010
5452.56298,0.54984
5450.63424,0.54993
5448.70549,0.55071
5446.77675,0.55143
5444.84800,0.55168
5442.91926,0.55185
5440.99051,0.55231
5439.06177,0.55306
5437.13302,0.55384
5435.20428,0.55443
5433.27553,0.55483
5431.34679,0.55504
5429.41804,0.55531
5427.48929,0.55602
5425.56055,0.55647
5423.63180,0.55616
5421.70306,0.55618
5419.77431,0.55722
5417.84557,0.55836
5415.91682,0.55891
5413.98808,0.55913
5412.05933,0.55931
5410.13059,0.55985
5408.20184,0.56063
5406.27310,0.56079
5404.34435,0.56033
5402.41561,0.55958
5400.48686,0.55873
5398.55811,0.55871
5396.62937,0.55994
5394.70062,0.56099
5392.77188,0.56059
5390.84313,0.55953
5388.91439,0.55887
5386.98564,0.55867
5385.05690,0.55860
5383.12815,0.55850
5381.19941,0.55826
5379.27066,0.55789
5377.34192,0.55772
5375.41317,0.55763
5373.48443,0.55714
5371.55568,0.55634
5369.62694,0.55574
5367.69819,0.55549
5365.76944,0.55511
5363.84070,0.55439
5361.91195,0.55408
5359.98321,0.55468
5358.05446,0.55547
5356.12572,0.55531
5354.19697,0.55402
5352.26823,0.55259
5350.33948,0.55206
5348.41074,0.55224
5346.48199,0.55205
5344.55325,0.55102
5342.62450,0.54954
5340.69576,0.54825
5338.76701,0.54717
5336.83827,0.54554
5334.90952,0.54327
5332.98077,0.54123
5331.05203,0.53976
5329.12328,0.53872
5327.19454,0.53774
5325.26579,0.53624
5323.33705,0.53429
5321.40830,0.53209
5319.47956,0.52969
5317.55081,0.52742
5315.62207,0.52541
5313.69332,0.52345
5311.76458,0.52121
5309.83583,0.51863
5307.90709,0.51600
5305.97834,0.51338
5304.04959,0.51049
5302.12085,0.50713
5300.19210,0.50333
5298.26336,0.49904
5296.33461,0.49424
5294.40587,0.48946
5292.47712,0.48540
5290.54838,0.48195
5288.61963,0.47826
5286.69089,0.47412
5284.76214,0.46960
5282.83340,0.46441
5280.90465,0.45896
5278.97591,0.45404
5277.04716,0.44969
5275.11842,0.44516
5273.18967,0.44028
5271.26092,0.43568
5269.33218,0.43134
5267.40343,0.42679
5265.47469,0.42195
5263.54594,0.41684
5261.61720,0.41168
5259.68845,0.40723
5257.75971,0.40348
5255.83096,0.39970
5253.90222,0.39539
5251.97347,0.39083
5250.04473,0.38731
5248.11598,0.38497
5246.18724,0.38170
5244.25849,0.37709
5242.32975,0.37326
5240.40100,0.37080
5238.47225,0.36854
5236.54351,0.36606
5234.61476,0.36350
5232.68602,0.36103
5230.75727,0.35926
5228.82853,0.35827
5226.89978,0.35737
5224.97104,0.35608
5223.04229,0.35447
5221.11355,0.35277
5219.18480,0.35127
5217.25606,0.35011
5215.32731,0.34885
5213.39857,0.34727
5211.46982,0.34608
5209.54107,0.34552
5207.61233,0.34517
5205.68358,0.34510
5203.75484,0.34508
5201.82609,0.34473
5199.89735,0.34440
5197.96860,0.34429
5196.03986,0.34450
5194.11111,0.34472
5192.18237,0.34431
5190.25362,0.34398
5188.32488,0.34442
5186.39613,0.34490
5184.46739,0.34535
5182.53864,0.34616
5180.60990,0.34689
5178.68115,0.34736
5176.75240,0.34792
5174.82366,0.34873
5172.89491,0.34963
5170.96617,0.35024
5169.03742,0.35065
5167.10868,0.35130
5165.17993,0.35224
5163.25119,0.35332
5161.32244,0.35415
5159.39370,0.35442
5157.46495,0.35495
5155.53621,0.35658
5153.60746,0.35867
5151.67872,0.36009
5149.74997,0.36051
5147.82123,0.36081
5145.89248,0.36170
5143.96373,0.36272
5142.03499,0.36387
5140.10624,0.36534
5138.17750,0.36648
5136.24875,0.36747
5134.32001,0.36916
5132.39126,0.37112
5130.46252,0.37238
5128.53377,0.37326
5126.60503,0.37447
5124.67628,0.37616
5122.74754,0.37793
5120.81879,0.37887
5118.89005,0.37923
5116.96130,0.38032
5115.03255,0.38219
5113.10381,0.38402
5111.17506,0.38549
5109.24632,0.38644
5107.31757,0.38706
5105.38883,0.38786
5103.46008,0.38885
5101.53134,0.39004
5099.60259,0.39146
5097.67385,0.39254
5095.74510,0.39317
5093.81636,0.39411
5091.88761,0.39555
5089.95887,0.39706
5088.03012,0.39812
5086.10138,0.39845
5084.17263,0.39897
5082.24388,0.40085
5080.31514,0.40359
5078.38639,0.40581
5076.45765,0.40661
5074.52890,0.40642
5072.60016,0.40657
5070.67141,0.40740
5068.74267,0.40835
5066.81392,0.40934
5064.88518,0.41057
5062.95643,0.41201
5061.02769,0.41381
5059.09894,0.41567
5057.17020,0.41666
5055.24145,0.41695
5053.31270,0.41784
5051.38396,0.41957
5049.45521,0.42092
5047.52647,0.42157
5045.59772,0.42234
5043.66898,0.42360
5041.74023,0.42497
5039.81149,0.42607
5037.88274,0.42697
5035.95400,0.42790
5034.02525,0.42891
5032.09651,0.43000
5030.16776,0.43092
5028.23902,0.43152
5026.31027,0.43202
5024.38153,0.43273
5022.45278,0.43345
5020.52403,0.43373
5018.59529,0.43390
5016.66654,0.43480
5014.73780,0.43616
5012.80905,0.43707
5010.88031,0.43751
5008.95156,0.43792
5007.02282,0.43862
5005.09407,0.43946
5003.16533,0.44001
5001.23658,0.44052
4999.30784,0.44109
4997.37909,0.44097
4995.45035,0.44012
4993.52160,0.43967
4991.59286,0.44011
4989.66411,0.44074
4987.73536,0.44087
4985.80662,0.44082
4983.87787,0.44106
4981.94913,0.44120
4980.02038,0.44112
4978.09164,0.44139
4976.16289,0.44199
4974.23415,0.44202
4972.30540,0.44106
4970.37666,0.43978
4968.44791,0.43880
4966.51917,0.43823
4964.59042,0.43789
4962.66168,0.43734
4960.73293,0.43665
4958.80418,0.43591
4956.87544,0.43484
4954.94669,0.43384
4953.01795,0.43312
4951.08920,0.43222
4949.16046,0.43116
4947.23171,0.43010
4945.30297,0.42896
4943.37422,0.42775
4941.44548,0.42642
4939.51673,0.42484
4937.58799,0.42326
4935.65924,0.42208
4933.73050,0.42120
4931.80175,0.42014
4929.87301,0.41850
4927.94426,0.41658
4926.01551,0.41509
4924.08677,0.41387
4922.15802,0.41232
4920.22928,0.41031
4918.30053,0.40812
4916.37179,0.40644
4914.44304,0.40528
4912.51430,0.40382
4910.58555,0.40201
4908.65681,0.40034
4906.72806,0.39888
4904.79932,0.39728
4902.87057,0.39548
4900.94183,0.39385
4899.01308,0.39232
4897.08434,0.39051
4895.15559,0.38853
4893.22684,0.38675
4891.29810,0.38534
4889.36935,0.38423
4887.44061,0.38299
4885.51186,0.38123
4883.58312,0.37925
4881.65437,0.37730
4879.72563,0.37524
4877.79688,0.37347
4875.86814,0.37257
4873.93939,0.37190
4872.01065,0.37070
4870.08190,0.36932
4868.15316,0.36792
4866.22441,0.36641
4864.29566,0.36524
4862.36692,0.36442
4860.43817,0.36335
4858.50943,0.36195
4856.58068,0.36044
4854.65194,0.35891
4852.72319,0.35763
4850.79445,0.35663
4848.86570,0.35568
4846.93696,0.35468
4845.00821,0.35358
4843.07947,0.35233
4841.15072,0.35073
4839.22198,0.34877
4837.29323,0.34719
4835.36449,0.34656
4833.43574,0.34630
4831.50699,0.34553
4829.57825,0.34458
4827.64950,0.34397
4825.72076,0.34336
4823.79201,0.34247
4821.86327,0.34153
4819.93452,0.34050
4818.00578,0.33939
4816.07703,0.33852
4814.14829,0.33799
4812.21954,0.33773
4810.29080,0.33740
4808.36205,0.33673
4806.43331,0.33599
4804.50456,0.33542
4802.57582,0.33506
4800.64707,0.33467
4798.71832,0.33397
4796.78958,0.33320
4794.86083,0.33292
4792.93209,0.33327
4791.00334,0.33344
4789.07460,0.33281
4787.14585,0.33218
4785.21711,0.33201
4783.28836,0.33171
4781.35962,0.33119
4779.43087,0.33085
4777.50213,0.33057
4775.57338,0.33011
4773.64464,0.32970
4771.71589,0.32957
4769.78714,0.32925
4767.85840,0.32862
4765.92965,0.32839
4764.00091,0.32856
4762.07216,0.32889
4760.14342,0.32951
4758.21467,0.32985
4756.28593,0.32957
4754.35718,0.32910
4752.42844,0.32872
4750.49969,0.32862
4748.57095,0.32869
4746.64220,0.32860
4744.71346,0.32851
4742.78471,0.32860
4740.85597,0.32867
4738.92722,0.32868
4736.99847,0.32872
4735.06973,0.32861
4733.14098,0.32853
4731.21224,0.32892
4729.28349,0.32925
4727.35475,0.32885
4725.42600,0.32832
4723.49726,0.32841
4721.56851,0.32879
4719.63977,0.32890
4717.71102,0.32900
4715.78228,0.32935
4713.85353,0.32990
4711.92479,0.33059
4709.99604,0.33094
4708.06729,0.33082
4706.13855,0.33097
4704.20980,0.33150
4702.28106,0.33167
4700.35231,0.33128
4698.42357,0.33097
4696.49482,0.33122
4694.56608,0.33172
4692.63733,0.33187
4690.70859,0.33186
4688.77984,0.33232
4686.85110,0.33324
4684.92235,0.33434
4682.99361,0.33520
4681.06486,0.33546
4679.13612,0.33566
4677.20737,0.33617
4675.27862,0.33669
4673.34988,0.33717
4671.42113,0.33771
4669.49239,0.33854
4667.56364,0.33979
4665.63490,0.34108
4663.70615,0.34207
4661.77741,0.34308
4659.84866,0.34429
4657.91992,0.34519
4655.99117,0.34564
4654.06243,0.34603
4652.13368,0.34659
4650.20494,0.34730
4648.27619,0.34784
4646.34745,0.34801
4644.41870,0.34848
4642.48995,0.34960
4640.56121,0.35066
4638.63246,0.35114
4636.70372,0.35149
4634.77497,0.35254
4632.84623,0.35410
4630.91748,0.35488
4628.98874,0.35480
4627.05999,0.35512
4625.13125,0.35625
4623.20250,0.35750
4621.27376,0.35832
4619.34501,0.35895
4617.41627,0.35990
4615.48752,0.36100
4613.55877,0.36174
4611.63003,0.36205
4609.70128,0.36233
4607.77254,0.36303
4605.84379,0.36392
4603.91505,0.36458
4601.98630,0.36529
4600.05756,0.36601
4598.12881,0.36636
4596.20007,0.36677
4594.27132,0.36747
4592.34258,0.36810
4590.41383,0.36866
4588.48509,0.36930
4586.55634,0.36981
4584.62760,0.37003
4582.69885,0.37032
4580.77010,0.37088
4578.84136,0.37145
4576.91261,0.37190
4574.98387,0.37237
4573.05512,0.37324
4571.12638,0.37429
4569.19763,0.37474
4567.26889,0.37501
4565.34014,0.37589
4563.41140,0.37689
4561.48265,0.37715
4559.55391,0.37674
4557.62516,0.37649
4555.69642,0.37690
4553.76767,0.37753
4551.83893,0.37788
4549.91018,0.37811
4547.98143,0.37862
4546.05269,0.37925
4544.12394,0.37952
4542.19520,0.37963
4540.26645,0.38028
4538.33771,0.38121
4536.40896,0.38157
4534.48022,0.38134
4532.55147,0.38103
4530.62273,0.38121
4528.69398,0.38177
4526.76524,0.38210
4524.83649,0.38216
4522.90775,0.38222
4520.97900,0.38239
4519.05025,0.38257
4517.12151,0.38253
4515.19276,0.38223
4513.26402,0.38168
4511.33527,0.38098
4509.40653,0.38068
4507.47778,0.38089
4505.54904,0.38067
4503.62029,0.37964
4501.69155,0.37863
4499.76280,0.37822
4497.83406,0.37809
4495.90531,0.37743
4493.97657,0.37590
4492.04782,0.37397
4490.11908,0.37205
4488.19033,0.37043
4486.26158,0.36899
4484.33284,0.36740
4482.40409,0.36583
4480.47535,0.36435
4478.54660,0.36267
4476.61786,0.36058
4474.68911,0.35806
4472.76037,0.35523
4470.83162,0.35239
4468.90288,0.34973
4466.97413,0.34704
4465.04539,0.34411
4463.11664,0.34104
4461.18790,0.33841
4459.25915,0.33653
4457.33041,0.33481
4455.40166,0.33283
4453.47291,0.33054
4451.54417,0.32793
4449.61542,0.32526
4447.68668,0.32286
4445.75793,0.32075
4443.82919,0.31857
4441.90044,0.31621
4439.97170,0.31399
4438.04295,0.31204
4436.11421,0.31013
4434.18546,0.30832
4432.25672,0.30678
4430.32797,0.30520
4428.39923,0.30344
4426.47048,0.30179
4424.54173,0.30026
4422.61299,0.29888
4420.68424,0.29791
4418.75550,0.29715
4416.82675,0.29622
4414.89801,0.29522
4412.96926,0.29430
4411.04052,0.29369
4409.11177,0.29352
4407.18303,0.29336
4405.25428,0.29310
4403.32554,0.29296
4401.39679,0.29256
4399.46805,0.29180
4397.53930,0.29134
4395.61056,0.29143
4393.68181,0.29164
4391.75306,0.29180
4389.82432,0.29204
4387.89557,0.29213
4385.96683,0.29217
4384.03808,0.29262
4382.10934,0.29321
4380.18059,0.29365
4378.25185,0.29446
4376.32310,0.29554
4374.39436,0.29637
4372.46561,0.29682
4370.53687,0.29718
4368.60812,0.29794
4366.67938,0.29907
4364.75063,0.30014
4362.82189,0.30071
4360.89314,0.30051
4358.96439,0.29991
4357.03565,0.29943
4355.10690,0.29904
4353.17816,0.29870
4351.24941,0.29867
4349.32067,0.29853
4347.39192,0.29763
4345.46318,0.29668
4343.53443,0.29648
4341.60569,0.29652
4339.67694,0.29613
4337.74820,0.29539
4335.81945,0.29463
4333.89071,0.29377
4331.96196,0.29272
4330.03321,0.29173
4328.10447,0.29105
4326.17572,0.29067
4324.24698,0.29016
4322.31823,0.28922
4320.38949,0.28813
4318.46074,0.28712
4316.53200,0.28638
4314.60325,0.28599
4312.67451,0.28563
4310.74576,0.28502
4308.81702,0.28419
4306.88827,0.28344
4304.95953,0.28297
4303.03078,0.28254
4301.10204,0.28185
4299.17329,0.28107
4297.24454,0.28057
4295.31580,0.28045
4293.38705,0.28041
4291.45831,0.28004
4289.52956,0.27939
4287.60082,0.27877
4285.67207,0.27843
4283.74333,0.27859
4281.81458,0.27908
4279.88584,0.27930
4277.95709,0.27912
4276.02835,0.27925
4274.09960,0.28004
4272.17086,0.28074
4270.24211,0.28081
4268.31336,0.28076
4266.38462,0.28117
4264.45587,0.28183
4262.52713,0.28230
4260.59838,0.28256
4258.66964,0.28260
4256.74089,0.28247
4254.81215,0.28241
4252.88340,0.28247
4250.95466,0.28269
4249.02591,0.28309
4247.09717,0.28347
4245.16842,0.28365
4243.23968,0.28367
4241.31093,0.28384
4239.38219,0.28424
4237.45344,0.28445
4235.52469,0.28439
4233.59595,0.28427
4231.66720,0.28435
4229.73846,0.28488
4227.80971,0.28558
4225.88097,0.28577
4223.95222,0.28547
4222.02348,0.28520
4220.09473,0.28517
4218.16599,0.28533
4216.23724,0.28547
4214.30850,0.28541
4212.37975,0.28544
4210.45101,0.28579
4208.52226,0.28627
4206.59352,0.28653
4204.66477,0.28648
4202.73602,0.28628
4200.80728,0.28605
4198.87853,0.28592
4196.94979,0.28617
4195.02104,0.28671
4193.09230,0.28697
4191.16355,0.28671
4189.23481,0.28669
4187.30606,0.28716
4185.37732,0.28752
4183.44857,0.28756
4181.51983,0.28738
4179.59108,0.28711
4177.66234,0.28707
4175.73359,0.28750
4173.80484,0.28825
4171.87610,0.28880
4169.94735,0.28885
4168.01861,0.28891
4166.08986,0.28938
4164.16112,0.28972
4162.23237,0.28951
4160.30363,0.28889
4158.37488,0.28819
4156.44614,0.28755
4154.51739,0.28687
4152.58865,0.28627
4150.65990,0.28589
4148.73116,0.28541
4146.80241,0.28473
4144.87367,0.28396
4142.94492,0.28305
4141.01617,0.28209
4139.08743,0.28139
4137.15868,0.28076
4135.22994,0.27982
4133.30119,0.27869
4131.37245,0.27761
4129.44370,0.27658
4127.51496,0.27541
4125.58621,0.27390
4123.65747,0.27230
4121.72872,0.27095
4119.79998,0.26984
4117.87123,0.26880
4115.94249,0.26774
4114.01374,0.26671
4112.08500,0.26574
4110.15625,0.26467
4108.22750,0.26340
4106.29876,0.26201
4104.37001,0.26070
4102.44127,0.25948
4100.51252,0.25805
4098.58378,0.25633
4096.65503,0.25492
4094.72629,0.25399
4092.79754,0.25285
4090.86880,0.25110
4088.94005,0.24921
4087.01131,0.24767
4085.08256,0.24633
4083.15382,0.24485
4081.22507,0.24339
4079.29632,0.24205
4077.36758,0.24065
4075.43883,0.23916
4073.51009,0.23738
4071.58134,0.23543
4069.65260,0.23396
4067.72385,0.23302
4065.79511,0.23196
4063.86636,0.23044
4061.93762,0.22857
4060.00887,0.22665
4058.08013,0.22524
4056.15138,0.22456
4054.22264,0.22405
4052.29389,0.22295
4050.36515,0.22129
4048.43640,0.21970
4046.50765,0.21847
4044.57891,0.21753
4042.65016,0.21674
4040.72142,0.21584
4038.79267,0.21480
4036.86393,0.21388
4034.93518,0.21314
4033.00644,0.21251
4031.07769,0.21188
4029.14895,0.21112
4027.22020,0.21019
4025.29146,0.20939
4023.36271,0.20895
4021.43397,0.20875
4019.50522,0.20855
4017.57648,0.20820
4015.64773,0.20785
4013.71898,0.20774
4011.79024,0.20771
4009.86149,0.20761
4007.93275,0.20758
4006.00400,0.20777
4004.07526,0.20809
4002.14651,0.20841
4000.21777,0.20875
3998.28902,0.20911
3996.36028,0.20939
3994.43153,0.20960
3992.50279,0.20986
3990.57404,0.21021
3988.64530,0.21053
3986.71655,0.21075
3984.78780,0.21104
3982.85906,0.21142
3980.93031,0.21176
3979.00157,0.21211
3977.07282,0.21251
3975.14408,0.21288
3973.21533,0.21336
3971.28659,0.21404
3969.35784,0.21486
3967.42910,0.21578
3965.50035,0.21658
3963.57161,0.21708
3961.64286,0.21752
3959.71412,0.21807
3957.78537,0.21874
3955.85663,0.21954
3953.92788,0.22028
3951.99913,0.22087
3950.07039,0.22140
3948.14164,0.22185
3946.21290,0.22233
3944.28415,0.22296
3942.35541,0.22369
3940.42666,0.22449
3938.49792,0.22530
3936.56917,0.22611
3934.64043,0.22688
3932.71168,0.22750
3930.78294,0.22785
3928.85419,0.22805
3926.92545,0.22855
3924.99670,0.22947
3923.06795,0.23037
3921.13921,0.23102
3919.21046,0.23164
3917.28172,0.23236
3915.35297,0.23304
3913.42423,0.23379
3911.49548,0.23471
3909.56674,0.23560
3907.63799,0.23627
3905.70925,0.23677
3903.78050,0.23728
3901.85176,0.23808
3899.92301,0.23899
3897.99427,0.23980
3896.06552,0.24057
3894.13678,0.24124
3892.20803,0.24180
3890.27928,0.24245
3888.35054,0.24327
3886.42179,0.24402
3884.49305,0.24449
3882.56430,0.24477
3880.63556,0.24505
3878.70681,0.24553
3876.77807,0.24633
3874.84932,0.24712
3872.92058,0.24782
3870.99183,0.24864
3869.06309,0.24951
3867.13434,0.25045
3865.20560,0.25152
3863.27685,0.25243
3861.34811,0.25311
3859.41936,0.25376
3857.49061,0.25452
3855.56187,0.25528
3853.63312,0.25555
3851.70438,0.25577
3849.77563,0.25657
3847.84689,0.25741
3845.91814,0.25798
3843.98940,0.25854
3842.06065,0.25913
3840.13191,0.25974
3838.20316,0.26038
3836.27442,0.26085
3834.34567,0.26117
3832.41693,0.26136
3830.48818,0.26131
3828.55943,0.26137
3826.63069,0.26161
3824.70194,0.26189
3822.77320,0.26209
3820.84445,0.26175
3818.91571,0.26123
3816.98696,0.26117
3815.05822,0.26114
3813.12947,0.26098
3811.20073,0.26105
3809.27198,0.26141
3807.34324,0.26166
3805.41449,0.26140
3803.48575,0.26094
3801.55700,0.26043
3799.62826,0.25983
3797.69951,0.25923
3795.77076,0.25865
3793.84202,0.25837
3791.91327,0.25824
3789.98453,0.25773
3788.05578,0.25707
3786.12704,0.25658
3784.19829,0.25616
3782.26955,0.25580
3780.34080,0.25534
3778.41206,0.25468
3776.48331,0.25399
3774.55457,0.25340
3772.62582,0.25293
3770.69708,0.25243
3768.76833,0.25185
3766.83959,0.25130
3764.91084,0.25069
3762.98209,0.24992
3761.05335,0.24904
3759.12460,0.24798
3757.19586,0.24692
3755.26711,0.24611
3753.33837,0.24541
3751.40962,0.24438
3749.48088,0.24307
3747.55213,0.24222
3745.62339,0.24157
3743.69464,0.24047
3741.76590,0.23927
3739.83715,0.23832
3737.90841,0.23745
3735.97966,0.23625
3734.05091,0.23446
3732.12217,0.23238
3730.19342,0.23060
3728.26468,0.22912
3726.33593,0.22761
3724.40719,0.22617
3722.47844,0.22464
3720.54970,0.22258
3718.62095,0.22022
3716.69221,0.21811
3714.76346,0.21641
3712.83472,0.21447
3710.90597,0.21165
3708.97723,0.20858
3707.04848,0.20581
3705.11974,0.20318
3703.19099,0.20025
3701.26224,0.19684
3699.33350,0.19356
3697.40475,0.19055
3695.47601,0.18723
3693.54726,0.18370
3691.61852,0.18027
3689.68977,0.17626
3687.76103,0.17121
3685.83228,0.16634
3683.90354,0.16232
3681.97479,0.15838
3680.04605,0.15406
3678.11730,0.14963
3676.18856,0.14474
3674.25981,0.13968
3672.33107,0.13559
3670.40232,0.13167
3668.47357,0.12723
3666.54483,0.12303
3664.61608,0.11930
3662.68734,0.11590
3660.75859,0.11276
3658.82985,0.10968
3656.90110,0.10651
3654.97236,0.10351
3653.04361,0.10112
3651.11487,0.09888
3649.18612,0.09614
3647.25738,0.09326
3645.32863,0.09078
3643.39989,0.08875
3641.47114,0.08701
3639.54239,0.08544
3637.61365,0.08391
3635.68490,0.08240
3633.75616,0.08108
3631.82741,0.07991
3629.89867,0.07844
3627.96992,0.07668
3626.04118,0.07522
3624.11243,0.07421
3622.18369,0.07360
3620.25494,0.07290
3618.32620,0.07165
3616.39745,0.07030
3614.46871,0.06914
3612.53996,0.06799
3610.61122,0.06693
3608.68247,0.06598
3606.75372,0.06494
3604.82498,0.06392
3602.89623,0.06307
3600.96749,0.06235
3599.03874,0.06174
3597.11000,0.06121
3595.18125,0.06057
3593.25251,0.05968
3591.32376,0.05863
3589.39502,0.05765
3587.46627,0.05698
3585.53753,0.05662
3583.60878,0.05616
3581.68004,0.05539
3579.75129,0.05461
3577.82254,0.05415
3575.89380,0.05394
3573.96505,0.05362
3572.03631,0.05314
3570.10756,0.05273
3568.17882,0.05216
3566.25007,0.05123
3564.32133,0.05046
3562.39258,0.05002
3560.46384,0.04968
3558.53509,0.04941
3556.60635,0.04919
3554.67760,0.04890
3552.74886,0.04854
3550.82011,0.04831
3548.89137,0.04835
3546.96262,0.04835
3545.03387,0.04787
3543.10513,0.04706
3541.17638,0.04646
3539.24764,0.04609
3537.31889,0.04572
3535.39015,0.04542
3533.46140,0.04522
3531.53266,0.04507
3529.60391,0.04498
3527.67517,0.04476
3525.74642,0.04422
3523.81768,0.04363
3521.88893,0.04336
3519.96019,0.04336
3518.03144,0.04339
3516.10270,0.04328
3514.17395,0.04290
3512.24520,0.04242
3510.31646,0.04210
3508.38771,0.04190
3506.45897,0.04177
3504.53022,0.04172
3502.60148,0.04159
3500.67273,0.04136
3498.74399,0.04128
3496.81524,0.04131
3494.88650,0.04117
3492.95775,0.04084
3491.02901,0.04054
3489.10026,0.04047
3487.17152,0.04056
3485.24277,0.04059
3483.31402,0.04051
3481.38528,0.04029
3479.45653,0.03989
3477.52779,0.03956
3475.59904,0.03954
3473.67030,0.03967
3471.74155,0.03975
3469.81281,0.03978
3467.88406,0.03969
3465.95532,0.03942
3464.02657,0.03915
3462.09783,0.03888
3460.16908,0.03860
3458.24034,0.03861
3456.31159,0.03887
3454.38285,0.03898
3452.45410,0.03882
3450.52535,0.03864
3448.59661,0.03858
3446.66786,0.03852
3444.73912,0.03854
3442.81037,0.03864
3440.88163,0.03861
3438.95288,0.03859
3437.02414,0.03882
3435.09539,0.03906
3433.16665,0.03898
3431.23790,0.03870
3429.30916,0.03844
3427.38041,0.03834
3425.45167,0.03856
3423.52292,0.03902
3421.59418,0.03929
3419.66543,0.03944
3417.73668,0.03979
3415.80794,0.04007
3413.87919,0.04004
3411.95045,0.03983
3410.02170,0.03958
3408.09296,0.03944
3406.16421,0.03951
3404.23547,0.03973
3402.30672,0.03993
3400.37798,0.04013
3398.44923,0.04044
3396.52049,0.04059
3394.59174,0.04044
3392.66300,0.04015
3390.73425,0.03997
3388.80550,0.04015
3386.87676,0.04056
3384.94801,0.04061
3383.01927,0.04028
3381.09052,0.04030
3379.16178,0.04075
3377.23303,0.04106
3375.30429,0.04111
3373.37554,0.04099
3371.44680,0.04075
3369.51805,0.04059
3367.58931,0.04072
3365.66056,0.04115
3363.73182,0.04167
3361.80307,0.04198
3359.87433,0.04208
3357.94558,0.04213
3356.01683,0.04215
3354.08809,0.04210
3352.15934,0.04202
3350.23060,0.04204
3348.30185,0.04218
3346.37311,0.04244
3344.44436,0.04280
3342.51562,0.04302
3340.58687,0.04304
3338.65813,0.04319
3336.72938,0.04335
3334.80064,0.04328
3332.87189,0.04340
3330.94315,0.04385
3329.01440,0.04416
3327.08566,0.04415
3325.15691,0.04414
3323.22816,0.04422
3321.29942,0.04427
3319.37067,0.04427
3317.44193,0.04439
3315.51318,0.04475
3313.58444,0.04501
3311.65569,0.04499
3309.72695,0.04513
3307.79820,0.04547
3305.86946,0.04565
3303.94071,0.04573
3302.01197,0.04576
3300.08322,0.04575
3298.15448,0.04596
3296.22573,0.04637
3294.29698,0.04670
3292.36824,0.04688
3290.43949,0.04690
3288.51075,0.04677
3286.58200,0.04665
3284.65326,0.04675
3282.72451,0.04714
3280.79577,0.04763
3278.86702,0.04797
3276.93828,0.04818
3275.00953,0.04832
3273.08079,0.04837
3271.15204,0.04850
3269.22330,0.04892
3267.29455,0.04939
3265.36581,0.04957
3263.43706,0.04951
3261.50831,0.04939
3259.57957,0.04934
3257.65082,0.04942
3255.72208,0.04970
3253.79333,0.05008
3251.86459,0.05045
3249.93584,0.05080
3248.00710,0.05098
3246.07835,0.05099
3244.14961,0.05118
3242.22086,0.05177
3240.29212,0.05249
3238.36337,0.05308
3236.43463,0.05339
3234.50588,0.05333
3232.57713,0.05301
3230.64839,0.05291
3228.71964,0.05310
3226.79090,0.05333
3224.86215,0.05357
3222.93341,0.05380
3221.00466,0.05404
3219.07592,0.05448
3217.14717,0.05492
3215.21843,0.05499
3213.28968,0.05494
3211.36094,0.05511
3209.43219,0.05547
3207.50345,0.05601
3205.57470,0.05665
3203.64596,0.05704
3201.71721,0.05704
3199.78846,0.05697
3197.85972,0.05715
3195.93097,0.05750
3194.00223,0.05784
3192.07348,0.05808
3190.14474,0.05822
3188.21599,0.05840
3186.28725,0.05869
3184.35850,0.05886
3182.42976,0.05890
3180.50101,0.05906
3178.57227,0.05938
3176.64352,0.05967
3174.71478,0.05999
3172.78603,0.06055
3170.85729,0.06103
3168.92854,0.06119
3166.99979,0.06135
3165.07105,0.06163
3163.14230,0.06188
3161.21356,0.06223
3159.28481,0.06267
3157.35607,0.06295
3155.42732,0.06307
3153.49858,0.06316
3151.56983,0.06329
3149.64109,0.06353
3147.71234,0.06393
3145.78360,0.06444
3143.85485,0.06491
3141.92611,0.06520
3139.99736,0.06520
3138.06861,0.06508
3136.13987,0.06532
3134.21112,0.06591
3132.28238,0.06639
3130.35363,0.06666
3128.42489,0.06699
3126.49614,0.06757
3124.56740,0.06814
3122.63865,0.06831
3120.70991,0.06823
3118.78116,0.06835
3116.85242,0.06872
3114.92367,0.06907
3112.99493,0.06929
3111.06618,0.06943
3109.13744,0.06957
3107.20869,0.06983
3105.27994,0.07028
3103.35120,0.07083
3101.42245,0.07135
3099.49371,0.07165
3097.56496,0.07163
3095.63622,0.07154
3093.70747,0.07170
3091.77873,0.07212
3089.84998,0.07256
3087.92124,0.07292
3085.99249,0.07317
3084.06375,0.07337
3082.13500,0.07356
3080.20626,0.07364
3078.27751,0.07378
3076.34877,0.07410
3074.42002,0.07432
3072.49127,0.07438
3070.56253,0.07456
3068.63378,0.07485
3066.70504,0.07501
3064.77629,0.07522
3062.84755,0.07575
3060.91880,0.07627
3058.99006,0.07649
3057.06131,0.07665
3055.13257,0.07685
3053.20382,0.07702
3051.27508,0.07734
3049.34633,0.07781
3047.41759,0.07814
3045.48884,0.07827
3043.56009,0.07830
3041.63135,0.07830
3039.70260,0.07849
3037.77386,0.07877
3035.84511,0.07884
3033.91637,0.07887
3031.98762,0.07898
3030.05888,0.07887
3028.13013,0.07864
3026.20139,0.07852
3024.27264,0.07839
3022.34390,0.07811
3020.41515,0.07771
3018.48641,0.07732
3016.55766,0.07713
3014.62892,0.07722
3012.70017,0.07734
3010.77142,0.07729
3008.84268,0.07705
3006.91393,0.07661
3004.98519,0.07616
3003.05644,0.07575
3001.12770,0.07516
2999.19895,0.07450
2997.27021,0.07413
2995.34146,0.07412
2993.41272,0.07424
2991.48397,0.07402
2989.55523,0.07329
2987.62648,0.07240
2985.69774,0.07160
2983.76899,0.07068
2981.84025,0.06953
2979.91150,0.06853
2977.98275,0.06791
2976.05401,0.06731
2974.12526,0.06646
2972.19652,0.06565
2970.26777,0.06508
2968.33903,0.06455
2966.41028,0.06395
2964.48154,0.06333
2962.55279,0.06275
2960.62405,0.06231
2958.69530,0.06180
2956.76656,0.06103
2954.83781,0.06036
2952.90907,0.06000
2950.98032,0.05946
2949.05157,0.05850
2947.12283,0.05757
2945.19408,0.05699
2943.26534,0.05682
2941.33659,0.05699
2939.40785,0.05716
2937.47910,0.05716
2935.55036,0.05706
2933.62161,0.05692
2931.69287,0.05692
2929.76412,0.05705
2927.83538,0.05696
2925.90663,0.05668
2923.97789,0.05659
2922.04914,0.05669
2920.12040,0.05688
2918.19165,0.05715
2916.26290,0.05729
2914.33416,0.05723
2912.40541,0.05726
2910.47667,0.05743
2908.54792,0.05760
2906.61918,0.05763
2904.69043,0.05753
2902.76169,0.05753
2900.83294,0.05770
2898.90420,0.05808
2896.97545,0.05850
2895.04671,0.05862
2893.11796,0.05857
2891.18922,0.05870
2889.26047,0.05888
2887.33172,0.05903
2885.40298,0.05932
2883.47423,0.05961
2881.54549,0.05984
2879.61674,0.06017
2877.68800,0.06049
2875.75925,0.06075
2873.83051,0.06113
2871.90176,0.06148
2869.97302,0.06169
2868.04427,0.06201
2866.11553,0.06252
2864.18678,0.06310
2862.25804,0.06364
2860.32929,0.06404
2858.40055,0.06427
2856.47180,0.06436
2854.54305,0.06464
2852.61431,0.06542
2850.68556,0.06635
2848.75682,0.06712
2846.82807,0.06789
2844.89933,0.06867
2842.97058,0.06938
2841.04184,0.07032
2839.11309,0.07149
2837.18435,0.07263
2835.25560,0.07381
2833.32686,0.07514
2831.39811,0.07634
2829.46937,0.07733
2827.54062,0.07827
2825.61188,0.07906
2823.68313,0.07976
2821.75438,0.08064
2819.82564,0.08160
2817.89689,0.08246
2815.96815,0.08326
2814.03940,0.08392
2812.11066,0.08449
2810.18191,0.08513
2808.25317,0.08580
2806.32442,0.08645
2804.39568,0.08704
2802.46693,0.08747
2800.53819,0.08782
2798.60944,0.08823
2796.68070,0.08863
2794.75195,0.08899
2792.82320,0.08950
2790.89446,0.09020
2788.96571,0.09085
2787.03697,0.09108
2785.10822,0.09106
2783.17948,0.09122
2781.25073,0.09152
2779.32199,0.09193
2777.39324,0.09243
2775.46450,0.09264
2773.53575,0.09258
2771.60701,0.09271
2769.67826,0.09309
2767.74952,0.09343
2765.82077,0.09366
2763.89203,0.09383
2761.96328,0.09417
2760.03453,0.09466
2758.10579,0.09485
2756.17704,0.09475
2754.24830,0.09480
2752.31955,0.09495
2750.39081,0.09502
2748.46206,0.09512
2746.53332,0.09528
2744.60457,0.09537
2742.67583,0.09541
2740.74708,0.09554
2738.81834,0.09576
2736.88959,0.09602
2734.96085,0.09622
2733.03210,0.09629
2731.10336,0.09634
2729.17461,0.09652
2727.24586,0.09687
2725.31712,0.09727
2723.38837,0.09759
2721.45963,0.09778
2719.53088,0.09804
2717.60214,0.09860
2715.67339,0.09929
2713.74465,0.09976
2711.81590,0.09997
2709.88716,0.10006
2707.95841,0.10020
2706.02967,0.10041
2704.10092,0.10072
2702.17218,0.10120
2700.24343,0.10181
2698.31468,0.10232
2696.38594,0.10264
2694.45719,0.10290
2692.52845,0.10320
2690.59970,0.10357
2688.67096,0.10395
2686.74221,0.10424
2684.81347,0.10451
2682.88472,0.10492
2680.95598,0.10542
2679.02723,0.10583
2677.09849,0.10616
2675.16974,0.10656
2673.24100,0.10699
2671.31225,0.10726
2669.38351,0.10751
2667.45476,0.10788
2665.52601,0.10821
2663.59727,0.10846
2661.66852,0.10872
2659.73978,0.10897
2657.81103,0.10917
2655.88229,0.10939
2653.95354,0.10964
2652.02480,0.10989
2650.09605,0.11022
2648.16731,0.11060
2646.23856,0.11091
2644.30982,0.11127
2642.38107,0.11171
2640.45233,0.11198
2638.52358,0.11203
2636.59484,0.11214
2634.66609,0.11250
2632.73734,0.11310
2630.80860,0.11369
2628.87985,0.11400
2626.95111,0.11421
2625.02236,0.11460
2623.09362,0.11506
2621.16487,0.11542
2619.23613,0.11575
2617.30738,0.11609
2615.37864,0.11642
2613.44989,0.11684
2611.52115,0.11732
2609.59240,0.11774
2607.66366,0.11810
2605.73491,0.11850
2603.80616,0.11898
2601.87742,0.11938
2599.94867,0.11967
2598.01993,0.12006
2596.09118,0.12046
2594.16244,0.12062
2592.23369,0.12069
2590.30495,0.12094
2588.37620,0.12134
2586.44746,0.12159
2584.51871,0.12165
2582.58997,0.12178
2580.66122,0.12214
2578.73248,0.12258
2576.80373,0.12288
2574.87499,0.12296
2572.94624,0.12292
2571.01749,0.12303
2569.08875,0.12336
2567.16000,0.12372
2565.23126,0.12392
2563.30251,0.12404
2561.37377,0.12414
2559.44502,0.12430
2557.51628,0.12456
2555.58753,0.12484
2553.65879,0.12505
2551.73004,0.12527
2549.80130,0.12548
2547.87255,0.12565
2545.94381,0.12580
2544.01506,0.12586
2542.08631,0.12590
2540.15757,0.12613
2538.22882,0.12650
2536.30008,0.12681
2534.37133,0.12706
2532.44259,0.12733
2530.51384,0.12756
2528.58510,0.12774
2526.65635,0.12799
2524.72761,0.12828
2522.79886,0.12845
2520.87012,0.12839
2518.94137,0.12829
2517.01263,0.12839
2515.08388,0.12870
2513.15514,0.12906
2511.22639,0.12947
2509.29764,0.12988
2507.36890,0.13023
2505.44015,0.13054
2503.51141,0.13091
2501.58266,0.13139
2499.65392,0.13189
2497.72517,0.13232
2495.79643,0.13281
2493.86768,0.13343
2491.93894,0.13399
2490.01019,0.13438
2488.08145,0.13470
2486.15270,0.13513
2484.22396,0.13566
2482.29521,0.13608
2480.36647,0.13630
2478.43772,0.13647
2476.50897,0.13674
2474.58023,0.13697
2472.65148,0.13714
2470.72274,0.13744
2468.79399,0.13799
2466.86525,0.13858
2464.93650,0.13902
2463.00776,0.13935
2461.07901,0.13968
2459.15027,0.14013
2457.22152,0.14062
2455.29278,0.14108
2453.36403,0.14153
2451.43529,0.14199
2449.50654,0.14251
2447.57779,0.14312
2445.64905,0.14376
2443.72030,0.14437
2441.79156,0.14482
2439.86281,0.14516
2437.93407,0.14560
2436.00532,0.14632
2434.07658,0.14714
2432.14783,0.14769
2430.21909,0.14816
2428.29034,0.14885
2426.36160,0.14963
2424.43285,0.15029
2422.50411,0.15079
2420.57536,0.15128
2418.64662,0.15194
2416.71787,0.15267
2414.78912,0.15338
2412.86038,0.15412
2410.93163,0.15489
2409.00289,0.15557
2407.07414,0.15613
2405.14540,0.15669
2403.21665,0.15732
2401.28791,0.15811
2399.35916,0.15894
2397.43042,0.15962
2395.50167,0.16019
2393.57293,0.16070
2391.64418,0.16116
2389.71544,0.16160
2387.78669,0.16190
2385.85795,0.16210
2383.92920,0.16244
2382.00045,0.16310
2380.07171,0.16387
2378.14296,0.16446
2376.21422,0.16490
2374.28547,0.16538
2372.35673,0.16580
2370.42798,0.16607
2368.49924,0.16638
2366.57049,0.16672
2364.64175,0.16702
2362.71300,0.16739
2360.78426,0.16780
2358.85551,0.16815
2356.92677,0.16847
2354.99802,0.16885
2353.06927,0.16935
2351.14053,0.17000
2349.21178,0.17064
2347.28304,0.17101
2345.35429,0.17122
2343.42555,0.17156
2341.49680,0.17200
2339.56806,0.17226
2337.63931,0.17232
2335.71057,0.17234
2333.78182,0.17243
2331.85308,0.17255
2329.92433,0.17267
2327.99559,0.17281
2326.06684,0.17293
2324.13810,0.17310
2322.20935,0.17325
2320.28060,0.17324
2318.35186,0.17320
2316.42311,0.17334
2314.49437,0.17356
2312.56562,0.17373
2310.63688,0.17380
2308.70813,0.17371
2306.77939,0.17344
2304.85064,0.17307
2302.92190,0.17276
2300.99315,0.17266
2299.06441,0.17269
2297.13566,0.17268
2295.20692,0.17259
2293.27817,0.17242
2291.34943,0.17230
2289.42068,0.17232
2287.49193,0.17241
2285.56319,0.17249
2283.63444,0.17245
2281.70570,0.17230
2279.77695,0.17210
2277.84821,0.17186
2275.91946,0.17166
2273.99072,0.17153
2272.06197,0.17136
2270.13323,0.17111
2268.20448,0.17078
2266.27574,0.17040
2264.34699,0.17006
2262.41825,0.16978
2260.48950,0.16941
2258.56075,0.16885
2256.63201,0.16812
2254.70326,0.16743
2252.77452,0.16689
2250.84577,0.16648
2248.91703,0.16618
2246.98828,0.16602
2245.05954,0.16589
2243.13079,0.16559
2241.20205,0.16522
2239.27330,0.16500
2237.34456,0.16502
2235.41581,0.16515
2233.48707,0.16521
2231.55832,0.16516
2229.62958,0.16508
2227.70083,0.16497
2225.77208,0.16489
2223.84334,0.16490
2221.91459,0.16489
2219.98585,0.16484
2218.05710,0.16479
2216.12836,0.16467
2214.19961,0.16452
2212.27087,0.16446
2210.34212,0.16445
2208.41338,0.16420
2206.48463,0.16364
2204.55589,0.16300
2202.62714,0.16249
2200.69840,0.16205
2198.76965,0.16157
2196.84090,0.16103
2194.91216,0.16045
2192.98341,0.15974
2191.05467,0.15887
2189.12592,0.15805
2187.19718,0.15728
2185.26843,0.15636
2183.33969,0.15537
2181.41094,0.15448
2179.48220,0.15361
2177.55345,0.15270
2175.62471,0.15180
2173.69596,0.15084
2171.76722,0.14988
2169.83847,0.14909
2167.90973,0.14842
2165.98098,0.14776
2164.05223,0.14703
2162.12349,0.14634
2160.19474,0.14582
2158.26600,0.14526
2156.33725,0.14456
2154.40851,0.14403
2152.47976,0.14372
2150.55102,0.14345
2148.62227,0.14328
2146.69353,0.14317
2144.76478,0.14283
2142.83604,0.14236
2140.90729,0.14208
2138.97855,0.14200
2137.04980,0.14194
2135.12106,0.14186
2133.19231,0.14175
2131.26356,0.14160
2129.33482,0.14143
2127.40607,0.14148
2125.47733,0.14180
2123.54858,0.14204
2121.61984,0.14211
2119.69109,0.14229
2117.76235,0.14263
2115.83360,0.14289
2113.90486,0.14299
2111.97611,0.14308
2110.04737,0.14320
2108.11862,0.14335
2106.18988,0.14364
2104.26113,0.14399
2102.33238,0.14419
2100.40364,0.14426
2098.47489,0.14450
2096.54615,0.14494
2094.61740,0.14535
2092.68866,0.14551
2090.75991,0.14559
2088.83117,0.14582
2086.90242,0.14619
2084.97368,0.14649
2083.04493,0.14675
2081.11619,0.14705
2079.18744,0.14726
2077.25870,0.14718
2075.32995,0.14691
2073.40121,0.14673
2071.47246,0.14671
2069.54371,0.14667
2067.61497,0.14654
2065.68622,0.14646
2063.75748,0.14659
2061.82873,0.14677
2059.89999,0.14687
2057.97124,0.14696
2056.04250,0.14715
2054.11375,0.14736
2052.18501,0.14746
2050.25626,0.14751
2048.32752,0.14762
2046.39877,0.14787
2044.47003,0.14822
2042.54128,0.14847
2040.61254,0.14856
2038.68379,0.14883
2036.75504,0.14941
2034.82630,0.15001
2032.89755,0.15046
2030.96881,0.15091
2029.04006,0.15139
2027.11132,0.15188
2025.18257,0.15247
2023.25383,0.15315
2021.32508,0.15386
2019.39634,0.15463
2017.46759,0.15538
2015.53885,0.15608
2013.61010,0.15683
2011.68136,0.15758
2009.75261,0.15825
2007.82386,0.15889
2005.89512,0.15959
2003.96637,0.16038
2002.03763,0.16117
2000.10888,0.16173
1998.18014,0.16201
1996.25139,0.16219
1994.32265,0.16253
1992.39390,0.16307
1990.46516,0.16358
1988.53641,0.16388
1986.60767,0.16405
1984.67892,0.16408
1982.75018,0.16409
1980.82143,0.16427
1978.89269,0.16451
1976.96394,0.16470
1975.03519,0.16478
1973.10645,0.16464
1971.17770,0.16440
1969.24896,0.16429
1967.32021,0.16424
1965.39147,0.16407
1963.46272,0.16387
1961.53398,0.16373
1959.60523,0.16373
1957.67649,0.16381
1955.74774,0.16387
1953.81900,0.16380
1951.89025,0.16360
1949.96151,0.16355
1948.03276,0.16382
1946.10402,0.16426
1944.17527,0.16478
1942.24652,0.16540
1940.31778,0.16608
1938.38903,0.16670
1936.46029,0.16736
1934.53154,0.16816
1932.60280,0.16886
1930.67405,0.16934
1928.74531,0.16982
1926.81656,0.17032
1924.88782,0.17076
1922.95907,0.17120
1921.03033,0.17152
1919.10158,0.17163
1917.17284,0.17179
1915.24409,0.17209
1913.31534,0.17230
1911.38660,0.17234
1909.45785,0.17233
1907.52911,0.17237
1905.60036,0.17255
1903.67162,0.17279
1901.74287,0.17278
1899.81413,0.17253
1897.88538,0.17248
1895.95664,0.17265
1894.02789,0.17265
1892.09915,0.17256
1890.17040,0.17258
1888.24166,0.17253
1886.31291,0.17241
1884.38417,0.17244
1882.45542,0.17256
1880.52667,0.17265
1878.59793,0.17269
1876.66918,0.17260
1874.74044,0.17242
1872.81169,0.17217
1870.88295,0.17179
1868.95420,0.17130
1867.02546,0.17084
1865.09671,0.17039
1863.16797,0.16993
1861.23922,0.16943
1859.31048,0.16886
1857.38173,0.16826
1855.45299,0.16755
1853.52424,0.16673
1851.59549,0.16598
1849.66675,0.16532
1847.73800,0.16467
1845.80926,0.16396
1843.88051,0.16312
1841.95177,0.16217
1840.02302,0.16119
1838.09428,0.16016
1836.16553,0.15914
1834.23679,0.15810
1832.30804,0.15695
1830.37930,0.15562
1828.45055,0.15417
1826.52181,0.15271
1824.59306,0.15118
1822.66432,0.14957
1820.73557,0.14785
1818.80682,0.14594
1816.87808,0.14401
1814.94933,0.14223
1813.02059,0.14042
1811.09184,0.13833
1809.16310,0.13611
1807.23435,0.13380
1805.30561,0.13126
1803.37686,0.12851
1801.44812,0.12562
1799.51937,0.12262
1797.59063,0.11966
1795.66188,0.11682
1793.73314,0.11402
1791.80439,0.11112
1789.87565,0.10826
1787.94690,0.10551
1786.01815,0.10268
1784.08941,0.09977
1782.16066,0.09690
1780.23192,0.09385
1778.30317,0.09053
1776.37443,0.08719
1774.44568,0.08382
1772.51694,0.08002
1770.58819,0.07595
1768.65945,0.07201
1766.73070,0.06830
1764.80196,0.06502
1762.87321,0.06199
1760.94447,0.05900
1759.01572,0.05639
1757.08697,0.05416
1755.15823,0.05223
1753.22948,0.05071
1751.30074,0.04937
1749.37199,0.04804
1747.44325,0.04697
1745.51450,0.04629
1743.58576,0.04593
1741.65701,0.04575
1739.72827,0.04555
1737.79952,0.04543
1735.87078,0.04563
1733.94203,0.04619
1732.01329,0.04686
1730.08454,0.04740
1728.15580,0.04794
1726.22705,0.04863
1724.29830,0.04941
1722.36956,0.05023
1720.44081,0.05112
1718.51207,0.05202
1716.58332,0.05276
1714.65458,0.05344
1712.72583,0.05405
1710.79709,0.05453
1708.86834,0.05517
1706.93960,0.05609
1705.01085,0.05693
1703.08211,0.05756
1701.15336,0.05809
1699.22462,0.05837
1697.29587,0.05843
1695.36713,0.05845
1693.43838,0.05847
1691.50963,0.05856
1689.58089,0.05868
1687.65214,0.05876
1685.72340,0.05878
1683.79465,0.05855
1681.86591,0.05807
1679.93716,0.05776
1678.00842,0.05761
1676.07967,0.05736
1674.15093,0.05699
1672.22218,0.05664
1670.29344,0.05632
1668.36469,0.05591
1666.43595,0.05551
1664.50720,0.05533
1662.57845,0.05525
1660.64971,0.05500
1658.72096,0.05470
1656.79222,0.05457
1654.86347,0.05449
1652.93473,0.05403
1651.00598,0.05351
1649.07724,0.05354
1647.14849,0.05386
1645.21975,0.05404
1643.29100,0.05401
1641.36226,0.05375
1639.43351,0.05321
1637.50477,0.05268
1635.57602,0.05245
1633.64728,0.05243
1631.71853,0.05245
1629.78978,0.05251
1627.86104,0.05260
1625.93229,0.05269
1624.00355,0.05289
1622.07480,0.05319
1620.14606,0.05335
1618.21731,0.05316
1616.28857,0.05265
1614.35982,0.05209
1612.43108,0.05155
1610.50233,0.05091
1608.57359,0.05026
1606.64484,0.04975
1604.71610,0.04944
1602.78735,0.04940
1600.85861,0.04959
1598.92986,0.04981
1597.00111,0.05004
1595.07237,0.05044
1593.14362,0.05109
1591.21488,0.05191
1589.28613,0.05277
1587.35739,0.05381
1585.42864,0.05523
1583.49990,0.05692
1581.57115,0.05855
1579.64241,0.05999
1577.71366,0.06135
1575.78492,0.06276
1573.85617,0.06415
1571.92743,0.06555
1569.99868,0.06691
1568.06993,0.06800
1566.14119,0.06882
1564.21244,0.06950
1562.28370,0.07016
1560.35495,0.07093
1558.42621,0.07146
1556.49746,0.07147
1554.56872,0.07134
1552.63997,0.07118
1550.71123,0.07096
1548.78248,0.07083
1546.85374,0.07083
1544.92499,0.07081
1542.99625,0.07083
1541.06750,0.07071
1539.13876,0.07000
1537.21001,0.06922
1535.28126,0.06858
1533.35252,0.06758
1531.42377,0.06620
1529.49503,0.06468
1527.56628,0.06290
1525.63754,0.06074
1523.70879,0.05826
1521.78005,0.05527
1519.85130,0.05225
1517.92256,0.05012
1515.99381,0.04889
1514.06507,0.04835
1512.13632,0.04833
1510.20758,0.04858
1508.27883,0.04893
1506.35008,0.04922
1504.42134,0.04937
1502.49259,0.04970
1500.56385,0.05043
1498.63510,0.05150
1496.70636,0.05261
1494.77761,0.05353
1492.84887,0.05421
1490.92012,0.05478
1488.99138,0.05510
1487.06263,0.05493
1485.13389,0.05440
1483.20514,0.05357
1481.27640,0.05233
1479.34765,0.05085
1477.41891,0.04935
1475.49016,0.04765
1473.56141,0.04565
1471.63267,0.04380
1469.70392,0.04268
1467.77518,0.04211
1465.84643,0.04168
1463.91769,0.04148
1461.98894,0.04169
1460.06020,0.04214
1458.13145,0.04259
1456.20271,0.04286
1454.27396,0.04292
1452.34522,0.04294
1450.41647,0.04307
1448.48773,0.04332
1446.55898,0.04352
1444.63024,0.04361
1442.70149,0.04362
1440.77274,0.04352
1438.84400,0.04321
1436.91525,0.04271
1434.98651,0.04221
1433.05776,0.04197
1431.12902,0.04198
1429.20027,0.04209
1427.27153,0.04231
1425.34278,0.04263
1423.41404,0.04295
1421.48529,0.04330
1419.55655,0.04372
1417.62780,0.04408
1415.69906,0.04427
1413.77031,0.04442
1411.84156,0.04468
1409.91282,0.04489
1407.98407,0.04488
1406.05533,0.04470
1404.12658,0.04452
1402.19784,0.04448
1400.26909,0.04434
1398.34035,0.04387
1396.41160,0.04328
1394.48286,0.04278
1392.55411,0.04230
1390.62537,0.04180
1388.69662,0.04124
1386.76788,0.04071
1384.83913,0.04029
1382.91039,0.03989
1380.98164,0.03963
1379.05289,0.03973
1377.12415,0.04006
1375.19540,0.04040
1373.26666,0.04065
1371.33791,0.04091
1369.40917,0.04127
1367.48042,0.04163
1365.55168,0.04189
1363.62293,0.04220
1361.69419,0.04262
1359.76544,0.04298
1357.83670,0.04319
1355.90795,0.04318
1353.97921,0.04302
1352.05046,0.04285
1350.12172,0.04275
1348.19297,0.04273
1346.26422,0.04269
1344.33548,0.04242
1342.40673,0.04199
1340.47799,0.04151
1338.54924,0.04100
1336.62050,0.04067
1334.69175,0.04065
1332.76301,0.04085
1330.83426,0.04115
1328.90552,0.04131
1326.97677,0.04131
1325.04803,0.04130
1323.11928,0.04137
1321.19054,0.04163
1319.26179,0.04196
1317.33304,0.04218
1315.40430,0.04248
1313.47555,0.04295
1311.54681,0.04333
1309.61806,0.04350
1307.68932,0.04363
1305.76057,0.04376
1303.83183,0.04392
1301.90308,0.04417
1299.97434,0.04426
1298.04559,0.04395
1296.11685,0.04338
1294.18810,0.04289
1292.25936,0.04263
1290.33061,0.04238
1288.40187,0.04189
1286.47312,0.04125
1284.54437,0.04070
1282.61563,0.04031
1280.68688,0.03991
1278.75814,0.03952
1276.82939,0.03912
1274.90065,0.03860
1272.97190,0.03810
1271.04316,0.03775
1269.11441,0.03752
1267.18567,0.03746
1265.25692,0.03745
1263.32818,0.03732
1261.39943,0.03712
1259.47069,0.03709
1257.54194,0.03729
1255.61320,0.03759
1253.68445,0.03775
1251.75570,0.03774
1249.82696,0.03778
1247.89821,0.03798
1245.96947,0.03819
1244.04072,0.03847
1242.11198,0.03878
1240.18323,0.03901
1238.25449,0.03927
1236.32574,0.03975
1234.39700,0.04041
1232.46825,0.04101
1230.53951,0.04134
1228.61076,0.04150
1226.68202,0.04188
1224.75327,0.04253
1222.82452,0.04301
1220.89578,0.04298
1218.96703,0.04268
1217.03829,0.04260
1215.10954,0.04280
1213.18080,0.04312
1211.25205,0.04330
1209.32331,0.04301
1207.39456,0.04244
1205.46582,0.04200
1203.53707,0.04170
1201.60833,0.04141
1199.67958,0.04119
1197.75084,0.04103
1195.82209,0.04091
1193.89335,0.04083
1191.96460,0.04061
1190.03585,0.03996
1188.10711,0.03895
1186.17836,0.03791
1184.24962,0.03688
1182.32087,0.03589
1180.39213,0.03496
1178.46338,0.03411
1176.53464,0.03352
1174.60589,0.03338
1172.67715,0.03373
1170.74840,0.03455
1168.81966,0.03570
1166.89091,0.03690
1164.96217,0.03801
1163.03342,0.03908
1161.10467,0.03998
1159.17593,0.04051
1157.24718,0.04059
1155.31844,0.04039
1153.38969,0.04019
1151.46095,0.04005
1149.53220,0.03970
1147.60346,0.03903
1145.67471,0.03825
1143.74597,0.03754
1141.81722,0.03675
1139.88848,0.03578
1137.95973,0.03477
1136.03099,0.03394
1134.10224,0.03349
1132.17350,0.03344
1130.24475,0.03360
1128.31600,0.03391
1126.38726,0.03448
1124.45851,0.03524
1122.52977,0.03603
1120.60102,0.03683
1118.67228,0.03770
1116.74353,0.03860
1114.81479,0.03930
1112.88604,0.03977
1110.95730,0.04030
1109.02855,0.04090
1107.09981,0.04126
1105.17106,0.04144
1103.24232,0.04178
1101.31357,0.04219
1099.38483,0.04215
1097.45608,0.04161
1095.52733,0.04101
1093.59859,0.04057
1091.66984,0.04036
1089.74110,0.04038
1087.81235,0.04041
1085.88361,0.04040
1083.95486,0.04061
1082.02612,0.04122
1080.09737,0.04240
1078.16863,0.04396
1076.23988,0.04520
1074.31114,0.04617
1072.38239,0.04755
1070.45365,0.04916
1068.52490,0.05051
1066.59615,0.05180
1064.66741,0.05353
1062.73866,0.05569
1060.80992,0.05797
1058.88117,0.06020
1056.95243,0.06220
1055.02368,0.06359
1053.09494,0.06426
1051.16619,0.06458
1049.23745,0.06480
1047.30870,0.06506
1045.37996,0.06533
1043.45121,0.06549
1041.52247,0.06600
1039.59372,0.06726
1037.66498,0.06894
1035.73623,0.07050
1033.80748,0.07155
1031.87874,0.07204
1029.94999,0.07221
1028.02125,0.07227
1026.09250,0.07226
1024.16376,0.07211
1022.23501,0.07176
1020.30627,0.07117
1018.37752,0.07053
1016.44878,0.07022
1014.52003,0.07027
1012.59129,0.07026
1010.66254,0.06999
1008.73380,0.06973
1006.80505,0.06953
1004.87631,0.06925
1002.94756,0.06919
1001.01881,0.06956
999.09007,0.06987
997.16132,0.06982
995.23258,0.06979
993.30383,0.07007
991.37509,0.07068
989.44634,0.07163
987.51760,0.07275
985.58885,0.07380
983.66011,0.07472
981.73136,0.07550
979.80262,0.07613
977.87387,0.07667
975.94513,0.07712
974.01638,0.07736
972.08763,0.07755
970.15889,0.07808
968.23014,0.07894
966.30140,0.07978
964.37265,0.08052
962.44391,0.08137
960.51516,0.08253
958.58642,0.08389
956.65767,0.08510
954.72893,0.08605
952.80018,0.08701
950.87144,0.08807
948.94269,0.08883
947.01395,0.08906
945.08520,0.08898
943.15646,0.08890
941.22771,0.08882
939.29896,0.08855
937.37022,0.08804
935.44147,0.08735
933.51273,0.08679
931.58398,0.08662
929.65524,0.08648
927.72649,0.08624
925.79775,0.08613
923.86900,0.08592
921.94026,0.08544
920.01151,0.08488
918.08277,0.08427
916.15402,0.08362
914.22528,0.08311
912.29653,0.08263
910.36779,0.08182
908.43904,0.08082
906.51029,0.08002
904.58155,0.07932
902.65280,0.07848
900.72406,0.07763
898.79531,0.07708
896.86657,0.07723
894.93782,0.07829
893.00908,0.07981
891.08033,0.08145
889.15159,0.08300
887.22284,0.08414
885.29410,0.08469
883.36535,0.08489
881.43661,0.08499
879.50786,0.08486
877.57911,0.08446
875.65037,0.08407
873.72162,0.08370
871.79288,0.08334
869.86413,0.08313
867.93539,0.08309
866.00664,0.08315
864.07790,0.08326
862.14915,0.08356
860.22041,0.08395
858.29166,0.08386
856.36292,0.08318
854.43417,0.08244
852.50543,0.08186
850.57668,0.08129
848.64794,0.08056
846.71919,0.07960
844.79044,0.07874
842.86170,0.07820
840.93295,0.07797
839.00421,0.07798
837.07546,0.07813
835.14672,0.07818
833.21797,0.07801
831.28923,0.07790
829.36048,0.07813
827.43174,0.07878
825.50299,0.07968
823.57425,0.08043
821.64550,0.08083
819.71676,0.08088
817.78801,0.08069
815.85926,0.08059
813.93052,0.08055
812.00177,0.08049
810.07303,0.08057
808.14428,0.08077
806.21554,0.08076
804.28679,0.08044
802.35805,0.07992
800.42930,0.07951
798.50056,0.07953
796.57181,0.07964
794.64307,0.07948
792.71432,0.07915
790.78558,0.07873
788.85683,0.07840
786.92809,0.07837
784.99934,0.07830
783.07059,0.07774
781.14185,0.07692
779.21310,0.07620
777.28436,0.07565
775.35561,0.07521
773.42687,0.07468
771.49812,0.07418
769.56938,0.07396
767.64063,0.07377
765.71189,0.07330
763.78314,0.07258
761.85440,0.07171
759.92565,0.07087
757.99691,0.07049
756.06816,0.07052
754.13942,0.07028
752.21067,0.06958
750.28192,0.06874
748.35318,0.06816
746.42443,0.06832
744.49569,0.06868
742.56694,0.06798
740.63820,0.06665
738.70945,0.06598
736.78071,0.06583
734.85196,0.06529
732.92322,0.06440
730.99447,0.06380
729.06573,0.06358
727.13698,0.06358
725.20824,0.06374
723.27949,0.06372
721.35074,0.06324
719.42200,0.06238
717.49325,0.06171
715.56451,0.06191
713.63576,0.06275
711.70702,0.06328
709.77827,0.06303
707.84953,0.06238
705.92078,0.06181
703.99204,0.06169
702.06329,0.06211
700.13455,0.06264
698.20580,0.06293
696.27706,0.06292
694.34831,0.06264
692.41957,0.06211
690.49082,0.06127
688.56207,0.06022
686.63333,0.05950
684.70458,0.05924
682.77584,0.05873
680.84709,0.05774
678.91835,0.05694
676.98960,0.05682
675.06086,0.05709
673.13211,0.05732
671.20337,0.05744
669.27462,0.05759
667.34588,0.05772
665.41713,0.05773
663.48839,0.05780
661.55964,0.05821
659.63090,0.05883
657.70215,0.05913
655.77340,0.05914
653.84466,0.05902
651.91591,0.05871
649.98717,0.05876
648.05842,0.05898
646.12968,0.05849
644.20093,0.05741
642.27219,0.05658
640.34344,0.05649
638.41470,0.05671
636.48595,0.05667
634.55721,0.05606
632.62846,0.05522
630.69972,0.05487
628.77097,0.05474
626.84222,0.05429
624.91348,0.05417
622.98473,0.05527
621.05599,0.05683
619.12724,0.05762
617.19850,0.05781
615.26975,0.05770
613.34101,0.05757
611.41226,0.05833
609.48352,0.06012
607.55477,0.06136
605.62603,0.06096
603.69728,0.06003
601.76854,0.05975
599.83979,0.05973
