7497.03301,0.77215
7495.10426,0.76850
7493.17552,0.76536
7491.24677,0.76431
7489.31803,0.76287
7487.38928,0.75793
7485.46054,0.75268
7483.53179,0.75305
7481.60305,0.75932
7479.67430,0.76436
7477.74556,0.76305
7475.81681,0.75900
7473.88807,0.75583
7471.95932,0.75351
7470.03057,0.75274
7468.10183,0.75143
7466.17308,0.74847
7464.24434,0.74647
7462.31559,0.74714
7460.38685,0.75141
7458.45810,0.75483
7456.52936,0.75154
7454.60061,0.74393
7452.67187,0.73778
7450.74312,0.73769
7448.81438,0.74382
7446.88563,0.74881
7444.95689,0.74566
7443.02814,0.73786
7441.09940,0.73420
7439.17065,0.73555
7437.24190,0.73620
7435.31316,0.73344
7433.38441,0.72895
7431.45567,0.72473
7429.52692,0.72564
7427.59818,0.73603
7425.66943,0.74716
7423.74069,0.74838
7421.81194,0.74389
7419.88320,0.73889
7417.95445,0.73355
7416.02571,0.72972
7414.09696,0.72682
7412.16822,0.72330
7410.23947,0.72122
7408.31073,0.72105
7406.38198,0.72059
7404.45323,0.72017
7402.52449,0.71957
7400.59574,0.71683
7398.66700,0.71442
7396.73825,0.71334
7394.80951,0.71020
7392.88076,0.70620
7390.95202,0.70681
7389.02327,0.71254
7387.09453,0.71666
7385.16578,0.71735
7383.23704,0.71887
7381.30829,0.71943
7379.37955,0.71728
7377.45080,0.71609
7375.52205,0.71535
7373.59331,0.71162
7371.66456,0.70616
7369.73582,0.70149
7367.80707,0.69780
7365.87833,0.69564
7363.94958,0.69693
7362.02084,0.70180
7360.09209,0.70605
7358.16335,0.70532
7356.23460,0.70190
7354.30586,0.70216
7352.37711,0.70534
7350.44837,0.70483
7348.51962,0.70046
7346.59088,0.69695
7344.66213,0.69713
7342.73338,0.69921
7340.80464,0.69762
7338.87589,0.69255
7336.94715,0.69026
7335.01840,0.69131
7333.08966,0.69010
7331.16091,0.68650
7329.23217,0.68694
7327.30342,0.69201
7325.37468,0.69366
7323.44593,0.68882
7321.51719,0.68540
7319.58844,0.68638
7317.65970,0.68614
7315.73095,0.68556
7313.80221,0.68825
7311.87346,0.69057
7309.94471,0.68920
7308.01597,0.68732
7306.08722,0.68716
7304.15848,0.68605
7302.22973,0.68397
7300.30099,0.68444
7298.37224,0.68615
7296.44350,0.68535
7294.51475,0.68184
7292.58601,0.67775
7290.65726,0.67731
7288.72852,0.68045
7286.79977,0.68121
7284.87103,0.67936
7282.94228,0.67956
7281.01353,0.68282
7279.08479,0.68549
7277.15604,0.68301
7275.22730,0.67661
7273.29855,0.67193
7271.36981,0.67213
7269.44106,0.67660
7267.51232,0.68059
7265.58357,0.68055
7263.65483,0.68147
7261.72608,0.68607
7259.79734,0.68819
7257.86859,0.68610
7255.93985,0.68352
7254.01110,0.68152
7252.08236,0.68023
7250.15361,0.67853
7248.22486,0.67518
7246.29612,0.67333
7244.36737,0.67528
7242.43863,0.67821
7240.50988,0.67901
7238.58114,0.67895
7236.65239,0.68228
7234.72365,0.68785
7232.79490,0.68828
7230.86616,0.68161
7228.93741,0.67450
7227.00867,0.67237
7225.07992,0.67363
7223.15118,0.67631
7221.22243,0.68060
7219.29369,0.68325
7217.36494,0.68207
7215.43619,0.67892
7213.50745,0.67568
7211.57870,0.67372
7209.64996,0.67119
7207.72121,0.66733
7205.79247,0.66563
7203.86372,0.66617
7201.93498,0.66587
7200.00623,0.66349
7198.07749,0.66042
7196.14874,0.65931
7194.22000,0.66035
7192.29125,0.65942
7190.36251,0.65333
7188.43376,0.64864
7186.50501,0.65180
7184.57627,0.65647
7182.64752,0.65823
7180.71878,0.66036
7178.79003,0.65942
7176.86129,0.65201
7174.93254,0.64568
7173.00380,0.64566
7171.07505,0.64700
7169.14631,0.64611
7167.21756,0.64573
7165.28882,0.64729
7163.36007,0.64847
7161.43133,0.64750
7159.50258,0.64470
7157.57384,0.64140
7155.64509,0.63902
7153.71634,0.63741
7151.78760,0.63501
7149.85885,0.63232
7147.93011,0.63106
7146.00136,0.62953
7144.07262,0.62668
7142.14387,0.62517
7140.21513,0.62473
7138.28638,0.62260
7136.35764,0.61945
7134.42889,0.61835
7132.50015,0.61876
7130.57140,0.61677
7128.64266,0.61247
7126.71391,0.60896
7124.78516,0.60717
7122.85642,0.60633
7120.92767,0.60557
7118.99893,0.60397
7117.07018,0.60062
7115.14144,0.59827
7113.21269,0.60002
7111.28395,0.60190
7109.35520,0.59952
7107.42646,0.59597
7105.49771,0.59451
7103.56897,0.59214
7101.64022,0.58802
7099.71148,0.58528
7097.78273,0.58310
7095.85399,0.58076
7093.92524,0.57993
7091.99649,0.57972
7090.06775,0.57975
7088.13900,0.58042
7086.21026,0.57900
7084.28151,0.57418
7082.35277,0.56983
7080.42402,0.56941
7078.49528,0.57043
7076.56653,0.56734
7074.63779,0.56072
7072.70904,0.55741
7070.78030,0.55837
7068.85155,0.55917
7066.92281,0.55853
7064.99406,0.55576
7063.06532,0.55175
7061.13657,0.55019
7059.20782,0.54969
7057.27908,0.54622
7055.35033,0.54227
7053.42159,0.54120
7051.49284,0.54060
7049.56410,0.53797
7047.63535,0.53536
7045.70661,0.53527
7043.77786,0.53651
7041.84912,0.53655
7039.92037,0.53563
7037.99163,0.53410
7036.06288,0.53147
7034.13414,0.52911
7032.20539,0.52779
7030.27664,0.52590
7028.34790,0.52372
7026.41915,0.52382
7024.49041,0.52546
7022.56166,0.52450
7020.63292,0.51931
7018.70417,0.51333
7016.77543,0.51061
7014.84668,0.50965
7012.91794,0.50703
7010.98919,0.50519
7009.06045,0.50602
7007.13170,0.50534
7005.20296,0.50245
7003.27421,0.50095
7001.34547,0.50174
6999.41672,0.50407
6997.48797,0.50620
6995.55923,0.50502
6993.63048,0.50074
6991.70174,0.49700
6989.77299,0.49560
6987.84425,0.49567
6985.91550,0.49504
6983.98676,0.49215
6982.05801,0.48878
6980.12927,0.48683
6978.20052,0.48663
6976.27178,0.48934
6974.34303,0.49321
6972.41429,0.49296
6970.48554,0.48969
6968.55680,0.49000
6966.62805,0.49284
6964.69930,0.49238
6962.77056,0.48859
6960.84181,0.48514
6958.91307,0.48382
6956.98432,0.48475
6955.05558,0.48759
6953.12683,0.49096
6951.19809,0.49347
6949.26934,0.49303
6947.34060,0.48853
6945.41185,0.48447
6943.48311,0.48414
6941.55436,0.48444
6939.62562,0.48335
6937.69687,0.48307
6935.76812,0.48561
6933.83938,0.48990
6931.91063,0.49272
6929.98189,0.49121
6928.05314,0.48608
6926.12440,0.48140
6924.19565,0.47979
6922.26691,0.48067
6920.33816,0.48198
6918.40942,0.48230
6916.48067,0.48221
6914.55193,0.48263
6912.62318,0.48252
6910.69444,0.48144
6908.76569,0.48090
6906.83695,0.48099
6904.90820,0.48170
6902.97945,0.48344
6901.05071,0.48397
6899.12196,0.48164
6897.19322,0.47881
6895.26447,0.47774
6893.33573,0.47722
6891.40698,0.47676
6889.47824,0.47810
6887.54949,0.47915
6885.62075,0.47669
6883.69200,0.47406
6881.76326,0.47489
6879.83451,0.47588
6877.90577,0.47462
6875.97702,0.47380
6874.04828,0.47506
6872.11953,0.47689
6870.19078,0.47747
6868.26204,0.47718
6866.33329,0.47681
6864.40455,0.47626
6862.47580,0.47693
6860.54706,0.47819
6858.61831,0.47793
6856.68957,0.47862
6854.76082,0.48118
6852.83208,0.48125
6850.90333,0.47782
6848.97459,0.47548
6847.04584,0.47635
6845.11710,0.47776
6843.18835,0.47810
6841.25960,0.47802
6839.33086,0.47791
6837.40211,0.47673
6835.47337,0.47475
6833.54462,0.47476
6831.61588,0.47552
6829.68713,0.47380
6827.75839,0.47188
6825.82964,0.47355
6823.90090,0.47722
6821.97215,0.47833
6820.04341,0.47714
6818.11466,0.47640
6816.18592,0.47546
6814.25717,0.47391
6812.32843,0.47355
6810.39968,0.47472
6808.47093,0.47642
6806.54219,0.47792
6804.61344,0.47787
6802.68470,0.47658
6800.75595,0.47628
6798.82721,0.47688
6796.89846,0.47727
6794.96972,0.47703
6793.04097,0.47585
6791.11223,0.47471
6789.18348,0.47452
6787.25474,0.47446
6785.32599,0.47387
6783.39725,0.47358
6781.46850,0.47355
6779.53975,0.47311
6777.61101,0.47312
6775.68226,0.47338
6773.75352,0.47314
6771.82477,0.47411
6769.89603,0.47677
6767.96728,0.47713
6766.03854,0.47425
6764.10979,0.47390
6762.18105,0.47735
6760.25230,0.47885
6758.32356,0.47663
6756.39481,0.47324
6754.46607,0.47144
6752.53732,0.47305
6750.60858,0.47642
6748.67983,0.47911
6746.75108,0.48012
6744.82234,0.47918
6742.89359,0.47860
6740.96485,0.47987
6739.03610,0.48182
6737.10736,0.48368
6735.17861,0.48415
6733.24987,0.48277
6731.32112,0.48176
6729.39238,0.48221
6727.46363,0.48314
6725.53489,0.48334
6723.60614,0.48301
6721.67740,0.48336
6719.74865,0.48319
6717.81991,0.48136
6715.89116,0.48057
6713.96241,0.48225
6712.03367,0.48404
6710.10492,0.48507
6708.17618,0.48701
6706.24743,0.48987
6704.31869,0.49158
6702.38994,0.49163
6700.46120,0.49135
6698.53245,0.49084
6696.60371,0.48982
6694.67496,0.48859
6692.74622,0.48675
6690.81747,0.48552
6688.88873,0.48640
6686.95998,0.48697
6685.03123,0.48634
6683.10249,0.48806
6681.17374,0.49152
6679.24500,0.49213
6677.31625,0.49055
6675.38751,0.48957
6673.45876,0.48897
6671.53002,0.48919
6669.60127,0.49081
6667.67253,0.49231
6665.74378,0.49213
6663.81504,0.49092
6661.88629,0.49106
6659.95755,0.49307
6658.02880,0.49460
6656.10006,0.49381
6654.17131,0.49140
6652.24256,0.48973
6650.31382,0.49022
6648.38507,0.49171
6646.45633,0.49227
6644.52758,0.49266
6642.59884,0.49362
6640.67009,0.49312
6638.74135,0.49186
6636.81260,0.49310
6634.88386,0.49622
6632.95511,0.49775
6631.02637,0.49680
6629.09762,0.49600
6627.16888,0.49688
6625.24013,0.49701
6623.31139,0.49508
6621.38264,0.49458
6619.45389,0.49685
6617.52515,0.49916
6615.59640,0.50037
6613.66766,0.50000
6611.73891,0.49845
6609.81017,0.49751
6607.88142,0.49717
6605.95268,0.49764
6604.02393,0.49960
6602.09519,0.50168
6600.16644,0.50259
6598.23770,0.50189
6596.30895,0.49989
6594.38021,0.49877
6592.45146,0.50014
6590.52271,0.50196
6588.59397,0.50200
6586.66522,0.50158
6584.73648,0.50242
6582.80773,0.50393
6580.87899,0.50514
6578.95024,0.50545
6577.02150,0.50394
6575.09275,0.50169
6573.16401,0.50212
6571.23526,0.50557
6569.30652,0.50802
6567.37777,0.50801
6565.44903,0.50763
6563.52028,0.50713
6561.59154,0.50583
6559.66279,0.50521
6557.73404,0.50653
6555.80530,0.50906
6553.87655,0.51097
6551.94781,0.51086
6550.01906,0.51015
6548.09032,0.51111
6546.16157,0.51252
6544.23283,0.51214
6542.30408,0.51128
6540.37534,0.51176
6538.44659,0.51203
6536.51785,0.51114
6534.58910,0.51086
6532.66036,0.51193
6530.73161,0.51271
6528.80287,0.51151
6526.87412,0.50985
6524.94537,0.50997
6523.01663,0.51072
6521.08788,0.51101
6519.15914,0.51235
6517.23039,0.51546
6515.30165,0.51857
6513.37290,0.51984
6511.44416,0.51908
6509.51541,0.51701
6507.58667,0.51496
6505.65792,0.51426
6503.72918,0.51460
6501.80043,0.51454
6499.87169,0.51499
6497.94294,0.51724
6496.01419,0.51823
6494.08545,0.51602
6492.15670,0.51403
6490.22796,0.51442
6488.29921,0.51625
6486.37047,0.51844
6484.44172,0.51957
6482.51298,0.51929
6480.58423,0.51881
6478.65549,0.51915
6476.72674,0.51984
6474.79800,0.51960
6472.86925,0.51903
6470.94051,0.51920
6469.01176,0.51876
6467.08302,0.51782
6465.15427,0.51850
6463.22552,0.51978
6461.29678,0.51939
6459.36803,0.51780
6457.43929,0.51621
6455.51054,0.51631
6453.58180,0.51929
6451.65305,0.52283
6449.72431,0.52404
6447.79556,0.52396
6445.86682,0.52392
6443.93807,0.52331
6442.00933,0.52281
6440.08058,0.52250
6438.15184,0.52119
6436.22309,0.52020
6434.29434,0.52074
6432.36560,0.52212
6430.43685,0.52296
6428.50811,0.52280
6426.57936,0.52365
6424.65062,0.52546
6422.72187,0.52557
6420.79313,0.52411
6418.86438,0.52291
6416.93564,0.52250
6415.00689,0.52331
6413.07815,0.52503
6411.14940,0.52529
6409.22066,0.52354
6407.29191,0.52224
6405.36317,0.52288
6403.43442,0.52431
6401.50567,0.52444
6399.57693,0.52346
6397.64818,0.52385
6395.71944,0.52529
6393.79069,0.52511
6391.86195,0.52286
6389.93320,0.52031
6388.00446,0.51978
6386.07571,0.52204
6384.14697,0.52547
6382.21822,0.52800
6380.28948,0.52834
6378.36073,0.52672
6376.43199,0.52443
6374.50324,0.52285
6372.57450,0.52327
6370.64575,0.52510
6368.71700,0.52561
6366.78826,0.52425
6364.85951,0.52373
6362.93077,0.52469
6361.00202,0.52524
6359.07328,0.52556
6357.14453,0.52684
6355.21579,0.52815
6353.28704,0.52800
6351.35830,0.52692
6349.42955,0.52607
6347.50081,0.52567
6345.57206,0.52552
6343.64332,0.52569
6341.71457,0.52683
6339.78582,0.52794
6337.85708,0.52754
6335.92833,0.52697
6333.99959,0.52698
6332.07084,0.52718
6330.14210,0.52768
6328.21335,0.52764
6326.28461,0.52713
6324.35586,0.52713
6322.42712,0.52766
6320.49837,0.52824
6318.56963,0.52806
6316.64088,0.52838
6314.71214,0.53041
6312.78339,0.53272
6310.85465,0.53441
6308.92590,0.53447
6306.99715,0.53266
6305.06841,0.53086
6303.13966,0.52975
6301.21092,0.52917
6299.28217,0.52955
6297.35343,0.53041
6295.42468,0.53129
6293.49594,0.53274
6291.56719,0.53423
6289.63845,0.53504
6287.70970,0.53602
6285.78096,0.53689
6283.85221,0.53663
6281.92347,0.53619
6279.99472,0.53681
6278.06598,0.53817
6276.13723,0.53901
6274.20848,0.53904
6272.27974,0.53904
6270.35099,0.53962
6268.42225,0.54044
6266.49350,0.54055
6264.56476,0.54039
6262.63601,0.54120
6260.70727,0.54249
6258.77852,0.54296
6256.84978,0.54175
6254.92103,0.53998
6252.99229,0.54005
6251.06354,0.54165
6249.13480,0.54342
6247.20605,0.54579
6245.27730,0.54852
6243.34856,0.54998
6241.41981,0.54913
6239.49107,0.54730
6237.56232,0.54653
6235.63358,0.54748
6233.70483,0.54986
6231.77609,0.55155
6229.84734,0.55082
6227.91860,0.54952
6225.98985,0.55001
6224.06111,0.55221
6222.13236,0.55386
6220.20362,0.55401
6218.27487,0.55459
6216.34613,0.55649
6214.41738,0.55899
6212.48863,0.56065
6210.55989,0.56005
6208.63114,0.55859
6206.70240,0.55767
6204.77365,0.55651
6202.84491,0.55548
6200.91616,0.55557
6198.98742,0.55733
6197.05867,0.56038
6195.12993,0.56279
6193.20118,0.56369
6191.27244,0.56358
6189.34369,0.56288
6187.41495,0.56247
6185.48620,0.56266
6183.55746,0.56309
6181.62871,0.56344
6179.69996,0.56283
6177.77122,0.56203
6175.84247,0.56314
6173.91373,0.56627
6171.98498,0.56915
6170.05624,0.56939
6168.12749,0.56779
6166.19875,0.56687
6164.27000,0.56715
6162.34126,0.56814
6160.41251,0.56902
6158.48377,0.56924
6156.55502,0.56950
6154.62628,0.57002
6152.69753,0.57037
6150.76878,0.57115
6148.84004,0.57304
6146.91129,0.57503
6144.98255,0.57609
6143.05380,0.57632
6141.12506,0.57548
6139.19631,0.57433
6137.26757,0.57421
6135.33882,0.57376
6133.41008,0.57233
6131.48133,0.57244
6129.55259,0.57439
6127.62384,0.57547
6125.69510,0.57513
6123.76635,0.57505
6121.83761,0.57593
6119.90886,0.57714
6117.98011,0.57763
6116.05137,0.57640
6114.12262,0.57463
6112.19388,0.57495
6110.26513,0.57714
6108.33639,0.57880
6106.40764,0.57889
6104.47890,0.57815
6102.55015,0.57738
6100.62141,0.57675
6098.69266,0.57666
6096.76392,0.57732
6094.83517,0.57759
6092.90643,0.57654
6090.97768,0.57527
6089.04893,0.57486
6087.12019,0.57521
6085.19144,0.57601
6083.26270,0.57656
6081.33395,0.57684
6079.40521,0.57714
6077.47646,0.57678
6075.54772,0.57582
6073.61897,0.57545
6071.69023,0.57628
6069.76148,0.57736
6067.83274,0.57724
6065.90399,0.57603
6063.97525,0.57547
6062.04650,0.57619
6060.11776,0.57636
6058.18901,0.57541
6056.26026,0.57512
6054.33152,0.57547
6052.40277,0.57517
6050.47403,0.57463
6048.54528,0.57449
6046.61654,0.57429
6044.68779,0.57350
6042.75905,0.57219
6040.83030,0.57065
6038.90156,0.56979
6036.97281,0.57077
6035.04407,0.57198
6033.11532,0.57110
6031.18658,0.56984
6029.25783,0.56978
6027.32909,0.56935
6025.40034,0.56778
6023.47159,0.56625
6021.54285,0.56553
6019.61410,0.56530
6017.68536,0.56577
6015.75661,0.56684
6013.82787,0.56696
6011.89912,0.56597
6009.97038,0.56499
6008.04163,0.56422
6006.11289,0.56372
6004.18414,0.56323
6002.25540,0.56239
6000.32665,0.56146
5998.39791,0.56052
5996.46916,0.55989
5994.54041,0.55930
5992.61167,0.55767
5990.68292,0.55596
5988.75418,0.55585
5986.82543,0.55666
5984.89669,0.55673
5982.96794,0.55618
5981.03920,0.55628
5979.11045,0.55694
5977.18171,0.55667
5975.25296,0.55491
5973.32422,0.55369
5971.39547,0.55488
5969.46673,0.55650
5967.53798,0.55608
5965.60924,0.55479
5963.68049,0.55419
5961.75174,0.55359
5959.82300,0.55313
5957.89425,0.55337
5955.96551,0.55319
5954.03676,0.55250
5952.10802,0.55199
5950.17927,0.55103
5948.25053,0.54987
5946.32178,0.55002
5944.39304,0.55119
5942.46429,0.55178
5940.53555,0.55182
5938.60680,0.55164
5936.67806,0.55098
5934.74931,0.55056
5932.82057,0.55109
5930.89182,0.55205
5928.96307,0.55234
5927.03433,0.55214
5925.10558,0.55231
5923.17684,0.55204
5921.24809,0.55032
5919.31935,0.54883
5917.39060,0.54945
5915.46186,0.55049
5913.53311,0.54952
5911.60437,0.54774
5909.67562,0.54756
5907.74688,0.54841
5905.81813,0.54878
5903.88939,0.54884
5901.96064,0.54883
5900.03189,0.54877
5898.10315,0.54822
5896.17440,0.54672
5894.24566,0.54563
5892.31691,0.54606
5890.38817,0.54718
5888.45942,0.54773
5886.53068,0.54729
5884.60193,0.54652
5882.67319,0.54585
5880.74444,0.54554
5878.81570,0.54560
5876.88695,0.54570
5874.95821,0.54609
5873.02946,0.54682
5871.10072,0.54730
5869.17197,0.54695
5867.24322,0.54588
5865.31448,0.54495
5863.38573,0.54450
5861.45699,0.54438
5859.52824,0.54480
5857.59950,0.54543
5855.67075,0.54556
5853.74201,0.54569
5851.81326,0.54608
5849.88452,0.54551
5847.95577,0.54427
5846.02703,0.54376
5844.09828,0.54366
5842.16954,0.54377
5840.24079,0.54455
5838.31205,0.54528
5836.38330,0.54507
5834.45455,0.54344
5832.52581,0.54108
5830.59706,0.53953
5828.66832,0.53870
5826.73957,0.53803
5824.81083,0.53756
5822.88208,0.53682
5820.95334,0.53602
5819.02459,0.53602
5817.09585,0.53652
5815.16710,0.53607
5813.23836,0.53459
5811.30961,0.53403
5809.38087,0.53524
5807.45212,0.53676
5805.52337,0.53688
5803.59463,0.53593
5801.66588,0.53550
5799.73714,0.53594
5797.80839,0.53677
5795.87965,0.53745
5793.95090,0.53731
5792.02216,0.53675
5790.09341,0.53697
5788.16467,0.53843
5786.23592,0.54014
5784.30718,0.54077
5782.37843,0.54074
5780.44969,0.54092
5778.52094,0.54088
5776.59220,0.54082
5774.66345,0.54129
5772.73470,0.54165
5770.80596,0.54159
5768.87721,0.54179
5766.94847,0.54273
5765.01972,0.54418
5763.09098,0.54515
5761.16223,0.54547
5759.23349,0.54602
5757.30474,0.54657
5755.37600,0.54622
5753.44725,0.54577
5751.51851,0.54604
5749.58976,0.54608
5747.66102,0.54522
5745.73227,0.54417
5743.80352,0.54373
5741.87478,0.54428
5739.94603,0.54559
5738.01729,0.54689
5736.08854,0.54722
5734.15980,0.54643
5732.23105,0.54558
5730.30231,0.54539
5728.37356,0.54519
5726.44482,0.54473
5724.51607,0.54474
5722.58733,0.54496
5720.65858,0.54456
5718.72984,0.54455
5716.80109,0.54571
5714.87235,0.54665
5712.94360,0.54648
5711.01485,0.54569
5709.08611,0.54453
5707.15736,0.54324
5705.22862,0.54268
5703.29987,0.54334
5701.37113,0.54434
5699.44238,0.54474
5697.51364,0.54498
5695.58489,0.54553
5693.65615,0.54553
5691.72740,0.54417
5689.79866,0.54243
5687.86991,0.54201
5685.94117,0.54220
5684.01242,0.54134
5682.08368,0.54024
5680.15493,0.54080
5678.22618,0.54240
5676.29744,0.54283
5674.36869,0.54197
5672.43995,0.54106
5670.51120,0.54031
5668.58246,0.53989
5666.65371,0.54024
5664.72497,0.54090
5662.79622,0.54108
5660.86748,0.54102
5658.93873,0.54146
5657.00999,0.54167
5655.08124,0.54068
5653.15250,0.53977
5651.22375,0.53985
5649.29500,0.54009
5647.36626,0.53995
5645.43751,0.53944
5643.50877,0.53883
5641.58002,0.53852
5639.65128,0.53873
5637.72253,0.53902
5635.79379,0.53867
5633.86504,0.53823
5631.93630,0.53841
5630.00755,0.53897
5628.07881,0.53953
5626.15006,0.53955
5624.22132,0.53913
5622.29257,0.53879
5620.36383,0.53857
5618.43508,0.53780
5616.50633,0.53655
5614.57759,0.53635
5612.64884,0.53714
5610.72010,0.53744
5608.79135,0.53746
5606.86261,0.53779
5604.93386,0.53776
5603.00512,0.53735
5601.07637,0.53751
5599.14763,0.53818
5597.21888,0.53891
5595.29014,0.53974
5593.36139,0.54038
5591.43265,0.54008
5589.50390,0.53872
5587.57516,0.53763
5585.64641,0.53788
5583.71766,0.53881
5581.78892,0.53956
5579.86017,0.54023
5577.93143,0.54093
5576.00268,0.54138
5574.07394,0.54129
5572.14519,0.54086
5570.21645,0.54078
5568.28770,0.54090
5566.35896,0.54080
5564.43021,0.54107
5562.50147,0.54182
5560.57272,0.54257
5558.64398,0.54348
5556.71523,0.54474
5554.78648,0.54580
5552.85774,0.54592
5550.92899,0.54505
5549.00025,0.54414
5547.07150,0.54375
5545.14276,0.54393
5543.21401,0.54507
5541.28527,0.54635
5539.35652,0.54696
5537.42778,0.54744
5535.49903,0.54761
5533.57029,0.54729
5531.64154,0.54693
5529.71280,0.54674
5527.78405,0.54672
5525.85531,0.54659
5523.92656,0.54621
5521.99781,0.54548
5520.06907,0.54451
5518.14032,0.54412
5516.21158,0.54508
5514.28283,0.54687
5512.35409,0.54793
5510.42534,0.54781
5508.49660,0.54768
5506.56785,0.54832
5504.63911,0.54906
5502.71036,0.54949
5500.78162,0.54985
5498.85287,0.54959
5496.92413,0.54852
5494.99538,0.54762
5493.06664,0.54757
5491.13789,0.54785
5489.20914,0.54800
5487.28040,0.54836
5485.35165,0.54900
5483.42291,0.54939
5481.49416,0.54960
5479.56542,0.55015
5477.63667,0.55063
5475.70793,0.55041
5473.77918,0.54977
5471.85044,0.54944
5469.92169,0.54994
5467.99295,0.55083
5466.06420,0.55152
5464.13546,0.55174
5462.20671,0.55174
5460.27796,0.55311
5458.34922,0.55530
5456.42047,0.55568
5454.49173,0.55465
5452.56298,0.55412
5450.63424,0.55458
5448.70549,0.55571
5446.77675,0.55667
5444.84800,0.55683
5442.91926,0.55698
5440.99051,0.55742
5439.06177,0.55731
5437.13302,0.55702
5435.20428,0.55754
5433.27553,0.55839
5431.34679,0.55900
5429.41804,0.55960
5427.48929,0.55979
5425.56055,0.55942
5423.63180,0.55964
5421.70306,0.56077
5419.77431,0.56163
5417.84557,0.56173
5415.91682,0.56224
5413.98808,0.56382
5412.05933,0.56452
5410.13059,0.56330
5408.20184,0.56175
5406.27310,0.56085
5404.34435,0.56101
5402.41561,0.56268
5400.48686,0.56490
5398.55811,0.56595
5396.62937,0.56534
5394.70062,0.56435
5392.77188,0.56420
5390.84313,0.56441
5388.91439,0.56422
5386.98564,0.56392
5385.05690,0.56415
5383.12815,0.56479
5381.19941,0.56459
5379.27066,0.56317
5377.34192,0.56173
5375.41317,0.56132
5373.48443,0.56170
5371.55568,0.56201
5369.62694,0.56205
5367.69819,0.56218
5365.76944,0.56192
5363.84070,0.56063
5361.91195,0.55940
5359.98321,0.55928
5358.05446,0.55931
5356.12572,0.55843
5354.19697,0.55695
5352.26823,0.55568
5350.33948,0.55493
5348.41074,0.55469
5346.48199,0.55483
5344.55325,0.55449
5342.62450,0.55336
5340.69576,0.55234
5338.76701,0.55156
5336.83827,0.55060
5334.90952,0.54955
5332.98077,0.54855
5331.05203,0.54760
5329.12328,0.54625
5327.19454,0.54393
5325.26579,0.54125
5323.33705,0.53927
5321.40830,0.53770
5319.47956,0.53549
5317.55081,0.53279
5315.62207,0.53079
5313.69332,0.52965
5311.76458,0.52827
5309.83583,0.52588
5307.90709,0.52271
5305.97834,0.51929
5304.04959,0.51572
5302.12085,0.51193
5300.19210,0.50814
5298.26336,0.50467
5296.33461,0.50101
5294.40587,0.49659
5292.47712,0.49220
5290.54838,0.48839
5288.61963,0.48470
5286.69089,0.48102
5284.76214,0.47709
5282.83340,0.47252
5280.90465,0.46772
5278.97591,0.46295
5277.04716,0.45808
5275.11842,0.45334
5273.18967,0.44901
5271.26092,0.44478
5269.33218,0.43978
5267.40343,0.43387
5265.47469,0.42807
5263.54594,0.42314
5261.61720,0.41901
5259.68845,0.41522
5257.75971,0.41160
5255.83096,0.40815
5253.90222,0.40450
5251.97347,0.40031
5250.04473,0.39609
5248.11598,0.39297
5246.18724,0.39110
5244.25849,0.38924
5242.32975,0.38648
5240.40100,0.38301
5238.47225,0.37967
5236.54351,0.37719
5234.61476,0.37519
5232.68602,0.37277
5230.75727,0.36987
5228.82853,0.36725
5226.89978,0.36569
5224.97104,0.36520
5223.04229,0.36478
5221.11355,0.36370
5219.18480,0.36250
5217.25606,0.36162
5215.32731,0.36067
5213.39857,0.35988
5211.46982,0.35950
5209.54107,0.35867
5207.61233,0.35745
5205.68358,0.35681
5203.75484,0.35668
5201.82609,0.35638
5199.89735,0.35593
5197.96860,0.35590
5196.03986,0.35582
5194.11111,0.35481
5192.18237,0.35384
5190.25362,0.35425
5188.32488,0.35530
5186.39613,0.35574
5184.46739,0.35573
5182.53864,0.35585
5180.60990,0.35600
5178.68115,0.35616
5176.75240,0.35698
5174.82366,0.35831
5172.89491,0.35910
5170.96617,0.35943
5169.03742,0.36028
5167.10868,0.36165
5165.17993,0.36278
5163.25119,0.36376
5161.32244,0.36487
5159.39370,0.36562
5157.46495,0.36591
5155.53621,0.36656
5153.60746,0.36780
5151.67872,0.36933
5149.74997,0.37127
5147.82123,0.37329
5145.89248,0.37419
5143.96373,0.37396
5142.03499,0.37445
5140.10624,0.37640
5138.17750,0.37851
5136.24875,0.38033
5134.32001,0.38203
5132.39126,0.38285
5130.46252,0.38297
5128.53377,0.38373
5126.60503,0.38522
5124.67628,0.38632
5122.74754,0.38713
5120.81879,0.38831
5118.89005,0.38964
5116.96130,0.39061
5115.03255,0.39139
5113.10381,0.39234
5111.17506,0.39340
5109.24632,0.39460
5107.31757,0.39631
5105.38883,0.39850
5103.46008,0.40037
5101.53134,0.40139
5099.60259,0.40216
5097.67385,0.40302
5095.74510,0.40370
5093.81636,0.40448
5091.88761,0.40580
5089.95887,0.40727
5088.03012,0.40850
5086.10138,0.40979
5084.17263,0.41104
5082.24388,0.41194
5080.31514,0.41281
5078.38639,0.41358
5076.45765,0.41392
5074.52890,0.41469
5072.60016,0.41677
5070.67141,0.41878
5068.74267,0.41939
5066.81392,0.41966
5064.88518,0.42074
5062.95643,0.42202
5061.02769,0.42293
5059.09894,0.42419
5057.17020,0.42591
5055.24145,0.42723
5053.31270,0.42783
5051.38396,0.42823
5049.45521,0.42872
5047.52647,0.42931
5045.59772,0.43018
5043.66898,0.43166
5041.74023,0.43349
5039.81149,0.43483
5037.88274,0.43563
5035.95400,0.43634
5034.02525,0.43678
5032.09651,0.43728
5030.16776,0.43839
5028.23902,0.43974
5026.31027,0.44081
5024.38153,0.44148
5022.45278,0.44209
5020.52403,0.44284
5018.59529,0.44340
5016.66654,0.44364
5014.73780,0.44412
5012.80905,0.44517
5010.88031,0.44617
5008.95156,0.44648
5007.02282,0.44649
5005.09407,0.44661
5003.16533,0.44674
5001.23658,0.44713
4999.30784,0.44791
4997.37909,0.44864
4995.45035,0.44909
4993.52160,0.44896
4991.59286,0.44839
4989.66411,0.44799
4987.73536,0.44792
4985.80662,0.44818
4983.87787,0.44881
4981.94913,0.44946
4980.02038,0.44963
4978.09164,0.44924
4976.16289,0.44861
4974.23415,0.44808
4972.30540,0.44778
4970.37666,0.44760
4968.44791,0.44712
4966.51917,0.44623
4964.59042,0.44540
4962.66168,0.44448
4960.73293,0.44306
4958.80418,0.44174
4956.87544,0.44100
4954.94669,0.44040
4953.01795,0.43961
4951.08920,0.43867
4949.16046,0.43745
4947.23171,0.43603
4945.30297,0.43484
4943.37422,0.43361
4941.44548,0.43180
4939.51673,0.42970
4937.58799,0.42782
4935.65924,0.42632
4933.73050,0.42489
4931.80175,0.42342
4929.87301,0.42217
4927.94426,0.42093
4926.01551,0.41929
4924.08677,0.41735
4922.15802,0.41559
4920.22928,0.41419
4918.30053,0.41271
4916.37179,0.41094
4914.44304,0.40937
4912.51430,0.40811
4910.58555,0.40674
4908.65681,0.40523
4906.72806,0.40385
4904.79932,0.40223
4902.87057,0.40001
4900.94183,0.39765
4899.01308,0.39577
4897.08434,0.39434
4895.15559,0.39306
4893.22684,0.39185
4891.29810,0.39056
4889.36935,0.38887
4887.44061,0.38700
4885.51186,0.38539
4883.58312,0.38367
4881.65437,0.38161
4879.72563,0.37968
4877.79688,0.37795
4875.86814,0.37625
4873.93939,0.37450
4872.01065,0.37295
4870.08190,0.37216
4868.15316,0.37161
4866.22441,0.37031
4864.29566,0.36830
4862.36692,0.36631
4860.43817,0.36501
4858.50943,0.36416
4856.58068,0.36302
4854.65194,0.36162
4852.72319,0.36035
4850.79445,0.35916
4848.86570,0.35797
4846.93696,0.35690
4845.00821,0.35592
4843.07947,0.35470
4841.15072,0.35309
4839.22198,0.35138
4837.29323,0.35015
4835.36449,0.34940
4833.43574,0.34862
4831.50699,0.34775
4829.57825,0.34669
4827.64950,0.34555
4825.72076,0.34499
4823.79201,0.34483
4821.86327,0.34422
4819.93452,0.34322
4818.00578,0.34243
4816.07703,0.34200
4814.14829,0.34146
4812.21954,0.34054
4810.29080,0.33957
4808.36205,0.33862
4806.43331,0.33778
4804.50456,0.33731
4802.57582,0.33719
4800.64707,0.33715
4798.71832,0.33684
4796.78958,0.33632
4794.86083,0.33600
4792.93209,0.33583
4791.00334,0.33556
4789.07460,0.33525
4787.14585,0.33486
4785.21711,0.33425
4783.28836,0.33399
4781.35962,0.33443
4779.43087,0.33468
4777.50213,0.33403
4775.57338,0.33303
4773.64464,0.33243
4771.71589,0.33242
4769.78714,0.33253
4767.85840,0.33222
4765.92965,0.33161
4764.00091,0.33104
4762.07216,0.33065
4760.14342,0.33063
4758.21467,0.33090
4756.28593,0.33117
4754.35718,0.33135
4752.42844,0.33162
4750.49969,0.33178
4748.57095,0.33157
4746.64220,0.33121
4744.71346,0.33107
4742.78471,0.33129
4740.85597,0.33130
4738.92722,0.33074
4736.99847,0.33047
4735.06973,0.33081
4733.14098,0.33127
4731.21224,0.33199
4729.28349,0.33293
4727.35475,0.33316
4725.42600,0.33244
4723.49726,0.33171
4721.56851,0.33170
4719.63977,0.33231
4717.71102,0.33294
4715.78228,0.33311
4713.85353,0.33311
4711.92479,0.33351
4709.99604,0.33400
4708.06729,0.33417
4706.13855,0.33428
4704.20980,0.33426
4702.28106,0.33413
4700.35231,0.33445
4698.42357,0.33516
4696.49482,0.33559
4694.56608,0.33566
4692.63733,0.33599
4690.70859,0.33637
4688.77984,0.33613
4686.85110,0.33574
4684.92235,0.33589
4682.99361,0.33659
4681.06486,0.33736
4679.13612,0.33783
4677.20737,0.33842
4675.27862,0.33955
4673.34988,0.34079
4671.42113,0.34178
4669.49239,0.34255
4667.56364,0.34301
4665.63490,0.34344
4663.70615,0.34431
4661.77741,0.34535
4659.84866,0.34602
4657.91992,0.34639
4655.99117,0.34688
4654.06243,0.34787
4652.13368,0.34919
4650.20494,0.35028
4648.27619,0.35111
4646.34745,0.35182
4644.41870,0.35241
4642.48995,0.35318
4640.56121,0.35404
4638.63246,0.35468
4636.70372,0.35524
4634.77497,0.35598
4632.84623,0.35669
4630.91748,0.35697
4628.98874,0.35707
4627.05999,0.35764
4625.13125,0.35868
4623.20250,0.35978
4621.27376,0.36093
4619.34501,0.36208
4617.41627,0.36283
4615.48752,0.36329
4613.55877,0.36409
4611.63003,0.36506
4609.70128,0.36566
4607.77254,0.36625
4605.84379,0.36722
4603.91505,0.36807
4601.98630,0.36841
4600.05756,0.36875
4598.12881,0.36953
4596.20007,0.37038
4594.27132,0.37099
4592.34258,0.37145
4590.41383,0.37179
4588.48509,0.37198
4586.55634,0.37222
4584.62760,0.37289
4582.69885,0.37381
4580.77010,0.37445
4578.84136,0.37470
4576.91261,0.37500
4574.98387,0.37574
4573.05512,0.37657
4571.12638,0.37704
4569.19763,0.37715
4567.26889,0.37724
4565.34014,0.37781
4563.41140,0.37881
4561.48265,0.37941
4559.55391,0.37927
4557.62516,0.37925
4555.69642,0.38006
4553.76767,0.38120
4551.83893,0.38185
4549.91018,0.38197
4547.98143,0.38209
4546.05269,0.38237
4544.12394,0.38269
4542.19520,0.38311
4540.26645,0.38341
4538.33771,0.38352
4536.40896,0.38388
4534.48022,0.38440
4532.55147,0.38471
4530.62273,0.38491
4528.69398,0.38504
4526.76524,0.38511
4524.83649,0.38513
4522.90775,0.38503
4520.97900,0.38499
4519.05025,0.38517
4517.12151,0.38532
4515.19276,0.38526
4513.26402,0.38513
4511.33527,0.38489
4509.40653,0.38448
4507.47778,0.38401
4505.54904,0.38343
4503.62029,0.38267
4501.69155,0.38179
4499.76280,0.38091
4497.83406,0.38024
4495.90531,0.37954
4493.97657,0.37848
4492.04782,0.37724
4490.11908,0.37582
4488.19033,0.37400
4486.26158,0.37199
4484.33284,0.37023
4482.40409,0.36861
4480.47535,0.36680
4478.54660,0.36485
4476.61786,0.36276
4474.68911,0.36034
4472.76037,0.35766
4470.83162,0.35524
4468.90288,0.35308
4466.97413,0.35053
4465.04539,0.34771
4463.11664,0.34524
4461.18790,0.34284
4459.25915,0.34026
4457.33041,0.33776
4455.40166,0.33523
4453.47291,0.33252
4451.54417,0.32979
4449.61542,0.32717
4447.68668,0.32463
4445.75793,0.32225
4443.82919,0.32018
4441.90044,0.31828
4439.97170,0.31647
4438.04295,0.31470
4436.11421,0.31271
4434.18546,0.31072
4432.25672,0.30908
4430.32797,0.30757
4428.39923,0.30610
4426.47048,0.30465
4424.54173,0.30311
4422.61299,0.30141
4420.68424,0.29963
4418.75550,0.29815
4416.82675,0.29734
4414.89801,0.29691
4412.96926,0.29649
4411.04052,0.29621
4409.11177,0.29591
4407.18303,0.29522
4405.25428,0.29438
4403.32554,0.29364
4401.39679,0.29325
4399.46805,0.29342
4397.53930,0.29371
4395.61056,0.29367
4393.68181,0.29354
4391.75306,0.29356
4389.82432,0.29375
4387.89557,0.29416
4385.96683,0.29473
4384.03808,0.29533
4382.10934,0.29610
4380.18059,0.29687
4378.25185,0.29724
4376.32310,0.29765
4374.39436,0.29848
4372.46561,0.29936
4370.53687,0.30022
4368.60812,0.30110
4366.67938,0.30176
4364.75063,0.30209
4362.82189,0.30232
4360.89314,0.30249
4358.96439,0.30234
4357.03565,0.30208
4355.10690,0.30192
4353.17816,0.30168
4351.24941,0.30132
4349.32067,0.30071
4347.39192,0.29963
4345.46318,0.29879
4343.53443,0.29883
4341.60569,0.29886
4339.67694,0.29826
4337.74820,0.29746
4335.81945,0.29666
4333.89071,0.29584
4331.96196,0.29513
4330.03321,0.29477
4328.10447,0.29456
4326.17572,0.29377
4324.24698,0.29253
4322.31823,0.29156
4320.38949,0.29088
4318.46074,0.29009
4316.53200,0.28912
4314.60325,0.28819
4312.67451,0.28735
4310.74576,0.28644
4308.81702,0.28567
4306.88827,0.28503
4304.95953,0.28434
4303.03078,0.28380
4301.10204,0.28359
4299.17329,0.28342
4297.24454,0.28291
4295.31580,0.28222
4293.38705,0.28173
4291.45831,0.28149
4289.52956,0.28132
4287.60082,0.28111
4285.67207,0.28104
4283.74333,0.28132
4281.81458,0.28187
4279.88584,0.28221
4277.95709,0.28215
4276.02835,0.28208
4274.09960,0.28208
4272.17086,0.28196
4270.24211,0.28188
4268.31336,0.28212
4266.38462,0.28269
4264.45587,0.28326
4262.52713,0.28368
4260.59838,0.28413
4258.66964,0.28474
4256.74089,0.28527
4254.81215,0.28545
4252.88340,0.28554
4250.95466,0.28560
4249.02591,0.28550
4247.09717,0.28548
4245.16842,0.28566
4243.23968,0.28581
4241.31093,0.28591
4239.38219,0.28615
4237.45344,0.28659
4235.52469,0.28693
4233.59595,0.28700
4231.66720,0.28702
4229.73846,0.28728
4227.80971,0.28759
4225.88097,0.28779
4223.95222,0.28807
4222.02348,0.28853
4220.09473,0.28883
4218.16599,0.28889
4216.23724,0.28888
4214.30850,0.28880
4212.37975,0.28882
4210.45101,0.28909
4208.52226,0.28925
4206.59352,0.28917
4204.66477,0.28909
4202.73602,0.28913
4200.80728,0.28926
4198.87853,0.28943
4196.94979,0.28953
4195.02104,0.28954
4193.09230,0.28951
4191.16355,0.28924
4189.23481,0.28892
4187.30606,0.28901
4185.37732,0.28938
4183.44857,0.28974
4181.51983,0.29016
4179.59108,0.29058
4177.66234,0.29082
4175.73359,0.29109
4173.80484,0.29140
4171.87610,0.29165
4169.94735,0.29173
4168.01861,0.29156
4166.08986,0.29152
4164.16112,0.29175
4162.23237,0.29176
4160.30363,0.29138
4158.37488,0.29106
4156.44614,0.29101
4154.51739,0.29094
4152.58865,0.29060
4150.65990,0.28991
4148.73116,0.28898
4146.80241,0.28815
4144.87367,0.28752
4142.94492,0.28683
4141.01617,0.28599
4139.08743,0.28519
4137.15868,0.28450
4135.22994,0.28356
4133.30119,0.28230
4131.37245,0.28105
4129.44370,0.27983
4127.51496,0.27861
4125.58621,0.27748
4123.65747,0.27644
4121.72872,0.27545
4119.79998,0.27432
4117.87123,0.27295
4115.94249,0.27150
4114.01374,0.27018
4112.08500,0.26904
4110.15625,0.26783
4108.22750,0.26658
4106.29876,0.26533
4104.37001,0.26384
4102.44127,0.26227
4100.51252,0.26094
4098.58378,0.25975
4096.65503,0.25850
4094.72629,0.25704
4092.79754,0.25536
4090.86880,0.25368
4088.94005,0.25222
4087.01131,0.25100
4085.08256,0.24983
4083.15382,0.24854
4081.22507,0.24707
4079.29632,0.24529
4077.36758,0.24332
4075.43883,0.24163
4073.51009,0.24028
4071.58134,0.23889
4069.65260,0.23726
4067.72385,0.23559
4065.79511,0.23408
4063.86636,0.23255
4061.93762,0.23096
4060.00887,0.22958
4058.08013,0.22830
4056.15138,0.22693
4054.22264,0.22567
4052.29389,0.22437
4050.36515,0.22298
4048.43640,0.22179
4046.50765,0.22077
4044.57891,0.21985
4042.65016,0.21907
4040.72142,0.21825
4038.79267,0.21742
4036.86393,0.21665
4034.93518,0.21574
4033.00644,0.21496
4031.07769,0.21442
4029.14895,0.21371
4027.22020,0.21277
4025.29146,0.21199
4023.36271,0.21142
4021.43397,0.21095
4019.50522,0.21062
4017.57648,0.21026
4015.64773,0.20982
4013.71898,0.20972
4011.79024,0.20994
4009.86149,0.21004
4007.93275,0.21001
4006.00400,0.21000
4004.07526,0.21000
4002.14651,0.21020
4000.21777,0.21069
3998.28902,0.21111
3996.36028,0.21139
3994.43153,0.21181
3992.50279,0.21220
3990.57404,0.21244
3988.64530,0.21284
3986.71655,0.21338
3984.78780,0.21383
3982.85906,0.21430
3980.93031,0.21479
3979.00157,0.21511
3977.07282,0.21539
3975.14408,0.21581
3973.21533,0.21625
3971.28659,0.21675
3969.35784,0.21740
3967.42910,0.21797
3965.50035,0.21839
3963.57161,0.21888
3961.64286,0.21960
3959.71412,0.22051
3957.78537,0.22138
3955.85663,0.22202
3953.92788,0.22251
3951.99913,0.22301
3950.07039,0.22364
3948.14164,0.22453
3946.21290,0.22567
3944.28415,0.22668
3942.35541,0.22725
3940.42666,0.22757
3938.49792,0.22793
3936.56917,0.22840
3934.64043,0.22911
3932.71168,0.23007
3930.78294,0.23089
3928.85419,0.23150
3926.92545,0.23220
3924.99670,0.23306
3923.06795,0.23399
3921.13921,0.23478
3919.21046,0.23529
3917.28172,0.23568
3915.35297,0.23633
3913.42423,0.23721
3911.49548,0.23800
3909.56674,0.23879
3907.63799,0.23981
3905.70925,0.24085
3903.78050,0.24144
3901.85176,0.24172
3899.92301,0.24204
3897.99427,0.24238
3896.06552,0.24302
3894.13678,0.24409
3892.20803,0.24526
3890.27928,0.24623
3888.35054,0.24674
3886.42179,0.24696
3884.49305,0.24741
3882.56430,0.24813
3880.63556,0.24880
3878.70681,0.24944
3876.77807,0.25022
3874.84932,0.25088
3872.92058,0.25139
3870.99183,0.25197
3869.06309,0.25254
3867.13434,0.25330
3865.20560,0.25458
3863.27685,0.25603
3861.34811,0.25692
3859.41936,0.25730
3857.49061,0.25787
3855.56187,0.25872
3853.63312,0.25924
3851.70438,0.25967
3849.77563,0.26054
3847.84689,0.26142
3845.91814,0.26215
3843.98940,0.26289
3842.06065,0.26353
3840.13191,0.26409
3838.20316,0.26470
3836.27442,0.26514
3834.34567,0.26543
3832.41693,0.26580
3830.48818,0.26608
3828.55943,0.26623
3826.63069,0.26633
3824.70194,0.26644
3822.77320,0.26641
3820.84445,0.26610
3818.91571,0.26592
3816.98696,0.26598
3815.05822,0.26607
3813.12947,0.26626
3811.20073,0.26652
3809.27198,0.26659
3807.34324,0.26625
3805.41449,0.26577
3803.48575,0.26568
3801.55700,0.26559
3799.62826,0.26517
3797.69951,0.26481
3795.77076,0.26454
3793.84202,0.26420
3791.91327,0.26374
3789.98453,0.26310
3788.05578,0.26254
3786.12704,0.26223
3784.19829,0.26177
3782.26955,0.26103
3780.34080,0.26041
3778.41206,0.25999
3776.48331,0.25955
3774.55457,0.25903
3772.62582,0.25851
3770.69708,0.25792
3768.76833,0.25707
3766.83959,0.25604
3764.91084,0.25515
3762.98209,0.25459
3761.05335,0.25412
3759.12460,0.25344
3757.19586,0.25284
3755.26711,0.25228
3753.33837,0.25139
3751.40962,0.25001
3749.48088,0.24864
3747.55213,0.24807
3745.62339,0.24760
3743.69464,0.24631
3741.76590,0.24506
3739.83715,0.24443
3737.90841,0.24373
3735.97966,0.24229
3734.05091,0.24041
3732.12217,0.23868
3730.19342,0.23725
3728.26468,0.23593
3726.33593,0.23437
3724.40719,0.23254
3722.47844,0.23081
3720.54970,0.22928
3718.62095,0.22758
3716.69221,0.22549
3714.76346,0.22328
3712.83472,0.22102
3710.90597,0.21854
3708.97723,0.21607
3707.04848,0.21352
3705.11974,0.21067
3703.19099,0.20768
3701.26224,0.20461
3699.33350,0.20139
3697.40475,0.19809
3695.47601,0.19473
3693.54726,0.19122
3691.61852,0.18736
3689.68977,0.18297
3687.76103,0.17810
3685.83228,0.17337
3683.90354,0.16913
3681.97479,0.16500
3680.04605,0.16069
3678.11730,0.15627
3676.18856,0.15153
3674.25981,0.14678
3672.33107,0.14252
3670.40232,0.13791
3668.47357,0.13302
3666.54483,0.12900
3664.61608,0.12558
3662.68734,0.12202
3660.75859,0.11832
3658.82985,0.11486
3656.90110,0.11161
3654.97236,0.10857
3653.04361,0.10613
3651.11487,0.10379
3649.18612,0.10096
3647.25738,0.09828
3645.32863,0.09618
3643.39989,0.09423
3641.47114,0.09221
3639.54239,0.09028
3637.61365,0.08843
3635.68490,0.08657
3633.75616,0.08503
3631.82741,0.08390
3629.89867,0.08257
3627.96992,0.08087
3626.04118,0.07958
3624.11243,0.07860
3622.18369,0.07733
3620.25494,0.07574
3618.32620,0.07432
3616.39745,0.07322
3614.46871,0.07202
3612.53996,0.07071
3610.61122,0.06970
3608.68247,0.06888
3606.75372,0.06808
3604.82498,0.06727
3602.89623,0.06613
3600.96749,0.06473
3599.03874,0.06352
3597.11000,0.06259
3595.18125,0.06200
3593.25251,0.06173
3591.32376,0.06133
3589.39502,0.06048
3587.46627,0.05940
3585.53753,0.05867
3583.60878,0.05835
3581.68004,0.05782
3579.75129,0.05683
3577.82254,0.05583
3575.89380,0.05512
3573.96505,0.05452
3572.03631,0.05401
3570.10756,0.05379
3568.17882,0.05368
3566.25007,0.05321
3564.32133,0.05240
3562.39258,0.05172
3560.46384,0.05134
3558.53509,0.05090
3556.60635,0.05020
3554.67760,0.04957
3552.74886,0.04904
3550.82011,0.04854
3548.89137,0.04817
3546.96262,0.04773
3545.03387,0.04740
3543.10513,0.04748
3541.17638,0.04745
3539.24764,0.04697
3537.31889,0.04650
3535.39015,0.04631
3533.46140,0.04619
3531.53266,0.04604
3529.60391,0.04588
3527.67517,0.04557
3525.74642,0.04530
3523.81768,0.04517
3521.88893,0.04480
3519.96019,0.04399
3518.03144,0.04323
3516.10270,0.04291
3514.17395,0.04283
3512.24520,0.04299
3510.31646,0.04339
3508.38771,0.04327
3506.45897,0.04245
3504.53022,0.04191
3502.60148,0.04200
3500.67273,0.04218
3498.74399,0.04218
3496.81524,0.04214
3494.88650,0.04216
3492.95775,0.04211
3491.02901,0.04181
3489.10026,0.04138
3487.17152,0.04099
3485.24277,0.04057
3483.31402,0.04019
3481.38528,0.03996
3479.45653,0.03977
3477.52779,0.03959
3475.59904,0.03964
3473.67030,0.03980
3471.74155,0.03957
3469.81281,0.03916
3467.88406,0.03914
3465.95532,0.03917
3464.02657,0.03891
3462.09783,0.03879
3460.16908,0.03897
3458.24034,0.03920
3456.31159,0.03924
3454.38285,0.03920
3452.45410,0.03951
3450.52535,0.03980
3448.59661,0.03945
3446.66786,0.03883
3444.73912,0.03865
3442.81037,0.03887
3440.88163,0.03906
3438.95288,0.03905
3437.02414,0.03889
3435.09539,0.03880
3433.16665,0.03882
3431.23790,0.03890
3429.30916,0.03904
3427.38041,0.03913
3425.45167,0.03919
3423.52292,0.03943
3421.59418,0.03981
3419.66543,0.03995
3417.73668,0.03991
3415.80794,0.03995
3413.87919,0.04006
3411.95045,0.04014
3410.02170,0.03996
3408.09296,0.03954
3406.16421,0.03923
3404.23547,0.03923
3402.30672,0.03957
3400.37798,0.04007
3398.44923,0.04048
3396.52049,0.04065
3394.59174,0.04063
3392.66300,0.04075
3390.73425,0.04092
3388.80550,0.04072
3386.87676,0.04033
3384.94801,0.04026
3383.01927,0.04039
3381.09052,0.04037
3379.16178,0.04038
3377.23303,0.04059
3375.30429,0.04075
3373.37554,0.04080
3371.44680,0.04096
3369.51805,0.04127
3367.58931,0.04154
3365.66056,0.04173
3363.73182,0.04189
3361.80307,0.04190
3359.87433,0.04182
3357.94558,0.04190
3356.01683,0.04209
3354.08809,0.04223
3352.15934,0.04235
3350.23060,0.04249
3348.30185,0.04254
3346.37311,0.04259
3344.44436,0.04295
3342.51562,0.04345
3340.58687,0.04375
3338.65813,0.04399
3336.72938,0.04421
3334.80064,0.04421
3332.87189,0.04411
3330.94315,0.04406
3329.01440,0.04414
3327.08566,0.04431
3325.15691,0.04450
3323.22816,0.04473
3321.29942,0.04496
3319.37067,0.04510
3317.44193,0.04513
3315.51318,0.04500
3313.58444,0.04478
3311.65569,0.04481
3309.72695,0.04518
3307.79820,0.04554
3305.86946,0.04568
3303.94071,0.04563
3302.01197,0.04555
3300.08322,0.04580
3298.15448,0.04651
3296.22573,0.04713
3294.29698,0.04731
3292.36824,0.04722
3290.43949,0.04701
3288.51075,0.04689
3286.58200,0.04704
3284.65326,0.04732
3282.72451,0.04754
3280.79577,0.04768
3278.86702,0.04782
3276.93828,0.04799
3275.00953,0.04799
3273.08079,0.04784
3271.15204,0.04793
3269.22330,0.04828
3267.29455,0.04860
3265.36581,0.04887
3263.43706,0.04916
3261.50831,0.04946
3259.57957,0.04975
3257.65082,0.05007
3255.72208,0.05043
3253.79333,0.05080
3251.86459,0.05108
3249.93584,0.05122
3248.00710,0.05133
3246.07835,0.05152
3244.14961,0.05184
3242.22086,0.05216
3240.29212,0.05231
3238.36337,0.05248
3236.43463,0.05286
3234.50588,0.05331
3232.57713,0.05350
3230.64839,0.05348
3228.71964,0.05364
3226.79090,0.05394
3224.86215,0.05419
3222.93341,0.05433
3221.00466,0.05443
3219.07592,0.05484
3217.14717,0.05550
3215.21843,0.05585
3213.28968,0.05586
3211.36094,0.05592
3209.43219,0.05626
3207.50345,0.05679
3205.57470,0.05718
3203.64596,0.05729
3201.71721,0.05727
3199.78846,0.05743
3197.85972,0.05779
3195.93097,0.05805
3194.00223,0.05827
3192.07348,0.05860
3190.14474,0.05892
3188.21599,0.05919
3186.28725,0.05953
3184.35850,0.05982
3182.42976,0.05983
3180.50101,0.05989
3178.57227,0.06042
3176.64352,0.06109
3174.71478,0.06154
3172.78603,0.06175
3170.85729,0.06176
3168.92854,0.06167
3166.99979,0.06182
3165.07105,0.06227
3163.14230,0.06265
3161.21356,0.06294
3159.28481,0.06338
3157.35607,0.06385
3155.42732,0.06429
3153.49858,0.06470
3151.56983,0.06485
3149.64109,0.06475
3147.71234,0.06491
3145.78360,0.06555
3143.85485,0.06610
3141.92611,0.06621
3139.99736,0.06617
3138.06861,0.06627
3136.13987,0.06656
3134.21112,0.06709
3132.28238,0.06765
3130.35363,0.06786
3128.42489,0.06792
3126.49614,0.06826
3124.56740,0.06885
3122.63865,0.06928
3120.70991,0.06941
3118.78116,0.06961
3116.85242,0.07002
3114.92367,0.07049
3112.99493,0.07086
3111.06618,0.07103
3109.13744,0.07118
3107.20869,0.07147
3105.27994,0.07181
3103.35120,0.07218
3101.42245,0.07237
3099.49371,0.07244
3097.56496,0.07271
3095.63622,0.07298
3093.70747,0.07303
3091.77873,0.07309
3089.84998,0.07330
3087.92124,0.07369
3085.99249,0.07423
3084.06375,0.07471
3082.13500,0.07496
3080.20626,0.07503
3078.27751,0.07510
3076.34877,0.07527
3074.42002,0.07556
3072.49127,0.07592
3070.56253,0.07629
3068.63378,0.07664
3066.70504,0.07692
3064.77629,0.07713
3062.84755,0.07720
3060.91880,0.07731
3058.99006,0.07763
3057.06131,0.07805
3055.13257,0.07848
3053.20382,0.07888
3051.27508,0.07910
3049.34633,0.07924
3047.41759,0.07950
3045.48884,0.07973
3043.56009,0.07978
3041.63135,0.07993
3039.70260,0.08012
3037.77386,0.08008
3035.84511,0.08006
3033.91637,0.08036
3031.98762,0.08060
3030.05888,0.08042
3028.13013,0.08005
3026.20139,0.07985
3024.27264,0.07981
3022.34390,0.07971
3020.41515,0.07956
3018.48641,0.07932
3016.55766,0.07896
3014.62892,0.07861
3012.70017,0.07822
3010.77142,0.07768
3008.84268,0.07727
3006.91393,0.07721
3004.98519,0.07718
3003.05644,0.07682
3001.12770,0.07634
2999.19895,0.07608
2997.27021,0.07585
2995.34146,0.07550
2993.41272,0.07518
2991.48397,0.07467
2989.55523,0.07381
2987.62648,0.07293
2985.69774,0.07220
2983.76899,0.07146
2981.84025,0.07060
2979.91150,0.06946
2977.98275,0.06822
2976.05401,0.06742
2974.12526,0.06697
2972.19652,0.06626
2970.26777,0.06526
2968.33903,0.06442
2966.41028,0.06386
2964.48154,0.06334
2962.55279,0.06274
2960.62405,0.06215
2958.69530,0.06149
2956.76656,0.06076
2954.83781,0.06020
2952.90907,0.05968
2950.98032,0.05905
2949.05157,0.05848
2947.12283,0.05811
2945.19408,0.05776
2943.26534,0.05732
2941.33659,0.05700
2939.40785,0.05696
2937.47910,0.05705
2935.55036,0.05711
2933.62161,0.05717
2931.69287,0.05714
2929.76412,0.05688
2927.83538,0.05660
2925.90663,0.05661
2923.97789,0.05678
2922.04914,0.05689
2920.12040,0.05704
2918.19165,0.05722
2916.26290,0.05726
2914.33416,0.05724
2912.40541,0.05728
2910.47667,0.05740
2908.54792,0.05763
2906.61918,0.05791
2904.69043,0.05800
2902.76169,0.05792
2900.83294,0.05783
2898.90420,0.05783
2896.97545,0.05801
2895.04671,0.05822
2893.11796,0.05825
2891.18922,0.05842
2889.26047,0.05904
2887.33172,0.05965
2885.40298,0.05978
2883.47423,0.05970
2881.54549,0.05989
2879.61674,0.06035
2877.68800,0.06083
2875.75925,0.06115
2873.83051,0.06134
2871.90176,0.06160
2869.97302,0.06186
2868.04427,0.06211
2866.11553,0.06261
2864.18678,0.06330
2862.25804,0.06382
2860.32929,0.06403
2858.40055,0.06412
2856.47180,0.06444
2854.54305,0.06512
2852.61431,0.06591
2850.68556,0.06652
2848.75682,0.06717
2846.82807,0.06819
2844.89933,0.06932
2842.97058,0.07026
2841.04184,0.07120
2839.11309,0.07217
2837.18435,0.07311
2835.25560,0.07411
2833.32686,0.07522
2831.39811,0.07649
2829.46937,0.07788
2827.54062,0.07918
2825.61188,0.08032
2823.68313,0.08122
2821.75438,0.08195
2819.82564,0.08275
2817.89689,0.08354
2815.96815,0.08409
2814.03940,0.08461
2812.11066,0.08542
2810.18191,0.08625
2808.25317,0.08680
2806.32442,0.08733
2804.39568,0.08800
2802.46693,0.08873
2800.53819,0.08944
2798.60944,0.08999
2796.68070,0.09045
2794.75195,0.09086
2792.82320,0.09118
2790.89446,0.09144
2788.96571,0.09170
2787.03697,0.09208
2785.10822,0.09253
2783.17948,0.09281
2781.25073,0.09300
2779.32199,0.09320
2777.39324,0.09325
2775.46450,0.09317
2773.53575,0.09337
2771.60701,0.09397
2769.67826,0.09454
2767.74952,0.09483
2765.82077,0.09498
2763.89203,0.09513
2761.96328,0.09533
2760.03453,0.09552
2758.10579,0.09560
2756.17704,0.09564
2754.24830,0.09581
2752.31955,0.09612
2750.39081,0.09641
2748.46206,0.09661
2746.53332,0.09672
2744.60457,0.09678
2742.67583,0.09680
2740.74708,0.09682
2738.81834,0.09693
2736.88959,0.09711
2734.96085,0.09731
2733.03210,0.09759
2731.10336,0.09788
2729.17461,0.09806
2727.24586,0.09821
2725.31712,0.09833
2723.38837,0.09844
2721.45963,0.09876
2719.53088,0.09930
2717.60214,0.09983
2715.67339,0.10027
2713.74465,0.10053
2711.81590,0.10058
2709.88716,0.10069
2707.95841,0.10113
2706.02967,0.10170
2704.10092,0.10217
2702.17218,0.10258
2700.24343,0.10297
2698.31468,0.10329
2696.38594,0.10352
2694.45719,0.10387
2692.52845,0.10446
2690.59970,0.10500
2688.67096,0.10535
2686.74221,0.10564
2684.81347,0.10590
2682.88472,0.10613
2680.95598,0.10651
2679.02723,0.10707
2677.09849,0.10755
2675.16974,0.10783
2673.24100,0.10801
2671.31225,0.10827
2669.38351,0.10873
2667.45476,0.10920
2665.52601,0.10936
2663.59727,0.10950
2661.66852,0.10987
2659.73978,0.11014
2657.81103,0.11030
2655.88229,0.11058
2653.95354,0.11092
2652.02480,0.11121
2650.09605,0.11144
2648.16731,0.11173
2646.23856,0.11220
2644.30982,0.11280
2642.38107,0.11325
2640.45233,0.11348
2638.52358,0.11372
2636.59484,0.11402
2634.66609,0.11429
2632.73734,0.11463
2630.80860,0.11508
2628.87985,0.11549
2626.95111,0.11585
2625.02236,0.11610
2623.09362,0.11627
2621.16487,0.11660
2619.23613,0.11705
2617.30738,0.11753
2615.37864,0.11796
2613.44989,0.11832
2611.52115,0.11869
2609.59240,0.11912
2607.66366,0.11943
2605.73491,0.11956
2603.80616,0.11972
2601.87742,0.12013
2599.94867,0.12069
2598.01993,0.12117
2596.09118,0.12147
2594.16244,0.12166
2592.23369,0.12179
2590.30495,0.12197
2588.37620,0.12231
2586.44746,0.12271
2584.51871,0.12302
2582.58997,0.12324
2580.66122,0.12351
2578.73248,0.12384
2576.80373,0.12422
2574.87499,0.12452
2572.94624,0.12469
2571.01749,0.12482
2569.08875,0.12493
2567.16000,0.12496
2565.23126,0.12495
2563.30251,0.12502
2561.37377,0.12532
2559.44502,0.12574
2557.51628,0.12612
2555.58753,0.12624
2553.65879,0.12616
2551.73004,0.12628
2549.80130,0.12655
2547.87255,0.12670
2545.94381,0.12687
2544.01506,0.12711
2542.08631,0.12732
2540.15757,0.12750
2538.22882,0.12774
2536.30008,0.12803
2534.37133,0.12831
2532.44259,0.12850
2530.51384,0.12866
2528.58510,0.12886
2526.65635,0.12912
2524.72761,0.12936
2522.79886,0.12948
2520.87012,0.12956
2518.94137,0.12978
2517.01263,0.13010
2515.08388,0.13045
2513.15514,0.13085
2511.22639,0.13114
2509.29764,0.13131
2507.36890,0.13161
2505.44015,0.13210
2503.51141,0.13262
2501.58266,0.13307
2499.65392,0.13341
2497.72517,0.13373
2495.79643,0.13418
2493.86768,0.13470
2491.93894,0.13521
2490.01019,0.13570
2488.08145,0.13613
2486.15270,0.13655
2484.22396,0.13700
2482.29521,0.13740
2480.36647,0.13765
2478.43772,0.13794
2476.50897,0.13834
2474.58023,0.13865
2472.65148,0.13890
2470.72274,0.13919
2468.79399,0.13958
2466.86525,0.14000
2464.93650,0.14034
2463.00776,0.14067
2461.07901,0.14109
2459.15027,0.14156
2457.22152,0.14208
2455.29278,0.14263
2453.36403,0.14319
2451.43529,0.14368
2449.50654,0.14413
2447.57779,0.14464
2445.64905,0.14517
2443.72030,0.14570
2441.79156,0.14627
2439.86281,0.14696
2437.93407,0.14777
2436.00532,0.14844
2434.07658,0.14884
2432.14783,0.14925
2430.21909,0.14992
2428.29034,0.15063
2426.36160,0.15117
2424.43285,0.15174
2422.50411,0.15249
2420.57536,0.15319
2418.64662,0.15380
2416.71787,0.15447
2414.78912,0.15517
2412.86038,0.15591
2410.93163,0.15677
2409.00289,0.15768
2407.07414,0.15848
2405.14540,0.15910
2403.21665,0.15968
2401.28791,0.16034
2399.35916,0.16103
2397.43042,0.16166
2395.50167,0.16215
2393.57293,0.16252
2391.64418,0.16300
2389.71544,0.16370
2387.78669,0.16442
2385.85795,0.16490
2383.92920,0.16530
2382.00045,0.16568
2380.07171,0.16592
2378.14296,0.16628
2376.21422,0.16692
2374.28547,0.16755
2372.35673,0.16799
2370.42798,0.16836
2368.49924,0.16866
2366.57049,0.16882
2364.64175,0.16892
2362.71300,0.16909
2360.78426,0.16947
2358.85551,0.17007
2356.92677,0.17078
2354.99802,0.17140
2353.06927,0.17177
2351.14053,0.17201
2349.21178,0.17238
2347.28304,0.17291
2345.35429,0.17343
2343.42555,0.17377
2341.49680,0.17404
2339.56806,0.17443
2337.63931,0.17489
2335.71057,0.17529
2333.78182,0.17564
2331.85308,0.17584
2329.92433,0.17589
2327.99559,0.17590
2326.06684,0.17594
2324.13810,0.17608
2322.20935,0.17626
2320.28060,0.17630
2318.35186,0.17630
2316.42311,0.17647
2314.49437,0.17654
2312.56562,0.17628
2310.63688,0.17598
2308.70813,0.17594
2306.77939,0.17617
2304.85064,0.17634
2302.92190,0.17620
2300.99315,0.17592
2299.06441,0.17581
2297.13566,0.17578
2295.20692,0.17572
2293.27817,0.17559
2291.34943,0.17541
2289.42068,0.17528
2287.49193,0.17532
2285.56319,0.17554
2283.63444,0.17570
2281.70570,0.17551
2279.77695,0.17510
2277.84821,0.17479
2275.91946,0.17468
2273.99072,0.17456
2272.06197,0.17424
2270.13323,0.17378
2268.20448,0.17345
2266.27574,0.17336
2264.34699,0.17326
2262.41825,0.17285
2260.48950,0.17229
2258.56075,0.17184
2256.63201,0.17141
2254.70326,0.17090
2252.77452,0.17036
2250.84577,0.16985
2248.91703,0.16947
2246.98828,0.16926
2245.05954,0.16902
2243.13079,0.16872
2241.20205,0.16845
2239.27330,0.16818
2237.34456,0.16800
2235.41581,0.16809
2233.48707,0.16828
2231.55832,0.16828
2229.62958,0.16815
2227.70083,0.16824
2225.77208,0.16848
2223.84334,0.16849
2221.91459,0.16827
2219.98585,0.16811
2218.05710,0.16820
2216.12836,0.16840
2214.19961,0.16839
2212.27087,0.16804
2210.34212,0.16754
2208.41338,0.16710
2206.48463,0.16678
2204.55589,0.16655
2202.62714,0.16625
2200.69840,0.16576
2198.76965,0.16515
2196.84090,0.16457
2194.91216,0.16390
2192.98341,0.16301
2191.05467,0.16209
2189.12592,0.16140
2187.19718,0.16086
2185.26843,0.16011
2183.33969,0.15901
2181.41094,0.15774
2179.48220,0.15666
2177.55345,0.15586
2175.62471,0.15510
2173.69596,0.15417
2171.76722,0.15324
2169.83847,0.15246
2167.90973,0.15169
2165.98098,0.15080
2164.05223,0.14982
2162.12349,0.14899
2160.19474,0.14861
2158.26600,0.14849
2156.33725,0.14814
2154.40851,0.14753
2152.47976,0.14707
2150.55102,0.14686
2148.62227,0.14651
2146.69353,0.14600
2144.76478,0.14560
2142.83604,0.14535
2140.90729,0.14534
2138.97855,0.14540
2137.04980,0.14530
2135.12106,0.14512
2133.19231,0.14498
2131.26356,0.14490
2129.33482,0.14487
2127.40607,0.14484
2125.47733,0.14490
2123.54858,0.14510
2121.61984,0.14532
2119.69109,0.14557
2117.76235,0.14579
2115.83360,0.14583
2113.90486,0.14584
2111.97611,0.14598
2110.04737,0.14615
2108.11862,0.14631
2106.18988,0.14658
2104.26113,0.14699
2102.33238,0.14735
2100.40364,0.14758
2098.47489,0.14783
2096.54615,0.14823
2094.61740,0.14863
2092.68866,0.14901
2090.75991,0.14944
2088.83117,0.14981
2086.90242,0.15003
2084.97368,0.15009
2083.04493,0.14999
2081.11619,0.14987
2079.18744,0.14987
2077.25870,0.14989
2075.32995,0.14992
2073.40121,0.14992
2071.47246,0.14988
2069.54371,0.14993
2067.61497,0.15000
2065.68622,0.14995
2063.75748,0.14995
2061.82873,0.15003
2059.89999,0.15011
2057.97124,0.15030
2056.04250,0.15062
2054.11375,0.15085
2052.18501,0.15095
2050.25626,0.15097
2048.32752,0.15101
2046.39877,0.15119
2044.47003,0.15146
2042.54128,0.15171
2040.61254,0.15200
2038.68379,0.15233
2036.75504,0.15258
2034.82630,0.15282
2032.89755,0.15316
2030.96881,0.15367
2029.04006,0.15433
2027.11132,0.15500
2025.18257,0.15562
2023.25383,0.15625
2021.32508,0.15696
2019.39634,0.15786
2017.46759,0.15886
2015.53885,0.15977
2013.61010,0.16053
2011.68136,0.16118
2009.75261,0.16179
2007.82386,0.16241
2005.89512,0.16303
2003.96637,0.16358
2002.03763,0.16394
2000.10888,0.16429
1998.18014,0.16486
1996.25139,0.16553
1994.32265,0.16615
1992.39390,0.16665
1990.46516,0.16694
1988.53641,0.16714
1986.60767,0.16744
1984.67892,0.16773
1982.75018,0.16790
1980.82143,0.16797
1978.89269,0.16801
1976.96394,0.16802
1975.03519,0.16797
1973.10645,0.16785
1971.17770,0.16761
1969.24896,0.16735
1967.32021,0.16722
1965.39147,0.16714
1963.46272,0.16705
1961.53398,0.16708
1959.60523,0.16717
1957.67649,0.16712
1955.74774,0.16694
1953.81900,0.16685
1951.89025,0.16696
1949.96151,0.16711
1948.03276,0.16733
1946.10402,0.16776
1944.17527,0.16827
1942.24652,0.16864
1940.31778,0.16902
1938.38903,0.16967
1936.46029,0.17046
1934.53154,0.17110
1932.60280,0.17167
1930.67405,0.17235
1928.74531,0.17309
1926.81656,0.17370
1924.88782,0.17412
1922.95907,0.17448
1921.03033,0.17488
1919.10158,0.17524
1917.17284,0.17548
1915.24409,0.17562
1913.31534,0.17573
1911.38660,0.17581
1909.45785,0.17583
1907.52911,0.17573
1905.60036,0.17551
1903.67162,0.17537
1901.74287,0.17549
1899.81413,0.17575
1897.88538,0.17588
1895.95664,0.17569
1894.02789,0.17547
1892.09915,0.17547
1890.17040,0.17559
1888.24166,0.17574
1886.31291,0.17588
1884.38417,0.17595
1882.45542,0.17588
1880.52667,0.17574
1878.59793,0.17563
1876.66918,0.17554
1874.74044,0.17535
1872.81169,0.17502
1870.88295,0.17468
1868.95420,0.17428
1867.02546,0.17372
1865.09671,0.17314
1863.16797,0.17266
1861.23922,0.17225
1859.31048,0.17172
1857.38173,0.17102
1855.45299,0.17025
1853.52424,0.16949
1851.59549,0.16868
1849.66675,0.16791
1847.73800,0.16736
1845.80926,0.16682
1843.88051,0.16584
1841.95177,0.16460
1840.02302,0.16358
1838.09428,0.16273
1836.16553,0.16190
1834.23679,0.16101
1832.30804,0.15998
1830.37930,0.15863
1828.45055,0.15700
1826.52181,0.15537
1824.59306,0.15370
1822.66432,0.15199
1820.73557,0.15034
1818.80682,0.14848
1816.87808,0.14634
1814.94933,0.14429
1813.02059,0.14245
1811.09184,0.14042
1809.16310,0.13790
1807.23435,0.13514
1805.30561,0.13249
1803.37686,0.12993
1801.44812,0.12721
1799.51937,0.12426
1797.59063,0.12125
1795.66188,0.11840
1793.73314,0.11548
1791.80439,0.11223
1789.87565,0.10907
1787.94690,0.10616
1786.01815,0.10317
1784.08941,0.10019
1782.16066,0.09725
1780.23192,0.09413
1778.30317,0.09086
1776.37443,0.08755
1774.44568,0.08401
1772.51694,0.07991
1770.58819,0.07559
1768.65945,0.07159
1766.73070,0.06788
1764.80196,0.06445
1762.87321,0.06123
1760.94447,0.05828
1759.01572,0.05592
1757.08697,0.05397
1755.15823,0.05227
1753.22948,0.05072
1751.30074,0.04922
1749.37199,0.04796
1747.44325,0.04720
1745.51450,0.04674
1743.58576,0.04630
1741.65701,0.04594
1739.72827,0.04587
1737.79952,0.04610
1735.87078,0.04646
1733.94203,0.04685
1732.01329,0.04731
1730.08454,0.04776
1728.15580,0.04821
1726.22705,0.04879
1724.29830,0.04959
1722.36956,0.05042
1720.44081,0.05120
1718.51207,0.05207
1716.58332,0.05298
1714.65458,0.05376
1712.72583,0.05450
1710.79709,0.05526
1708.86834,0.05599
1706.93960,0.05663
1705.01085,0.05719
1703.08211,0.05767
1701.15336,0.05802
1699.22462,0.05829
1697.29587,0.05855
1695.36713,0.05871
1693.43838,0.05886
1691.50963,0.05907
1689.58089,0.05920
1687.65214,0.05917
1685.72340,0.05906
1683.79465,0.05882
1681.86591,0.05851
1679.93716,0.05833
1678.00842,0.05829
1676.07967,0.05813
1674.15093,0.05779
1672.22218,0.05748
1670.29344,0.05715
1668.36469,0.05681
1666.43595,0.05663
1664.50720,0.05645
1662.57845,0.05610
1660.64971,0.05572
1658.72096,0.05548
1656.79222,0.05540
1654.86347,0.05542
1652.93473,0.05529
1651.00598,0.05512
1649.07724,0.05525
1647.14849,0.05544
1645.21975,0.05529
1643.29100,0.05486
1641.36226,0.05443
1639.43351,0.05410
1637.50477,0.05381
1635.57602,0.05341
1633.64728,0.05317
1631.71853,0.05325
1629.78978,0.05342
1627.86104,0.05344
1625.93229,0.05333
1624.00355,0.05332
1622.07480,0.05342
1620.14606,0.05336
1618.21731,0.05308
1616.28857,0.05258
1614.35982,0.05207
1612.43108,0.05155
1610.50233,0.05087
1608.57359,0.05021
1606.64484,0.04983
1604.71610,0.04965
1602.78735,0.04964
1600.85861,0.04981
1598.92986,0.05002
1597.00111,0.05022
1595.07237,0.05046
1593.14362,0.05092
1591.21488,0.05168
1589.28613,0.05266
1587.35739,0.05386
1585.42864,0.05530
1583.49990,0.05691
1581.57115,0.05869
1579.64241,0.06044
1577.71366,0.06203
1575.78492,0.06352
1573.85617,0.06477
1571.92743,0.06596
1569.99868,0.06740
1568.06993,0.06881
1566.14119,0.06977
1564.21244,0.07038
1562.28370,0.07091
1560.35495,0.07137
1558.42621,0.07165
1556.49746,0.07183
1554.56872,0.07194
1552.63997,0.07194
1550.71123,0.07193
1548.78248,0.07190
1546.85374,0.07183
1544.92499,0.07178
1542.99625,0.07181
1541.06750,0.07174
1539.13876,0.07109
1537.21001,0.07005
1535.28126,0.06902
1533.35252,0.06788
1531.42377,0.06667
1529.49503,0.06531
1527.56628,0.06330
1525.63754,0.06067
1523.70879,0.05790
1521.78005,0.05495
1519.85130,0.05208
1517.92256,0.05004
1515.99381,0.04889
1514.06507,0.04851
1512.13632,0.04856
1510.20758,0.04870
1508.27883,0.04889
1506.35008,0.04914
1504.42134,0.04951
1502.49259,0.05017
1500.56385,0.05101
1498.63510,0.05179
1496.70636,0.05250
1494.77761,0.05328
1492.84887,0.05406
1490.92012,0.05466
1488.99138,0.05490
1487.06263,0.05478
1485.13389,0.05439
1483.20514,0.05368
1481.27640,0.05259
1479.34765,0.05124
1477.41891,0.04973
1475.49016,0.04805
1473.56141,0.04603
1471.63267,0.04389
1469.70392,0.04250
1467.77518,0.04197
1465.84643,0.04189
1463.91769,0.04199
1461.98894,0.04218
1460.06020,0.04248
1458.13145,0.04280
1456.20271,0.04293
1454.27396,0.04303
1452.34522,0.04328
1450.41647,0.04344
1448.48773,0.04345
1446.55898,0.04345
1444.63024,0.04347
1442.70149,0.04343
1440.77274,0.04329
1438.84400,0.04302
1436.91525,0.04264
1434.98651,0.04234
1433.05776,0.04211
1431.12902,0.04190
1429.20027,0.04189
1427.27153,0.04203
1425.34278,0.04218
1423.41404,0.04259
1421.48529,0.04325
1419.55655,0.04392
1417.62780,0.04436
1415.69906,0.04455
1413.77031,0.04471
1411.84156,0.04497
1409.91282,0.04509
1407.98407,0.04500
1406.05533,0.04494
1404.12658,0.04485
1402.19784,0.04457
1400.26909,0.04419
1398.34035,0.04382
1396.41160,0.04343
1394.48286,0.04292
1392.55411,0.04234
1390.62537,0.04169
1388.69662,0.04096
1386.76788,0.04028
1384.83913,0.03976
1382.91039,0.03946
1380.98164,0.03931
1379.05289,0.03926
1377.12415,0.03948
1375.19540,0.03994
1373.26666,0.04038
1371.33791,0.04079
1369.40917,0.04130
1367.48042,0.04185
1365.55168,0.04223
1363.62293,0.04247
1361.69419,0.04268
1359.76544,0.04287
1357.83670,0.04298
1355.90795,0.04303
1353.97921,0.04307
1352.05046,0.04304
1350.12172,0.04285
1348.19297,0.04257
1346.26422,0.04230
1344.33548,0.04198
1342.40673,0.04160
1340.47799,0.04124
1338.54924,0.04100
1336.62050,0.04109
1334.69175,0.04133
1332.76301,0.04137
1330.83426,0.04121
1328.90552,0.04109
1326.97677,0.04113
1325.04803,0.04132
1323.11928,0.04164
1321.19054,0.04198
1319.26179,0.04225
1317.33304,0.04257
1315.40430,0.04293
1313.47555,0.04316
1311.54681,0.04323
1309.61806,0.04336
1307.68932,0.04381
1305.76057,0.04422
1303.83183,0.04416
1301.90308,0.04393
1299.97434,0.04385
1298.04559,0.04379
1296.11685,0.04381
1294.18810,0.04377
1292.25936,0.04331
1290.33061,0.04249
1288.40187,0.04160
1286.47312,0.04082
1284.54437,0.04029
1282.61563,0.03998
1280.68688,0.03973
1278.75814,0.03950
1276.82939,0.03922
1274.90065,0.03877
1272.97190,0.03819
1271.04316,0.03779
1269.11441,0.03768
1267.18567,0.03768
1265.25692,0.03754
1263.32818,0.03729
1261.39943,0.03712
1259.47069,0.03716
1257.54194,0.03731
1255.61320,0.03740
1253.68445,0.03735
1251.75570,0.03728
1249.82696,0.03746
1247.89821,0.03789
1245.96947,0.03825
1244.04072,0.03859
1242.11198,0.03913
1240.18323,0.03973
1238.25449,0.04007
1236.32574,0.04019
1234.39700,0.04040
1232.46825,0.04087
1230.53951,0.04129
1228.61076,0.04153
1226.68202,0.04174
1224.75327,0.04193
1222.82452,0.04206
1220.89578,0.04227
1218.96703,0.04261
1217.03829,0.04293
1215.10954,0.04300
1213.18080,0.04286
1211.25205,0.04274
1209.32331,0.04260
1207.39456,0.04235
1205.46582,0.04202
1203.53707,0.04162
1201.60833,0.04122
1199.67958,0.04086
1197.75084,0.04068
1195.82209,0.04070
1193.89335,0.04058
1191.96460,0.04016
1190.03585,0.03966
1188.10711,0.03901
1186.17836,0.03794
1184.24962,0.03668
1182.32087,0.03560
1180.39213,0.03469
1178.46338,0.03391
1176.53464,0.03341
1174.60589,0.03334
1172.67715,0.03375
1170.74840,0.03443
1168.81966,0.03531
1166.89091,0.03662
1164.96217,0.03815
1163.03342,0.03915
1161.10467,0.03961
1159.17593,0.04017
1157.24718,0.04086
1155.31844,0.04119
1153.38969,0.04100
1151.46095,0.04036
1149.53220,0.03962
1147.60346,0.03912
1145.67471,0.03860
1143.74597,0.03774
1141.81722,0.03664
1139.88848,0.03553
1137.95973,0.03466
1136.03099,0.03411
1134.10224,0.03369
1132.17350,0.03331
1130.24475,0.03327
1128.31600,0.03390
1126.38726,0.03500
1124.45851,0.03589
1122.52977,0.03623
1120.60102,0.03646
1118.67228,0.03708
1116.74353,0.03799
1114.81479,0.03886
1112.88604,0.03967
1110.95730,0.04029
1109.02855,0.04076
1107.09981,0.04135
1105.17106,0.04194
1103.24232,0.04220
1101.31357,0.04212
1099.38483,0.04197
1097.45608,0.04179
1095.52733,0.04134
1093.59859,0.04082
1091.66984,0.04059
1089.74110,0.04049
1087.81235,0.04049
1085.88361,0.04068
1083.95486,0.04100
1082.02612,0.04152
1080.09737,0.04223
1078.16863,0.04316
1076.23988,0.04444
1074.31114,0.04592
1072.38239,0.04733
1070.45365,0.04872
1068.52490,0.05034
1066.59615,0.05210
1064.66741,0.05399
1062.73866,0.05633
1060.80992,0.05872
1058.88117,0.06052
1056.95243,0.06195
1055.02368,0.06325
1053.09494,0.06417
1051.16619,0.06473
1049.23745,0.06516
1047.30870,0.06550
1045.37996,0.06580
1043.45121,0.06631
1041.52247,0.06720
1039.59372,0.06835
1037.66498,0.06971
1035.73623,0.07108
1033.80748,0.07191
1031.87874,0.07212
1029.94999,0.07216
1028.02125,0.07211
1026.09250,0.07192
1024.16376,0.07174
1022.23501,0.07157
1020.30627,0.07113
1018.37752,0.07059
1016.44878,0.07043
1014.52003,0.07052
1012.59129,0.07040
1010.66254,0.06994
1008.73380,0.06957
1006.80505,0.06954
1004.87631,0.06969
1002.94756,0.06992
1001.01881,0.07019
999.09007,0.07028
997.16132,0.07011
995.23258,0.06996
993.30383,0.07021
991.37509,0.07079
989.44634,0.07160
987.51760,0.07270
985.58885,0.07369
983.66011,0.07434
981.73136,0.07516
979.80262,0.07622
977.87387,0.07695
975.94513,0.07730
974.01638,0.07763
972.08763,0.07811
970.15889,0.07875
968.23014,0.07927
966.30140,0.07973
964.37265,0.08060
962.44391,0.08179
960.51516,0.08301
958.58642,0.08438
956.65767,0.08582
954.72893,0.08704
952.80018,0.08805
950.87144,0.08890
948.94269,0.08960
947.01395,0.09020
945.08520,0.09055
943.15646,0.09037
941.22771,0.08977
939.29896,0.08920
937.37022,0.08888
935.44147,0.08853
933.51273,0.08800
931.58398,0.08757
929.65524,0.08728
927.72649,0.08700
925.79775,0.08685
923.86900,0.08689
921.94026,0.08672
920.01151,0.08606
918.08277,0.08531
916.15402,0.08487
914.22528,0.08453
912.29653,0.08406
910.36779,0.08341
908.43904,0.08240
906.51029,0.08093
904.58155,0.07943
902.65280,0.07837
900.72406,0.07784
898.79531,0.07772
896.86657,0.07811
894.93782,0.07912
893.00908,0.08051
891.08033,0.08197
889.15159,0.08340
887.22284,0.08469
885.29410,0.08548
883.36535,0.08564
881.43661,0.08570
879.50786,0.08586
877.57911,0.08568
875.65037,0.08509
873.72162,0.08462
871.79288,0.08436
869.86413,0.08401
867.93539,0.08370
866.00664,0.08372
864.07790,0.08396
862.14915,0.08427
860.22041,0.08443
858.29166,0.08444
856.36292,0.08445
854.43417,0.08415
852.50543,0.08336
850.57668,0.08259
848.64794,0.08219
846.71919,0.08189
844.79044,0.08126
842.86170,0.08012
840.93295,0.07894
839.00421,0.07820
837.07546,0.07801
835.14672,0.07836
833.21797,0.07903
831.28923,0.07964
829.36048,0.08013
827.43174,0.08071
825.50299,0.08128
823.57425,0.08153
821.64550,0.08160
819.71676,0.08165
817.78801,0.08150
815.85926,0.08128
813.93052,0.08137
812.00177,0.08188
810.07303,0.08263
808.14428,0.08309
806.21554,0.08307
804.28679,0.08293
802.35805,0.08258
800.42930,0.08193
798.50056,0.08141
796.57181,0.08126
794.64307,0.08143
792.71432,0.08169
790.78558,0.08153
788.85683,0.08092
786.92809,0.08041
784.99934,0.08013
783.07059,0.07963
781.14185,0.07872
779.21310,0.07792
777.28436,0.07750
775.35561,0.07707
773.42687,0.07671
771.49812,0.07651
769.56938,0.07600
767.64063,0.07510
765.71189,0.07406
763.78314,0.07323
761.85440,0.07277
759.92565,0.07233
757.99691,0.07175
756.06816,0.07126
754.13942,0.07086
752.21067,0.07064
750.28192,0.07057
748.35318,0.07036
746.42443,0.06995
744.49569,0.06928
742.56694,0.06854
740.63820,0.06798
738.70945,0.06742
736.78071,0.06677
734.85196,0.06620
732.92322,0.06578
730.99447,0.06544
729.06573,0.06525
727.13698,0.06524
725.20824,0.06515
723.27949,0.06496
721.35074,0.06460
719.42200,0.06378
717.49325,0.06297
715.56451,0.06286
713.63576,0.06317
711.70702,0.06317
709.77827,0.06292
707.84953,0.06297
705.92078,0.06309
703.99204,0.06282
702.06329,0.06247
700.13455,0.06230
698.20580,0.06190
696.27706,0.06143
694.34831,0.06130
692.41957,0.06127
690.49082,0.06115
688.56207,0.06098
686.63333,0.06055
684.70458,0.05972
682.77584,0.05887
680.84709,0.05821
678.91835,0.05750
676.98960,0.05692
675.06086,0.05679
673.13211,0.05696
671.20337,0.05739
669.27462,0.05812
667.34588,0.05828
665.41713,0.05753
663.48839,0.05715
661.55964,0.05770
659.63090,0.05868
657.70215,0.05982
655.77340,0.06055
653.84466,0.06011
651.91591,0.05903
649.98717,0.05842
648.05842,0.05866
646.12968,0.05934
644.20093,0.05928
642.27219,0.05814
640.34344,0.05737
638.41470,0.05766
636.48595,0.05779
634.55721,0.05700
632.62846,0.05614
630.69972,0.05580
628.77097,0.05559
626.84222,0.05549
624.91348,0.05578
622.98473,0.05629
621.05599,0.05643
619.12724,0.05622
617.19850,0.05636
615.26975,0.05697
613.34101,0.05747
611.41226,0.05781
609.48352,0.05840
607.55477,0.05956
605.62603,0.06057
603.69728,0.06033
601.76854,0.05995
599.83979,0.06085
