7497.03301,0.80337
7495.10426,0.79888
7493.17552,0.79272
7491.24677,0.79086
7489.31803,0.79606
7487.38928,0.79935
7485.46054,0.79181
7483.53179,0.78275
7481.60305,0.78416
7479.67430,0.79062
7477.74556,0.79050
7475.81681,0.78524
7473.88807,0.78526
7471.95932,0.79188
7470.03057,0.79669
7468.10183,0.79668
7466.17308,0.79510
7464.24434,0.79102
7462.31559,0.78435
7460.38685,0.78121
7458.45810,0.78214
7456.52936,0.78289
7454.60061,0.78452
7452.67187,0.78577
7450.74312,0.78204
7448.81438,0.77714
7446.88563,0.77723
7444.95689,0.78013
7443.02814,0.78130
7441.09940,0.78085
7439.17065,0.78033
7437.24190,0.78149
7435.31316,0.78363
7433.38441,0.78271
7431.45567,0.78071
7429.52692,0.78252
7427.59818,0.78637
7425.66943,0.78959
7423.74069,0.79197
7421.81194,0.79334
7419.88320,0.79388
7417.95445,0.79052
7416.02571,0.78059
7414.09696,0.76949
7412.16822,0.76631
7410.23947,0.77237
7408.31073,0.77932
7406.38198,0.78305
7404.45323,0.78489
7402.52449,0.78336
7400.59574,0.77964
7398.66700,0.77672
7396.73825,0.77476
7394.80951,0.77273
7392.88076,0.76963
7390.95202,0.76845
7389.02327,0.77045
7387.09453,0.77064
7385.16578,0.76974
7383.23704,0.77234
7381.30829,0.77655
7379.37955,0.78055
7377.45080,0.78232
7375.52205,0.77832
7373.59331,0.77202
7371.66456,0.76741
7369.73582,0.76404
7367.80707,0.76206
7365.87833,0.76233
7363.94958,0.76634
7362.02084,0.77367
7360.09209,0.77740
7358.16335,0.77142
7356.23460,0.76284
7354.30586,0.76334
7352.37711,0.77054
7350.44837,0.77313
7348.51962,0.76993
7346.59088,0.76972
7344.66213,0.77443
7342.73338,0.77742
7340.80464,0.77399
7338.87589,0.76596
7336.94715,0.76002
7335.01840,0.75982
7333.08966,0.76249
7331.16091,0.76280
7329.23217,0.75997
7327.30342,0.75797
7325.37468,0.76152
7323.44593,0.77027
7321.51719,0.77430
7319.58844,0.76822
7317.65970,0.76049
7315.73095,0.75985
7313.80221,0.76470
7311.87346,0.76655
7309.94471,0.76393
7308.01597,0.76351
7306.08722,0.76823
7304.15848,0.77392
7302.22973,0.77409
7300.30099,0.76963
7298.37224,0.76722
7296.44350,0.76797
7294.51475,0.76607
7292.58601,0.75923
7290.65726,0.75461
7288.72852,0.75489
7286.79977,0.75336
7284.87103,0.74815
7282.94228,0.74496
7281.01353,0.74780
7279.08479,0.75381
7277.15604,0.75644
7275.22730,0.75501
7273.29855,0.75377
7271.36981,0.75408
7269.44106,0.75590
7267.51232,0.75718
7265.58357,0.75483
7263.65483,0.75139
7261.72608,0.75145
7259.79734,0.75595
7257.86859,0.76135
7255.93985,0.76489
7254.01110,0.76757
7252.08236,0.76790
7250.15361,0.76501
7248.22486,0.76129
7246.29612,0.75803
7244.36737,0.75716
7242.43863,0.75965
7240.50988,0.76269
7238.58114,0.76310
7236.65239,0.76290
7234.72365,0.76458
7232.79490,0.76412
7230.86616,0.76158
7228.93741,0.76278
7227.00867,0.76657
7225.07992,0.76711
7223.15118,0.76150
7221.22243,0.75415
7219.29369,0.75158
7217.36494,0.75449
7215.43619,0.75904
7213.50745,0.76245
7211.57870,0.76448
7209.64996,0.76391
7207.72121,0.76122
7205.79247,0.76038
7203.86372,0.75890
7201.93498,0.75289
7200.00623,0.74921
7198.07749,0.75441
7196.14874,0.76427
7194.22000,0.76947
7192.29125,0.76468
7190.36251,0.75361
7188.43376,0.74609
7186.50501,0.74651
7184.57627,0.74905
7182.64752,0.74988
7180.71878,0.75271
7178.79003,0.75617
7176.86129,0.75512
7174.93254,0.75215
7173.00380,0.75203
7171.07505,0.75316
7169.14631,0.75144
7167.21756,0.74586
7165.28882,0.73942
7163.36007,0.73564
7161.43133,0.73539
7159.50258,0.73768
7157.57384,0.74001
7155.64509,0.73995
7153.71634,0.73765
7151.78760,0.73536
7149.85885,0.73462
7147.93011,0.73355
7146.00136,0.73122
7144.07262,0.72983
7142.14387,0.72954
7140.21513,0.73012
7138.28638,0.73247
7136.35764,0.73489
7134.42889,0.73392
7132.50015,0.73014
7130.57140,0.72749
7128.64266,0.72724
7126.71391,0.72746
7124.78516,0.72586
7122.85642,0.72393
7120.92767,0.72297
7118.99893,0.71990
7117.07018,0.71645
7115.14144,0.71600
7113.21269,0.71641
7111.28395,0.71680
7109.35520,0.71674
7107.42646,0.71529
7105.49771,0.71420
7103.56897,0.71448
7101.64022,0.71374
7099.71148,0.71067
7097.78273,0.70909
7095.85399,0.71062
7093.92524,0.70926
7091.99649,0.70290
7090.06775,0.69806
7088.13900,0.69798
7086.21026,0.69892
7084.28151,0.69842
7082.35277,0.69799
7080.42402,0.69644
7078.49528,0.69188
7076.56653,0.68756
7074.63779,0.68573
7072.70904,0.68504
7070.78030,0.68520
7068.85155,0.68555
7066.92281,0.68412
7064.99406,0.68161
7063.06532,0.67947
7061.13657,0.67641
7059.20782,0.67363
7057.27908,0.67409
7055.35033,0.67507
7053.42159,0.67316
7051.49284,0.67075
7049.56410,0.67065
7047.63535,0.67166
7045.70661,0.67119
7043.77786,0.66928
7041.84912,0.66741
7039.92037,0.66646
7037.99163,0.66731
7036.06288,0.66765
7034.13414,0.66456
7032.20539,0.66000
7030.27664,0.65733
7028.34790,0.65837
7026.41915,0.66076
7024.49041,0.66046
7022.56166,0.65773
7020.63292,0.65476
7018.70417,0.65453
7016.77543,0.65576
7014.84668,0.65264
7012.91794,0.64756
7010.98919,0.64735
7009.06045,0.65001
7007.13170,0.64854
7005.20296,0.64269
7003.27421,0.63850
7001.34547,0.63795
6999.41672,0.63726
6997.48797,0.63522
6995.55923,0.63501
6993.63048,0.63653
6991.70174,0.63707
6989.77299,0.63665
6987.84425,0.63648
6985.91550,0.63663
6983.98676,0.63603
6982.05801,0.63423
6980.12927,0.63206
6978.20052,0.63094
6976.27178,0.63141
6974.34303,0.63145
6972.41429,0.63120
6970.48554,0.63268
6968.55680,0.63408
6966.62805,0.63409
6964.69930,0.63364
6962.77056,0.63323
6960.84181,0.63378
6958.91307,0.63291
6956.98432,0.62795
6955.05558,0.62465
6953.12683,0.62812
6951.19809,0.63358
6949.26934,0.63416
6947.34060,0.62976
6945.41185,0.62512
6943.48311,0.62275
6941.55436,0.62241
6939.62562,0.62348
6937.69687,0.62444
6935.76812,0.62416
6933.83938,0.62261
6931.91063,0.62108
6929.98189,0.62113
6928.05314,0.62221
6926.12440,0.62247
6924.19565,0.62055
6922.26691,0.61740
6920.33816,0.61565
6918.40942,0.61695
6916.48067,0.62119
6914.55193,0.62501
6912.62318,0.62568
6910.69444,0.62523
6908.76569,0.62531
6906.83695,0.62622
6904.90820,0.62810
6902.97945,0.62904
6901.05071,0.62785
6899.12196,0.62504
6897.19322,0.62150
6895.26447,0.62001
6893.33573,0.62177
6891.40698,0.62378
6889.47824,0.62481
6887.54949,0.62623
6885.62075,0.62770
6883.69200,0.62744
6881.76326,0.62474
6879.83451,0.62276
6877.90577,0.62364
6875.97702,0.62339
6874.04828,0.62056
6872.11953,0.61939
6870.19078,0.62056
6868.26204,0.61980
6866.33329,0.61683
6864.40455,0.61586
6862.47580,0.61763
6860.54706,0.62050
6858.61831,0.62393
6856.68957,0.62497
6854.76082,0.62156
6852.83208,0.61855
6850.90333,0.62004
6848.97459,0.62289
6847.04584,0.62431
6845.11710,0.62503
6843.18835,0.62644
6841.25960,0.62943
6839.33086,0.63163
6837.40211,0.63112
6835.47337,0.62984
6833.54462,0.62850
6831.61588,0.62693
6829.68713,0.62628
6827.75839,0.62597
6825.82964,0.62501
6823.90090,0.62441
6821.97215,0.62429
6820.04341,0.62335
6818.11466,0.62218
6816.18592,0.62186
6814.25717,0.62174
6812.32843,0.62188
6810.39968,0.62245
6808.47093,0.62196
6806.54219,0.62080
6804.61344,0.62180
6802.68470,0.62455
6800.75595,0.62556
6798.82721,0.62415
6796.89846,0.62176
6794.96972,0.61966
6793.04097,0.62034
6791.11223,0.62248
6789.18348,0.62072
6787.25474,0.61770
6785.32599,0.61992
6783.39725,0.62316
6781.46850,0.62239
6779.53975,0.62262
6777.61101,0.62590
6775.68226,0.62726
6773.75352,0.62638
6771.82477,0.62620
6769.89603,0.62527
6767.96728,0.62361
6766.03854,0.62420
6764.10979,0.62598
6762.18105,0.62728
6760.25230,0.62830
6758.32356,0.62795
6756.39481,0.62580
6754.46607,0.62364
6752.53732,0.62242
6750.60858,0.62061
6748.67983,0.61823
6746.75108,0.61844
6744.82234,0.62121
6742.89359,0.62303
6740.96485,0.62394
6739.03610,0.62523
6737.10736,0.62476
6735.17861,0.62298
6733.24987,0.62428
6731.32112,0.62833
6729.39238,0.63066
6727.46363,0.63035
6725.53489,0.62878
6723.60614,0.62733
6721.67740,0.62785
6719.74865,0.62926
6717.81991,0.62941
6715.89116,0.62972
6713.96241,0.63136
6712.03367,0.63248
6710.10492,0.63297
6708.17618,0.63367
6706.24743,0.63304
6704.31869,0.63138
6702.38994,0.63130
6700.46120,0.63323
6698.53245,0.63338
6696.60371,0.62931
6694.67496,0.62653
6692.74622,0.62814
6690.81747,0.62996
6688.88873,0.62979
6686.95998,0.62813
6685.03123,0.62700
6683.10249,0.62942
6681.17374,0.63420
6679.24500,0.63642
6677.31625,0.63519
6675.38751,0.63461
6673.45876,0.63487
6671.53002,0.63302
6669.60127,0.63099
6667.67253,0.63243
6665.74378,0.63548
6663.81504,0.63658
6661.88629,0.63532
6659.95755,0.63377
6658.02880,0.63498
6656.10006,0.63758
6654.17131,0.63722
6652.24256,0.63565
6650.31382,0.63619
6648.38507,0.63688
6646.45633,0.63661
6644.52758,0.63781
6642.59884,0.63992
6640.67009,0.64023
6638.74135,0.63880
6636.81260,0.63763
6634.88386,0.63865
6632.95511,0.64041
6631.02637,0.63993
6629.09762,0.63827
6627.16888,0.63866
6625.24013,0.64158
6623.31139,0.64411
6621.38264,0.64445
6619.45389,0.64375
6617.52515,0.64293
6615.59640,0.64268
6613.66766,0.64365
6611.73891,0.64525
6609.81017,0.64637
6607.88142,0.64661
6605.95268,0.64568
6604.02393,0.64337
6602.09519,0.64211
6600.16644,0.64423
6598.23770,0.64725
6596.30895,0.64736
6594.38021,0.64563
6592.45146,0.64606
6590.52271,0.64760
6588.59397,0.64690
6586.66522,0.64623
6584.73648,0.64822
6582.80773,0.64946
6580.87899,0.64752
6578.95024,0.64535
6577.02150,0.64487
6575.09275,0.64593
6573.16401,0.64835
6571.23526,0.64928
6569.30652,0.64758
6567.37777,0.64661
6565.44903,0.64762
6563.52028,0.64842
6561.59154,0.64864
6559.66279,0.64998
6557.73404,0.65240
6555.80530,0.65469
6553.87655,0.65578
6551.94781,0.65522
6550.01906,0.65364
6548.09032,0.65179
6546.16157,0.65111
6544.23283,0.65260
6542.30408,0.65480
6540.37534,0.65553
6538.44659,0.65474
6536.51785,0.65444
6534.58910,0.65432
6532.66036,0.65233
6530.73161,0.65028
6528.80287,0.65138
6526.87412,0.65439
6524.94537,0.65584
6523.01663,0.65477
6521.08788,0.65225
6519.15914,0.65134
6517.23039,0.65461
6515.30165,0.65785
6513.37290,0.65606
6511.44416,0.65304
6509.51541,0.65341
6507.58667,0.65515
6505.65792,0.65494
6503.72918,0.65254
6501.80043,0.64939
6499.87169,0.64814
6497.94294,0.65079
6496.01419,0.65420
6494.08545,0.65443
6492.15670,0.65413
6490.22796,0.65609
6488.29921,0.65736
6486.37047,0.65660
6484.44172,0.65702
6482.51298,0.65857
6480.58423,0.65843
6478.65549,0.65767
6476.72674,0.65757
6474.79800,0.65726
6472.86925,0.65682
6470.94051,0.65636
6469.01176,0.65602
6467.08302,0.65557
6465.15427,0.65447
6463.22552,0.65428
6461.29678,0.65587
6459.36803,0.65782
6457.43929,0.65919
6455.51054,0.65927
6453.58180,0.65810
6451.65305,0.65670
6449.72431,0.65577
6447.79556,0.65676
6445.86682,0.65931
6443.93807,0.66019
6442.00933,0.65942
6440.08058,0.65920
6438.15184,0.65852
6436.22309,0.65639
6434.29434,0.65505
6432.36560,0.65605
6430.43685,0.65781
6428.50811,0.65899
6426.57936,0.66049
6424.65062,0.66290
6422.72187,0.66519
6420.79313,0.66657
6418.86438,0.66704
6416.93564,0.66579
6415.00689,0.66395
6413.07815,0.66394
6411.14940,0.66353
6409.22066,0.66077
6407.29191,0.65936
6405.36317,0.66102
6403.43442,0.66309
6401.50567,0.66359
6399.57693,0.66217
6397.64818,0.66077
6395.71944,0.66247
6393.79069,0.66553
6391.86195,0.66603
6389.93320,0.66535
6388.00446,0.66668
6386.07571,0.66887
6384.14697,0.66839
6382.21822,0.66533
6380.28948,0.66302
6378.36073,0.66250
6376.43199,0.66299
6374.50324,0.66377
6372.57450,0.66469
6370.64575,0.66602
6368.71700,0.66703
6366.78826,0.66725
6364.85951,0.66671
6362.93077,0.66565
6361.00202,0.66555
6359.07328,0.66688
6357.14453,0.66733
6355.21579,0.66568
6353.28704,0.66501
6351.35830,0.66694
6349.42955,0.66854
6347.50081,0.66925
6345.57206,0.67014
6343.64332,0.67023
6341.71457,0.67016
6339.78582,0.67056
6337.85708,0.67011
6335.92833,0.66919
6333.99959,0.66928
6332.07084,0.67000
6330.14210,0.67029
6328.21335,0.67073
6326.28461,0.67227
6324.35586,0.67403
6322.42712,0.67406
6320.49837,0.67193
6318.56963,0.66891
6316.64088,0.66650
6314.71214,0.66658
6312.78339,0.66901
6310.85465,0.67059
6308.92590,0.67035
6306.99715,0.67013
6305.06841,0.67077
6303.13966,0.67190
6301.21092,0.67225
6299.28217,0.67127
6297.35343,0.67075
6295.42468,0.67189
6293.49594,0.67272
6291.56719,0.67201
6289.63845,0.67191
6287.70970,0.67434
6285.78096,0.67782
6283.85221,0.67878
6281.92347,0.67652
6279.99472,0.67438
6278.06598,0.67453
6276.13723,0.67548
6274.20848,0.67510
6272.27974,0.67372
6270.35099,0.67317
6268.42225,0.67428
6266.49350,0.67628
6264.56476,0.67743
6262.63601,0.67806
6260.70727,0.68011
6258.77852,0.68186
6256.84978,0.68171
6254.92103,0.68216
6252.99229,0.68354
6251.06354,0.68390
6249.13480,0.68382
6247.20605,0.68393
6245.27730,0.68335
6243.34856,0.68249
6241.41981,0.68309
6239.49107,0.68525
6237.56232,0.68706
6235.63358,0.68760
6233.70483,0.68756
6231.77609,0.68788
6229.84734,0.68865
6227.91860,0.68927
6225.98985,0.68940
6224.06111,0.68890
6222.13236,0.68840
6220.20362,0.68866
6218.27487,0.68876
6216.34613,0.68816
6214.41738,0.68787
6212.48863,0.68882
6210.55989,0.69059
6208.63114,0.69158
6206.70240,0.69162
6204.77365,0.69233
6202.84491,0.69415
6200.91616,0.69631
6198.98742,0.69694
6197.05867,0.69504
6195.12993,0.69363
6193.20118,0.69477
6191.27244,0.69560
6189.34369,0.69482
6187.41495,0.69396
6185.48620,0.69402
6183.55746,0.69603
6181.62871,0.69895
6179.69996,0.69998
6177.77122,0.70008
6175.84247,0.70192
6173.91373,0.70366
6171.98498,0.70296
6170.05624,0.70189
6168.12749,0.70164
6166.19875,0.70096
6164.27000,0.70122
6162.34126,0.70397
6160.41251,0.70701
6158.48377,0.70798
6156.55502,0.70716
6154.62628,0.70595
6152.69753,0.70592
6150.76878,0.70785
6148.84004,0.70991
6146.91129,0.70990
6144.98255,0.70909
6143.05380,0.70957
6141.12506,0.71061
6139.19631,0.71120
6137.26757,0.71126
6135.33882,0.71037
6133.41008,0.70989
6131.48133,0.71139
6129.55259,0.71285
6127.62384,0.71258
6125.69510,0.71205
6123.76635,0.71264
6121.83761,0.71342
6119.90886,0.71345
6117.98011,0.71414
6116.05137,0.71536
6114.12262,0.71442
6112.19388,0.71157
6110.26513,0.70942
6108.33639,0.70924
6106.40764,0.71119
6104.47890,0.71380
6102.55015,0.71461
6100.62141,0.71398
6098.69266,0.71373
6096.76392,0.71303
6094.83517,0.71203
6092.90643,0.71290
6090.97768,0.71488
6089.04893,0.71573
6087.12019,0.71521
6085.19144,0.71416
6083.26270,0.71307
6081.33395,0.71244
6079.40521,0.71317
6077.47646,0.71489
6075.54772,0.71544
6073.61897,0.71450
6071.69023,0.71394
6069.76148,0.71394
6067.83274,0.71468
6065.90399,0.71653
6063.97525,0.71722
6062.04650,0.71569
6060.11776,0.71378
6058.18901,0.71255
6056.26026,0.71179
6054.33152,0.71151
6052.40277,0.71131
6050.47403,0.71071
6048.54528,0.70987
6046.61654,0.70928
6044.68779,0.70948
6042.75905,0.70985
6040.83030,0.70962
6038.90156,0.70986
6036.97281,0.71071
6035.04407,0.70992
6033.11532,0.70732
6031.18658,0.70646
6029.25783,0.70844
6027.32909,0.70943
6025.40034,0.70732
6023.47159,0.70481
6021.54285,0.70394
6019.61410,0.70354
6017.68536,0.70230
6015.75661,0.70049
6013.82787,0.69898
6011.89912,0.69863
6009.97038,0.69996
6008.04163,0.70222
6006.11289,0.70324
6004.18414,0.70194
6002.25540,0.69962
6000.32665,0.69759
5998.39791,0.69630
5996.46916,0.69600
5994.54041,0.69589
5992.61167,0.69579
5990.68292,0.69676
5988.75418,0.69835
5986.82543,0.69929
5984.89669,0.69891
5982.96794,0.69757
5981.03920,0.69717
5979.11045,0.69803
5977.18171,0.69830
5975.25296,0.69768
5973.32422,0.69745
5971.39547,0.69760
5969.46673,0.69696
5967.53798,0.69560
5965.60924,0.69529
5963.68049,0.69654
5961.75174,0.69785
5959.82300,0.69822
5957.89425,0.69799
5955.96551,0.69802
5954.03676,0.69871
5952.10802,0.69958
5950.17927,0.70008
5948.25053,0.69944
5946.32178,0.69771
5944.39304,0.69635
5942.46429,0.69608
5940.53555,0.69650
5938.60680,0.69687
5936.67806,0.69707
5934.74931,0.69738
5932.82057,0.69747
5930.89182,0.69735
5928.96307,0.69752
5927.03433,0.69823
5925.10558,0.69962
5923.17684,0.70097
5921.24809,0.70112
5919.31935,0.69978
5917.39060,0.69769
5915.46186,0.69636
5913.53311,0.69587
5911.60437,0.69494
5909.67562,0.69377
5907.74688,0.69342
5905.81813,0.69422
5903.88939,0.69567
5901.96064,0.69608
5900.03189,0.69422
5898.10315,0.69188
5896.17440,0.69165
5894.24566,0.69324
5892.31691,0.69504
5890.38817,0.69579
5888.45942,0.69478
5886.53068,0.69295
5884.60193,0.69186
5882.67319,0.69194
5880.74444,0.69286
5878.81570,0.69394
5876.88695,0.69408
5874.95821,0.69312
5873.02946,0.69205
5871.10072,0.69125
5869.17197,0.69079
5867.24322,0.69051
5865.31448,0.68998
5863.38573,0.68965
5861.45699,0.68952
5859.52824,0.68916
5857.59950,0.68909
5855.67075,0.68954
5853.74201,0.68946
5851.81326,0.68917
5849.88452,0.69031
5847.95577,0.69196
5846.02703,0.69215
5844.09828,0.69098
5842.16954,0.68966
5840.24079,0.68881
5838.31205,0.68803
5836.38330,0.68795
5834.45455,0.68856
5832.52581,0.68809
5830.59706,0.68718
5828.66832,0.68720
5826.73957,0.68694
5824.81083,0.68597
5822.88208,0.68594
5820.95334,0.68721
5819.02459,0.68807
5817.09585,0.68779
5815.16710,0.68747
5813.23836,0.68727
5811.30961,0.68669
5809.38087,0.68616
5807.45212,0.68627
5805.52337,0.68698
5803.59463,0.68707
5801.66588,0.68590
5799.73714,0.68478
5797.80839,0.68437
5795.87965,0.68470
5793.95090,0.68541
5792.02216,0.68582
5790.09341,0.68636
5788.16467,0.68686
5786.23592,0.68672
5784.30718,0.68630
5782.37843,0.68582
5780.44969,0.68527
5778.52094,0.68500
5776.59220,0.68523
5774.66345,0.68576
5772.73470,0.68715
5770.80596,0.68903
5768.87721,0.68939
5766.94847,0.68900
5765.01972,0.69009
5763.09098,0.69125
5761.16223,0.69093
5759.23349,0.69045
5757.30474,0.69040
5755.37600,0.68982
5753.44725,0.68918
5751.51851,0.68952
5749.58976,0.68948
5747.66102,0.68772
5745.73227,0.68612
5743.80352,0.68677
5741.87478,0.68824
5739.94603,0.68839
5738.01729,0.68795
5736.08854,0.68757
5734.15980,0.68702
5732.23105,0.68705
5730.30231,0.68735
5728.37356,0.68720
5726.44482,0.68717
5724.51607,0.68759
5722.58733,0.68838
5720.65858,0.68925
5718.72984,0.68941
5716.80109,0.68846
5714.87235,0.68684
5712.94360,0.68561
5711.01485,0.68590
5709.08611,0.68784
5707.15736,0.68994
5705.22862,0.69067
5703.29987,0.68989
5701.37113,0.68909
5699.44238,0.68944
5697.51364,0.69008
5695.58489,0.69009
5693.65615,0.68962
5691.72740,0.68936
5689.79866,0.68910
5687.86991,0.68760
5685.94117,0.68563
5684.01242,0.68450
5682.08368,0.68403
5680.15493,0.68414
5678.22618,0.68443
5676.29744,0.68466
5674.36869,0.68536
5672.43995,0.68595
5670.51120,0.68571
5668.58246,0.68540
5666.65371,0.68554
5664.72497,0.68547
5662.79622,0.68477
5660.86748,0.68389
5658.93873,0.68379
5657.00999,0.68443
5655.08124,0.68495
5653.15250,0.68545
5651.22375,0.68617
5649.29500,0.68639
5647.36626,0.68580
5645.43751,0.68538
5643.50877,0.68573
5641.58002,0.68606
5639.65128,0.68596
5637.72253,0.68591
5635.79379,0.68569
5633.86504,0.68544
5631.93630,0.68616
5630.00755,0.68722
5628.07881,0.68714
5626.15006,0.68612
5624.22132,0.68522
5622.29257,0.68474
5620.36383,0.68492
5618.43508,0.68618
5616.50633,0.68775
5614.57759,0.68807
5612.64884,0.68720
5610.72010,0.68685
5608.79135,0.68733
5606.86261,0.68731
5604.93386,0.68674
5603.00512,0.68677
5601.07637,0.68723
5599.14763,0.68716
5597.21888,0.68688
5595.29014,0.68719
5593.36139,0.68777
5591.43265,0.68825
5589.50390,0.68821
5587.57516,0.68703
5585.64641,0.68548
5583.71766,0.68470
5581.78892,0.68474
5579.86017,0.68525
5577.93143,0.68578
5576.00268,0.68586
5574.07394,0.68576
5572.14519,0.68623
5570.21645,0.68755
5568.28770,0.68891
5566.35896,0.68892
5564.43021,0.68793
5562.50147,0.68768
5560.57272,0.68837
5558.64398,0.68919
5556.71523,0.69014
5554.78648,0.69061
5552.85774,0.68989
5550.92899,0.68913
5549.00025,0.68936
5547.07150,0.68974
5545.14276,0.68989
5543.21401,0.69050
5541.28527,0.69097
5539.35652,0.69034
5537.42778,0.68955
5535.49903,0.68986
5533.57029,0.69059
5531.64154,0.69078
5529.71280,0.69091
5527.78405,0.69105
5525.85531,0.69083
5523.92656,0.69079
5521.99781,0.69099
5520.06907,0.69045
5518.14032,0.68989
5516.21158,0.69099
5514.28283,0.69232
5512.35409,0.69245
5510.42534,0.69242
5508.49660,0.69240
5506.56785,0.69219
5504.63911,0.69211
5502.71036,0.69216
5500.78162,0.69218
5498.85287,0.69196
5496.92413,0.69138
5494.99538,0.69062
5493.06664,0.69029
5491.13789,0.69069
5489.20914,0.69170
5487.28040,0.69317
5485.35165,0.69438
5483.42291,0.69500
5481.49416,0.69501
5479.56542,0.69434
5477.63667,0.69362
5475.70793,0.69369
5473.77918,0.69466
5471.85044,0.69546
5469.92169,0.69523
5467.99295,0.69466
5466.06420,0.69482
5464.13546,0.69527
5462.20671,0.69538
5460.27796,0.69530
5458.34922,0.69523
5456.42047,0.69566
5454.49173,0.69647
5452.56298,0.69689
5450.63424,0.69728
5448.70549,0.69808
5446.77675,0.69882
5444.84800,0.69919
5442.91926,0.69955
5440.99051,0.70024
5439.06177,0.70124
5437.13302,0.70195
5435.20428,0.70176
5433.27553,0.70082
5431.34679,0.69987
5429.41804,0.69983
5427.48929,0.70051
5425.56055,0.70068
5423.63180,0.70085
5421.70306,0.70172
5419.77431,0.70218
5417.84557,0.70193
5415.91682,0.70243
5413.98808,0.70408
5412.05933,0.70568
5410.13059,0.70614
5408.20184,0.70538
5406.27310,0.70458
5404.34435,0.70466
5402.41561,0.70529
5400.48686,0.70625
5398.55811,0.70701
5396.62937,0.70674
5394.70062,0.70644
5392.77188,0.70709
5390.84313,0.70772
5388.91439,0.70747
5386.98564,0.70661
5385.05690,0.70605
5383.12815,0.70628
5381.19941,0.70669
5379.27066,0.70739
5377.34192,0.70792
5375.41317,0.70672
5373.48443,0.70503
5371.55568,0.70554
5369.62694,0.70764
5367.69819,0.70861
5365.76944,0.70766
5363.84070,0.70606
5361.91195,0.70463
5359.98321,0.70355
5358.05446,0.70305
5356.12572,0.70320
5354.19697,0.70384
5352.26823,0.70440
5350.33948,0.70438
5348.41074,0.70403
5346.48199,0.70365
5344.55325,0.70273
5342.62450,0.70103
5340.69576,0.70028
5338.76701,0.70149
5336.83827,0.70211
5334.90952,0.70065
5332.98077,0.69888
5331.05203,0.69769
5329.12328,0.69659
5327.19454,0.69533
5325.26579,0.69418
5323.33705,0.69332
5321.40830,0.69165
5319.47956,0.68869
5317.55081,0.68623
5315.62207,0.68540
5313.69332,0.68519
5311.76458,0.68415
5309.83583,0.68184
5307.90709,0.67884
5305.97834,0.67597
5304.04959,0.67400
5302.12085,0.67260
5300.19210,0.67074
5298.26336,0.66858
5296.33461,0.66605
5294.40587,0.66262
5292.47712,0.65872
5290.54838,0.65518
5288.61963,0.65251
5286.69089,0.64999
5284.76214,0.64672
5282.83340,0.64313
5280.90465,0.63955
5278.97591,0.63545
5277.04716,0.63074
5275.11842,0.62596
5273.18967,0.62170
5271.26092,0.61814
5269.33218,0.61434
5267.40343,0.60970
5265.47469,0.60525
5263.54594,0.60138
5261.61720,0.59756
5259.68845,0.59373
5257.75971,0.58967
5255.83096,0.58520
5253.90222,0.58060
5251.97347,0.57645
5250.04473,0.57295
5248.11598,0.56991
5246.18724,0.56726
5244.25849,0.56465
5242.32975,0.56183
5240.40100,0.55935
5238.47225,0.55709
5236.54351,0.55432
5234.61476,0.55139
5232.68602,0.54870
5230.75727,0.54584
5228.82853,0.54296
5226.89978,0.54063
5224.97104,0.53894
5223.04229,0.53752
5221.11355,0.53582
5219.18480,0.53392
5217.25606,0.53265
5215.32731,0.53196
5213.39857,0.53084
5211.46982,0.52924
5209.54107,0.52811
5207.61233,0.52797
5205.68358,0.52778
5203.75484,0.52660
5201.82609,0.52536
5199.89735,0.52462
5197.96860,0.52418
5196.03986,0.52420
5194.11111,0.52451
5192.18237,0.52465
5190.25362,0.52435
5188.32488,0.52418
5186.39613,0.52477
5184.46739,0.52534
5182.53864,0.52585
5180.60990,0.52700
5178.68115,0.52807
5176.75240,0.52794
5174.82366,0.52692
5172.89491,0.52631
5170.96617,0.52702
5169.03742,0.52875
5167.10868,0.53041
5165.17993,0.53150
5163.25119,0.53242
5161.32244,0.53347
5159.39370,0.53448
5157.46495,0.53530
5155.53621,0.53592
5153.60746,0.53666
5151.67872,0.53779
5149.74997,0.53893
5147.82123,0.53991
5145.89248,0.54124
5143.96373,0.54298
5142.03499,0.54468
5140.10624,0.54627
5138.17750,0.54794
5136.24875,0.54926
5134.32001,0.54984
5132.39126,0.55021
5130.46252,0.55088
5128.53377,0.55178
5126.60503,0.55295
5124.67628,0.55449
5122.74754,0.55586
5120.81879,0.55648
5118.89005,0.55716
5116.96130,0.55877
5115.03255,0.56094
5113.10381,0.56280
5111.17506,0.56367
5109.24632,0.56411
5107.31757,0.56505
5105.38883,0.56591
5103.46008,0.56655
5101.53134,0.56792
5099.60259,0.56983
5097.67385,0.57137
5095.74510,0.57228
5093.81636,0.57271
5091.88761,0.57319
5089.95887,0.57430
5088.03012,0.57598
5086.10138,0.57750
5084.17263,0.57860
5082.24388,0.57956
5080.31514,0.58076
5078.38639,0.58220
5076.45765,0.58338
5074.52890,0.58429
5072.60016,0.58511
5070.67141,0.58569
5068.74267,0.58636
5066.81392,0.58765
5064.88518,0.58900
5062.95643,0.58944
5061.02769,0.58955
5059.09894,0.59049
5057.17020,0.59209
5055.24145,0.59350
5053.31270,0.59424
5051.38396,0.59470
5049.45521,0.59547
5047.52647,0.59682
5045.59772,0.59855
5043.66898,0.59980
5041.74023,0.60012
5039.81149,0.60028
5037.88274,0.60077
5035.95400,0.60145
5034.02525,0.60241
5032.09651,0.60350
5030.16776,0.60433
5028.23902,0.60500
5026.31027,0.60554
5024.38153,0.60602
5022.45278,0.60699
5020.52403,0.60839
5018.59529,0.60960
5016.66654,0.61013
5014.73780,0.60977
5012.80905,0.60931
5010.88031,0.60964
5008.95156,0.61037
5007.02282,0.61094
5005.09407,0.61145
5003.16533,0.61195
5001.23658,0.61242
4999.30784,0.61247
4997.37909,0.61179
4995.45035,0.61113
4993.52160,0.61142
4991.59286,0.61260
4989.66411,0.61353
4987.73536,0.61337
4985.80662,0.61277
4983.87787,0.61242
4981.94913,0.61199
4980.02038,0.61138
4978.09164,0.61077
4976.16289,0.61012
4974.23415,0.60942
4972.30540,0.60846
4970.37666,0.60745
4968.44791,0.60685
4966.51917,0.60643
4964.59042,0.60588
4962.66168,0.60522
4960.73293,0.60467
4958.80418,0.60426
4956.87544,0.60358
4954.94669,0.60265
4953.01795,0.60186
4951.08920,0.60117
4949.16046,0.60011
4947.23171,0.59858
4945.30297,0.59688
4943.37422,0.59519
4941.44548,0.59337
4939.51673,0.59157
4937.58799,0.59036
4935.65924,0.58960
4933.73050,0.58852
4931.80175,0.58705
4929.87301,0.58551
4927.94426,0.58405
4926.01551,0.58269
4924.08677,0.58126
4922.15802,0.57950
4920.22928,0.57724
4918.30053,0.57492
4916.37179,0.57310
4914.44304,0.57146
4912.51430,0.56941
4910.58555,0.56719
4908.65681,0.56536
4906.72806,0.56386
4904.79932,0.56238
4902.87057,0.56109
4900.94183,0.56014
4899.01308,0.55902
4897.08434,0.55722
4895.15559,0.55517
4893.22684,0.55362
4891.29810,0.55241
4889.36935,0.55064
4887.44061,0.54830
4885.51186,0.54644
4883.58312,0.54527
4881.65437,0.54437
4879.72563,0.54354
4877.79688,0.54218
4875.86814,0.53994
4873.93939,0.53787
4872.01065,0.53670
4870.08190,0.53595
4868.15316,0.53480
4866.22441,0.53266
4864.29566,0.53025
4862.36692,0.52855
4860.43817,0.52726
4858.50943,0.52600
4856.58068,0.52468
4854.65194,0.52335
4852.72319,0.52250
4850.79445,0.52203
4848.86570,0.52099
4846.93696,0.51909
4845.00821,0.51724
4843.07947,0.51617
4841.15072,0.51593
4839.22198,0.51572
4837.29323,0.51470
4835.36449,0.51323
4833.43574,0.51186
4831.50699,0.51056
4829.57825,0.50923
4827.64950,0.50781
4825.72076,0.50629
4823.79201,0.50488
4821.86327,0.50400
4819.93452,0.50347
4818.00578,0.50291
4816.07703,0.50253
4814.14829,0.50210
4812.21954,0.50101
4810.29080,0.49970
4808.36205,0.49912
4806.43331,0.49937
4804.50456,0.49960
4802.57582,0.49899
4800.64707,0.49793
4798.71832,0.49724
4796.78958,0.49690
4794.86083,0.49672
4792.93209,0.49676
4791.00334,0.49663
4789.07460,0.49596
4787.14585,0.49502
4785.21711,0.49423
4783.28836,0.49365
4781.35962,0.49329
4779.43087,0.49313
4777.50213,0.49293
4775.57338,0.49251
4773.64464,0.49199
4771.71589,0.49188
4769.78714,0.49220
4767.85840,0.49237
4765.92965,0.49205
4764.00091,0.49150
4762.07216,0.49118
4760.14342,0.49107
4758.21467,0.49111
4756.28593,0.49134
4754.35718,0.49136
4752.42844,0.49134
4750.49969,0.49167
4748.57095,0.49202
4746.64220,0.49210
4744.71346,0.49193
4742.78471,0.49158
4740.85597,0.49128
4738.92722,0.49116
4736.99847,0.49126
4735.06973,0.49163
4733.14098,0.49218
4731.21224,0.49295
4729.28349,0.49367
4727.35475,0.49387
4725.42600,0.49390
4723.49726,0.49403
4721.56851,0.49407
4719.63977,0.49401
4717.71102,0.49399
4715.78228,0.49407
4713.85353,0.49421
4711.92479,0.49440
4709.99604,0.49485
4708.06729,0.49533
4706.13855,0.49542
4704.20980,0.49551
4702.28106,0.49603
4700.35231,0.49669
4698.42357,0.49703
4696.49482,0.49698
4694.56608,0.49723
4692.63733,0.49783
4690.70859,0.49809
4688.77984,0.49822
4686.85110,0.49835
4684.92235,0.49828
4682.99361,0.49862
4681.06486,0.49959
4679.13612,0.50018
4677.20737,0.50008
4675.27862,0.49997
4673.34988,0.50026
4671.42113,0.50113
4669.49239,0.50240
4667.56364,0.50330
4665.63490,0.50370
4663.70615,0.50411
4661.77741,0.50495
4659.84866,0.50643
4657.91992,0.50786
4655.99117,0.50835
4654.06243,0.50843
4652.13368,0.50903
4650.20494,0.51000
4648.27619,0.51085
4646.34745,0.51163
4644.41870,0.51238
4642.48995,0.51292
4640.56121,0.51338
4638.63246,0.51390
4636.70372,0.51460
4634.77497,0.51575
4632.84623,0.51709
4630.91748,0.51802
4628.98874,0.51878
4627.05999,0.51981
4625.13125,0.52076
4623.20250,0.52141
4621.27376,0.52224
4619.34501,0.52352
4617.41627,0.52486
4615.48752,0.52598
4613.55877,0.52722
4611.63003,0.52882
4609.70128,0.53030
4607.77254,0.53123
4605.84379,0.53174
4603.91505,0.53232
4601.98630,0.53316
4600.05756,0.53402
4598.12881,0.53473
4596.20007,0.53528
4594.27132,0.53568
4592.34258,0.53645
4590.41383,0.53773
4588.48509,0.53871
4586.55634,0.53937
4584.62760,0.54022
4582.69885,0.54112
4580.77010,0.54179
4578.84136,0.54230
4576.91261,0.54299
4574.98387,0.54370
4573.05512,0.54419
4571.12638,0.54475
4569.19763,0.54527
4567.26889,0.54549
4565.34014,0.54560
4563.41140,0.54590
4561.48265,0.54667
4559.55391,0.54765
4557.62516,0.54817
4555.69642,0.54820
4553.76767,0.54813
4551.83893,0.54836
4549.91018,0.54920
4547.98143,0.55053
4546.05269,0.55181
4544.12394,0.55242
4542.19520,0.55242
4540.26645,0.55240
4538.33771,0.55250
4536.40896,0.55263
4534.48022,0.55300
4532.55147,0.55344
4530.62273,0.55350
4528.69398,0.55346
4526.76524,0.55381
4524.83649,0.55417
4522.90775,0.55403
4520.97900,0.55394
4519.05025,0.55446
4517.12151,0.55485
4515.19276,0.55443
4513.26402,0.55365
4511.33527,0.55309
4509.40653,0.55286
4507.47778,0.55278
4505.54904,0.55252
4503.62029,0.55205
4501.69155,0.55156
4499.76280,0.55102
4497.83406,0.55008
4495.90531,0.54889
4493.97657,0.54770
4492.04782,0.54634
4490.11908,0.54504
4488.19033,0.54400
4486.26158,0.54286
4484.33284,0.54146
4482.40409,0.53995
4480.47535,0.53849
4478.54660,0.53724
4476.61786,0.53589
4474.68911,0.53382
4472.76037,0.53136
4470.83162,0.52930
4468.90288,0.52722
4466.97413,0.52461
4465.04539,0.52220
4463.11664,0.52049
4461.18790,0.51874
4459.25915,0.51636
4457.33041,0.51380
4455.40166,0.51149
4453.47291,0.50926
4451.54417,0.50676
4449.61542,0.50396
4447.68668,0.50118
4445.75793,0.49860
4443.82919,0.49615
4441.90044,0.49399
4439.97170,0.49205
4438.04295,0.49005
4436.11421,0.48779
4434.18546,0.48530
4432.25672,0.48269
4430.32797,0.48010
4428.39923,0.47756
4426.47048,0.47499
4424.54173,0.47245
4422.61299,0.47001
4420.68424,0.46742
4418.75550,0.46472
4416.82675,0.46233
4414.89801,0.46033
4412.96926,0.45860
4411.04052,0.45709
4409.11177,0.45576
4407.18303,0.45455
4405.25428,0.45349
4403.32554,0.45249
4401.39679,0.45141
4399.46805,0.45064
4397.53930,0.45056
4395.61056,0.45090
4393.68181,0.45134
4391.75306,0.45183
4389.82432,0.45246
4387.89557,0.45298
4385.96683,0.45313
4384.03808,0.45325
4382.10934,0.45383
4380.18059,0.45471
4378.25185,0.45543
4376.32310,0.45602
4374.39436,0.45661
4372.46561,0.45734
4370.53687,0.45848
4368.60812,0.45965
4366.67938,0.46030
4364.75063,0.46056
4362.82189,0.46070
4360.89314,0.46085
4358.96439,0.46101
4357.03565,0.46123
4355.10690,0.46142
4353.17816,0.46156
4351.24941,0.46185
4349.32067,0.46200
4347.39192,0.46175
4345.46318,0.46154
4343.53443,0.46140
4341.60569,0.46093
4339.67694,0.46027
4337.74820,0.45979
4335.81945,0.45952
4333.89071,0.45919
4331.96196,0.45851
4330.03321,0.45773
4328.10447,0.45687
4326.17572,0.45576
4324.24698,0.45481
4322.31823,0.45409
4320.38949,0.45323
4318.46074,0.45219
4316.53200,0.45112
4314.60325,0.45022
4312.67451,0.44955
4310.74576,0.44893
4308.81702,0.44832
4306.88827,0.44774
4304.95953,0.44695
4303.03078,0.44595
4301.10204,0.44500
4299.17329,0.44409
4297.24454,0.44320
4295.31580,0.44246
4293.38705,0.44167
4291.45831,0.44070
4289.52956,0.43989
4287.60082,0.43941
4285.67207,0.43918
4283.74333,0.43914
4281.81458,0.43912
4279.88584,0.43896
4277.95709,0.43880
4276.02835,0.43893
4274.09960,0.43924
4272.17086,0.43939
4270.24211,0.43963
4268.31336,0.44000
4266.38462,0.44034
4264.45587,0.44085
4262.52713,0.44129
4260.59838,0.44154
4258.66964,0.44184
4256.74089,0.44214
4254.81215,0.44261
4252.88340,0.44326
4250.95466,0.44371
4249.02591,0.44400
4247.09717,0.44422
4245.16842,0.44443
4243.23968,0.44468
4241.31093,0.44470
4239.38219,0.44462
4237.45344,0.44479
4235.52469,0.44490
4233.59595,0.44467
4231.66720,0.44455
4229.73846,0.44500
4227.80971,0.44553
4225.88097,0.44565
4223.95222,0.44558
4222.02348,0.44547
4220.09473,0.44527
4218.16599,0.44516
4216.23724,0.44512
4214.30850,0.44499
4212.37975,0.44486
4210.45101,0.44483
4208.52226,0.44468
4206.59352,0.44434
4204.66477,0.44415
4202.73602,0.44421
4200.80728,0.44437
4198.87853,0.44451
4196.94979,0.44465
4195.02104,0.44497
4193.09230,0.44547
4191.16355,0.44588
4189.23481,0.44608
4187.30606,0.44614
4185.37732,0.44634
4183.44857,0.44684
4181.51983,0.44734
4179.59108,0.44780
4177.66234,0.44827
4175.73359,0.44861
4173.80484,0.44899
4171.87610,0.44952
4169.94735,0.44994
4168.01861,0.45039
4166.08986,0.45094
4164.16112,0.45122
4162.23237,0.45117
4160.30363,0.45096
4158.37488,0.45066
4156.44614,0.45034
4154.51739,0.44992
4152.58865,0.44940
4150.65990,0.44872
4148.73116,0.44794
4146.80241,0.44759
4144.87367,0.44760
4142.94492,0.44714
4141.01617,0.44610
4139.08743,0.44502
4137.15868,0.44416
4135.22994,0.44328
4133.30119,0.44212
4131.37245,0.44062
4129.44370,0.43889
4127.51496,0.43743
4125.58621,0.43628
4123.65747,0.43484
4121.72872,0.43311
4119.79998,0.43161
4117.87123,0.43044
4115.94249,0.42925
4114.01374,0.42783
4112.08500,0.42613
4110.15625,0.42436
4108.22750,0.42288
4106.29876,0.42142
4104.37001,0.41956
4102.44127,0.41766
4100.51252,0.41603
4098.58378,0.41456
4096.65503,0.41297
4094.72629,0.41117
4092.79754,0.40922
4090.86880,0.40716
4088.94005,0.40489
4087.01131,0.40253
4085.08256,0.40058
4083.15382,0.39909
4081.22507,0.39742
4079.29632,0.39545
4077.36758,0.39351
4075.43883,0.39167
4073.51009,0.38995
4071.58134,0.38826
4069.65260,0.38635
4067.72385,0.38422
4065.79511,0.38201
4063.86636,0.37991
4061.93762,0.37799
4060.00887,0.37623
4058.08013,0.37466
4056.15138,0.37327
4054.22264,0.37180
4052.29389,0.37000
4050.36515,0.36803
4048.43640,0.36621
4046.50765,0.36458
4044.57891,0.36307
4042.65016,0.36166
4040.72142,0.36032
4038.79267,0.35895
4036.86393,0.35760
4034.93518,0.35662
4033.00644,0.35582
4031.07769,0.35461
4029.14895,0.35320
4027.22020,0.35216
4025.29146,0.35147
4023.36271,0.35086
4021.43397,0.35022
4019.50522,0.34943
4017.57648,0.34869
4015.64773,0.34835
4013.71898,0.34828
4011.79024,0.34829
4009.86149,0.34843
4007.93275,0.34853
4006.00400,0.34857
4004.07526,0.34878
4002.14651,0.34897
4000.21777,0.34871
3998.28902,0.34841
3996.36028,0.34893
3994.43153,0.35001
3992.50279,0.35074
3990.57404,0.35100
3988.64530,0.35112
3986.71655,0.35134
3984.78780,0.35188
3982.85906,0.35245
3980.93031,0.35280
3979.00157,0.35316
3977.07282,0.35360
3975.14408,0.35407
3973.21533,0.35470
3971.28659,0.35533
3969.35784,0.35595
3967.42910,0.35674
3965.50035,0.35760
3963.57161,0.35869
3961.64286,0.35986
3959.71412,0.36062
3957.78537,0.36134
3955.85663,0.36244
3953.92788,0.36359
3951.99913,0.36446
3950.07039,0.36514
3948.14164,0.36583
3946.21290,0.36671
3944.28415,0.36762
3942.35541,0.36828
3940.42666,0.36886
3938.49792,0.36969
3936.56917,0.37074
3934.64043,0.37183
3932.71168,0.37294
3930.78294,0.37439
3928.85419,0.37612
3926.92545,0.37741
3924.99670,0.37808
3923.06795,0.37868
3921.13921,0.37956
3919.21046,0.38059
3917.28172,0.38156
3915.35297,0.38237
3913.42423,0.38307
3911.49548,0.38380
3909.56674,0.38480
3907.63799,0.38611
3905.70925,0.38746
3903.78050,0.38837
3901.85176,0.38885
3899.92301,0.38938
3897.99427,0.38993
3896.06552,0.39031
3894.13678,0.39078
3892.20803,0.39161
3890.27928,0.39258
3888.35054,0.39352
3886.42179,0.39463
3884.49305,0.39559
3882.56430,0.39591
3880.63556,0.39596
3878.70681,0.39630
3876.77807,0.39707
3874.84932,0.39829
3872.92058,0.39990
3870.99183,0.40155
3869.06309,0.40265
3867.13434,0.40308
3865.20560,0.40361
3863.27685,0.40457
3861.34811,0.40546
3859.41936,0.40620
3857.49061,0.40723
3855.56187,0.40853
3853.63312,0.40944
3851.70438,0.40972
3849.77563,0.41020
3847.84689,0.41113
3845.91814,0.41229
3843.98940,0.41322
3842.06065,0.41365
3840.13191,0.41398
3838.20316,0.41476
3836.27442,0.41551
3834.34567,0.41566
3832.41693,0.41561
3830.48818,0.41578
3828.55943,0.41595
3826.63069,0.41583
3824.70194,0.41561
3822.77320,0.41583
3820.84445,0.41639
3818.91571,0.41647
3816.98696,0.41621
3815.05822,0.41590
3813.12947,0.41527
3811.20073,0.41465
3809.27198,0.41473
3807.34324,0.41535
3805.41449,0.41556
3803.48575,0.41539
3801.55700,0.41530
3799.62826,0.41513
3797.69951,0.41497
3795.77076,0.41488
3793.84202,0.41446
3791.91327,0.41365
3789.98453,0.41268
3788.05578,0.41196
3786.12704,0.41166
3784.19829,0.41170
3782.26955,0.41191
3780.34080,0.41180
3778.41206,0.41097
3776.48331,0.40988
3774.55457,0.40909
3772.62582,0.40875
3770.69708,0.40852
3768.76833,0.40786
3766.83959,0.40699
3764.91084,0.40629
3762.98209,0.40576
3761.05335,0.40525
3759.12460,0.40428
3757.19586,0.40311
3755.26711,0.40243
3753.33837,0.40220
3751.40962,0.40185
3749.48088,0.40092
3747.55213,0.39995
3745.62339,0.39880
3743.69464,0.39677
3741.76590,0.39456
3739.83715,0.39300
3737.90841,0.39200
3735.97966,0.39110
3734.05091,0.38971
3732.12217,0.38745
3730.19342,0.38492
3728.26468,0.38292
3726.33593,0.38142
3724.40719,0.37967
3722.47844,0.37719
3720.54970,0.37448
3718.62095,0.37197
3716.69221,0.36953
3714.76346,0.36710
3712.83472,0.36442
3710.90597,0.36118
3708.97723,0.35787
3707.04848,0.35472
3705.11974,0.35147
3703.19099,0.34801
3701.26224,0.34407
3699.33350,0.33982
3697.40475,0.33557
3695.47601,0.33124
3693.54726,0.32692
3691.61852,0.32214
3689.68977,0.31597
3687.76103,0.30880
3685.83228,0.30207
3683.90354,0.29582
3681.97479,0.28941
3680.04605,0.28278
3678.11730,0.27608
3676.18856,0.26854
3674.25981,0.26045
3672.33107,0.25310
3670.40232,0.24502
3668.47357,0.23632
3666.54483,0.22885
3664.61608,0.22182
3662.68734,0.21479
3660.75859,0.20819
3658.82985,0.20187
3656.90110,0.19513
3654.97236,0.18862
3653.04361,0.18346
3651.11487,0.17853
3649.18612,0.17255
3647.25738,0.16659
3645.32863,0.16185
3643.39989,0.15770
3641.47114,0.15349
3639.54239,0.14919
3637.61365,0.14517
3635.68490,0.14158
3633.75616,0.13811
3631.82741,0.13481
3629.89867,0.13173
3627.96992,0.12846
3626.04118,0.12516
3624.11243,0.12207
3622.18369,0.11934
3620.25494,0.11682
3618.32620,0.11401
3616.39745,0.11121
3614.46871,0.10883
3612.53996,0.10672
3610.61122,0.10469
3608.68247,0.10273
3606.75372,0.10078
3604.82498,0.09876
3602.89623,0.09666
3600.96749,0.09445
3599.03874,0.09242
3597.11000,0.09069
3595.18125,0.08891
3593.25251,0.08707
3591.32376,0.08560
3589.39502,0.08441
3587.46627,0.08292
3585.53753,0.08121
3583.60878,0.07993
3581.68004,0.07878
3579.75129,0.07723
3577.82254,0.07557
3575.89380,0.07423
3573.96505,0.07316
3572.03631,0.07223
3570.10756,0.07146
3568.17882,0.07077
3566.25007,0.06978
3564.32133,0.06851
3562.39258,0.06730
3560.46384,0.06624
3558.53509,0.06545
3556.60635,0.06493
3554.67760,0.06442
3552.74886,0.06372
3550.82011,0.06309
3548.89137,0.06253
3546.96262,0.06172
3545.03387,0.06091
3543.10513,0.06052
3541.17638,0.06023
3539.24764,0.05950
3537.31889,0.05854
3535.39015,0.05803
3533.46140,0.05784
3531.53266,0.05739
3529.60391,0.05690
3527.67517,0.05664
3525.74642,0.05604
3523.81768,0.05517
3521.88893,0.05486
3519.96019,0.05500
3518.03144,0.05483
3516.10270,0.05429
3514.17395,0.05393
3512.24520,0.05387
3510.31646,0.05365
3508.38771,0.05326
3506.45897,0.05293
3504.53022,0.05249
3502.60148,0.05206
3500.67273,0.05180
3498.74399,0.05144
3496.81524,0.05107
3494.88650,0.05093
3492.95775,0.05081
3491.02901,0.05048
3489.10026,0.05015
3487.17152,0.04985
3485.24277,0.04951
3483.31402,0.04937
3481.38528,0.04937
3479.45653,0.04917
3477.52779,0.04874
3475.59904,0.04837
3473.67030,0.04816
3471.74155,0.04805
3469.81281,0.04811
3467.88406,0.04817
3465.95532,0.04814
3464.02657,0.04812
3462.09783,0.04817
3460.16908,0.04821
3458.24034,0.04821
3456.31159,0.04808
3454.38285,0.04787
3452.45410,0.04772
3450.52535,0.04767
3448.59661,0.04763
3446.66786,0.04760
3444.73912,0.04761
3442.81037,0.04757
3440.88163,0.04744
3438.95288,0.04733
3437.02414,0.04729
3435.09539,0.04745
3433.16665,0.04776
3431.23790,0.04772
3429.30916,0.04724
3427.38041,0.04702
3425.45167,0.04732
3423.52292,0.04761
3421.59418,0.04759
3419.66543,0.04738
3417.73668,0.04711
3415.80794,0.04706
3413.87919,0.04738
3411.95045,0.04778
3410.02170,0.04802
3408.09296,0.04835
3406.16421,0.04875
3404.23547,0.04894
3402.30672,0.04889
3400.37798,0.04877
3398.44923,0.04868
3396.52049,0.04847
3394.59174,0.04829
3392.66300,0.04846
3390.73425,0.04882
3388.80550,0.04901
3386.87676,0.04895
3384.94801,0.04875
3383.01927,0.04853
3381.09052,0.04841
3379.16178,0.04860
3377.23303,0.04906
3375.30429,0.04940
3373.37554,0.04943
3371.44680,0.04932
3369.51805,0.04926
3367.58931,0.04923
3365.66056,0.04935
3363.73182,0.04975
3361.80307,0.05014
3359.87433,0.05024
3357.94558,0.05020
3356.01683,0.05028
3354.08809,0.05041
3352.15934,0.05052
3350.23060,0.05076
3348.30185,0.05117
3346.37311,0.05170
3344.44436,0.05216
3342.51562,0.05234
3340.58687,0.05246
3338.65813,0.05266
3336.72938,0.05293
3334.80064,0.05331
3332.87189,0.05366
3330.94315,0.05378
3329.01440,0.05386
3327.08566,0.05402
3325.15691,0.05434
3323.22816,0.05489
3321.29942,0.05537
3319.37067,0.05554
3317.44193,0.05536
3315.51318,0.05510
3313.58444,0.05541
3311.65569,0.05619
3309.72695,0.05677
3307.79820,0.05705
3305.86946,0.05726
3303.94071,0.05746
3302.01197,0.05766
3300.08322,0.05770
3298.15448,0.05748
3296.22573,0.05730
3294.29698,0.05745
3292.36824,0.05799
3290.43949,0.05882
3288.51075,0.05939
3286.58200,0.05945
3284.65326,0.05943
3282.72451,0.05957
3280.79577,0.05969
3278.86702,0.05980
3276.93828,0.06011
3275.00953,0.06068
3273.08079,0.06134
3271.15204,0.06188
3269.22330,0.06223
3267.29455,0.06245
3265.36581,0.06277
3263.43706,0.06341
3261.50831,0.06397
3259.57957,0.06400
3257.65082,0.06400
3255.72208,0.06449
3253.79333,0.06508
3251.86459,0.06541
3249.93584,0.06571
3248.00710,0.06608
3246.07835,0.06633
3244.14961,0.06653
3242.22086,0.06703
3240.29212,0.06776
3238.36337,0.06822
3236.43463,0.06839
3234.50588,0.06876
3232.57713,0.06941
3230.64839,0.06999
3228.71964,0.07031
3226.79090,0.07071
3224.86215,0.07133
3222.93341,0.07183
3221.00466,0.07205
3219.07592,0.07253
3217.14717,0.07356
3215.21843,0.07451
3213.28968,0.07492
3211.36094,0.07524
3209.43219,0.07571
3207.50345,0.07602
3205.57470,0.07618
3203.64596,0.07650
3201.71721,0.07710
3199.78846,0.07789
3197.85972,0.07855
3195.93097,0.07890
3194.00223,0.07924
3192.07348,0.07983
3190.14474,0.08047
3188.21599,0.08096
3186.28725,0.08154
3184.35850,0.08234
3182.42976,0.08318
3180.50101,0.08390
3178.57227,0.08445
3176.64352,0.08490
3174.71478,0.08558
3172.78603,0.08650
3170.85729,0.08724
3168.92854,0.08772
3166.99979,0.08818
3165.07105,0.08870
3163.14230,0.08931
3161.21356,0.09010
3159.28481,0.09105
3157.35607,0.09202
3155.42732,0.09293
3153.49858,0.09365
3151.56983,0.09421
3149.64109,0.09481
3147.71234,0.09539
3145.78360,0.09589
3143.85485,0.09648
3141.92611,0.09717
3139.99736,0.09794
3138.06861,0.09887
3136.13987,0.09977
3134.21112,0.10034
3132.28238,0.10079
3130.35363,0.10147
3128.42489,0.10228
3126.49614,0.10281
3124.56740,0.10316
3122.63865,0.10364
3120.70991,0.10434
3118.78116,0.10521
3116.85242,0.10591
3114.92367,0.10635
3112.99493,0.10693
3111.06618,0.10786
3109.13744,0.10879
3107.20869,0.10937
3105.27994,0.10981
3103.35120,0.11054
3101.42245,0.11161
3099.49371,0.11268
3097.56496,0.11351
3095.63622,0.11422
3093.70747,0.11493
3091.77873,0.11547
3089.84998,0.11579
3087.92124,0.11620
3085.99249,0.11688
3084.06375,0.11762
3082.13500,0.11809
3080.20626,0.11839
3078.27751,0.11889
3076.34877,0.11963
3074.42002,0.12040
3072.49127,0.12109
3070.56253,0.12176
3068.63378,0.12244
3066.70504,0.12310
3064.77629,0.12368
3062.84755,0.12437
3060.91880,0.12537
3058.99006,0.12641
3057.06131,0.12712
3055.13257,0.12750
3053.20382,0.12798
3051.27508,0.12873
3049.34633,0.12940
3047.41759,0.12977
3045.48884,0.13019
3043.56009,0.13088
3041.63135,0.13164
3039.70260,0.13216
3037.77386,0.13255
3035.84511,0.13298
3033.91637,0.13320
3031.98762,0.13321
3030.05888,0.13329
3028.13013,0.13357
3026.20139,0.13394
3024.27264,0.13395
3022.34390,0.13341
3020.41515,0.13279
3018.48641,0.13229
3016.55766,0.13159
3014.62892,0.13088
3012.70017,0.13045
3010.77142,0.13000
3008.84268,0.12941
3006.91393,0.12884
3004.98519,0.12815
3003.05644,0.12730
3001.12770,0.12660
2999.19895,0.12607
2997.27021,0.12533
2995.34146,0.12431
2993.41272,0.12319
2991.48397,0.12202
2989.55523,0.12089
2987.62648,0.11987
2985.69774,0.11858
2983.76899,0.11682
2981.84025,0.11473
2979.91150,0.11236
2977.98275,0.10974
2976.05401,0.10695
2974.12526,0.10422
2972.19652,0.10180
2970.26777,0.09970
2968.33903,0.09803
2966.41028,0.09690
2964.48154,0.09594
2962.55279,0.09468
2960.62405,0.09315
2958.69530,0.09164
2956.76656,0.09027
2954.83781,0.08905
2952.90907,0.08784
2950.98032,0.08642
2949.05157,0.08511
2947.12283,0.08415
2945.19408,0.08338
2943.26534,0.08264
2941.33659,0.08193
2939.40785,0.08118
2937.47910,0.08036
2935.55036,0.07973
2933.62161,0.07945
2931.69287,0.07939
2929.76412,0.07952
2927.83538,0.07987
2925.90663,0.08018
2923.97789,0.08025
2922.04914,0.08016
2920.12040,0.07997
2918.19165,0.07972
2916.26290,0.07947
2914.33416,0.07946
2912.40541,0.07971
2910.47667,0.07992
2908.54792,0.07999
2906.61918,0.07994
2904.69043,0.07988
2902.76169,0.08002
2900.83294,0.08021
2898.90420,0.08036
2896.97545,0.08069
2895.04671,0.08122
2893.11796,0.08180
2891.18922,0.08239
2889.26047,0.08295
2887.33172,0.08334
2885.40298,0.08356
2883.47423,0.08374
2881.54549,0.08413
2879.61674,0.08477
2877.68800,0.08529
2875.75925,0.08562
2873.83051,0.08610
2871.90176,0.08689
2869.97302,0.08781
2868.04427,0.08870
2866.11553,0.08960
2864.18678,0.09054
2862.25804,0.09144
2860.32929,0.09225
2858.40055,0.09315
2856.47180,0.09429
2854.54305,0.09565
2852.61431,0.09711
2850.68556,0.09866
2848.75682,0.10026
2846.82807,0.10187
2844.89933,0.10355
2842.97058,0.10548
2841.04184,0.10762
2839.11309,0.10962
2837.18435,0.11142
2835.25560,0.11339
2833.32686,0.11568
2831.39811,0.11802
2829.46937,0.12024
2827.54062,0.12249
2825.61188,0.12485
2823.68313,0.12721
2821.75438,0.12944
2819.82564,0.13163
2817.89689,0.13380
2815.96815,0.13571
2814.03940,0.13739
2812.11066,0.13911
2810.18191,0.14094
2808.25317,0.14262
2806.32442,0.14395
2804.39568,0.14507
2802.46693,0.14635
2800.53819,0.14775
2798.60944,0.14896
2796.68070,0.15003
2794.75195,0.15113
2792.82320,0.15229
2790.89446,0.15339
2788.96571,0.15425
2787.03697,0.15491
2785.10822,0.15553
2783.17948,0.15613
2781.25073,0.15668
2779.32199,0.15728
2777.39324,0.15792
2775.46450,0.15844
2773.53575,0.15888
2771.60701,0.15942
2769.67826,0.15996
2767.74952,0.16035
2765.82077,0.16064
2763.89203,0.16099
2761.96328,0.16143
2760.03453,0.16190
2758.10579,0.16231
2756.17704,0.16262
2754.24830,0.16293
2752.31955,0.16320
2750.39081,0.16338
2748.46206,0.16355
2746.53332,0.16377
2744.60457,0.16393
2742.67583,0.16395
2740.74708,0.16384
2738.81834,0.16377
2736.88959,0.16386
2734.96085,0.16415
2733.03210,0.16467
2731.10336,0.16546
2729.17461,0.16631
2727.24586,0.16695
2725.31712,0.16756
2723.38837,0.16821
2721.45963,0.16873
2719.53088,0.16928
2717.60214,0.17003
2715.67339,0.17076
2713.74465,0.17140
2711.81590,0.17217
2709.88716,0.17296
2707.95841,0.17375
2706.02967,0.17473
2704.10092,0.17580
2702.17218,0.17675
2700.24343,0.17756
2698.31468,0.17834
2696.38594,0.17923
2694.45719,0.18004
2692.52845,0.18061
2690.59970,0.18122
2688.67096,0.18199
2686.74221,0.18274
2684.81347,0.18348
2682.88472,0.18424
2680.95598,0.18502
2679.02723,0.18579
2677.09849,0.18645
2675.16974,0.18708
2673.24100,0.18781
2671.31225,0.18848
2669.38351,0.18892
2667.45476,0.18932
2665.52601,0.18992
2663.59727,0.19069
2661.66852,0.19131
2659.73978,0.19165
2657.81103,0.19188
2655.88229,0.19210
2653.95354,0.19239
2652.02480,0.19297
2650.09605,0.19370
2648.16731,0.19433
2646.23856,0.19487
2644.30982,0.19546
2642.38107,0.19604
2640.45233,0.19658
2638.52358,0.19731
2636.59484,0.19825
2634.66609,0.19908
2632.73734,0.19961
2630.80860,0.20012
2628.87985,0.20084
2626.95111,0.20169
2625.02236,0.20242
2623.09362,0.20291
2621.16487,0.20331
2619.23613,0.20389
2617.30738,0.20472
2615.37864,0.20557
2613.44989,0.20620
2611.52115,0.20669
2609.59240,0.20715
2607.66366,0.20766
2605.73491,0.20827
2603.80616,0.20880
2601.87742,0.20914
2599.94867,0.20948
2598.01993,0.20998
2596.09118,0.21058
2594.16244,0.21122
2592.23369,0.21188
2590.30495,0.21238
2588.37620,0.21275
2586.44746,0.21328
2584.51871,0.21394
2582.58997,0.21446
2580.66122,0.21481
2578.73248,0.21513
2576.80373,0.21544
2574.87499,0.21584
2572.94624,0.21641
2571.01749,0.21687
2569.08875,0.21693
2567.16000,0.21681
2565.23126,0.21677
2563.30251,0.21685
2561.37377,0.21709
2559.44502,0.21738
2557.51628,0.21762
2555.58753,0.21785
2553.65879,0.21809
2551.73004,0.21843
2549.80130,0.21870
2547.87255,0.21878
2545.94381,0.21886
2544.01506,0.21907
2542.08631,0.21926
2540.15757,0.21947
2538.22882,0.21979
2536.30008,0.22018
2534.37133,0.22070
2532.44259,0.22143
2530.51384,0.22221
2528.58510,0.22290
2526.65635,0.22352
2524.72761,0.22412
2522.79886,0.22471
2520.87012,0.22517
2518.94137,0.22556
2517.01263,0.22604
2515.08388,0.22660
2513.15514,0.22724
2511.22639,0.22800
2509.29764,0.22887
2507.36890,0.22987
2505.44015,0.23089
2503.51141,0.23189
2501.58266,0.23293
2499.65392,0.23394
2497.72517,0.23486
2495.79643,0.23578
2493.86768,0.23679
2491.93894,0.23782
2490.01019,0.23865
2488.08145,0.23926
2486.15270,0.23982
2484.22396,0.24061
2482.29521,0.24170
2480.36647,0.24273
2478.43772,0.24351
2476.50897,0.24422
2474.58023,0.24504
2472.65148,0.24601
2470.72274,0.24691
2468.79399,0.24758
2466.86525,0.24814
2464.93650,0.24887
2463.00776,0.24975
2461.07901,0.25070
2459.15027,0.25168
2457.22152,0.25258
2455.29278,0.25334
2453.36403,0.25398
2451.43529,0.25456
2449.50654,0.25527
2447.57779,0.25620
2445.64905,0.25711
2443.72030,0.25792
2441.79156,0.25879
2439.86281,0.25971
2437.93407,0.26062
2436.00532,0.26152
2434.07658,0.26238
2432.14783,0.26332
2430.21909,0.26440
2428.29034,0.26543
2426.36160,0.26643
2424.43285,0.26745
2422.50411,0.26844
2420.57536,0.26943
2418.64662,0.27051
2416.71787,0.27173
2414.78912,0.27305
2412.86038,0.27421
2410.93163,0.27516
2409.00289,0.27618
2407.07414,0.27722
2405.14540,0.27811
2403.21665,0.27906
2401.28791,0.28015
2399.35916,0.28105
2397.43042,0.28168
2395.50167,0.28235
2393.57293,0.28324
2391.64418,0.28431
2389.71544,0.28527
2387.78669,0.28596
2385.85795,0.28667
2383.92920,0.28737
2382.00045,0.28792
2380.07171,0.28851
2378.14296,0.28930
2376.21422,0.28997
2374.28547,0.29036
2372.35673,0.29072
2370.42798,0.29126
2368.49924,0.29180
2366.57049,0.29229
2364.64175,0.29272
2362.71300,0.29302
2360.78426,0.29337
2358.85551,0.29405
2356.92677,0.29489
2354.99802,0.29568
2353.06927,0.29651
2351.14053,0.29739
2349.21178,0.29811
2347.28304,0.29846
2345.35429,0.29865
2343.42555,0.29903
2341.49680,0.29946
2339.56806,0.29961
2337.63931,0.29967
2335.71057,0.29997
2333.78182,0.30055
2331.85308,0.30120
2329.92433,0.30170
2327.99559,0.30202
2326.06684,0.30231
2324.13810,0.30269
2322.20935,0.30312
2320.28060,0.30345
2318.35186,0.30363
2316.42311,0.30375
2314.49437,0.30394
2312.56562,0.30422
2310.63688,0.30442
2308.70813,0.30433
2306.77939,0.30407
2304.85064,0.30391
2302.92190,0.30386
2300.99315,0.30377
2299.06441,0.30359
2297.13566,0.30344
2295.20692,0.30334
2293.27817,0.30318
2291.34943,0.30300
2289.42068,0.30298
2287.49193,0.30303
2285.56319,0.30297
2283.63444,0.30282
2281.70570,0.30261
2279.77695,0.30228
2277.84821,0.30186
2275.91946,0.30141
2273.99072,0.30095
2272.06197,0.30048
2270.13323,0.29999
2268.20448,0.29936
2266.27574,0.29862
2264.34699,0.29781
2262.41825,0.29712
2260.48950,0.29674
2258.56075,0.29642
2256.63201,0.29596
2254.70326,0.29559
2252.77452,0.29537
2250.84577,0.29506
2248.91703,0.29462
2246.98828,0.29424
2245.05954,0.29395
2243.13079,0.29366
2241.20205,0.29331
2239.27330,0.29282
2237.34456,0.29231
2235.41581,0.29205
2233.48707,0.29198
2231.55832,0.29184
2229.62958,0.29157
2227.70083,0.29129
2225.77208,0.29101
2223.84334,0.29072
2221.91459,0.29053
2219.98585,0.29043
2218.05710,0.29023
2216.12836,0.28997
2214.19961,0.28980
2212.27087,0.28956
2210.34212,0.28918
2208.41338,0.28881
2206.48463,0.28844
2204.55589,0.28801
2202.62714,0.28747
2200.69840,0.28673
2198.76965,0.28575
2196.84090,0.28470
2194.91216,0.28373
2192.98341,0.28285
2191.05467,0.28197
2189.12592,0.28107
2187.19718,0.28024
2185.26843,0.27936
2183.33969,0.27829
2181.41094,0.27708
2179.48220,0.27590
2177.55345,0.27477
2175.62471,0.27360
2173.69596,0.27233
2171.76722,0.27091
2169.83847,0.26956
2167.90973,0.26861
2165.98098,0.26792
2164.05223,0.26717
2162.12349,0.26634
2160.19474,0.26552
2158.26600,0.26480
2156.33725,0.26422
2154.40851,0.26368
2152.47976,0.26306
2150.55102,0.26238
2148.62227,0.26179
2146.69353,0.26123
2144.76478,0.26067
2142.83604,0.26024
2140.90729,0.25993
2138.97855,0.25961
2137.04980,0.25938
2135.12106,0.25921
2133.19231,0.25897
2131.26356,0.25881
2129.33482,0.25895
2127.40607,0.25931
2125.47733,0.25969
2123.54858,0.26004
2121.61984,0.26031
2119.69109,0.26047
2117.76235,0.26064
2115.83360,0.26089
2113.90486,0.26112
2111.97611,0.26127
2110.04737,0.26140
2108.11862,0.26161
2106.18988,0.26192
2104.26113,0.26220
2102.33238,0.26257
2100.40364,0.26303
2098.47489,0.26323
2096.54615,0.26323
2094.61740,0.26349
2092.68866,0.26400
2090.75991,0.26431
2088.83117,0.26433
2086.90242,0.26418
2084.97368,0.26383
2083.04493,0.26331
2081.11619,0.26283
2079.18744,0.26244
2077.25870,0.26212
2075.32995,0.26181
2073.40121,0.26143
2071.47246,0.26103
2069.54371,0.26061
2067.61497,0.26016
2065.68622,0.25988
2063.75748,0.25972
2061.82873,0.25948
2059.89999,0.25922
2057.97124,0.25910
2056.04250,0.25916
2054.11375,0.25934
2052.18501,0.25959
2050.25626,0.25988
2048.32752,0.26027
2046.39877,0.26070
2044.47003,0.26107
2042.54128,0.26149
2040.61254,0.26214
2038.68379,0.26306
2036.75504,0.26408
2034.82630,0.26505
2032.89755,0.26603
2030.96881,0.26702
2029.04006,0.26799
2027.11132,0.26897
2025.18257,0.27007
2023.25383,0.27131
2021.32508,0.27259
2019.39634,0.27388
2017.46759,0.27506
2015.53885,0.27598
2013.61010,0.27680
2011.68136,0.27761
2009.75261,0.27831
2007.82386,0.27897
2005.89512,0.27964
2003.96637,0.28025
2002.03763,0.28087
2000.10888,0.28154
1998.18014,0.28227
1996.25139,0.28315
1994.32265,0.28411
1992.39390,0.28506
1990.46516,0.28589
1988.53641,0.28644
1986.60767,0.28682
1984.67892,0.28723
1982.75018,0.28772
1980.82143,0.28823
1978.89269,0.28871
1976.96394,0.28919
1975.03519,0.28981
1973.10645,0.29050
1971.17770,0.29116
1969.24896,0.29183
1967.32021,0.29250
1965.39147,0.29311
1963.46272,0.29366
1961.53398,0.29435
1959.60523,0.29530
1957.67649,0.29636
1955.74774,0.29736
1953.81900,0.29826
1951.89025,0.29917
1949.96151,0.30016
1948.03276,0.30120
1946.10402,0.30218
1944.17527,0.30314
1942.24652,0.30408
1940.31778,0.30484
1938.38903,0.30549
1936.46029,0.30621
1934.53154,0.30690
1932.60280,0.30747
1930.67405,0.30801
1928.74531,0.30858
1926.81656,0.30910
1924.88782,0.30952
1922.95907,0.30988
1921.03033,0.31023
1919.10158,0.31063
1917.17284,0.31088
1915.24409,0.31087
1913.31534,0.31088
1911.38660,0.31101
1909.45785,0.31107
1907.52911,0.31096
1905.60036,0.31069
1903.67162,0.31047
1901.74287,0.31038
1899.81413,0.31028
1897.88538,0.31016
1895.95664,0.31004
1894.02789,0.30989
1892.09915,0.30979
1890.17040,0.30971
1888.24166,0.30950
1886.31291,0.30921
1884.38417,0.30892
1882.45542,0.30864
1880.52667,0.30846
1878.59793,0.30836
1876.66918,0.30830
1874.74044,0.30823
1872.81169,0.30813
1870.88295,0.30804
1868.95420,0.30786
1867.02546,0.30752
1865.09671,0.30708
1863.16797,0.30658
1861.23922,0.30610
1859.31048,0.30571
1857.38173,0.30538
1855.45299,0.30494
1853.52424,0.30441
1851.59549,0.30389
1849.66675,0.30326
1847.73800,0.30265
1845.80926,0.30222
1843.88051,0.30143
1841.95177,0.29997
1840.02302,0.29862
1838.09428,0.29761
1836.16553,0.29669
1834.23679,0.29586
1832.30804,0.29507
1830.37930,0.29395
1828.45055,0.29228
1826.52181,0.29049
1824.59306,0.28861
1822.66432,0.28657
1820.73557,0.28457
1818.80682,0.28257
1816.87808,0.28031
1814.94933,0.27777
1813.02059,0.27514
1811.09184,0.27239
1809.16310,0.26946
1807.23435,0.26647
1805.30561,0.26355
1803.37686,0.26064
1801.44812,0.25728
1799.51937,0.25345
1797.59063,0.24963
1795.66188,0.24604
1793.73314,0.24227
1791.80439,0.23767
1789.87565,0.23281
1787.94690,0.22836
1786.01815,0.22386
1784.08941,0.21896
1782.16066,0.21378
1780.23192,0.20819
1778.30317,0.20235
1776.37443,0.19665
1774.44568,0.19060
1772.51694,0.18321
1770.58819,0.17505
1768.65945,0.16699
1766.73070,0.15876
1764.80196,0.15098
1762.87321,0.14319
1760.94447,0.13483
1759.01572,0.12728
1757.08697,0.12053
1755.15823,0.11452
1753.22948,0.10955
1751.30074,0.10489
1749.37199,0.10067
1747.44325,0.09764
1745.51450,0.09546
1743.58576,0.09370
1741.65701,0.09224
1739.72827,0.09099
1737.79952,0.09021
1735.87078,0.09010
1733.94203,0.09052
1732.01329,0.09109
1730.08454,0.09169
1728.15580,0.09253
1726.22705,0.09361
1724.29830,0.09487
1722.36956,0.09615
1720.44081,0.09761
1718.51207,0.09960
1716.58332,0.10174
1714.65458,0.10349
1712.72583,0.10519
1710.79709,0.10718
1708.86834,0.10926
1706.93960,0.11132
1705.01085,0.11321
1703.08211,0.11458
1701.15336,0.11539
1699.22462,0.11562
1697.29587,0.11517
1695.36713,0.11414
1693.43838,0.11309
1691.50963,0.11221
1689.58089,0.11105
1687.65214,0.10978
1685.72340,0.10841
1683.79465,0.10616
1681.86591,0.10343
1679.93716,0.10120
1678.00842,0.09941
1676.07967,0.09755
1674.15093,0.09537
1672.22218,0.09355
1670.29344,0.09201
1668.36469,0.09029
1666.43595,0.08887
1664.50720,0.08792
1662.57845,0.08711
1660.64971,0.08646
1658.72096,0.08639
1656.79222,0.08695
1654.86347,0.08773
1652.93473,0.08831
1651.00598,0.08849
1649.07724,0.08868
1647.14849,0.08869
1645.21975,0.08836
1643.29100,0.08818
1641.36226,0.08825
1639.43351,0.08857
1637.50477,0.08900
1635.57602,0.08901
1633.64728,0.08873
1631.71853,0.08885
1629.78978,0.08919
1627.86104,0.08933
1625.93229,0.08938
1624.00355,0.08940
1622.07480,0.08927
1620.14606,0.08912
1618.21731,0.08897
1616.28857,0.08842
1614.35982,0.08754
1612.43108,0.08676
1610.50233,0.08598
1608.57359,0.08515
1606.64484,0.08450
1604.71610,0.08430
1602.78735,0.08458
1600.85861,0.08491
1598.92986,0.08509
1597.00111,0.08522
1595.07237,0.08539
1593.14362,0.08573
1591.21488,0.08664
1589.28613,0.08834
1587.35739,0.09053
1585.42864,0.09301
1583.49990,0.09583
1581.57115,0.09920
1579.64241,0.10314
1577.71366,0.10790
1575.78492,0.11366
1573.85617,0.11871
1571.92743,0.12287
1569.99868,0.12743
1568.06993,0.13168
1566.14119,0.13467
1564.21244,0.13696
1562.28370,0.13892
1560.35495,0.14075
1558.42621,0.14205
1556.49746,0.14211
1554.56872,0.14202
1552.63997,0.14200
1550.71123,0.14159
1548.78248,0.14064
1546.85374,0.13948
1544.92499,0.13831
1542.99625,0.13690
1541.06750,0.13460
1539.13876,0.13077
1537.21001,0.12728
1535.28126,0.12408
1533.35252,0.11937
1531.42377,0.11368
1529.49503,0.10819
1527.56628,0.10210
1525.63754,0.09523
1523.70879,0.08840
1521.78005,0.08082
1519.85130,0.07343
1517.92256,0.06810
1515.99381,0.06428
1514.06507,0.06177
1512.13632,0.06062
1510.20758,0.06061
1508.27883,0.06173
1506.35008,0.06394
1504.42134,0.06639
1502.49259,0.06877
1500.56385,0.07145
1498.63510,0.07456
1496.70636,0.07786
1494.77761,0.08061
1492.84887,0.08253
1490.92012,0.08380
1488.99138,0.08417
1487.06263,0.08369
1485.13389,0.08297
1483.20514,0.08197
1481.27640,0.08040
1479.34765,0.07841
1477.41891,0.07615
1475.49016,0.07352
1473.56141,0.07018
1471.63267,0.06664
1469.70392,0.06426
1467.77518,0.06283
1465.84643,0.06176
1463.91769,0.06125
1461.98894,0.06132
1460.06020,0.06157
1458.13145,0.06171
1456.20271,0.06139
1454.27396,0.06092
1452.34522,0.06082
1450.41647,0.06119
1448.48773,0.06198
1446.55898,0.06268
1444.63024,0.06308
1442.70149,0.06324
1440.77274,0.06304
1438.84400,0.06232
1436.91525,0.06101
1434.98651,0.05954
1433.05776,0.05857
1431.12902,0.05806
1429.20027,0.05785
1427.27153,0.05787
1425.34278,0.05809
1423.41404,0.05851
1421.48529,0.05927
1419.55655,0.06051
1417.62780,0.06177
1415.69906,0.06270
1413.77031,0.06347
1411.84156,0.06411
1409.91282,0.06462
1407.98407,0.06512
1406.05533,0.06561
1404.12658,0.06584
1402.19784,0.06578
1400.26909,0.06564
1398.34035,0.06536
1396.41160,0.06481
1394.48286,0.06402
1392.55411,0.06309
1390.62537,0.06228
1388.69662,0.06156
1386.76788,0.06045
1384.83913,0.05891
1382.91039,0.05746
1380.98164,0.05645
1379.05289,0.05588
1377.12415,0.05571
1375.19540,0.05582
1373.26666,0.05596
1371.33791,0.05626
1369.40917,0.05697
1367.48042,0.05784
1365.55168,0.05851
1363.62293,0.05904
1361.69419,0.05949
1359.76544,0.05985
1357.83670,0.06026
1355.90795,0.06072
1353.97921,0.06118
1352.05046,0.06161
1350.12172,0.06181
1348.19297,0.06162
1346.26422,0.06116
1344.33548,0.06061
1342.40673,0.06004
1340.47799,0.05954
1338.54924,0.05919
1336.62050,0.05896
1334.69175,0.05886
1332.76301,0.05894
1330.83426,0.05908
1328.90552,0.05906
1326.97677,0.05890
1325.04803,0.05868
1323.11928,0.05846
1321.19054,0.05819
1319.26179,0.05793
1317.33304,0.05792
1315.40430,0.05829
1313.47555,0.05876
1311.54681,0.05912
1309.61806,0.05962
1307.68932,0.06041
1305.76057,0.06105
1303.83183,0.06113
1301.90308,0.06082
1299.97434,0.06038
1298.04559,0.05994
1296.11685,0.05939
1294.18810,0.05856
1292.25936,0.05754
1290.33061,0.05650
1288.40187,0.05545
1286.47312,0.05442
1284.54437,0.05353
1282.61563,0.05281
1280.68688,0.05218
1278.75814,0.05163
1276.82939,0.05123
1274.90065,0.05116
1272.97190,0.05127
1271.04316,0.05123
1269.11441,0.05119
1267.18567,0.05153
1265.25692,0.05230
1263.32818,0.05317
1261.39943,0.05391
1259.47069,0.05464
1257.54194,0.05530
1255.61320,0.05571
1253.68445,0.05593
1251.75570,0.05617
1249.82696,0.05653
1247.89821,0.05685
1245.96947,0.05692
1244.04072,0.05681
1242.11198,0.05655
1240.18323,0.05614
1238.25449,0.05582
1236.32574,0.05574
1234.39700,0.05572
1232.46825,0.05567
1230.53951,0.05575
1228.61076,0.05598
1226.68202,0.05615
1224.75327,0.05634
1222.82452,0.05665
1220.89578,0.05688
1218.96703,0.05697
1217.03829,0.05702
1215.10954,0.05700
1213.18080,0.05695
1211.25205,0.05699
1209.32331,0.05718
1207.39456,0.05750
1205.46582,0.05784
1203.53707,0.05812
1201.60833,0.05829
1199.67958,0.05846
1197.75084,0.05877
1195.82209,0.05897
1193.89335,0.05876
1191.96460,0.05820
1190.03585,0.05746
1188.10711,0.05662
1186.17836,0.05565
1184.24962,0.05436
1182.32087,0.05284
1180.39213,0.05127
1178.46338,0.04972
1176.53464,0.04840
1174.60589,0.04735
1172.67715,0.04655
1170.74840,0.04617
1168.81966,0.04639
1166.89091,0.04701
1164.96217,0.04777
1163.03342,0.04862
1161.10467,0.04939
1159.17593,0.05003
1157.24718,0.05069
1155.31844,0.05099
1153.38969,0.05061
1151.46095,0.05013
1149.53220,0.04980
1147.60346,0.04919
1145.67471,0.04829
1143.74597,0.04744
1141.81722,0.04672
1139.88848,0.04613
1137.95973,0.04559
1136.03099,0.04507
1134.10224,0.04456
1132.17350,0.04404
1130.24475,0.04350
1128.31600,0.04318
1126.38726,0.04329
1124.45851,0.04371
1122.52977,0.04411
1120.60102,0.04440
1118.67228,0.04468
1116.74353,0.04500
1114.81479,0.04555
1112.88604,0.04649
1110.95730,0.04766
1109.02855,0.04855
1107.09981,0.04887
1105.17106,0.04905
1103.24232,0.04948
1101.31357,0.04967
1099.38483,0.04939
1097.45608,0.04920
1095.52733,0.04922
1093.59859,0.04919
1091.66984,0.04912
1089.74110,0.04902
1087.81235,0.04910
1085.88361,0.04970
1083.95486,0.05062
1082.02612,0.05163
1080.09737,0.05291
1078.16863,0.05443
1076.23988,0.05597
1074.31114,0.05738
1072.38239,0.05873
1070.45365,0.06024
1068.52490,0.06180
1066.59615,0.06346
1064.66741,0.06579
1062.73866,0.06870
1060.80992,0.07124
1058.88117,0.07291
1056.95243,0.07411
1055.02368,0.07497
1053.09494,0.07514
1051.16619,0.07491
1049.23745,0.07464
1047.30870,0.07404
1045.37996,0.07317
1043.45121,0.07269
1041.52247,0.07315
1039.59372,0.07456
1037.66498,0.07635
1035.73623,0.07813
1033.80748,0.08002
1031.87874,0.08183
1029.94999,0.08301
1028.02125,0.08366
1026.09250,0.08413
1024.16376,0.08460
1022.23501,0.08523
1020.30627,0.08587
1018.37752,0.08622
1016.44878,0.08651
1014.52003,0.08706
1012.59129,0.08767
1010.66254,0.08806
1008.73380,0.08825
1006.80505,0.08842
1004.87631,0.08859
1002.94756,0.08880
1001.01881,0.08927
999.09007,0.09013
997.16132,0.09124
995.23258,0.09232
993.30383,0.09331
991.37509,0.09437
989.44634,0.09567
987.51760,0.09732
985.58885,0.09936
983.66011,0.10170
981.73136,0.10399
979.80262,0.10590
977.87387,0.10739
975.94513,0.10840
974.01638,0.10902
972.08763,0.10949
970.15889,0.10990
968.23014,0.11033
966.30140,0.11099
964.37265,0.11189
962.44391,0.11326
960.51516,0.11511
958.58642,0.11695
956.65767,0.11842
954.72893,0.11964
952.80018,0.12091
950.87144,0.12219
948.94269,0.12313
947.01395,0.12379
945.08520,0.12452
943.15646,0.12529
941.22771,0.12581
939.29896,0.12617
937.37022,0.12687
935.44147,0.12778
933.51273,0.12840
931.58398,0.12887
929.65524,0.12929
927.72649,0.12936
925.79775,0.12919
923.86900,0.12909
921.94026,0.12885
920.01151,0.12831
918.08277,0.12752
916.15402,0.12626
914.22528,0.12449
912.29653,0.12253
910.36779,0.12053
908.43904,0.11824
906.51029,0.11559
904.58155,0.11302
902.65280,0.11089
900.72406,0.10934
898.79531,0.10876
896.86657,0.10913
894.93782,0.10998
893.00908,0.11118
891.08033,0.11272
889.15159,0.11419
887.22284,0.11523
885.29410,0.11595
883.36535,0.11651
881.43661,0.11678
879.50786,0.11679
877.57911,0.11681
875.65037,0.11689
873.72162,0.11700
871.79288,0.11725
869.86413,0.11749
867.93539,0.11751
866.00664,0.11773
864.07790,0.11861
862.14915,0.11963
860.22041,0.12017
858.29166,0.12071
856.36292,0.12155
854.43417,0.12237
852.50543,0.12325
850.57668,0.12425
848.64794,0.12507
846.71919,0.12575
844.79044,0.12612
842.86170,0.12575
840.93295,0.12487
839.00421,0.12400
837.07546,0.12306
835.14672,0.12181
833.21797,0.12047
831.28923,0.11914
829.36048,0.11763
827.43174,0.11598
825.50299,0.11421
823.57425,0.11216
821.64550,0.10995
819.71676,0.10798
817.78801,0.10675
815.85926,0.10606
813.93052,0.10526
812.00177,0.10425
810.07303,0.10352
808.14428,0.10348
806.21554,0.10415
804.28679,0.10518
802.35805,0.10611
800.42930,0.10673
798.50056,0.10708
796.57181,0.10732
794.64307,0.10777
792.71432,0.10819
790.78558,0.10802
788.85683,0.10729
786.92809,0.10633
784.99934,0.10523
783.07059,0.10408
781.14185,0.10297
779.21310,0.10212
777.28436,0.10162
775.35561,0.10105
773.42687,0.10014
771.49812,0.09932
769.56938,0.09888
767.64063,0.09864
765.71189,0.09847
763.78314,0.09824
761.85440,0.09770
759.92565,0.09699
757.99691,0.09652
756.06816,0.09624
754.13942,0.09575
752.21067,0.09492
750.28192,0.09397
748.35318,0.09330
746.42443,0.09295
744.49569,0.09251
742.56694,0.09175
740.63820,0.09087
738.70945,0.09032
736.78071,0.09009
734.85196,0.08960
732.92322,0.08868
730.99447,0.08787
729.06573,0.08729
727.13698,0.08669
725.20824,0.08618
723.27949,0.08586
721.35074,0.08533
719.42200,0.08447
717.49325,0.08366
715.56451,0.08294
713.63576,0.08224
711.70702,0.08168
709.77827,0.08102
707.84953,0.08028
705.92078,0.08010
703.99204,0.08062
702.06329,0.08106
700.13455,0.08089
698.20580,0.08030
696.27706,0.07970
694.34831,0.07917
692.41957,0.07857
690.49082,0.07807
688.56207,0.07751
686.63333,0.07662
684.70458,0.07581
682.77584,0.07518
680.84709,0.07420
678.91835,0.07295
676.98960,0.07205
675.06086,0.07186
673.13211,0.07234
671.20337,0.07309
669.27462,0.07335
667.34588,0.07275
665.41713,0.07201
663.48839,0.07201
661.55964,0.07286
659.63090,0.07386
657.70215,0.07420
655.77340,0.07429
653.84466,0.07443
651.91591,0.07443
649.98717,0.07427
648.05842,0.07384
646.12968,0.07326
644.20093,0.07269
642.27219,0.07227
640.34344,0.07229
638.41470,0.07230
636.48595,0.07178
634.55721,0.07112
632.62846,0.07028
630.69972,0.06880
628.77097,0.06783
626.84222,0.06841
624.91348,0.06941
622.98473,0.06973
621.05599,0.06948
619.12724,0.06922
617.19850,0.06989
615.26975,0.07141
613.34101,0.07220
611.41226,0.07206
609.48352,0.07221
607.55477,0.07243
605.62603,0.07226
603.69728,0.07250
601.76854,0.07345
599.83979,0.07416
