7497.03301,0.81354
7495.10426,0.81613
7493.17552,0.81289
7491.24677,0.80664
7489.31803,0.80543
7487.38928,0.80801
7485.46054,0.81034
7483.53179,0.81037
7481.60305,0.80680
7479.67430,0.80179
7477.74556,0.79900
7475.81681,0.79945
7473.88807,0.79969
7471.95932,0.79869
7470.03057,0.80016
7468.10183,0.80402
7466.17308,0.80496
7464.24434,0.79945
7462.31559,0.79159
7460.38685,0.78983
7458.45810,0.79286
7456.52936,0.78994
7454.60061,0.78204
7452.67187,0.78030
7450.74312,0.78522
7448.81438,0.79028
7446.88563,0.79395
7444.95689,0.79611
7443.02814,0.79406
7441.09940,0.78799
7439.17065,0.78344
7437.24190,0.78262
7435.31316,0.78150
7433.38441,0.77910
7431.45567,0.77987
7429.52692,0.78494
7427.59818,0.79297
7425.66943,0.80269
7423.74069,0.80572
7421.81194,0.80006
7419.88320,0.79634
7417.95445,0.79548
7416.02571,0.79136
7414.09696,0.78437
7412.16822,0.77947
7410.23947,0.78058
7408.31073,0.78386
7406.38198,0.78478
7404.45323,0.78461
7402.52449,0.78385
7400.59574,0.78358
7398.66700,0.78556
7396.73825,0.78792
7394.80951,0.78789
7392.88076,0.78410
7390.95202,0.77962
7389.02327,0.78040
7387.09453,0.78603
7385.16578,0.78940
7383.23704,0.78698
7381.30829,0.78402
7379.37955,0.78500
7377.45080,0.78581
7375.52205,0.78358
7373.59331,0.78117
7371.66456,0.77948
7369.73582,0.77875
7367.80707,0.78060
7365.87833,0.78274
7363.94958,0.78302
7362.02084,0.78262
7360.09209,0.77927
7358.16335,0.77292
7356.23460,0.77152
7354.30586,0.77657
7352.37711,0.77797
7350.44837,0.77287
7348.51962,0.77022
7346.59088,0.77208
7344.66213,0.77385
7342.73338,0.77716
7340.80464,0.78036
7338.87589,0.77836
7336.94715,0.77440
7335.01840,0.77298
7333.08966,0.77385
7331.16091,0.77268
7329.23217,0.76836
7327.30342,0.76589
7325.37468,0.76444
7323.44593,0.76221
7321.51719,0.76354
7319.58844,0.76831
7317.65970,0.77139
7315.73095,0.77141
7313.80221,0.77047
7311.87346,0.76878
7309.94471,0.76679
7308.01597,0.76561
7306.08722,0.76465
7304.15848,0.76441
7302.22973,0.76572
7300.30099,0.76853
7298.37224,0.77161
7296.44350,0.77337
7294.51475,0.77455
7292.58601,0.77512
7290.65726,0.77430
7288.72852,0.77229
7286.79977,0.76856
7284.87103,0.76517
7282.94228,0.76620
7281.01353,0.77061
7279.08479,0.77409
7277.15604,0.77512
7275.22730,0.77391
7273.29855,0.77079
7271.36981,0.76744
7269.44106,0.76616
7267.51232,0.76696
7265.58357,0.76746
7263.65483,0.76755
7261.72608,0.76893
7259.79734,0.77016
7257.86859,0.77003
7255.93985,0.76907
7254.01110,0.76531
7252.08236,0.76100
7250.15361,0.76134
7248.22486,0.76416
7246.29612,0.76629
7244.36737,0.76567
7242.43863,0.76141
7240.50988,0.75962
7238.58114,0.76350
7236.65239,0.76955
7234.72365,0.77304
7232.79490,0.77090
7230.86616,0.76697
7228.93741,0.76419
7227.00867,0.76094
7225.07992,0.75860
7223.15118,0.75794
7221.22243,0.75864
7219.29369,0.76023
7217.36494,0.75988
7215.43619,0.75935
7213.50745,0.76295
7211.57870,0.76742
7209.64996,0.76743
7207.72121,0.76425
7205.79247,0.76118
7203.86372,0.75861
7201.93498,0.75645
7200.00623,0.75600
7198.07749,0.75771
7196.14874,0.75842
7194.22000,0.75909
7192.29125,0.76519
7190.36251,0.77001
7188.43376,0.76439
7186.50501,0.75538
7184.57627,0.75207
7182.64752,0.75549
7180.71878,0.76199
7178.79003,0.76445
7176.86129,0.76146
7174.93254,0.75765
7173.00380,0.75482
7171.07505,0.75328
7169.14631,0.75303
7167.21756,0.75454
7165.28882,0.75757
7163.36007,0.75774
7161.43133,0.75389
7159.50258,0.74983
7157.57384,0.74813
7155.64509,0.74927
7153.71634,0.75119
7151.78760,0.75103
7149.85885,0.74831
7147.93011,0.74620
7146.00136,0.74641
7144.07262,0.74505
7142.14387,0.74164
7140.21513,0.74115
7138.28638,0.74416
7136.35764,0.74751
7134.42889,0.75006
7132.50015,0.75056
7130.57140,0.74771
7128.64266,0.74292
7126.71391,0.73716
7124.78516,0.73208
7122.85642,0.73157
7120.92767,0.73525
7118.99893,0.73733
7117.07018,0.73404
7115.14144,0.72713
7113.21269,0.72243
7111.28395,0.72420
7109.35520,0.72864
7107.42646,0.73013
7105.49771,0.72842
7103.56897,0.72495
7101.64022,0.72317
7099.71148,0.72484
7097.78273,0.72559
7095.85399,0.72397
7093.92524,0.72342
7091.99649,0.72242
7090.06775,0.71771
7088.13900,0.71286
7086.21026,0.71074
7084.28151,0.70859
7082.35277,0.70627
7080.42402,0.70626
7078.49528,0.70786
7076.56653,0.70973
7074.63779,0.71159
7072.70904,0.71087
7070.78030,0.70551
7068.85155,0.69966
7066.92281,0.69779
7064.99406,0.69766
7063.06532,0.69699
7061.13657,0.69660
7059.20782,0.69545
7057.27908,0.69144
7055.35033,0.68505
7053.42159,0.68013
7051.49284,0.67901
7049.56410,0.67911
7047.63535,0.67838
7045.70661,0.67726
7043.77786,0.67602
7041.84912,0.67388
7039.92037,0.67060
7037.99163,0.66906
7036.06288,0.67140
7034.13414,0.67323
7032.20539,0.67152
7030.27664,0.67134
7028.34790,0.67328
7026.41915,0.67184
7024.49041,0.66830
7022.56166,0.66582
7020.63292,0.66271
7018.70417,0.65934
7016.77543,0.65910
7014.84668,0.66161
7012.91794,0.66295
7010.98919,0.66020
7009.06045,0.65431
7007.13170,0.65058
7005.20296,0.65113
7003.27421,0.65270
7001.34547,0.65420
6999.41672,0.65466
6997.48797,0.65135
6995.55923,0.64622
6993.63048,0.64319
6991.70174,0.64213
6989.77299,0.64143
6987.84425,0.64036
6985.91550,0.63921
6983.98676,0.64032
6982.05801,0.64451
6980.12927,0.64810
6978.20052,0.64834
6976.27178,0.64740
6974.34303,0.64703
6972.41429,0.64612
6970.48554,0.64580
6968.55680,0.64603
6966.62805,0.64325
6964.69930,0.63928
6962.77056,0.63800
6960.84181,0.63889
6958.91307,0.64122
6956.98432,0.64315
6955.05558,0.64184
6953.12683,0.63801
6951.19809,0.63545
6949.26934,0.63640
6947.34060,0.63789
6945.41185,0.63661
6943.48311,0.63344
6941.55436,0.63051
6939.62562,0.62889
6937.69687,0.62854
6935.76812,0.62867
6933.83938,0.62747
6931.91063,0.62603
6929.98189,0.62783
6928.05314,0.63118
6926.12440,0.63327
6924.19565,0.63439
6922.26691,0.63413
6920.33816,0.63245
6918.40942,0.63020
6916.48067,0.62883
6914.55193,0.62909
6912.62318,0.63044
6910.69444,0.63366
6908.76569,0.63750
6906.83695,0.63762
6904.90820,0.63456
6902.97945,0.63355
6901.05071,0.63609
6899.12196,0.63865
6897.19322,0.63819
6895.26447,0.63535
6893.33573,0.63215
6891.40698,0.62995
6889.47824,0.63004
6887.54949,0.63267
6885.62075,0.63615
6883.69200,0.63820
6881.76326,0.63791
6879.83451,0.63636
6877.90577,0.63416
6875.97702,0.63203
6874.04828,0.63204
6872.11953,0.63368
6870.19078,0.63340
6868.26204,0.62987
6866.33329,0.62643
6864.40455,0.62578
6862.47580,0.62594
6860.54706,0.62545
6858.61831,0.62554
6856.68957,0.62585
6854.76082,0.62561
6852.83208,0.62655
6850.90333,0.62975
6848.97459,0.63270
6847.04584,0.63348
6845.11710,0.63405
6843.18835,0.63512
6841.25960,0.63340
6839.33086,0.62907
6837.40211,0.62704
6835.47337,0.62806
6833.54462,0.62891
6831.61588,0.62875
6829.68713,0.62882
6827.75839,0.63062
6825.82964,0.63412
6823.90090,0.63717
6821.97215,0.63813
6820.04341,0.63625
6818.11466,0.63273
6816.18592,0.63082
6814.25717,0.63030
6812.32843,0.62979
6810.39968,0.62962
6808.47093,0.62890
6806.54219,0.62861
6804.61344,0.63002
6802.68470,0.63124
6800.75595,0.63170
6798.82721,0.63084
6796.89846,0.62839
6794.96972,0.62790
6793.04097,0.63051
6791.11223,0.63229
6789.18348,0.63177
6787.25474,0.63130
6785.32599,0.63126
6783.39725,0.63146
6781.46850,0.63306
6779.53975,0.63547
6777.61101,0.63672
6775.68226,0.63577
6773.75352,0.63369
6771.82477,0.63339
6769.89603,0.63482
6767.96728,0.63436
6766.03854,0.63260
6764.10979,0.63334
6762.18105,0.63525
6760.25230,0.63503
6758.32356,0.63353
6756.39481,0.63224
6754.46607,0.63124
6752.53732,0.63113
6750.60858,0.63143
6748.67983,0.63099
6746.75108,0.63059
6744.82234,0.63205
6742.89359,0.63577
6740.96485,0.63905
6739.03610,0.63939
6737.10736,0.63753
6735.17861,0.63464
6733.24987,0.63230
6731.32112,0.63226
6729.39238,0.63408
6727.46363,0.63575
6725.53489,0.63580
6723.60614,0.63614
6721.67740,0.63804
6719.74865,0.63872
6717.81991,0.63762
6715.89116,0.63654
6713.96241,0.63545
6712.03367,0.63539
6710.10492,0.63686
6708.17618,0.63726
6706.24743,0.63707
6704.31869,0.63924
6702.38994,0.64248
6700.46120,0.64372
6698.53245,0.64229
6696.60371,0.64098
6694.67496,0.64191
6692.74622,0.64230
6690.81747,0.64107
6688.88873,0.64096
6686.95998,0.64281
6685.03123,0.64595
6683.10249,0.64786
6681.17374,0.64650
6679.24500,0.64537
6677.31625,0.64660
6675.38751,0.64675
6673.45876,0.64441
6671.53002,0.64120
6669.60127,0.63855
6667.67253,0.63879
6665.74378,0.64225
6663.81504,0.64465
6661.88629,0.64385
6659.95755,0.64304
6658.02880,0.64438
6656.10006,0.64578
6654.17131,0.64518
6652.24256,0.64497
6650.31382,0.64766
6648.38507,0.65017
6646.45633,0.64888
6644.52758,0.64621
6642.59884,0.64631
6640.67009,0.64804
6638.74135,0.64808
6636.81260,0.64578
6634.88386,0.64285
6632.95511,0.64224
6631.02637,0.64495
6629.09762,0.64890
6627.16888,0.65195
6625.24013,0.65288
6623.31139,0.65194
6621.38264,0.65109
6619.45389,0.65131
6617.52515,0.65065
6615.59640,0.64862
6613.66766,0.64787
6611.73891,0.64996
6609.81017,0.65355
6607.88142,0.65415
6605.95268,0.65089
6604.02393,0.65010
6602.09519,0.65400
6600.16644,0.65711
6598.23770,0.65626
6596.30895,0.65540
6594.38021,0.65812
6592.45146,0.66003
6590.52271,0.65750
6588.59397,0.65424
6586.66522,0.65353
6584.73648,0.65576
6582.80773,0.65906
6580.87899,0.65975
6578.95024,0.65868
6577.02150,0.65891
6575.09275,0.65921
6573.16401,0.65906
6571.23526,0.65996
6569.30652,0.66058
6567.37777,0.65998
6565.44903,0.66072
6563.52028,0.66378
6561.59154,0.66613
6559.66279,0.66618
6557.73404,0.66587
6555.80530,0.66515
6553.87655,0.66277
6551.94781,0.66083
6550.01906,0.66033
6548.09032,0.65954
6546.16157,0.65990
6544.23283,0.66293
6542.30408,0.66510
6540.37534,0.66419
6538.44659,0.66294
6536.51785,0.66287
6534.58910,0.66360
6532.66036,0.66543
6530.73161,0.66707
6528.80287,0.66737
6526.87412,0.66699
6524.94537,0.66580
6523.01663,0.66466
6521.08788,0.66500
6519.15914,0.66469
6517.23039,0.66244
6515.30165,0.66133
6513.37290,0.66325
6511.44416,0.66636
6509.51541,0.66891
6507.58667,0.67024
6505.65792,0.66891
6503.72918,0.66585
6501.80043,0.66480
6499.87169,0.66488
6497.94294,0.66279
6496.01419,0.66058
6494.08545,0.66150
6492.15670,0.66458
6490.22796,0.66645
6488.29921,0.66574
6486.37047,0.66510
6484.44172,0.66590
6482.51298,0.66582
6480.58423,0.66477
6478.65549,0.66492
6476.72674,0.66680
6474.79800,0.66867
6472.86925,0.66732
6470.94051,0.66362
6469.01176,0.66257
6467.08302,0.66404
6465.15427,0.66442
6463.22552,0.66457
6461.29678,0.66597
6459.36803,0.66720
6457.43929,0.66780
6455.51054,0.66763
6453.58180,0.66615
6451.65305,0.66473
6449.72431,0.66533
6447.79556,0.66699
6445.86682,0.66738
6443.93807,0.66757
6442.00933,0.67011
6440.08058,0.67291
6438.15184,0.67208
6436.22309,0.66915
6434.29434,0.66788
6432.36560,0.66760
6430.43685,0.66686
6428.50811,0.66675
6426.57936,0.66736
6424.65062,0.66823
6422.72187,0.66966
6420.79313,0.67070
6418.86438,0.67010
6416.93564,0.66902
6415.00689,0.66919
6413.07815,0.67106
6411.14940,0.67349
6409.22066,0.67394
6407.29191,0.67162
6405.36317,0.66917
6403.43442,0.66985
6401.50567,0.67313
6399.57693,0.67551
6397.64818,0.67503
6395.71944,0.67266
6393.79069,0.67154
6391.86195,0.67282
6389.93320,0.67399
6388.00446,0.67301
6386.07571,0.67098
6384.14697,0.67103
6382.21822,0.67341
6380.28948,0.67504
6378.36073,0.67578
6376.43199,0.67724
6374.50324,0.67805
6372.57450,0.67759
6370.64575,0.67725
6368.71700,0.67659
6366.78826,0.67575
6364.85951,0.67573
6362.93077,0.67627
6361.00202,0.67725
6359.07328,0.67749
6357.14453,0.67589
6355.21579,0.67407
6353.28704,0.67371
6351.35830,0.67500
6349.42955,0.67721
6347.50081,0.67846
6345.57206,0.67748
6343.64332,0.67583
6341.71457,0.67576
6339.78582,0.67675
6337.85708,0.67699
6335.92833,0.67589
6333.99959,0.67536
6332.07084,0.67720
6330.14210,0.67851
6328.21335,0.67728
6326.28461,0.67677
6324.35586,0.67832
6322.42712,0.67892
6320.49837,0.67667
6318.56963,0.67411
6316.64088,0.67444
6314.71214,0.67631
6312.78339,0.67682
6310.85465,0.67552
6308.92590,0.67387
6306.99715,0.67425
6305.06841,0.67707
6303.13966,0.67999
6301.21092,0.68125
6299.28217,0.68118
6297.35343,0.68060
6295.42468,0.68058
6293.49594,0.68211
6291.56719,0.68368
6289.63845,0.68283
6287.70970,0.68057
6285.78096,0.67969
6283.85221,0.68055
6281.92347,0.68146
6279.99472,0.68145
6278.06598,0.68128
6276.13723,0.68210
6274.20848,0.68407
6272.27974,0.68583
6270.35099,0.68600
6268.42225,0.68487
6266.49350,0.68293
6264.56476,0.68153
6262.63601,0.68311
6260.70727,0.68607
6258.77852,0.68688
6256.84978,0.68613
6254.92103,0.68585
6252.99229,0.68649
6251.06354,0.68730
6249.13480,0.68762
6247.20605,0.68809
6245.27730,0.68933
6243.34856,0.69131
6241.41981,0.69358
6239.49107,0.69540
6237.56232,0.69576
6235.63358,0.69412
6233.70483,0.69251
6231.77609,0.69295
6229.84734,0.69491
6227.91860,0.69748
6225.98985,0.69973
6224.06111,0.69971
6222.13236,0.69720
6220.20362,0.69537
6218.27487,0.69646
6216.34613,0.69903
6214.41738,0.70033
6212.48863,0.70009
6210.55989,0.70073
6208.63114,0.70235
6206.70240,0.70340
6204.77365,0.70329
6202.84491,0.70137
6200.91616,0.69997
6198.98742,0.70250
6197.05867,0.70721
6195.12993,0.71060
6193.20118,0.71194
6191.27244,0.71150
6189.34369,0.70992
6187.41495,0.70785
6185.48620,0.70601
6183.55746,0.70660
6181.62871,0.70940
6179.69996,0.71098
6177.77122,0.71049
6175.84247,0.70953
6173.91373,0.70893
6171.98498,0.70950
6170.05624,0.71160
6168.12749,0.71301
6166.19875,0.71219
6164.27000,0.71186
6162.34126,0.71333
6160.41251,0.71401
6158.48377,0.71375
6156.55502,0.71490
6154.62628,0.71705
6152.69753,0.71838
6150.76878,0.71859
6148.84004,0.71801
6146.91129,0.71726
6144.98255,0.71709
6143.05380,0.71754
6141.12506,0.71760
6139.19631,0.71685
6137.26757,0.71636
6135.33882,0.71656
6133.41008,0.71750
6131.48133,0.71872
6129.55259,0.71939
6127.62384,0.72008
6125.69510,0.72004
6123.76635,0.71833
6121.83761,0.71678
6119.90886,0.71677
6117.98011,0.71833
6116.05137,0.72046
6114.12262,0.72097
6112.19388,0.72005
6110.26513,0.72024
6108.33639,0.72222
6106.40764,0.72414
6104.47890,0.72435
6102.55015,0.72283
6100.62141,0.72100
6098.69266,0.72047
6096.76392,0.72073
6094.83517,0.72069
6092.90643,0.72159
6090.97768,0.72435
6089.04893,0.72701
6087.12019,0.72767
6085.19144,0.72660
6083.26270,0.72519
6081.33395,0.72456
6079.40521,0.72453
6077.47646,0.72370
6075.54772,0.72213
6073.61897,0.72156
6071.69023,0.72212
6069.76148,0.72267
6067.83274,0.72283
6065.90399,0.72216
6063.97525,0.72063
6062.04650,0.71923
6060.11776,0.71885
6058.18901,0.71957
6056.26026,0.72016
6054.33152,0.71983
6052.40277,0.71924
6050.47403,0.71866
6048.54528,0.71828
6046.61654,0.71883
6044.68779,0.71983
6042.75905,0.72035
6040.83030,0.72078
6038.90156,0.72113
6036.97281,0.72038
6035.04407,0.71841
6033.11532,0.71682
6031.18658,0.71690
6029.25783,0.71717
6027.32909,0.71562
6025.40034,0.71332
6023.47159,0.71180
6021.54285,0.71086
6019.61410,0.71089
6017.68536,0.71269
6015.75661,0.71466
6013.82787,0.71371
6011.89912,0.71008
6009.97038,0.70748
6008.04163,0.70712
6006.11289,0.70682
6004.18414,0.70603
6002.25540,0.70577
6000.32665,0.70562
5998.39791,0.70498
5996.46916,0.70460
5994.54041,0.70476
5992.61167,0.70478
5990.68292,0.70444
5988.75418,0.70410
5986.82543,0.70371
5984.89669,0.70273
5982.96794,0.70179
5981.03920,0.70228
5979.11045,0.70339
5977.18171,0.70314
5975.25296,0.70210
5973.32422,0.70212
5971.39547,0.70296
5969.46673,0.70336
5967.53798,0.70342
5965.60924,0.70338
5963.68049,0.70305
5961.75174,0.70287
5959.82300,0.70299
5957.89425,0.70234
5955.96551,0.70116
5954.03676,0.70107
5952.10802,0.70227
5950.17927,0.70368
5948.25053,0.70451
5946.32178,0.70476
5944.39304,0.70484
5942.46429,0.70491
5940.53555,0.70500
5938.60680,0.70463
5936.67806,0.70422
5934.74931,0.70521
5932.82057,0.70641
5930.89182,0.70617
5928.96307,0.70627
5927.03433,0.70741
5925.10558,0.70763
5923.17684,0.70648
5921.24809,0.70444
5919.31935,0.70224
5917.39060,0.70217
5915.46186,0.70465
5913.53311,0.70639
5911.60437,0.70534
5909.67562,0.70309
5907.74688,0.70157
5905.81813,0.70136
5903.88939,0.70201
5901.96064,0.70262
5900.03189,0.70263
5898.10315,0.70193
5896.17440,0.70075
5894.24566,0.69923
5892.31691,0.69781
5890.38817,0.69723
5888.45942,0.69721
5886.53068,0.69741
5884.60193,0.69794
5882.67319,0.69818
5880.74444,0.69783
5878.81570,0.69699
5876.88695,0.69569
5874.95821,0.69497
5873.02946,0.69567
5871.10072,0.69691
5869.17197,0.69731
5867.24322,0.69678
5865.31448,0.69654
5863.38573,0.69624
5861.45699,0.69511
5859.52824,0.69461
5857.59950,0.69543
5855.67075,0.69687
5853.74201,0.69790
5851.81326,0.69734
5849.88452,0.69633
5847.95577,0.69700
5846.02703,0.69845
5844.09828,0.69921
5842.16954,0.70001
5840.24079,0.69998
5838.31205,0.69772
5836.38330,0.69492
5834.45455,0.69380
5832.52581,0.69492
5830.59706,0.69643
5828.66832,0.69666
5826.73957,0.69643
5824.81083,0.69589
5822.88208,0.69465
5820.95334,0.69387
5819.02459,0.69401
5817.09585,0.69384
5815.16710,0.69293
5813.23836,0.69220
5811.30961,0.69284
5809.38087,0.69519
5807.45212,0.69686
5805.52337,0.69566
5803.59463,0.69298
5801.66588,0.69104
5799.73714,0.69021
5797.80839,0.69020
5795.87965,0.69110
5793.95090,0.69222
5792.02216,0.69212
5790.09341,0.69105
5788.16467,0.69027
5786.23592,0.69017
5784.30718,0.69100
5782.37843,0.69251
5780.44969,0.69343
5778.52094,0.69328
5776.59220,0.69302
5774.66345,0.69324
5772.73470,0.69383
5770.80596,0.69457
5768.87721,0.69518
5766.94847,0.69602
5765.01972,0.69653
5763.09098,0.69569
5761.16223,0.69460
5759.23349,0.69430
5757.30474,0.69481
5755.37600,0.69573
5753.44725,0.69613
5751.51851,0.69570
5749.58976,0.69468
5747.66102,0.69422
5745.73227,0.69496
5743.80352,0.69550
5741.87478,0.69532
5739.94603,0.69534
5738.01729,0.69593
5736.08854,0.69671
5734.15980,0.69752
5732.23105,0.69793
5730.30231,0.69717
5728.37356,0.69592
5726.44482,0.69536
5724.51607,0.69557
5722.58733,0.69593
5720.65858,0.69575
5718.72984,0.69469
5716.80109,0.69342
5714.87235,0.69339
5712.94360,0.69456
5711.01485,0.69569
5709.08611,0.69630
5707.15736,0.69617
5705.22862,0.69574
5703.29987,0.69564
5701.37113,0.69491
5699.44238,0.69320
5697.51364,0.69234
5695.58489,0.69303
5693.65615,0.69384
5691.72740,0.69410
5689.79866,0.69461
5687.86991,0.69507
5685.94117,0.69423
5684.01242,0.69279
5682.08368,0.69218
5680.15493,0.69202
5678.22618,0.69193
5676.29744,0.69261
5674.36869,0.69405
5672.43995,0.69523
5670.51120,0.69519
5668.58246,0.69436
5666.65371,0.69410
5664.72497,0.69438
5662.79622,0.69451
5660.86748,0.69415
5658.93873,0.69286
5657.00999,0.69150
5655.08124,0.69146
5653.15250,0.69226
5651.22375,0.69255
5649.29500,0.69256
5647.36626,0.69318
5645.43751,0.69362
5643.50877,0.69344
5641.58002,0.69353
5639.65128,0.69385
5637.72253,0.69413
5635.79379,0.69438
5633.86504,0.69402
5631.93630,0.69316
5630.00755,0.69299
5628.07881,0.69399
5626.15006,0.69521
5624.22132,0.69552
5622.29257,0.69457
5620.36383,0.69336
5618.43508,0.69303
5616.50633,0.69346
5614.57759,0.69435
5612.64884,0.69538
5610.72010,0.69546
5608.79135,0.69422
5606.86261,0.69300
5604.93386,0.69281
5603.00512,0.69291
5601.07637,0.69263
5599.14763,0.69238
5597.21888,0.69250
5595.29014,0.69255
5593.36139,0.69227
5591.43265,0.69240
5589.50390,0.69322
5587.57516,0.69375
5585.64641,0.69366
5583.71766,0.69401
5581.78892,0.69459
5579.86017,0.69419
5577.93143,0.69377
5576.00268,0.69391
5574.07394,0.69384
5572.14519,0.69435
5570.21645,0.69573
5568.28770,0.69627
5566.35896,0.69557
5564.43021,0.69503
5562.50147,0.69531
5560.57272,0.69600
5558.64398,0.69628
5556.71523,0.69588
5554.78648,0.69599
5552.85774,0.69689
5550.92899,0.69706
5549.00025,0.69636
5547.07150,0.69584
5545.14276,0.69573
5543.21401,0.69608
5541.28527,0.69682
5539.35652,0.69796
5537.42778,0.69951
5535.49903,0.70049
5533.57029,0.70003
5531.64154,0.69907
5529.71280,0.69870
5527.78405,0.69835
5525.85531,0.69797
5523.92656,0.69859
5521.99781,0.69970
5520.06907,0.70001
5518.14032,0.69936
5516.21158,0.69882
5514.28283,0.69920
5512.35409,0.69972
5510.42534,0.69972
5508.49660,0.69975
5506.56785,0.69989
5504.63911,0.69996
5502.71036,0.70018
5500.78162,0.70027
5498.85287,0.70022
5496.92413,0.70047
5494.99538,0.70081
5493.06664,0.70101
5491.13789,0.70088
5489.20914,0.70052
5487.28040,0.70069
5485.35165,0.70121
5483.42291,0.70121
5481.49416,0.70126
5479.56542,0.70230
5477.63667,0.70295
5475.70793,0.70185
5473.77918,0.70090
5471.85044,0.70175
5469.92169,0.70288
5467.99295,0.70284
5466.06420,0.70273
5464.13546,0.70392
5462.20671,0.70506
5460.27796,0.70449
5458.34922,0.70357
5456.42047,0.70383
5454.49173,0.70443
5452.56298,0.70478
5450.63424,0.70592
5448.70549,0.70781
5446.77675,0.70899
5444.84800,0.70868
5442.91926,0.70739
5440.99051,0.70670
5439.06177,0.70738
5437.13302,0.70835
5435.20428,0.70875
5433.27553,0.70873
5431.34679,0.70869
5429.41804,0.70914
5427.48929,0.71047
5425.56055,0.71193
5423.63180,0.71206
5421.70306,0.71105
5419.77431,0.71065
5417.84557,0.71159
5415.91682,0.71341
5413.98808,0.71486
5412.05933,0.71464
5410.13059,0.71343
5408.20184,0.71280
5406.27310,0.71302
5404.34435,0.71296
5402.41561,0.71216
5400.48686,0.71158
5398.55811,0.71180
5396.62937,0.71277
5394.70062,0.71425
5392.77188,0.71553
5390.84313,0.71590
5388.91439,0.71556
5386.98564,0.71559
5385.05690,0.71610
5383.12815,0.71592
5381.19941,0.71521
5379.27066,0.71484
5377.34192,0.71459
5375.41317,0.71421
5373.48443,0.71410
5371.55568,0.71440
5369.62694,0.71472
5367.69819,0.71460
5365.76944,0.71419
5363.84070,0.71414
5361.91195,0.71452
5359.98321,0.71471
5358.05446,0.71437
5356.12572,0.71408
5354.19697,0.71416
5352.26823,0.71382
5350.33948,0.71280
5348.41074,0.71194
5346.48199,0.71173
5344.55325,0.71166
5342.62450,0.71145
5340.69576,0.71123
5338.76701,0.71053
5336.83827,0.70965
5334.90952,0.70952
5332.98077,0.70948
5331.05203,0.70858
5329.12328,0.70739
5327.19454,0.70642
5325.26579,0.70543
5323.33705,0.70452
5321.40830,0.70332
5319.47956,0.70140
5317.55081,0.69940
5315.62207,0.69786
5313.69332,0.69660
5311.76458,0.69570
5309.83583,0.69488
5307.90709,0.69353
5305.97834,0.69156
5304.04959,0.68908
5302.12085,0.68657
5300.19210,0.68462
5298.26336,0.68277
5296.33461,0.68046
5294.40587,0.67798
5292.47712,0.67560
5290.54838,0.67287
5288.61963,0.66937
5286.69089,0.66540
5284.76214,0.66161
5282.83340,0.65818
5280.90465,0.65493
5278.97591,0.65183
5277.04716,0.64883
5275.11842,0.64551
5273.18967,0.64184
5271.26092,0.63798
5269.33218,0.63426
5267.40343,0.63113
5265.47469,0.62762
5263.54594,0.62266
5261.61720,0.61771
5259.68845,0.61381
5257.75971,0.60996
5255.83096,0.60623
5253.90222,0.60322
5251.97347,0.60028
5250.04473,0.59705
5248.11598,0.59394
5246.18724,0.59103
5244.25849,0.58799
5242.32975,0.58459
5240.40100,0.58127
5238.47225,0.57848
5236.54351,0.57616
5234.61476,0.57399
5232.68602,0.57193
5230.75727,0.56975
5228.82853,0.56703
5226.89978,0.56469
5224.97104,0.56393
5223.04229,0.56376
5221.11355,0.56305
5219.18480,0.56205
5217.25606,0.56079
5215.32731,0.55883
5213.39857,0.55648
5211.46982,0.55459
5209.54107,0.55370
5207.61233,0.55343
5205.68358,0.55295
5203.75484,0.55201
5201.82609,0.55094
5199.89735,0.55026
5197.96860,0.55020
5196.03986,0.55040
5194.11111,0.55054
5192.18237,0.55053
5190.25362,0.55043
5188.32488,0.55068
5186.39613,0.55124
5184.46739,0.55153
5182.53864,0.55164
5180.60990,0.55229
5178.68115,0.55349
5176.75240,0.55434
5174.82366,0.55417
5172.89491,0.55361
5170.96617,0.55387
5169.03742,0.55511
5167.10868,0.55651
5165.17993,0.55772
5163.25119,0.55882
5161.32244,0.55984
5159.39370,0.56107
5157.46495,0.56230
5155.53621,0.56279
5153.60746,0.56300
5151.67872,0.56409
5149.74997,0.56593
5147.82123,0.56746
5145.89248,0.56822
5143.96373,0.56854
5142.03499,0.56923
5140.10624,0.57056
5138.17750,0.57180
5136.24875,0.57282
5134.32001,0.57403
5132.39126,0.57532
5130.46252,0.57673
5128.53377,0.57866
5126.60503,0.58061
5124.67628,0.58147
5122.74754,0.58146
5120.81879,0.58191
5118.89005,0.58311
5116.96130,0.58437
5115.03255,0.58528
5113.10381,0.58626
5111.17506,0.58746
5109.24632,0.58835
5107.31757,0.58907
5105.38883,0.59023
5103.46008,0.59157
5101.53134,0.59268
5099.60259,0.59391
5097.67385,0.59541
5095.74510,0.59670
5093.81636,0.59756
5091.88761,0.59809
5089.95887,0.59842
5088.03012,0.59926
5086.10138,0.60092
5084.17263,0.60243
5082.24388,0.60365
5080.31514,0.60499
5078.38639,0.60587
5076.45765,0.60607
5074.52890,0.60642
5072.60016,0.60736
5070.67141,0.60836
5068.74267,0.60921
5066.81392,0.61044
5064.88518,0.61202
5062.95643,0.61312
5061.02769,0.61371
5059.09894,0.61443
5057.17020,0.61491
5055.24145,0.61505
5053.31270,0.61605
5051.38396,0.61793
5049.45521,0.61932
5047.52647,0.62004
5045.59772,0.62091
5043.66898,0.62159
5041.74023,0.62160
5039.81149,0.62169
5037.88274,0.62223
5035.95400,0.62308
5034.02525,0.62426
5032.09651,0.62502
5030.16776,0.62506
5028.23902,0.62532
5026.31027,0.62619
5024.38153,0.62716
5022.45278,0.62762
5020.52403,0.62757
5018.59529,0.62770
5016.66654,0.62819
5014.73780,0.62888
5012.80905,0.62973
5010.88031,0.63038
5008.95156,0.63029
5007.02282,0.62996
5005.09407,0.63040
5003.16533,0.63097
5001.23658,0.63084
4999.30784,0.63042
4997.37909,0.63003
4995.45035,0.62949
4993.52160,0.62862
4991.59286,0.62799
4989.66411,0.62835
4987.73536,0.62898
4985.80662,0.62865
4983.87787,0.62753
4981.94913,0.62663
4980.02038,0.62651
4978.09164,0.62679
4976.16289,0.62665
4974.23415,0.62599
4972.30540,0.62510
4970.37666,0.62395
4968.44791,0.62262
4966.51917,0.62113
4964.59042,0.61975
4962.66168,0.61882
4960.73293,0.61770
4958.80418,0.61592
4956.87544,0.61433
4954.94669,0.61326
4953.01795,0.61196
4951.08920,0.61045
4949.16046,0.60914
4947.23171,0.60786
4945.30297,0.60666
4943.37422,0.60549
4941.44548,0.60386
4939.51673,0.60166
4937.58799,0.59970
4935.65924,0.59850
4933.73050,0.59753
4931.80175,0.59612
4929.87301,0.59427
4927.94426,0.59205
4926.01551,0.58945
4924.08677,0.58700
4922.15802,0.58512
4920.22928,0.58336
4918.30053,0.58160
4916.37179,0.58018
4914.44304,0.57867
4912.51430,0.57676
4910.58555,0.57504
4908.65681,0.57364
4906.72806,0.57210
4904.79932,0.57043
4902.87057,0.56866
4900.94183,0.56658
4899.01308,0.56470
4897.08434,0.56337
4895.15559,0.56187
4893.22684,0.55997
4891.29810,0.55826
4889.36935,0.55698
4887.44061,0.55556
4885.51186,0.55336
4883.58312,0.55084
4881.65437,0.54919
4879.72563,0.54846
4877.79688,0.54766
4875.86814,0.54613
4873.93939,0.54403
4872.01065,0.54182
4870.08190,0.53986
4868.15316,0.53796
4866.22441,0.53608
4864.29566,0.53438
4862.36692,0.53285
4860.43817,0.53179
4858.50943,0.53117
4856.58068,0.53028
4854.65194,0.52900
4852.72319,0.52780
4850.79445,0.52677
4848.86570,0.52589
4846.93696,0.52499
4845.00821,0.52368
4843.07947,0.52222
4841.15072,0.52111
4839.22198,0.52016
4837.29323,0.51921
4835.36449,0.51827
4833.43574,0.51713
4831.50699,0.51556
4829.57825,0.51363
4827.64950,0.51190
4825.72076,0.51081
4823.79201,0.51007
4821.86327,0.50924
4819.93452,0.50848
4818.00578,0.50791
4816.07703,0.50738
4814.14829,0.50694
4812.21954,0.50629
4810.29080,0.50513
4808.36205,0.50388
4806.43331,0.50279
4804.50456,0.50208
4802.57582,0.50198
4800.64707,0.50205
4798.71832,0.50177
4796.78958,0.50122
4794.86083,0.50063
4792.93209,0.49987
4791.00334,0.49900
4789.07460,0.49853
4787.14585,0.49860
4785.21711,0.49874
4783.28836,0.49852
4781.35962,0.49794
4779.43087,0.49732
4777.50213,0.49698
4775.57338,0.49690
4773.64464,0.49687
4771.71589,0.49669
4769.78714,0.49613
4767.85840,0.49540
4765.92965,0.49487
4764.00091,0.49452
4762.07216,0.49425
4760.14342,0.49425
4758.21467,0.49458
4756.28593,0.49496
4754.35718,0.49521
4752.42844,0.49531
4750.49969,0.49531
4748.57095,0.49526
4746.64220,0.49525
4744.71346,0.49538
4742.78471,0.49550
4740.85597,0.49545
4738.92722,0.49571
4736.99847,0.49652
4735.06973,0.49714
4733.14098,0.49684
4731.21224,0.49625
4729.28349,0.49636
4727.35475,0.49694
4725.42600,0.49739
4723.49726,0.49777
4721.56851,0.49831
4719.63977,0.49880
4717.71102,0.49878
4715.78228,0.49847
4713.85353,0.49866
4711.92479,0.49939
4709.99604,0.49996
4708.06729,0.50003
4706.13855,0.49998
4704.20980,0.50017
4702.28106,0.50046
4700.35231,0.50067
4698.42357,0.50105
4696.49482,0.50182
4694.56608,0.50257
4692.63733,0.50293
4690.70859,0.50318
4688.77984,0.50340
4686.85110,0.50335
4684.92235,0.50331
4682.99361,0.50380
4681.06486,0.50461
4679.13612,0.50542
4677.20737,0.50613
4675.27862,0.50656
4673.34988,0.50679
4671.42113,0.50710
4669.49239,0.50766
4667.56364,0.50846
4665.63490,0.50921
4663.70615,0.50980
4661.77741,0.51045
4659.84866,0.51116
4657.91992,0.51194
4655.99117,0.51288
4654.06243,0.51383
4652.13368,0.51446
4650.20494,0.51479
4648.27619,0.51517
4646.34745,0.51579
4644.41870,0.51677
4642.48995,0.51788
4640.56121,0.51867
4638.63246,0.51920
4636.70372,0.51985
4634.77497,0.52081
4632.84623,0.52195
4630.91748,0.52277
4628.98874,0.52329
4627.05999,0.52414
4625.13125,0.52560
4623.20250,0.52722
4621.27376,0.52866
4619.34501,0.52994
4617.41627,0.53090
4615.48752,0.53151
4613.55877,0.53208
4611.63003,0.53300
4609.70128,0.53415
4607.77254,0.53523
4605.84379,0.53646
4603.91505,0.53802
4601.98630,0.53962
4600.05756,0.54085
4598.12881,0.54158
4596.20007,0.54196
4594.27132,0.54250
4592.34258,0.54344
4590.41383,0.54426
4588.48509,0.54484
4586.55634,0.54567
4584.62760,0.54670
4582.69885,0.54752
4580.77010,0.54815
4578.84136,0.54884
4576.91261,0.54948
4574.98387,0.54988
4573.05512,0.55030
4571.12638,0.55090
4569.19763,0.55126
4567.26889,0.55146
4565.34014,0.55218
4563.41140,0.55314
4561.48265,0.55360
4559.55391,0.55394
4557.62516,0.55455
4555.69642,0.55484
4553.76767,0.55450
4551.83893,0.55415
4549.91018,0.55441
4547.98143,0.55515
4546.05269,0.55583
4544.12394,0.55622
4542.19520,0.55651
4540.26645,0.55679
4538.33771,0.55712
4536.40896,0.55759
4534.48022,0.55812
4532.55147,0.55841
4530.62273,0.55850
4528.69398,0.55879
4526.76524,0.55926
4524.83649,0.55944
4522.90775,0.55911
4520.97900,0.55883
4519.05025,0.55916
4517.12151,0.55970
4515.19276,0.56001
4513.26402,0.56033
4511.33527,0.56041
4509.40653,0.55978
4507.47778,0.55879
4505.54904,0.55798
4503.62029,0.55731
4501.69155,0.55657
4499.76280,0.55590
4497.83406,0.55535
4495.90531,0.55452
4493.97657,0.55330
4492.04782,0.55221
4490.11908,0.55117
4488.19033,0.54957
4486.26158,0.54780
4484.33284,0.54627
4482.40409,0.54485
4480.47535,0.54347
4478.54660,0.54190
4476.61786,0.54009
4474.68911,0.53820
4472.76037,0.53609
4470.83162,0.53376
4468.90288,0.53146
4466.97413,0.52936
4465.04539,0.52729
4463.11664,0.52509
4461.18790,0.52275
4459.25915,0.52031
4457.33041,0.51797
4455.40166,0.51571
4453.47291,0.51340
4451.54417,0.51110
4449.61542,0.50846
4447.68668,0.50554
4445.75793,0.50315
4443.82919,0.50126
4441.90044,0.49915
4439.97170,0.49663
4438.04295,0.49396
4436.11421,0.49150
4434.18546,0.48917
4432.25672,0.48673
4430.32797,0.48424
4428.39923,0.48184
4426.47048,0.47946
4424.54173,0.47671
4422.61299,0.47366
4420.68424,0.47102
4418.75550,0.46893
4416.82675,0.46692
4414.89801,0.46475
4412.96926,0.46259
4411.04052,0.46066
4409.11177,0.45911
4407.18303,0.45789
4405.25428,0.45682
4403.32554,0.45597
4401.39679,0.45562
4399.46805,0.45559
4397.53930,0.45537
4395.61056,0.45491
4393.68181,0.45455
4391.75306,0.45460
4389.82432,0.45518
4387.89557,0.45593
4385.96683,0.45642
4384.03808,0.45667
4382.10934,0.45708
4380.18059,0.45782
4378.25185,0.45869
4376.32310,0.45939
4374.39436,0.46005
4372.46561,0.46087
4370.53687,0.46188
4368.60812,0.46312
4366.67938,0.46425
4364.75063,0.46483
4362.82189,0.46508
4360.89314,0.46537
4358.96439,0.46577
4357.03565,0.46607
4355.10690,0.46595
4353.17816,0.46542
4351.24941,0.46483
4349.32067,0.46456
4347.39192,0.46468
4345.46318,0.46484
4343.53443,0.46486
4341.60569,0.46467
4339.67694,0.46408
4337.74820,0.46348
4335.81945,0.46329
4333.89071,0.46300
4331.96196,0.46231
4330.03321,0.46168
4328.10447,0.46107
4326.17572,0.46015
4324.24698,0.45897
4322.31823,0.45788
4320.38949,0.45730
4318.46074,0.45694
4316.53200,0.45606
4314.60325,0.45477
4312.67451,0.45384
4310.74576,0.45324
4308.81702,0.45237
4306.88827,0.45123
4304.95953,0.45016
4303.03078,0.44915
4301.10204,0.44843
4299.17329,0.44782
4297.24454,0.44684
4295.31580,0.44603
4293.38705,0.44568
4291.45831,0.44507
4289.52956,0.44421
4287.60082,0.44370
4285.67207,0.44347
4283.74333,0.44320
4281.81458,0.44282
4279.88584,0.44252
4277.95709,0.44248
4276.02835,0.44261
4274.09960,0.44278
4272.17086,0.44278
4270.24211,0.44261
4268.31336,0.44279
4266.38462,0.44354
4264.45587,0.44452
4262.52713,0.44531
4260.59838,0.44569
4258.66964,0.44587
4256.74089,0.44618
4254.81215,0.44666
4252.88340,0.44706
4250.95466,0.44737
4249.02591,0.44786
4247.09717,0.44824
4245.16842,0.44813
4243.23968,0.44793
4241.31093,0.44818
4239.38219,0.44899
4237.45344,0.44986
4235.52469,0.45018
4233.59595,0.45022
4231.66720,0.45048
4229.73846,0.45071
4227.80971,0.45069
4225.88097,0.45044
4223.95222,0.44995
4222.02348,0.44937
4220.09473,0.44902
4218.16599,0.44910
4216.23724,0.44942
4214.30850,0.44938
4212.37975,0.44887
4210.45101,0.44850
4208.52226,0.44843
4206.59352,0.44860
4204.66477,0.44923
4202.73602,0.44995
4200.80728,0.45009
4198.87853,0.45000
4196.94979,0.45027
4195.02104,0.45057
4193.09230,0.45035
4191.16355,0.44984
4189.23481,0.44993
4187.30606,0.45078
4185.37732,0.45162
4183.44857,0.45203
4181.51983,0.45210
4179.59108,0.45208
4177.66234,0.45240
4175.73359,0.45336
4173.80484,0.45458
4171.87610,0.45556
4169.94735,0.45634
4168.01861,0.45685
4166.08986,0.45686
4164.16112,0.45662
4162.23237,0.45660
4160.30363,0.45686
4158.37488,0.45696
4156.44614,0.45653
4154.51739,0.45577
4152.58865,0.45516
4150.65990,0.45490
4148.73116,0.45484
4146.80241,0.45450
4144.87367,0.45353
4142.94492,0.45218
4141.01617,0.45112
4139.08743,0.45047
4137.15868,0.44969
4135.22994,0.44878
4133.30119,0.44805
4131.37245,0.44707
4129.44370,0.44565
4127.51496,0.44426
4125.58621,0.44300
4123.65747,0.44162
4121.72872,0.44010
4119.79998,0.43848
4117.87123,0.43676
4115.94249,0.43505
4114.01374,0.43338
4112.08500,0.43181
4110.15625,0.43038
4108.22750,0.42895
4106.29876,0.42731
4104.37001,0.42539
4102.44127,0.42342
4100.51252,0.42173
4098.58378,0.42034
4096.65503,0.41915
4094.72629,0.41780
4092.79754,0.41579
4090.86880,0.41320
4088.94005,0.41081
4087.01131,0.40900
4085.08256,0.40723
4083.15382,0.40509
4081.22507,0.40296
4079.29632,0.40122
4077.36758,0.39959
4075.43883,0.39778
4073.51009,0.39579
4071.58134,0.39371
4069.65260,0.39175
4067.72385,0.38987
4065.79511,0.38778
4063.86636,0.38565
4061.93762,0.38380
4060.00887,0.38214
4058.08013,0.38035
4056.15138,0.37828
4054.22264,0.37628
4052.29389,0.37479
4050.36515,0.37340
4048.43640,0.37152
4046.50765,0.36943
4044.57891,0.36767
4042.65016,0.36615
4040.72142,0.36466
4038.79267,0.36342
4036.86393,0.36247
4034.93518,0.36143
4033.00644,0.35995
4031.07769,0.35837
4029.14895,0.35746
4027.22020,0.35711
4025.29146,0.35645
4023.36271,0.35531
4021.43397,0.35427
4019.50522,0.35356
4017.57648,0.35318
4015.64773,0.35320
4013.71898,0.35329
4011.79024,0.35318
4009.86149,0.35298
4007.93275,0.35280
4006.00400,0.35287
4004.07526,0.35329
4002.14651,0.35370
4000.21777,0.35382
3998.28902,0.35394
3996.36028,0.35418
3994.43153,0.35430
3992.50279,0.35432
3990.57404,0.35461
3988.64530,0.35535
3986.71655,0.35620
3984.78780,0.35684
3982.85906,0.35721
3980.93031,0.35743
3979.00157,0.35782
3977.07282,0.35848
3975.14408,0.35928
3973.21533,0.36021
3971.28659,0.36112
3969.35784,0.36191
3967.42910,0.36253
3965.50035,0.36301
3963.57161,0.36359
3961.64286,0.36441
3959.71412,0.36541
3957.78537,0.36648
3955.85663,0.36762
3953.92788,0.36877
3951.99913,0.36988
3950.07039,0.37090
3948.14164,0.37161
3946.21290,0.37218
3944.28415,0.37309
3942.35541,0.37434
3940.42666,0.37558
3938.49792,0.37674
3936.56917,0.37793
3934.64043,0.37907
3932.71168,0.38002
3930.78294,0.38092
3928.85419,0.38201
3926.92545,0.38316
3924.99670,0.38409
3923.06795,0.38487
3921.13921,0.38572
3919.21046,0.38677
3917.28172,0.38788
3915.35297,0.38880
3913.42423,0.38954
3911.49548,0.39041
3909.56674,0.39142
3907.63799,0.39220
3905.70925,0.39292
3903.78050,0.39402
3901.85176,0.39522
3899.92301,0.39604
3897.99427,0.39680
3896.06552,0.39761
3894.13678,0.39833
3892.20803,0.39918
3890.27928,0.40015
3888.35054,0.40099
3886.42179,0.40186
3884.49305,0.40268
3882.56430,0.40329
3880.63556,0.40390
3878.70681,0.40442
3876.77807,0.40495
3874.84932,0.40583
3872.92058,0.40688
3870.99183,0.40777
3869.06309,0.40845
3867.13434,0.40906
3865.20560,0.40981
3863.27685,0.41071
3861.34811,0.41162
3859.41936,0.41271
3857.49061,0.41395
3855.56187,0.41519
3853.63312,0.41646
3851.70438,0.41743
3849.77563,0.41811
3847.84689,0.41894
3845.91814,0.41986
3843.98940,0.42059
3842.06065,0.42128
3840.13191,0.42230
3838.20316,0.42332
3836.27442,0.42371
3834.34567,0.42396
3832.41693,0.42445
3830.48818,0.42483
3828.55943,0.42508
3826.63069,0.42538
3824.70194,0.42549
3822.77320,0.42544
3820.84445,0.42557
3818.91571,0.42563
3816.98696,0.42526
3815.05822,0.42475
3813.12947,0.42459
3811.20073,0.42462
3809.27198,0.42458
3807.34324,0.42458
3805.41449,0.42470
3803.48575,0.42484
3801.55700,0.42489
3799.62826,0.42462
3797.69951,0.42428
3795.77076,0.42407
3793.84202,0.42374
3791.91327,0.42336
3789.98453,0.42315
3788.05578,0.42305
3786.12704,0.42276
3784.19829,0.42223
3782.26955,0.42174
3780.34080,0.42142
3778.41206,0.42115
3776.48331,0.42079
3774.55457,0.42034
3772.62582,0.41994
3770.69708,0.41962
3768.76833,0.41912
3766.83959,0.41851
3764.91084,0.41803
3762.98209,0.41767
3761.05335,0.41732
3759.12460,0.41664
3757.19586,0.41570
3755.26711,0.41500
3753.33837,0.41451
3751.40962,0.41403
3749.48088,0.41334
3747.55213,0.41244
3745.62339,0.41125
3743.69464,0.40964
3741.76590,0.40815
3739.83715,0.40707
3737.90841,0.40609
3735.97966,0.40486
3734.05091,0.40320
3732.12217,0.40106
3730.19342,0.39898
3728.26468,0.39730
3726.33593,0.39563
3724.40719,0.39368
3722.47844,0.39143
3720.54970,0.38897
3718.62095,0.38652
3716.69221,0.38432
3714.76346,0.38242
3712.83472,0.38058
3710.90597,0.37820
3708.97723,0.37496
3707.04848,0.37136
3705.11974,0.36785
3703.19099,0.36423
3701.26224,0.36025
3699.33350,0.35636
3697.40475,0.35259
3695.47601,0.34844
3693.54726,0.34411
3691.61852,0.33985
3689.68977,0.33463
3687.76103,0.32765
3685.83228,0.32075
3683.90354,0.31456
3681.97479,0.30805
3680.04605,0.30135
3678.11730,0.29502
3676.18856,0.28785
3674.25981,0.27967
3672.33107,0.27241
3670.40232,0.26464
3668.47357,0.25580
3666.54483,0.24812
3664.61608,0.24136
3662.68734,0.23451
3660.75859,0.22767
3658.82985,0.22121
3656.90110,0.21461
3654.97236,0.20805
3653.04361,0.20263
3651.11487,0.19745
3649.18612,0.19113
3647.25738,0.18451
3645.32863,0.17891
3643.39989,0.17413
3641.47114,0.16968
3639.54239,0.16538
3637.61365,0.16125
3635.68490,0.15719
3633.75616,0.15330
3631.82741,0.14997
3629.89867,0.14657
3627.96992,0.14228
3626.04118,0.13829
3624.11243,0.13507
3622.18369,0.13211
3620.25494,0.12894
3618.32620,0.12574
3616.39745,0.12320
3614.46871,0.12070
3612.53996,0.11766
3610.61122,0.11470
3608.68247,0.11188
3606.75372,0.10906
3604.82498,0.10673
3602.89623,0.10486
3600.96749,0.10291
3599.03874,0.10054
3597.11000,0.09791
3595.18125,0.09555
3593.25251,0.09363
3591.32376,0.09202
3589.39502,0.09049
3587.46627,0.08886
3585.53753,0.08720
3583.60878,0.08542
3581.68004,0.08354
3579.75129,0.08191
3577.82254,0.08077
3575.89380,0.07979
3573.96505,0.07847
3572.03631,0.07691
3570.10756,0.07562
3568.17882,0.07456
3566.25007,0.07325
3564.32133,0.07206
3562.39258,0.07131
3560.46384,0.07045
3558.53509,0.06921
3556.60635,0.06794
3554.67760,0.06695
3552.74886,0.06632
3550.82011,0.06579
3548.89137,0.06519
3546.96262,0.06463
3545.03387,0.06403
3543.10513,0.06320
3541.17638,0.06243
3539.24764,0.06187
3537.31889,0.06120
3535.39015,0.06037
3533.46140,0.05957
3531.53266,0.05888
3529.60391,0.05841
3527.67517,0.05811
3525.74642,0.05778
3523.81768,0.05746
3521.88893,0.05716
3519.96019,0.05675
3518.03144,0.05622
3516.10270,0.05563
3514.17395,0.05488
3512.24520,0.05410
3510.31646,0.05375
3508.38771,0.05373
3506.45897,0.05361
3504.53022,0.05317
3502.60148,0.05259
3500.67273,0.05226
3498.74399,0.05218
3496.81524,0.05197
3494.88650,0.05163
3492.95775,0.05132
3491.02901,0.05080
3489.10026,0.05027
3487.17152,0.05014
3485.24277,0.05020
3483.31402,0.05008
3481.38528,0.04986
3479.45653,0.04977
3477.52779,0.04970
3475.59904,0.04959
3473.67030,0.04935
3471.74155,0.04880
3469.81281,0.04842
3467.88406,0.04854
3465.95532,0.04858
3464.02657,0.04831
3462.09783,0.04825
3460.16908,0.04855
3458.24034,0.04874
3456.31159,0.04854
3454.38285,0.04820
3452.45410,0.04788
3450.52535,0.04750
3448.59661,0.04737
3446.66786,0.04769
3444.73912,0.04817
3442.81037,0.04857
3440.88163,0.04886
3438.95288,0.04905
3437.02414,0.04894
3435.09539,0.04851
3433.16665,0.04797
3431.23790,0.04760
3429.30916,0.04768
3427.38041,0.04789
3425.45167,0.04795
3423.52292,0.04817
3421.59418,0.04837
3419.66543,0.04817
3417.73668,0.04787
3415.80794,0.04779
3413.87919,0.04785
3411.95045,0.04799
3410.02170,0.04836
3408.09296,0.04891
3406.16421,0.04912
3404.23547,0.04886
3402.30672,0.04883
3400.37798,0.04920
3398.44923,0.04948
3396.52049,0.04953
3394.59174,0.04947
3392.66300,0.04933
3390.73425,0.04927
3388.80550,0.04927
3386.87676,0.04916
3384.94801,0.04907
3383.01927,0.04930
3381.09052,0.04976
3379.16178,0.04987
3377.23303,0.04956
3375.30429,0.04946
3373.37554,0.04990
3371.44680,0.05045
3369.51805,0.05074
3367.58931,0.05087
3365.66056,0.05081
3363.73182,0.05069
3361.80307,0.05097
3359.87433,0.05152
3357.94558,0.05169
3356.01683,0.05138
3354.08809,0.05112
3352.15934,0.05110
3350.23060,0.05121
3348.30185,0.05151
3346.37311,0.05195
3344.44436,0.05232
3342.51562,0.05247
3340.58687,0.05265
3338.65813,0.05312
3336.72938,0.05360
3334.80064,0.05388
3332.87189,0.05421
3330.94315,0.05464
3329.01440,0.05491
3327.08566,0.05500
3325.15691,0.05526
3323.22816,0.05579
3321.29942,0.05624
3319.37067,0.05637
3317.44193,0.05644
3315.51318,0.05664
3313.58444,0.05676
3311.65569,0.05679
3309.72695,0.05690
3307.79820,0.05706
3305.86946,0.05720
3303.94071,0.05732
3302.01197,0.05751
3300.08322,0.05787
3298.15448,0.05831
3296.22573,0.05859
3294.29698,0.05876
3292.36824,0.05904
3290.43949,0.05928
3288.51075,0.05945
3286.58200,0.05985
3284.65326,0.06046
3282.72451,0.06108
3280.79577,0.06154
3278.86702,0.06172
3276.93828,0.06187
3275.00953,0.06228
3273.08079,0.06283
3271.15204,0.06334
3269.22330,0.06371
3267.29455,0.06389
3265.36581,0.06405
3263.43706,0.06423
3261.50831,0.06425
3259.57957,0.06442
3257.65082,0.06513
3255.72208,0.06595
3253.79333,0.06625
3251.86459,0.06627
3249.93584,0.06651
3248.00710,0.06705
3246.07835,0.06778
3244.14961,0.06859
3242.22086,0.06932
3240.29212,0.06972
3238.36337,0.07005
3236.43463,0.07067
3234.50588,0.07123
3232.57713,0.07162
3230.64839,0.07233
3228.71964,0.07329
3226.79090,0.07408
3224.86215,0.07456
3222.93341,0.07488
3221.00466,0.07519
3219.07592,0.07529
3217.14717,0.07520
3215.21843,0.07545
3213.28968,0.07641
3211.36094,0.07772
3209.43219,0.07880
3207.50345,0.07939
3205.57470,0.07970
3203.64596,0.08008
3201.71721,0.08058
3199.78846,0.08106
3197.85972,0.08145
3195.93097,0.08185
3194.00223,0.08254
3192.07348,0.08353
3190.14474,0.08452
3188.21599,0.08514
3186.28725,0.08546
3184.35850,0.08598
3182.42976,0.08695
3180.50101,0.08794
3178.57227,0.08860
3176.64352,0.08914
3174.71478,0.08970
3172.78603,0.09016
3170.85729,0.09071
3168.92854,0.09150
3166.99979,0.09241
3165.07105,0.09335
3163.14230,0.09407
3161.21356,0.09449
3159.28481,0.09505
3157.35607,0.09603
3155.42732,0.09713
3153.49858,0.09804
3151.56983,0.09871
3149.64109,0.09928
3147.71234,0.10007
3145.78360,0.10110
3143.85485,0.10199
3141.92611,0.10255
3139.99736,0.10304
3138.06861,0.10373
3136.13987,0.10465
3134.21112,0.10552
3132.28238,0.10611
3130.35363,0.10657
3128.42489,0.10731
3126.49614,0.10838
3124.56740,0.10943
3122.63865,0.11020
3120.70991,0.11085
3118.78116,0.11163
3116.85242,0.11234
3114.92367,0.11279
3112.99493,0.11332
3111.06618,0.11412
3109.13744,0.11490
3107.20869,0.11565
3105.27994,0.11654
3103.35120,0.11740
3101.42245,0.11810
3099.49371,0.11876
3097.56496,0.11947
3095.63622,0.12014
3093.70747,0.12066
3091.77873,0.12121
3089.84998,0.12192
3087.92124,0.12264
3085.99249,0.12330
3084.06375,0.12384
3082.13500,0.12412
3080.20626,0.12440
3078.27751,0.12506
3076.34877,0.12592
3074.42002,0.12666
3072.49127,0.12729
3070.56253,0.12796
3068.63378,0.12870
3066.70504,0.12953
3064.77629,0.13039
3062.84755,0.13105
3060.91880,0.13155
3058.99006,0.13228
3057.06131,0.13330
3055.13257,0.13410
3053.20382,0.13453
3051.27508,0.13497
3049.34633,0.13548
3047.41759,0.13601
3045.48884,0.13672
3043.56009,0.13744
3041.63135,0.13784
3039.70260,0.13805
3037.77386,0.13827
3035.84511,0.13847
3033.91637,0.13857
3031.98762,0.13863
3030.05888,0.13882
3028.13013,0.13906
3026.20139,0.13925
3024.27264,0.13938
3022.34390,0.13930
3020.41515,0.13894
3018.48641,0.13833
3016.55766,0.13755
3014.62892,0.13674
3012.70017,0.13590
3010.77142,0.13492
3008.84268,0.13378
3006.91393,0.13275
3004.98519,0.13201
3003.05644,0.13138
3001.12770,0.13068
2999.19895,0.12990
2997.27021,0.12904
2995.34146,0.12820
2993.41272,0.12721
2991.48397,0.12597
2989.55523,0.12472
2987.62648,0.12333
2985.69774,0.12141
2983.76899,0.11909
2981.84025,0.11681
2979.91150,0.11458
2977.98275,0.11206
2976.05401,0.10927
2974.12526,0.10649
2972.19652,0.10380
2970.26777,0.10136
2968.33903,0.09947
2966.41028,0.09801
2964.48154,0.09662
2962.55279,0.09531
2960.62405,0.09413
2958.69530,0.09298
2956.76656,0.09174
2954.83781,0.09035
2952.90907,0.08889
2950.98032,0.08752
2949.05157,0.08622
2947.12283,0.08494
2945.19408,0.08378
2943.26534,0.08277
2941.33659,0.08190
2939.40785,0.08131
2937.47910,0.08106
2935.55036,0.08091
2933.62161,0.08079
2931.69287,0.08072
2929.76412,0.08050
2927.83538,0.08012
2925.90663,0.08001
2923.97789,0.08019
2922.04914,0.08030
2920.12040,0.08032
2918.19165,0.08048
2916.26290,0.08065
2914.33416,0.08067
2912.40541,0.08064
2910.47667,0.08055
2908.54792,0.08040
2906.61918,0.08049
2904.69043,0.08088
2902.76169,0.08126
2900.83294,0.08148
2898.90420,0.08157
2896.97545,0.08161
2895.04671,0.08173
2893.11796,0.08213
2891.18922,0.08276
2889.26047,0.08333
2887.33172,0.08367
2885.40298,0.08401
2883.47423,0.08458
2881.54549,0.08524
2879.61674,0.08568
2877.68800,0.08598
2875.75925,0.08633
2873.83051,0.08685
2871.90176,0.08761
2869.97302,0.08858
2868.04427,0.08958
2866.11553,0.09049
2864.18678,0.09143
2862.25804,0.09251
2860.32929,0.09372
2858.40055,0.09482
2856.47180,0.09570
2854.54305,0.09652
2852.61431,0.09753
2850.68556,0.09889
2848.75682,0.10066
2846.82807,0.10271
2844.89933,0.10479
2842.97058,0.10664
2841.04184,0.10832
2839.11309,0.11014
2837.18435,0.11220
2835.25560,0.11436
2833.32686,0.11664
2831.39811,0.11914
2829.46937,0.12172
2827.54062,0.12434
2825.61188,0.12705
2823.68313,0.12954
2821.75438,0.13165
2819.82564,0.13371
2817.89689,0.13587
2815.96815,0.13790
2814.03940,0.13974
2812.11066,0.14156
2810.18191,0.14337
2808.25317,0.14497
2806.32442,0.14637
2804.39568,0.14783
2802.46693,0.14942
2800.53819,0.15082
2798.60944,0.15183
2796.68070,0.15279
2794.75195,0.15393
2792.82320,0.15518
2790.89446,0.15636
2788.96571,0.15728
2787.03697,0.15781
2785.10822,0.15809
2783.17948,0.15859
2781.25073,0.15947
2779.32199,0.16035
2777.39324,0.16092
2775.46450,0.16139
2773.53575,0.16199
2771.60701,0.16247
2769.67826,0.16280
2767.74952,0.16334
2765.82077,0.16402
2763.89203,0.16448
2761.96328,0.16473
2760.03453,0.16502
2758.10579,0.16539
2756.17704,0.16570
2754.24830,0.16589
2752.31955,0.16606
2750.39081,0.16627
2748.46206,0.16650
2746.53332,0.16668
2744.60457,0.16680
2742.67583,0.16699
2740.74708,0.16726
2738.81834,0.16754
2736.88959,0.16787
2734.96085,0.16823
2733.03210,0.16851
2731.10336,0.16896
2729.17461,0.16964
2727.24586,0.17024
2725.31712,0.17068
2723.38837,0.17110
2721.45963,0.17159
2719.53088,0.17224
2717.60214,0.17301
2715.67339,0.17375
2713.74465,0.17447
2711.81590,0.17533
2709.88716,0.17641
2707.95841,0.17746
2706.02967,0.17828
2704.10092,0.17900
2702.17218,0.17979
2700.24343,0.18069
2698.31468,0.18154
2696.38594,0.18222
2694.45719,0.18297
2692.52845,0.18402
2690.59970,0.18504
2688.67096,0.18575
2686.74221,0.18639
2684.81347,0.18708
2682.88472,0.18777
2680.95598,0.18852
2679.02723,0.18937
2677.09849,0.19023
2675.16974,0.19103
2673.24100,0.19175
2671.31225,0.19234
2669.38351,0.19275
2667.45476,0.19299
2665.52601,0.19331
2663.59727,0.19385
2661.66852,0.19439
2659.73978,0.19483
2657.81103,0.19527
2655.88229,0.19571
2653.95354,0.19619
2652.02480,0.19679
2650.09605,0.19749
2648.16731,0.19815
2646.23856,0.19866
2644.30982,0.19905
2642.38107,0.19949
2640.45233,0.20018
2638.52358,0.20108
2636.59484,0.20182
2634.66609,0.20222
2632.73734,0.20252
2630.80860,0.20302
2628.87985,0.20384
2626.95111,0.20490
2625.02236,0.20570
2623.09362,0.20601
2621.16487,0.20641
2619.23613,0.20728
2617.30738,0.20812
2615.37864,0.20865
2613.44989,0.20923
2611.52115,0.20986
2609.59240,0.21035
2607.66366,0.21087
2605.73491,0.21151
2603.80616,0.21212
2601.87742,0.21267
2599.94867,0.21318
2598.01993,0.21368
2596.09118,0.21420
2594.16244,0.21477
2592.23369,0.21538
2590.30495,0.21601
2588.37620,0.21652
2586.44746,0.21689
2584.51871,0.21733
2582.58997,0.21788
2580.66122,0.21833
2578.73248,0.21863
2576.80373,0.21895
2574.87499,0.21931
2572.94624,0.21967
2571.01749,0.22010
2569.08875,0.22053
2567.16000,0.22071
2565.23126,0.22074
2563.30251,0.22089
2561.37377,0.22120
2559.44502,0.22147
2557.51628,0.22155
2555.58753,0.22157
2553.65879,0.22176
2551.73004,0.22218
2549.80130,0.22249
2547.87255,0.22239
2545.94381,0.22223
2544.01506,0.22237
2542.08631,0.22265
2540.15757,0.22287
2538.22882,0.22316
2536.30008,0.22370
2534.37133,0.22441
2532.44259,0.22498
2530.51384,0.22540
2528.58510,0.22605
2526.65635,0.22696
2524.72761,0.22773
2522.79886,0.22829
2520.87012,0.22891
2518.94137,0.22957
2517.01263,0.23003
2515.08388,0.23040
2513.15514,0.23094
2511.22639,0.23167
2509.29764,0.23262
2507.36890,0.23376
2505.44015,0.23484
2503.51141,0.23577
2501.58266,0.23670
2499.65392,0.23778
2497.72517,0.23881
2495.79643,0.23974
2493.86768,0.24068
2491.93894,0.24158
2490.01019,0.24244
2488.08145,0.24338
2486.15270,0.24428
2484.22396,0.24504
2482.29521,0.24571
2480.36647,0.24640
2478.43772,0.24723
2476.50897,0.24818
2474.58023,0.24904
2472.65148,0.24979
2470.72274,0.25063
2468.79399,0.25146
2466.86525,0.25220
2464.93650,0.25300
2463.00776,0.25382
2461.07901,0.25446
2459.15027,0.25500
2457.22152,0.25581
2455.29278,0.25689
2453.36403,0.25798
2451.43529,0.25889
2449.50654,0.25957
2447.57779,0.26023
2445.64905,0.26101
2443.72030,0.26183
2441.79156,0.26270
2439.86281,0.26373
2437.93407,0.26478
2436.00532,0.26571
2434.07658,0.26659
2432.14783,0.26757
2430.21909,0.26862
2428.29034,0.26963
2426.36160,0.27068
2424.43285,0.27184
2422.50411,0.27297
2420.57536,0.27399
2418.64662,0.27498
2416.71787,0.27605
2414.78912,0.27730
2412.86038,0.27862
2410.93163,0.27981
2409.00289,0.28088
2407.07414,0.28190
2405.14540,0.28287
2403.21665,0.28375
2401.28791,0.28453
2399.35916,0.28531
2397.43042,0.28619
2395.50167,0.28731
2393.57293,0.28855
2391.64418,0.28953
2389.71544,0.29030
2387.78669,0.29118
2385.85795,0.29203
2383.92920,0.29271
2382.00045,0.29342
2380.07171,0.29433
2378.14296,0.29532
2376.21422,0.29620
2374.28547,0.29695
2372.35673,0.29771
2370.42798,0.29852
2368.49924,0.29927
2366.57049,0.30000
2364.64175,0.30075
2362.71300,0.30148
2360.78426,0.30217
2358.85551,0.30290
2356.92677,0.30362
2354.99802,0.30418
2353.06927,0.30464
2351.14053,0.30516
2349.21178,0.30566
2347.28304,0.30606
2345.35429,0.30655
2343.42555,0.30733
2341.49680,0.30809
2339.56806,0.30853
2337.63931,0.30879
2335.71057,0.30913
2333.78182,0.30957
2331.85308,0.31009
2329.92433,0.31051
2327.99559,0.31077
2326.06684,0.31095
2324.13810,0.31110
2322.20935,0.31126
2320.28060,0.31148
2318.35186,0.31177
2316.42311,0.31207
2314.49437,0.31216
2312.56562,0.31203
2310.63688,0.31191
2308.70813,0.31191
2306.77939,0.31197
2304.85064,0.31196
2302.92190,0.31174
2300.99315,0.31154
2299.06441,0.31153
2297.13566,0.31146
2295.20692,0.31118
2293.27817,0.31075
2291.34943,0.31025
2289.42068,0.30997
2287.49193,0.31008
2285.56319,0.31025
2283.63444,0.31014
2281.70570,0.30998
2279.77695,0.30986
2277.84821,0.30960
2275.91946,0.30919
2273.99072,0.30865
2272.06197,0.30801
2270.13323,0.30750
2268.20448,0.30717
2266.27574,0.30668
2264.34699,0.30591
2262.41825,0.30517
2260.48950,0.30461
2258.56075,0.30416
2256.63201,0.30378
2254.70326,0.30346
2252.77452,0.30320
2250.84577,0.30292
2248.91703,0.30251
2246.98828,0.30213
2245.05954,0.30192
2243.13079,0.30167
2241.20205,0.30125
2239.27330,0.30088
2237.34456,0.30063
2235.41581,0.30037
2233.48707,0.30009
2231.55832,0.29987
2229.62958,0.29972
2227.70083,0.29963
2225.77208,0.29959
2223.84334,0.29952
2221.91459,0.29947
2219.98585,0.29945
2218.05710,0.29930
2216.12836,0.29894
2214.19961,0.29857
2212.27087,0.29835
2210.34212,0.29815
2208.41338,0.29785
2206.48463,0.29740
2204.55589,0.29680
2202.62714,0.29620
2200.69840,0.29559
2198.76965,0.29493
2196.84090,0.29419
2194.91216,0.29328
2192.98341,0.29231
2191.05467,0.29145
2189.12592,0.29055
2187.19718,0.28947
2185.26843,0.28836
2183.33969,0.28725
2181.41094,0.28608
2179.48220,0.28493
2177.55345,0.28381
2175.62471,0.28257
2173.69596,0.28135
2171.76722,0.28029
2169.83847,0.27927
2167.90973,0.27819
2165.98098,0.27716
2164.05223,0.27622
2162.12349,0.27533
2160.19474,0.27455
2158.26600,0.27385
2156.33725,0.27311
2154.40851,0.27250
2152.47976,0.27210
2150.55102,0.27164
2148.62227,0.27110
2146.69353,0.27059
2144.76478,0.27015
2142.83604,0.26968
2140.90729,0.26913
2138.97855,0.26863
2137.04980,0.26834
2135.12106,0.26828
2133.19231,0.26833
2131.26356,0.26831
2129.33482,0.26825
2127.40607,0.26833
2125.47733,0.26857
2123.54858,0.26891
2121.61984,0.26937
2119.69109,0.26995
2117.76235,0.27043
2115.83360,0.27063
2113.90486,0.27065
2111.97611,0.27074
2110.04737,0.27095
2108.11862,0.27120
2106.18988,0.27144
2104.26113,0.27176
2102.33238,0.27221
2100.40364,0.27265
2098.47489,0.27291
2096.54615,0.27306
2094.61740,0.27323
2092.68866,0.27344
2090.75991,0.27356
2088.83117,0.27357
2086.90242,0.27354
2084.97368,0.27349
2083.04493,0.27335
2081.11619,0.27299
2079.18744,0.27239
2077.25870,0.27165
2075.32995,0.27095
2073.40121,0.27041
2071.47246,0.26998
2069.54371,0.26962
2067.61497,0.26929
2065.68622,0.26882
2063.75748,0.26835
2061.82873,0.26807
2059.89999,0.26791
2057.97124,0.26786
2056.04250,0.26787
2054.11375,0.26784
2052.18501,0.26798
2050.25626,0.26840
2048.32752,0.26887
2046.39877,0.26921
2044.47003,0.26956
2042.54128,0.27018
2040.61254,0.27104
2038.68379,0.27188
2036.75504,0.27265
2034.82630,0.27356
2032.89755,0.27457
2030.96881,0.27563
2029.04006,0.27680
2027.11132,0.27802
2025.18257,0.27921
2023.25383,0.28033
2021.32508,0.28147
2019.39634,0.28268
2017.46759,0.28384
2015.53885,0.28481
2013.61010,0.28562
2011.68136,0.28641
2009.75261,0.28729
2007.82386,0.28820
2005.89512,0.28892
2003.96637,0.28945
2002.03763,0.29008
2000.10888,0.29089
1998.18014,0.29172
1996.25139,0.29246
1994.32265,0.29316
1992.39390,0.29387
1990.46516,0.29454
1988.53641,0.29508
1986.60767,0.29561
1984.67892,0.29623
1982.75018,0.29691
1980.82143,0.29757
1978.89269,0.29817
1976.96394,0.29871
1975.03519,0.29928
1973.10645,0.29985
1971.17770,0.30032
1969.24896,0.30084
1967.32021,0.30157
1965.39147,0.30230
1963.46272,0.30294
1961.53398,0.30371
1959.60523,0.30465
1957.67649,0.30552
1955.74774,0.30629
1953.81900,0.30719
1951.89025,0.30825
1949.96151,0.30924
1948.03276,0.31015
1946.10402,0.31112
1944.17527,0.31220
1942.24652,0.31322
1940.31778,0.31391
1938.38903,0.31450
1936.46029,0.31533
1934.53154,0.31628
1932.60280,0.31705
1930.67405,0.31755
1928.74531,0.31785
1926.81656,0.31816
1924.88782,0.31868
1922.95907,0.31923
1921.03033,0.31957
1919.10158,0.31970
1917.17284,0.31975
1915.24409,0.31977
1913.31534,0.31974
1911.38660,0.31974
1909.45785,0.31985
1907.52911,0.31992
1905.60036,0.31980
1903.67162,0.31961
1901.74287,0.31951
1899.81413,0.31948
1897.88538,0.31936
1895.95664,0.31908
1894.02789,0.31873
1892.09915,0.31848
1890.17040,0.31837
1888.24166,0.31820
1886.31291,0.31797
1884.38417,0.31783
1882.45542,0.31772
1880.52667,0.31755
1878.59793,0.31726
1876.66918,0.31694
1874.74044,0.31665
1872.81169,0.31646
1870.88295,0.31644
1868.95420,0.31634
1867.02546,0.31587
1865.09671,0.31531
1863.16797,0.31491
1861.23922,0.31464
1859.31048,0.31425
1857.38173,0.31368
1855.45299,0.31305
1853.52424,0.31251
1851.59549,0.31197
1849.66675,0.31128
1847.73800,0.31056
1845.80926,0.30987
1843.88051,0.30896
1841.95177,0.30778
1840.02302,0.30663
1838.09428,0.30547
1836.16553,0.30418
1834.23679,0.30294
1832.30804,0.30198
1830.37930,0.30111
1828.45055,0.29986
1826.52181,0.29814
1824.59306,0.29602
1822.66432,0.29379
1820.73557,0.29177
1818.80682,0.28970
1816.87808,0.28734
1814.94933,0.28483
1813.02059,0.28224
1811.09184,0.27927
1809.16310,0.27587
1807.23435,0.27235
1805.30561,0.26903
1803.37686,0.26580
1801.44812,0.26228
1799.51937,0.25842
1797.59063,0.25447
1795.66188,0.25068
1793.73314,0.24666
1791.80439,0.24176
1789.87565,0.23666
1787.94690,0.23200
1786.01815,0.22724
1784.08941,0.22204
1782.16066,0.21655
1780.23192,0.21074
1778.30317,0.20465
1776.37443,0.19856
1774.44568,0.19211
1772.51694,0.18431
1770.58819,0.17545
1768.65945,0.16678
1766.73070,0.15848
1764.80196,0.15081
1762.87321,0.14297
1760.94447,0.13459
1759.01572,0.12702
1757.08697,0.12025
1755.15823,0.11432
1753.22948,0.10948
1751.30074,0.10503
1749.37199,0.10108
1747.44325,0.09795
1745.51450,0.09542
1743.58576,0.09360
1741.65701,0.09246
1739.72827,0.09163
1737.79952,0.09131
1735.87078,0.09168
1733.94203,0.09217
1732.01329,0.09235
1730.08454,0.09284
1728.15580,0.09381
1726.22705,0.09497
1724.29830,0.09633
1722.36956,0.09783
1720.44081,0.09941
1718.51207,0.10146
1716.58332,0.10394
1714.65458,0.10608
1712.72583,0.10794
1710.79709,0.10993
1708.86834,0.11201
1706.93960,0.11413
1705.01085,0.11606
1703.08211,0.11740
1701.15336,0.11833
1699.22462,0.11882
1697.29587,0.11885
1695.36713,0.11847
1693.43838,0.11760
1691.50963,0.11652
1689.58089,0.11525
1687.65214,0.11393
1685.72340,0.11241
1683.79465,0.10992
1681.86591,0.10718
1679.93716,0.10515
1678.00842,0.10353
1676.07967,0.10166
1674.15093,0.09934
1672.22218,0.09730
1670.29344,0.09561
1668.36469,0.09389
1666.43595,0.09263
1664.50720,0.09189
1662.57845,0.09133
1660.64971,0.09094
1658.72096,0.09091
1656.79222,0.09127
1654.86347,0.09195
1652.93473,0.09275
1651.00598,0.09316
1649.07724,0.09354
1647.14849,0.09389
1645.21975,0.09371
1643.29100,0.09330
1641.36226,0.09312
1639.43351,0.09328
1637.50477,0.09365
1635.57602,0.09387
1633.64728,0.09375
1631.71853,0.09383
1629.78978,0.09415
1627.86104,0.09421
1625.93229,0.09386
1624.00355,0.09341
1622.07480,0.09303
1620.14606,0.09284
1618.21731,0.09262
1616.28857,0.09174
1614.35982,0.09037
1612.43108,0.08920
1610.50233,0.08817
1608.57359,0.08722
1606.64484,0.08645
1604.71610,0.08600
1602.78735,0.08596
1600.85861,0.08626
1598.92986,0.08665
1597.00111,0.08689
1595.07237,0.08704
1593.14362,0.08747
1591.21488,0.08848
1589.28613,0.09001
1587.35739,0.09194
1585.42864,0.09447
1583.49990,0.09765
1581.57115,0.10131
1579.64241,0.10530
1577.71366,0.11016
1575.78492,0.11624
1573.85617,0.12162
1571.92743,0.12601
1569.99868,0.13077
1568.06993,0.13518
1566.14119,0.13827
1564.21244,0.14061
1562.28370,0.14252
1560.35495,0.14435
1558.42621,0.14621
1556.49746,0.14677
1554.56872,0.14636
1552.63997,0.14552
1550.71123,0.14451
1548.78248,0.14346
1546.85374,0.14241
1544.92499,0.14132
1542.99625,0.13996
1541.06750,0.13775
1539.13876,0.13395
1537.21001,0.13023
1535.28126,0.12666
1533.35252,0.12159
1531.42377,0.11546
1529.49503,0.10956
1527.56628,0.10332
1525.63754,0.09653
1523.70879,0.08951
1521.78005,0.08146
1519.85130,0.07367
1517.92256,0.06804
1515.99381,0.06394
1514.06507,0.06144
1512.13632,0.06055
1510.20758,0.06064
1508.27883,0.06164
1506.35008,0.06397
1504.42134,0.06670
1502.49259,0.06928
1500.56385,0.07213
1498.63510,0.07523
1496.70636,0.07828
1494.77761,0.08073
1492.84887,0.08245
1490.92012,0.08373
1488.99138,0.08441
1487.06263,0.08419
1485.13389,0.08335
1483.20514,0.08221
1481.27640,0.08071
1479.34765,0.07882
1477.41891,0.07661
1475.49016,0.07409
1473.56141,0.07098
1471.63267,0.06737
1469.70392,0.06449
1467.77518,0.06273
1465.84643,0.06182
1463.91769,0.06165
1461.98894,0.06187
1460.06020,0.06216
1458.13145,0.06221
1456.20271,0.06162
1454.27396,0.06102
1452.34522,0.06103
1450.41647,0.06161
1448.48773,0.06240
1446.55898,0.06302
1444.63024,0.06339
1442.70149,0.06345
1440.77274,0.06301
1438.84400,0.06214
1436.91525,0.06082
1434.98651,0.05948
1433.05776,0.05872
1431.12902,0.05829
1429.20027,0.05794
1427.27153,0.05780
1425.34278,0.05799
1423.41404,0.05845
1421.48529,0.05919
1419.55655,0.06021
1417.62780,0.06128
1415.69906,0.06225
1413.77031,0.06330
1411.84156,0.06441
1409.91282,0.06525
1407.98407,0.06565
1406.05533,0.06571
1404.12658,0.06562
1402.19784,0.06553
1400.26909,0.06540
1398.34035,0.06504
1396.41160,0.06451
1394.48286,0.06390
1392.55411,0.06322
1390.62537,0.06253
1388.69662,0.06163
1386.76788,0.06023
1384.83913,0.05871
1382.91039,0.05758
1380.98164,0.05688
1379.05289,0.05642
1377.12415,0.05608
1375.19540,0.05592
1373.26666,0.05609
1371.33791,0.05648
1369.40917,0.05680
1367.48042,0.05711
1365.55168,0.05771
1363.62293,0.05854
1361.69419,0.05928
1359.76544,0.05991
1357.83670,0.06056
1355.90795,0.06104
1353.97921,0.06129
1352.05046,0.06152
1350.12172,0.06166
1348.19297,0.06147
1346.26422,0.06101
1344.33548,0.06053
1342.40673,0.06014
1340.47799,0.05971
1338.54924,0.05920
1336.62050,0.05888
1334.69175,0.05887
1332.76301,0.05904
1330.83426,0.05921
1328.90552,0.05915
1326.97677,0.05885
1325.04803,0.05848
1323.11928,0.05813
1321.19054,0.05783
1319.26179,0.05768
1317.33304,0.05779
1315.40430,0.05822
1313.47555,0.05883
1311.54681,0.05940
1309.61806,0.05981
1307.68932,0.06013
1305.76057,0.06039
1303.83183,0.06057
1301.90308,0.06056
1299.97434,0.06028
1298.04559,0.05982
1296.11685,0.05926
1294.18810,0.05858
1292.25936,0.05777
1290.33061,0.05688
1288.40187,0.05597
1286.47312,0.05500
1284.54437,0.05387
1282.61563,0.05290
1280.68688,0.05234
1278.75814,0.05188
1276.82939,0.05137
1274.90065,0.05099
1272.97190,0.05087
1271.04316,0.05103
1269.11441,0.05142
1267.18567,0.05193
1265.25692,0.05248
1263.32818,0.05310
1261.39943,0.05381
1259.47069,0.05449
1257.54194,0.05507
1255.61320,0.05555
1253.68445,0.05586
1251.75570,0.05615
1249.82696,0.05648
1247.89821,0.05670
1245.96947,0.05671
1244.04072,0.05659
1242.11198,0.05637
1240.18323,0.05610
1238.25449,0.05587
1236.32574,0.05573
1234.39700,0.05580
1232.46825,0.05599
1230.53951,0.05613
1228.61076,0.05635
1226.68202,0.05664
1224.75327,0.05674
1222.82452,0.05675
1220.89578,0.05693
1218.96703,0.05717
1217.03829,0.05728
1215.10954,0.05732
1213.18080,0.05728
1211.25205,0.05716
1209.32331,0.05708
1207.39456,0.05713
1205.46582,0.05736
1203.53707,0.05780
1201.60833,0.05839
1199.67958,0.05895
1197.75084,0.05933
1195.82209,0.05941
1193.89335,0.05904
1191.96460,0.05830
1190.03585,0.05745
1188.10711,0.05642
1186.17836,0.05515
1184.24962,0.05371
1182.32087,0.05208
1180.39213,0.05040
1178.46338,0.04898
1176.53464,0.04785
1174.60589,0.04678
1172.67715,0.04594
1170.74840,0.04576
1168.81966,0.04639
1166.89091,0.04742
1164.96217,0.04828
1163.03342,0.04898
1161.10467,0.04963
1159.17593,0.05006
1157.24718,0.05047
1155.31844,0.05084
1153.38969,0.05087
1151.46095,0.05051
1149.53220,0.04992
1147.60346,0.04921
1145.67471,0.04854
1143.74597,0.04792
1141.81722,0.04721
1139.88848,0.04642
1137.95973,0.04562
1136.03099,0.04489
1134.10224,0.04435
1132.17350,0.04391
1130.24475,0.04348
1128.31600,0.04326
1126.38726,0.04343
1124.45851,0.04379
1122.52977,0.04415
1120.60102,0.04453
1118.67228,0.04496
1116.74353,0.04551
1114.81479,0.04613
1112.88604,0.04685
1110.95730,0.04774
1109.02855,0.04866
1107.09981,0.04926
1105.17106,0.04946
1103.24232,0.04949
1101.31357,0.04953
1099.38483,0.04950
1097.45608,0.04945
1095.52733,0.04957
1093.59859,0.04980
1091.66984,0.04995
1089.74110,0.05001
1087.81235,0.05018
1085.88361,0.05056
1083.95486,0.05113
1082.02612,0.05188
1080.09737,0.05291
1078.16863,0.05414
1076.23988,0.05551
1074.31114,0.05701
1072.38239,0.05859
1070.45365,0.06023
1068.52490,0.06215
1066.59615,0.06440
1064.66741,0.06675
1062.73866,0.06910
1060.80992,0.07131
1058.88117,0.07319
1056.95243,0.07462
1055.02368,0.07536
1053.09494,0.07546
1051.16619,0.07498
1049.23745,0.07403
1047.30870,0.07323
1045.37996,0.07279
1043.45121,0.07275
1041.52247,0.07343
1039.59372,0.07480
1037.66498,0.07652
1035.73623,0.07840
1033.80748,0.08026
1031.87874,0.08187
1029.94999,0.08317
1028.02125,0.08413
1026.09250,0.08466
1024.16376,0.08493
1022.23501,0.08519
1020.30627,0.08555
1018.37752,0.08614
1016.44878,0.08699
1014.52003,0.08796
1012.59129,0.08862
1010.66254,0.08866
1008.73380,0.08848
1006.80505,0.08847
1004.87631,0.08860
1002.94756,0.08903
1001.01881,0.08983
999.09007,0.09076
997.16132,0.09174
995.23258,0.09280
993.30383,0.09392
991.37509,0.09495
989.44634,0.09604
987.51760,0.09752
985.58885,0.09955
983.66011,0.10209
981.73136,0.10459
979.80262,0.10651
977.87387,0.10789
975.94513,0.10887
974.01638,0.10937
972.08763,0.10973
970.15889,0.11030
968.23014,0.11102
966.30140,0.11183
964.37265,0.11281
962.44391,0.11406
960.51516,0.11565
958.58642,0.11751
956.65767,0.11924
954.72893,0.12053
952.80018,0.12147
950.87144,0.12248
948.94269,0.12375
947.01395,0.12502
945.08520,0.12592
943.15646,0.12643
941.22771,0.12679
939.29896,0.12721
937.37022,0.12767
935.44147,0.12816
933.51273,0.12899
931.58398,0.13006
929.65524,0.13077
927.72649,0.13098
925.79775,0.13099
923.86900,0.13087
921.94026,0.13060
920.01151,0.13000
918.08277,0.12897
916.15402,0.12776
914.22528,0.12647
912.29653,0.12488
910.36779,0.12273
908.43904,0.12011
906.51029,0.11753
904.58155,0.11529
902.65280,0.11316
900.72406,0.11121
898.79531,0.11008
896.86657,0.11010
894.93782,0.11090
893.00908,0.11219
891.08033,0.11386
889.15159,0.11545
887.22284,0.11663
885.29410,0.11759
883.36535,0.11834
881.43661,0.11871
879.50786,0.11897
877.57911,0.11934
875.65037,0.11956
873.72162,0.11957
871.79288,0.11982
869.86413,0.12030
867.93539,0.12066
866.00664,0.12096
864.07790,0.12143
862.14915,0.12205
860.22041,0.12286
858.29166,0.12388
856.36292,0.12484
854.43417,0.12575
852.50543,0.12683
850.57668,0.12807
848.64794,0.12940
846.71919,0.13045
844.79044,0.13075
842.86170,0.13045
840.93295,0.12988
839.00421,0.12902
837.07546,0.12805
835.14672,0.12711
833.21797,0.12579
831.28923,0.12398
829.36048,0.12207
827.43174,0.12023
825.50299,0.11821
823.57425,0.11591
821.64550,0.11356
819.71676,0.11160
817.78801,0.11057
815.85926,0.11019
813.93052,0.10955
812.00177,0.10862
810.07303,0.10792
808.14428,0.10781
806.21554,0.10851
804.28679,0.10976
802.35805,0.11090
800.42930,0.11157
798.50056,0.11191
796.57181,0.11224
794.64307,0.11260
792.71432,0.11274
790.78558,0.11258
788.85683,0.11205
786.92809,0.11115
784.99934,0.11021
783.07059,0.10931
781.14185,0.10815
779.21310,0.10683
777.28436,0.10588
775.35561,0.10541
773.42687,0.10498
771.49812,0.10442
769.56938,0.10404
767.64063,0.10378
765.71189,0.10334
763.78314,0.10278
761.85440,0.10231
759.92565,0.10200
757.99691,0.10160
756.06816,0.10090
754.13942,0.10006
752.21067,0.09911
750.28192,0.09818
748.35318,0.09748
746.42443,0.09687
744.49569,0.09621
742.56694,0.09557
740.63820,0.09483
738.70945,0.09416
736.78071,0.09372
734.85196,0.09326
732.92322,0.09248
730.99447,0.09153
729.06573,0.09066
727.13698,0.08949
725.20824,0.08791
723.27949,0.08703
721.35074,0.08715
719.42200,0.08731
717.49325,0.08715
715.56451,0.08692
713.63576,0.08636
711.70702,0.08529
709.77827,0.08439
707.84953,0.08411
705.92078,0.08385
703.99204,0.08324
702.06329,0.08288
700.13455,0.08298
698.20580,0.08295
696.27706,0.08268
694.34831,0.08227
692.41957,0.08175
690.49082,0.08129
688.56207,0.08080
686.63333,0.07991
684.70458,0.07854
682.77584,0.07732
680.84709,0.07670
678.91835,0.07625
676.98960,0.07554
675.06086,0.07473
673.13211,0.07402
671.20337,0.07343
669.27462,0.07315
667.34588,0.07346
665.41713,0.07421
663.48839,0.07489
661.55964,0.07521
659.63090,0.07549
657.70215,0.07558
655.77340,0.07501
653.84466,0.07446
651.91591,0.07446
649.98717,0.07471
648.05842,0.07494
646.12968,0.07506
644.20093,0.07518
642.27219,0.07529
640.34344,0.07488
638.41470,0.07372
636.48595,0.07218
634.55721,0.07089
632.62846,0.07059
630.69972,0.07108
628.77097,0.07116
626.84222,0.07048
624.91348,0.07024
622.98473,0.07097
621.05599,0.07136
619.12724,0.07107
617.19850,0.07104
615.26975,0.07143
613.34101,0.07216
611.41226,0.07359
609.48352,0.07507
607.55477,0.07545
605.62603,0.07512
603.69728,0.07495
601.76854,0.07520
599.83979,0.07552
