7497.03301,0.79624
7495.10426,0.80197
7493.17552,0.80586
7491.24677,0.80593
7489.31803,0.80481
7487.38928,0.80460
7485.46054,0.80279
7483.53179,0.79945
7481.60305,0.80054
7479.67430,0.80619
7477.74556,0.80823
7475.81681,0.80617
7473.88807,0.80660
7471.95932,0.80741
7470.03057,0.80586
7468.10183,0.80628
7466.17308,0.80770
7464.24434,0.80712
7462.31559,0.80577
7460.38685,0.80252
7458.45810,0.79696
7456.52936,0.79248
7454.60061,0.79230
7452.67187,0.79683
7450.74312,0.80167
7448.81438,0.80185
7446.88563,0.79746
7444.95689,0.79323
7443.02814,0.79242
7441.09940,0.79233
7439.17065,0.79117
7437.24190,0.79060
7435.31316,0.78854
7433.38441,0.78401
7431.45567,0.78334
7429.52692,0.79120
7427.59818,0.80315
7425.66943,0.81110
7423.74069,0.81083
7421.81194,0.80333
7419.88320,0.79288
7417.95445,0.78512
7416.02571,0.78354
7414.09696,0.78700
7412.16822,0.79133
7410.23947,0.79206
7408.31073,0.78744
7406.38198,0.78160
7404.45323,0.77969
7402.52449,0.78106
7400.59574,0.78395
7398.66700,0.78735
7396.73825,0.78722
7394.80951,0.78304
7392.88076,0.77928
7390.95202,0.77720
7389.02327,0.77597
7387.09453,0.77749
7385.16578,0.78259
7383.23704,0.78624
7381.30829,0.78523
7379.37955,0.78444
7377.45080,0.78289
7375.52205,0.77551
7373.59331,0.77115
7371.66456,0.77672
7369.73582,0.78134
7367.80707,0.77730
7365.87833,0.77206
7363.94958,0.77013
7362.02084,0.76981
7360.09209,0.77450
7358.16335,0.78273
7356.23460,0.78665
7354.30586,0.78606
7352.37711,0.78428
7350.44837,0.77998
7348.51962,0.77296
7346.59088,0.77110
7344.66213,0.77907
7342.73338,0.78610
7340.80464,0.78349
7338.87589,0.77671
7336.94715,0.77146
7335.01840,0.76730
7333.08966,0.76375
7331.16091,0.76286
7329.23217,0.76267
7327.30342,0.75975
7325.37468,0.75932
7323.44593,0.76364
7321.51719,0.76586
7319.58844,0.76372
7317.65970,0.76238
7315.73095,0.76408
7313.80221,0.76474
7311.87346,0.76337
7309.94471,0.76324
7308.01597,0.76376
7306.08722,0.76341
7304.15848,0.76325
7302.22973,0.76431
7300.30099,0.76751
7298.37224,0.77006
7296.44350,0.76776
7294.51475,0.76659
7292.58601,0.77025
7290.65726,0.77077
7288.72852,0.76869
7286.79977,0.76696
7284.87103,0.76154
7282.94228,0.75584
7281.01353,0.75632
7279.08479,0.76182
7277.15604,0.76542
7275.22730,0.76351
7273.29855,0.76201
7271.36981,0.76549
7269.44106,0.76972
7267.51232,0.77046
7265.58357,0.76908
7263.65483,0.76854
7261.72608,0.76975
7259.79734,0.77081
7257.86859,0.76913
7255.93985,0.76390
7254.01110,0.75766
7252.08236,0.75636
7250.15361,0.75950
7248.22486,0.75990
7246.29612,0.75754
7244.36737,0.75946
7242.43863,0.76674
7240.50988,0.77165
7238.58114,0.77120
7236.65239,0.76832
7234.72365,0.76513
7232.79490,0.76276
7230.86616,0.76023
7228.93741,0.76098
7227.00867,0.76727
7225.07992,0.77126
7223.15118,0.76953
7221.22243,0.76687
7219.29369,0.76447
7217.36494,0.76315
7215.43619,0.76600
7213.50745,0.76955
7211.57870,0.76793
7209.64996,0.76406
7207.72121,0.76291
7205.79247,0.76374
7203.86372,0.76478
7201.93498,0.76622
7200.00623,0.76611
7198.07749,0.76238
7196.14874,0.75754
7194.22000,0.75432
7192.29125,0.75462
7190.36251,0.75746
7188.43376,0.75612
7186.50501,0.74870
7184.57627,0.74241
7182.64752,0.74251
7180.71878,0.74788
7178.79003,0.75492
7176.86129,0.75961
7174.93254,0.75860
7173.00380,0.75307
7171.07505,0.74876
7169.14631,0.74927
7167.21756,0.75297
7165.28882,0.75775
7163.36007,0.76178
7161.43133,0.76126
7159.50258,0.75540
7157.57384,0.75018
7155.64509,0.75128
7153.71634,0.75538
7151.78760,0.75529
7149.85885,0.75094
7147.93011,0.74650
7146.00136,0.74481
7144.07262,0.74594
7142.14387,0.74602
7140.21513,0.74250
7138.28638,0.73810
7136.35764,0.73645
7134.42889,0.73776
7132.50015,0.73871
7130.57140,0.73815
7128.64266,0.73858
7126.71391,0.73864
7124.78516,0.73639
7122.85642,0.73485
7120.92767,0.73535
7118.99893,0.73628
7117.07018,0.73600
7115.14144,0.73347
7113.21269,0.72948
7111.28395,0.72658
7109.35520,0.72607
7107.42646,0.72737
7105.49771,0.73028
7103.56897,0.73066
7101.64022,0.72348
7099.71148,0.71407
7097.78273,0.71126
7095.85399,0.71485
7093.92524,0.71906
7091.99649,0.72052
7090.06775,0.71863
7088.13900,0.71444
7086.21026,0.71000
7084.28151,0.70701
7082.35277,0.70588
7080.42402,0.70513
7078.49528,0.70424
7076.56653,0.70351
7074.63779,0.70196
7072.70904,0.69966
7070.78030,0.69848
7068.85155,0.69829
7066.92281,0.69537
7064.99406,0.68892
7063.06532,0.68328
7061.13657,0.68226
7059.20782,0.68570
7057.27908,0.68903
7055.35033,0.68818
7053.42159,0.68543
7051.49284,0.68481
7049.56410,0.68412
7047.63535,0.68045
7045.70661,0.67726
7043.77786,0.67690
7041.84912,0.67668
7039.92037,0.67502
7037.99163,0.67356
7036.06288,0.67361
7034.13414,0.67325
7032.20539,0.67189
7030.27664,0.67185
7028.34790,0.67250
7026.41915,0.67026
7024.49041,0.66420
7022.56166,0.65882
7020.63292,0.65866
7018.70417,0.66120
7016.77543,0.66246
7014.84668,0.66329
7012.91794,0.66344
7010.98919,0.66006
7009.06045,0.65413
7007.13170,0.65012
7005.20296,0.65022
7003.27421,0.65185
7001.34547,0.65147
6999.41672,0.64911
6997.48797,0.64739
6995.55923,0.64733
6993.63048,0.64752
6991.70174,0.64716
6989.77299,0.64669
6987.84425,0.64526
6985.91550,0.64138
6983.98676,0.63762
6982.05801,0.63779
6980.12927,0.63996
6978.20052,0.64083
6976.27178,0.64047
6974.34303,0.63903
6972.41429,0.63710
6970.48554,0.63702
6968.55680,0.64023
6966.62805,0.64403
6964.69930,0.64390
6962.77056,0.64079
6960.84181,0.63832
6958.91307,0.63590
6956.98432,0.63249
6955.05558,0.62945
6953.12683,0.62814
6951.19809,0.62907
6949.26934,0.63270
6947.34060,0.63782
6945.41185,0.63896
6943.48311,0.63468
6941.55436,0.63132
6939.62562,0.63115
6937.69687,0.63124
6935.76812,0.62926
6933.83938,0.62579
6931.91063,0.62474
6929.98189,0.62685
6928.05314,0.63008
6926.12440,0.63381
6924.19565,0.63502
6922.26691,0.63230
6920.33816,0.62922
6918.40942,0.62803
6916.48067,0.62833
6914.55193,0.62883
6912.62318,0.62837
6910.69444,0.62825
6908.76569,0.63139
6906.83695,0.63691
6904.90820,0.63839
6902.97945,0.63415
6901.05071,0.63011
6899.12196,0.62812
6897.19322,0.62674
6895.26447,0.62823
6893.33573,0.63179
6891.40698,0.63263
6889.47824,0.63138
6887.54949,0.63103
6885.62075,0.63099
6883.69200,0.63053
6881.76326,0.63003
6879.83451,0.62957
6877.90577,0.62856
6875.97702,0.62716
6874.04828,0.62729
6872.11953,0.62907
6870.19078,0.63046
6868.26204,0.63035
6866.33329,0.62840
6864.40455,0.62539
6862.47580,0.62380
6860.54706,0.62540
6858.61831,0.62877
6856.68957,0.63131
6854.76082,0.63279
6852.83208,0.63429
6850.90333,0.63617
6848.97459,0.63693
6847.04584,0.63428
6845.11710,0.63011
6843.18835,0.62871
6841.25960,0.63011
6839.33086,0.63168
6837.40211,0.63361
6835.47337,0.63623
6833.54462,0.63524
6831.61588,0.63022
6829.68713,0.62840
6827.75839,0.63178
6825.82964,0.63474
6823.90090,0.63390
6821.97215,0.63262
6820.04341,0.63379
6818.11466,0.63359
6816.18592,0.63077
6814.25717,0.62901
6812.32843,0.62796
6810.39968,0.62728
6808.47093,0.62871
6806.54219,0.63141
6804.61344,0.63356
6802.68470,0.63393
6800.75595,0.63293
6798.82721,0.63164
6796.89846,0.63011
6794.96972,0.62876
6793.04097,0.62868
6791.11223,0.63064
6789.18348,0.63296
6787.25474,0.63359
6785.32599,0.63272
6783.39725,0.63020
6781.46850,0.62684
6779.53975,0.62619
6777.61101,0.62910
6775.68226,0.63133
6773.75352,0.63156
6771.82477,0.63250
6769.89603,0.63343
6767.96728,0.63271
6766.03854,0.63088
6764.10979,0.62962
6762.18105,0.63014
6760.25230,0.62992
6758.32356,0.62761
6756.39481,0.62641
6754.46607,0.62856
6752.53732,0.63184
6750.60858,0.63247
6748.67983,0.63138
6746.75108,0.63141
6744.82234,0.63130
6742.89359,0.62910
6740.96485,0.62668
6739.03610,0.62743
6737.10736,0.63178
6735.17861,0.63672
6733.24987,0.63920
6731.32112,0.63976
6729.39238,0.64105
6727.46363,0.64302
6725.53489,0.64273
6723.60614,0.63956
6721.67740,0.63741
6719.74865,0.63832
6717.81991,0.63992
6715.89116,0.64024
6713.96241,0.63832
6712.03367,0.63420
6710.10492,0.63049
6708.17618,0.62991
6706.24743,0.63293
6704.31869,0.63798
6702.38994,0.64082
6700.46120,0.63910
6698.53245,0.63695
6696.60371,0.63764
6694.67496,0.63829
6692.74622,0.63608
6690.81747,0.63350
6688.88873,0.63491
6686.95998,0.63861
6685.03123,0.63867
6683.10249,0.63587
6681.17374,0.63601
6679.24500,0.63934
6677.31625,0.64145
6675.38751,0.64172
6673.45876,0.64263
6671.53002,0.64441
6669.60127,0.64575
6667.67253,0.64529
6665.74378,0.64417
6663.81504,0.64512
6661.88629,0.64597
6659.95755,0.64537
6658.02880,0.64631
6656.10006,0.64726
6654.17131,0.64606
6652.24256,0.64696
6650.31382,0.65115
6648.38507,0.65241
6646.45633,0.64927
6644.52758,0.64669
6642.59884,0.64567
6640.67009,0.64496
6638.74135,0.64536
6636.81260,0.64717
6634.88386,0.64944
6632.95511,0.65115
6631.02637,0.65114
6629.09762,0.64947
6627.16888,0.64934
6625.24013,0.65143
6623.31139,0.65148
6621.38264,0.64873
6619.45389,0.64691
6617.52515,0.64820
6615.59640,0.65151
6613.66766,0.65431
6611.73891,0.65510
6609.81017,0.65421
6607.88142,0.65266
6605.95268,0.65122
6604.02393,0.65127
6602.09519,0.65248
6600.16644,0.65213
6598.23770,0.65153
6596.30895,0.65323
6594.38021,0.65538
6592.45146,0.65684
6590.52271,0.65737
6588.59397,0.65624
6586.66522,0.65551
6584.73648,0.65647
6582.80773,0.65731
6580.87899,0.65745
6578.95024,0.65862
6577.02150,0.66074
6575.09275,0.66074
6573.16401,0.65876
6571.23526,0.65736
6569.30652,0.65690
6567.37777,0.65755
6565.44903,0.65795
6563.52028,0.65721
6561.59154,0.65753
6559.66279,0.65866
6557.73404,0.65878
6555.80530,0.65835
6553.87655,0.65820
6551.94781,0.65882
6550.01906,0.65912
6548.09032,0.65761
6546.16157,0.65731
6544.23283,0.66095
6542.30408,0.66512
6540.37534,0.66564
6538.44659,0.66329
6536.51785,0.66249
6534.58910,0.66477
6532.66036,0.66590
6530.73161,0.66336
6528.80287,0.66044
6526.87412,0.65982
6524.94537,0.65967
6523.01663,0.65857
6521.08788,0.65870
6519.15914,0.66031
6517.23039,0.66102
6515.30165,0.66072
6513.37290,0.66066
6511.44416,0.66155
6509.51541,0.66293
6507.58667,0.66283
6505.65792,0.66071
6503.72918,0.65971
6501.80043,0.66208
6499.87169,0.66403
6497.94294,0.66258
6496.01419,0.66143
6494.08545,0.66263
6492.15670,0.66386
6490.22796,0.66433
6488.29921,0.66467
6486.37047,0.66507
6484.44172,0.66581
6482.51298,0.66641
6480.58423,0.66601
6478.65549,0.66570
6476.72674,0.66620
6474.79800,0.66643
6472.86925,0.66620
6470.94051,0.66576
6469.01176,0.66562
6467.08302,0.66670
6465.15427,0.66825
6463.22552,0.66952
6461.29678,0.66992
6459.36803,0.66811
6457.43929,0.66467
6455.51054,0.66196
6453.58180,0.66167
6451.65305,0.66352
6449.72431,0.66522
6447.79556,0.66589
6445.86682,0.66768
6443.93807,0.67003
6442.00933,0.67017
6440.08058,0.66887
6438.15184,0.66799
6436.22309,0.66831
6434.29434,0.66995
6432.36560,0.67034
6430.43685,0.66703
6428.50811,0.66285
6426.57936,0.66196
6424.65062,0.66276
6422.72187,0.66266
6420.79313,0.66341
6418.86438,0.66551
6416.93564,0.66713
6415.00689,0.66866
6413.07815,0.67078
6411.14940,0.67159
6409.22066,0.67011
6407.29191,0.66854
6405.36317,0.66858
6403.43442,0.66965
6401.50567,0.67059
6399.57693,0.67129
6397.64818,0.67181
6395.71944,0.67124
6393.79069,0.66970
6391.86195,0.66816
6389.93320,0.66688
6388.00446,0.66666
6386.07571,0.66862
6384.14697,0.67137
6382.21822,0.67132
6380.28948,0.66786
6378.36073,0.66545
6376.43199,0.66640
6374.50324,0.66801
6372.57450,0.66902
6370.64575,0.67019
6368.71700,0.67073
6366.78826,0.66990
6364.85951,0.66878
6362.93077,0.66921
6361.00202,0.67107
6359.07328,0.67207
6357.14453,0.67152
6355.21579,0.67113
6353.28704,0.67192
6351.35830,0.67282
6349.42955,0.67236
6347.50081,0.67175
6345.57206,0.67370
6343.64332,0.67689
6341.71457,0.67811
6339.78582,0.67777
6337.85708,0.67678
6335.92833,0.67423
6333.99959,0.67110
6332.07084,0.67040
6330.14210,0.67225
6328.21335,0.67365
6326.28461,0.67369
6324.35586,0.67407
6322.42712,0.67524
6320.49837,0.67586
6318.56963,0.67613
6316.64088,0.67709
6314.71214,0.67678
6312.78339,0.67441
6310.85465,0.67333
6308.92590,0.67538
6306.99715,0.67789
6305.06841,0.67765
6303.13966,0.67575
6301.21092,0.67491
6299.28217,0.67516
6297.35343,0.67596
6295.42468,0.67663
6293.49594,0.67673
6291.56719,0.67766
6289.63845,0.67916
6287.70970,0.67974
6285.78096,0.67970
6283.85221,0.67941
6281.92347,0.67891
6279.99472,0.67858
6278.06598,0.67902
6276.13723,0.68028
6274.20848,0.68148
6272.27974,0.68230
6270.35099,0.68290
6268.42225,0.68357
6266.49350,0.68473
6264.56476,0.68561
6262.63601,0.68562
6260.70727,0.68617
6258.77852,0.68735
6256.84978,0.68759
6254.92103,0.68798
6252.99229,0.68964
6251.06354,0.69120
6249.13480,0.69192
6247.20605,0.69190
6245.27730,0.69170
6243.34856,0.69267
6241.41981,0.69477
6239.49107,0.69597
6237.56232,0.69470
6235.63358,0.69163
6233.70483,0.68992
6231.77609,0.69137
6229.84734,0.69317
6227.91860,0.69330
6225.98985,0.69349
6224.06111,0.69470
6222.13236,0.69650
6220.20362,0.69876
6218.27487,0.70071
6216.34613,0.70124
6214.41738,0.70037
6212.48863,0.69917
6210.55989,0.69848
6208.63114,0.69866
6206.70240,0.69997
6204.77365,0.70161
6202.84491,0.70138
6200.91616,0.69956
6198.98742,0.69978
6197.05867,0.70231
6195.12993,0.70361
6193.20118,0.70346
6191.27244,0.70390
6189.34369,0.70482
6187.41495,0.70564
6185.48620,0.70577
6183.55746,0.70508
6181.62871,0.70512
6179.69996,0.70564
6177.77122,0.70537
6175.84247,0.70555
6173.91373,0.70660
6171.98498,0.70708
6170.05624,0.70746
6168.12749,0.70860
6166.19875,0.70957
6164.27000,0.70992
6162.34126,0.71057
6160.41251,0.71243
6158.48377,0.71426
6156.55502,0.71412
6154.62628,0.71305
6152.69753,0.71318
6150.76878,0.71476
6148.84004,0.71651
6146.91129,0.71691
6144.98255,0.71652
6143.05380,0.71661
6141.12506,0.71587
6139.19631,0.71358
6137.26757,0.71252
6135.33882,0.71413
6133.41008,0.71571
6131.48133,0.71544
6129.55259,0.71462
6127.62384,0.71421
6125.69510,0.71452
6123.76635,0.71595
6121.83761,0.71754
6119.90886,0.71825
6117.98011,0.71811
6116.05137,0.71812
6114.12262,0.71953
6112.19388,0.72104
6110.26513,0.72137
6108.33639,0.72177
6106.40764,0.72165
6104.47890,0.72006
6102.55015,0.71919
6100.62141,0.72017
6098.69266,0.72121
6096.76392,0.72101
6094.83517,0.72025
6092.90643,0.72040
6090.97768,0.72153
6089.04893,0.72243
6087.12019,0.72259
6085.19144,0.72206
6083.26270,0.72140
6081.33395,0.72129
6079.40521,0.72052
6077.47646,0.71863
6075.54772,0.71800
6073.61897,0.71901
6071.69023,0.71966
6069.76148,0.72057
6067.83274,0.72187
6065.90399,0.72084
6063.97525,0.71813
6062.04650,0.71709
6060.11776,0.71765
6058.18901,0.71731
6056.26026,0.71610
6054.33152,0.71630
6052.40277,0.71786
6050.47403,0.71828
6048.54528,0.71651
6046.61654,0.71477
6044.68779,0.71576
6042.75905,0.71827
6040.83030,0.71928
6038.90156,0.71899
6036.97281,0.71863
6035.04407,0.71741
6033.11532,0.71563
6031.18658,0.71546
6029.25783,0.71633
6027.32909,0.71556
6025.40034,0.71351
6023.47159,0.71245
6021.54285,0.71265
6019.61410,0.71228
6017.68536,0.70997
6015.75661,0.70786
6013.82787,0.70819
6011.89912,0.70869
6009.97038,0.70764
6008.04163,0.70678
6006.11289,0.70654
6004.18414,0.70588
6002.25540,0.70521
6000.32665,0.70454
5998.39791,0.70288
5996.46916,0.70111
5994.54041,0.70017
5992.61167,0.69986
5990.68292,0.70139
5988.75418,0.70389
5986.82543,0.70380
5984.89669,0.70120
5982.96794,0.69933
5981.03920,0.69930
5979.11045,0.69979
5977.18171,0.69975
5975.25296,0.70002
5973.32422,0.70155
5971.39547,0.70374
5969.46673,0.70570
5967.53798,0.70606
5965.60924,0.70425
5963.68049,0.70271
5961.75174,0.70295
5959.82300,0.70337
5957.89425,0.70253
5955.96551,0.70110
5954.03676,0.70007
5952.10802,0.69934
5950.17927,0.69929
5948.25053,0.70050
5946.32178,0.70178
5944.39304,0.70214
5942.46429,0.70249
5940.53555,0.70329
5938.60680,0.70362
5936.67806,0.70263
5934.74931,0.70132
5932.82057,0.70152
5930.89182,0.70242
5928.96307,0.70218
5927.03433,0.70135
5925.10558,0.70101
5923.17684,0.70122
5921.24809,0.70138
5919.31935,0.70080
5917.39060,0.69978
5915.46186,0.69926
5913.53311,0.69965
5911.60437,0.70024
5909.67562,0.70015
5907.74688,0.69962
5905.81813,0.69923
5903.88939,0.69872
5901.96064,0.69771
5900.03189,0.69662
5898.10315,0.69669
5896.17440,0.69815
5894.24566,0.69904
5892.31691,0.69799
5890.38817,0.69648
5888.45942,0.69598
5886.53068,0.69611
5884.60193,0.69677
5882.67319,0.69796
5880.74444,0.69810
5878.81570,0.69615
5876.88695,0.69343
5874.95821,0.69199
5873.02946,0.69284
5871.10072,0.69472
5869.17197,0.69563
5867.24322,0.69588
5865.31448,0.69633
5863.38573,0.69688
5861.45699,0.69710
5859.52824,0.69634
5857.59950,0.69525
5855.67075,0.69530
5853.74201,0.69619
5851.81326,0.69690
5849.88452,0.69731
5847.95577,0.69721
5846.02703,0.69647
5844.09828,0.69601
5842.16954,0.69628
5840.24079,0.69613
5838.31205,0.69509
5836.38330,0.69399
5834.45455,0.69342
5832.52581,0.69323
5830.59706,0.69324
5828.66832,0.69297
5826.73957,0.69175
5824.81083,0.69024
5822.88208,0.68963
5820.95334,0.68972
5819.02459,0.68965
5817.09585,0.68960
5815.16710,0.69071
5813.23836,0.69225
5811.30961,0.69216
5809.38087,0.69054
5807.45212,0.68860
5805.52337,0.68704
5803.59463,0.68635
5801.66588,0.68675
5799.73714,0.68816
5797.80839,0.68966
5795.87965,0.69038
5793.95090,0.69041
5792.02216,0.69005
5790.09341,0.68935
5788.16467,0.68884
5786.23592,0.68903
5784.30718,0.68930
5782.37843,0.68911
5780.44969,0.68863
5778.52094,0.68841
5776.59220,0.68947
5774.66345,0.69107
5772.73470,0.69158
5770.80596,0.69188
5768.87721,0.69312
5766.94847,0.69437
5765.01972,0.69464
5763.09098,0.69409
5761.16223,0.69311
5759.23349,0.69271
5757.30474,0.69333
5755.37600,0.69368
5753.44725,0.69393
5751.51851,0.69468
5749.58976,0.69471
5747.66102,0.69463
5745.73227,0.69549
5743.80352,0.69547
5741.87478,0.69362
5739.94603,0.69163
5738.01729,0.69117
5736.08854,0.69258
5734.15980,0.69434
5732.23105,0.69501
5730.30231,0.69472
5728.37356,0.69377
5726.44482,0.69300
5724.51607,0.69269
5722.58733,0.69199
5720.65858,0.69128
5718.72984,0.69151
5716.80109,0.69256
5714.87235,0.69358
5712.94360,0.69388
5711.01485,0.69353
5709.08611,0.69315
5707.15736,0.69301
5705.22862,0.69257
5703.29987,0.69228
5701.37113,0.69283
5699.44238,0.69335
5697.51364,0.69313
5695.58489,0.69253
5693.65615,0.69227
5691.72740,0.69248
5689.79866,0.69247
5687.86991,0.69197
5685.94117,0.69165
5684.01242,0.69199
5682.08368,0.69224
5680.15493,0.69196
5678.22618,0.69171
5676.29744,0.69153
5674.36869,0.69093
5672.43995,0.68989
5670.51120,0.68934
5668.58246,0.69002
5666.65371,0.69138
5664.72497,0.69244
5662.79622,0.69245
5660.86748,0.69126
5658.93873,0.69048
5657.00999,0.69106
5655.08124,0.69151
5653.15250,0.69121
5651.22375,0.69104
5649.29500,0.69088
5647.36626,0.69059
5645.43751,0.69062
5643.50877,0.69096
5641.58002,0.69099
5639.65128,0.69075
5637.72253,0.69084
5635.79379,0.69120
5633.86504,0.69165
5631.93630,0.69161
5630.00755,0.69041
5628.07881,0.68924
5626.15006,0.68976
5624.22132,0.69121
5622.29257,0.69210
5620.36383,0.69246
5618.43508,0.69237
5616.50633,0.69161
5614.57759,0.69081
5612.64884,0.69049
5610.72010,0.69041
5608.79135,0.69032
5606.86261,0.69017
5604.93386,0.69011
5603.00512,0.69055
5601.07637,0.69126
5599.14763,0.69159
5597.21888,0.69125
5595.29014,0.69036
5593.36139,0.68977
5591.43265,0.69069
5589.50390,0.69250
5587.57516,0.69285
5585.64641,0.69191
5583.71766,0.69166
5581.78892,0.69145
5579.86017,0.69031
5577.93143,0.68997
5576.00268,0.69151
5574.07394,0.69305
5572.14519,0.69320
5570.21645,0.69269
5568.28770,0.69204
5566.35896,0.69122
5564.43021,0.69046
5562.50147,0.69060
5560.57272,0.69238
5558.64398,0.69459
5556.71523,0.69575
5554.78648,0.69597
5552.85774,0.69579
5550.92899,0.69594
5549.00025,0.69641
5547.07150,0.69623
5545.14276,0.69541
5543.21401,0.69464
5541.28527,0.69448
5539.35652,0.69508
5537.42778,0.69561
5535.49903,0.69529
5533.57029,0.69465
5531.64154,0.69463
5529.71280,0.69481
5527.78405,0.69441
5525.85531,0.69412
5523.92656,0.69487
5521.99781,0.69625
5520.06907,0.69746
5518.14032,0.69779
5516.21158,0.69684
5514.28283,0.69572
5512.35409,0.69570
5510.42534,0.69661
5508.49660,0.69804
5506.56785,0.69942
5504.63911,0.69975
5502.71036,0.69915
5500.78162,0.69836
5498.85287,0.69824
5496.92413,0.69909
5494.99538,0.69967
5493.06664,0.69939
5491.13789,0.69890
5489.20914,0.69853
5487.28040,0.69875
5485.35165,0.69919
5483.42291,0.69875
5481.49416,0.69835
5479.56542,0.69904
5477.63667,0.69955
5475.70793,0.69923
5473.77918,0.69941
5471.85044,0.70031
5469.92169,0.70036
5467.99295,0.69961
5466.06420,0.69969
5464.13546,0.70065
5462.20671,0.70135
5460.27796,0.70141
5458.34922,0.70138
5456.42047,0.70188
5454.49173,0.70251
5452.56298,0.70243
5450.63424,0.70171
5448.70549,0.70162
5446.77675,0.70285
5444.84800,0.70367
5442.91926,0.70286
5440.99051,0.70232
5439.06177,0.70313
5437.13302,0.70402
5435.20428,0.70420
5433.27553,0.70387
5431.34679,0.70397
5429.41804,0.70495
5427.48929,0.70583
5425.56055,0.70631
5423.63180,0.70698
5421.70306,0.70740
5419.77431,0.70733
5417.84557,0.70736
5415.91682,0.70752
5413.98808,0.70748
5412.05933,0.70769
5410.13059,0.70862
5408.20184,0.70963
5406.27310,0.71018
5404.34435,0.71079
5402.41561,0.71169
5400.48686,0.71213
5398.55811,0.71187
5396.62937,0.71162
5394.70062,0.71170
5392.77188,0.71191
5390.84313,0.71199
5388.91439,0.71175
5386.98564,0.71162
5385.05690,0.71199
5383.12815,0.71231
5381.19941,0.71219
5379.27066,0.71223
5377.34192,0.71258
5375.41317,0.71251
5373.48443,0.71204
5371.55568,0.71180
5369.62694,0.71169
5367.69819,0.71124
5365.76944,0.71115
5363.84070,0.71230
5361.91195,0.71316
5359.98321,0.71217
5358.05446,0.71097
5356.12572,0.71105
5354.19697,0.71126
5352.26823,0.71061
5350.33948,0.70977
5348.41074,0.70910
5346.48199,0.70835
5344.55325,0.70766
5342.62450,0.70756
5340.69576,0.70824
5338.76701,0.70836
5336.83827,0.70681
5334.90952,0.70512
5332.98077,0.70449
5331.05203,0.70394
5329.12328,0.70303
5327.19454,0.70222
5325.26579,0.70113
5323.33705,0.69932
5321.40830,0.69724
5319.47956,0.69570
5317.55081,0.69525
5315.62207,0.69515
5313.69332,0.69408
5311.76458,0.69212
5309.83583,0.69004
5307.90709,0.68781
5305.97834,0.68544
5304.04959,0.68340
5302.12085,0.68157
5300.19210,0.67960
5298.26336,0.67801
5296.33461,0.67682
5294.40587,0.67496
5292.47712,0.67184
5290.54838,0.66794
5288.61963,0.66438
5286.69089,0.66132
5284.76214,0.65804
5282.83340,0.65468
5280.90465,0.65134
5278.97591,0.64751
5277.04716,0.64349
5275.11842,0.63951
5273.18967,0.63523
5271.26092,0.63088
5269.33218,0.62686
5267.40343,0.62356
5265.47469,0.62092
5263.54594,0.61782
5261.61720,0.61416
5259.68845,0.61068
5257.75971,0.60681
5255.83096,0.60215
5253.90222,0.59772
5251.97347,0.59440
5250.04473,0.59145
5248.11598,0.58802
5246.18724,0.58458
5244.25849,0.58174
5242.32975,0.57909
5240.40100,0.57575
5238.47225,0.57228
5236.54351,0.56988
5234.61476,0.56815
5232.68602,0.56622
5230.75727,0.56370
5228.82853,0.56085
5226.89978,0.55896
5224.97104,0.55817
5223.04229,0.55685
5221.11355,0.55459
5219.18480,0.55262
5217.25606,0.55182
5215.32731,0.55147
5213.39857,0.55055
5211.46982,0.54920
5209.54107,0.54767
5207.61233,0.54659
5205.68358,0.54662
5203.75484,0.54688
5201.82609,0.54659
5199.89735,0.54610
5197.96860,0.54569
5196.03986,0.54517
5194.11111,0.54472
5192.18237,0.54411
5190.25362,0.54293
5188.32488,0.54237
5186.39613,0.54343
5184.46739,0.54521
5182.53864,0.54670
5180.60990,0.54778
5178.68115,0.54862
5176.75240,0.54911
5174.82366,0.54920
5172.89491,0.54943
5170.96617,0.55005
5169.03742,0.55056
5167.10868,0.55077
5165.17993,0.55148
5163.25119,0.55272
5161.32244,0.55338
5159.39370,0.55357
5157.46495,0.55423
5155.53621,0.55545
5153.60746,0.55709
5151.67872,0.55901
5149.74997,0.56053
5147.82123,0.56119
5145.89248,0.56159
5143.96373,0.56227
5142.03499,0.56309
5140.10624,0.56413
5138.17750,0.56516
5136.24875,0.56594
5134.32001,0.56711
5132.39126,0.56831
5130.46252,0.56906
5128.53377,0.57038
5126.60503,0.57236
5124.67628,0.57422
5122.74754,0.57624
5120.81879,0.57840
5118.89005,0.57979
5116.96130,0.58014
5115.03255,0.58010
5113.10381,0.58041
5111.17506,0.58135
5109.24632,0.58274
5107.31757,0.58423
5105.38883,0.58559
5103.46008,0.58676
5101.53134,0.58756
5099.60259,0.58810
5097.67385,0.58899
5095.74510,0.59002
5093.81636,0.59086
5091.88761,0.59218
5089.95887,0.59360
5088.03012,0.59428
5086.10138,0.59464
5084.17263,0.59558
5082.24388,0.59705
5080.31514,0.59816
5078.38639,0.59890
5076.45765,0.59983
5074.52890,0.60059
5072.60016,0.60107
5070.67141,0.60179
5068.74267,0.60312
5066.81392,0.60487
5064.88518,0.60633
5062.95643,0.60703
5061.02769,0.60737
5059.09894,0.60783
5057.17020,0.60863
5055.24145,0.60986
5053.31270,0.61112
5051.38396,0.61186
5049.45521,0.61220
5047.52647,0.61287
5045.59772,0.61412
5043.66898,0.61520
5041.74023,0.61578
5039.81149,0.61629
5037.88274,0.61690
5035.95400,0.61753
5034.02525,0.61821
5032.09651,0.61899
5030.16776,0.61937
5028.23902,0.61935
5026.31027,0.61977
5024.38153,0.62047
5022.45278,0.62071
5020.52403,0.62110
5018.59529,0.62226
5016.66654,0.62331
5014.73780,0.62387
5012.80905,0.62462
5010.88031,0.62531
5008.95156,0.62537
5007.02282,0.62503
5005.09407,0.62447
5003.16533,0.62415
5001.23658,0.62449
4999.30784,0.62489
4997.37909,0.62488
4995.45035,0.62478
4993.52160,0.62499
4991.59286,0.62554
4989.66411,0.62588
4987.73536,0.62524
4985.80662,0.62413
4983.87787,0.62393
4981.94913,0.62407
4980.02038,0.62323
4978.09164,0.62237
4976.16289,0.62226
4974.23415,0.62153
4972.30540,0.61960
4970.37666,0.61794
4968.44791,0.61737
4966.51917,0.61705
4964.59042,0.61621
4962.66168,0.61520
4960.73293,0.61415
4958.80418,0.61294
4956.87544,0.61185
4954.94669,0.61049
4953.01795,0.60875
4951.08920,0.60755
4949.16046,0.60698
4947.23171,0.60625
4945.30297,0.60481
4943.37422,0.60278
4941.44548,0.60071
4939.51673,0.59871
4937.58799,0.59683
4935.65924,0.59525
4933.73050,0.59373
4931.80175,0.59212
4929.87301,0.59069
4927.94426,0.58905
4926.01551,0.58687
4924.08677,0.58472
4922.15802,0.58289
4920.22928,0.58132
4918.30053,0.57999
4916.37179,0.57873
4914.44304,0.57720
4912.51430,0.57536
4910.58555,0.57337
4908.65681,0.57111
4906.72806,0.56884
4904.79932,0.56692
4902.87057,0.56518
4900.94183,0.56345
4899.01308,0.56193
4897.08434,0.56063
4895.15559,0.55911
4893.22684,0.55727
4891.29810,0.55545
4889.36935,0.55393
4887.44061,0.55263
4885.51186,0.55131
4883.58312,0.55008
4881.65437,0.54847
4879.72563,0.54602
4877.79688,0.54368
4875.86814,0.54206
4873.93939,0.54072
4872.01065,0.53935
4870.08190,0.53788
4868.15316,0.53641
4866.22441,0.53481
4864.29566,0.53312
4862.36692,0.53189
4860.43817,0.53102
4858.50943,0.52987
4856.58068,0.52841
4854.65194,0.52697
4852.72319,0.52575
4850.79445,0.52456
4848.86570,0.52317
4846.93696,0.52178
4845.00821,0.52040
4843.07947,0.51893
4841.15072,0.51789
4839.22198,0.51728
4837.29323,0.51629
4835.36449,0.51496
4833.43574,0.51372
4831.50699,0.51255
4829.57825,0.51161
4827.64950,0.51089
4825.72076,0.50995
4823.79201,0.50874
4821.86327,0.50738
4819.93452,0.50605
4818.00578,0.50514
4816.07703,0.50443
4814.14829,0.50358
4812.21954,0.50306
4810.29080,0.50315
4808.36205,0.50317
4806.43331,0.50276
4804.50456,0.50223
4802.57582,0.50142
4800.64707,0.50018
4798.71832,0.49906
4796.78958,0.49843
4794.86083,0.49796
4792.93209,0.49766
4791.00334,0.49794
4789.07460,0.49825
4787.14585,0.49780
4785.21711,0.49678
4783.28836,0.49571
4781.35962,0.49496
4779.43087,0.49461
4777.50213,0.49476
4775.57338,0.49526
4773.64464,0.49535
4771.71589,0.49486
4769.78714,0.49432
4767.85840,0.49420
4765.92965,0.49441
4764.00091,0.49427
4762.07216,0.49357
4760.14342,0.49283
4758.21467,0.49263
4756.28593,0.49312
4754.35718,0.49358
4752.42844,0.49346
4750.49969,0.49330
4748.57095,0.49337
4746.64220,0.49343
4744.71346,0.49341
4742.78471,0.49327
4740.85597,0.49338
4738.92722,0.49370
4736.99847,0.49377
4735.06973,0.49406
4733.14098,0.49458
4731.21224,0.49483
4729.28349,0.49483
4727.35475,0.49458
4725.42600,0.49446
4723.49726,0.49482
4721.56851,0.49549
4719.63977,0.49628
4717.71102,0.49672
4715.78228,0.49663
4713.85353,0.49668
4711.92479,0.49720
4709.99604,0.49791
4708.06729,0.49843
4706.13855,0.49850
4704.20980,0.49842
4702.28106,0.49856
4700.35231,0.49887
4698.42357,0.49928
4696.49482,0.49972
4694.56608,0.50023
4692.63733,0.50077
4690.70859,0.50093
4688.77984,0.50076
4686.85110,0.50070
4684.92235,0.50127
4682.99361,0.50254
4681.06486,0.50328
4679.13612,0.50292
4677.20737,0.50271
4675.27862,0.50312
4673.34988,0.50353
4671.42113,0.50391
4669.49239,0.50448
4667.56364,0.50539
4665.63490,0.50666
4663.70615,0.50776
4661.77741,0.50829
4659.84866,0.50875
4657.91992,0.50966
4655.99117,0.51075
4654.06243,0.51166
4652.13368,0.51244
4650.20494,0.51322
4648.27619,0.51401
4646.34745,0.51505
4644.41870,0.51633
4642.48995,0.51708
4640.56121,0.51694
4638.63246,0.51666
4636.70372,0.51695
4634.77497,0.51814
4632.84623,0.51989
4630.91748,0.52119
4628.98874,0.52179
4627.05999,0.52240
4625.13125,0.52341
4623.20250,0.52474
4621.27376,0.52608
4619.34501,0.52740
4617.41627,0.52876
4615.48752,0.52971
4613.55877,0.53029
4611.63003,0.53125
4609.70128,0.53257
4607.77254,0.53369
4605.84379,0.53450
4603.91505,0.53519
4601.98630,0.53593
4600.05756,0.53700
4598.12881,0.53836
4596.20007,0.53952
4594.27132,0.54019
4592.34258,0.54056
4590.41383,0.54114
4588.48509,0.54208
4586.55634,0.54309
4584.62760,0.54397
4582.69885,0.54469
4580.77010,0.54531
4578.84136,0.54602
4576.91261,0.54682
4574.98387,0.54730
4573.05512,0.54737
4571.12638,0.54753
4569.19763,0.54814
4567.26889,0.54915
4565.34014,0.55018
4563.41140,0.55078
4561.48265,0.55096
4559.55391,0.55112
4557.62516,0.55164
4555.69642,0.55232
4553.76767,0.55287
4551.83893,0.55344
4549.91018,0.55395
4547.98143,0.55414
4546.05269,0.55438
4544.12394,0.55504
4542.19520,0.55565
4540.26645,0.55581
4538.33771,0.55577
4536.40896,0.55577
4534.48022,0.55593
4532.55147,0.55638
4530.62273,0.55706
4528.69398,0.55757
4526.76524,0.55752
4524.83649,0.55731
4522.90775,0.55751
4520.97900,0.55764
4519.05025,0.55737
4517.12151,0.55718
4515.19276,0.55697
4513.26402,0.55644
4511.33527,0.55589
4509.40653,0.55556
4507.47778,0.55536
4505.54904,0.55519
4503.62029,0.55497
4501.69155,0.55443
4499.76280,0.55353
4497.83406,0.55269
4495.90531,0.55218
4493.97657,0.55189
4492.04782,0.55116
4490.11908,0.54960
4488.19033,0.54792
4486.26158,0.54671
4484.33284,0.54563
4482.40409,0.54413
4480.47535,0.54211
4478.54660,0.53981
4476.61786,0.53768
4474.68911,0.53597
4472.76037,0.53424
4470.83162,0.53207
4468.90288,0.52974
4466.97413,0.52766
4465.04539,0.52574
4463.11664,0.52384
4461.18790,0.52199
4459.25915,0.52001
4457.33041,0.51769
4455.40166,0.51490
4453.47291,0.51159
4451.54417,0.50824
4449.61542,0.50562
4447.68668,0.50361
4445.75793,0.50160
4443.82919,0.49957
4441.90044,0.49757
4439.97170,0.49538
4438.04295,0.49286
4436.11421,0.49011
4434.18546,0.48764
4432.25672,0.48528
4430.32797,0.48260
4428.39923,0.48001
4426.47048,0.47749
4424.54173,0.47476
4422.61299,0.47215
4420.68424,0.46969
4418.75550,0.46728
4416.82675,0.46535
4414.89801,0.46379
4412.96926,0.46197
4411.04052,0.45986
4409.11177,0.45797
4407.18303,0.45666
4405.25428,0.45568
4403.32554,0.45466
4401.39679,0.45373
4399.46805,0.45321
4397.53930,0.45289
4395.61056,0.45253
4393.68181,0.45251
4391.75306,0.45290
4389.82432,0.45323
4387.89557,0.45341
4385.96683,0.45375
4384.03808,0.45443
4382.10934,0.45533
4380.18059,0.45624
4378.25185,0.45701
4376.32310,0.45761
4374.39436,0.45840
4372.46561,0.45939
4370.53687,0.46006
4368.60812,0.46072
4366.67938,0.46199
4364.75063,0.46305
4362.82189,0.46329
4360.89314,0.46348
4358.96439,0.46403
4357.03565,0.46453
4355.10690,0.46473
4353.17816,0.46466
4351.24941,0.46428
4349.32067,0.46366
4347.39192,0.46306
4345.46318,0.46254
4343.53443,0.46213
4341.60569,0.46198
4339.67694,0.46170
4337.74820,0.46110
4335.81945,0.46058
4333.89071,0.46025
4331.96196,0.45992
4330.03321,0.45952
4328.10447,0.45896
4326.17572,0.45823
4324.24698,0.45746
4322.31823,0.45675
4320.38949,0.45593
4318.46074,0.45490
4316.53200,0.45387
4314.60325,0.45307
4312.67451,0.45246
4310.74576,0.45171
4308.81702,0.45057
4306.88827,0.44928
4304.95953,0.44820
4303.03078,0.44736
4301.10204,0.44679
4299.17329,0.44635
4297.24454,0.44565
4295.31580,0.44466
4293.38705,0.44397
4291.45831,0.44369
4289.52956,0.44327
4287.60082,0.44259
4285.67207,0.44197
4283.74333,0.44163
4281.81458,0.44148
4279.88584,0.44108
4277.95709,0.44050
4276.02835,0.44041
4274.09960,0.44089
4272.17086,0.44128
4270.24211,0.44149
4268.31336,0.44191
4266.38462,0.44233
4264.45587,0.44264
4262.52713,0.44317
4260.59838,0.44393
4258.66964,0.44458
4256.74089,0.44503
4254.81215,0.44540
4252.88340,0.44570
4250.95466,0.44611
4249.02591,0.44661
4247.09717,0.44689
4245.16842,0.44687
4243.23968,0.44682
4241.31093,0.44692
4239.38219,0.44709
4237.45344,0.44732
4235.52469,0.44744
4233.59595,0.44733
4231.66720,0.44734
4229.73846,0.44769
4227.80971,0.44805
4225.88097,0.44813
4223.95222,0.44808
4222.02348,0.44817
4220.09473,0.44844
4218.16599,0.44867
4216.23724,0.44844
4214.30850,0.44786
4212.37975,0.44746
4210.45101,0.44732
4208.52226,0.44740
4206.59352,0.44762
4204.66477,0.44782
4202.73602,0.44805
4200.80728,0.44814
4198.87853,0.44809
4196.94979,0.44833
4195.02104,0.44862
4193.09230,0.44866
4191.16355,0.44883
4189.23481,0.44911
4187.30606,0.44919
4185.37732,0.44919
4183.44857,0.44933
4181.51983,0.44988
4179.59108,0.45085
4177.66234,0.45160
4175.73359,0.45184
4173.80484,0.45209
4171.87610,0.45270
4169.94735,0.45356
4168.01861,0.45435
4166.08986,0.45475
4164.16112,0.45478
4162.23237,0.45447
4160.30363,0.45397
4158.37488,0.45362
4156.44614,0.45356
4154.51739,0.45364
4152.58865,0.45368
4150.65990,0.45370
4148.73116,0.45348
4146.80241,0.45260
4144.87367,0.45131
4142.94492,0.45011
4141.01617,0.44910
4139.08743,0.44848
4137.15868,0.44799
4135.22994,0.44702
4133.30119,0.44562
4131.37245,0.44420
4129.44370,0.44292
4127.51496,0.44175
4125.58621,0.44055
4123.65747,0.43936
4121.72872,0.43813
4119.79998,0.43669
4117.87123,0.43522
4115.94249,0.43388
4114.01374,0.43231
4112.08500,0.43042
4110.15625,0.42863
4108.22750,0.42699
4106.29876,0.42512
4104.37001,0.42317
4102.44127,0.42156
4100.51252,0.42000
4098.58378,0.41825
4096.65503,0.41666
4094.72629,0.41517
4092.79754,0.41335
4090.86880,0.41132
4088.94005,0.40933
4087.01131,0.40730
4085.08256,0.40515
4083.15382,0.40301
4081.22507,0.40112
4079.29632,0.39932
4077.36758,0.39729
4075.43883,0.39518
4073.51009,0.39324
4071.58134,0.39151
4069.65260,0.38974
4067.72385,0.38765
4065.79511,0.38558
4063.86636,0.38399
4061.93762,0.38247
4060.00887,0.38056
4058.08013,0.37849
4056.15138,0.37667
4054.22264,0.37487
4052.29389,0.37292
4050.36515,0.37108
4048.43640,0.36928
4046.50765,0.36741
4044.57891,0.36578
4042.65016,0.36445
4040.72142,0.36323
4038.79267,0.36209
4036.86393,0.36101
4034.93518,0.35963
4033.00644,0.35798
4031.07769,0.35683
4029.14895,0.35634
4027.22020,0.35576
4025.29146,0.35486
4023.36271,0.35410
4021.43397,0.35337
4019.50522,0.35238
4017.57648,0.35143
4015.64773,0.35096
4013.71898,0.35088
4011.79024,0.35081
4009.86149,0.35086
4007.93275,0.35110
4006.00400,0.35145
4004.07526,0.35184
4002.14651,0.35191
4000.21777,0.35165
3998.28902,0.35166
3996.36028,0.35228
3994.43153,0.35320
3992.50279,0.35403
3990.57404,0.35464
3988.64530,0.35502
3986.71655,0.35533
3984.78780,0.35574
3982.85906,0.35609
3980.93031,0.35622
3979.00157,0.35657
3977.07282,0.35721
3975.14408,0.35762
3973.21533,0.35788
3971.28659,0.35846
3969.35784,0.35931
3967.42910,0.36030
3965.50035,0.36146
3963.57161,0.36254
3961.64286,0.36327
3959.71412,0.36402
3957.78537,0.36517
3955.85663,0.36624
3953.92788,0.36688
3951.99913,0.36758
3950.07039,0.36877
3948.14164,0.37012
3946.21290,0.37111
3944.28415,0.37189
3942.35541,0.37279
3940.42666,0.37369
3938.49792,0.37463
3936.56917,0.37565
3934.64043,0.37654
3932.71168,0.37747
3930.78294,0.37880
3928.85419,0.38008
3926.92545,0.38085
3924.99670,0.38161
3923.06795,0.38279
3921.13921,0.38403
3919.21046,0.38509
3917.28172,0.38614
3915.35297,0.38705
3913.42423,0.38775
3911.49548,0.38846
3909.56674,0.38928
3907.63799,0.39012
3905.70925,0.39101
3903.78050,0.39204
3901.85176,0.39309
3899.92301,0.39382
3897.99427,0.39409
3896.06552,0.39444
3894.13678,0.39540
3892.20803,0.39682
3890.27928,0.39795
3888.35054,0.39878
3886.42179,0.39988
3884.49305,0.40088
3882.56430,0.40126
3880.63556,0.40158
3878.70681,0.40216
3876.77807,0.40285
3874.84932,0.40364
3872.92058,0.40450
3870.99183,0.40543
3869.06309,0.40640
3867.13434,0.40726
3865.20560,0.40826
3863.27685,0.40937
3861.34811,0.41034
3859.41936,0.41127
3857.49061,0.41213
3855.56187,0.41302
3853.63312,0.41435
3851.70438,0.41554
3849.77563,0.41613
3847.84689,0.41675
3845.91814,0.41766
3843.98940,0.41869
3842.06065,0.41940
3840.13191,0.41974
3838.20316,0.42035
3836.27442,0.42099
3834.34567,0.42100
3832.41693,0.42096
3830.48818,0.42120
3828.55943,0.42140
3826.63069,0.42168
3824.70194,0.42219
3822.77320,0.42272
3820.84445,0.42293
3818.91571,0.42266
3816.98696,0.42241
3815.05822,0.42261
3813.12947,0.42284
3811.20073,0.42267
3809.27198,0.42244
3807.34324,0.42247
3805.41449,0.42261
3803.48575,0.42268
3801.55700,0.42255
3799.62826,0.42186
3797.69951,0.42103
3795.77076,0.42071
3793.84202,0.42077
3791.91327,0.42066
3789.98453,0.42036
3788.05578,0.42009
3786.12704,0.41993
3784.19829,0.41989
3782.26955,0.41985
3780.34080,0.41950
3778.41206,0.41881
3776.48331,0.41797
3774.55457,0.41734
3772.62582,0.41714
3770.69708,0.41703
3768.76833,0.41662
3766.83959,0.41616
3764.91084,0.41569
3762.98209,0.41491
3761.05335,0.41395
3759.12460,0.41299
3757.19586,0.41226
3755.26711,0.41186
3753.33837,0.41154
3751.40962,0.41073
3749.48088,0.40944
3747.55213,0.40843
3745.62339,0.40748
3743.69464,0.40620
3741.76590,0.40498
3739.83715,0.40402
3737.90841,0.40293
3735.97966,0.40131
3734.05091,0.39946
3732.12217,0.39759
3730.19342,0.39563
3728.26468,0.39381
3726.33593,0.39209
3724.40719,0.39005
3722.47844,0.38772
3720.54970,0.38555
3718.62095,0.38349
3716.69221,0.38122
3714.76346,0.37869
3712.83472,0.37603
3710.90597,0.37316
3708.97723,0.36998
3707.04848,0.36670
3705.11974,0.36353
3703.19099,0.36032
3701.26224,0.35666
3699.33350,0.35278
3697.40475,0.34889
3695.47601,0.34465
3693.54726,0.34004
3691.61852,0.33524
3689.68977,0.32973
3687.76103,0.32306
3685.83228,0.31641
3683.90354,0.31022
3681.97479,0.30380
3680.04605,0.29697
3678.11730,0.29005
3676.18856,0.28246
3674.25981,0.27454
3672.33107,0.26760
3670.40232,0.26000
3668.47357,0.25126
3666.54483,0.24346
3664.61608,0.23658
3662.68734,0.23006
3660.75859,0.22375
3658.82985,0.21738
3656.90110,0.21048
3654.97236,0.20379
3653.04361,0.19856
3651.11487,0.19360
3649.18612,0.18739
3647.25738,0.18108
3645.32863,0.17593
3643.39989,0.17132
3641.47114,0.16682
3639.54239,0.16246
3637.61365,0.15816
3635.68490,0.15408
3633.75616,0.15050
3631.82741,0.14731
3629.89867,0.14374
3627.96992,0.13935
3626.04118,0.13544
3624.11243,0.13239
3622.18369,0.12972
3620.25494,0.12692
3618.32620,0.12377
3616.39745,0.12099
3614.46871,0.11859
3612.53996,0.11594
3610.61122,0.11310
3608.68247,0.11040
3606.75372,0.10799
3604.82498,0.10580
3602.89623,0.10357
3600.96749,0.10141
3599.03874,0.09932
3597.11000,0.09696
3595.18125,0.09449
3593.25251,0.09249
3591.32376,0.09092
3589.39502,0.08916
3587.46627,0.08703
3585.53753,0.08524
3583.60878,0.08398
3581.68004,0.08267
3579.75129,0.08109
3577.82254,0.07951
3575.89380,0.07823
3573.96505,0.07716
3572.03631,0.07609
3570.10756,0.07500
3568.17882,0.07386
3566.25007,0.07265
3564.32133,0.07160
3562.39258,0.07064
3560.46384,0.06980
3558.53509,0.06898
3556.60635,0.06771
3554.67760,0.06632
3552.74886,0.06563
3550.82011,0.06556
3548.89137,0.06534
3546.96262,0.06472
3545.03387,0.06397
3543.10513,0.06316
3541.17638,0.06222
3539.24764,0.06127
3537.31889,0.06050
3535.39015,0.06002
3533.46140,0.05975
3531.53266,0.05943
3529.60391,0.05893
3527.67517,0.05822
3525.74642,0.05738
3523.81768,0.05674
3521.88893,0.05625
3519.96019,0.05578
3518.03144,0.05551
3516.10270,0.05538
3514.17395,0.05506
3512.24520,0.05458
3510.31646,0.05417
3508.38771,0.05383
3506.45897,0.05362
3504.53022,0.05350
3502.60148,0.05310
3500.67273,0.05241
3498.74399,0.05181
3496.81524,0.05161
3494.88650,0.05169
3492.95775,0.05158
3491.02901,0.05115
3489.10026,0.05066
3487.17152,0.05040
3485.24277,0.05045
3483.31402,0.05050
3481.38528,0.05014
3479.45653,0.04964
3477.52779,0.04957
3475.59904,0.04980
3473.67030,0.04977
3471.74155,0.04941
3469.81281,0.04907
3467.88406,0.04896
3465.95532,0.04890
3464.02657,0.04870
3462.09783,0.04833
3460.16908,0.04790
3458.24034,0.04778
3456.31159,0.04803
3454.38285,0.04829
3452.45410,0.04827
3450.52535,0.04797
3448.59661,0.04770
3446.66786,0.04760
3444.73912,0.04760
3442.81037,0.04778
3440.88163,0.04822
3438.95288,0.04871
3437.02414,0.04886
3435.09539,0.04848
3433.16665,0.04799
3431.23790,0.04779
3429.30916,0.04778
3427.38041,0.04783
3425.45167,0.04800
3423.52292,0.04821
3421.59418,0.04833
3419.66543,0.04824
3417.73668,0.04798
3415.80794,0.04795
3413.87919,0.04841
3411.95045,0.04891
3410.02170,0.04908
3408.09296,0.04910
3406.16421,0.04910
3404.23547,0.04903
3402.30672,0.04899
3400.37798,0.04912
3398.44923,0.04921
3396.52049,0.04907
3394.59174,0.04897
3392.66300,0.04913
3390.73425,0.04944
3388.80550,0.04962
3386.87676,0.04961
3384.94801,0.04954
3383.01927,0.04951
3381.09052,0.04976
3379.16178,0.05008
3377.23303,0.05002
3375.30429,0.04994
3373.37554,0.05026
3371.44680,0.05069
3369.51805,0.05094
3367.58931,0.05116
3365.66056,0.05136
3363.73182,0.05140
3361.80307,0.05126
3359.87433,0.05105
3357.94558,0.05115
3356.01683,0.05140
3354.08809,0.05139
3352.15934,0.05137
3350.23060,0.05156
3348.30185,0.05185
3346.37311,0.05223
3344.44436,0.05264
3342.51562,0.05284
3340.58687,0.05288
3338.65813,0.05312
3336.72938,0.05375
3334.80064,0.05437
3332.87189,0.05444
3330.94315,0.05403
3329.01440,0.05384
3327.08566,0.05420
3325.15691,0.05470
3323.22816,0.05529
3321.29942,0.05589
3319.37067,0.05607
3317.44193,0.05594
3315.51318,0.05598
3313.58444,0.05616
3311.65569,0.05644
3309.72695,0.05688
3307.79820,0.05735
3305.86946,0.05774
3303.94071,0.05807
3302.01197,0.05837
3300.08322,0.05858
3298.15448,0.05848
3296.22573,0.05817
3294.29698,0.05809
3292.36824,0.05843
3290.43949,0.05902
3288.51075,0.05966
3286.58200,0.06010
3284.65326,0.06022
3282.72451,0.06031
3280.79577,0.06058
3278.86702,0.06094
3276.93828,0.06133
3275.00953,0.06178
3273.08079,0.06225
3271.15204,0.06289
3269.22330,0.06376
3267.29455,0.06445
3265.36581,0.06462
3263.43706,0.06454
3261.50831,0.06477
3259.57957,0.06523
3257.65082,0.06550
3255.72208,0.06568
3253.79333,0.06608
3251.86459,0.06669
3249.93584,0.06733
3248.00710,0.06780
3246.07835,0.06813
3244.14961,0.06848
3242.22086,0.06901
3240.29212,0.06979
3238.36337,0.07060
3236.43463,0.07095
3234.50588,0.07090
3232.57713,0.07101
3230.64839,0.07158
3228.71964,0.07226
3226.79090,0.07263
3224.86215,0.07285
3222.93341,0.07328
3221.00466,0.07390
3219.07592,0.07470
3217.14717,0.07563
3215.21843,0.07642
3213.28968,0.07702
3211.36094,0.07746
3209.43219,0.07778
3207.50345,0.07826
3205.57470,0.07894
3203.64596,0.07958
3201.71721,0.08017
3199.78846,0.08085
3197.85972,0.08150
3195.93097,0.08201
3194.00223,0.08239
3192.07348,0.08277
3190.14474,0.08331
3188.21599,0.08383
3186.28725,0.08424
3184.35850,0.08480
3182.42976,0.08558
3180.50101,0.08638
3178.57227,0.08710
3176.64352,0.08784
3174.71478,0.08860
3172.78603,0.08936
3170.85729,0.09027
3168.92854,0.09110
3166.99979,0.09145
3165.07105,0.09161
3163.14230,0.09215
3161.21356,0.09309
3159.28481,0.09427
3157.35607,0.09532
3155.42732,0.09582
3153.49858,0.09618
3151.56983,0.09699
3149.64109,0.09805
3147.71234,0.09910
3145.78360,0.10000
3143.85485,0.10059
3141.92611,0.10114
3139.99736,0.10184
3138.06861,0.10259
3136.13987,0.10343
3134.21112,0.10437
3132.28238,0.10533
3130.35363,0.10608
3128.42489,0.10651
3126.49614,0.10703
3124.56740,0.10783
3122.63865,0.10866
3120.70991,0.10937
3118.78116,0.11012
3116.85242,0.11100
3114.92367,0.11186
3112.99493,0.11263
3111.06618,0.11341
3109.13744,0.11431
3107.20869,0.11531
3105.27994,0.11609
3103.35120,0.11658
3101.42245,0.11709
3099.49371,0.11772
3097.56496,0.11839
3095.63622,0.11899
3093.70747,0.11943
3091.77873,0.11997
3089.84998,0.12066
3087.92124,0.12115
3085.99249,0.12163
3084.06375,0.12242
3082.13500,0.12330
3080.20626,0.12402
3078.27751,0.12463
3076.34877,0.12505
3074.42002,0.12538
3072.49127,0.12587
3070.56253,0.12654
3068.63378,0.12723
3066.70504,0.12785
3064.77629,0.12842
3062.84755,0.12915
3060.91880,0.13018
3058.99006,0.13109
3057.06131,0.13160
3055.13257,0.13206
3053.20382,0.13276
3051.27508,0.13355
3049.34633,0.13411
3047.41759,0.13453
3045.48884,0.13516
3043.56009,0.13591
3041.63135,0.13643
3039.70260,0.13662
3037.77386,0.13685
3035.84511,0.13725
3033.91637,0.13743
3031.98762,0.13741
3030.05888,0.13766
3028.13013,0.13811
3026.20139,0.13832
3024.27264,0.13810
3022.34390,0.13752
3020.41515,0.13686
3018.48641,0.13625
3016.55766,0.13559
3014.62892,0.13494
3012.70017,0.13432
3010.77142,0.13342
3008.84268,0.13239
3006.91393,0.13158
3004.98519,0.13077
3003.05644,0.12980
3001.12770,0.12899
2999.19895,0.12849
2997.27021,0.12798
2995.34146,0.12725
2993.41272,0.12635
2991.48397,0.12529
2989.55523,0.12403
2987.62648,0.12238
2985.69774,0.12042
2983.76899,0.11847
2981.84025,0.11649
2979.91150,0.11421
2977.98275,0.11156
2976.05401,0.10874
2974.12526,0.10606
2972.19652,0.10369
2970.26777,0.10162
2968.33903,0.09980
2966.41028,0.09812
2964.48154,0.09653
2962.55279,0.09522
2960.62405,0.09418
2958.69530,0.09293
2956.76656,0.09139
2954.83781,0.08991
2952.90907,0.08849
2950.98032,0.08694
2949.05157,0.08551
2947.12283,0.08448
2945.19408,0.08361
2943.26534,0.08262
2941.33659,0.08156
2939.40785,0.08081
2937.47910,0.08048
2935.55036,0.08042
2933.62161,0.08053
2931.69287,0.08070
2929.76412,0.08074
2927.83538,0.08066
2925.90663,0.08045
2923.97789,0.08010
2922.04914,0.07979
2920.12040,0.07978
2918.19165,0.07998
2916.26290,0.08009
2914.33416,0.08019
2912.40541,0.08043
2910.47667,0.08059
2908.54792,0.08048
2906.61918,0.08041
2904.69043,0.08050
2902.76169,0.08052
2900.83294,0.08059
2898.90420,0.08091
2896.97545,0.08130
2895.04671,0.08164
2893.11796,0.08207
2891.18922,0.08265
2889.26047,0.08319
2887.33172,0.08351
2885.40298,0.08371
2883.47423,0.08400
2881.54549,0.08441
2879.61674,0.08487
2877.68800,0.08535
2875.75925,0.08585
2873.83051,0.08640
2871.90176,0.08703
2869.97302,0.08776
2868.04427,0.08876
2866.11553,0.09003
2864.18678,0.09129
2862.25804,0.09230
2860.32929,0.09315
2858.40055,0.09408
2856.47180,0.09517
2854.54305,0.09639
2852.61431,0.09766
2850.68556,0.09890
2848.75682,0.10035
2846.82807,0.10214
2844.89933,0.10406
2842.97058,0.10591
2841.04184,0.10775
2839.11309,0.10977
2837.18435,0.11195
2835.25560,0.11425
2833.32686,0.11665
2831.39811,0.11907
2829.46937,0.12144
2827.54062,0.12385
2825.61188,0.12639
2823.68313,0.12893
2821.75438,0.13121
2819.82564,0.13324
2817.89689,0.13522
2815.96815,0.13702
2814.03940,0.13868
2812.11066,0.14057
2810.18191,0.14250
2808.25317,0.14403
2806.32442,0.14536
2804.39568,0.14692
2802.46693,0.14855
2800.53819,0.14998
2798.60944,0.15126
2796.68070,0.15245
2794.75195,0.15352
2792.82320,0.15451
2790.89446,0.15541
2788.96571,0.15620
2787.03697,0.15680
2785.10822,0.15724
2783.17948,0.15778
2781.25073,0.15854
2779.32199,0.15938
2777.39324,0.16017
2775.46450,0.16089
2773.53575,0.16143
2771.60701,0.16184
2769.67826,0.16235
2767.74952,0.16295
2765.82077,0.16344
2763.89203,0.16389
2761.96328,0.16439
2760.03453,0.16475
2758.10579,0.16492
2756.17704,0.16510
2754.24830,0.16527
2752.31955,0.16539
2750.39081,0.16559
2748.46206,0.16583
2746.53332,0.16593
2744.60457,0.16592
2742.67583,0.16601
2740.74708,0.16635
2738.81834,0.16674
2736.88959,0.16692
2734.96085,0.16715
2733.03210,0.16767
2731.10336,0.16829
2729.17461,0.16877
2727.24586,0.16918
2725.31712,0.16967
2723.38837,0.17015
2721.45963,0.17067
2719.53088,0.17140
2717.60214,0.17221
2715.67339,0.17294
2713.74465,0.17366
2711.81590,0.17432
2709.88716,0.17501
2707.95841,0.17595
2706.02967,0.17699
2704.10092,0.17792
2702.17218,0.17888
2700.24343,0.17992
2698.31468,0.18081
2696.38594,0.18156
2694.45719,0.18229
2692.52845,0.18300
2690.59970,0.18372
2688.67096,0.18450
2686.74221,0.18536
2684.81347,0.18611
2682.88472,0.18664
2680.95598,0.18722
2679.02723,0.18798
2677.09849,0.18878
2675.16974,0.18958
2673.24100,0.19030
2671.31225,0.19077
2669.38351,0.19122
2667.45476,0.19180
2665.52601,0.19233
2663.59727,0.19273
2661.66852,0.19321
2659.73978,0.19380
2657.81103,0.19426
2655.88229,0.19458
2653.95354,0.19504
2652.02480,0.19576
2650.09605,0.19643
2648.16731,0.19681
2646.23856,0.19719
2644.30982,0.19783
2642.38107,0.19862
2640.45233,0.19937
2638.52358,0.20000
2636.59484,0.20059
2634.66609,0.20121
2632.73734,0.20190
2630.80860,0.20265
2628.87985,0.20330
2626.95111,0.20382
2625.02236,0.20440
2623.09362,0.20523
2621.16487,0.20602
2619.23613,0.20642
2617.30738,0.20674
2615.37864,0.20737
2613.44989,0.20810
2611.52115,0.20868
2609.59240,0.20916
2607.66366,0.20972
2605.73491,0.21042
2603.80616,0.21105
2601.87742,0.21155
2599.94867,0.21208
2598.01993,0.21276
2596.09118,0.21345
2594.16244,0.21406
2592.23369,0.21467
2590.30495,0.21518
2588.37620,0.21546
2586.44746,0.21572
2584.51871,0.21602
2582.58997,0.21635
2580.66122,0.21681
2578.73248,0.21738
2576.80373,0.21787
2574.87499,0.21815
2572.94624,0.21838
2571.01749,0.21870
2569.08875,0.21897
2567.16000,0.21914
2565.23126,0.21940
2563.30251,0.21968
2561.37377,0.21984
2559.44502,0.21994
2557.51628,0.21999
2555.58753,0.22005
2553.65879,0.22027
2551.73004,0.22068
2549.80130,0.22101
2547.87255,0.22111
2545.94381,0.22118
2544.01506,0.22148
2542.08631,0.22186
2540.15757,0.22206
2538.22882,0.22228
2536.30008,0.22272
2534.37133,0.22329
2532.44259,0.22399
2530.51384,0.22473
2528.58510,0.22540
2526.65635,0.22599
2524.72761,0.22658
2522.79886,0.22720
2520.87012,0.22780
2518.94137,0.22828
2517.01263,0.22869
2515.08388,0.22925
2513.15514,0.22994
2511.22639,0.23064
2509.29764,0.23148
2507.36890,0.23266
2505.44015,0.23391
2503.51141,0.23492
2501.58266,0.23574
2499.65392,0.23655
2497.72517,0.23745
2495.79643,0.23845
2493.86768,0.23936
2491.93894,0.24019
2490.01019,0.24113
2488.08145,0.24217
2486.15270,0.24306
2484.22396,0.24370
2482.29521,0.24427
2480.36647,0.24501
2478.43772,0.24598
2476.50897,0.24695
2474.58023,0.24770
2472.65148,0.24836
2470.72274,0.24923
2468.79399,0.25018
2466.86525,0.25094
2464.93650,0.25156
2463.00776,0.25218
2461.07901,0.25299
2459.15027,0.25397
2457.22152,0.25480
2455.29278,0.25544
2453.36403,0.25619
2451.43529,0.25710
2449.50654,0.25799
2447.57779,0.25885
2445.64905,0.25975
2443.72030,0.26053
2441.79156,0.26124
2439.86281,0.26224
2437.93407,0.26351
2436.00532,0.26473
2434.07658,0.26577
2432.14783,0.26655
2430.21909,0.26731
2428.29034,0.26827
2426.36160,0.26933
2424.43285,0.27036
2422.50411,0.27140
2420.57536,0.27249
2418.64662,0.27361
2416.71787,0.27479
2414.78912,0.27603
2412.86038,0.27719
2410.93163,0.27809
2409.00289,0.27891
2407.07414,0.27993
2405.14540,0.28108
2403.21665,0.28217
2401.28791,0.28317
2399.35916,0.28407
2397.43042,0.28488
2395.50167,0.28575
2393.57293,0.28662
2391.64418,0.28741
2389.71544,0.28834
2387.78669,0.28953
2385.85795,0.29068
2383.92920,0.29153
2382.00045,0.29238
2380.07171,0.29339
2378.14296,0.29427
2376.21422,0.29499
2374.28547,0.29580
2372.35673,0.29667
2370.42798,0.29748
2368.49924,0.29823
2366.57049,0.29899
2364.64175,0.29984
2362.71300,0.30069
2360.78426,0.30128
2358.85551,0.30158
2356.92677,0.30188
2354.99802,0.30239
2353.06927,0.30296
2351.14053,0.30341
2349.21178,0.30382
2347.28304,0.30437
2345.35429,0.30512
2343.42555,0.30584
2341.49680,0.30622
2339.56806,0.30643
2337.63931,0.30686
2335.71057,0.30738
2333.78182,0.30773
2331.85308,0.30808
2329.92433,0.30842
2327.99559,0.30860
2326.06684,0.30882
2324.13810,0.30910
2322.20935,0.30933
2320.28060,0.30955
2318.35186,0.30972
2316.42311,0.30984
2314.49437,0.31000
2312.56562,0.31012
2310.63688,0.31011
2308.70813,0.31009
2306.77939,0.31005
2304.85064,0.30974
2302.92190,0.30925
2300.99315,0.30890
2299.06441,0.30880
2297.13566,0.30887
2295.20692,0.30889
2293.27817,0.30875
2291.34943,0.30852
2289.42068,0.30835
2287.49193,0.30824
2285.56319,0.30809
2283.63444,0.30793
2281.70570,0.30779
2279.77695,0.30764
2277.84821,0.30742
2275.91946,0.30710
2273.99072,0.30680
2272.06197,0.30649
2270.13323,0.30597
2268.20448,0.30522
2266.27574,0.30445
2264.34699,0.30383
2262.41825,0.30330
2260.48950,0.30278
2258.56075,0.30242
2256.63201,0.30219
2254.70326,0.30175
2252.77452,0.30100
2250.84577,0.30036
2248.91703,0.30010
2246.98828,0.30008
2245.05954,0.30004
2243.13079,0.29991
2241.20205,0.29973
2239.27330,0.29946
2237.34456,0.29907
2235.41581,0.29860
2233.48707,0.29814
2231.55832,0.29779
2229.62958,0.29755
2227.70083,0.29733
2225.77208,0.29708
2223.84334,0.29689
2221.91459,0.29684
2219.98585,0.29692
2218.05710,0.29701
2216.12836,0.29705
2214.19961,0.29700
2212.27087,0.29681
2210.34212,0.29639
2208.41338,0.29574
2206.48463,0.29509
2204.55589,0.29460
2202.62714,0.29402
2200.69840,0.29328
2198.76965,0.29265
2196.84090,0.29206
2194.91216,0.29119
2192.98341,0.29017
2191.05467,0.28929
2189.12592,0.28839
2187.19718,0.28726
2185.26843,0.28609
2183.33969,0.28493
2181.41094,0.28357
2179.48220,0.28215
2177.55345,0.28098
2175.62471,0.28007
2173.69596,0.27916
2171.76722,0.27811
2169.83847,0.27697
2167.90973,0.27573
2165.98098,0.27465
2164.05223,0.27392
2162.12349,0.27325
2160.19474,0.27241
2158.26600,0.27152
2156.33725,0.27080
2154.40851,0.27028
2152.47976,0.26975
2150.55102,0.26913
2148.62227,0.26862
2146.69353,0.26823
2144.76478,0.26775
2142.83604,0.26718
2140.90729,0.26676
2138.97855,0.26659
2137.04980,0.26654
2135.12106,0.26641
2133.19231,0.26627
2131.26356,0.26631
2129.33482,0.26637
2127.40607,0.26639
2125.47733,0.26651
2123.54858,0.26669
2121.61984,0.26692
2119.69109,0.26724
2117.76235,0.26744
2115.83360,0.26755
2113.90486,0.26786
2111.97611,0.26842
2110.04737,0.26901
2108.11862,0.26942
2106.18988,0.26957
2104.26113,0.26964
2102.33238,0.26986
2100.40364,0.27027
2098.47489,0.27062
2096.54615,0.27072
2094.61740,0.27072
2092.68866,0.27083
2090.75991,0.27097
2088.83117,0.27105
2086.90242,0.27110
2084.97368,0.27104
2083.04493,0.27077
2081.11619,0.27030
2079.18744,0.26969
2077.25870,0.26919
2075.32995,0.26887
2073.40121,0.26860
2071.47246,0.26824
2069.54371,0.26775
2067.61497,0.26715
2065.68622,0.26654
2063.75748,0.26605
2061.82873,0.26577
2059.89999,0.26563
2057.97124,0.26546
2056.04250,0.26529
2054.11375,0.26531
2052.18501,0.26557
2050.25626,0.26590
2048.32752,0.26629
2046.39877,0.26685
2044.47003,0.26760
2042.54128,0.26843
2040.61254,0.26923
2038.68379,0.26995
2036.75504,0.27058
2034.82630,0.27130
2032.89755,0.27225
2030.96881,0.27340
2029.04006,0.27467
2027.11132,0.27589
2025.18257,0.27700
2023.25383,0.27813
2021.32508,0.27923
2019.39634,0.28016
2017.46759,0.28110
2015.53885,0.28215
2013.61010,0.28310
2011.68136,0.28405
2009.75261,0.28511
2007.82386,0.28602
2005.89512,0.28668
2003.96637,0.28724
2002.03763,0.28784
2000.10888,0.28856
1998.18014,0.28938
1996.25139,0.29016
1994.32265,0.29084
1992.39390,0.29150
1990.46516,0.29211
1988.53641,0.29263
1986.60767,0.29317
1984.67892,0.29373
1982.75018,0.29435
1980.82143,0.29502
1978.89269,0.29562
1976.96394,0.29611
1975.03519,0.29667
1973.10645,0.29736
1971.17770,0.29804
1969.24896,0.29865
1967.32021,0.29919
1965.39147,0.29975
1963.46272,0.30043
1961.53398,0.30127
1959.60523,0.30215
1957.67649,0.30305
1955.74774,0.30399
1953.81900,0.30488
1951.89025,0.30577
1949.96151,0.30681
1948.03276,0.30783
1946.10402,0.30877
1944.17527,0.30980
1942.24652,0.31080
1940.31778,0.31164
1938.38903,0.31250
1936.46029,0.31335
1934.53154,0.31398
1932.60280,0.31449
1930.67405,0.31502
1928.74531,0.31549
1926.81656,0.31587
1924.88782,0.31635
1922.95907,0.31686
1921.03033,0.31711
1919.10158,0.31722
1917.17284,0.31734
1915.24409,0.31742
1913.31534,0.31745
1911.38660,0.31745
1909.45785,0.31740
1907.52911,0.31734
1905.60036,0.31725
1903.67162,0.31727
1901.74287,0.31741
1899.81413,0.31737
1897.88538,0.31710
1895.95664,0.31671
1894.02789,0.31627
1892.09915,0.31599
1890.17040,0.31590
1888.24166,0.31576
1886.31291,0.31557
1884.38417,0.31542
1882.45542,0.31523
1880.52667,0.31507
1878.59793,0.31502
1876.66918,0.31493
1874.74044,0.31465
1872.81169,0.31434
1870.88295,0.31429
1868.95420,0.31425
1867.02546,0.31387
1865.09671,0.31329
1863.16797,0.31276
1861.23922,0.31234
1859.31048,0.31194
1857.38173,0.31143
1855.45299,0.31074
1853.52424,0.31000
1851.59549,0.30929
1849.66675,0.30866
1847.73800,0.30819
1845.80926,0.30770
1843.88051,0.30675
1841.95177,0.30541
1840.02302,0.30422
1838.09428,0.30321
1836.16553,0.30220
1834.23679,0.30116
1832.30804,0.30014
1830.37930,0.29900
1828.45055,0.29758
1826.52181,0.29594
1824.59306,0.29407
1822.66432,0.29205
1820.73557,0.28992
1818.80682,0.28761
1816.87808,0.28516
1814.94933,0.28266
1813.02059,0.27998
1811.09184,0.27692
1809.16310,0.27365
1807.23435,0.27047
1805.30561,0.26737
1803.37686,0.26427
1801.44812,0.26096
1799.51937,0.25729
1797.59063,0.25341
1795.66188,0.24958
1793.73314,0.24541
1791.80439,0.24039
1789.87565,0.23539
1787.94690,0.23092
1786.01815,0.22627
1784.08941,0.22110
1782.16066,0.21569
1780.23192,0.20986
1778.30317,0.20365
1776.37443,0.19758
1774.44568,0.19128
1772.51694,0.18365
1770.58819,0.17507
1768.65945,0.16667
1766.73070,0.15836
1764.80196,0.15055
1762.87321,0.14270
1760.94447,0.13448
1759.01572,0.12713
1757.08697,0.12045
1755.15823,0.11437
1753.22948,0.10946
1751.30074,0.10517
1749.37199,0.10113
1747.44325,0.09779
1745.51450,0.09534
1743.58576,0.09361
1741.65701,0.09242
1739.72827,0.09156
1737.79952,0.09113
1735.87078,0.09120
1733.94203,0.09161
1732.01329,0.09215
1730.08454,0.09267
1728.15580,0.09320
1726.22705,0.09394
1724.29830,0.09523
1722.36956,0.09692
1720.44081,0.09868
1718.51207,0.10071
1716.58332,0.10312
1714.65458,0.10537
1712.72583,0.10742
1710.79709,0.10940
1708.86834,0.11134
1706.93960,0.11337
1705.01085,0.11528
1703.08211,0.11664
1701.15336,0.11770
1699.22462,0.11835
1697.29587,0.11826
1695.36713,0.11743
1693.43838,0.11623
1691.50963,0.11510
1689.58089,0.11407
1687.65214,0.11321
1685.72340,0.11196
1683.79465,0.10935
1681.86591,0.10645
1679.93716,0.10422
1678.00842,0.10225
1676.07967,0.10022
1674.15093,0.09818
1672.22218,0.09657
1670.29344,0.09507
1668.36469,0.09325
1666.43595,0.09182
1664.50720,0.09106
1662.57845,0.09065
1660.64971,0.09045
1658.72096,0.09044
1656.79222,0.09065
1654.86347,0.09114
1652.93473,0.09172
1651.00598,0.09204
1649.07724,0.09229
1647.14849,0.09231
1645.21975,0.09208
1643.29100,0.09206
1641.36226,0.09221
1639.43351,0.09238
1637.50477,0.09251
1635.57602,0.09258
1633.64728,0.09254
1631.71853,0.09258
1629.78978,0.09269
1627.86104,0.09267
1625.93229,0.09260
1624.00355,0.09249
1622.07480,0.09219
1620.14606,0.09195
1618.21731,0.09177
1616.28857,0.09119
1614.35982,0.09012
1612.43108,0.08907
1610.50233,0.08805
1608.57359,0.08698
1606.64484,0.08613
1604.71610,0.08580
1602.78735,0.08594
1600.85861,0.08626
1598.92986,0.08653
1597.00111,0.08658
1595.07237,0.08657
1593.14362,0.08688
1591.21488,0.08776
1589.28613,0.08936
1587.35739,0.09168
1585.42864,0.09443
1583.49990,0.09738
1581.57115,0.10077
1579.64241,0.10473
1577.71366,0.10958
1575.78492,0.11559
1573.85617,0.12099
1571.92743,0.12548
1569.99868,0.13022
1568.06993,0.13448
1566.14119,0.13743
1564.21244,0.13964
1562.28370,0.14149
1560.35495,0.14346
1558.42621,0.14507
1556.49746,0.14514
1554.56872,0.14477
1552.63997,0.14441
1550.71123,0.14381
1548.78248,0.14289
1546.85374,0.14185
1544.92499,0.14066
1542.99625,0.13901
1541.06750,0.13649
1539.13876,0.13256
1537.21001,0.12891
1535.28126,0.12550
1533.35252,0.12055
1531.42377,0.11459
1529.49503,0.10894
1527.56628,0.10278
1525.63754,0.09584
1523.70879,0.08889
1521.78005,0.08118
1519.85130,0.07363
1517.92256,0.06828
1515.99381,0.06451
1514.06507,0.06208
1512.13632,0.06108
1510.20758,0.06115
1508.27883,0.06217
1506.35008,0.06419
1504.42134,0.06653
1502.49259,0.06899
1500.56385,0.07186
1498.63510,0.07498
1496.70636,0.07800
1494.77761,0.08046
1492.84887,0.08224
1490.92012,0.08354
1488.99138,0.08412
1487.06263,0.08374
1485.13389,0.08282
1483.20514,0.08164
1481.27640,0.08022
1479.34765,0.07856
1477.41891,0.07648
1475.49016,0.07386
1473.56141,0.07079
1471.63267,0.06742
1469.70392,0.06469
1467.77518,0.06297
1465.84643,0.06198
1463.91769,0.06163
1461.98894,0.06171
1460.06020,0.06186
1458.13145,0.06178
1456.20271,0.06134
1454.27396,0.06104
1452.34522,0.06109
1450.41647,0.06141
1448.48773,0.06196
1446.55898,0.06257
1444.63024,0.06309
1442.70149,0.06337
1440.77274,0.06313
1438.84400,0.06226
1436.91525,0.06072
1434.98651,0.05920
1433.05776,0.05837
1431.12902,0.05796
1429.20027,0.05780
1427.27153,0.05784
1425.34278,0.05804
1423.41404,0.05845
1421.48529,0.05916
1419.55655,0.06018
1417.62780,0.06122
1415.69906,0.06209
1413.77031,0.06298
1411.84156,0.06385
1409.91282,0.06462
1407.98407,0.06530
1406.05533,0.06576
1404.12658,0.06586
1402.19784,0.06566
1400.26909,0.06533
1398.34035,0.06497
1396.41160,0.06459
1394.48286,0.06397
1392.55411,0.06312
1390.62537,0.06221
1388.69662,0.06105
1386.76788,0.05964
1384.83913,0.05844
1382.91039,0.05741
1380.98164,0.05644
1379.05289,0.05589
1377.12415,0.05589
1375.19540,0.05609
1373.26666,0.05625
1371.33791,0.05650
1369.40917,0.05700
1367.48042,0.05757
1365.55168,0.05810
1363.62293,0.05877
1361.69419,0.05952
1359.76544,0.06001
1357.83670,0.06030
1355.90795,0.06059
1353.97921,0.06091
1352.05046,0.06126
1350.12172,0.06153
1348.19297,0.06144
1346.26422,0.06095
1344.33548,0.06046
1342.40673,0.06028
1340.47799,0.06017
1338.54924,0.05975
1336.62050,0.05925
1334.69175,0.05903
1332.76301,0.05900
1330.83426,0.05904
1328.90552,0.05904
1326.97677,0.05891
1325.04803,0.05865
1323.11928,0.05825
1321.19054,0.05791
1319.26179,0.05793
1317.33304,0.05822
1315.40430,0.05854
1313.47555,0.05895
1311.54681,0.05949
1309.61806,0.05998
1307.68932,0.06027
1305.76057,0.06039
1303.83183,0.06050
1301.90308,0.06058
1299.97434,0.06038
1298.04559,0.05976
1296.11685,0.05899
1294.18810,0.05829
1292.25936,0.05757
1290.33061,0.05671
1288.40187,0.05565
1286.47312,0.05445
1284.54437,0.05331
1282.61563,0.05242
1280.68688,0.05192
1278.75814,0.05173
1276.82939,0.05140
1274.90065,0.05099
1272.97190,0.05100
1271.04316,0.05142
1269.11441,0.05186
1267.18567,0.05229
1265.25692,0.05288
1263.32818,0.05353
1261.39943,0.05406
1259.47069,0.05453
1257.54194,0.05507
1255.61320,0.05564
1253.68445,0.05609
1251.75570,0.05639
1249.82696,0.05655
1247.89821,0.05659
1245.96947,0.05650
1244.04072,0.05631
1242.11198,0.05620
1240.18323,0.05609
1238.25449,0.05594
1236.32574,0.05584
1234.39700,0.05568
1232.46825,0.05536
1230.53951,0.05527
1228.61076,0.05552
1226.68202,0.05589
1224.75327,0.05630
1222.82452,0.05670
1220.89578,0.05695
1218.96703,0.05700
1217.03829,0.05697
1215.10954,0.05702
1213.18080,0.05706
1211.25205,0.05703
1209.32331,0.05714
1207.39456,0.05743
1205.46582,0.05774
1203.53707,0.05802
1201.60833,0.05824
1199.67958,0.05838
1197.75084,0.05849
1195.82209,0.05847
1193.89335,0.05827
1191.96460,0.05794
1190.03585,0.05733
1188.10711,0.05625
1186.17836,0.05482
1184.24962,0.05340
1182.32087,0.05217
1180.39213,0.05101
1178.46338,0.04977
1176.53464,0.04840
1174.60589,0.04709
1172.67715,0.04619
1170.74840,0.04590
1168.81966,0.04620
1166.89091,0.04712
1164.96217,0.04841
1163.03342,0.04942
1161.10467,0.04992
1159.17593,0.05023
1157.24718,0.05053
1155.31844,0.05065
1153.38969,0.05048
1151.46095,0.05010
1149.53220,0.04977
1147.60346,0.04942
1145.67471,0.04888
1143.74597,0.04816
1141.81722,0.04730
1139.88848,0.04645
1137.95973,0.04588
1136.03099,0.04536
1134.10224,0.04465
1132.17350,0.04396
1130.24475,0.04357
1128.31600,0.04358
1126.38726,0.04381
1124.45851,0.04401
1122.52977,0.04426
1120.60102,0.04470
1118.67228,0.04519
1116.74353,0.04561
1114.81479,0.04614
1112.88604,0.04679
1110.95730,0.04743
1109.02855,0.04811
1107.09981,0.04885
1105.17106,0.04949
1103.24232,0.04991
1101.31357,0.05006
1099.38483,0.04999
1097.45608,0.04985
1095.52733,0.04977
1093.59859,0.04975
1091.66984,0.04975
1089.74110,0.04974
1087.81235,0.04993
1085.88361,0.05040
1083.95486,0.05094
1082.02612,0.05153
1080.09737,0.05243
1078.16863,0.05384
1076.23988,0.05570
1074.31114,0.05773
1072.38239,0.05951
1070.45365,0.06092
1068.52490,0.06228
1066.59615,0.06396
1064.66741,0.06625
1062.73866,0.06912
1060.80992,0.07191
1058.88117,0.07401
1056.95243,0.07543
1055.02368,0.07608
1053.09494,0.07575
1051.16619,0.07491
1049.23745,0.07417
1047.30870,0.07356
1045.37996,0.07292
1043.45121,0.07260
1041.52247,0.07311
1039.59372,0.07448
1037.66498,0.07630
1035.73623,0.07827
1033.80748,0.08013
1031.87874,0.08151
1029.94999,0.08242
1028.02125,0.08322
1026.09250,0.08399
1024.16376,0.08468
1022.23501,0.08531
1020.30627,0.08593
1018.37752,0.08654
1016.44878,0.08715
1014.52003,0.08776
1012.59129,0.08828
1010.66254,0.08843
1008.73380,0.08824
1006.80505,0.08818
1004.87631,0.08854
1002.94756,0.08919
1001.01881,0.08998
999.09007,0.09070
997.16132,0.09133
995.23258,0.09216
993.30383,0.09319
991.37509,0.09420
989.44634,0.09544
987.51760,0.09718
985.58885,0.09943
983.66011,0.10199
981.73136,0.10443
979.80262,0.10622
977.87387,0.10736
975.94513,0.10824
974.01638,0.10899
972.08763,0.10967
970.15889,0.11040
968.23014,0.11109
966.30140,0.11166
964.37265,0.11252
962.44391,0.11399
960.51516,0.11560
958.58642,0.11688
956.65767,0.11821
954.72893,0.11982
952.80018,0.12128
950.87144,0.12249
948.94269,0.12366
947.01395,0.12455
945.08520,0.12503
943.15646,0.12562
941.22771,0.12657
939.29896,0.12746
937.37022,0.12811
935.44147,0.12872
933.51273,0.12932
931.58398,0.12994
929.65524,0.13048
927.72649,0.13075
925.79775,0.13083
923.86900,0.13092
921.94026,0.13077
920.01151,0.12996
918.08277,0.12873
916.15402,0.12751
914.22528,0.12614
912.29653,0.12425
910.36779,0.12197
908.43904,0.11949
906.51029,0.11681
904.58155,0.11434
902.65280,0.11255
900.72406,0.11132
898.79531,0.11060
896.86657,0.11068
894.93782,0.11144
893.00908,0.11256
891.08033,0.11396
889.15159,0.11536
887.22284,0.11636
885.29410,0.11707
883.36535,0.11771
881.43661,0.11835
879.50786,0.11887
877.57911,0.11913
875.65037,0.11915
873.72162,0.11907
871.79288,0.11916
869.86413,0.11974
867.93539,0.12048
866.00664,0.12096
864.07790,0.12134
862.14915,0.12186
860.22041,0.12256
858.29166,0.12342
856.36292,0.12449
854.43417,0.12558
852.50543,0.12639
850.57668,0.12713
848.64794,0.12804
846.71919,0.12894
844.79044,0.12960
842.86170,0.12977
840.93295,0.12936
839.00421,0.12863
837.07546,0.12757
835.14672,0.12619
833.21797,0.12465
831.28923,0.12303
829.36048,0.12131
827.43174,0.11946
825.50299,0.11749
823.57425,0.11535
821.64550,0.11295
819.71676,0.11067
817.78801,0.10933
815.85926,0.10892
813.93052,0.10863
812.00177,0.10808
810.07303,0.10755
808.14428,0.10762
806.21554,0.10840
804.28679,0.10915
802.35805,0.10955
800.42930,0.11011
798.50056,0.11119
796.57181,0.11226
794.64307,0.11250
792.71432,0.11213
790.78558,0.11194
788.85683,0.11186
786.92809,0.11134
784.99934,0.11039
783.07059,0.10940
781.14185,0.10842
779.21310,0.10735
777.28436,0.10621
775.35561,0.10508
773.42687,0.10417
771.49812,0.10354
769.56938,0.10293
767.64063,0.10234
765.71189,0.10202
763.78314,0.10192
761.85440,0.10169
759.92565,0.10110
757.99691,0.10030
756.06816,0.09967
754.13942,0.09923
752.21067,0.09883
750.28192,0.09853
748.35318,0.09803
746.42443,0.09700
744.49569,0.09610
742.56694,0.09571
740.63820,0.09520
738.70945,0.09422
736.78071,0.09316
734.85196,0.09215
732.92322,0.09110
730.99447,0.09044
729.06573,0.09041
727.13698,0.09039
725.20824,0.08968
723.27949,0.08862
721.35074,0.08803
719.42200,0.08768
717.49325,0.08685
715.56451,0.08583
713.63576,0.08532
711.70702,0.08512
709.77827,0.08488
707.84953,0.08470
705.92078,0.08443
703.99204,0.08383
702.06329,0.08319
700.13455,0.08313
698.20580,0.08350
696.27706,0.08331
694.34831,0.08215
692.41957,0.08065
690.49082,0.07984
688.56207,0.07970
686.63333,0.07950
684.70458,0.07892
682.77584,0.07796
680.84709,0.07670
678.91835,0.07528
676.98960,0.07403
675.06086,0.07335
673.13211,0.07328
671.20337,0.07363
669.27462,0.07427
667.34588,0.07454
665.41713,0.07420
663.48839,0.07418
661.55964,0.07492
659.63090,0.07605
657.70215,0.07678
655.77340,0.07643
653.84466,0.07543
651.91591,0.07453
649.98717,0.07417
648.05842,0.07444
646.12968,0.07449
644.20093,0.07387
642.27219,0.07344
640.34344,0.07344
638.41470,0.07319
636.48595,0.07275
634.55721,0.07226
632.62846,0.07172
630.69972,0.07149
628.77097,0.07137
626.84222,0.07092
624.91348,0.07083
622.98473,0.07172
621.05599,0.07244
619.12724,0.07233
617.19850,0.07216
615.26975,0.07254
613.34101,0.07343
611.41226,0.07422
609.48352,0.07450
607.55477,0.07457
605.62603,0.07538
603.69728,0.07703
601.76854,0.07807
599.83979,0.07811
