7497.03301,0.80091
7495.10426,0.80631
7493.17552,0.81541
7491.24677,0.81603
7489.31803,0.80804
7487.38928,0.79969
7485.46054,0.79412
7483.53179,0.79276
7481.60305,0.79334
7479.67430,0.79180
7477.74556,0.78808
7475.81681,0.78615
7473.88807,0.78947
7471.95932,0.79195
7470.03057,0.78974
7468.10183,0.79093
7466.17308,0.79794
7464.24434,0.80347
7462.31559,0.80162
7460.38685,0.79317
7458.45810,0.78511
7456.52936,0.78298
7454.60061,0.78645
7452.67187,0.79214
7450.74312,0.79447
7448.81438,0.79328
7446.88563,0.79488
7444.95689,0.79730
7443.02814,0.79737
7441.09940,0.79981
7439.17065,0.80301
7437.24190,0.80000
7435.31316,0.79207
7433.38441,0.78913
7431.45567,0.79553
7429.52692,0.80224
7427.59818,0.80107
7425.66943,0.79568
7423.74069,0.79278
7421.81194,0.79380
7419.88320,0.79577
7417.95445,0.79337
7416.02571,0.78628
7414.09696,0.78178
7412.16822,0.78314
7410.23947,0.78669
7408.31073,0.78945
7406.38198,0.79218
7404.45323,0.79309
7402.52449,0.78779
7400.59574,0.78244
7398.66700,0.78374
7396.73825,0.78279
7394.80951,0.77566
7392.88076,0.77246
7390.95202,0.77572
7389.02327,0.78003
7387.09453,0.78221
7385.16578,0.78024
7383.23704,0.77616
7381.30829,0.77558
7379.37955,0.77880
7377.45080,0.78082
7375.52205,0.78026
7373.59331,0.77990
7371.66456,0.78198
7369.73582,0.78829
7367.80707,0.79470
7365.87833,0.79238
7363.94958,0.78542
7362.02084,0.78384
7360.09209,0.78382
7358.16335,0.78010
7356.23460,0.77689
7354.30586,0.77556
7352.37711,0.77443
7350.44837,0.77487
7348.51962,0.77443
7346.59088,0.77008
7344.66213,0.76814
7342.73338,0.77139
7340.80464,0.77342
7338.87589,0.77334
7336.94715,0.77447
7335.01840,0.77637
7333.08966,0.77718
7331.16091,0.77517
7329.23217,0.77150
7327.30342,0.76920
7325.37468,0.76844
7323.44593,0.76784
7321.51719,0.76635
7319.58844,0.76385
7317.65970,0.76461
7315.73095,0.76971
7313.80221,0.77213
7311.87346,0.76840
7309.94471,0.76166
7308.01597,0.75807
7306.08722,0.76166
7304.15848,0.76784
7302.22973,0.77259
7300.30099,0.77643
7298.37224,0.77724
7296.44350,0.77465
7294.51475,0.77332
7292.58601,0.77377
7290.65726,0.77158
7288.72852,0.76815
7286.79977,0.76853
7284.87103,0.77253
7282.94228,0.77525
7281.01353,0.77307
7279.08479,0.76840
7277.15604,0.76526
7275.22730,0.76338
7273.29855,0.76377
7271.36981,0.76799
7269.44106,0.77007
7267.51232,0.76610
7265.58357,0.76271
7263.65483,0.76281
7261.72608,0.76247
7259.79734,0.76343
7257.86859,0.76779
7255.93985,0.77090
7254.01110,0.77102
7252.08236,0.77052
7250.15361,0.76942
7248.22486,0.76668
7246.29612,0.76251
7244.36737,0.76103
7242.43863,0.76618
7240.50988,0.77277
7238.58114,0.77301
7236.65239,0.76764
7234.72365,0.76238
7232.79490,0.76169
7230.86616,0.76485
7228.93741,0.76559
7227.00867,0.76254
7225.07992,0.76114
7223.15118,0.76303
7221.22243,0.76579
7219.29369,0.76747
7217.36494,0.76511
7215.43619,0.75997
7213.50745,0.75863
7211.57870,0.76189
7209.64996,0.76575
7207.72121,0.76856
7205.79247,0.76742
7203.86372,0.76110
7201.93498,0.75573
7200.00623,0.75576
7198.07749,0.75633
7196.14874,0.75296
7194.22000,0.75026
7192.29125,0.75230
7190.36251,0.75804
7188.43376,0.76380
7186.50501,0.76300
7184.57627,0.75571
7182.64752,0.75038
7180.71878,0.75189
7178.79003,0.75761
7176.86129,0.76251
7174.93254,0.76262
7173.00380,0.75687
7171.07505,0.74946
7169.14631,0.74782
7167.21756,0.75355
7165.28882,0.75767
7163.36007,0.75555
7161.43133,0.75349
7159.50258,0.75354
7157.57384,0.75177
7155.64509,0.74726
7153.71634,0.74295
7151.78760,0.74269
7149.85885,0.74541
7147.93011,0.74661
7146.00136,0.74579
7144.07262,0.74604
7142.14387,0.74657
7140.21513,0.74390
7138.28638,0.74122
7136.35764,0.74257
7134.42889,0.74318
7132.50015,0.73976
7130.57140,0.73825
7128.64266,0.74137
7126.71391,0.74211
7124.78516,0.73789
7122.85642,0.73345
7120.92767,0.72972
7118.99893,0.72704
7117.07018,0.72763
7115.14144,0.72880
7113.21269,0.72733
7111.28395,0.72594
7109.35520,0.72676
7107.42646,0.72576
7105.49771,0.72088
7103.56897,0.71657
7101.64022,0.71544
7099.71148,0.71494
7097.78273,0.71274
7095.85399,0.71064
7093.92524,0.71091
7091.99649,0.71235
7090.06775,0.71307
7088.13900,0.71144
7086.21026,0.70919
7084.28151,0.71039
7082.35277,0.71126
7080.42402,0.70742
7078.49528,0.70412
7076.56653,0.70435
7074.63779,0.70573
7072.70904,0.70734
7070.78030,0.70681
7068.85155,0.70150
7066.92281,0.69397
7064.99406,0.68953
7063.06532,0.68955
7061.13657,0.69024
7059.20782,0.68948
7057.27908,0.68883
7055.35033,0.68861
7053.42159,0.68733
7051.49284,0.68552
7049.56410,0.68461
7047.63535,0.68242
7045.70661,0.67719
7043.77786,0.67221
7041.84912,0.66947
7039.92037,0.66786
7037.99163,0.66809
7036.06288,0.66909
7034.13414,0.66821
7032.20539,0.66713
7030.27664,0.66651
7028.34790,0.66448
7026.41915,0.66241
7024.49041,0.66264
7022.56166,0.66375
7020.63292,0.66178
7018.70417,0.65850
7016.77543,0.65886
7014.84668,0.65953
7012.91794,0.65648
7010.98919,0.65351
7009.06045,0.65247
7007.13170,0.65145
7005.20296,0.65087
7003.27421,0.64972
7001.34547,0.64637
6999.41672,0.64334
6997.48797,0.64306
6995.55923,0.64466
6993.63048,0.64519
6991.70174,0.64307
6989.77299,0.63955
6987.84425,0.63727
6985.91550,0.63815
6983.98676,0.64024
6982.05801,0.64038
6980.12927,0.63883
6978.20052,0.63752
6976.27178,0.63653
6974.34303,0.63571
6972.41429,0.63640
6970.48554,0.63717
6968.55680,0.63654
6966.62805,0.63769
6964.69930,0.64153
6962.77056,0.64322
6960.84181,0.64075
6958.91307,0.63825
6956.98432,0.63655
6955.05558,0.63267
6953.12683,0.62999
6951.19809,0.63246
6949.26934,0.63519
6947.34060,0.63473
6945.41185,0.63530
6943.48311,0.63700
6941.55436,0.63540
6939.62562,0.63312
6937.69687,0.63440
6935.76812,0.63522
6933.83938,0.63379
6931.91063,0.63452
6929.98189,0.63578
6928.05314,0.63456
6926.12440,0.63319
6924.19565,0.63292
6922.26691,0.63256
6920.33816,0.63081
6918.40942,0.62808
6916.48067,0.62729
6914.55193,0.63030
6912.62318,0.63474
6910.69444,0.63620
6908.76569,0.63444
6906.83695,0.63256
6904.90820,0.63172
6902.97945,0.63185
6901.05071,0.63320
6899.12196,0.63389
6897.19322,0.63233
6895.26447,0.63152
6893.33573,0.63280
6891.40698,0.63269
6889.47824,0.63080
6887.54949,0.62961
6885.62075,0.62925
6883.69200,0.62922
6881.76326,0.62926
6879.83451,0.62994
6877.90577,0.63220
6875.97702,0.63413
6874.04828,0.63367
6872.11953,0.63112
6870.19078,0.62797
6868.26204,0.62705
6866.33329,0.62935
6864.40455,0.63166
6862.47580,0.63071
6860.54706,0.62827
6858.61831,0.62805
6856.68957,0.62956
6854.76082,0.63057
6852.83208,0.63049
6850.90333,0.62886
6848.97459,0.62576
6847.04584,0.62289
6845.11710,0.62284
6843.18835,0.62658
6841.25960,0.63128
6839.33086,0.63298
6837.40211,0.63194
6835.47337,0.63088
6833.54462,0.62909
6831.61588,0.62528
6829.68713,0.62313
6827.75839,0.62527
6825.82964,0.62906
6823.90090,0.63254
6821.97215,0.63506
6820.04341,0.63615
6818.11466,0.63726
6816.18592,0.63737
6814.25717,0.63387
6812.32843,0.62966
6810.39968,0.62818
6808.47093,0.62790
6806.54219,0.62732
6804.61344,0.62657
6802.68470,0.62635
6800.75595,0.62693
6798.82721,0.62700
6796.89846,0.62771
6794.96972,0.63009
6793.04097,0.63082
6791.11223,0.62964
6789.18348,0.62984
6787.25474,0.63010
6785.32599,0.62844
6783.39725,0.62736
6781.46850,0.62694
6779.53975,0.62555
6777.61101,0.62584
6775.68226,0.62936
6773.75352,0.63258
6771.82477,0.63209
6769.89603,0.63083
6767.96728,0.63183
6766.03854,0.63223
6764.10979,0.63106
6762.18105,0.63012
6760.25230,0.63027
6758.32356,0.63112
6756.39481,0.63102
6754.46607,0.63109
6752.53732,0.63273
6750.60858,0.63389
6748.67983,0.63390
6746.75108,0.63340
6744.82234,0.63191
6742.89359,0.63076
6740.96485,0.63210
6739.03610,0.63355
6737.10736,0.63251
6735.17861,0.63202
6733.24987,0.63503
6731.32112,0.63921
6729.39238,0.64002
6727.46363,0.63646
6725.53489,0.63236
6723.60614,0.63218
6721.67740,0.63586
6719.74865,0.63794
6717.81991,0.63602
6715.89116,0.63443
6713.96241,0.63466
6712.03367,0.63400
6710.10492,0.63271
6708.17618,0.63341
6706.24743,0.63553
6704.31869,0.63666
6702.38994,0.63854
6700.46120,0.64289
6698.53245,0.64549
6696.60371,0.64398
6694.67496,0.64163
6692.74622,0.64013
6690.81747,0.63901
6688.88873,0.63882
6686.95998,0.64026
6685.03123,0.64171
6683.10249,0.64064
6681.17374,0.63884
6679.24500,0.63975
6677.31625,0.64235
6675.38751,0.64333
6673.45876,0.64192
6671.53002,0.63996
6669.60127,0.63977
6667.67253,0.64220
6665.74378,0.64457
6663.81504,0.64504
6661.88629,0.64493
6659.95755,0.64406
6658.02880,0.64297
6656.10006,0.64413
6654.17131,0.64613
6652.24256,0.64503
6650.31382,0.64187
6648.38507,0.64142
6646.45633,0.64404
6644.52758,0.64629
6642.59884,0.64684
6640.67009,0.64704
6638.74135,0.64727
6636.81260,0.64716
6634.88386,0.64815
6632.95511,0.64941
6631.02637,0.64792
6629.09762,0.64574
6627.16888,0.64683
6625.24013,0.64976
6623.31139,0.65165
6621.38264,0.65184
6619.45389,0.65019
6617.52515,0.64885
6615.59640,0.64960
6613.66766,0.65059
6611.73891,0.65122
6609.81017,0.65197
6607.88142,0.65117
6605.95268,0.64881
6604.02393,0.64875
6602.09519,0.65231
6600.16644,0.65488
6598.23770,0.65391
6596.30895,0.65298
6594.38021,0.65445
6592.45146,0.65649
6590.52271,0.65774
6588.59397,0.65777
6586.66522,0.65504
6584.73648,0.65135
6582.80773,0.65096
6580.87899,0.65256
6578.95024,0.65421
6577.02150,0.65712
6575.09275,0.65887
6573.16401,0.65826
6571.23526,0.65806
6569.30652,0.65778
6567.37777,0.65744
6565.44903,0.65964
6563.52028,0.66187
6561.59154,0.65967
6559.66279,0.65529
6557.73404,0.65450
6555.80530,0.65781
6553.87655,0.65985
6551.94781,0.65856
6550.01906,0.65750
6548.09032,0.65676
6546.16157,0.65491
6544.23283,0.65544
6542.30408,0.65899
6540.37534,0.66043
6538.44659,0.65822
6536.51785,0.65663
6534.58910,0.65792
6532.66036,0.66067
6530.73161,0.66293
6528.80287,0.66241
6526.87412,0.65976
6524.94537,0.65830
6523.01663,0.65873
6521.08788,0.65948
6519.15914,0.65965
6517.23039,0.65957
6515.30165,0.65898
6513.37290,0.65824
6511.44416,0.65825
6509.51541,0.65793
6507.58667,0.65772
6505.65792,0.65845
6503.72918,0.65898
6501.80043,0.65894
6499.87169,0.65895
6497.94294,0.65982
6496.01419,0.66094
6494.08545,0.66176
6492.15670,0.66316
6490.22796,0.66415
6488.29921,0.66321
6486.37047,0.66141
6484.44172,0.66054
6482.51298,0.66072
6480.58423,0.66108
6478.65549,0.66077
6476.72674,0.66045
6474.79800,0.66207
6472.86925,0.66414
6470.94051,0.66424
6469.01176,0.66356
6467.08302,0.66280
6465.15427,0.66076
6463.22552,0.65921
6461.29678,0.66050
6459.36803,0.66234
6457.43929,0.66258
6455.51054,0.66229
6453.58180,0.66239
6451.65305,0.66283
6449.72431,0.66288
6447.79556,0.66260
6445.86682,0.66337
6443.93807,0.66474
6442.00933,0.66402
6440.08058,0.66245
6438.15184,0.66372
6436.22309,0.66568
6434.29434,0.66522
6432.36560,0.66423
6430.43685,0.66445
6428.50811,0.66529
6426.57936,0.66558
6424.65062,0.66439
6422.72187,0.66312
6420.79313,0.66454
6418.86438,0.66703
6416.93564,0.66658
6415.00689,0.66424
6413.07815,0.66368
6411.14940,0.66540
6409.22066,0.66742
6407.29191,0.66951
6405.36317,0.67095
6403.43442,0.66943
6401.50567,0.66736
6399.57693,0.66798
6397.64818,0.66942
6395.71944,0.66950
6393.79069,0.66868
6391.86195,0.66840
6389.93320,0.66912
6388.00446,0.67041
6386.07571,0.67111
6384.14697,0.66958
6382.21822,0.66663
6380.28948,0.66433
6378.36073,0.66328
6376.43199,0.66343
6374.50324,0.66518
6372.57450,0.66917
6370.64575,0.67309
6368.71700,0.67346
6366.78826,0.67219
6364.85951,0.67246
6362.93077,0.67304
6361.00202,0.67268
6359.07328,0.67296
6357.14453,0.67457
6355.21579,0.67563
6353.28704,0.67487
6351.35830,0.67355
6349.42955,0.67273
6347.50081,0.67188
6345.57206,0.67065
6343.64332,0.66987
6341.71457,0.67028
6339.78582,0.67149
6337.85708,0.67302
6335.92833,0.67499
6333.99959,0.67577
6332.07084,0.67416
6330.14210,0.67248
6328.21335,0.67229
6326.28461,0.67290
6324.35586,0.67427
6322.42712,0.67584
6320.49837,0.67639
6318.56963,0.67618
6316.64088,0.67581
6314.71214,0.67497
6312.78339,0.67300
6310.85465,0.67071
6308.92590,0.67050
6306.99715,0.67339
6305.06841,0.67744
6303.13966,0.67951
6301.21092,0.67831
6299.28217,0.67560
6297.35343,0.67436
6295.42468,0.67607
6293.49594,0.67881
6291.56719,0.67969
6289.63845,0.67856
6287.70970,0.67701
6285.78096,0.67677
6283.85221,0.67849
6281.92347,0.67973
6279.99472,0.67863
6278.06598,0.67729
6276.13723,0.67725
6274.20848,0.67777
6272.27974,0.67861
6270.35099,0.67950
6268.42225,0.68111
6266.49350,0.68414
6264.56476,0.68635
6262.63601,0.68648
6260.70727,0.68672
6258.77852,0.68745
6256.84978,0.68715
6254.92103,0.68654
6252.99229,0.68632
6251.06354,0.68591
6249.13480,0.68556
6247.20605,0.68591
6245.27730,0.68806
6243.34856,0.69172
6241.41981,0.69360
6239.49107,0.69265
6237.56232,0.69170
6235.63358,0.69223
6233.70483,0.69256
6231.77609,0.69143
6229.84734,0.69021
6227.91860,0.69077
6225.98985,0.69285
6224.06111,0.69492
6222.13236,0.69665
6220.20362,0.69789
6218.27487,0.69781
6216.34613,0.69729
6214.41738,0.69797
6212.48863,0.69867
6210.55989,0.69731
6208.63114,0.69546
6206.70240,0.69566
6204.77365,0.69745
6202.84491,0.69913
6200.91616,0.69970
6198.98742,0.69914
6197.05867,0.69873
6195.12993,0.70009
6193.20118,0.70241
6191.27244,0.70308
6189.34369,0.70288
6187.41495,0.70405
6185.48620,0.70536
6183.55746,0.70541
6181.62871,0.70492
6179.69996,0.70566
6177.77122,0.70849
6175.84247,0.71052
6173.91373,0.70913
6171.98498,0.70722
6170.05624,0.70848
6168.12749,0.71199
6166.19875,0.71432
6164.27000,0.71377
6162.34126,0.71115
6160.41251,0.70877
6158.48377,0.70874
6156.55502,0.71065
6154.62628,0.71299
6152.69753,0.71547
6150.76878,0.71676
6148.84004,0.71589
6146.91129,0.71477
6144.98255,0.71409
6143.05380,0.71318
6141.12506,0.71290
6139.19631,0.71392
6137.26757,0.71481
6135.33882,0.71430
6133.41008,0.71384
6131.48133,0.71464
6129.55259,0.71569
6127.62384,0.71676
6125.69510,0.71818
6123.76635,0.71901
6121.83761,0.71833
6119.90886,0.71680
6117.98011,0.71626
6116.05137,0.71735
6114.12262,0.71875
6112.19388,0.71946
6110.26513,0.72019
6108.33639,0.72150
6106.40764,0.72182
6104.47890,0.72058
6102.55015,0.72011
6100.62141,0.72101
6098.69266,0.72156
6096.76392,0.72098
6094.83517,0.71928
6092.90643,0.71711
6090.97768,0.71586
6089.04893,0.71689
6087.12019,0.71965
6085.19144,0.72183
6083.26270,0.72229
6081.33395,0.72138
6079.40521,0.72001
6077.47646,0.71939
6075.54772,0.71960
6073.61897,0.72003
6071.69023,0.72053
6069.76148,0.72072
6067.83274,0.72052
6065.90399,0.72084
6063.97525,0.72098
6062.04650,0.71942
6060.11776,0.71727
6058.18901,0.71620
6056.26026,0.71650
6054.33152,0.71769
6052.40277,0.71865
6050.47403,0.71869
6048.54528,0.71740
6046.61654,0.71504
6044.68779,0.71392
6042.75905,0.71552
6040.83030,0.71731
6038.90156,0.71668
6036.97281,0.71500
6035.04407,0.71482
6033.11532,0.71563
6031.18658,0.71477
6029.25783,0.71222
6027.32909,0.71034
6025.40034,0.70981
6023.47159,0.71010
6021.54285,0.71027
6019.61410,0.70907
6017.68536,0.70674
6015.75661,0.70493
6013.82787,0.70451
6011.89912,0.70490
6009.97038,0.70626
6008.04163,0.70826
6006.11289,0.70833
6004.18414,0.70664
6002.25540,0.70603
6000.32665,0.70550
5998.39791,0.70392
5996.46916,0.70355
5994.54041,0.70381
5992.61167,0.70272
5990.68292,0.70203
5988.75418,0.70302
5986.82543,0.70347
5984.89669,0.70206
5982.96794,0.70085
5981.03920,0.70059
5979.11045,0.70019
5977.18171,0.70068
5975.25296,0.70177
5973.32422,0.70208
5971.39547,0.70281
5969.46673,0.70339
5967.53798,0.70162
5965.60924,0.69890
5963.68049,0.69777
5961.75174,0.69871
5959.82300,0.70110
5957.89425,0.70322
5955.96551,0.70371
5954.03676,0.70338
5952.10802,0.70315
5950.17927,0.70247
5948.25053,0.70075
5946.32178,0.69930
5944.39304,0.69982
5942.46429,0.70159
5940.53555,0.70291
5938.60680,0.70317
5936.67806,0.70320
5934.74931,0.70363
5932.82057,0.70382
5930.89182,0.70422
5928.96307,0.70574
5927.03433,0.70670
5925.10558,0.70529
5923.17684,0.70295
5921.24809,0.70135
5919.31935,0.69969
5917.39060,0.69818
5915.46186,0.69886
5913.53311,0.70078
5911.60437,0.70112
5909.67562,0.70026
5907.74688,0.69992
5905.81813,0.69959
5903.88939,0.69882
5901.96064,0.69879
5900.03189,0.69935
5898.10315,0.69887
5896.17440,0.69764
5894.24566,0.69732
5892.31691,0.69783
5890.38817,0.69703
5888.45942,0.69516
5886.53068,0.69490
5884.60193,0.69566
5882.67319,0.69558
5880.74444,0.69505
5878.81570,0.69476
5876.88695,0.69510
5874.95821,0.69541
5873.02946,0.69514
5871.10072,0.69506
5869.17197,0.69508
5867.24322,0.69447
5865.31448,0.69328
5863.38573,0.69265
5861.45699,0.69336
5859.52824,0.69382
5857.59950,0.69303
5855.67075,0.69268
5853.74201,0.69347
5851.81326,0.69395
5849.88452,0.69323
5847.95577,0.69225
5846.02703,0.69229
5844.09828,0.69299
5842.16954,0.69384
5840.24079,0.69528
5838.31205,0.69625
5836.38330,0.69565
5834.45455,0.69439
5832.52581,0.69296
5830.59706,0.69144
5828.66832,0.69063
5826.73957,0.69099
5824.81083,0.69193
5822.88208,0.69207
5820.95334,0.69122
5819.02459,0.69068
5817.09585,0.69066
5815.16710,0.69054
5813.23836,0.69023
5811.30961,0.68972
5809.38087,0.68871
5807.45212,0.68728
5805.52337,0.68655
5803.59463,0.68717
5801.66588,0.68838
5799.73714,0.68943
5797.80839,0.68989
5795.87965,0.68980
5793.95090,0.68994
5792.02216,0.69057
5790.09341,0.69123
5788.16467,0.69159
5786.23592,0.69102
5784.30718,0.68917
5782.37843,0.68781
5780.44969,0.68805
5778.52094,0.68866
5776.59220,0.68930
5774.66345,0.69013
5772.73470,0.69021
5770.80596,0.68962
5768.87721,0.68956
5766.94847,0.69037
5765.01972,0.69090
5763.09098,0.69092
5761.16223,0.69171
5759.23349,0.69282
5757.30474,0.69301
5755.37600,0.69254
5753.44725,0.69238
5751.51851,0.69265
5749.58976,0.69314
5747.66102,0.69371
5745.73227,0.69341
5743.80352,0.69296
5741.87478,0.69332
5739.94603,0.69308
5738.01729,0.69278
5736.08854,0.69370
5734.15980,0.69440
5732.23105,0.69412
5730.30231,0.69367
5728.37356,0.69302
5726.44482,0.69215
5724.51607,0.69170
5722.58733,0.69169
5720.65858,0.69154
5718.72984,0.69153
5716.80109,0.69203
5714.87235,0.69232
5712.94360,0.69188
5711.01485,0.69148
5709.08611,0.69205
5707.15736,0.69346
5705.22862,0.69391
5703.29987,0.69251
5701.37113,0.69123
5699.44238,0.69123
5697.51364,0.69132
5695.58489,0.69089
5693.65615,0.69084
5691.72740,0.69153
5689.79866,0.69235
5687.86991,0.69261
5685.94117,0.69237
5684.01242,0.69264
5682.08368,0.69325
5680.15493,0.69308
5678.22618,0.69213
5676.29744,0.69074
5674.36869,0.68980
5672.43995,0.69005
5670.51120,0.69050
5668.58246,0.69011
5666.65371,0.68927
5664.72497,0.68904
5662.79622,0.68989
5660.86748,0.69102
5658.93873,0.69108
5657.00999,0.69058
5655.08124,0.69075
5653.15250,0.69086
5651.22375,0.69009
5649.29500,0.68893
5647.36626,0.68856
5645.43751,0.68944
5643.50877,0.69008
5641.58002,0.68936
5639.65128,0.68856
5637.72253,0.68874
5635.79379,0.68947
5633.86504,0.69034
5631.93630,0.69110
5630.00755,0.69181
5628.07881,0.69214
5626.15006,0.69110
5624.22132,0.68983
5622.29257,0.68960
5620.36383,0.68904
5618.43508,0.68767
5616.50633,0.68682
5614.57759,0.68744
5612.64884,0.68926
5610.72010,0.69068
5608.79135,0.69081
5606.86261,0.69096
5604.93386,0.69174
5603.00512,0.69189
5601.07637,0.69117
5599.14763,0.69035
5597.21888,0.68943
5595.29014,0.68877
5593.36139,0.68939
5591.43265,0.69110
5589.50390,0.69216
5587.57516,0.69147
5585.64641,0.69035
5583.71766,0.69065
5581.78892,0.69187
5579.86017,0.69246
5577.93143,0.69206
5576.00268,0.69141
5574.07394,0.69150
5572.14519,0.69193
5570.21645,0.69195
5568.28770,0.69222
5566.35896,0.69263
5564.43021,0.69231
5562.50147,0.69172
5560.57272,0.69189
5558.64398,0.69283
5556.71523,0.69392
5554.78648,0.69525
5552.85774,0.69619
5550.92899,0.69565
5549.00025,0.69455
5547.07150,0.69437
5545.14276,0.69481
5543.21401,0.69538
5541.28527,0.69654
5539.35652,0.69773
5537.42778,0.69758
5535.49903,0.69671
5533.57029,0.69628
5531.64154,0.69565
5529.71280,0.69477
5527.78405,0.69438
5525.85531,0.69408
5523.92656,0.69370
5521.99781,0.69379
5520.06907,0.69444
5518.14032,0.69526
5516.21158,0.69589
5514.28283,0.69625
5512.35409,0.69653
5510.42534,0.69733
5508.49660,0.69824
5506.56785,0.69835
5504.63911,0.69850
5502.71036,0.69942
5500.78162,0.69982
5498.85287,0.69899
5496.92413,0.69819
5494.99538,0.69798
5493.06664,0.69781
5491.13789,0.69801
5489.20914,0.69860
5487.28040,0.69859
5485.35165,0.69808
5483.42291,0.69836
5481.49416,0.69901
5479.56542,0.69901
5477.63667,0.69889
5475.70793,0.69876
5473.77918,0.69829
5471.85044,0.69824
5469.92169,0.69874
5467.99295,0.69884
5466.06420,0.69838
5464.13546,0.69839
5462.20671,0.69930
5460.27796,0.70022
5458.34922,0.70052
5456.42047,0.70034
5454.49173,0.70013
5452.56298,0.70061
5450.63424,0.70181
5448.70549,0.70254
5446.77675,0.70222
5444.84800,0.70180
5442.91926,0.70233
5440.99051,0.70331
5439.06177,0.70370
5437.13302,0.70398
5435.20428,0.70476
5433.27553,0.70557
5431.34679,0.70614
5429.41804,0.70666
5427.48929,0.70718
5425.56055,0.70744
5423.63180,0.70749
5421.70306,0.70792
5419.77431,0.70853
5417.84557,0.70831
5415.91682,0.70763
5413.98808,0.70796
5412.05933,0.70921
5410.13059,0.71022
5408.20184,0.71107
5406.27310,0.71204
5404.34435,0.71249
5402.41561,0.71185
5400.48686,0.71045
5398.55811,0.70976
5396.62937,0.71070
5394.70062,0.71196
5392.77188,0.71248
5390.84313,0.71296
5388.91439,0.71334
5386.98564,0.71261
5385.05690,0.71143
5383.12815,0.71140
5381.19941,0.71189
5379.27066,0.71169
5377.34192,0.71132
5375.41317,0.71167
5373.48443,0.71236
5371.55568,0.71255
5369.62694,0.71232
5367.69819,0.71206
5365.76944,0.71176
5363.84070,0.71129
5361.91195,0.71043
5359.98321,0.70944
5358.05446,0.70902
5356.12572,0.70912
5354.19697,0.70904
5352.26823,0.70861
5350.33948,0.70821
5348.41074,0.70792
5346.48199,0.70780
5344.55325,0.70823
5342.62450,0.70846
5340.69576,0.70773
5338.76701,0.70671
5336.83827,0.70584
5334.90952,0.70515
5332.98077,0.70458
5331.05203,0.70384
5329.12328,0.70283
5327.19454,0.70142
5325.26579,0.70012
5323.33705,0.69947
5321.40830,0.69886
5319.47956,0.69786
5317.55081,0.69646
5315.62207,0.69490
5313.69332,0.69360
5311.76458,0.69213
5309.83583,0.69016
5307.90709,0.68819
5305.97834,0.68618
5304.04959,0.68386
5302.12085,0.68145
5300.19210,0.67873
5298.26336,0.67578
5296.33461,0.67305
5294.40587,0.67061
5292.47712,0.66866
5290.54838,0.66678
5288.61963,0.66400
5286.69089,0.66045
5284.76214,0.65681
5282.83340,0.65330
5280.90465,0.64937
5278.97591,0.64471
5277.04716,0.64010
5275.11842,0.63608
5273.18967,0.63277
5271.26092,0.62960
5269.33218,0.62561
5267.40343,0.62121
5265.47469,0.61681
5263.54594,0.61207
5261.61720,0.60777
5259.68845,0.60465
5257.75971,0.60186
5255.83096,0.59829
5253.90222,0.59415
5251.97347,0.59094
5250.04473,0.58856
5248.11598,0.58532
5246.18724,0.58133
5244.25849,0.57813
5242.32975,0.57587
5240.40100,0.57363
5238.47225,0.57083
5236.54351,0.56808
5234.61476,0.56610
5232.68602,0.56449
5230.75727,0.56216
5228.82853,0.55893
5226.89978,0.55643
5224.97104,0.55510
5223.04229,0.55364
5221.11355,0.55199
5219.18480,0.55068
5217.25606,0.54918
5215.32731,0.54707
5213.39857,0.54548
5211.46982,0.54533
5209.54107,0.54548
5207.61233,0.54442
5205.68358,0.54232
5203.75484,0.54070
5201.82609,0.54033
5199.89735,0.54082
5197.96860,0.54152
5196.03986,0.54143
5194.11111,0.54037
5192.18237,0.53930
5190.25362,0.53917
5188.32488,0.54005
5186.39613,0.54116
5184.46739,0.54211
5182.53864,0.54281
5180.60990,0.54274
5178.68115,0.54222
5176.75240,0.54229
5174.82366,0.54291
5172.89491,0.54340
5170.96617,0.54382
5169.03742,0.54465
5167.10868,0.54586
5165.17993,0.54684
5163.25119,0.54773
5161.32244,0.54910
5159.39370,0.55065
5157.46495,0.55200
5155.53621,0.55316
5153.60746,0.55418
5151.67872,0.55509
5149.74997,0.55589
5147.82123,0.55682
5145.89248,0.55783
5143.96373,0.55868
5142.03499,0.55965
5140.10624,0.56101
5138.17750,0.56263
5136.24875,0.56433
5134.32001,0.56586
5132.39126,0.56689
5130.46252,0.56764
5128.53377,0.56861
5126.60503,0.56960
5124.67628,0.57025
5122.74754,0.57108
5120.81879,0.57256
5118.89005,0.57414
5116.96130,0.57530
5115.03255,0.57647
5113.10381,0.57774
5111.17506,0.57881
5109.24632,0.57987
5107.31757,0.58091
5105.38883,0.58180
5103.46008,0.58275
5101.53134,0.58366
5099.60259,0.58436
5097.67385,0.58505
5095.74510,0.58568
5093.81636,0.58652
5091.88761,0.58826
5089.95887,0.59049
5088.03012,0.59201
5086.10138,0.59283
5084.17263,0.59375
5082.24388,0.59494
5080.31514,0.59596
5078.38639,0.59654
5076.45765,0.59704
5074.52890,0.59780
5072.60016,0.59871
5070.67141,0.59963
5068.74267,0.60083
5066.81392,0.60231
5064.88518,0.60365
5062.95643,0.60488
5061.02769,0.60600
5059.09894,0.60653
5057.17020,0.60678
5055.24145,0.60744
5053.31270,0.60811
5051.38396,0.60823
5049.45521,0.60830
5047.52647,0.60913
5045.59772,0.61062
5043.66898,0.61192
5041.74023,0.61263
5039.81149,0.61282
5037.88274,0.61300
5035.95400,0.61410
5034.02525,0.61569
5032.09651,0.61635
5030.16776,0.61628
5028.23902,0.61668
5026.31027,0.61761
5024.38153,0.61853
5022.45278,0.61920
5020.52403,0.61967
5018.59529,0.62013
5016.66654,0.62074
5014.73780,0.62119
5012.80905,0.62133
5010.88031,0.62155
5008.95156,0.62209
5007.02282,0.62271
5005.09407,0.62286
5003.16533,0.62284
5001.23658,0.62316
4999.30784,0.62342
4997.37909,0.62349
4995.45035,0.62344
4993.52160,0.62306
4991.59286,0.62272
4989.66411,0.62268
4987.73536,0.62266
4985.80662,0.62226
4983.87787,0.62146
4981.94913,0.62086
4980.02038,0.62078
4978.09164,0.62059
4976.16289,0.62002
4974.23415,0.61959
4972.30540,0.61935
4970.37666,0.61889
4968.44791,0.61805
4966.51917,0.61679
4964.59042,0.61493
4962.66168,0.61313
4960.73293,0.61242
4958.80418,0.61223
4956.87544,0.61113
4954.94669,0.60896
4953.01795,0.60688
4951.08920,0.60564
4949.16046,0.60490
4947.23171,0.60420
4945.30297,0.60313
4943.37422,0.60149
4941.44548,0.59961
4939.51673,0.59771
4937.58799,0.59607
4935.65924,0.59496
4933.73050,0.59386
4931.80175,0.59220
4929.87301,0.58995
4927.94426,0.58763
4926.01551,0.58599
4924.08677,0.58475
4922.15802,0.58325
4920.22928,0.58180
4918.30053,0.58052
4916.37179,0.57871
4914.44304,0.57635
4912.51430,0.57416
4910.58555,0.57234
4908.65681,0.57080
4906.72806,0.56956
4904.79932,0.56839
4902.87057,0.56669
4900.94183,0.56445
4899.01308,0.56239
4897.08434,0.56090
4895.15559,0.55967
4893.22684,0.55824
4891.29810,0.55634
4889.36935,0.55422
4887.44061,0.55222
4885.51186,0.55019
4883.58312,0.54822
4881.65437,0.54684
4879.72563,0.54575
4877.79688,0.54439
4875.86814,0.54309
4873.93939,0.54200
4872.01065,0.54052
4870.08190,0.53867
4868.15316,0.53685
4866.22441,0.53517
4864.29566,0.53346
4862.36692,0.53176
4860.43817,0.53038
4858.50943,0.52912
4856.58068,0.52756
4854.65194,0.52592
4852.72319,0.52467
4850.79445,0.52380
4848.86570,0.52297
4846.93696,0.52202
4845.00821,0.52078
4843.07947,0.51912
4841.15072,0.51771
4839.22198,0.51711
4837.29323,0.51667
4835.36449,0.51547
4833.43574,0.51360
4831.50699,0.51184
4829.57825,0.51056
4827.64950,0.50955
4825.72076,0.50876
4823.79201,0.50798
4821.86327,0.50702
4819.93452,0.50630
4818.00578,0.50591
4816.07703,0.50555
4814.14829,0.50511
4812.21954,0.50440
4810.29080,0.50343
4808.36205,0.50242
4806.43331,0.50161
4804.50456,0.50105
4802.57582,0.50042
4800.64707,0.49960
4798.71832,0.49883
4796.78958,0.49810
4794.86083,0.49729
4792.93209,0.49657
4791.00334,0.49621
4789.07460,0.49618
4787.14585,0.49634
4785.21711,0.49656
4783.28836,0.49645
4781.35962,0.49610
4779.43087,0.49583
4777.50213,0.49546
4775.57338,0.49515
4773.64464,0.49537
4771.71589,0.49569
4769.78714,0.49541
4767.85840,0.49460
4765.92965,0.49380
4764.00091,0.49337
4762.07216,0.49329
4760.14342,0.49353
4758.21467,0.49389
4756.28593,0.49393
4754.35718,0.49359
4752.42844,0.49322
4750.49969,0.49326
4748.57095,0.49366
4746.64220,0.49391
4744.71346,0.49379
4742.78471,0.49367
4740.85597,0.49390
4738.92722,0.49425
4736.99847,0.49419
4735.06973,0.49392
4733.14098,0.49393
4731.21224,0.49413
4729.28349,0.49466
4727.35475,0.49585
4725.42600,0.49695
4723.49726,0.49675
4721.56851,0.49545
4719.63977,0.49468
4717.71102,0.49519
4715.78228,0.49602
4713.85353,0.49645
4711.92479,0.49690
4709.99604,0.49758
4708.06729,0.49803
4706.13855,0.49819
4704.20980,0.49845
4702.28106,0.49883
4700.35231,0.49908
4698.42357,0.49919
4696.49482,0.49933
4694.56608,0.49961
4692.63733,0.49991
4690.70859,0.50015
4688.77984,0.50067
4686.85110,0.50163
4684.92235,0.50234
4682.99361,0.50244
4681.06486,0.50244
4679.13612,0.50266
4677.20737,0.50291
4675.27862,0.50321
4673.34988,0.50386
4671.42113,0.50490
4669.49239,0.50584
4667.56364,0.50625
4665.63490,0.50665
4663.70615,0.50781
4661.77741,0.50897
4659.84866,0.50923
4657.91992,0.50952
4655.99117,0.51068
4654.06243,0.51206
4652.13368,0.51290
4650.20494,0.51327
4648.27619,0.51368
4646.34745,0.51440
4644.41870,0.51511
4642.48995,0.51568
4640.56121,0.51640
4638.63246,0.51732
4636.70372,0.51816
4634.77497,0.51891
4632.84623,0.51956
4630.91748,0.52007
4628.98874,0.52096
4627.05999,0.52247
4625.13125,0.52379
4623.20250,0.52459
4621.27376,0.52554
4619.34501,0.52685
4617.41627,0.52811
4615.48752,0.52915
4613.55877,0.53009
4611.63003,0.53092
4609.70128,0.53180
4607.77254,0.53303
4605.84379,0.53428
4603.91505,0.53500
4601.98630,0.53548
4600.05756,0.53632
4598.12881,0.53757
4596.20007,0.53894
4594.27132,0.54011
4592.34258,0.54100
4590.41383,0.54175
4588.48509,0.54251
4586.55634,0.54326
4584.62760,0.54383
4582.69885,0.54424
4580.77010,0.54459
4578.84136,0.54499
4576.91261,0.54551
4574.98387,0.54613
4573.05512,0.54708
4571.12638,0.54804
4569.19763,0.54845
4567.26889,0.54877
4565.34014,0.54942
4563.41140,0.55005
4561.48265,0.55055
4559.55391,0.55106
4557.62516,0.55122
4555.69642,0.55107
4553.76767,0.55134
4551.83893,0.55197
4549.91018,0.55256
4547.98143,0.55314
4546.05269,0.55379
4544.12394,0.55460
4542.19520,0.55553
4540.26645,0.55634
4538.33771,0.55672
4536.40896,0.55665
4534.48022,0.55666
4532.55147,0.55675
4530.62273,0.55656
4528.69398,0.55649
4526.76524,0.55674
4524.83649,0.55694
4522.90775,0.55680
4520.97900,0.55650
4519.05025,0.55655
4517.12151,0.55699
4515.19276,0.55740
4513.26402,0.55740
4511.33527,0.55691
4509.40653,0.55635
4507.47778,0.55586
4505.54904,0.55516
4503.62029,0.55447
4501.69155,0.55400
4499.76280,0.55349
4497.83406,0.55309
4495.90531,0.55278
4493.97657,0.55205
4492.04782,0.55098
4490.11908,0.54983
4488.19033,0.54847
4486.26158,0.54701
4484.33284,0.54548
4482.40409,0.54368
4480.47535,0.54183
4478.54660,0.54013
4476.61786,0.53831
4474.68911,0.53624
4472.76037,0.53401
4470.83162,0.53190
4468.90288,0.53001
4466.97413,0.52775
4465.04539,0.52506
4463.11664,0.52270
4461.18790,0.52074
4459.25915,0.51856
4457.33041,0.51605
4455.40166,0.51347
4453.47291,0.51106
4451.54417,0.50881
4449.61542,0.50637
4447.68668,0.50386
4445.75793,0.50163
4443.82919,0.49956
4441.90044,0.49734
4439.97170,0.49484
4438.04295,0.49227
4436.11421,0.48988
4434.18546,0.48756
4432.25672,0.48533
4430.32797,0.48307
4428.39923,0.48047
4426.47048,0.47757
4424.54173,0.47455
4422.61299,0.47176
4420.68424,0.46958
4418.75550,0.46753
4416.82675,0.46519
4414.89801,0.46307
4412.96926,0.46117
4411.04052,0.45938
4409.11177,0.45813
4407.18303,0.45709
4405.25428,0.45585
4403.32554,0.45489
4401.39679,0.45434
4399.46805,0.45364
4397.53930,0.45278
4395.61056,0.45240
4393.68181,0.45250
4391.75306,0.45264
4389.82432,0.45296
4387.89557,0.45365
4385.96683,0.45440
4384.03808,0.45504
4382.10934,0.45585
4380.18059,0.45669
4378.25185,0.45721
4376.32310,0.45769
4374.39436,0.45838
4372.46561,0.45922
4370.53687,0.46016
4368.60812,0.46112
4366.67938,0.46208
4364.75063,0.46295
4362.82189,0.46368
4360.89314,0.46431
4358.96439,0.46455
4357.03565,0.46435
4355.10690,0.46416
4353.17816,0.46413
4351.24941,0.46416
4349.32067,0.46404
4347.39192,0.46367
4345.46318,0.46338
4343.53443,0.46337
4341.60569,0.46313
4339.67694,0.46243
4337.74820,0.46170
4335.81945,0.46119
4333.89071,0.46066
4331.96196,0.45966
4330.03321,0.45864
4328.10447,0.45847
4326.17572,0.45873
4324.24698,0.45849
4322.31823,0.45755
4320.38949,0.45631
4318.46074,0.45530
4316.53200,0.45454
4314.60325,0.45366
4312.67451,0.45261
4310.74576,0.45150
4308.81702,0.45036
4306.88827,0.44928
4304.95953,0.44832
4303.03078,0.44747
4301.10204,0.44674
4299.17329,0.44588
4297.24454,0.44479
4295.31580,0.44402
4293.38705,0.44371
4291.45831,0.44313
4289.52956,0.44210
4287.60082,0.44119
4285.67207,0.44067
4283.74333,0.44040
4281.81458,0.44054
4279.88584,0.44088
4277.95709,0.44082
4276.02835,0.44042
4274.09960,0.44032
4272.17086,0.44063
4270.24211,0.44111
4268.31336,0.44156
4266.38462,0.44191
4264.45587,0.44228
4262.52713,0.44270
4260.59838,0.44308
4258.66964,0.44355
4256.74089,0.44412
4254.81215,0.44456
4252.88340,0.44485
4250.95466,0.44536
4249.02591,0.44615
4247.09717,0.44676
4245.16842,0.44691
4243.23968,0.44678
4241.31093,0.44653
4239.38219,0.44624
4237.45344,0.44620
4235.52469,0.44659
4233.59595,0.44710
4231.66720,0.44757
4229.73846,0.44816
4227.80971,0.44859
4225.88097,0.44856
4223.95222,0.44833
4222.02348,0.44824
4220.09473,0.44803
4218.16599,0.44751
4216.23724,0.44722
4214.30850,0.44721
4212.37975,0.44728
4210.45101,0.44772
4208.52226,0.44821
4206.59352,0.44803
4204.66477,0.44753
4202.73602,0.44744
4200.80728,0.44773
4198.87853,0.44815
4196.94979,0.44854
4195.02104,0.44868
4193.09230,0.44864
4191.16355,0.44870
4189.23481,0.44886
4187.30606,0.44918
4185.37732,0.44959
4183.44857,0.45000
4181.51983,0.45041
4179.59108,0.45077
4177.66234,0.45096
4175.73359,0.45120
4173.80484,0.45173
4171.87610,0.45233
4169.94735,0.45277
4168.01861,0.45340
4166.08986,0.45446
4164.16112,0.45529
4162.23237,0.45526
4160.30363,0.45466
4158.37488,0.45400
4156.44614,0.45352
4154.51739,0.45332
4152.58865,0.45312
4150.65990,0.45263
4148.73116,0.45197
4146.80241,0.45136
4144.87367,0.45072
4142.94492,0.45008
4141.01617,0.44932
4139.08743,0.44803
4137.15868,0.44642
4135.22994,0.44526
4133.30119,0.44452
4131.37245,0.44358
4129.44370,0.44228
4127.51496,0.44091
4125.58621,0.43958
4123.65747,0.43821
4121.72872,0.43686
4119.79998,0.43560
4117.87123,0.43431
4115.94249,0.43285
4114.01374,0.43121
4112.08500,0.42961
4110.15625,0.42815
4108.22750,0.42667
4106.29876,0.42511
4104.37001,0.42349
4102.44127,0.42191
4100.51252,0.42013
4098.58378,0.41791
4096.65503,0.41560
4094.72629,0.41356
4092.79754,0.41184
4090.86880,0.41030
4088.94005,0.40842
4087.01131,0.40614
4085.08256,0.40405
4083.15382,0.40238
4081.22507,0.40087
4079.29632,0.39933
4077.36758,0.39756
4075.43883,0.39542
4073.51009,0.39314
4071.58134,0.39103
4069.65260,0.38904
4067.72385,0.38693
4065.79511,0.38481
4063.86636,0.38305
4061.93762,0.38132
4060.00887,0.37926
4058.08013,0.37735
4056.15138,0.37580
4054.22264,0.37415
4052.29389,0.37228
4050.36515,0.37072
4048.43640,0.36940
4046.50765,0.36775
4044.57891,0.36600
4042.65016,0.36442
4040.72142,0.36288
4038.79267,0.36144
4036.86393,0.36010
4034.93518,0.35873
4033.00644,0.35730
4031.07769,0.35607
4029.14895,0.35535
4027.22020,0.35486
4025.29146,0.35417
4023.36271,0.35331
4021.43397,0.35252
4019.50522,0.35191
4017.57648,0.35146
4015.64773,0.35121
4013.71898,0.35111
4011.79024,0.35080
4009.86149,0.35040
4007.93275,0.35042
4006.00400,0.35087
4004.07526,0.35136
4002.14651,0.35165
4000.21777,0.35170
3998.28902,0.35173
3996.36028,0.35211
3994.43153,0.35274
3992.50279,0.35325
3990.57404,0.35368
3988.64530,0.35415
3986.71655,0.35460
3984.78780,0.35499
3982.85906,0.35544
3980.93031,0.35613
3979.00157,0.35696
3977.07282,0.35749
3975.14408,0.35773
3973.21533,0.35807
3971.28659,0.35860
3969.35784,0.35918
3967.42910,0.35974
3965.50035,0.36033
3963.57161,0.36125
3961.64286,0.36247
3959.71412,0.36354
3957.78537,0.36447
3955.85663,0.36553
3953.92788,0.36670
3951.99913,0.36777
3950.07039,0.36873
3948.14164,0.36963
3946.21290,0.37049
3944.28415,0.37137
3942.35541,0.37218
3940.42666,0.37290
3938.49792,0.37368
3936.56917,0.37453
3934.64043,0.37533
3932.71168,0.37632
3930.78294,0.37765
3928.85419,0.37887
3926.92545,0.37989
3924.99670,0.38112
3923.06795,0.38253
3921.13921,0.38374
3919.21046,0.38493
3917.28172,0.38610
3915.35297,0.38681
3913.42423,0.38720
3911.49548,0.38781
3909.56674,0.38872
3907.63799,0.38974
3905.70925,0.39103
3903.78050,0.39239
3901.85176,0.39301
3899.92301,0.39306
3897.99427,0.39335
3896.06552,0.39399
3894.13678,0.39478
3892.20803,0.39587
3890.27928,0.39717
3888.35054,0.39835
3886.42179,0.39950
3884.49305,0.40038
3882.56430,0.40085
3880.63556,0.40133
3878.70681,0.40186
3876.77807,0.40237
3874.84932,0.40311
3872.92058,0.40417
3870.99183,0.40530
3869.06309,0.40610
3867.13434,0.40647
3865.20560,0.40711
3863.27685,0.40843
3861.34811,0.40990
3859.41936,0.41104
3857.49061,0.41181
3855.56187,0.41249
3853.63312,0.41374
3851.70438,0.41533
3849.77563,0.41621
3847.84689,0.41664
3845.91814,0.41704
3843.98940,0.41745
3842.06065,0.41802
3840.13191,0.41898
3838.20316,0.42007
3836.27442,0.42067
3834.34567,0.42083
3832.41693,0.42099
3830.48818,0.42116
3828.55943,0.42131
3826.63069,0.42157
3824.70194,0.42192
3822.77320,0.42234
3820.84445,0.42267
3818.91571,0.42267
3816.98696,0.42250
3815.05822,0.42211
3813.12947,0.42152
3811.20073,0.42118
3809.27198,0.42115
3807.34324,0.42134
3805.41449,0.42173
3803.48575,0.42190
3801.55700,0.42136
3799.62826,0.42038
3797.69951,0.41991
3795.77076,0.41988
3793.84202,0.41974
3791.91327,0.41943
3789.98453,0.41906
3788.05578,0.41867
3786.12704,0.41842
3784.19829,0.41839
3782.26955,0.41849
3780.34080,0.41847
3778.41206,0.41804
3776.48331,0.41726
3774.55457,0.41643
3772.62582,0.41589
3770.69708,0.41557
3768.76833,0.41503
3766.83959,0.41438
3764.91084,0.41397
3762.98209,0.41351
3761.05335,0.41287
3759.12460,0.41229
3757.19586,0.41174
3755.26711,0.41097
3753.33837,0.41005
3751.40962,0.40896
3749.48088,0.40774
3747.55213,0.40700
3745.62339,0.40663
3743.69464,0.40560
3741.76590,0.40384
3739.83715,0.40248
3737.90841,0.40152
3735.97966,0.39996
3734.05091,0.39744
3732.12217,0.39495
3730.19342,0.39321
3728.26468,0.39199
3726.33593,0.39058
3724.40719,0.38852
3722.47844,0.38605
3720.54970,0.38358
3718.62095,0.38115
3716.69221,0.37885
3714.76346,0.37681
3712.83472,0.37486
3710.90597,0.37233
3708.97723,0.36904
3707.04848,0.36561
3705.11974,0.36230
3703.19099,0.35876
3701.26224,0.35464
3699.33350,0.35035
3697.40475,0.34619
3695.47601,0.34186
3693.54726,0.33745
3691.61852,0.33304
3689.68977,0.32777
3687.76103,0.32106
3685.83228,0.31422
3683.90354,0.30788
3681.97479,0.30148
3680.04605,0.29497
3678.11730,0.28824
3676.18856,0.27998
3674.25981,0.27103
3672.33107,0.26392
3670.40232,0.25673
3668.47357,0.24855
3666.54483,0.24134
3664.61608,0.23483
3662.68734,0.22818
3660.75859,0.22148
3658.82985,0.21508
3656.90110,0.20849
3654.97236,0.20175
3653.04361,0.19608
3651.11487,0.19100
3649.18612,0.18515
3647.25738,0.17883
3645.32863,0.17308
3643.39989,0.16802
3641.47114,0.16350
3639.54239,0.15939
3637.61365,0.15556
3635.68490,0.15184
3633.75616,0.14822
3631.82741,0.14488
3629.89867,0.14121
3627.96992,0.13685
3626.04118,0.13333
3624.11243,0.13069
3622.18369,0.12806
3620.25494,0.12516
3618.32620,0.12220
3616.39745,0.11967
3614.46871,0.11730
3612.53996,0.11466
3610.61122,0.11216
3608.68247,0.10992
3606.75372,0.10746
3604.82498,0.10462
3602.89623,0.10172
3600.96749,0.09930
3599.03874,0.09744
3597.11000,0.09548
3595.18125,0.09311
3593.25251,0.09089
3591.32376,0.08935
3589.39502,0.08818
3587.46627,0.08686
3585.53753,0.08532
3583.60878,0.08365
3581.68004,0.08191
3579.75129,0.08031
3577.82254,0.07893
3575.89380,0.07765
3573.96505,0.07634
3572.03631,0.07506
3570.10756,0.07411
3568.17882,0.07328
3566.25007,0.07210
3564.32133,0.07104
3562.39258,0.07023
3560.46384,0.06936
3558.53509,0.06851
3556.60635,0.06770
3554.67760,0.06688
3552.74886,0.06597
3550.82011,0.06509
3548.89137,0.06440
3546.96262,0.06371
3545.03387,0.06295
3543.10513,0.06238
3541.17638,0.06194
3539.24764,0.06135
3537.31889,0.06063
3535.39015,0.05997
3533.46140,0.05933
3531.53266,0.05877
3529.60391,0.05851
3527.67517,0.05822
3525.74642,0.05751
3523.81768,0.05685
3521.88893,0.05660
3519.96019,0.05632
3518.03144,0.05574
3516.10270,0.05522
3514.17395,0.05485
3512.24520,0.05452
3510.31646,0.05417
3508.38771,0.05346
3506.45897,0.05257
3504.53022,0.05211
3502.60148,0.05212
3500.67273,0.05220
3498.74399,0.05217
3496.81524,0.05203
3494.88650,0.05172
3492.95775,0.05151
3491.02901,0.05148
3489.10026,0.05132
3487.17152,0.05101
3485.24277,0.05066
3483.31402,0.05021
3481.38528,0.04974
3479.45653,0.04941
3477.52779,0.04930
3475.59904,0.04938
3473.67030,0.04931
3471.74155,0.04893
3469.81281,0.04865
3467.88406,0.04861
3465.95532,0.04869
3464.02657,0.04869
3462.09783,0.04843
3460.16908,0.04815
3458.24034,0.04813
3456.31159,0.04840
3454.38285,0.04866
3452.45410,0.04839
3450.52535,0.04777
3448.59661,0.04735
3446.66786,0.04726
3444.73912,0.04746
3442.81037,0.04780
3440.88163,0.04801
3438.95288,0.04820
3437.02414,0.04856
3435.09539,0.04881
3433.16665,0.04880
3431.23790,0.04875
3429.30916,0.04862
3427.38041,0.04829
3425.45167,0.04814
3423.52292,0.04817
3421.59418,0.04804
3419.66543,0.04783
3417.73668,0.04788
3415.80794,0.04817
3413.87919,0.04849
3411.95045,0.04886
3410.02170,0.04910
3408.09296,0.04910
3406.16421,0.04914
3404.23547,0.04922
3402.30672,0.04904
3400.37798,0.04887
3398.44923,0.04898
3396.52049,0.04914
3394.59174,0.04914
3392.66300,0.04897
3390.73425,0.04874
3388.80550,0.04879
3386.87676,0.04919
3384.94801,0.04946
3383.01927,0.04935
3381.09052,0.04923
3379.16178,0.04938
3377.23303,0.04968
3375.30429,0.05002
3373.37554,0.05029
3371.44680,0.05030
3369.51805,0.05006
3367.58931,0.04980
3365.66056,0.04990
3363.73182,0.05039
3361.80307,0.05080
3359.87433,0.05092
3357.94558,0.05103
3356.01683,0.05119
3354.08809,0.05136
3352.15934,0.05169
3350.23060,0.05214
3348.30185,0.05238
3346.37311,0.05255
3344.44436,0.05284
3342.51562,0.05300
3340.58687,0.05303
3338.65813,0.05314
3336.72938,0.05334
3334.80064,0.05361
3332.87189,0.05401
3330.94315,0.05445
3329.01440,0.05471
3327.08566,0.05487
3325.15691,0.05499
3323.22816,0.05514
3321.29942,0.05546
3319.37067,0.05582
3317.44193,0.05603
3315.51318,0.05611
3313.58444,0.05624
3311.65569,0.05643
3309.72695,0.05659
3307.79820,0.05681
3305.86946,0.05721
3303.94071,0.05774
3302.01197,0.05817
3300.08322,0.05838
3298.15448,0.05857
3296.22573,0.05891
3294.29698,0.05926
3292.36824,0.05950
3290.43949,0.05956
3288.51075,0.05955
3286.58200,0.05970
3284.65326,0.05999
3282.72451,0.06029
3280.79577,0.06053
3278.86702,0.06079
3276.93828,0.06117
3275.00953,0.06174
3273.08079,0.06244
3271.15204,0.06295
3269.22330,0.06315
3267.29455,0.06322
3265.36581,0.06336
3263.43706,0.06367
3261.50831,0.06411
3259.57957,0.06470
3257.65082,0.06548
3255.72208,0.06618
3253.79333,0.06655
3251.86459,0.06665
3249.93584,0.06675
3248.00710,0.06705
3246.07835,0.06747
3244.14961,0.06787
3242.22086,0.06817
3240.29212,0.06852
3238.36337,0.06920
3236.43463,0.07000
3234.50588,0.07049
3232.57713,0.07087
3230.64839,0.07171
3228.71964,0.07283
3226.79090,0.07348
3224.86215,0.07342
3222.93341,0.07331
3221.00466,0.07373
3219.07592,0.07452
3217.14717,0.07524
3215.21843,0.07600
3213.28968,0.07709
3211.36094,0.07799
3209.43219,0.07805
3207.50345,0.07792
3205.57470,0.07843
3203.64596,0.07923
3201.71721,0.07976
3199.78846,0.08008
3197.85972,0.08026
3195.93097,0.08053
3194.00223,0.08120
3192.07348,0.08219
3190.14474,0.08317
3188.21599,0.08402
3186.28725,0.08479
3184.35850,0.08554
3182.42976,0.08613
3180.50101,0.08650
3178.57227,0.08697
3176.64352,0.08787
3174.71478,0.08900
3172.78603,0.08977
3170.85729,0.09013
3168.92854,0.09056
3166.99979,0.09136
3165.07105,0.09218
3163.14230,0.09275
3161.21356,0.09334
3159.28481,0.09399
3157.35607,0.09462
3155.42732,0.09541
3153.49858,0.09631
3151.56983,0.09709
3149.64109,0.09773
3147.71234,0.09839
3145.78360,0.09917
3143.85485,0.09987
3141.92611,0.10038
3139.99736,0.10108
3138.06861,0.10216
3136.13987,0.10322
3134.21112,0.10388
3132.28238,0.10439
3130.35363,0.10510
3128.42489,0.10598
3126.49614,0.10691
3124.56740,0.10780
3122.63865,0.10856
3120.70991,0.10920
3118.78116,0.10993
3116.85242,0.11083
3114.92367,0.11154
3112.99493,0.11189
3111.06618,0.11243
3109.13744,0.11322
3107.20869,0.11374
3105.27994,0.11409
3103.35120,0.11484
3101.42245,0.11597
3099.49371,0.11699
3097.56496,0.11776
3095.63622,0.11836
3093.70747,0.11869
3091.77873,0.11901
3089.84998,0.11965
3087.92124,0.12032
3085.99249,0.12088
3084.06375,0.12160
3082.13500,0.12243
3080.20626,0.12323
3078.27751,0.12407
3076.34877,0.12488
3074.42002,0.12559
3072.49127,0.12615
3070.56253,0.12659
3068.63378,0.12714
3066.70504,0.12785
3064.77629,0.12851
3062.84755,0.12911
3060.91880,0.12966
3058.99006,0.13030
3057.06131,0.13116
3055.13257,0.13194
3053.20382,0.13255
3051.27508,0.13320
3049.34633,0.13373
3047.41759,0.13410
3045.48884,0.13455
3043.56009,0.13506
3041.63135,0.13556
3039.70260,0.13595
3037.77386,0.13619
3035.84511,0.13652
3033.91637,0.13703
3031.98762,0.13750
3030.05888,0.13773
3028.13013,0.13780
3026.20139,0.13781
3024.27264,0.13764
3022.34390,0.13738
3020.41515,0.13709
3018.48641,0.13659
3016.55766,0.13588
3014.62892,0.13503
3012.70017,0.13403
3010.77142,0.13306
3008.84268,0.13231
3006.91393,0.13160
3004.98519,0.13074
3003.05644,0.12991
3001.12770,0.12921
2999.19895,0.12849
2997.27021,0.12774
2995.34146,0.12701
2993.41272,0.12626
2991.48397,0.12529
2989.55523,0.12395
2987.62648,0.12235
2985.69774,0.12057
2983.76899,0.11850
2981.84025,0.11620
2979.91150,0.11382
2977.98275,0.11135
2976.05401,0.10882
2974.12526,0.10633
2972.19652,0.10398
2970.26777,0.10181
2968.33903,0.09984
2966.41028,0.09812
2964.48154,0.09647
2962.55279,0.09478
2960.62405,0.09337
2958.69530,0.09233
2956.76656,0.09129
2954.83781,0.09005
2952.90907,0.08868
2950.98032,0.08732
2949.05157,0.08606
2947.12283,0.08492
2945.19408,0.08394
2943.26534,0.08310
2941.33659,0.08228
2939.40785,0.08146
2937.47910,0.08087
2935.55036,0.08068
2933.62161,0.08070
2931.69287,0.08075
2929.76412,0.08081
2927.83538,0.08076
2925.90663,0.08046
2923.97789,0.08006
2922.04914,0.07977
2920.12040,0.07962
2918.19165,0.07951
2916.26290,0.07955
2914.33416,0.07990
2912.40541,0.08029
2910.47667,0.08032
2908.54792,0.08021
2906.61918,0.08032
2904.69043,0.08048
2902.76169,0.08054
2900.83294,0.08072
2898.90420,0.08108
2896.97545,0.08134
2895.04671,0.08144
2893.11796,0.08161
2891.18922,0.08210
2889.26047,0.08285
2887.33172,0.08362
2885.40298,0.08418
2883.47423,0.08447
2881.54549,0.08469
2879.61674,0.08509
2877.68800,0.08570
2875.75925,0.08630
2873.83051,0.08679
2871.90176,0.08746
2869.97302,0.08844
2868.04427,0.08938
2866.11553,0.09020
2864.18678,0.09104
2862.25804,0.09195
2860.32929,0.09299
2858.40055,0.09418
2856.47180,0.09527
2854.54305,0.09625
2852.61431,0.09757
2850.68556,0.09938
2848.75682,0.10133
2846.82807,0.10310
2844.89933,0.10479
2842.97058,0.10642
2841.04184,0.10793
2839.11309,0.10956
2837.18435,0.11148
2835.25560,0.11367
2833.32686,0.11622
2831.39811,0.11894
2829.46937,0.12156
2827.54062,0.12413
2825.61188,0.12671
2823.68313,0.12924
2821.75438,0.13168
2819.82564,0.13392
2817.89689,0.13589
2815.96815,0.13759
2814.03940,0.13908
2812.11066,0.14065
2810.18191,0.14236
2808.25317,0.14411
2806.32442,0.14577
2804.39568,0.14719
2802.46693,0.14839
2800.53819,0.14959
2798.60944,0.15080
2796.68070,0.15189
2794.75195,0.15293
2792.82320,0.15395
2790.89446,0.15483
2788.96571,0.15567
2787.03697,0.15657
2785.10822,0.15735
2783.17948,0.15801
2781.25073,0.15866
2779.32199,0.15925
2777.39324,0.15978
2775.46450,0.16028
2773.53575,0.16070
2771.60701,0.16113
2769.67826,0.16179
2767.74952,0.16254
2765.82077,0.16304
2763.89203,0.16325
2761.96328,0.16346
2760.03453,0.16376
2758.10579,0.16403
2756.17704,0.16422
2754.24830,0.16451
2752.31955,0.16493
2750.39081,0.16529
2748.46206,0.16550
2746.53332,0.16569
2744.60457,0.16597
2742.67583,0.16629
2740.74708,0.16648
2738.81834,0.16645
2736.88959,0.16652
2734.96085,0.16692
2733.03210,0.16744
2731.10336,0.16794
2729.17461,0.16843
2727.24586,0.16897
2725.31712,0.16949
2723.38837,0.16988
2721.45963,0.17032
2719.53088,0.17103
2717.60214,0.17186
2715.67339,0.17263
2713.74465,0.17338
2711.81590,0.17415
2709.88716,0.17506
2707.95841,0.17612
2706.02967,0.17713
2704.10092,0.17799
2702.17218,0.17885
2700.24343,0.17973
2698.31468,0.18057
2696.38594,0.18142
2694.45719,0.18230
2692.52845,0.18313
2690.59970,0.18398
2688.67096,0.18480
2686.74221,0.18542
2684.81347,0.18591
2682.88472,0.18643
2680.95598,0.18705
2679.02723,0.18783
2677.09849,0.18879
2675.16974,0.18966
2673.24100,0.19015
2671.31225,0.19053
2669.38351,0.19111
2667.45476,0.19177
2665.52601,0.19233
2663.59727,0.19283
2661.66852,0.19323
2659.73978,0.19351
2657.81103,0.19381
2655.88229,0.19421
2653.95354,0.19467
2652.02480,0.19515
2650.09605,0.19572
2648.16731,0.19641
2646.23856,0.19715
2644.30982,0.19786
2642.38107,0.19857
2640.45233,0.19921
2638.52358,0.19969
2636.59484,0.20015
2634.66609,0.20074
2632.73734,0.20143
2630.80860,0.20219
2628.87985,0.20299
2626.95111,0.20363
2625.02236,0.20415
2623.09362,0.20473
2621.16487,0.20536
2619.23613,0.20590
2617.30738,0.20638
2615.37864,0.20703
2613.44989,0.20786
2611.52115,0.20864
2609.59240,0.20930
2607.66366,0.20992
2605.73491,0.21040
2603.80616,0.21078
2601.87742,0.21135
2599.94867,0.21198
2598.01993,0.21236
2596.09118,0.21273
2594.16244,0.21343
2592.23369,0.21424
2590.30495,0.21466
2588.37620,0.21480
2586.44746,0.21509
2584.51871,0.21559
2582.58997,0.21611
2580.66122,0.21666
2578.73248,0.21730
2576.80373,0.21783
2574.87499,0.21807
2572.94624,0.21817
2571.01749,0.21832
2569.08875,0.21858
2567.16000,0.21883
2565.23126,0.21902
2563.30251,0.21926
2561.37377,0.21959
2559.44502,0.21982
2557.51628,0.21992
2555.58753,0.21999
2553.65879,0.22007
2551.73004,0.22027
2549.80130,0.22061
2547.87255,0.22085
2545.94381,0.22090
2544.01506,0.22097
2542.08631,0.22116
2540.15757,0.22155
2538.22882,0.22206
2536.30008,0.22249
2534.37133,0.22283
2532.44259,0.22327
2530.51384,0.22387
2528.58510,0.22468
2526.65635,0.22560
2524.72761,0.22647
2522.79886,0.22729
2520.87012,0.22807
2518.94137,0.22862
2517.01263,0.22899
2515.08388,0.22938
2513.15514,0.22989
2511.22639,0.23052
2509.29764,0.23122
2507.36890,0.23192
2505.44015,0.23278
2503.51141,0.23392
2501.58266,0.23509
2499.65392,0.23612
2497.72517,0.23706
2495.79643,0.23795
2493.86768,0.23888
2491.93894,0.23996
2490.01019,0.24094
2488.08145,0.24155
2486.15270,0.24212
2484.22396,0.24299
2482.29521,0.24402
2480.36647,0.24499
2478.43772,0.24583
2476.50897,0.24674
2474.58023,0.24778
2472.65148,0.24873
2470.72274,0.24943
2468.79399,0.25002
2466.86525,0.25069
2464.93650,0.25143
2463.00776,0.25208
2461.07901,0.25268
2459.15027,0.25335
2457.22152,0.25410
2455.29278,0.25495
2453.36403,0.25597
2451.43529,0.25705
2449.50654,0.25797
2447.57779,0.25877
2445.64905,0.25967
2443.72030,0.26053
2441.79156,0.26117
2439.86281,0.26183
2437.93407,0.26280
2436.00532,0.26393
2434.07658,0.26501
2432.14783,0.26604
2430.21909,0.26703
2428.29034,0.26799
2426.36160,0.26900
2424.43285,0.27002
2422.50411,0.27105
2420.57536,0.27218
2418.64662,0.27345
2416.71787,0.27469
2414.78912,0.27570
2412.86038,0.27658
2410.93163,0.27752
2409.00289,0.27848
2407.07414,0.27934
2405.14540,0.28020
2403.21665,0.28135
2401.28791,0.28273
2399.35916,0.28387
2397.43042,0.28467
2395.50167,0.28544
2393.57293,0.28636
2391.64418,0.28726
2389.71544,0.28799
2387.78669,0.28873
2385.85795,0.28966
2383.92920,0.29066
2382.00045,0.29160
2380.07171,0.29257
2378.14296,0.29357
2376.21422,0.29450
2374.28547,0.29536
2372.35673,0.29614
2370.42798,0.29681
2368.49924,0.29745
2366.57049,0.29814
2364.64175,0.29877
2362.71300,0.29937
2360.78426,0.30002
2358.85551,0.30067
2356.92677,0.30126
2354.99802,0.30169
2353.06927,0.30204
2351.14053,0.30255
2349.21178,0.30318
2347.28304,0.30375
2345.35429,0.30425
2343.42555,0.30480
2341.49680,0.30533
2339.56806,0.30579
2337.63931,0.30631
2335.71057,0.30695
2333.78182,0.30752
2331.85308,0.30784
2329.92433,0.30792
2327.99559,0.30805
2326.06684,0.30827
2324.13810,0.30838
2322.20935,0.30844
2320.28060,0.30863
2318.35186,0.30894
2316.42311,0.30923
2314.49437,0.30931
2312.56562,0.30921
2310.63688,0.30911
2308.70813,0.30905
2306.77939,0.30905
2304.85064,0.30908
2302.92190,0.30896
2300.99315,0.30878
2299.06441,0.30861
2297.13566,0.30835
2295.20692,0.30812
2293.27817,0.30800
2291.34943,0.30788
2289.42068,0.30776
2287.49193,0.30771
2285.56319,0.30770
2283.63444,0.30762
2281.70570,0.30738
2279.77695,0.30693
2277.84821,0.30644
2275.91946,0.30616
2273.99072,0.30592
2272.06197,0.30544
2270.13323,0.30481
2268.20448,0.30414
2266.27574,0.30338
2264.34699,0.30265
2262.41825,0.30205
2260.48950,0.30155
2258.56075,0.30121
2256.63201,0.30100
2254.70326,0.30072
2252.77452,0.30034
2250.84577,0.29993
2248.91703,0.29952
2246.98828,0.29920
2245.05954,0.29888
2243.13079,0.29847
2241.20205,0.29798
2239.27330,0.29747
2237.34456,0.29715
2235.41581,0.29716
2233.48707,0.29715
2231.55832,0.29695
2229.62958,0.29671
2227.70083,0.29654
2225.77208,0.29645
2223.84334,0.29643
2221.91459,0.29637
2219.98585,0.29627
2218.05710,0.29618
2216.12836,0.29604
2214.19961,0.29582
2212.27087,0.29553
2210.34212,0.29512
2208.41338,0.29464
2206.48463,0.29426
2204.55589,0.29380
2202.62714,0.29307
2200.69840,0.29237
2198.76965,0.29183
2196.84090,0.29106
2194.91216,0.28997
2192.98341,0.28893
2191.05467,0.28806
2189.12592,0.28725
2187.19718,0.28625
2185.26843,0.28492
2183.33969,0.28346
2181.41094,0.28224
2179.48220,0.28129
2177.55345,0.28031
2175.62471,0.27918
2173.69596,0.27795
2171.76722,0.27660
2169.83847,0.27534
2167.90973,0.27438
2165.98098,0.27366
2164.05223,0.27296
2162.12349,0.27221
2160.19474,0.27146
2158.26600,0.27068
2156.33725,0.26994
2154.40851,0.26936
2152.47976,0.26894
2150.55102,0.26853
2148.62227,0.26805
2146.69353,0.26736
2144.76478,0.26657
2142.83604,0.26594
2140.90729,0.26549
2138.97855,0.26512
2137.04980,0.26483
2135.12106,0.26476
2133.19231,0.26493
2131.26356,0.26517
2129.33482,0.26534
2127.40607,0.26540
2125.47733,0.26549
2123.54858,0.26582
2121.61984,0.26620
2119.69109,0.26635
2117.76235,0.26646
2115.83360,0.26678
2113.90486,0.26721
2111.97611,0.26754
2110.04737,0.26767
2108.11862,0.26769
2106.18988,0.26782
2104.26113,0.26822
2102.33238,0.26872
2100.40364,0.26915
2098.47489,0.26953
2096.54615,0.26980
2094.61740,0.26983
2092.68866,0.26977
2090.75991,0.26984
2088.83117,0.26996
2086.90242,0.26989
2084.97368,0.26967
2083.04493,0.26948
2081.11619,0.26923
2079.18744,0.26884
2077.25870,0.26842
2075.32995,0.26789
2073.40121,0.26716
2071.47246,0.26653
2069.54371,0.26618
2067.61497,0.26586
2065.68622,0.26542
2063.75748,0.26495
2061.82873,0.26465
2059.89999,0.26463
2057.97124,0.26468
2056.04250,0.26466
2054.11375,0.26476
2052.18501,0.26504
2050.25626,0.26538
2048.32752,0.26576
2046.39877,0.26618
2044.47003,0.26662
2042.54128,0.26717
2040.61254,0.26782
2038.68379,0.26862
2036.75504,0.26958
2034.82630,0.27058
2032.89755,0.27157
2030.96881,0.27263
2029.04006,0.27375
2027.11132,0.27484
2025.18257,0.27592
2023.25383,0.27708
2021.32508,0.27821
2019.39634,0.27925
2017.46759,0.28028
2015.53885,0.28129
2013.61010,0.28218
2011.68136,0.28305
2009.75261,0.28392
2007.82386,0.28467
2005.89512,0.28532
2003.96637,0.28601
2002.03763,0.28684
2000.10888,0.28773
1998.18014,0.28851
1996.25139,0.28914
1994.32265,0.28976
1992.39390,0.29048
1990.46516,0.29129
1988.53641,0.29208
1986.60767,0.29261
1984.67892,0.29283
1982.75018,0.29317
1980.82143,0.29382
1978.89269,0.29452
1976.96394,0.29511
1975.03519,0.29571
1973.10645,0.29630
1971.17770,0.29688
1969.24896,0.29755
1967.32021,0.29820
1965.39147,0.29875
1963.46272,0.29941
1961.53398,0.30031
1959.60523,0.30124
1957.67649,0.30210
1955.74774,0.30306
1953.81900,0.30416
1951.89025,0.30519
1949.96151,0.30604
1948.03276,0.30686
1946.10402,0.30785
1944.17527,0.30888
1942.24652,0.30974
1940.31778,0.31045
1938.38903,0.31117
1936.46029,0.31181
1934.53154,0.31237
1932.60280,0.31293
1930.67405,0.31351
1928.74531,0.31416
1926.81656,0.31486
1924.88782,0.31544
1922.95907,0.31580
1921.03033,0.31602
1919.10158,0.31618
1917.17284,0.31629
1915.24409,0.31639
1913.31534,0.31657
1911.38660,0.31674
1909.45785,0.31671
1907.52911,0.31651
1905.60036,0.31632
1903.67162,0.31610
1901.74287,0.31587
1899.81413,0.31570
1897.88538,0.31561
1895.95664,0.31547
1894.02789,0.31528
1892.09915,0.31509
1890.17040,0.31490
1888.24166,0.31468
1886.31291,0.31447
1884.38417,0.31435
1882.45542,0.31424
1880.52667,0.31408
1878.59793,0.31391
1876.66918,0.31375
1874.74044,0.31355
1872.81169,0.31334
1870.88295,0.31326
1868.95420,0.31315
1867.02546,0.31285
1865.09671,0.31254
1863.16797,0.31217
1861.23922,0.31159
1859.31048,0.31092
1857.38173,0.31039
1855.45299,0.30984
1853.52424,0.30909
1851.59549,0.30834
1849.66675,0.30776
1847.73800,0.30717
1845.80926,0.30647
1843.88051,0.30563
1841.95177,0.30460
1840.02302,0.30357
1838.09428,0.30255
1836.16553,0.30144
1834.23679,0.30036
1832.30804,0.29941
1830.37930,0.29833
1828.45055,0.29680
1826.52181,0.29505
1824.59306,0.29313
1822.66432,0.29105
1820.73557,0.28894
1818.80682,0.28668
1816.87808,0.28424
1814.94933,0.28173
1813.02059,0.27910
1811.09184,0.27624
1809.16310,0.27313
1807.23435,0.26995
1805.30561,0.26694
1803.37686,0.26404
1801.44812,0.26076
1799.51937,0.25689
1797.59063,0.25286
1795.66188,0.24911
1793.73314,0.24524
1791.80439,0.24053
1789.87565,0.23553
1787.94690,0.23094
1786.01815,0.22630
1784.08941,0.22121
1782.16066,0.21572
1780.23192,0.20975
1778.30317,0.20356
1776.37443,0.19757
1774.44568,0.19122
1772.51694,0.18336
1770.58819,0.17476
1768.65945,0.16662
1766.73070,0.15860
1764.80196,0.15095
1762.87321,0.14302
1760.94447,0.13454
1759.01572,0.12710
1757.08697,0.12046
1755.15823,0.11445
1753.22948,0.10952
1751.30074,0.10515
1749.37199,0.10119
1747.44325,0.09797
1745.51450,0.09540
1743.58576,0.09356
1741.65701,0.09240
1739.72827,0.09162
1737.79952,0.09125
1735.87078,0.09138
1733.94203,0.09191
1732.01329,0.09245
1730.08454,0.09285
1728.15580,0.09332
1726.22705,0.09406
1724.29830,0.09527
1722.36956,0.09686
1720.44081,0.09865
1718.51207,0.10079
1716.58332,0.10324
1714.65458,0.10544
1712.72583,0.10732
1710.79709,0.10925
1708.86834,0.11136
1706.93960,0.11347
1705.01085,0.11509
1703.08211,0.11606
1701.15336,0.11693
1699.22462,0.11757
1697.29587,0.11739
1695.36713,0.11652
1693.43838,0.11550
1691.50963,0.11460
1689.58089,0.11351
1687.65214,0.11219
1685.72340,0.11053
1683.79465,0.10818
1681.86591,0.10582
1679.93716,0.10380
1678.00842,0.10201
1676.07967,0.10013
1674.15093,0.09782
1672.22218,0.09576
1670.29344,0.09413
1668.36469,0.09251
1666.43595,0.09131
1664.50720,0.09065
1662.57845,0.09013
1660.64971,0.08970
1658.72096,0.08969
1656.79222,0.09015
1654.86347,0.09094
1652.93473,0.09161
1651.00598,0.09164
1649.07724,0.09165
1647.14849,0.09172
1645.21975,0.09148
1643.29100,0.09123
1641.36226,0.09125
1639.43351,0.09145
1637.50477,0.09179
1635.57602,0.09217
1633.64728,0.09242
1631.71853,0.09259
1629.78978,0.09262
1627.86104,0.09232
1625.93229,0.09195
1624.00355,0.09170
1622.07480,0.09152
1620.14606,0.09142
1618.21731,0.09125
1616.28857,0.09056
1614.35982,0.08954
1612.43108,0.08864
1610.50233,0.08763
1608.57359,0.08659
1606.64484,0.08600
1604.71610,0.08585
1602.78735,0.08586
1600.85861,0.08599
1598.92986,0.08621
1597.00111,0.08639
1595.07237,0.08658
1593.14362,0.08707
1591.21488,0.08816
1589.28613,0.08982
1587.35739,0.09186
1585.42864,0.09431
1583.49990,0.09724
1581.57115,0.10061
1579.64241,0.10438
1577.71366,0.10911
1575.78492,0.11516
1573.85617,0.12044
1571.92743,0.12471
1569.99868,0.12947
1568.06993,0.13399
1566.14119,0.13708
1564.21244,0.13927
1562.28370,0.14096
1560.35495,0.14256
1558.42621,0.14389
1556.49746,0.14419
1554.56872,0.14424
1552.63997,0.14417
1550.71123,0.14372
1548.78248,0.14284
1546.85374,0.14170
1544.92499,0.14047
1542.99625,0.13911
1541.06750,0.13696
1539.13876,0.13313
1537.21001,0.12929
1535.28126,0.12557
1533.35252,0.12046
1531.42377,0.11460
1529.49503,0.10913
1527.56628,0.10311
1525.63754,0.09611
1523.70879,0.08884
1521.78005,0.08084
1519.85130,0.07323
1517.92256,0.06792
1515.99381,0.06418
1514.06507,0.06185
1512.13632,0.06090
1510.20758,0.06096
1508.27883,0.06212
1506.35008,0.06456
1504.42134,0.06707
1502.49259,0.06939
1500.56385,0.07205
1498.63510,0.07508
1496.70636,0.07819
1494.77761,0.08079
1492.84887,0.08261
1490.92012,0.08389
1488.99138,0.08439
1487.06263,0.08390
1485.13389,0.08302
1483.20514,0.08196
1481.27640,0.08045
1479.34765,0.07855
1477.41891,0.07641
1475.49016,0.07391
1473.56141,0.07069
1471.63267,0.06700
1469.70392,0.06426
1467.77518,0.06276
1465.84643,0.06195
1463.91769,0.06153
1461.98894,0.06148
1460.06020,0.06167
1458.13145,0.06177
1456.20271,0.06145
1454.27396,0.06111
1452.34522,0.06111
1450.41647,0.06135
1448.48773,0.06191
1446.55898,0.06273
1444.63024,0.06330
1442.70149,0.06328
1440.77274,0.06284
1438.84400,0.06213
1436.91525,0.06094
1434.98651,0.05948
1433.05776,0.05850
1431.12902,0.05811
1429.20027,0.05807
1427.27153,0.05809
1425.34278,0.05815
1423.41404,0.05857
1421.48529,0.05956
1419.55655,0.06091
1417.62780,0.06204
1415.69906,0.06261
1413.77031,0.06308
1411.84156,0.06392
1409.91282,0.06486
1407.98407,0.06538
1406.05533,0.06555
1404.12658,0.06561
1402.19784,0.06559
1400.26909,0.06546
1398.34035,0.06529
1396.41160,0.06493
1394.48286,0.06422
1392.55411,0.06337
1390.62537,0.06252
1388.69662,0.06148
1386.76788,0.06027
1384.83913,0.05916
1382.91039,0.05813
1380.98164,0.05719
1379.05289,0.05655
1377.12415,0.05631
1375.19540,0.05621
1373.26666,0.05609
1371.33791,0.05618
1369.40917,0.05669
1367.48042,0.05749
1365.55168,0.05830
1363.62293,0.05894
1361.69419,0.05938
1359.76544,0.05977
1357.83670,0.06025
1355.90795,0.06077
1353.97921,0.06125
1352.05046,0.06154
1350.12172,0.06146
1348.19297,0.06113
1346.26422,0.06077
1344.33548,0.06044
1342.40673,0.06011
1340.47799,0.05976
1338.54924,0.05947
1336.62050,0.05937
1334.69175,0.05934
1332.76301,0.05920
1330.83426,0.05899
1328.90552,0.05881
1326.97677,0.05868
1325.04803,0.05859
1323.11928,0.05843
1321.19054,0.05813
1319.26179,0.05783
1317.33304,0.05783
1315.40430,0.05824
1313.47555,0.05889
1311.54681,0.05952
1309.61806,0.05995
1307.68932,0.06020
1305.76057,0.06043
1303.83183,0.06060
1301.90308,0.06058
1299.97434,0.06038
1298.04559,0.05999
1296.11685,0.05942
1294.18810,0.05875
1292.25936,0.05792
1290.33061,0.05694
1288.40187,0.05589
1286.47312,0.05477
1284.54437,0.05369
1282.61563,0.05286
1280.68688,0.05230
1278.75814,0.05186
1276.82939,0.05156
1274.90065,0.05147
1272.97190,0.05160
1271.04316,0.05175
1269.11441,0.05175
1267.18567,0.05182
1265.25692,0.05226
1263.32818,0.05287
1261.39943,0.05346
1259.47069,0.05412
1257.54194,0.05488
1255.61320,0.05554
1253.68445,0.05587
1251.75570,0.05600
1249.82696,0.05622
1247.89821,0.05642
1245.96947,0.05644
1244.04072,0.05656
1242.11198,0.05677
1240.18323,0.05671
1238.25449,0.05638
1236.32574,0.05612
1234.39700,0.05602
1232.46825,0.05606
1230.53951,0.05624
1228.61076,0.05643
1226.68202,0.05656
1224.75327,0.05670
1222.82452,0.05689
1220.89578,0.05710
1218.96703,0.05741
1217.03829,0.05762
1215.10954,0.05751
1213.18080,0.05738
1211.25205,0.05744
1209.32331,0.05754
1207.39456,0.05765
1205.46582,0.05784
1203.53707,0.05813
1201.60833,0.05833
1199.67958,0.05835
1197.75084,0.05836
1195.82209,0.05841
1193.89335,0.05825
1191.96460,0.05780
1190.03585,0.05720
1188.10711,0.05645
1186.17836,0.05548
1184.24962,0.05423
1182.32087,0.05273
1180.39213,0.05133
1178.46338,0.05002
1176.53464,0.04853
1174.60589,0.04706
1172.67715,0.04615
1170.74840,0.04600
1168.81966,0.04634
1166.89091,0.04697
1164.96217,0.04801
1163.03342,0.04931
1161.10467,0.05039
1159.17593,0.05106
1157.24718,0.05123
1155.31844,0.05096
1153.38969,0.05052
1151.46095,0.05009
1149.53220,0.04964
1147.60346,0.04909
1145.67471,0.04850
1143.74597,0.04802
1141.81722,0.04751
1139.88848,0.04677
1137.95973,0.04596
1136.03099,0.04531
1134.10224,0.04471
1132.17350,0.04414
1130.24475,0.04373
1128.31600,0.04350
1126.38726,0.04356
1124.45851,0.04401
1122.52977,0.04460
1120.60102,0.04496
1118.67228,0.04516
1116.74353,0.04550
1114.81479,0.04612
1112.88604,0.04714
1110.95730,0.04832
1109.02855,0.04909
1107.09981,0.04935
1105.17106,0.04956
1103.24232,0.04988
1101.31357,0.04998
1099.38483,0.04996
1097.45608,0.05006
1095.52733,0.04991
1093.59859,0.04952
1091.66984,0.04945
1089.74110,0.04969
1087.81235,0.04997
1085.88361,0.05053
1083.95486,0.05135
1082.02612,0.05207
1080.09737,0.05288
1078.16863,0.05410
1076.23988,0.05562
1074.31114,0.05724
1072.38239,0.05869
1070.45365,0.06000
1068.52490,0.06175
1066.59615,0.06416
1064.66741,0.06695
1062.73866,0.06980
1060.80992,0.07232
1058.88117,0.07394
1056.95243,0.07466
1055.02368,0.07507
1053.09494,0.07530
1051.16619,0.07491
1049.23745,0.07404
1047.30870,0.07332
1045.37996,0.07289
1043.45121,0.07283
1041.52247,0.07330
1039.59372,0.07437
1037.66498,0.07625
1035.73623,0.07857
1033.80748,0.08056
1031.87874,0.08218
1029.94999,0.08348
1028.02125,0.08422
1026.09250,0.08457
1024.16376,0.08494
1022.23501,0.08540
1020.30627,0.08588
1018.37752,0.08638
1016.44878,0.08690
1014.52003,0.08747
1012.59129,0.08805
1010.66254,0.08844
1008.73380,0.08867
1006.80505,0.08900
1004.87631,0.08942
1002.94756,0.08975
1001.01881,0.09009
999.09007,0.09055
997.16132,0.09115
995.23258,0.09198
993.30383,0.09316
991.37509,0.09462
989.44634,0.09613
987.51760,0.09779
985.58885,0.09967
983.66011,0.10165
981.73136,0.10379
979.80262,0.10601
977.87387,0.10772
975.94513,0.10858
974.01638,0.10894
972.08763,0.10935
970.15889,0.11007
968.23014,0.11093
966.30140,0.11182
964.37265,0.11287
962.44391,0.11404
960.51516,0.11531
958.58642,0.11683
956.65767,0.11854
954.72893,0.12002
952.80018,0.12117
950.87144,0.12234
948.94269,0.12358
947.01395,0.12468
945.08520,0.12552
943.15646,0.12610
941.22771,0.12663
939.29896,0.12736
937.37022,0.12822
935.44147,0.12889
933.51273,0.12929
931.58398,0.12978
929.65524,0.13047
927.72649,0.13099
925.79775,0.13123
923.86900,0.13117
921.94026,0.13054
920.01151,0.12953
918.08277,0.12844
916.15402,0.12719
914.22528,0.12575
912.29653,0.12409
910.36779,0.12186
908.43904,0.11907
906.51029,0.11642
904.58155,0.11425
902.65280,0.11229
900.72406,0.11065
898.79531,0.10983
896.86657,0.11002
894.93782,0.11098
893.00908,0.11220
891.08033,0.11331
889.15159,0.11444
887.22284,0.11583
885.29410,0.11714
883.36535,0.11789
881.43661,0.11824
879.50786,0.11849
877.57911,0.11862
875.65037,0.11872
873.72162,0.11891
871.79288,0.11915
869.86413,0.11934
867.93539,0.11962
866.00664,0.12020
864.07790,0.12088
862.14915,0.12136
860.22041,0.12171
858.29166,0.12220
856.36292,0.12324
854.43417,0.12460
852.50543,0.12583
850.57668,0.12696
848.64794,0.12796
846.71919,0.12876
844.79044,0.12947
842.86170,0.12964
840.93295,0.12885
839.00421,0.12749
837.07546,0.12609
835.14672,0.12468
833.21797,0.12329
831.28923,0.12185
829.36048,0.12024
827.43174,0.11862
825.50299,0.11699
823.57425,0.11504
821.64550,0.11277
819.71676,0.11080
817.78801,0.10963
815.85926,0.10903
813.93052,0.10848
812.00177,0.10771
810.07303,0.10692
808.14428,0.10678
806.21554,0.10739
804.28679,0.10834
802.35805,0.10932
800.42930,0.11006
798.50056,0.11048
796.57181,0.11080
794.64307,0.11103
792.71432,0.11103
790.78558,0.11083
788.85683,0.11046
786.92809,0.10975
784.99934,0.10877
783.07059,0.10798
781.14185,0.10735
779.21310,0.10644
777.28436,0.10524
775.35561,0.10413
773.42687,0.10343
771.49812,0.10326
769.56938,0.10317
767.64063,0.10268
765.71189,0.10196
763.78314,0.10146
761.85440,0.10117
759.92565,0.10055
757.99691,0.09944
756.06816,0.09853
754.13942,0.09812
752.21067,0.09770
750.28192,0.09710
748.35318,0.09657
746.42443,0.09598
744.49569,0.09523
742.56694,0.09444
740.63820,0.09366
738.70945,0.09300
736.78071,0.09246
734.85196,0.09193
732.92322,0.09123
730.99447,0.09039
729.06573,0.08966
727.13698,0.08885
725.20824,0.08786
723.27949,0.08713
721.35074,0.08679
719.42200,0.08638
717.49325,0.08592
715.56451,0.08592
713.63576,0.08622
711.70702,0.08607
709.77827,0.08516
707.84953,0.08407
705.92078,0.08339
703.99204,0.08274
702.06329,0.08188
700.13455,0.08144
698.20580,0.08156
696.27706,0.08179
694.34831,0.08182
692.41957,0.08153
690.49082,0.08094
688.56207,0.08016
686.63333,0.07924
684.70458,0.07806
682.77584,0.07669
680.84709,0.07561
678.91835,0.07495
676.98960,0.07448
675.06086,0.07428
673.13211,0.07456
671.20337,0.07498
669.27462,0.07514
667.34588,0.07509
665.41713,0.07518
663.48839,0.07533
661.55964,0.07520
659.63090,0.07504
657.70215,0.07513
655.77340,0.07512
653.84466,0.07494
651.91591,0.07481
649.98717,0.07475
648.05842,0.07488
646.12968,0.07505
644.20093,0.07450
642.27219,0.07318
640.34344,0.07209
638.41470,0.07204
636.48595,0.07267
634.55721,0.07250
632.62846,0.07140
630.69972,0.07107
628.77097,0.07177
626.84222,0.07178
624.91348,0.07089
622.98473,0.07077
621.05599,0.07154
619.12724,0.07177
617.19850,0.07193
615.26975,0.07323
613.34101,0.07446
611.41226,0.07448
609.48352,0.07497
607.55477,0.07668
605.62603,0.07739
603.69728,0.07649
601.76854,0.07578
599.83979,0.07563
