4497.78948,-0.00554
4495.86076,-0.00559
4493.93203,-0.00562
4492.00330,-0.00559
4490.07458,-0.00548
4488.14585,-0.00533
4486.21712,-0.00526
4484.28840,-0.00535
4482.35967,-0.00542
4480.43095,-0.00526
4478.50222,-0.00507
4476.57349,-0.00508
4474.64477,-0.00519
4472.71604,-0.00525
4470.78732,-0.00526
4468.85859,-0.00522
4466.92986,-0.00520
4465.00114,-0.00520
4463.07241,-0.00517
4461.14368,-0.00514
4459.21496,-0.00516
4457.28623,-0.00516
4455.35751,-0.00509
4453.42878,-0.00495
4451.50005,-0.00487
4449.57133,-0.00494
4447.64260,-0.00512
4445.71387,-0.00515
4443.78515,-0.00496
4441.85642,-0.00469
4439.92770,-0.00452
4437.99897,-0.00451
4436.07024,-0.00467
4434.14152,-0.00493
4432.21279,-0.00508
4430.28407,-0.00492
4428.35534,-0.00462
4426.42661,-0.00440
4424.49789,-0.00436
4422.56916,-0.00449
4420.64043,-0.00463
4418.71171,-0.00461
4416.78298,-0.00450
4414.85426,-0.00436
4412.92553,-0.00419
4410.99680,-0.00409
4409.06808,-0.00414
4407.13935,-0.00424
4405.21062,-0.00420
4403.28190,-0.00413
4401.35317,-0.00416
4399.42445,-0.00420
4397.49572,-0.00423
4395.56699,-0.00430
4393.63827,-0.00433
4391.70954,-0.00429
4389.78082,-0.00430
4387.85209,-0.00432
4385.92336,-0.00428
4383.99464,-0.00418
4382.06591,-0.00409
4380.13718,-0.00400
4378.20846,-0.00394
4376.27973,-0.00398
4374.35101,-0.00407
4372.42228,-0.00416
4370.49355,-0.00420
4368.56483,-0.00411
4366.63610,-0.00399
4364.70737,-0.00388
4362.77865,-0.00377
4360.84992,-0.00370
4358.92120,-0.00371
4356.99247,-0.00369
4355.06374,-0.00365
4353.13502,-0.00368
4351.20629,-0.00375
4349.27757,-0.00372
4347.34884,-0.00365
4345.42011,-0.00364
4343.49139,-0.00358
4341.56266,-0.00344
4339.63393,-0.00333
4337.70521,-0.00330
4335.77648,-0.00330
4333.84776,-0.00330
4331.91903,-0.00331
4329.99030,-0.00329
4328.06158,-0.00323
4326.13285,-0.00323
4324.20412,-0.00325
4322.27540,-0.00321
4320.34667,-0.00316
4318.41795,-0.00316
4316.48922,-0.00326
4314.56049,-0.00347
4312.63177,-0.00367
4310.70304,-0.00373
4308.77432,-0.00372
4306.84559,-0.00369
4304.91686,-0.00364
4302.98814,-0.00363
4301.05941,-0.00365
4299.13068,-0.00368
4297.20196,-0.00368
4295.27323,-0.00367
4293.34451,-0.00371
4291.41578,-0.00380
4289.48705,-0.00389
4287.55833,-0.00390
4285.62960,-0.00386
4283.70087,-0.00385
4281.77215,-0.00385
4279.84342,-0.00384
4277.91470,-0.00379
4275.98597,-0.00369
4274.05724,-0.00360
4272.12852,-0.00355
4270.19979,-0.00365
4268.27107,-0.00379
4266.34234,-0.00382
4264.41361,-0.00379
4262.48489,-0.00383
4260.55616,-0.00392
4258.62743,-0.00398
4256.69871,-0.00392
4254.76998,-0.00381
4252.84126,-0.00377
4250.91253,-0.00385
4248.98380,-0.00395
4247.05508,-0.00396
4245.12635,-0.00389
4243.19762,-0.00385
4241.26890,-0.00385
4239.34017,-0.00391
4237.41145,-0.00398
4235.48272,-0.00394
4233.55399,-0.00384
4231.62527,-0.00381
4229.69654,-0.00386
4227.76782,-0.00390
4225.83909,-0.00386
4223.91036,-0.00374
4221.98164,-0.00367
4220.05291,-0.00370
4218.12418,-0.00380
4216.19546,-0.00391
4214.26673,-0.00392
4212.33801,-0.00385
4210.40928,-0.00378
4208.48055,-0.00378
4206.55183,-0.00380
4204.62310,-0.00380
4202.69437,-0.00377
4200.76565,-0.00377
4198.83692,-0.00385
4196.90820,-0.00392
4194.97947,-0.00387
4193.05074,-0.00371
4191.12202,-0.00355
4189.19329,-0.00353
4187.26456,-0.00366
4185.33584,-0.00378
4183.40711,-0.00376
4181.47839,-0.00373
4179.54966,-0.00377
4177.62093,-0.00375
4175.69221,-0.00365
4173.76348,-0.00360
4171.83476,-0.00361
4169.90603,-0.00355
4167.97730,-0.00345
4166.04858,-0.00340
4164.11985,-0.00346
4162.19112,-0.00355
4160.26240,-0.00352
4158.33367,-0.00341
4156.40495,-0.00335
4154.47622,-0.00335
4152.54749,-0.00334
4150.61877,-0.00336
4148.69004,-0.00342
4146.76131,-0.00348
4144.83259,-0.00356
4142.90386,-0.00351
4140.97514,-0.00332
4139.04641,-0.00318
4137.11768,-0.00321
4135.18896,-0.00327
4133.26023,-0.00333
4131.33151,-0.00341
4129.40278,-0.00350
4127.47405,-0.00359
4125.54533,-0.00361
4123.61660,-0.00353
4121.68787,-0.00341
4119.75915,-0.00330
4117.83042,-0.00318
4115.90170,-0.00313
4113.97297,-0.00317
4112.04424,-0.00325
4110.11552,-0.00327
4108.18679,-0.00312
4106.25806,-0.00291
4104.32934,-0.00293
4102.40061,-0.00311
4100.47189,-0.00319
4098.54316,-0.00315
4096.61443,-0.00313
4094.68571,-0.00312
4092.75698,-0.00304
4090.82826,-0.00285
4088.89953,-0.00270
4086.97080,-0.00267
4085.04208,-0.00268
4083.11335,-0.00264
4081.18462,-0.00258
4079.25590,-0.00255
4077.32717,-0.00253
4075.39845,-0.00251
4073.46972,-0.00254
4071.54099,-0.00267
4069.61227,-0.00278
4067.68354,-0.00280
4065.75481,-0.00276
4063.82609,-0.00264
4061.89736,-0.00247
4059.96864,-0.00241
4058.03991,-0.00255
4056.11118,-0.00270
4054.18246,-0.00273
4052.25373,-0.00272
4050.32501,-0.00265
4048.39628,-0.00248
4046.46755,-0.00222
4044.53883,-0.00210
4042.61010,-0.00227
4040.68137,-0.00250
4038.75265,-0.00258
4036.82392,-0.00251
4034.89520,-0.00242
4032.96647,-0.00240
4031.03774,-0.00247
4029.10902,-0.00251
4027.18029,-0.00237
4025.25156,-0.00217
4023.32284,-0.00208
4021.39411,-0.00211
4019.46539,-0.00216
4017.53666,-0.00221
4015.60793,-0.00219
4013.67921,-0.00216
4011.75048,-0.00210
4009.82176,-0.00191
4007.89303,-0.00180
4005.96430,-0.00195
4004.03558,-0.00219
4002.10685,-0.00236
4000.17812,-0.00241
3998.24940,-0.00227
3996.32067,-0.00196
3994.39195,-0.00165
3992.46322,-0.00143
3990.53449,-0.00148
3988.60577,-0.00190
3986.67704,-0.00224
3984.74831,-0.00220
3982.81959,-0.00202
3980.89086,-0.00195
3978.96214,-0.00176
3977.03341,-0.00126
3975.10468,-0.00090
3973.17596,-0.00103
3971.24723,-0.00129
3969.31851,-0.00164
3967.38978,-0.00203
3965.46105,-0.00194
3963.53233,-0.00137
3961.60360,-0.00107
3959.67487,-0.00122
3957.74615,-0.00135
3955.81742,-0.00145
3953.88870,-0.00147
3951.95997,-0.00100
3950.03124,-0.00019
3948.10252,-0.00002
3946.17379,-0.00033
3944.24506,-0.00037
3942.31634,-0.00062
3940.38761,-0.00126
3938.45889,-0.00174
3936.53016,-0.00166
3934.60143,-0.00072
3932.67271,0.00052
3930.74398,0.00040
3928.81526,-0.00050
3926.88653,-0.00044
3924.95780,0.00030
3923.02908,0.00023
3921.10035,-0.00009
3919.17162,0.00021
3917.24290,0.00012
3915.31417,-0.00097
3913.38545,-0.00195
3911.45672,-0.00227
3909.52799,-0.00195
3907.59927,-0.00070
3905.67054,0.00167
3903.74181,0.00368
3901.81309,0.00367
3899.88436,0.00243
3897.95564,0.00084
3896.02691,0.00017
3894.09818,0.00069
3892.16946,0.00116
3890.24073,0.00046
3888.31201,0.00022
3886.38328,0.00112
3884.45455,0.00191
3882.52583,0.00164
3880.59710,0.00059
3878.66837,-0.00048
3876.73965,-0.00060
3874.81092,0.00041
3872.88220,0.00197
3870.95347,0.00284
3869.02474,0.00247
3867.09602,0.00246
3865.16729,0.00339
3863.23856,0.00308
3861.30984,0.00143
3859.38111,0.00078
3857.45239,0.00155
3855.52366,0.00337
3853.59493,0.00481
3851.66621,0.00318
3849.73748,0.00118
3847.80876,0.00010
3845.88003,0.00021
3843.95130,0.00134
3842.02258,0.00300
3840.09385,0.00472
3838.16512,0.00480
3836.23640,0.00306
3834.30767,0.00155
3832.37895,0.00058
3830.45022,0.00024
3828.52149,0.00054
3826.59277,0.00107
3824.66404,0.00160
3822.73531,0.00263
3820.80659,0.00356
3818.87786,0.00298
3816.94914,0.00169
3815.02041,0.00000
3813.09168,-0.00113
3811.16296,-0.00142
3809.23423,-0.00090
3807.30550,0.00021
3805.37678,0.00115
3803.44805,0.00211
3801.51933,0.00287
3799.59060,0.00236
3797.66187,0.00124
3795.73315,-0.00029
3793.80442,-0.00149
3791.87570,-0.00195
3789.94697,-0.00177
3788.01824,-0.00110
3786.08952,-0.00040
3784.16079,-0.00042
3782.23206,-0.00063
3780.30334,-0.00050
3778.37461,-0.00081
3776.44589,-0.00145
3774.51716,-0.00152
3772.58843,-0.00078
3770.65971,0.00043
3768.73098,0.00103
3766.80225,0.00086
3764.87353,0.00039
3762.94480,0.00016
3761.01608,0.00080
3759.08735,0.00183
3757.15862,0.00213
3755.22990,0.00267
3753.30117,0.00469
3751.37245,0.00758
3749.44372,0.00733
3747.51499,0.00629
3745.58627,0.00552
3743.65754,0.00433
3741.72881,0.00368
3739.80009,0.00383
3737.87136,0.00485
3735.94264,0.00593
3734.01391,0.00459
3732.08518,0.00238
3730.15646,0.00137
3728.22773,0.00177
3726.29900,0.00299
3724.37028,0.00326
3722.44155,0.00214
3720.51283,0.00084
3718.58410,0.00006
3716.65537,0.00008
3714.72665,0.00099
3712.79792,0.00270
3710.86920,0.00297
3708.94047,0.00109
3707.01174,-0.00020
3705.08302,-0.00062
3703.15429,-0.00051
3701.22556,-0.00052
3699.29684,-0.00078
3697.36811,-0.00067
3695.43939,-0.00013
3693.51066,0.00091
3691.58193,0.00288
3689.65321,0.00413
3687.72448,0.00222
3685.79575,0.00048
3683.86703,-0.00022
3681.93830,-0.00000
3680.00958,0.00119
3678.08085,0.00304
3676.15212,0.00446
3674.22340,0.00430
3672.29467,0.00445
3670.36595,0.00437
3668.43722,0.00229
3666.50849,0.00048
3664.57977,-0.00035
3662.65104,-0.00048
3660.72231,-0.00008
3658.79359,0.00070
3656.86486,0.00162
3654.93614,0.00207
3653.00741,0.00270
3651.07868,0.00520
3649.14996,0.00848
3647.22123,0.00586
3645.29250,0.00335
3643.36378,0.00222
3641.43505,0.00161
3639.50633,0.00127
3637.57760,0.00133
3635.64887,0.00184
3633.72015,0.00276
3631.79142,0.00414
3629.86270,0.00590
3627.93397,0.00544
3626.00524,0.00359
3624.07652,0.00288
3622.14779,0.00368
3620.21906,0.00572
3618.29034,0.00676
3616.36161,0.00655
3614.43289,0.00653
3612.50416,0.00636
3610.57543,0.00621
3608.64671,0.00582
3606.71798,0.00460
3604.78925,0.00383
3602.86053,0.00425
3600.93180,0.00531
3599.00308,0.00584
3597.07435,0.00579
3595.14562,0.00543
3593.21690,0.00482
3591.28817,0.00495
3589.35945,0.00653
3587.43072,0.00775
3585.50199,0.00639
3583.57327,0.00506
3581.64454,0.00456
3579.71581,0.00445
3577.78709,0.00442
3575.85836,0.00442
3573.92964,0.00446
3572.00091,0.00485
3570.07218,0.00626
3568.14346,0.00886
3566.21473,0.00958
3564.28600,0.00772
3562.35728,0.00632
3560.42855,0.00552
3558.49983,0.00491
3556.57110,0.00482
3554.64237,0.00544
3552.71365,0.00599
3550.78492,0.00598
3548.85620,0.00645
3546.92747,0.00765
3544.99874,0.00773
3543.07002,0.00622
3541.14129,0.00494
3539.21256,0.00481
3537.28384,0.00533
3535.35511,0.00548
3533.42639,0.00554
3531.49766,0.00628
3529.56893,0.00743
3527.64021,0.00820
3525.71148,0.00849
3523.78275,0.00809
3521.85403,0.00695
3519.92530,0.00599
3517.99658,0.00552
3516.06785,0.00528
3514.13912,0.00546
3512.21040,0.00620
3510.28167,0.00671
3508.35295,0.00650
3506.42422,0.00663
3504.49549,0.00761
3502.56677,0.00796
3500.63804,0.00700
3498.70931,0.00614
3496.78059,0.00583
3494.85186,0.00556
3492.92314,0.00534
3490.99441,0.00553
3489.06568,0.00592
3487.13696,0.00605
3485.20823,0.00609
3483.27950,0.00641
3481.35078,0.00645
3479.42205,0.00581
3477.49333,0.00533
3475.56460,0.00534
3473.63587,0.00535
3471.70715,0.00524
3469.77842,0.00531
3467.84970,0.00550
3465.92097,0.00565
3463.99224,0.00588
3462.06352,0.00612
3460.13479,0.00610
3458.20606,0.00592
3456.27734,0.00573
3454.34861,0.00554
3452.41989,0.00547
3450.49116,0.00577
3448.56243,0.00638
3446.63371,0.00664
3444.70498,0.00638
3442.77625,0.00607
3440.84753,0.00577
3438.91880,0.00551
3436.99008,0.00539
3435.06135,0.00542
3433.13262,0.00555
3431.20390,0.00568
3429.27517,0.00573
3427.34644,0.00579
3425.41772,0.00608
3423.48899,0.00673
3421.56027,0.00729
3419.63154,0.00713
3417.70281,0.00665
3415.77409,0.00654
3413.84536,0.00673
3411.91664,0.00693
3409.98791,0.00709
3408.05918,0.00725
3406.13046,0.00750
3404.20173,0.00784
3402.27300,0.00822
3400.34428,0.00863
3398.41555,0.00912
3396.48683,0.00960
3394.55810,0.01009
3392.62937,0.01050
3390.70065,0.01066
3388.77192,0.01088
3386.84319,0.01146
3384.91447,0.01211
3382.98574,0.01251
3381.05702,0.01280
3379.12829,0.01320
3377.19956,0.01365
3375.27084,0.01413
3373.34211,0.01464
3371.41339,0.01521
3369.48466,0.01582
3367.55593,0.01637
3365.62721,0.01679
3363.69848,0.01715
3361.76975,0.01751
3359.84103,0.01788
3357.91230,0.01828
3355.98358,0.01864
3354.05485,0.01887
3352.12612,0.01908
3350.19740,0.01939
3348.26867,0.01976
3346.33994,0.02022
3344.41122,0.02079
3342.48249,0.02134
3340.55377,0.02192
3338.62504,0.02256
3336.69631,0.02311
3334.76759,0.02342
3332.83886,0.02365
3330.91014,0.02400
3328.98141,0.02452
3327.05268,0.02512
3325.12396,0.02566
3323.19523,0.02605
3321.26650,0.02636
3319.33778,0.02675
3317.40905,0.02723
3315.48033,0.02783
3313.55160,0.02850
3311.62287,0.02913
3309.69415,0.02961
3307.76542,0.02990
3305.83669,0.03010
3303.90797,0.03040
3301.97924,0.03075
3300.05052,0.03107
3298.12179,0.03127
3296.19306,0.03134
3294.26434,0.03143
3292.33561,0.03163
3290.40689,0.03180
3288.47816,0.03174
3286.54943,0.03157
3284.62071,0.03146
3282.69198,0.03134
3280.76325,0.03117
3278.83453,0.03103
3276.90580,0.03091
3274.97708,0.03071
3273.04835,0.03031
3271.11962,0.02978
3269.19090,0.02933
3267.26217,0.02898
3265.33344,0.02858
3263.40472,0.02807
3261.47599,0.02746
3259.54727,0.02684
3257.61854,0.02632
3255.68981,0.02582
3253.76109,0.02512
3251.83236,0.02431
3249.90364,0.02368
3247.97491,0.02326
3246.04618,0.02277
3244.11746,0.02203
3242.18873,0.02128
3240.26000,0.02062
3238.33128,0.01997
3236.40255,0.01937
3234.47383,0.01888
3232.54510,0.01846
3230.61637,0.01804
3228.68765,0.01749
3226.75892,0.01686
3224.83019,0.01632
3222.90147,0.01600
3220.97274,0.01582
3219.04402,0.01557
3217.11529,0.01526
3215.18656,0.01498
3213.25784,0.01469
3211.32911,0.01439
3209.40039,0.01413
3207.47166,0.01393
3205.54293,0.01379
3203.61421,0.01367
3201.68548,0.01353
3199.75675,0.01337
3197.82803,0.01313
3195.89930,0.01278
3193.97058,0.01249
3192.04185,0.01226
3190.11312,0.01199
3188.18440,0.01176
3186.25567,0.01161
3184.32694,0.01143
3182.39822,0.01121
3180.46949,0.01111
3178.54077,0.01102
3176.61204,0.01074
3174.68331,0.01041
3172.75459,0.01017
3170.82586,0.01001
3168.89714,0.00983
3166.96841,0.00963
3165.03968,0.00942
3163.11096,0.00926
3161.18223,0.00916
3159.25350,0.00912
3157.32478,0.00913
3155.39605,0.00914
3153.46733,0.00909
3151.53860,0.00903
3149.60987,0.00897
3147.68115,0.00886
3145.75242,0.00874
3143.82369,0.00869
3141.89497,0.00869
3139.96624,0.00870
3138.03752,0.00869
3136.10879,0.00866
3134.18006,0.00865
3132.25134,0.00862
3130.32261,0.00855
3128.39389,0.00854
3126.46516,0.00854
3124.53643,0.00856
3122.60771,0.00861
3120.67898,0.00860
3118.75025,0.00851
3116.82153,0.00838
3114.89280,0.00822
3112.96408,0.00806
3111.03535,0.00799
3109.10662,0.00798
3107.17790,0.00797
3105.24917,0.00800
3103.32044,0.00814
3101.39172,0.00825
3099.46299,0.00823
3097.53427,0.00821
3095.60554,0.00826
3093.67681,0.00828
3091.74809,0.00827
3089.81936,0.00832
3087.89063,0.00837
3085.96191,0.00840
3084.03318,0.00854
3082.10446,0.00878
3080.17573,0.00896
3078.24700,0.00896
3076.31828,0.00885
3074.38955,0.00876
3072.46083,0.00874
3070.53210,0.00880
3068.60337,0.00895
3066.67465,0.00909
3064.74592,0.00908
3062.81719,0.00891
3060.88847,0.00874
3058.95974,0.00877
3057.03102,0.00889
3055.10229,0.00887
3053.17356,0.00877
3051.24484,0.00878
3049.31611,0.00887
3047.38738,0.00886
3045.45866,0.00876
3043.52993,0.00874
3041.60121,0.00878
3039.67248,0.00883
3037.74375,0.00897
3035.81503,0.00925
3033.88630,0.00957
3031.95758,0.00974
3030.02885,0.00965
3028.10012,0.00947
3026.17140,0.00939
3024.24267,0.00935
3022.31394,0.00928
3020.38522,0.00919
3018.45649,0.00915
3016.52777,0.00937
3014.59904,0.00985
3012.67031,0.01041
3010.74159,0.01091
3008.81286,0.01139
3006.88413,0.01209
3004.95541,0.01313
3003.02668,0.01448
3001.09796,0.01614
2999.16923,0.01819
2997.24050,0.02068
2995.31178,0.02367
2993.38305,0.02711
2991.45433,0.03089
2989.52560,0.03502
2987.59687,0.03945
2985.66815,0.04406
2983.73942,0.04883
2981.81069,0.05370
2979.88197,0.05855
2977.95324,0.06329
2976.02452,0.06779
2974.09579,0.07175
2972.16706,0.07445
2970.23834,0.07500
2968.30961,0.07287
2966.38088,0.06817
2964.45216,0.06178
2962.52343,0.05501
2960.59471,0.04902
2958.66598,0.04445
2956.73725,0.04146
2954.80853,0.03983
2952.87980,0.03923
2950.95108,0.03945
2949.02235,0.04040
2947.09362,0.04205
2945.16490,0.04443
2943.23617,0.04759
2941.30744,0.05144
2939.37872,0.05575
2937.44999,0.06014
2935.52127,0.06416
2933.59254,0.06725
2931.66381,0.06908
2929.73509,0.06968
2927.80636,0.06940
2925.87763,0.06870
2923.94891,0.06785
2922.02018,0.06707
2920.09146,0.06649
2918.16273,0.06618
2916.23400,0.06623
2914.30528,0.06666
2912.37655,0.06737
2910.44783,0.06829
2908.51910,0.06937
2906.59037,0.07062
2904.66165,0.07196
2902.73292,0.07323
2900.80419,0.07430
2898.87547,0.07510
2896.94674,0.07563
2895.01802,0.07593
2893.08929,0.07604
2891.16056,0.07604
2889.23184,0.07611
2887.30311,0.07641
2885.37438,0.07704
2883.44566,0.07805
2881.51693,0.07946
2879.58821,0.08117
2877.65948,0.08308
2875.73075,0.08504
2873.80203,0.08681
2871.87330,0.08821
2869.94458,0.08910
2868.01585,0.08930
2866.08712,0.08870
2864.15840,0.08740
2862.22967,0.08542
2860.30094,0.08278
2858.37222,0.07953
2856.44349,0.07576
2854.51477,0.07156
2852.58604,0.06702
2850.65731,0.06221
2848.72859,0.05725
2846.79986,0.05232
2844.87113,0.04756
2842.94241,0.04309
2841.01368,0.03896
2839.08496,0.03523
2837.15623,0.03192
2835.22750,0.02904
2833.29878,0.02660
2831.37005,0.02462
2829.44133,0.02298
2827.51260,0.02158
2825.58387,0.02041
2823.65515,0.01948
2821.72642,0.01874
2819.79769,0.01813
2817.86897,0.01763
2815.94024,0.01721
2814.01152,0.01686
2812.08279,0.01658
2810.15406,0.01631
2808.22534,0.01607
2806.29661,0.01586
2804.36788,0.01570
2802.43916,0.01556
2800.51043,0.01544
2798.58171,0.01529
2796.65298,0.01511
2794.72425,0.01491
2792.79553,0.01472
2790.86680,0.01454
2788.93808,0.01434
2787.00935,0.01413
2785.08062,0.01391
2783.15190,0.01371
2781.22317,0.01349
2779.29444,0.01326
2777.36572,0.01302
2775.43699,0.01279
2773.50827,0.01255
2771.57954,0.01229
2769.65081,0.01203
2767.72209,0.01182
2765.79336,0.01165
2763.86463,0.01147
2761.93591,0.01127
2760.00718,0.01108
2758.07846,0.01090
2756.14973,0.01070
2754.22100,0.01049
2752.29228,0.01030
2750.36355,0.01016
2748.43483,0.01004
2746.50610,0.00990
2744.57737,0.00974
2742.64865,0.00958
2740.71992,0.00947
2738.79119,0.00938
2736.86247,0.00926
2734.93374,0.00911
2733.00502,0.00895
2731.07629,0.00882
2729.14756,0.00870
2727.21884,0.00857
2725.29011,0.00840
2723.36138,0.00824
2721.43266,0.00807
2719.50393,0.00785
2717.57521,0.00761
2715.64648,0.00741
2713.71775,0.00726
2711.78903,0.00711
2709.86030,0.00696
2707.93157,0.00687
2706.00285,0.00681
2704.07412,0.00674
2702.14540,0.00667
2700.21667,0.00661
2698.28794,0.00653
2696.35922,0.00640
2694.43049,0.00623
2692.50177,0.00612
2690.57304,0.00605
2688.64431,0.00598
2686.71559,0.00594
2684.78686,0.00590
2682.85813,0.00585
2680.92941,0.00582
2679.00068,0.00582
2677.07196,0.00581
2675.14323,0.00578
2673.21450,0.00573
2671.28578,0.00569
2669.35705,0.00568
2667.42832,0.00565
2665.49960,0.00561
2663.57087,0.00554
2661.64215,0.00545
2659.71342,0.00535
2657.78469,0.00525
2655.85597,0.00512
2653.92724,0.00500
2651.99852,0.00492
2650.06979,0.00483
2648.14106,0.00472
2646.21234,0.00458
2644.28361,0.00448
2642.35488,0.00443
2640.42616,0.00438
2638.49743,0.00432
2636.56871,0.00424
2634.63998,0.00413
2632.71125,0.00404
2630.78253,0.00397
2628.85380,0.00388
2626.92507,0.00379
2624.99635,0.00372
2623.06762,0.00362
2621.13890,0.00348
2619.21017,0.00338
2617.28144,0.00336
2615.35272,0.00338
2613.42399,0.00332
2611.49527,0.00323
2609.56654,0.00322
2607.63781,0.00325
2605.70909,0.00328
2603.78036,0.00333
2601.85163,0.00338
2599.92291,0.00335
2597.99418,0.00331
2596.06546,0.00331
2594.13673,0.00332
2592.20800,0.00331
2590.27928,0.00326
2588.35055,0.00321
2586.42182,0.00317
2584.49310,0.00315
2582.56437,0.00313
2580.63565,0.00311
2578.70692,0.00305
2576.77819,0.00295
2574.84947,0.00283
2572.92074,0.00272
2570.99202,0.00263
2569.06329,0.00255
2567.13456,0.00248
2565.20584,0.00241
2563.27711,0.00229
2561.34838,0.00217
2559.41966,0.00211
2557.49093,0.00212
2555.56221,0.00214
2553.63348,0.00217
2551.70475,0.00215
2549.77603,0.00208
2547.84730,0.00203
2545.91857,0.00206
2543.98985,0.00211
2542.06112,0.00211
2540.13240,0.00210
2538.20367,0.00213
2536.27494,0.00218
2534.34622,0.00215
2532.41749,0.00207
2530.48877,0.00203
2528.56004,0.00202
2526.63131,0.00198
2524.70259,0.00196
2522.77386,0.00200
2520.84513,0.00203
2518.91641,0.00205
2516.98768,0.00204
2515.05896,0.00199
2513.13023,0.00194
2511.20150,0.00194
2509.27278,0.00199
2507.34405,0.00205
2505.41532,0.00208
2503.48660,0.00206
2501.55787,0.00200
2499.62915,0.00195
2497.70042,0.00196
2495.77169,0.00197
2493.84297,0.00198
2491.91424,0.00202
2489.98552,0.00207
2488.05679,0.00208
2486.12806,0.00203
2484.19934,0.00198
2482.27061,0.00192
2480.34188,0.00187
2478.41316,0.00191
2476.48443,0.00200
2474.55571,0.00205
2472.62698,0.00207
2470.69825,0.00210
2468.76953,0.00209
2466.84080,0.00201
2464.91207,0.00193
2462.98335,0.00192
2461.05462,0.00193
2459.12590,0.00189
2457.19717,0.00183
2455.26844,0.00178
2453.33972,0.00175
2451.41099,0.00173
2449.48227,0.00174
2447.55354,0.00173
2445.62481,0.00169
2443.69609,0.00167
2441.76736,0.00164
2439.83863,0.00165
2437.90991,0.00173
2435.98118,0.00182
2434.05246,0.00187
2432.12373,0.00195
2430.19500,0.00204
2428.26628,0.00200
2426.33755,0.00188
2424.40882,0.00183
2422.48010,0.00184
2420.55137,0.00182
2418.62265,0.00184
2416.69392,0.00190
2414.76519,0.00191
2412.83647,0.00190
2410.90774,0.00193
2408.97902,0.00196
2407.05029,0.00199
2405.12156,0.00204
2403.19284,0.00209
2401.26411,0.00216
2399.33538,0.00221
2397.40666,0.00221
2395.47793,0.00220
2393.54921,0.00222
2391.62048,0.00225
2389.69175,0.00231
2387.76303,0.00242
2385.83430,0.00265
2383.90557,0.00289
2381.97685,0.00301
2380.04812,0.00290
2378.11940,0.00250
2376.19067,0.00184
2374.26194,0.00103
2372.33322,0.00001
2370.40449,-0.00137
2368.47576,-0.00275
2366.54704,-0.00369
2364.61831,-0.00443
2362.68959,-0.00506
2360.76086,-0.00517
2358.83213,-0.00487
2356.90341,-0.00415
2354.97468,-0.00281
2353.04596,-0.00109
2351.11723,0.00034
2349.18850,0.00090
2347.25978,0.00045
2345.33105,-0.00091
2343.40232,-0.00227
2341.47360,-0.00281
2339.54487,-0.00294
2337.61615,-0.00300
2335.68742,-0.00277
2333.75869,-0.00214
2331.82997,-0.00138
2329.90124,-0.00086
2327.97251,-0.00050
2326.04379,0.00003
2324.11506,0.00071
2322.18634,0.00136
2320.25761,0.00182
2318.32888,0.00208
2316.40016,0.00233
2314.47143,0.00268
2312.54271,0.00306
2310.61398,0.00338
2308.68525,0.00357
2306.75653,0.00367
2304.82780,0.00371
2302.89907,0.00367
2300.97035,0.00358
2299.04162,0.00355
2297.11290,0.00359
2295.18417,0.00366
2293.25544,0.00375
2291.32672,0.00384
2289.39799,0.00395
2287.46926,0.00406
2285.54054,0.00416
2283.61181,0.00423
2281.68309,0.00425
2279.75436,0.00424
2277.82563,0.00429
2275.89691,0.00437
2273.96818,0.00437
2272.03946,0.00432
2270.11073,0.00425
2268.18200,0.00407
2266.25328,0.00384
2264.32455,0.00371
2262.39582,0.00366
2260.46710,0.00357
2258.53837,0.00341
2256.60965,0.00324
2254.68092,0.00313
2252.75219,0.00311
2250.82347,0.00307
2248.89474,0.00299
2246.96601,0.00292
2245.03729,0.00288
2243.10856,0.00280
2241.17984,0.00263
2239.25111,0.00245
2237.32238,0.00236
2235.39366,0.00230
2233.46493,0.00218
2231.53621,0.00209
2229.60748,0.00213
2227.67875,0.00216
2225.75003,0.00206
2223.82130,0.00195
2221.89257,0.00186
2219.96385,0.00177
2218.03512,0.00171
2216.10640,0.00160
2214.17767,0.00141
2212.24894,0.00131
2210.32022,0.00145
2208.39149,0.00165
2206.46276,0.00159
2204.53404,0.00135
2202.60531,0.00130
2200.67659,0.00128
2198.74786,0.00105
2196.81913,0.00087
2194.89041,0.00086
2192.96168,0.00075
2191.03296,0.00060
2189.10423,0.00056
2187.17550,0.00045
2185.24678,0.00016
2183.31805,-0.00012
2181.38932,-0.00015
2179.46060,0.00002
2177.53187,0.00010
2175.60315,-0.00001
2173.67442,-0.00026
2171.74569,-0.00054
2169.81697,-0.00065
2167.88824,-0.00061
2165.95951,-0.00072
2164.03079,-0.00098
2162.10206,-0.00120
2160.17334,-0.00131
2158.24461,-0.00096
2156.31588,-0.00027
2154.38716,0.00023
2152.45843,0.00056
2150.52971,0.00080
2148.60098,0.00086
2146.67225,0.00081
2144.74353,0.00081
2142.81480,0.00093
2140.88607,0.00106
2138.95735,0.00116
2137.02862,0.00122
2135.09990,0.00125
2133.17117,0.00130
2131.24244,0.00137
2129.31372,0.00144
2127.38499,0.00144
2125.45626,0.00137
2123.52754,0.00133
2121.59881,0.00133
2119.67009,0.00135
2117.74136,0.00143
2115.81263,0.00151
2113.88391,0.00148
2111.95518,0.00137
2110.02646,0.00136
2108.09773,0.00144
2106.16900,0.00152
2104.24028,0.00152
2102.31155,0.00147
2100.38282,0.00149
2098.45410,0.00161
2096.52537,0.00181
2094.59665,0.00205
2092.66792,0.00227
2090.73919,0.00240
2088.81047,0.00240
2086.88174,0.00231
2084.95301,0.00221
2083.02429,0.00216
2081.09556,0.00225
2079.16684,0.00237
2077.23811,0.00238
2075.30938,0.00230
2073.38066,0.00226
2071.45193,0.00234
2069.52321,0.00256
2067.59448,0.00293
2065.66575,0.00321
2063.73703,0.00310
2061.80830,0.00286
2059.87957,0.00276
2057.95085,0.00275
2056.02212,0.00272
2054.09340,0.00267
2052.16467,0.00254
2050.23594,0.00226
2048.30722,0.00208
2046.37849,0.00219
2044.44976,0.00249
2042.52104,0.00283
2040.59231,0.00292
2038.66359,0.00276
2036.73486,0.00272
2034.80613,0.00277
2032.87741,0.00263
2030.94868,0.00257
2029.01996,0.00273
2027.09123,0.00284
2025.16250,0.00289
2023.23378,0.00289
2021.30505,0.00293
2019.37632,0.00325
2017.44760,0.00356
2015.51887,0.00334
2013.59015,0.00299
2011.66142,0.00289
2009.73269,0.00296
2007.80397,0.00307
2005.87524,0.00310
2003.94651,0.00310
2002.01779,0.00318
2000.08906,0.00325
1998.16034,0.00325
1996.23161,0.00337
1994.30288,0.00390
1992.37416,0.00451
1990.44543,0.00450
1988.51670,0.00402
1986.58798,0.00360
1984.65925,0.00338
1982.73053,0.00321
1980.80180,0.00302
1978.87307,0.00290
1976.94435,0.00290
1975.01562,0.00295
1973.08690,0.00313
1971.15817,0.00351
1969.22944,0.00406
1967.30072,0.00430
1965.37199,0.00384
1963.44326,0.00336
1961.51454,0.00332
1959.58581,0.00352
1957.65709,0.00382
1955.72836,0.00403
1953.79963,0.00399
1951.87091,0.00381
1949.94218,0.00378
1948.01345,0.00411
1946.08473,0.00476
1944.15600,0.00531
1942.22728,0.00524
1940.29855,0.00464
1938.36982,0.00422
1936.44110,0.00418
1934.51237,0.00423
1932.58365,0.00412
1930.65492,0.00393
1928.72619,0.00386
1926.79747,0.00421
1924.86874,0.00520
1922.94001,0.00608
1921.01129,0.00601
1919.08256,0.00564
1917.15384,0.00523
1915.22511,0.00475
1913.29638,0.00474
1911.36766,0.00531
1909.43893,0.00577
1907.51020,0.00543
1905.58148,0.00480
1903.65275,0.00448
1901.72403,0.00444
1899.79530,0.00452
1897.86657,0.00481
1895.93785,0.00519
1894.00912,0.00528
1892.08040,0.00536
1890.15167,0.00556
1888.22294,0.00544
1886.29422,0.00518
1884.36549,0.00502
1882.43676,0.00484
1880.50804,0.00474
1878.57931,0.00474
1876.65059,0.00473
1874.72186,0.00482
1872.79313,0.00547
1870.86441,0.00690
1868.93568,0.00805
1867.00695,0.00719
1865.07823,0.00590
1863.14950,0.00538
1861.22078,0.00535
1859.29205,0.00528
1857.36332,0.00501
1855.43460,0.00479
1853.50587,0.00477
1851.57715,0.00503
1849.64842,0.00579
1847.71969,0.00704
1845.79097,0.00829
1843.86224,0.00820
1841.93351,0.00687
1840.00479,0.00607
1838.07606,0.00597
1836.14734,0.00596
1834.21861,0.00599
1832.28988,0.00652
1830.36116,0.00735
1828.43243,0.00753
1826.50370,0.00742
1824.57498,0.00725
1822.64625,0.00664
1820.71753,0.00610
1818.78880,0.00606
1816.86007,0.00617
1814.93135,0.00644
1813.00262,0.00720
1811.07390,0.00792
1809.14517,0.00782
1807.21644,0.00744
1805.28772,0.00755
1803.35899,0.00844
1801.43026,0.00948
1799.50154,0.00971
1797.57281,0.00983
1795.64409,0.01038
1793.71536,0.01113
1791.78663,0.01111
1789.85791,0.00986
1787.92918,0.00898
1786.00045,0.00901
1784.07173,0.00950
1782.14300,0.01009
1780.21428,0.01048
1778.28555,0.01049
1776.35682,0.01075
1774.42810,0.01181
1772.49937,0.01309
1770.57065,0.01306
1768.64192,0.01227
1766.71319,0.01160
1764.78447,0.01163
1762.85574,0.01265
1760.92701,0.01395
1758.99829,0.01484
1757.06956,0.01573
1755.14084,0.01676
1753.21211,0.01876
1751.28338,0.02303
1749.35466,0.02889
1747.42593,0.03307
1745.49720,0.03643
1743.56848,0.04052
1741.63975,0.04574
1739.71103,0.05265
1737.78230,0.05887
1735.85357,0.06451
1733.92485,0.07395
1731.99612,0.08071
1730.06740,0.08174
1728.13867,0.08157
1726.20994,0.08134
1724.28122,0.08114
1722.35249,0.08070
1720.42376,0.08050
1718.49504,0.08169
1716.56631,0.08290
1714.63759,0.07947
1712.70886,0.07588
1710.78013,0.07361
1708.85141,0.07241
1706.92268,0.07185
1704.99395,0.07086
1703.06523,0.06948
1701.13650,0.06840
1699.20778,0.06751
1697.27905,0.06485
1695.35032,0.06013
1693.42160,0.05719
1691.49287,0.05628
1689.56415,0.05649
1687.63542,0.05692
1685.70669,0.05726
1683.77797,0.05736
1681.84924,0.05626
1679.92051,0.05475
1677.99179,0.05371
1676.06306,0.05372
1674.13434,0.05444
1672.20561,0.05534
1670.27688,0.05638
1668.34816,0.05613
1666.41943,0.05568
1664.49070,0.05660
1662.56198,0.05884
1660.63325,0.06050
1658.70453,0.06184
1656.77580,0.06390
1654.84707,0.06754
1652.91835,0.07518
1650.98962,0.07937
1649.06090,0.08239
1647.13217,0.09024
1645.20344,0.09688
1643.27472,0.09930
1641.34599,0.10126
1639.41726,0.10264
1637.48854,0.10075
1635.55981,0.08878
1633.63109,0.07709
1631.70236,0.07096
1629.77363,0.06626
1627.84491,0.06248
1625.91618,0.06078
1623.98745,0.06116
1622.05873,0.06214
1620.13000,0.06280
1618.20128,0.06440
1616.27255,0.06730
1614.34382,0.06925
1612.41510,0.07133
1610.48637,0.07514
1608.55764,0.08044
1606.62892,0.08535
1604.70019,0.08941
1602.77147,0.09289
1600.84274,0.09486
1598.91401,0.09513
1596.98529,0.09439
1595.05656,0.09250
1593.12784,0.08952
1591.19911,0.08601
1589.27038,0.08194
1587.34166,0.07741
1585.41293,0.07281
1583.48420,0.06834
1581.55548,0.06467
1579.62675,0.06266
1577.69803,0.06273
1575.76930,0.06478
1573.84057,0.06692
1571.91185,0.07032
1569.98312,0.07840
1568.05439,0.08827
1566.12567,0.09534
1564.19694,0.10222
1562.26822,0.10801
1560.33949,0.11476
1558.41076,0.13311
1556.48204,0.14365
1554.55331,0.14698
1552.62459,0.15018
1550.69586,0.15384
1548.76713,0.15750
1546.83841,0.16074
1544.90968,0.16547
1542.98095,0.17244
1541.05223,0.17814
1539.12350,0.17853
1537.19478,0.17819
1535.26605,0.17852
1533.33732,0.17833
1531.40860,0.17627
1529.47987,0.17401
1527.55114,0.17154
1525.62242,0.16753
1523.69369,0.16241
1521.76497,0.15304
1519.83624,0.14313
1517.90751,0.13693
1515.97879,0.13094
1514.05006,0.12717
1512.12134,0.12634
1510.19261,0.12769
1508.26388,0.12960
1506.33516,0.12476
1504.40643,0.11993
1502.47770,0.11732
1500.54898,0.11481
1498.62025,0.11115
1496.69153,0.10487
1494.76280,0.09941
1492.83407,0.09708
1490.90535,0.09672
1488.97662,0.09563
1487.04789,0.09252
1485.11917,0.09079
1483.19044,0.09150
1481.26172,0.09446
1479.33299,0.09836
1477.40426,0.10260
1475.47554,0.10727
1473.54681,0.10906
1471.61809,0.10480
1469.68936,0.10144
1467.76063,0.10045
1465.83191,0.10114
1463.90318,0.10271
1461.97445,0.10425
1460.04573,0.10687
1458.11700,0.11393
1456.18828,0.12206
1454.25955,0.12252
1452.33082,0.12217
1450.40210,0.12205
1448.47337,0.12064
1446.54464,0.11630
1444.61592,0.11019
1442.68719,0.10331
1440.75847,0.09652
1438.82974,0.09028
1436.90101,0.08184
1434.97229,0.07276
1433.04356,0.06765
1431.11484,0.06466
1429.18611,0.06266
1427.25738,0.06193
1425.32866,0.06267
1423.39993,0.06452
1421.47120,0.06700
1419.54248,0.07138
1417.61375,0.07591
1415.68503,0.07722
1413.75630,0.07784
1411.82757,0.07837
1409.89885,0.07790
1407.97012,0.07678
1406.04139,0.07550
1404.11267,0.07360
1402.18394,0.07188
1400.25522,0.07131
1398.32649,0.07148
1396.39776,0.07140
1394.46904,0.07050
1392.54031,0.06977
1390.61159,0.07052
1388.68286,0.07344
1386.75413,0.07810
1384.82541,0.08289
1382.89668,0.08933
1380.96795,0.09945
1379.03923,0.11249
1377.11050,0.12568
1375.18178,0.13709
1373.25305,0.14167
1371.32432,0.13613
1369.39560,0.12290
1367.46687,0.10598
1365.53814,0.09174
1363.60942,0.07998
1361.68069,0.06918
1359.75197,0.06252
1357.82324,0.05990
1355.89451,0.05978
1353.96579,0.06125
1352.03706,0.06367
1350.10834,0.06680
1348.17961,0.07005
1346.25088,0.07274
1344.32216,0.07492
1342.39343,0.07704
1340.46470,0.07879
1338.53598,0.07773
1336.60725,0.07419
1334.67853,0.07124
1332.74980,0.06953
1330.82107,0.06866
1328.89235,0.06827
1326.96362,0.06843
1325.03489,0.06933
1323.10617,0.07092
1321.17744,0.07319
1319.24872,0.07581
1317.31999,0.07812
1315.39126,0.08021
1313.46254,0.08243
1311.53381,0.08444
1309.60509,0.08635
1307.67636,0.08853
1305.74763,0.09092
1303.81891,0.09356
1301.89018,0.09641
1299.96145,0.09921
1298.03273,0.10147
1296.10400,0.10244
1294.17528,0.10166
1292.24655,0.09950
1290.31782,0.09673
1288.38910,0.09402
1286.46037,0.09193
1284.53164,0.09085
1282.60292,0.09079
1280.67419,0.09130
1278.74547,0.09191
1276.81674,0.09258
1274.88801,0.09345
1272.95929,0.09457
1271.03056,0.09577
1269.10183,0.09693
1267.17311,0.09820
1265.24438,0.09957
1263.31566,0.10082
1261.38693,0.10175
1259.45820,0.10219
1257.52948,0.10236
1255.60075,0.10283
1253.67203,0.10403
1251.74330,0.10606
1249.81457,0.10896
1247.88585,0.11280
1245.95712,0.11764
1244.02839,0.12334
1242.09967,0.12970
1240.17094,0.13663
1238.24222,0.14403
1236.31349,0.15162
1234.38476,0.15917
1232.45604,0.16644
1230.52731,0.17310
1228.59858,0.17871
1226.66986,0.18270
1224.74113,0.18442
1222.81241,0.18356
1220.88368,0.18034
1218.95495,0.17520
1217.02623,0.16873
1215.09750,0.16167
1213.16878,0.15455
1211.24005,0.14780
1209.31132,0.14186
1207.38260,0.13694
1205.45387,0.13288
1203.52514,0.12921
1201.59642,0.12530
1199.66769,0.12080
1197.73897,0.11584
1195.81024,0.11112
1193.88151,0.10744
1191.95279,0.10526
1190.02406,0.10434
1188.09533,0.10414
1186.16661,0.10414
1184.23788,0.10418
1182.30916,0.10439
1180.38043,0.10511
1178.45170,0.10669
1176.52298,0.10930
1174.59425,0.11287
1172.66553,0.11717
1170.73680,0.12207
1168.80807,0.12751
1166.87935,0.13332
1164.95062,0.13917
1163.02189,0.14486
1161.09317,0.15043
1159.16444,0.15592
1157.23572,0.16126
1155.30699,0.16637
1153.37826,0.17126
1151.44954,0.17599
1149.52081,0.18064
1147.59208,0.18544
1145.66336,0.19063
1143.73463,0.19634
1141.80591,0.20272
1139.87718,0.20984
1137.94845,0.21764
1136.01973,0.22594
1134.09100,0.23450
1132.16228,0.24318
1130.23355,0.25208
1128.30482,0.26150
1126.37610,0.27187
1124.44737,0.28357
1122.51864,0.29659
1120.58992,0.31058
1118.66119,0.32506
1116.73247,0.33983
1114.80374,0.35453
1112.87501,0.36858
1110.94629,0.38182
1109.01756,0.39427
1107.08883,0.40580
1105.16011,0.41595
1103.23138,0.42462
1101.30266,0.43199
1099.37393,0.43812
1097.44520,0.44288
1095.51648,0.44610
1093.58775,0.44800
1091.65903,0.44871
1089.73030,0.44833
1087.80157,0.44692
1085.87285,0.44442
1083.94412,0.44071
1082.01539,0.43561
1080.08667,0.42891
1078.15794,0.42065
1076.22922,0.41116
1074.30049,0.40073
1072.37176,0.38968
1070.44304,0.37832
1068.51431,0.36674
1066.58558,0.35502
1064.65686,0.34327
1062.72813,0.33142
1060.79941,0.31932
1058.87068,0.30694
1056.94195,0.29412
1055.01323,0.28074
1053.08450,0.26697
1051.15578,0.25303
1049.22705,0.23911
1047.29832,0.22552
1045.36960,0.21269
1043.44087,0.20111
1041.51214,0.19093
1039.58342,0.18191
1037.65469,0.17376
1035.72597,0.16635
1033.79724,0.15955
1031.86851,0.15359
1029.93979,0.14901
1028.01106,0.14622
1026.08233,0.14537
1024.15361,0.14642
1022.22488,0.14898
1020.29616,0.15228
1018.36743,0.15545
1016.43870,0.15775
1014.50998,0.15867
1012.58125,0.15814
1010.65253,0.15657
1008.72380,0.15471
1006.79507,0.15295
1004.86635,0.15114
1002.93762,0.14869
1001.00889,0.14475
999.08017,0.13852
997.15144,0.13011
995.22272,0.12065
993.29399,0.11139
991.36526,0.10303
989.43654,0.09582
987.50781,0.08995
985.57908,0.08549
983.65036,0.08226
981.72163,0.07994
979.79291,0.07829
977.86418,0.07718
975.93545,0.07653
974.00673,0.07630
972.07800,0.07634
970.14928,0.07626
968.22055,0.07573
966.29182,0.07468
964.36310,0.07320
962.43437,0.07145
960.50564,0.06962
958.57692,0.06772
956.64819,0.06583
954.71947,0.06430
952.79074,0.06350
950.86201,0.06369
948.93329,0.06530
947.00456,0.06852
945.07583,0.07302
943.14711,0.07836
941.21838,0.08404
939.28966,0.08940
937.36093,0.09398
935.43220,0.09777
933.50348,0.10090
931.57475,0.10339
929.64603,0.10528
927.71730,0.10647
925.78857,0.10665
923.85985,0.10560
921.93112,0.10340
920.00239,0.10022
918.07367,0.09657
916.14494,0.09332
914.21622,0.09098
912.28749,0.08952
910.35876,0.08864
908.43004,0.08778
906.50131,0.08627
904.57258,0.08363
902.64386,0.07997
900.71513,0.07605
898.78641,0.07255
896.85768,0.06978
894.92895,0.06797
893.00023,0.06715
891.07150,0.06707
889.14277,0.06748
887.21405,0.06832
885.28532,0.06945
883.35660,0.07046
881.42787,0.07126
879.49914,0.07216
877.57042,0.07326
875.64169,0.07445
873.71297,0.07569
871.78424,0.07686
869.85551,0.07759
867.92679,0.07762
865.99806,0.07694
864.06933,0.07586
862.14061,0.07476
860.21188,0.07368
858.28316,0.07244
856.35443,0.07109
854.42570,0.06990
852.49698,0.06895
850.56825,0.06817
848.63952,0.06754
846.71080,0.06727
844.78207,0.06746
842.85335,0.06791
840.92462,0.06849
838.99589,0.06932
837.06717,0.07051
835.13844,0.07210
833.20972,0.07409
831.28099,0.07645
829.35226,0.07923
827.42354,0.08252
825.49481,0.08623
823.56608,0.08996
821.63736,0.09343
819.70863,0.09638
817.77991,0.09812
815.85118,0.09825
813.92245,0.09713
811.99373,0.09524
810.06500,0.09272
808.13627,0.08972
806.20755,0.08652
804.27882,0.08335
802.35010,0.08045
800.42137,0.07798
798.49264,0.07568
796.56392,0.07329
794.63519,0.07114
792.70647,0.06948
790.77774,0.06811
788.84901,0.06716
786.92029,0.06683
784.99156,0.06690
783.06283,0.06712
781.13411,0.06755
779.20538,0.06863
777.27666,0.07064
775.34793,0.07334
773.41920,0.07609
771.49048,0.07819
769.56175,0.07924
767.63302,0.07935
765.70430,0.07890
763.77557,0.07820
761.84685,0.07744
759.91812,0.07655
757.98939,0.07563
756.06067,0.07490
754.13194,0.07408
752.20322,0.07269
750.27449,0.07091
748.34576,0.06931
746.41704,0.06793
744.48831,0.06631
742.55958,0.06443
740.63086,0.06270
738.70213,0.06146
736.77341,0.06091
734.84468,0.06096
732.91595,0.06121
730.98723,0.06162
729.05850,0.06229
727.12977,0.06295
725.20105,0.06360
723.27232,0.06463
721.34360,0.06622
719.41487,0.06804
717.48614,0.06984
715.55742,0.07176
713.62869,0.07381
711.69997,0.07552
709.77124,0.07643
707.84251,0.07656
705.91379,0.07636
703.98506,0.07622
702.05633,0.07634
700.12761,0.07698
698.19888,0.07812
696.27016,0.07945
694.34143,0.08072
692.41270,0.08184
690.48398,0.08290
688.55525,0.08405
686.62652,0.08524
684.69780,0.08638
682.76907,0.08748
680.84035,0.08860
678.91162,0.08974
676.98289,0.09093
675.05417,0.09208
673.12544,0.09297
671.19672,0.09363
669.26799,0.09432
667.33926,0.09514
665.41054,0.09559
663.48181,0.09565
661.55308,0.09524
659.62436,0.09426
657.69563,0.09301
655.76691,0.09195
653.83818,0.09107
651.90945,0.09017
649.98073,0.08924
648.05200,0.08836
646.12327,0.08770
644.19455,0.08732
642.26582,0.08712
640.33710,0.08682
638.40837,0.08631
636.47964,0.08572
634.55092,0.08499
632.62219,0.08397
630.69347,0.08283
628.76474,0.08192
626.83601,0.08129
624.90729,0.08040
622.97856,0.07854
621.04983,0.07651
619.12111,0.07664
617.19238,0.07890
615.26366,0.08021
613.33493,0.08017
611.40620,0.07939
609.47748,0.07660
607.54875,0.07483
605.62002,0.07628
603.69130,0.07889
601.76257,0.08142
599.83385,0.08330
