##Temp./°C,Time/min,Mass(subtr.2)/%,DSC(subtr.2)/(mW/mg),Sensit./(uV/mW)
49.232,10.01,99.21576,0.01681189,1.03587
49.332,10.63827,99.12661,0.02260916,1.03587
49.432,10.900689999999999,99.12679,0.02834913,1.03586
49.532,11.08145,99.17135,0.04123044,1.03586
49.632,11.20631,99.12306,0.04694675,1.03585
49.732,11.30446,99.11997,0.05341185,1.03585
49.832,11.3923,99.14321,0.06121454,1.0358399999999999
49.932,11.46925,99.12404000000001,0.06867692,1.0358399999999999
50.032,11.53939,99.15964,0.07673947,1.03583
50.132,11.60363,99.12512,0.08141961,1.03583
50.232,11.6632,99.15406999999999,0.08860856,1.03582
50.332,11.71862,99.13224,0.09404341,1.03582
50.432,11.77139,99.1369,0.09690593,1.0358100000000001
50.532,11.82075,99.09876,0.106,1.0358100000000001
50.632,11.86941,99.12464,0.10859,1.0358
50.732,11.91475,99.08538,0.11259000000000001,1.0358
50.832,11.95885,99.09589,0.11918,1.03579
50.932,12.00164,99.08759,0.1221,1.03579
51.032,12.04272,99.0901,0.12821,1.03578
51.132,12.082310000000001,99.07415999999999,0.1333,1.03578
51.232,12.12176,99.04404,0.13504000000000002,1.03577
51.332,12.15926,99.07296,0.14138,1.03577
51.432,12.19592,99.09401,0.14458,1.03576
51.532,12.2319,99.12087,0.14712,1.03576
51.632,12.266589999999999,99.12408,0.15269000000000002,1.03575
51.732,12.30056,99.08835,0.15636,1.03575
51.832,12.33328,99.07763,0.16041,1.0357399999999999
51.932,12.365310000000001,99.09692,0.16554000000000002,1.0357299999999998
52.032,12.39675,99.11348000000001,0.16756,1.0357299999999998
52.132,12.42786,99.11976999999999,0.17329,1.03572
52.232,12.45861,99.10325,0.17672000000000002,1.03572
52.332,12.48824,99.08615,0.17877,1.0357100000000001
52.432,12.51794,99.08619,0.18435,1.0357100000000001
52.532,12.54703,99.04661,0.18384,1.0357
52.632,12.5763,99.08058,0.18759,1.03569
52.732,12.604,99.06433,0.19213,1.03569
52.832,12.63172,99.07038,0.19512000000000002,1.03568
52.932,12.659189999999999,99.07775,0.19866,1.03568
53.032,12.68646,99.08072,0.20109000000000002,1.03567
53.132,12.71355,99.10334,0.20348,1.03566
53.232,12.74056,99.0794,0.20558,1.03566
53.332,12.76712,99.0763,0.21083000000000002,1.03565
53.432,12.792910000000001,99.08399,0.21224,1.03565
53.532,12.81976,99.07052,0.21594000000000002,1.03564
53.632,12.84501,99.07066999999999,0.21709,1.0356299999999998
53.732,12.87017,99.03163,0.21961999999999998,1.0356299999999998
53.832,12.89494,99.03869,0.22355999999999998,1.03562
53.932,12.91967,99.06658,0.22601999999999997,1.0356100000000001
54.032,12.94391,99.02239,0.23046999999999998,1.0356100000000001
54.132,12.9676,99.02235999999999,0.23128,1.0356
54.232,12.99164,98.99741,0.23744,1.03559
54.332,13.01554,98.99495999999999,0.23749,1.03559
54.432,13.03917,99.00026,0.24070999999999998,1.03558
54.532,13.062669999999999,99.02694,0.24185,1.03557
54.632,13.08595,99.01756999999999,0.24723,1.03557
54.732,13.109110000000001,99.02759,0.24893,1.03556
54.832,13.132060000000001,99.02721,0.25185,1.03555
54.932,13.15502,98.99945,0.25278,1.03555
55.032,13.17782,99.02349,0.25395,1.03554
55.132,13.20021,98.98652,0.25809,1.0355299999999998
55.232,13.22238,98.98673000000001,0.25984,1.0355299999999998
55.332,13.244320000000002,98.99081,0.26299,1.03552
55.432,13.26624,98.98807,0.26487,1.03551
55.532,13.28779,99.00465,0.26648,1.03551
55.632,13.309520000000001,98.99195999999999,0.26859,1.0355
55.732,13.330770000000001,99.03124,0.27105999999999997,1.03549
55.832,13.35176,98.99427,0.27433,1.03548
55.932,13.37243,99.00196,0.27466999999999997,1.03548
56.032,13.393310000000001,98.99069,0.27808,1.0354700000000001
56.132,13.41415,98.98305,0.28015,1.03546
56.232,13.43486,98.98697,0.28096,1.03545
56.332,13.455739999999999,99.02324,0.28367,1.03545
56.432,13.476320000000001,98.98885,0.28748,1.03544
56.532,13.49681,99.02574,0.28854,1.0354299999999999
56.632,13.5171,99.01706999999999,0.2914,1.03542
56.732,13.53744,99.03171,0.2926,1.03542
56.832,13.55765,99.0139,0.29531999999999997,1.03541
56.932,13.577720000000001,99.02641,0.29308,1.0354
57.032,13.59786,98.99765,0.29744,1.03539
57.132,13.617820000000002,99.01571,0.29874,1.03539
57.232,13.63763,99.02165,0.29838000000000003,1.03538
57.332,13.657110000000001,98.99461,0.3,1.0353700000000001
57.432,13.67673,99.02259000000001,0.30422,1.03536
57.532,13.69619,98.99699,0.30435999999999996,1.03535
57.632,13.715729999999999,98.99331,0.30717,1.03535
57.732,13.734979999999998,98.99407,0.30825,1.03534
57.832,13.75421,98.99763,0.30994,1.0353299999999999
57.932,13.7736,99.01257,0.31015,1.03532
58.032,13.792710000000001,98.99596,0.31043000000000004,1.03531
58.132,13.81185,99.02087,0.31373,1.0353
58.232,13.830720000000001,99.00294,0.31558,1.0353
58.332,13.84941,99.02104,0.31659,1.03529
58.432,13.86839,99.04066999999999,0.3171,1.03528
58.532,13.887279999999999,99.00789,0.31711,1.0352700000000001
58.632,13.90615,99.03934,0.31929,1.03526
58.732,13.92464,99.03875,0.32306,1.03525
58.832,13.943229999999998,99.00573,0.32311,1.03525
58.932,13.96164,99.04109,0.32719000000000004,1.03524
59.032,13.9799,99.04021,0.32481,1.0352299999999999
59.132,13.99816,99.07429,0.32642,1.03522
59.232,14.016029999999999,99.03839,0.32858000000000004,1.03521
59.332,14.033529999999999,99.03304,0.33054,1.0352
59.432,14.051479999999998,98.99768,0.33088,1.03519
59.532,14.069529999999999,98.99808,0.33358000000000004,1.03518
59.632,14.087179999999998,99.004,0.3328,1.03518
59.732,14.10479,98.99898,0.33548,1.0351700000000001
59.832,14.12243,98.99839,0.33579000000000003,1.03516
59.932,14.14021,98.99835,0.33725,1.03515
60.032,14.157689999999999,99.00016,0.33936,1.03514
60.132,14.17508,98.98269,0.33907,1.0351299999999999
60.232,14.19256,98.99916,0.34029,1.03512
60.332,14.21,98.99864000000001,0.34069,1.03511
60.432,14.22758,98.99866,0.34329,1.0351
60.532,14.245479999999999,98.99838000000001,0.34581999999999996,1.03509
60.632,14.26278,98.99864000000001,0.34684,1.03508
60.732,14.27999,98.99835999999999,0.34531,1.03508
60.832,14.29729,99.01912,0.34765,1.0350700000000002
60.932,14.31431,98.99662,0.34913,1.03506
61.032,14.331220000000002,98.9985,0.34743,1.03505
61.132,14.348239999999999,99.02549,0.35296,1.03504
61.232,14.36532,98.99203,0.35335,1.03503
61.332,14.382539999999999,99.01155,0.35317,1.03502
61.432,14.399270000000001,99.02724,0.35514,1.03501
61.532,14.416070000000001,98.99909,0.35605,1.035
61.632,14.43285,99.03676,0.35739,1.0349899999999999
61.732,14.44953,99.02626,0.36039,1.03498
61.832,14.46616,98.9909,0.35746,1.0349700000000002
61.932,14.48279,99.02646,0.3581,1.03496
62.032,14.49921,98.99681,0.36266,1.03495
62.132,14.51565,98.99599,0.36146999999999996,1.03494
62.232,14.532070000000001,98.99533000000001,0.36322,1.03493
62.332,14.54834,98.96096,0.36426,1.03492
62.432,14.564520000000002,98.99523,0.36806,1.03491
62.532,14.58056,98.98779,0.36935999999999997,1.0349
62.632,14.59651,98.97836,0.36799,1.0348899999999999
62.732,14.612810000000001,98.99834,0.36775,1.03488
62.832,14.62902,98.99848,0.37051999999999996,1.0348700000000002
62.932,14.64512,98.9754,0.37346999999999997,1.0348600000000001
63.032,14.661029999999998,98.96477,0.37556999999999996,1.03485
63.132,14.67706,98.99758,0.37256999999999996,1.03484
63.232,14.69295,98.99765,0.37227,1.03483
63.332,14.708870000000001,98.9647,0.37592,1.03482
63.432,14.724839999999999,98.98618,0.37646999999999997,1.03481
63.532,14.74065,98.99835999999999,0.37898000000000004,1.0348
63.632,14.756570000000002,99.00050999999999,0.37879,1.0347899999999999
63.732,14.7724,98.97803,0.38158000000000003,1.03477
63.832,14.788070000000001,98.9957,0.38166,1.0347600000000001
63.932,14.80384,98.99707,0.38423,1.03475
64.032,14.81939,98.96308,0.38405,1.03474
64.132,14.8349,98.99134000000001,0.38486,1.03473
64.232,14.85038,98.99795,0.38572,1.03472
64.332,14.865829999999999,98.96907,0.38683,1.03471
64.432,14.881310000000001,98.96549,0.38737,1.0347
64.532,14.89676,98.99455,0.38994,1.0346899999999999
64.632,14.91206,98.95729,0.39049,1.0346799999999998
64.732,14.9274,98.96395,0.39132,1.03467
64.832,14.942620000000002,98.9947,0.39132,1.03465
64.932,14.95791,98.96154,0.39095,1.03464
65.032,14.973,98.95985,0.39411999999999997,1.03463
65.132,14.9882,98.95933000000001,0.39421,1.03462
65.232,15.0034,98.97779,0.39666999999999997,1.03461
65.332,15.018410000000001,98.99632,0.39724,1.0346
65.432,15.033439999999999,98.97765,0.39903,1.03459
65.532,15.04848,98.95805,0.40033,1.0345799999999998
65.632,15.06349,98.98515,0.3991,1.0345600000000001
65.732,15.078439999999999,98.99591,0.40013000000000004,1.03455
65.832,15.09295,98.99653,0.40248,1.03454
65.932,15.107729999999998,98.98136,0.404,1.03453
66.032,15.122679999999999,98.98273,0.40279,1.03452
66.132,15.13732,98.99974,0.40521,1.03451
66.232,15.152070000000002,98.9844,0.40418000000000004,1.03449
66.332,15.166870000000001,98.99213,0.4078,1.0344799999999998
66.432,15.181560000000001,99.0013,0.40604,1.03447
66.532,15.19621,98.99521,0.40963999999999995,1.03446
66.632,15.21086,98.99869,0.40652,1.03445
66.732,15.22546,99.00022,0.41041000000000005,1.03444
66.832,15.240160000000001,98.98031999999999,0.41268999999999995,1.0344200000000001
66.932,15.25475,98.99501,0.41476,1.03441
67.032,15.2693,98.99851,0.41365,1.0344
67.132,15.283779999999998,99.00048000000001,0.41568,1.03439
67.232,15.298570000000002,98.97536,0.41528999999999994,1.0343799999999999
67.332,15.313,98.96256,0.4183,1.03436
67.432,15.32741,98.96315,0.41861000000000004,1.03435
67.532,15.341870000000002,98.96481,0.4213,1.03434
67.632,15.356320000000002,98.99385,0.42055,1.03433
67.732,15.37052,98.98805,0.42226,1.03431
67.832,15.384960000000001,98.96,0.42156000000000005,1.0343
67.932,15.3993,98.96276,0.42493000000000003,1.03429
68.032,15.4135,98.96802,0.42401000000000005,1.0342799999999999
68.132,15.427760000000001,98.98293000000001,0.42418,1.03426
68.232,15.44195,98.96108000000001,0.42833999999999994,1.03425
68.332,15.45612,98.96282,0.4256,1.03424
68.432,15.4703,98.96247,0.43005,1.03423
68.532,15.484420000000002,98.95819,0.4308,1.03421
68.632,15.49862,98.95674,0.43016000000000004,1.0342
68.732,15.51278,98.95694,0.43054,1.03419
68.832,15.526860000000001,98.95565,0.43196,1.0341799999999999
68.932,15.540939999999999,98.96596,0.43318999999999996,1.03416
69.032,15.554870000000001,98.96505,0.43518999999999997,1.03415
69.132,15.56892,98.9659,0.43712,1.03414
69.232,15.583020000000001,98.97281,0.43722,1.0341200000000002
69.332,15.59689,98.99373,0.43623999999999996,1.03411
69.432,15.610929999999998,98.99136999999999,0.44042,1.0341
69.532,15.62481,98.97089,0.43856999999999996,1.03409
69.632,15.63865,98.99095,0.44223,1.03407
69.732,15.65254,98.99221999999999,0.44275,1.03406
69.832,15.66629,98.99279,0.4431,1.03405
69.932,15.67997,98.99239,0.4445,1.03403
70.032,15.693620000000001,98.99235999999999,0.44593,1.0340200000000002
70.132,15.707320000000001,98.99256,0.44823999999999997,1.03401
70.232,15.72093,98.98115,0.44928999999999997,1.03399
70.332,15.7346,98.954,0.44905,1.03398
70.432,15.74825,98.95669000000001,0.45147,1.03397
70.532,15.761829999999998,98.95612,0.45253999999999994,1.03395
70.632,15.77537,98.96374,0.4522,1.0339399999999999
70.732,15.788839999999999,98.99271,0.45403000000000004,1.0339200000000002
70.832,15.80233,98.9612,0.45807,1.03391
70.932,15.81575,98.95639,0.45395,1.0339
71.032,15.829270000000001,98.95725,0.45424,1.03388
71.132,15.84276,98.94894000000001,0.45903,1.03387
71.232,15.85621,98.95815,0.46151000000000003,1.03386
71.332,15.86965,98.956,0.46243,1.0338399999999999
71.432,15.882979999999998,98.9886,0.46186000000000005,1.03383
71.532,15.89639,98.99253,0.46493999999999996,1.0338100000000001
71.632,15.90979,98.99239,0.46528,1.0338
71.732,15.92319,98.97301999999999,0.46524,1.03379
71.832,15.93649,98.96184000000001,0.46613000000000004,1.03377
71.932,15.949689999999999,98.98944,0.46746000000000004,1.03376
72.032,15.963,98.98871,0.46955,1.0337399999999999
72.132,15.976370000000001,98.96235,0.4708,1.03373
72.232,15.989579999999998,98.95363,0.47275,1.03372
72.332,16.0029,98.95427,0.4706,1.0337
72.432,16.01611,98.98034,0.47376,1.03369
72.532,16.0293,98.98971999999999,0.47473000000000004,1.03367
72.632,16.042460000000002,98.98945,0.4754,1.03366
72.732,16.05556,98.99024,0.47695,1.03364
72.832,16.068620000000003,98.98156,0.47934,1.0336299999999998
72.932,16.08174,98.9819,0.48043,1.03362
73.032,16.09494,98.99011,0.48013,1.0336
73.132,16.108060000000002,98.98976,0.48184,1.03359
73.232,16.12105,98.97888,0.48466000000000004,1.03357
73.332,16.13413,98.9782,0.48436999999999997,1.03356
73.432,16.14718,98.99082,0.48591000000000006,1.03354
73.532,16.16027,98.98966999999999,0.48749,1.0335299999999998
73.632,16.17323,98.97166,0.48677,1.03351
73.732,16.18621,98.95251,0.48745,1.0335
73.832,16.19915,98.95279000000001,0.49141999999999997,1.03348
73.932,16.212,98.98409000000001,0.49126000000000003,1.03347
74.032,16.22492,98.99088,0.49273999999999996,1.03345
74.132,16.23784,98.97636999999999,0.49388999999999994,1.03344
74.232,16.25067,98.95315,0.49638000000000004,1.03342
74.332,16.263579999999997,98.97231,0.4966,1.03341
74.432,16.27645,98.99381,0.49775,1.03339
74.532,16.28934,98.96427,0.49685,1.03338
74.632,16.30215,98.95363,0.49936,1.03336
74.732,16.31496,98.9537,0.5002300000000001,1.03335
74.832,16.32777,98.95437,0.50138,1.0333299999999999
74.932,16.34052,98.95465,0.5029899999999999,1.03332
75.032,16.35323,98.987,0.50354,1.0333
75.132,16.36599,98.98047,0.50605,1.03329
75.232,16.37869,98.95478,0.5027699999999999,1.0332700000000001
75.332,16.391379999999998,98.95339,0.50715,1.03325
75.432,16.40406,98.95898000000001,0.5087,1.03324
75.532,16.41682,98.9851,0.5090399999999999,1.03322
75.632,16.42943,98.98995,0.51015,1.03321
75.732,16.442079999999997,98.96633,0.51332,1.03319
75.832,16.4546,98.95889,0.51251,1.03318
75.932,16.46717,98.98648,0.51453,1.03316
76.032,16.47975,98.98973000000001,0.51736,1.03315
76.132,16.49226,98.97364,0.51507,1.0331299999999999
76.232,16.50468,98.96283000000001,0.51831,1.03311
76.332,16.51727,98.98917,0.5192399999999999,1.0331
76.432,16.52964,98.98942,0.5202,1.03308
76.532,16.54185,98.98993,0.51999,1.0330700000000002
76.632,16.55414,98.98379,0.52494,1.03305
76.732,16.5666,98.95782,0.52545,1.03303
76.832,16.57904,98.95334,0.52527,1.03302
76.932,16.59143,98.95383000000001,0.52796,1.033
77.032,16.603920000000002,98.94854000000001,0.5292,1.03298
77.132,16.61632,98.92251999999999,0.5290600000000001,1.0329700000000002
77.232,16.62879,98.92412,0.53189,1.03295
77.332,16.64116,98.95522,0.5321100000000001,1.03294
77.432,16.65354,98.95298000000001,0.53272,1.03292
77.532,16.66605,98.95474,0.53462,1.0329
77.632,16.67847,98.95176,0.53594,1.0328899999999999
77.732,16.6908,98.98165,0.5381100000000001,1.0328700000000002
77.832,16.70317,98.96488000000001,0.53673,1.03285
77.932,16.71554,98.95251999999999,0.53951,1.03284
78.032,16.72779,98.95398,0.54089,1.03282
78.132,16.74022,98.95381,0.54142,1.0328
78.232,16.75262,98.95394,0.54395,1.0327899999999999
78.332,16.76501,98.9793,0.5436300000000001,1.03277
78.432,16.77729,98.97131,0.54668,1.03275
78.532,16.7893,98.9535,0.5464100000000001,1.03274
78.632,16.80143,98.95334,0.54643,1.03272
78.732,16.8136,98.95537,0.5503100000000001,1.0327
78.832,16.82574,98.9388,0.55015,1.0326899999999999
78.932,16.83779,98.91868000000001,0.55143,1.03267
79.032,16.85002,98.91795,0.5535100000000001,1.03265
79.132,16.86215,98.94072,0.5544600000000001,1.03264
79.232,16.874229999999997,98.95521,0.55489,1.03262
79.332,16.88631,98.95345999999999,0.55742,1.0326
79.432,16.898320000000002,98.95402,0.5582699999999999,1.0325799999999998
79.532,16.91041,98.94393000000001,0.5573899999999999,1.03257
79.632,16.92248,98.93104,0.55908,1.03255
79.732,16.934479999999997,98.95678000000001,0.55937,1.03253
79.832,16.94655,98.95274,0.5614399999999999,1.03251
79.932,16.95871,98.95399,0.56328,1.0325
80.032,16.97073,98.95477,0.56728,1.0324799999999998
80.132,16.98281,98.98625,0.56629,1.03246
80.232,16.99485,98.9826,0.56807,1.03244
80.332,17.00706,98.95729,0.5685,1.03243
80.432,17.01904,98.9536,0.57107,1.03241
80.532,17.03087,98.95395,0.5715899999999999,1.03239
80.632,17.04291,98.95097,0.57597,1.03237
80.732,17.05474,98.94811999999999,0.57448,1.03236
80.832,17.066670000000002,98.95461,0.57709,1.03234
80.932,17.0786,98.95371999999999,0.5787800000000001,1.0323200000000001
81.032,17.090339999999998,98.9538,0.5794100000000001,1.0323
81.132,17.10225,98.95371999999999,0.5795600000000001,1.03229
81.232,17.114160000000002,98.95504,0.5818399999999999,1.03227
81.332,17.125970000000002,98.97998,0.58139,1.03225
81.432,17.13794,98.9904,0.58533,1.03223
81.532,17.14977,98.9894,0.5851,1.03221
81.632,17.16153,98.99015,0.5859800000000001,1.0322
81.732,17.17336,98.98161999999999,0.58824,1.0321799999999999
81.832,17.18521,98.95579000000001,0.58983,1.03216
81.932,17.197020000000002,98.95099,0.59014,1.03214
82.032,17.2088,98.97724000000001,0.59085,1.0321200000000001
82.132,17.22053,98.989,0.59368,1.0321
82.232,17.23216,98.96683,0.5945,1.03209
82.332,17.24393,98.95255,0.59564,1.03207
82.432,17.25571,98.95333000000001,0.5958100000000001,1.03205
82.532,17.267529999999997,98.96025999999999,0.59725,1.03203
82.632,17.27911,98.96619,0.60047,1.03201
82.732,17.290860000000002,98.95648,0.59975,1.03199
82.832,17.30269,98.95562,0.60519,1.03198
82.932,17.3144,98.96749,0.6035699999999999,1.03196
83.032,17.32615,98.99061999999999,0.60516,1.0319399999999999
83.132,17.337870000000002,98.99467,0.60559,1.0319200000000002
83.232,17.349439999999998,98.96677,0.60409,1.0319
83.332,17.36112,98.95640999999999,0.6082,1.03188
83.432,17.372770000000003,98.96016999999999,0.6110399999999999,1.03186
83.532,17.384439999999998,98.98433,0.61205,1.0318399999999999
83.632,17.39601,98.99399,0.61165,1.03183
83.732,17.407510000000002,98.98805,0.6136,1.0318100000000001
83.832,17.41912,98.95839000000001,0.61387,1.03179
83.932,17.43069,98.95705,0.6149600000000001,1.03177
84.032,17.44239,98.95666999999999,0.61639,1.03175
84.132,17.453979999999998,98.95654,0.6170899999999999,1.03173
84.232,17.46549,98.95822,0.61915,1.0317100000000001
84.332,17.477,98.94535,0.62054,1.03169
84.432,17.48858,98.92856,0.62476,1.03167
84.532,17.50007,98.95665,0.62638,1.03165
84.632,17.51144,98.956,0.6242800000000001,1.0316299999999998
84.732,17.52296,98.95675,0.62812,1.0316100000000001
84.832,17.53444,98.95635,0.62998,1.0316
84.932,17.54577,98.95702,0.6311,1.03158
85.032,17.5572,98.95482,0.6330600000000001,1.03156
85.132,17.56867,98.97232,0.63343,1.03154
85.232,17.58015,98.97423,0.63274,1.03152
85.332,17.59167,98.95551,0.63789,1.0315
85.432,17.60308,98.95725999999999,0.6362800000000001,1.03148
85.532,17.61449,98.95668,0.63693,1.03146
85.632,17.62589,98.95676,0.64055,1.03144
85.732,17.63724,98.95699,0.64237,1.03142
85.832,17.64875,98.95633000000001,0.64295,1.0314
85.932,17.66006,98.95668,0.6458699999999999,1.03138
86.032,17.67141,98.92851,0.64741,1.03136
86.132,17.68274,98.9448,0.64847,1.03134
86.232,17.69406,98.95838,0.64985,1.03132
86.332,17.70542,98.95439,0.6513100000000001,1.0313
86.432,17.7168,98.92804,0.65249,1.03128
86.532,17.72812,98.92047,0.65504,1.03126
86.632,17.73935,98.92011,0.65683,1.03124
86.732,17.750629999999997,98.9489,0.66035,1.03122
86.832,17.761979999999998,98.95666,0.66095,1.0312
86.932,17.77326,98.95659,0.6614300000000001,1.03118
87.032,17.78444,98.95594,0.66388,1.03116
87.132,17.7956,98.95907,0.66784,1.03114
87.232,17.80671,98.93884,0.6672399999999999,1.03112
87.332,17.81792,98.92137,0.6685399999999999,1.0311
87.432,17.82914,98.92081,0.6714899999999999,1.03108
87.532,17.8404,98.93081,0.67208,1.03106
87.632,17.8516,98.95873,0.6752,1.03104
87.732,17.862679999999997,98.95557,0.6758,1.03102
87.832,17.873829999999998,98.9373,0.67919,1.031
87.932,17.88495,98.91845,0.68069,1.0309700000000002
88.032,17.89612,98.92130999999999,0.68195,1.03095
88.132,17.9072,98.92477,0.68192,1.03093
88.232,17.91825,98.95348,0.68289,1.03091
88.332,17.92926,98.94973,0.6846,1.0308899999999999
88.432,17.94034,98.92074000000001,0.68701,1.0308700000000002
88.532,17.95136,98.9216,0.68682,1.03085
88.632,17.96245,98.92104,0.68914,1.03083
88.732,17.97351,98.92124,0.68806,1.03081
88.832,17.984560000000002,98.92118,0.69086,1.0307899999999999
88.932,17.99567,98.92121,0.69215,1.03077
