7497.03301,0.71897
7495.10426,0.71508
7493.17552,0.71355
7491.24677,0.71409
7489.31803,0.71317
7487.38928,0.71127
7485.46054,0.71086
7483.53179,0.70861
7481.60305,0.70309
7479.67430,0.69899
7477.74556,0.69959
7475.81681,0.70364
7473.88807,0.70801
7471.95932,0.71093
7470.03057,0.71335
7468.10183,0.71539
7466.17308,0.71349
7464.24434,0.70724
7462.31559,0.70361
7460.38685,0.70658
7458.45810,0.71144
7456.52936,0.71133
7454.60061,0.70714
7452.67187,0.70594
7450.74312,0.70682
7448.81438,0.70673
7446.88563,0.70663
7444.95689,0.70260
7443.02814,0.69753
7441.09940,0.69958
7439.17065,0.70267
7437.24190,0.69935
7435.31316,0.69607
7433.38441,0.69780
7431.45567,0.69954
7429.52692,0.69950
7427.59818,0.69974
7425.66943,0.69796
7423.74069,0.69334
7421.81194,0.68970
7419.88320,0.68831
7417.95445,0.68581
7416.02571,0.68446
7414.09696,0.69062
7412.16822,0.69756
7410.23947,0.69703
7408.31073,0.69609
7406.38198,0.69716
7404.45323,0.69355
7402.52449,0.68838
7400.59574,0.68642
7398.66700,0.68462
7396.73825,0.68278
7394.80951,0.68283
7392.88076,0.68244
7390.95202,0.67978
7389.02327,0.67787
7387.09453,0.68099
7385.16578,0.68627
7383.23704,0.68659
7381.30829,0.68417
7379.37955,0.68341
7377.45080,0.68021
7375.52205,0.67554
7373.59331,0.67378
7371.66456,0.67163
7369.73582,0.67001
7367.80707,0.67406
7365.87833,0.68021
7363.94958,0.68248
7362.02084,0.68107
7360.09209,0.67828
7358.16335,0.67504
7356.23460,0.67260
7354.30586,0.67404
7352.37711,0.68049
7350.44837,0.68626
7348.51962,0.68488
7346.59088,0.67976
7344.66213,0.67851
7342.73338,0.67926
7340.80464,0.67714
7338.87589,0.67432
7336.94715,0.67089
7335.01840,0.66545
7333.08966,0.66456
7331.16091,0.67112
7329.23217,0.67544
7327.30342,0.67066
7325.37468,0.66411
7323.44593,0.66232
7321.51719,0.66132
7319.58844,0.65980
7317.65970,0.66120
7315.73095,0.66349
7313.80221,0.66429
7311.87346,0.66503
7309.94471,0.66536
7308.01597,0.66505
7306.08722,0.66595
7304.15848,0.66889
7302.22973,0.67055
7300.30099,0.66526
7298.37224,0.65535
7296.44350,0.64991
7294.51475,0.65093
7292.58601,0.65417
7290.65726,0.65739
7288.72852,0.65959
7286.79977,0.65978
7284.87103,0.65954
7282.94228,0.66042
7281.01353,0.65985
7279.08479,0.65601
7277.15604,0.65273
7275.22730,0.65374
7273.29855,0.65754
7271.36981,0.66028
7269.44106,0.66138
7267.51232,0.66279
7265.58357,0.66211
7263.65483,0.65787
7261.72608,0.65728
7259.79734,0.66303
7257.86859,0.66488
7255.93985,0.65833
7254.01110,0.65308
7252.08236,0.65474
7250.15361,0.65791
7248.22486,0.65798
7246.29612,0.65560
7244.36737,0.65346
7242.43863,0.65348
7240.50988,0.65510
7238.58114,0.65798
7236.65239,0.66289
7234.72365,0.66862
7232.79490,0.67192
7230.86616,0.67134
7228.93741,0.66931
7227.00867,0.66706
7225.07992,0.66295
7223.15118,0.65814
7221.22243,0.65525
7219.29369,0.65437
7217.36494,0.65552
7215.43619,0.65695
7213.50745,0.65576
7211.57870,0.65322
7209.64996,0.65143
7207.72121,0.65067
7205.79247,0.65115
7203.86372,0.65194
7201.93498,0.65070
7200.00623,0.64700
7198.07749,0.64485
7196.14874,0.64573
7194.22000,0.64642
7192.29125,0.64735
7190.36251,0.64893
7188.43376,0.64833
7186.50501,0.64651
7184.57627,0.64534
7182.64752,0.64447
7180.71878,0.64427
7178.79003,0.64487
7176.86129,0.64538
7174.93254,0.64448
7173.00380,0.64056
7171.07505,0.63555
7169.14631,0.63465
7167.21756,0.63754
7165.28882,0.63846
7163.36007,0.63549
7161.43133,0.63086
7159.50258,0.62755
7157.57384,0.62637
7155.64509,0.62591
7153.71634,0.62617
7151.78760,0.62653
7149.85885,0.62649
7147.93011,0.62866
7146.00136,0.63210
7144.07262,0.63218
7142.14387,0.62826
7140.21513,0.62363
7138.28638,0.62204
7136.35764,0.62252
7134.42889,0.62171
7132.50015,0.62080
7130.57140,0.61977
7128.64266,0.61720
7126.71391,0.61565
7124.78516,0.61631
7122.85642,0.61676
7120.92767,0.61580
7118.99893,0.61527
7117.07018,0.61595
7115.14144,0.61513
7113.21269,0.61186
7111.28395,0.60897
7109.35520,0.60900
7107.42646,0.61069
7105.49771,0.60920
7103.56897,0.60457
7101.64022,0.60292
7099.71148,0.60443
7097.78273,0.60499
7095.85399,0.60369
7093.92524,0.60000
7091.99649,0.59526
7090.06775,0.59323
7088.13900,0.59429
7086.21026,0.59578
7084.28151,0.59614
7082.35277,0.59456
7080.42402,0.59086
7078.49528,0.58752
7076.56653,0.58495
7074.63779,0.58117
7072.70904,0.57784
7070.78030,0.57659
7068.85155,0.57568
7066.92281,0.57459
7064.99406,0.57418
7063.06532,0.57318
7061.13657,0.57054
7059.20782,0.56841
7057.27908,0.56941
7055.35033,0.57200
7053.42159,0.57118
7051.49284,0.56653
7049.56410,0.56221
7047.63535,0.55995
7045.70661,0.55887
7043.77786,0.55770
7041.84912,0.55660
7039.92037,0.55651
7037.99163,0.55701
7036.06288,0.55684
7034.13414,0.55459
7032.20539,0.55094
7030.27664,0.54817
7028.34790,0.54715
7026.41915,0.54699
7024.49041,0.54464
7022.56166,0.53896
7020.63292,0.53471
7018.70417,0.53447
7016.77543,0.53469
7014.84668,0.53363
7012.91794,0.53238
7010.98919,0.53225
7009.06045,0.53408
7007.13170,0.53538
7005.20296,0.53481
7003.27421,0.53477
7001.34547,0.53420
6999.41672,0.53219
6997.48797,0.53166
6995.55923,0.53115
6993.63048,0.52821
6991.70174,0.52454
6989.77299,0.52106
6987.84425,0.51938
6985.91550,0.52037
6983.98676,0.52136
6982.05801,0.52263
6980.12927,0.52509
6978.20052,0.52591
6976.27178,0.52429
6974.34303,0.52203
6972.41429,0.51920
6970.48554,0.51682
6968.55680,0.51728
6966.62805,0.51791
6964.69930,0.51590
6962.77056,0.51369
6960.84181,0.51233
6958.91307,0.51133
6956.98432,0.51071
6955.05558,0.51089
6953.12683,0.51342
6951.19809,0.51544
6949.26934,0.51289
6947.34060,0.50931
6945.41185,0.50916
6943.48311,0.51041
6941.55436,0.50940
6939.62562,0.50649
6937.69687,0.50451
6935.76812,0.50445
6933.83938,0.50507
6931.91063,0.50482
6929.98189,0.50261
6928.05314,0.50033
6926.12440,0.50214
6924.19565,0.50643
6922.26691,0.50625
6920.33816,0.50104
6918.40942,0.49669
6916.48067,0.49488
6914.55193,0.49420
6912.62318,0.49616
6910.69444,0.50004
6908.76569,0.50072
6906.83695,0.49858
6904.90820,0.49957
6902.97945,0.50310
6901.05071,0.50389
6899.12196,0.50283
6897.19322,0.50283
6895.26447,0.50168
6893.33573,0.49842
6891.40698,0.49650
6889.47824,0.49714
6887.54949,0.49838
6885.62075,0.49921
6883.69200,0.49942
6881.76326,0.49883
6879.83451,0.49906
6877.90577,0.50084
6875.97702,0.50145
6874.04828,0.50015
6872.11953,0.49982
6870.19078,0.50076
6868.26204,0.50088
6866.33329,0.50026
6864.40455,0.49974
6862.47580,0.49877
6860.54706,0.49819
6858.61831,0.49931
6856.68957,0.50031
6854.76082,0.49966
6852.83208,0.49822
6850.90333,0.49665
6848.97459,0.49563
6847.04584,0.49496
6845.11710,0.49481
6843.18835,0.49663
6841.25960,0.49792
6839.33086,0.49630
6837.40211,0.49491
6835.47337,0.49412
6833.54462,0.49201
6831.61588,0.49036
6829.68713,0.48971
6827.75839,0.49040
6825.82964,0.49387
6823.90090,0.49681
6821.97215,0.49570
6820.04341,0.49309
6818.11466,0.49124
6816.18592,0.48794
6814.25717,0.48478
6812.32843,0.48596
6810.39968,0.48814
6808.47093,0.48825
6806.54219,0.48895
6804.61344,0.49045
6802.68470,0.49118
6800.75595,0.49065
6798.82721,0.48926
6796.89846,0.48830
6794.96972,0.48864
6793.04097,0.49033
6791.11223,0.49220
6789.18348,0.49142
6787.25474,0.48707
6785.32599,0.48323
6783.39725,0.48255
6781.46850,0.48287
6779.53975,0.48272
6777.61101,0.48237
6775.68226,0.48200
6773.75352,0.48128
6771.82477,0.48050
6769.89603,0.48131
6767.96728,0.48326
6766.03854,0.48380
6764.10979,0.48293
6762.18105,0.48284
6760.25230,0.48400
6758.32356,0.48396
6756.39481,0.48069
6754.46607,0.47705
6752.53732,0.47748
6750.60858,0.48054
6748.67983,0.48104
6746.75108,0.47854
6744.82234,0.47680
6742.89359,0.47645
6740.96485,0.47542
6739.03610,0.47412
6737.10736,0.47437
6735.17861,0.47595
6733.24987,0.47815
6731.32112,0.48082
6729.39238,0.48207
6727.46363,0.48142
6725.53489,0.48075
6723.60614,0.48004
6721.67740,0.47926
6719.74865,0.47906
6717.81991,0.47900
6715.89116,0.47903
6713.96241,0.47959
6712.03367,0.48037
6710.10492,0.48079
6708.17618,0.48026
6706.24743,0.47850
6704.31869,0.47727
6702.38994,0.47755
6700.46120,0.47930
6698.53245,0.48224
6696.60371,0.48231
6694.67496,0.47841
6692.74622,0.47624
6690.81747,0.47709
6688.88873,0.47642
6686.95998,0.47466
6685.03123,0.47545
6683.10249,0.47706
6681.17374,0.47791
6679.24500,0.47934
6677.31625,0.48040
6675.38751,0.48044
6673.45876,0.48013
6671.53002,0.47904
6669.60127,0.47833
6667.67253,0.47947
6665.74378,0.48077
6663.81504,0.48071
6661.88629,0.48067
6659.95755,0.48198
6658.02880,0.48362
6656.10006,0.48425
6654.17131,0.48424
6652.24256,0.48326
6650.31382,0.48147
6648.38507,0.48208
6646.45633,0.48553
6644.52758,0.48691
6642.59884,0.48421
6640.67009,0.48116
6638.74135,0.47965
6636.81260,0.47901
6634.88386,0.48013
6632.95511,0.48303
6631.02637,0.48580
6629.09762,0.48760
6627.16888,0.48881
6625.24013,0.48969
6623.31139,0.48990
6621.38264,0.48893
6619.45389,0.48815
6617.52515,0.48907
6615.59640,0.49058
6613.66766,0.49122
6611.73891,0.49052
6609.81017,0.48912
6607.88142,0.48833
6605.95268,0.48932
6604.02393,0.49297
6602.09519,0.49706
6600.16644,0.49852
6598.23770,0.49839
6596.30895,0.49873
6594.38021,0.49888
6592.45146,0.49767
6590.52271,0.49592
6588.59397,0.49564
6586.66522,0.49667
6584.73648,0.49706
6582.80773,0.49797
6580.87899,0.50045
6578.95024,0.50130
6577.02150,0.49997
6575.09275,0.50063
6573.16401,0.50373
6571.23526,0.50469
6569.30652,0.50272
6567.37777,0.50084
6565.44903,0.49955
6563.52028,0.49889
6561.59154,0.50004
6559.66279,0.50214
6557.73404,0.50270
6555.80530,0.50219
6553.87655,0.50349
6551.94781,0.50690
6550.01906,0.51028
6548.09032,0.51121
6546.16157,0.50961
6544.23283,0.50851
6542.30408,0.50914
6540.37534,0.50929
6538.44659,0.50695
6536.51785,0.50383
6534.58910,0.50314
6532.66036,0.50381
6530.73161,0.50291
6528.80287,0.50179
6526.87412,0.50296
6524.94537,0.50560
6523.01663,0.50718
6521.08788,0.50676
6519.15914,0.50606
6517.23039,0.50615
6515.30165,0.50653
6513.37290,0.50750
6511.44416,0.50904
6509.51541,0.50938
6507.58667,0.50842
6505.65792,0.50868
6503.72918,0.51000
6501.80043,0.51028
6499.87169,0.51016
6497.94294,0.51012
6496.01419,0.50949
6494.08545,0.50871
6492.15670,0.50907
6490.22796,0.51105
6488.29921,0.51250
6486.37047,0.51167
6484.44172,0.51038
6482.51298,0.51050
6480.58423,0.51162
6478.65549,0.51269
6476.72674,0.51301
6474.79800,0.51279
6472.86925,0.51344
6470.94051,0.51523
6469.01176,0.51631
6467.08302,0.51560
6465.15427,0.51452
6463.22552,0.51492
6461.29678,0.51630
6459.36803,0.51756
6457.43929,0.51837
6455.51054,0.51686
6453.58180,0.51332
6451.65305,0.51198
6449.72431,0.51450
6447.79556,0.51806
6445.86682,0.51960
6443.93807,0.51866
6442.00933,0.51723
6440.08058,0.51741
6438.15184,0.51892
6436.22309,0.52010
6434.29434,0.52106
6432.36560,0.52256
6430.43685,0.52330
6428.50811,0.52267
6426.57936,0.52218
6424.65062,0.52215
6422.72187,0.52219
6420.79313,0.52182
6418.86438,0.51955
6416.93564,0.51717
6415.00689,0.51822
6413.07815,0.52122
6411.14940,0.52274
6409.22066,0.52219
6407.29191,0.52139
6405.36317,0.52307
6403.43442,0.52606
6401.50567,0.52649
6399.57693,0.52511
6397.64818,0.52388
6395.71944,0.52193
6393.79069,0.52042
6391.86195,0.52062
6389.93320,0.52041
6388.00446,0.52002
6386.07571,0.52228
6384.14697,0.52587
6382.21822,0.52715
6380.28948,0.52636
6378.36073,0.52591
6376.43199,0.52522
6374.50324,0.52220
6372.57450,0.51878
6370.64575,0.51937
6368.71700,0.52389
6366.78826,0.52707
6364.85951,0.52579
6362.93077,0.52331
6361.00202,0.52349
6359.07328,0.52612
6357.14453,0.52874
6355.21579,0.52922
6353.28704,0.52796
6351.35830,0.52645
6349.42955,0.52522
6347.50081,0.52511
6345.57206,0.52649
6343.64332,0.52753
6341.71457,0.52707
6339.78582,0.52697
6337.85708,0.52797
6335.92833,0.52802
6333.99959,0.52665
6332.07084,0.52532
6330.14210,0.52489
6328.21335,0.52526
6326.28461,0.52623
6324.35586,0.52737
6322.42712,0.52777
6320.49837,0.52789
6318.56963,0.52846
6316.64088,0.52819
6314.71214,0.52724
6312.78339,0.52681
6310.85465,0.52594
6308.92590,0.52516
6306.99715,0.52600
6305.06841,0.52724
6303.13966,0.52788
6301.21092,0.52862
6299.28217,0.52961
6297.35343,0.53030
6295.42468,0.53039
6293.49594,0.53055
6291.56719,0.53173
6289.63845,0.53279
6287.70970,0.53225
6285.78096,0.53151
6283.85221,0.53190
6281.92347,0.53288
6279.99472,0.53406
6278.06598,0.53486
6276.13723,0.53468
6274.20848,0.53405
6272.27974,0.53426
6270.35099,0.53597
6268.42225,0.53745
6266.49350,0.53725
6264.56476,0.53726
6262.63601,0.53879
6260.70727,0.53996
6258.77852,0.53974
6256.84978,0.53942
6254.92103,0.54010
6252.99229,0.54172
6251.06354,0.54359
6249.13480,0.54485
6247.20605,0.54488
6245.27730,0.54360
6243.34856,0.54227
6241.41981,0.54225
6239.49107,0.54308
6237.56232,0.54376
6235.63358,0.54463
6233.70483,0.54632
6231.77609,0.54803
6229.84734,0.54865
6227.91860,0.54840
6225.98985,0.54803
6224.06111,0.54774
6222.13236,0.54768
6220.20362,0.54808
6218.27487,0.54857
6216.34613,0.54905
6214.41738,0.55011
6212.48863,0.55146
6210.55989,0.55338
6208.63114,0.55559
6206.70240,0.55595
6204.77365,0.55537
6202.84491,0.55575
6200.91616,0.55581
6198.98742,0.55499
6197.05867,0.55414
6195.12993,0.55420
6193.20118,0.55584
6191.27244,0.55740
6189.34369,0.55844
6187.41495,0.56064
6185.48620,0.56217
6183.55746,0.56151
6181.62871,0.56107
6179.69996,0.56133
6177.77122,0.56095
6175.84247,0.56110
6173.91373,0.56280
6171.98498,0.56439
6170.05624,0.56451
6168.12749,0.56375
6166.19875,0.56342
6164.27000,0.56513
6162.34126,0.56774
6160.41251,0.56818
6158.48377,0.56682
6156.55502,0.56606
6154.62628,0.56703
6152.69753,0.56948
6150.76878,0.57195
6148.84004,0.57320
6146.91129,0.57266
6144.98255,0.57068
6143.05380,0.56905
6141.12506,0.56888
6139.19631,0.56941
6137.26757,0.56958
6135.33882,0.56932
6133.41008,0.56995
6131.48133,0.57244
6129.55259,0.57459
6127.62384,0.57437
6125.69510,0.57341
6123.76635,0.57269
6121.83761,0.57155
6119.90886,0.57080
6117.98011,0.57143
6116.05137,0.57347
6114.12262,0.57539
6112.19388,0.57536
6110.26513,0.57440
6108.33639,0.57489
6106.40764,0.57722
6104.47890,0.57953
6102.55015,0.57961
6100.62141,0.57714
6098.69266,0.57489
6096.76392,0.57506
6094.83517,0.57604
6092.90643,0.57637
6090.97768,0.57652
6089.04893,0.57672
6087.12019,0.57703
6085.19144,0.57716
6083.26270,0.57637
6081.33395,0.57531
6079.40521,0.57514
6077.47646,0.57536
6075.54772,0.57540
6073.61897,0.57528
6071.69023,0.57471
6069.76148,0.57409
6067.83274,0.57464
6065.90399,0.57641
6063.97525,0.57747
6062.04650,0.57628
6060.11776,0.57396
6058.18901,0.57256
6056.26026,0.57238
6054.33152,0.57266
6052.40277,0.57357
6050.47403,0.57498
6048.54528,0.57572
6046.61654,0.57565
6044.68779,0.57500
6042.75905,0.57359
6040.83030,0.57213
6038.90156,0.57157
6036.97281,0.57154
6035.04407,0.57108
6033.11532,0.57007
6031.18658,0.56877
6029.25783,0.56788
6027.32909,0.56818
6025.40034,0.56851
6023.47159,0.56710
6021.54285,0.56491
6019.61410,0.56339
6017.68536,0.56240
6015.75661,0.56223
6013.82787,0.56297
6011.89912,0.56345
6009.97038,0.56286
6008.04163,0.56199
6006.11289,0.56172
6004.18414,0.56087
6002.25540,0.55913
6000.32665,0.55796
5998.39791,0.55709
5996.46916,0.55629
5994.54041,0.55662
5992.61167,0.55762
5990.68292,0.55823
5988.75418,0.55823
5986.82543,0.55746
5984.89669,0.55610
5982.96794,0.55533
5981.03920,0.55652
5979.11045,0.55872
5977.18171,0.55897
5975.25296,0.55719
5973.32422,0.55577
5971.39547,0.55488
5969.46673,0.55352
5967.53798,0.55204
5965.60924,0.55145
5963.68049,0.55211
5961.75174,0.55338
5959.82300,0.55443
5957.89425,0.55516
5955.96551,0.55539
5954.03676,0.55429
5952.10802,0.55270
5950.17927,0.55264
5948.25053,0.55408
5946.32178,0.55504
5944.39304,0.55471
5942.46429,0.55454
5940.53555,0.55535
5938.60680,0.55609
5936.67806,0.55614
5934.74931,0.55590
5932.82057,0.55567
5930.89182,0.55569
5928.96307,0.55637
5927.03433,0.55705
5925.10558,0.55618
5923.17684,0.55455
5921.24809,0.55455
5919.31935,0.55540
5917.39060,0.55482
5915.46186,0.55326
5913.53311,0.55200
5911.60437,0.55135
5909.67562,0.55085
5907.74688,0.54971
5905.81813,0.54861
5903.88939,0.54913
5901.96064,0.55021
5900.03189,0.54929
5898.10315,0.54767
5896.17440,0.54751
5894.24566,0.54759
5892.31691,0.54698
5890.38817,0.54604
5888.45942,0.54538
5886.53068,0.54547
5884.60193,0.54529
5882.67319,0.54459
5880.74444,0.54445
5878.81570,0.54503
5876.88695,0.54581
5874.95821,0.54597
5873.02946,0.54467
5871.10072,0.54257
5869.17197,0.54162
5867.24322,0.54253
5865.31448,0.54392
5863.38573,0.54440
5861.45699,0.54378
5859.52824,0.54267
5857.59950,0.54218
5855.67075,0.54283
5853.74201,0.54313
5851.81326,0.54205
5849.88452,0.54119
5847.95577,0.54139
5846.02703,0.54138
5844.09828,0.54093
5842.16954,0.54042
5840.24079,0.53992
5838.31205,0.53955
5836.38330,0.53902
5834.45455,0.53859
5832.52581,0.53907
5830.59706,0.53990
5828.66832,0.54024
5826.73957,0.54034
5824.81083,0.53971
5822.88208,0.53795
5820.95334,0.53700
5819.02459,0.53816
5817.09585,0.53976
5815.16710,0.53971
5813.23836,0.53807
5811.30961,0.53684
5809.38087,0.53710
5807.45212,0.53799
5805.52337,0.53868
5803.59463,0.53838
5801.66588,0.53725
5799.73714,0.53641
5797.80839,0.53607
5795.87965,0.53659
5793.95090,0.53818
5792.02216,0.53947
5790.09341,0.53939
5788.16467,0.53872
5786.23592,0.53828
5784.30718,0.53797
5782.37843,0.53828
5780.44969,0.53970
5778.52094,0.54069
5776.59220,0.54072
5774.66345,0.54130
5772.73470,0.54181
5770.80596,0.54099
5768.87721,0.54020
5766.94847,0.54073
5765.01972,0.54220
5763.09098,0.54317
5761.16223,0.54241
5759.23349,0.54100
5757.30474,0.54047
5755.37600,0.54063
5753.44725,0.54068
5751.51851,0.54062
5749.58976,0.54150
5747.66102,0.54278
5745.73227,0.54295
5743.80352,0.54269
5741.87478,0.54292
5739.94603,0.54328
5738.01729,0.54328
5736.08854,0.54284
5734.15980,0.54238
5732.23105,0.54226
5730.30231,0.54239
5728.37356,0.54247
5726.44482,0.54196
5724.51607,0.54100
5722.58733,0.54077
5720.65858,0.54143
5718.72984,0.54233
5716.80109,0.54301
5714.87235,0.54258
5712.94360,0.54111
5711.01485,0.54027
5709.08611,0.54087
5707.15736,0.54211
5705.22862,0.54268
5703.29987,0.54214
5701.37113,0.54186
5699.44238,0.54249
5697.51364,0.54277
5695.58489,0.54235
5693.65615,0.54191
5691.72740,0.54196
5689.79866,0.54291
5687.86991,0.54356
5685.94117,0.54221
5684.01242,0.53998
5682.08368,0.53958
5680.15493,0.54127
5678.22618,0.54297
5676.29744,0.54318
5674.36869,0.54229
5672.43995,0.54151
5670.51120,0.54119
5668.58246,0.54106
5666.65371,0.54096
5664.72497,0.54079
5662.79622,0.54082
5660.86748,0.54092
5658.93873,0.54079
5657.00999,0.54092
5655.08124,0.54153
5653.15250,0.54206
5651.22375,0.54226
5649.29500,0.54234
5647.36626,0.54201
5645.43751,0.54132
5643.50877,0.54111
5641.58002,0.54087
5639.65128,0.53970
5637.72253,0.53901
5635.79379,0.53984
5633.86504,0.54070
5631.93630,0.54090
5630.00755,0.54142
5628.07881,0.54218
5626.15006,0.54207
5624.22132,0.54102
5622.29257,0.54017
5620.36383,0.54037
5618.43508,0.54110
5616.50633,0.54155
5614.57759,0.54181
5612.64884,0.54180
5610.72010,0.54146
5608.79135,0.54161
5606.86261,0.54201
5604.93386,0.54173
5603.00512,0.54163
5601.07637,0.54195
5599.14763,0.54138
5597.21888,0.54042
5595.29014,0.54041
5593.36139,0.54095
5591.43265,0.54161
5589.50390,0.54224
5587.57516,0.54223
5585.64641,0.54173
5583.71766,0.54141
5581.78892,0.54175
5579.86017,0.54272
5577.93143,0.54315
5576.00268,0.54261
5574.07394,0.54246
5572.14519,0.54285
5570.21645,0.54294
5568.28770,0.54335
5566.35896,0.54453
5564.43021,0.54558
5562.50147,0.54591
5560.57272,0.54596
5558.64398,0.54634
5556.71523,0.54668
5554.78648,0.54654
5552.85774,0.54625
5550.92899,0.54610
5549.00025,0.54636
5547.07150,0.54688
5545.14276,0.54712
5543.21401,0.54692
5541.28527,0.54655
5539.35652,0.54651
5537.42778,0.54672
5535.49903,0.54693
5533.57029,0.54768
5531.64154,0.54881
5529.71280,0.54901
5527.78405,0.54797
5525.85531,0.54740
5523.92656,0.54827
5521.99781,0.54925
5520.06907,0.54924
5518.14032,0.54887
5516.21158,0.54895
5514.28283,0.54928
5512.35409,0.54937
5510.42534,0.54933
5508.49660,0.54964
5506.56785,0.55011
5504.63911,0.55023
5502.71036,0.55056
5500.78162,0.55136
5498.85287,0.55128
5496.92413,0.55016
5494.99538,0.54946
5493.06664,0.54958
5491.13789,0.54983
5489.20914,0.54986
5487.28040,0.55009
5485.35165,0.55063
5483.42291,0.55077
5481.49416,0.55036
5479.56542,0.55027
5477.63667,0.55044
5475.70793,0.55033
5473.77918,0.55061
5471.85044,0.55150
5469.92169,0.55225
5467.99295,0.55262
5466.06420,0.55259
5464.13546,0.55260
5462.20671,0.55280
5460.27796,0.55278
5458.34922,0.55288
5456.42047,0.55325
5454.49173,0.55334
5452.56298,0.55363
5450.63424,0.55494
5448.70549,0.55628
5446.77675,0.55656
5444.84800,0.55649
5442.91926,0.55653
5440.99051,0.55690
5439.06177,0.55763
5437.13302,0.55738
5435.20428,0.55598
5433.27553,0.55510
5431.34679,0.55576
5429.41804,0.55722
5427.48929,0.55804
5425.56055,0.55840
5423.63180,0.55955
5421.70306,0.56088
5419.77431,0.56184
5417.84557,0.56332
5415.91682,0.56455
5413.98808,0.56426
5412.05933,0.56327
5410.13059,0.56248
5408.20184,0.56233
5406.27310,0.56308
5404.34435,0.56370
5402.41561,0.56347
5400.48686,0.56328
5398.55811,0.56356
5396.62937,0.56332
5394.70062,0.56262
5392.77188,0.56279
5390.84313,0.56371
5388.91439,0.56436
5386.98564,0.56475
5385.05690,0.56517
5383.12815,0.56519
5381.19941,0.56455
5379.27066,0.56398
5377.34192,0.56398
5375.41317,0.56381
5373.48443,0.56318
5371.55568,0.56279
5369.62694,0.56303
5367.69819,0.56383
5365.76944,0.56441
5363.84070,0.56414
5361.91195,0.56339
5359.98321,0.56279
5358.05446,0.56285
5356.12572,0.56351
5354.19697,0.56366
5352.26823,0.56275
5350.33948,0.56182
5348.41074,0.56140
5346.48199,0.56113
5344.55325,0.56100
5342.62450,0.56085
5340.69576,0.56046
5338.76701,0.55984
5336.83827,0.55893
5334.90952,0.55786
5332.98077,0.55682
5331.05203,0.55578
5329.12328,0.55463
5327.19454,0.55346
5325.26579,0.55247
5323.33705,0.55094
5321.40830,0.54875
5319.47956,0.54721
5317.55081,0.54662
5315.62207,0.54577
5313.69332,0.54412
5311.76458,0.54240
5309.83583,0.54100
5307.90709,0.53891
5305.97834,0.53608
5304.04959,0.53382
5302.12085,0.53242
5300.19210,0.53114
5298.26336,0.52956
5296.33461,0.52765
5294.40587,0.52523
5292.47712,0.52237
5290.54838,0.51980
5288.61963,0.51733
5286.69089,0.51387
5284.76214,0.50955
5282.83340,0.50561
5280.90465,0.50239
5278.97591,0.49919
5277.04716,0.49557
5275.11842,0.49149
5273.18967,0.48733
5271.26092,0.48346
5269.33218,0.48003
5267.40343,0.47709
5265.47469,0.47369
5263.54594,0.46956
5261.61720,0.46596
5259.68845,0.46279
5257.75971,0.45925
5255.83096,0.45554
5253.90222,0.45162
5251.97347,0.44757
5250.04473,0.44418
5248.11598,0.44115
5246.18724,0.43805
5244.25849,0.43548
5242.32975,0.43316
5240.40100,0.43027
5238.47225,0.42737
5236.54351,0.42521
5234.61476,0.42308
5232.68602,0.42025
5230.75727,0.41752
5228.82853,0.41549
5226.89978,0.41334
5224.97104,0.41064
5223.04229,0.40806
5221.11355,0.40642
5219.18480,0.40582
5217.25606,0.40526
5215.32731,0.40389
5213.39857,0.40199
5211.46982,0.40024
5209.54107,0.39903
5207.61233,0.39831
5205.68358,0.39778
5203.75484,0.39744
5201.82609,0.39713
5199.89735,0.39651
5197.96860,0.39566
5196.03986,0.39511
5194.11111,0.39502
5192.18237,0.39486
5190.25362,0.39437
5188.32488,0.39391
5186.39613,0.39378
5184.46739,0.39383
5182.53864,0.39351
5180.60990,0.39263
5178.68115,0.39222
5176.75240,0.39282
5174.82366,0.39336
5172.89491,0.39326
5170.96617,0.39306
5169.03742,0.39278
5167.10868,0.39247
5165.17993,0.39272
5163.25119,0.39300
5161.32244,0.39250
5159.39370,0.39203
5157.46495,0.39250
5155.53621,0.39344
5153.60746,0.39417
5151.67872,0.39482
5149.74997,0.39556
5147.82123,0.39638
5145.89248,0.39735
5143.96373,0.39813
5142.03499,0.39810
5140.10624,0.39753
5138.17750,0.39740
5136.24875,0.39816
5134.32001,0.39960
5132.39126,0.40082
5130.46252,0.40129
5128.53377,0.40153
5126.60503,0.40160
5124.67628,0.40115
5122.74754,0.40048
5120.81879,0.40020
5118.89005,0.40054
5116.96130,0.40120
5115.03255,0.40171
5113.10381,0.40181
5111.17506,0.40163
5109.24632,0.40153
5107.31757,0.40136
5105.38883,0.40097
5103.46008,0.40098
5101.53134,0.40128
5099.60259,0.40047
5097.67385,0.39857
5095.74510,0.39730
5093.81636,0.39694
5091.88761,0.39649
5089.95887,0.39584
5088.03012,0.39567
5086.10138,0.39611
5084.17263,0.39642
5082.24388,0.39599
5080.31514,0.39485
5078.38639,0.39358
5076.45765,0.39303
5074.52890,0.39351
5072.60016,0.39442
5070.67141,0.39506
5068.74267,0.39526
5066.81392,0.39534
5064.88518,0.39563
5062.95643,0.39609
5061.02769,0.39651
5059.09894,0.39664
5057.17020,0.39664
5055.24145,0.39693
5053.31270,0.39728
5051.38396,0.39797
5049.45521,0.39940
5047.52647,0.40082
5045.59772,0.40137
5043.66898,0.40120
5041.74023,0.40153
5039.81149,0.40284
5037.88274,0.40364
5035.95400,0.40357
5034.02525,0.40416
5032.09651,0.40557
5030.16776,0.40680
5028.23902,0.40771
5026.31027,0.40844
5024.38153,0.40897
5022.45278,0.40935
5020.52403,0.40994
5018.59529,0.41113
5016.66654,0.41226
5014.73780,0.41252
5012.80905,0.41233
5010.88031,0.41279
5008.95156,0.41424
5007.02282,0.41541
5005.09407,0.41533
5003.16533,0.41515
5001.23658,0.41571
4999.30784,0.41612
4997.37909,0.41605
4995.45035,0.41637
4993.52160,0.41714
4991.59286,0.41782
4989.66411,0.41827
4987.73536,0.41839
4985.80662,0.41862
4983.87787,0.41928
4981.94913,0.41948
4980.02038,0.41845
4978.09164,0.41710
4976.16289,0.41662
4974.23415,0.41649
4972.30540,0.41596
4970.37666,0.41553
4968.44791,0.41541
4966.51917,0.41493
4964.59042,0.41389
4962.66168,0.41295
4960.73293,0.41237
4958.80418,0.41177
4956.87544,0.41110
4954.94669,0.41044
4953.01795,0.40922
4951.08920,0.40741
4949.16046,0.40604
4947.23171,0.40530
4945.30297,0.40441
4943.37422,0.40325
4941.44548,0.40189
4939.51673,0.40038
4937.58799,0.39941
4935.65924,0.39898
4933.73050,0.39832
4931.80175,0.39728
4929.87301,0.39597
4927.94426,0.39451
4926.01551,0.39316
4924.08677,0.39199
4922.15802,0.39105
4920.22928,0.39049
4918.30053,0.38992
4916.37179,0.38877
4914.44304,0.38718
4912.51430,0.38580
4910.58555,0.38488
4908.65681,0.38403
4906.72806,0.38312
4904.79932,0.38236
4902.87057,0.38166
4900.94183,0.38091
4899.01308,0.38030
4897.08434,0.37965
4895.15559,0.37869
4893.22684,0.37757
4891.29810,0.37625
4889.36935,0.37463
4887.44061,0.37329
4885.51186,0.37257
4883.58312,0.37166
4881.65437,0.36999
4879.72563,0.36851
4877.79688,0.36809
4875.86814,0.36804
4873.93939,0.36746
4872.01065,0.36647
4870.08190,0.36538
4868.15316,0.36432
4866.22441,0.36359
4864.29566,0.36313
4862.36692,0.36249
4860.43817,0.36187
4858.50943,0.36152
4856.58068,0.36066
4854.65194,0.35904
4852.72319,0.35767
4850.79445,0.35713
4848.86570,0.35708
4846.93696,0.35708
4845.00821,0.35660
4843.07947,0.35538
4841.15072,0.35420
4839.22198,0.35338
4837.29323,0.35234
4835.36449,0.35153
4833.43574,0.35120
4831.50699,0.35068
4829.57825,0.34977
4827.64950,0.34862
4825.72076,0.34776
4823.79201,0.34750
4821.86327,0.34709
4819.93452,0.34620
4818.00578,0.34575
4816.07703,0.34605
4814.14829,0.34610
4812.21954,0.34549
4810.29080,0.34491
4808.36205,0.34468
4806.43331,0.34446
4804.50456,0.34410
4802.57582,0.34371
4800.64707,0.34342
4798.71832,0.34302
4796.78958,0.34233
4794.86083,0.34181
4792.93209,0.34152
4791.00334,0.34101
4789.07460,0.34067
4787.14585,0.34102
4785.21711,0.34147
4783.28836,0.34122
4781.35962,0.34069
4779.43087,0.34055
4777.50213,0.34035
4775.57338,0.33970
4773.64464,0.33908
4771.71589,0.33909
4769.78714,0.33937
4767.85840,0.33925
4765.92965,0.33901
4764.00091,0.33892
4762.07216,0.33870
4760.14342,0.33843
4758.21467,0.33839
4756.28593,0.33849
4754.35718,0.33840
4752.42844,0.33813
4750.49969,0.33801
4748.57095,0.33811
4746.64220,0.33816
4744.71346,0.33828
4742.78471,0.33851
4740.85597,0.33852
4738.92722,0.33827
4736.99847,0.33795
4735.06973,0.33783
4733.14098,0.33803
4731.21224,0.33842
4729.28349,0.33900
4727.35475,0.33975
4725.42600,0.34014
4723.49726,0.33985
4721.56851,0.33910
4719.63977,0.33858
4717.71102,0.33887
4715.78228,0.33933
4713.85353,0.33954
4711.92479,0.34018
4709.99604,0.34104
4708.06729,0.34126
4706.13855,0.34098
4704.20980,0.34080
4702.28106,0.34081
4700.35231,0.34087
4698.42357,0.34080
4696.49482,0.34047
4694.56608,0.34015
4692.63733,0.34027
4690.70859,0.34081
4688.77984,0.34142
4686.85110,0.34178
4684.92235,0.34185
4682.99361,0.34166
4681.06486,0.34143
4679.13612,0.34165
4677.20737,0.34231
4675.27862,0.34304
4673.34988,0.34367
4671.42113,0.34368
4669.49239,0.34302
4667.56364,0.34286
4665.63490,0.34363
4663.70615,0.34421
4661.77741,0.34416
4659.84866,0.34420
4657.91992,0.34453
4655.99117,0.34488
4654.06243,0.34542
4652.13368,0.34628
4650.20494,0.34695
4648.27619,0.34700
4646.34745,0.34692
4644.41870,0.34724
4642.48995,0.34786
4640.56121,0.34848
4638.63246,0.34876
4636.70372,0.34877
4634.77497,0.34875
4632.84623,0.34867
4630.91748,0.34891
4628.98874,0.34996
4627.05999,0.35108
4625.13125,0.35133
4623.20250,0.35121
4621.27376,0.35150
4619.34501,0.35188
4617.41627,0.35227
4615.48752,0.35311
4613.55877,0.35412
4611.63003,0.35478
4609.70128,0.35530
4607.77254,0.35582
4605.84379,0.35604
4603.91505,0.35624
4601.98630,0.35685
4600.05756,0.35721
4598.12881,0.35693
4596.20007,0.35696
4594.27132,0.35769
4592.34258,0.35846
4590.41383,0.35911
4588.48509,0.35989
4586.55634,0.36049
4584.62760,0.36055
4582.69885,0.36053
4580.77010,0.36090
4578.84136,0.36132
4576.91261,0.36122
4574.98387,0.36083
4573.05512,0.36102
4571.12638,0.36173
4569.19763,0.36217
4567.26889,0.36199
4565.34014,0.36144
4563.41140,0.36121
4561.48265,0.36167
4559.55391,0.36250
4557.62516,0.36303
4555.69642,0.36291
4553.76767,0.36244
4551.83893,0.36224
4549.91018,0.36247
4547.98143,0.36283
4546.05269,0.36324
4544.12394,0.36368
4542.19520,0.36404
4540.26645,0.36434
4538.33771,0.36456
4536.40896,0.36469
4534.48022,0.36477
4532.55147,0.36484
4530.62273,0.36484
4528.69398,0.36491
4526.76524,0.36529
4524.83649,0.36569
4522.90775,0.36616
4520.97900,0.36706
4519.05025,0.36787
4517.12151,0.36810
4515.19276,0.36793
4513.26402,0.36768
4511.33527,0.36752
4509.40653,0.36730
4507.47778,0.36699
4505.54904,0.36678
4503.62029,0.36683
4501.69155,0.36704
4499.76280,0.36691
4497.83406,0.36647
4495.90531,0.36612
4493.97657,0.36565
4492.04782,0.36509
4490.11908,0.36465
4488.19033,0.36417
4486.26158,0.36341
4484.33284,0.36239
4482.40409,0.36144
4480.47535,0.36061
4478.54660,0.35974
4476.61786,0.35870
4474.68911,0.35736
4472.76037,0.35585
4470.83162,0.35433
4468.90288,0.35291
4466.97413,0.35172
4465.04539,0.35056
4463.11664,0.34916
4461.18790,0.34733
4459.25915,0.34522
4457.33041,0.34304
4455.40166,0.34098
4453.47291,0.33927
4451.54417,0.33796
4449.61542,0.33660
4447.68668,0.33462
4445.75793,0.33230
4443.82919,0.33037
4441.90044,0.32879
4439.97170,0.32709
4438.04295,0.32540
4436.11421,0.32415
4434.18546,0.32317
4432.25672,0.32185
4430.32797,0.32002
4428.39923,0.31810
4426.47048,0.31653
4424.54173,0.31524
4422.61299,0.31380
4420.68424,0.31210
4418.75550,0.31045
4416.82675,0.30910
4414.89801,0.30784
4412.96926,0.30642
4411.04052,0.30514
4409.11177,0.30422
4407.18303,0.30344
4405.25428,0.30269
4403.32554,0.30199
4401.39679,0.30152
4399.46805,0.30134
4397.53930,0.30128
4395.61056,0.30136
4393.68181,0.30169
4391.75306,0.30222
4389.82432,0.30260
4387.89557,0.30273
4385.96683,0.30283
4384.03808,0.30312
4382.10934,0.30390
4380.18059,0.30499
4378.25185,0.30577
4376.32310,0.30624
4374.39436,0.30694
4372.46561,0.30814
4370.53687,0.30947
4368.60812,0.31034
4366.67938,0.31060
4364.75063,0.31048
4362.82189,0.31035
4360.89314,0.31053
4358.96439,0.31107
4357.03565,0.31184
4355.10690,0.31261
4353.17816,0.31296
4351.24941,0.31277
4349.32067,0.31240
4347.39192,0.31192
4345.46318,0.31116
4343.53443,0.31052
4341.60569,0.31037
4339.67694,0.31034
4337.74820,0.31023
4335.81945,0.31013
4333.89071,0.30953
4331.96196,0.30848
4330.03321,0.30790
4328.10447,0.30769
4326.17572,0.30717
4324.24698,0.30651
4322.31823,0.30604
4320.38949,0.30563
4318.46074,0.30533
4316.53200,0.30525
4314.60325,0.30535
4312.67451,0.30529
4310.74576,0.30464
4308.81702,0.30377
4306.88827,0.30318
4304.95953,0.30258
4303.03078,0.30181
4301.10204,0.30127
4299.17329,0.30126
4297.24454,0.30146
4295.31580,0.30139
4293.38705,0.30104
4291.45831,0.30039
4289.52956,0.29961
4287.60082,0.29932
4285.67207,0.29931
4283.74333,0.29884
4281.81458,0.29831
4279.88584,0.29822
4277.95709,0.29818
4276.02835,0.29826
4274.09960,0.29889
4272.17086,0.29967
4270.24211,0.30004
4268.31336,0.30022
4266.38462,0.30075
4264.45587,0.30163
4262.52713,0.30228
4260.59838,0.30234
4258.66964,0.30216
4256.74089,0.30223
4254.81215,0.30251
4252.88340,0.30277
4250.95466,0.30314
4249.02591,0.30367
4247.09717,0.30427
4245.16842,0.30484
4243.23968,0.30527
4241.31093,0.30563
4239.38219,0.30595
4237.45344,0.30625
4235.52469,0.30655
4233.59595,0.30665
4231.66720,0.30657
4229.73846,0.30653
4227.80971,0.30651
4225.88097,0.30651
4223.95222,0.30648
4222.02348,0.30626
4220.09473,0.30584
4218.16599,0.30556
4216.23724,0.30561
4214.30850,0.30570
4212.37975,0.30563
4210.45101,0.30554
4208.52226,0.30533
4206.59352,0.30506
4204.66477,0.30521
4202.73602,0.30575
4200.80728,0.30616
4198.87853,0.30633
4196.94979,0.30644
4195.02104,0.30660
4193.09230,0.30674
4191.16355,0.30665
4189.23481,0.30638
4187.30606,0.30623
4185.37732,0.30643
4183.44857,0.30674
4181.51983,0.30693
4179.59108,0.30715
4177.66234,0.30743
4175.73359,0.30768
4173.80484,0.30792
4171.87610,0.30811
4169.94735,0.30823
4168.01861,0.30840
4166.08986,0.30857
4164.16112,0.30856
4162.23237,0.30821
4160.30363,0.30770
4158.37488,0.30745
4156.44614,0.30735
4154.51739,0.30710
4152.58865,0.30677
4150.65990,0.30639
4148.73116,0.30584
4146.80241,0.30503
4144.87367,0.30410
4142.94492,0.30361
4141.01617,0.30341
4139.08743,0.30274
4137.15868,0.30179
4135.22994,0.30114
4133.30119,0.30041
4131.37245,0.29932
4129.44370,0.29844
4127.51496,0.29780
4125.58621,0.29678
4123.65747,0.29537
4121.72872,0.29406
4119.79998,0.29308
4117.87123,0.29227
4115.94249,0.29121
4114.01374,0.28980
4112.08500,0.28836
4110.15625,0.28700
4108.22750,0.28575
4106.29876,0.28462
4104.37001,0.28331
4102.44127,0.28178
4100.51252,0.28037
4098.58378,0.27916
4096.65503,0.27801
4094.72629,0.27666
4092.79754,0.27503
4090.86880,0.27352
4088.94005,0.27213
4087.01131,0.27051
4085.08256,0.26896
4083.15382,0.26783
4081.22507,0.26684
4079.29632,0.26568
4077.36758,0.26432
4075.43883,0.26277
4073.51009,0.26099
4071.58134,0.25909
4069.65260,0.25742
4067.72385,0.25613
4065.79511,0.25502
4063.86636,0.25391
4061.93762,0.25274
4060.00887,0.25135
4058.08013,0.24982
4056.15138,0.24847
4054.22264,0.24730
4052.29389,0.24617
4050.36515,0.24531
4048.43640,0.24452
4046.50765,0.24340
4044.57891,0.24209
4042.65016,0.24076
4040.72142,0.23948
4038.79267,0.23839
4036.86393,0.23751
4034.93518,0.23657
4033.00644,0.23543
4031.07769,0.23453
4029.14895,0.23413
4027.22020,0.23378
4025.29146,0.23307
4023.36271,0.23212
4021.43397,0.23154
4019.50522,0.23152
4017.57648,0.23150
4015.64773,0.23107
4013.71898,0.23061
4011.79024,0.23042
4009.86149,0.23039
4007.93275,0.23053
4006.00400,0.23075
4004.07526,0.23074
4002.14651,0.23072
4000.21777,0.23110
3998.28902,0.23165
3996.36028,0.23190
3994.43153,0.23178
3992.50279,0.23172
3990.57404,0.23203
3988.64530,0.23249
3986.71655,0.23287
3984.78780,0.23314
3982.85906,0.23336
3980.93031,0.23378
3979.00157,0.23444
3977.07282,0.23499
3975.14408,0.23529
3973.21533,0.23556
3971.28659,0.23603
3969.35784,0.23656
3967.42910,0.23693
3965.50035,0.23717
3963.57161,0.23735
3961.64286,0.23758
3959.71412,0.23815
3957.78537,0.23890
3955.85663,0.23945
3953.92788,0.24012
3951.99913,0.24125
3950.07039,0.24244
3948.14164,0.24331
3946.21290,0.24390
3944.28415,0.24433
3942.35541,0.24483
3940.42666,0.24549
3938.49792,0.24603
3936.56917,0.24628
3934.64043,0.24671
3932.71168,0.24757
3930.78294,0.24837
3928.85419,0.24884
3926.92545,0.24930
3924.99670,0.24988
3923.06795,0.25048
3921.13921,0.25114
3919.21046,0.25189
3917.28172,0.25258
3915.35297,0.25324
3913.42423,0.25406
3911.49548,0.25490
3909.56674,0.25555
3907.63799,0.25608
3905.70925,0.25654
3903.78050,0.25681
3901.85176,0.25698
3899.92301,0.25737
3897.99427,0.25805
3896.06552,0.25877
3894.13678,0.25945
3892.20803,0.26015
3890.27928,0.26062
3888.35054,0.26078
3886.42179,0.26124
3884.49305,0.26224
3882.56430,0.26302
3880.63556,0.26331
3878.70681,0.26363
3876.77807,0.26422
3874.84932,0.26490
3872.92058,0.26561
3870.99183,0.26649
3869.06309,0.26751
3867.13434,0.26841
3865.20560,0.26908
3863.27685,0.26962
3861.34811,0.27031
3859.41936,0.27124
3857.49061,0.27221
3855.56187,0.27310
3853.63312,0.27387
3851.70438,0.27455
3849.77563,0.27527
3847.84689,0.27589
3845.91814,0.27630
3843.98940,0.27676
3842.06065,0.27746
3840.13191,0.27820
3838.20316,0.27873
3836.27442,0.27907
3834.34567,0.27958
3832.41693,0.28021
3830.48818,0.28062
3828.55943,0.28085
3826.63069,0.28107
3824.70194,0.28143
3822.77320,0.28179
3820.84445,0.28160
3818.91571,0.28098
3816.98696,0.28075
3815.05822,0.28103
3813.12947,0.28130
3811.20073,0.28133
3809.27198,0.28123
3807.34324,0.28102
3805.41449,0.28111
3803.48575,0.28165
3801.55700,0.28207
3799.62826,0.28203
3797.69951,0.28176
3795.77076,0.28152
3793.84202,0.28147
3791.91327,0.28145
3789.98453,0.28117
3788.05578,0.28075
3786.12704,0.28033
3784.19829,0.28019
3782.26955,0.28041
3780.34080,0.28042
3778.41206,0.27993
3776.48331,0.27936
3774.55457,0.27912
3772.62582,0.27910
3770.69708,0.27901
3768.76833,0.27879
3766.83959,0.27856
3764.91084,0.27819
3762.98209,0.27754
3761.05335,0.27681
3759.12460,0.27628
3757.19586,0.27583
3755.26711,0.27518
3753.33837,0.27435
3751.40962,0.27366
3749.48088,0.27329
3747.55213,0.27297
3745.62339,0.27218
3743.69464,0.27077
3741.76590,0.26955
3739.83715,0.26885
3737.90841,0.26817
3735.97966,0.26697
3734.05091,0.26526
3732.12217,0.26368
3730.19342,0.26249
3728.26468,0.26140
3726.33593,0.26021
3724.40719,0.25893
3722.47844,0.25756
3720.54970,0.25597
3718.62095,0.25433
3716.69221,0.25294
3714.76346,0.25161
3712.83472,0.24978
3710.90597,0.24748
3708.97723,0.24528
3707.04848,0.24322
3705.11974,0.24096
3703.19099,0.23835
3701.26224,0.23542
3699.33350,0.23255
3697.40475,0.22980
3695.47601,0.22687
3693.54726,0.22372
3691.61852,0.22031
3689.68977,0.21635
3687.76103,0.21191
3685.83228,0.20773
3683.90354,0.20405
3681.97479,0.20038
3680.04605,0.19630
3678.11730,0.19184
3676.18856,0.18668
3674.25981,0.18141
3672.33107,0.17709
3670.40232,0.17258
3668.47357,0.16738
3666.54483,0.16262
3664.61608,0.15827
3662.68734,0.15398
3660.75859,0.14990
3658.82985,0.14599
3656.90110,0.14175
3654.97236,0.13734
3653.04361,0.13368
3651.11487,0.13055
3649.18612,0.12701
3647.25738,0.12328
3645.32863,0.12007
3643.39989,0.11716
3641.47114,0.11442
3639.54239,0.11201
3637.61365,0.10967
3635.68490,0.10701
3633.75616,0.10415
3631.82741,0.10153
3629.89867,0.09912
3627.96992,0.09689
3626.04118,0.09512
3624.11243,0.09352
3622.18369,0.09174
3620.25494,0.08970
3618.32620,0.08757
3616.39745,0.08574
3614.46871,0.08437
3612.53996,0.08313
3610.61122,0.08158
3608.68247,0.07974
3606.75372,0.07805
3604.82498,0.07661
3602.89623,0.07519
3600.96749,0.07380
3599.03874,0.07247
3597.11000,0.07113
3595.18125,0.06999
3593.25251,0.06913
3591.32376,0.06814
3589.39502,0.06687
3587.46627,0.06565
3585.53753,0.06451
3583.60878,0.06317
3581.68004,0.06195
3579.75129,0.06120
3577.82254,0.06065
3575.89380,0.05991
3573.96505,0.05905
3572.03631,0.05837
3570.10756,0.05790
3568.17882,0.05743
3566.25007,0.05665
3564.32133,0.05564
3562.39258,0.05483
3560.46384,0.05411
3558.53509,0.05313
3556.60635,0.05223
3554.67760,0.05192
3552.74886,0.05183
3550.82011,0.05137
3548.89137,0.05077
3546.96262,0.05038
3545.03387,0.04996
3543.10513,0.04931
3541.17638,0.04853
3539.24764,0.04780
3537.31889,0.04734
3535.39015,0.04708
3533.46140,0.04674
3531.53266,0.04640
3529.60391,0.04628
3527.67517,0.04615
3525.74642,0.04602
3523.81768,0.04588
3521.88893,0.04543
3519.96019,0.04495
3518.03144,0.04460
3516.10270,0.04398
3514.17395,0.04325
3512.24520,0.04290
3510.31646,0.04280
3508.38771,0.04252
3506.45897,0.04213
3504.53022,0.04187
3502.60148,0.04163
3500.67273,0.04120
3498.74399,0.04073
3496.81524,0.04033
3494.88650,0.04001
3492.95775,0.03987
3491.02901,0.03981
3489.10026,0.03952
3487.17152,0.03902
3485.24277,0.03865
3483.31402,0.03860
3481.38528,0.03873
3479.45653,0.03893
3477.52779,0.03919
3475.59904,0.03926
3473.67030,0.03909
3471.74155,0.03884
3469.81281,0.03851
3467.88406,0.03820
3465.95532,0.03802
3464.02657,0.03782
3462.09783,0.03759
3460.16908,0.03746
3458.24034,0.03743
3456.31159,0.03733
3454.38285,0.03716
3452.45410,0.03721
3450.52535,0.03752
3448.59661,0.03763
3446.66786,0.03733
3444.73912,0.03696
3442.81037,0.03664
3440.88163,0.03655
3438.95288,0.03665
3437.02414,0.03664
3435.09539,0.03679
3433.16665,0.03711
3431.23790,0.03710
3429.30916,0.03686
3427.38041,0.03672
3425.45167,0.03666
3423.52292,0.03681
3421.59418,0.03730
3419.66543,0.03756
3417.73668,0.03722
3415.80794,0.03690
3413.87919,0.03695
3411.95045,0.03694
3410.02170,0.03664
3408.09296,0.03632
3406.16421,0.03637
3404.23547,0.03674
3402.30672,0.03710
3400.37798,0.03747
3398.44923,0.03768
3396.52049,0.03743
3394.59174,0.03705
3392.66300,0.03696
3390.73425,0.03718
3388.80550,0.03742
3386.87676,0.03740
3384.94801,0.03723
3383.01927,0.03726
3381.09052,0.03740
3379.16178,0.03744
3377.23303,0.03754
3375.30429,0.03791
3373.37554,0.03823
3371.44680,0.03799
3369.51805,0.03749
3367.58931,0.03740
3365.66056,0.03770
3363.73182,0.03783
3361.80307,0.03777
3359.87433,0.03788
3357.94558,0.03819
3356.01683,0.03849
3354.08809,0.03865
3352.15934,0.03866
3350.23060,0.03869
3348.30185,0.03876
3346.37311,0.03878
3344.44436,0.03892
3342.51562,0.03937
3340.58687,0.03993
3338.65813,0.04018
3336.72938,0.04016
3334.80064,0.04016
3332.87189,0.04021
3330.94315,0.04033
3329.01440,0.04060
3327.08566,0.04091
3325.15691,0.04114
3323.22816,0.04141
3321.29942,0.04169
3319.37067,0.04172
3317.44193,0.04159
3315.51318,0.04164
3313.58444,0.04200
3311.65569,0.04244
3309.72695,0.04256
3307.79820,0.04235
3305.86946,0.04225
3303.94071,0.04253
3302.01197,0.04280
3300.08322,0.04271
3298.15448,0.04261
3296.22573,0.04282
3294.29698,0.04308
3292.36824,0.04321
3290.43949,0.04336
3288.51075,0.04352
3286.58200,0.04374
3284.65326,0.04398
3282.72451,0.04411
3280.79577,0.04421
3278.86702,0.04444
3276.93828,0.04465
3275.00953,0.04471
3273.08079,0.04474
3271.15204,0.04496
3269.22330,0.04546
3267.29455,0.04589
3265.36581,0.04590
3263.43706,0.04562
3261.50831,0.04564
3259.57957,0.04626
3257.65082,0.04695
3255.72208,0.04719
3253.79333,0.04705
3251.86459,0.04683
3249.93584,0.04682
3248.00710,0.04719
3246.07835,0.04767
3244.14961,0.04793
3242.22086,0.04801
3240.29212,0.04811
3238.36337,0.04829
3236.43463,0.04842
3234.50588,0.04837
3232.57713,0.04830
3230.64839,0.04849
3228.71964,0.04900
3226.79090,0.04958
3224.86215,0.04990
3222.93341,0.04996
3221.00466,0.05018
3219.07592,0.05063
3217.14717,0.05107
3215.21843,0.05131
3213.28968,0.05138
3211.36094,0.05143
3209.43219,0.05162
3207.50345,0.05190
3205.57470,0.05209
3203.64596,0.05223
3201.71721,0.05244
3199.78846,0.05270
3197.85972,0.05293
3195.93097,0.05305
3194.00223,0.05326
3192.07348,0.05370
3190.14474,0.05418
3188.21599,0.05450
3186.28725,0.05467
3184.35850,0.05495
3182.42976,0.05547
3180.50101,0.05598
3178.57227,0.05628
3176.64352,0.05646
3174.71478,0.05669
3172.78603,0.05703
3170.85729,0.05748
3168.92854,0.05783
3166.99979,0.05780
3165.07105,0.05772
3163.14230,0.05801
3161.21356,0.05857
3159.28481,0.05904
3157.35607,0.05922
3155.42732,0.05939
3153.49858,0.05974
3151.56983,0.06003
3149.64109,0.06019
3147.71234,0.06038
3145.78360,0.06062
3143.85485,0.06109
3141.92611,0.06171
3139.99736,0.06223
3138.06861,0.06263
3136.13987,0.06285
3134.21112,0.06296
3132.28238,0.06321
3130.35363,0.06359
3128.42489,0.06392
3126.49614,0.06414
3124.56740,0.06430
3122.63865,0.06448
3120.70991,0.06476
3118.78116,0.06521
3116.85242,0.06561
3114.92367,0.06590
3112.99493,0.06623
3111.06618,0.06645
3109.13744,0.06666
3107.20869,0.06710
3105.27994,0.06755
3103.35120,0.06784
3101.42245,0.06822
3099.49371,0.06869
3097.56496,0.06899
3095.63622,0.06915
3093.70747,0.06921
3091.77873,0.06927
3089.84998,0.06940
3087.92124,0.06955
3085.99249,0.06975
3084.06375,0.07013
3082.13500,0.07056
3080.20626,0.07087
3078.27751,0.07108
3076.34877,0.07137
3074.42002,0.07160
3072.49127,0.07148
3070.56253,0.07137
3068.63378,0.07175
3066.70504,0.07246
3064.77629,0.07308
3062.84755,0.07347
3060.91880,0.07375
3058.99006,0.07400
3057.06131,0.07430
3055.13257,0.07455
3053.20382,0.07468
3051.27508,0.07496
3049.34633,0.07551
3047.41759,0.07598
3045.48884,0.07631
3043.56009,0.07673
3041.63135,0.07719
3039.70260,0.07735
3037.77386,0.07713
3035.84511,0.07695
3033.91637,0.07704
3031.98762,0.07712
3030.05888,0.07713
3028.13013,0.07727
3026.20139,0.07757
3024.27264,0.07786
3022.34390,0.07809
3020.41515,0.07825
3018.48641,0.07818
3016.55766,0.07784
3014.62892,0.07739
3012.70017,0.07695
3010.77142,0.07652
3008.84268,0.07621
3006.91393,0.07609
3004.98519,0.07591
3003.05644,0.07550
3001.12770,0.07507
2999.19895,0.07489
2997.27021,0.07485
2995.34146,0.07465
2993.41272,0.07426
2991.48397,0.07365
2989.55523,0.07280
2987.62648,0.07197
2985.69774,0.07118
2983.76899,0.07024
2981.84025,0.06922
2979.91150,0.06816
2977.98275,0.06698
2976.05401,0.06572
2974.12526,0.06443
2972.19652,0.06314
2970.26777,0.06207
2968.33903,0.06135
2966.41028,0.06080
2964.48154,0.06020
2962.55279,0.05951
2960.62405,0.05879
2958.69530,0.05823
2956.76656,0.05794
2954.83781,0.05777
2952.90907,0.05742
2950.98032,0.05688
2949.05157,0.05632
2947.12283,0.05581
2945.19408,0.05524
2943.26534,0.05462
2941.33659,0.05420
2939.40785,0.05405
2937.47910,0.05402
2935.55036,0.05408
2933.62161,0.05432
2931.69287,0.05446
2929.76412,0.05422
2927.83538,0.05378
2925.90663,0.05365
2923.97789,0.05393
2922.04914,0.05414
2920.12040,0.05414
2918.19165,0.05412
2916.26290,0.05432
2914.33416,0.05477
2912.40541,0.05494
2910.47667,0.05478
2908.54792,0.05495
2906.61918,0.05551
2904.69043,0.05590
2902.76169,0.05606
2900.83294,0.05618
2898.90420,0.05634
2896.97545,0.05663
2895.04671,0.05701
2893.11796,0.05738
2891.18922,0.05784
2889.26047,0.05811
2887.33172,0.05804
2885.40298,0.05815
2883.47423,0.05848
2881.54549,0.05865
2879.61674,0.05868
2877.68800,0.05874
2875.75925,0.05893
2873.83051,0.05921
2871.90176,0.05942
2869.97302,0.05963
2868.04427,0.05992
2866.11553,0.06024
2864.18678,0.06061
2862.25804,0.06122
2860.32929,0.06200
2858.40055,0.06266
2856.47180,0.06308
2854.54305,0.06332
2852.61431,0.06346
2850.68556,0.06373
2848.75682,0.06437
2846.82807,0.06556
2844.89933,0.06712
2842.97058,0.06864
2841.04184,0.07002
2839.11309,0.07142
2837.18435,0.07282
2835.25560,0.07398
2833.32686,0.07490
2831.39811,0.07594
2829.46937,0.07721
2827.54062,0.07849
2825.61188,0.07971
2823.68313,0.08090
2821.75438,0.08196
2819.82564,0.08287
2817.89689,0.08387
2815.96815,0.08506
2814.03940,0.08622
2812.11066,0.08709
2810.18191,0.08761
2808.25317,0.08807
2806.32442,0.08873
2804.39568,0.08946
2802.46693,0.09009
2800.53819,0.09074
2798.60944,0.09145
2796.68070,0.09208
2794.75195,0.09265
2792.82320,0.09312
2790.89446,0.09341
2788.96571,0.09375
2787.03697,0.09432
2785.10822,0.09492
2783.17948,0.09527
2781.25073,0.09535
2779.32199,0.09542
2777.39324,0.09578
2775.46450,0.09640
2773.53575,0.09684
2771.60701,0.09694
2769.67826,0.09698
2767.74952,0.09721
2765.82077,0.09765
2763.89203,0.09810
2761.96328,0.09848
2760.03453,0.09879
2758.10579,0.09894
2756.17704,0.09905
2754.24830,0.09932
2752.31955,0.09960
2750.39081,0.09970
2748.46206,0.09976
2746.53332,0.09981
2744.60457,0.09973
2742.67583,0.09964
2740.74708,0.09977
2738.81834,0.10006
2736.88959,0.10035
2734.96085,0.10070
2733.03210,0.10113
2731.10336,0.10156
2729.17461,0.10187
2727.24586,0.10193
2725.31712,0.10198
2723.38837,0.10228
2721.45963,0.10270
2719.53088,0.10310
2717.60214,0.10353
2715.67339,0.10397
2713.74465,0.10443
2711.81590,0.10495
2709.88716,0.10544
2707.95841,0.10592
2706.02967,0.10649
2704.10092,0.10707
2702.17218,0.10755
2700.24343,0.10795
2698.31468,0.10825
2696.38594,0.10842
2694.45719,0.10877
2692.52845,0.10947
2690.59970,0.11007
2688.67096,0.11040
2686.74221,0.11069
2684.81347,0.11101
2682.88472,0.11137
2680.95598,0.11181
2679.02723,0.11226
2677.09849,0.11264
2675.16974,0.11304
2673.24100,0.11350
2671.31225,0.11399
2669.38351,0.11454
2667.45476,0.11502
2665.52601,0.11534
2663.59727,0.11549
2661.66852,0.11564
2659.73978,0.11598
2657.81103,0.11637
2655.88229,0.11662
2653.95354,0.11688
2652.02480,0.11718
2650.09605,0.11758
2648.16731,0.11812
2646.23856,0.11862
2644.30982,0.11896
2642.38107,0.11931
2640.45233,0.11978
2638.52358,0.12015
2636.59484,0.12038
2634.66609,0.12077
2632.73734,0.12140
2630.80860,0.12193
2628.87985,0.12228
2626.95111,0.12262
2625.02236,0.12295
2623.09362,0.12320
2621.16487,0.12333
2619.23613,0.12347
2617.30738,0.12389
2615.37864,0.12444
2613.44989,0.12482
2611.52115,0.12505
2609.59240,0.12531
2607.66366,0.12573
2605.73491,0.12613
2603.80616,0.12630
2601.87742,0.12641
2599.94867,0.12679
2598.01993,0.12748
2596.09118,0.12809
2594.16244,0.12837
2592.23369,0.12861
2590.30495,0.12890
2588.37620,0.12908
2586.44746,0.12938
2584.51871,0.12981
2582.58997,0.13005
2580.66122,0.13017
2578.73248,0.13039
2576.80373,0.13068
2574.87499,0.13103
2572.94624,0.13134
2571.01749,0.13148
2569.08875,0.13153
2567.16000,0.13154
2565.23126,0.13156
2563.30251,0.13170
2561.37377,0.13195
2559.44502,0.13212
2557.51628,0.13207
2555.58753,0.13203
2553.65879,0.13218
2551.73004,0.13233
2549.80130,0.13239
2547.87255,0.13257
2545.94381,0.13290
2544.01506,0.13309
2542.08631,0.13311
2540.15757,0.13325
2538.22882,0.13358
2536.30008,0.13389
2534.37133,0.13418
2532.44259,0.13435
2530.51384,0.13444
2528.58510,0.13475
2526.65635,0.13529
2524.72761,0.13584
2522.79886,0.13621
2520.87012,0.13641
2518.94137,0.13653
2517.01263,0.13678
2515.08388,0.13727
2513.15514,0.13773
2511.22639,0.13800
2509.29764,0.13841
2507.36890,0.13912
2505.44015,0.13988
2503.51141,0.14046
2501.58266,0.14094
2499.65392,0.14145
2497.72517,0.14200
2495.79643,0.14252
2493.86768,0.14297
2491.93894,0.14337
2490.01019,0.14382
2488.08145,0.14446
2486.15270,0.14521
2484.22396,0.14589
2482.29521,0.14633
2480.36647,0.14662
2478.43772,0.14697
2476.50897,0.14747
2474.58023,0.14798
2472.65148,0.14836
2470.72274,0.14870
2468.79399,0.14915
2466.86525,0.14970
2464.93650,0.15029
2463.00776,0.15086
2461.07901,0.15133
2459.15027,0.15165
2457.22152,0.15196
2455.29278,0.15242
2453.36403,0.15290
2451.43529,0.15331
2449.50654,0.15375
2447.57779,0.15433
2445.64905,0.15500
2443.72030,0.15564
2441.79156,0.15617
2439.86281,0.15669
2437.93407,0.15731
2436.00532,0.15802
2434.07658,0.15873
2432.14783,0.15934
2430.21909,0.15990
2428.29034,0.16044
2426.36160,0.16104
2424.43285,0.16185
2422.50411,0.16273
2420.57536,0.16349
2418.64662,0.16417
2416.71787,0.16489
2414.78912,0.16566
2412.86038,0.16642
2410.93163,0.16711
2409.00289,0.16770
2407.07414,0.16827
2405.14540,0.16881
2403.21665,0.16934
2401.28791,0.17000
2399.35916,0.17084
2397.43042,0.17162
2395.50167,0.17222
2393.57293,0.17282
2391.64418,0.17351
2389.71544,0.17423
2387.78669,0.17486
2385.85795,0.17536
2383.92920,0.17587
2382.00045,0.17653
2380.07171,0.17717
2378.14296,0.17768
2376.21422,0.17822
2374.28547,0.17878
2372.35673,0.17928
2370.42798,0.17973
2368.49924,0.18016
2366.57049,0.18060
2364.64175,0.18108
2362.71300,0.18159
2360.78426,0.18193
2358.85551,0.18213
2356.92677,0.18235
2354.99802,0.18260
2353.06927,0.18293
2351.14053,0.18335
2349.21178,0.18382
2347.28304,0.18432
2345.35429,0.18466
2343.42555,0.18481
2341.49680,0.18487
2339.56806,0.18500
2337.63931,0.18527
2335.71057,0.18564
2333.78182,0.18603
2331.85308,0.18635
2329.92433,0.18648
2327.99559,0.18643
2326.06684,0.18623
2324.13810,0.18605
2322.20935,0.18606
2320.28060,0.18625
2318.35186,0.18638
2316.42311,0.18630
2314.49437,0.18617
2312.56562,0.18624
2310.63688,0.18637
2308.70813,0.18638
2306.77939,0.18630
2304.85064,0.18613
2302.92190,0.18592
2300.99315,0.18579
2299.06441,0.18575
2297.13566,0.18566
2295.20692,0.18545
2293.27817,0.18513
2291.34943,0.18475
2289.42068,0.18448
2287.49193,0.18439
2285.56319,0.18436
2283.63444,0.18425
2281.70570,0.18407
2279.77695,0.18384
2277.84821,0.18353
2275.91946,0.18317
2273.99072,0.18287
2272.06197,0.18256
2270.13323,0.18216
2268.20448,0.18169
2266.27574,0.18109
2264.34699,0.18045
2262.41825,0.18006
2260.48950,0.17988
2258.56075,0.17964
2256.63201,0.17933
2254.70326,0.17905
2252.77452,0.17877
2250.84577,0.17841
2248.91703,0.17800
2246.98828,0.17768
2245.05954,0.17754
2243.13079,0.17751
2241.20205,0.17737
2239.27330,0.17703
2237.34456,0.17664
2235.41581,0.17634
2233.48707,0.17609
2231.55832,0.17588
2229.62958,0.17574
2227.70083,0.17565
2225.77208,0.17550
2223.84334,0.17526
2221.91459,0.17496
2219.98585,0.17466
2218.05710,0.17447
2216.12836,0.17432
2214.19961,0.17404
2212.27087,0.17381
2210.34212,0.17380
2208.41338,0.17362
2206.48463,0.17312
2204.55589,0.17255
2202.62714,0.17209
2200.69840,0.17173
2198.76965,0.17138
2196.84090,0.17095
2194.91216,0.17045
2192.98341,0.16984
2191.05467,0.16917
2189.12592,0.16855
2187.19718,0.16797
2185.26843,0.16738
2183.33969,0.16679
2181.41094,0.16615
2179.48220,0.16555
2177.55345,0.16502
2175.62471,0.16435
2173.69596,0.16366
2171.76722,0.16313
2169.83847,0.16266
2167.90973,0.16217
2165.98098,0.16169
2164.05223,0.16131
2162.12349,0.16102
2160.19474,0.16080
2158.26600,0.16058
2156.33725,0.16021
2154.40851,0.15979
2152.47976,0.15959
2150.55102,0.15945
2148.62227,0.15923
2146.69353,0.15900
2144.76478,0.15879
2142.83604,0.15861
2140.90729,0.15849
2138.97855,0.15832
2137.04980,0.15812
2135.12106,0.15812
2133.19231,0.15828
2131.26356,0.15845
2129.33482,0.15865
2127.40607,0.15886
2125.47733,0.15899
2123.54858,0.15904
2121.61984,0.15905
2119.69109,0.15912
2117.76235,0.15932
2115.83360,0.15964
2113.90486,0.16002
2111.97611,0.16049
2110.04737,0.16092
2108.11862,0.16112
2106.18988,0.16112
2104.26113,0.16113
2102.33238,0.16121
2100.40364,0.16136
2098.47489,0.16151
2096.54615,0.16164
2094.61740,0.16180
2092.68866,0.16186
2090.75991,0.16173
2088.83117,0.16158
2086.90242,0.16160
2084.97368,0.16172
2083.04493,0.16170
2081.11619,0.16141
2079.18744,0.16096
2077.25870,0.16057
2075.32995,0.16033
2073.40121,0.16022
2071.47246,0.16004
2069.54371,0.15971
2067.61497,0.15932
2065.68622,0.15906
2063.75748,0.15895
2061.82873,0.15878
2059.89999,0.15848
2057.97124,0.15836
2056.04250,0.15855
2054.11375,0.15868
2052.18501,0.15860
2050.25626,0.15857
2048.32752,0.15875
2046.39877,0.15899
2044.47003,0.15920
2042.54128,0.15952
2040.61254,0.16002
2038.68379,0.16042
2036.75504,0.16062
2034.82630,0.16093
2032.89755,0.16150
2030.96881,0.16215
2029.04006,0.16270
2027.11132,0.16324
2025.18257,0.16387
2023.25383,0.16447
2021.32508,0.16500
2019.39634,0.16561
2017.46759,0.16622
2015.53885,0.16677
2013.61010,0.16738
2011.68136,0.16800
2009.75261,0.16840
2007.82386,0.16852
2005.89512,0.16853
2003.96637,0.16866
2002.03763,0.16899
2000.10888,0.16949
1998.18014,0.17001
1996.25139,0.17037
1994.32265,0.17062
1992.39390,0.17096
1990.46516,0.17136
1988.53641,0.17179
1986.60767,0.17220
1984.67892,0.17257
1982.75018,0.17292
1980.82143,0.17322
1978.89269,0.17347
1976.96394,0.17374
1975.03519,0.17395
1973.10645,0.17414
1971.17770,0.17444
1969.24896,0.17476
1967.32021,0.17494
1965.39147,0.17504
1963.46272,0.17525
1961.53398,0.17572
1959.60523,0.17635
1957.67649,0.17685
1955.74774,0.17724
1953.81900,0.17773
1951.89025,0.17822
1949.96151,0.17858
1948.03276,0.17893
1946.10402,0.17935
1944.17527,0.17979
1942.24652,0.18025
1940.31778,0.18072
1938.38903,0.18108
1936.46029,0.18122
1934.53154,0.18121
1932.60280,0.18129
1930.67405,0.18158
1928.74531,0.18191
1926.81656,0.18214
1924.88782,0.18222
1922.95907,0.18215
1921.03033,0.18204
1919.10158,0.18192
1917.17284,0.18171
1915.24409,0.18150
1913.31534,0.18135
1911.38660,0.18124
1909.45785,0.18115
1907.52911,0.18098
1905.60036,0.18066
1903.67162,0.18031
1901.74287,0.17995
1899.81413,0.17953
1897.88538,0.17920
1895.95664,0.17904
1894.02789,0.17893
1892.09915,0.17872
1890.17040,0.17847
1888.24166,0.17831
1886.31291,0.17817
1884.38417,0.17798
1882.45542,0.17776
1880.52667,0.17757
1878.59793,0.17735
1876.66918,0.17708
1874.74044,0.17672
1872.81169,0.17636
1870.88295,0.17614
1868.95420,0.17590
1867.02546,0.17552
1865.09671,0.17508
1863.16797,0.17458
1861.23922,0.17405
1859.31048,0.17360
1857.38173,0.17322
1855.45299,0.17271
1853.52424,0.17208
1851.59549,0.17148
1849.66675,0.17099
1847.73800,0.17052
1845.80926,0.16986
1843.88051,0.16902
1841.95177,0.16815
1840.02302,0.16731
1838.09428,0.16650
1836.16553,0.16568
1834.23679,0.16480
1832.30804,0.16393
1830.37930,0.16304
1828.45055,0.16202
1826.52181,0.16081
1824.59306,0.15943
1822.66432,0.15808
1820.73557,0.15686
1818.80682,0.15562
1816.87808,0.15417
1814.94933,0.15263
1813.02059,0.15120
1811.09184,0.14973
1809.16310,0.14802
1807.23435,0.14621
1805.30561,0.14436
1803.37686,0.14235
1801.44812,0.14030
1799.51937,0.13838
1797.59063,0.13650
1795.66188,0.13448
1793.73314,0.13211
1791.80439,0.12938
1789.87565,0.12675
1787.94690,0.12425
1786.01815,0.12163
1784.08941,0.11890
1782.16066,0.11613
1780.23192,0.11330
1778.30317,0.11040
1776.37443,0.10747
1774.44568,0.10438
1772.51694,0.10072
1770.58819,0.09677
1768.65945,0.09299
1766.73070,0.08920
1764.80196,0.08546
1762.87321,0.08163
1760.94447,0.07762
1759.01572,0.07390
1757.08697,0.07040
1755.15823,0.06707
1753.22948,0.06420
1751.30074,0.06164
1749.37199,0.05929
1747.44325,0.05738
1745.51450,0.05595
1743.58576,0.05479
1741.65701,0.05385
1739.72827,0.05316
1737.79952,0.05267
1735.87078,0.05221
1733.94203,0.05179
1732.01329,0.05164
1730.08454,0.05163
1728.15580,0.05160
1726.22705,0.05162
1724.29830,0.05172
1722.36956,0.05185
1720.44081,0.05209
1718.51207,0.05238
1716.58332,0.05260
1714.65458,0.05269
1712.72583,0.05261
1710.79709,0.05247
1708.86834,0.05239
1706.93960,0.05217
1705.01085,0.05166
1703.08211,0.05093
1701.15336,0.04981
1699.22462,0.04850
1697.29587,0.04766
1695.36713,0.04704
1693.43838,0.04634
1691.50963,0.04565
1689.58089,0.04488
1687.65214,0.04400
1685.72340,0.04295
1683.79465,0.04168
1681.86591,0.04066
1679.93716,0.04006
1678.00842,0.03966
1676.07967,0.03936
1674.15093,0.03912
1672.22218,0.03887
1670.29344,0.03857
1668.36469,0.03840
1666.43595,0.03861
1664.50720,0.03902
1662.57845,0.03942
1660.64971,0.03985
1658.72096,0.04033
1656.79222,0.04088
1654.86347,0.04158
1652.93473,0.04230
1651.00598,0.04274
1649.07724,0.04307
1647.14849,0.04335
1645.21975,0.04360
1643.29100,0.04393
1641.36226,0.04434
1639.43351,0.04473
1637.50477,0.04495
1635.57602,0.04487
1633.64728,0.04468
1631.71853,0.04466
1629.78978,0.04486
1627.86104,0.04503
1625.93229,0.04503
1624.00355,0.04510
1622.07480,0.04516
1620.14606,0.04508
1618.21731,0.04488
1616.28857,0.04465
1614.35982,0.04457
1612.43108,0.04462
1610.50233,0.04459
1608.57359,0.04446
1606.64484,0.04441
1604.71610,0.04455
1602.78735,0.04490
1600.85861,0.04515
1598.92986,0.04518
1597.00111,0.04533
1595.07237,0.04572
1593.14362,0.04620
1591.21488,0.04665
1589.28613,0.04694
1587.35739,0.04721
1585.42864,0.04765
1583.49990,0.04819
1581.57115,0.04881
1579.64241,0.04953
1577.71366,0.05023
1575.78492,0.05072
1573.85617,0.05103
1571.92743,0.05134
1569.99868,0.05160
1568.06993,0.05176
1566.14119,0.05188
1564.21244,0.05200
1562.28370,0.05216
1560.35495,0.05223
1558.42621,0.05206
1556.49746,0.05184
1554.56872,0.05165
1552.63997,0.05148
1550.71123,0.05141
1548.78248,0.05148
1546.85374,0.05169
1544.92499,0.05190
1542.99625,0.05196
1541.06750,0.05180
1539.13876,0.05167
1537.21001,0.05197
1535.28126,0.05234
1533.35252,0.05223
1531.42377,0.05169
1529.49503,0.05116
1527.56628,0.05062
1525.63754,0.04985
1523.70879,0.04878
1521.78005,0.04740
1519.85130,0.04611
1517.92256,0.04521
1515.99381,0.04450
1514.06507,0.04408
1512.13632,0.04409
1510.20758,0.04438
1508.27883,0.04483
1506.35008,0.04564
1504.42134,0.04663
1502.49259,0.04750
1500.56385,0.04850
1498.63510,0.04963
1496.70636,0.05048
1494.77761,0.05093
1492.84887,0.05135
1490.92012,0.05175
1488.99138,0.05179
1487.06263,0.05133
1485.13389,0.05066
1483.20514,0.05014
1481.27640,0.04969
1479.34765,0.04900
1477.41891,0.04808
1475.49016,0.04721
1473.56141,0.04635
1471.63267,0.04513
1469.70392,0.04400
1467.77518,0.04352
1465.84643,0.04344
1463.91769,0.04341
1461.98894,0.04345
1460.06020,0.04361
1458.13145,0.04378
1456.20271,0.04373
1454.27396,0.04359
1452.34522,0.04369
1450.41647,0.04397
1448.48773,0.04420
1446.55898,0.04425
1444.63024,0.04417
1442.70149,0.04404
1440.77274,0.04393
1438.84400,0.04377
1436.91525,0.04340
1434.98651,0.04299
1433.05776,0.04269
1431.12902,0.04247
1429.20027,0.04232
1427.27153,0.04234
1425.34278,0.04253
1423.41404,0.04284
1421.48529,0.04333
1419.55655,0.04405
1417.62780,0.04467
1415.69906,0.04494
1413.77031,0.04501
1411.84156,0.04510
1409.91282,0.04533
1407.98407,0.04554
1406.05533,0.04559
1404.12658,0.04542
1402.19784,0.04512
1400.26909,0.04485
1398.34035,0.04461
1396.41160,0.04420
1394.48286,0.04364
1392.55411,0.04308
1390.62537,0.04260
1388.69662,0.04224
1386.76788,0.04191
1384.83913,0.04154
1382.91039,0.04122
1380.98164,0.04092
1379.05289,0.04061
1377.12415,0.04043
1375.19540,0.04054
1373.26666,0.04086
1371.33791,0.04120
1369.40917,0.04143
1367.48042,0.04157
1365.55168,0.04177
1363.62293,0.04205
1361.69419,0.04225
1359.76544,0.04235
1357.83670,0.04241
1355.90795,0.04245
1353.97921,0.04249
1352.05046,0.04252
1350.12172,0.04257
1348.19297,0.04261
1346.26422,0.04258
1344.33548,0.04245
1342.40673,0.04224
1340.47799,0.04200
1338.54924,0.04182
1336.62050,0.04181
1334.69175,0.04184
1332.76301,0.04180
1330.83426,0.04177
1328.90552,0.04175
1326.97677,0.04181
1325.04803,0.04192
1323.11928,0.04189
1321.19054,0.04170
1319.26179,0.04147
1317.33304,0.04137
1315.40430,0.04156
1313.47555,0.04187
1311.54681,0.04202
1309.61806,0.04202
1307.68932,0.04201
1305.76057,0.04203
1303.83183,0.04204
1301.90308,0.04200
1299.97434,0.04190
1298.04559,0.04164
1296.11685,0.04128
1294.18810,0.04113
1292.25936,0.04102
1290.33061,0.04059
1288.40187,0.03991
1286.47312,0.03929
1284.54437,0.03887
1282.61563,0.03865
1280.68688,0.03845
1278.75814,0.03824
1276.82939,0.03816
1274.90065,0.03815
1272.97190,0.03809
1271.04316,0.03807
1269.11441,0.03815
1267.18567,0.03836
1265.25692,0.03875
1263.32818,0.03924
1261.39943,0.03968
1259.47069,0.03996
1257.54194,0.04010
1255.61320,0.04032
1253.68445,0.04072
1251.75570,0.04108
1249.82696,0.04120
1247.89821,0.04107
1245.96947,0.04093
1244.04072,0.04102
1242.11198,0.04126
1240.18323,0.04141
1238.25449,0.04142
1236.32574,0.04138
1234.39700,0.04130
1232.46825,0.04132
1230.53951,0.04153
1228.61076,0.04175
1226.68202,0.04190
1224.75327,0.04204
1222.82452,0.04222
1220.89578,0.04239
1218.96703,0.04237
1217.03829,0.04229
1215.10954,0.04235
1213.18080,0.04243
1211.25205,0.04249
1209.32331,0.04248
1207.39456,0.04221
1205.46582,0.04192
1203.53707,0.04187
1201.60833,0.04192
1199.67958,0.04198
1197.75084,0.04204
1195.82209,0.04190
1193.89335,0.04157
1191.96460,0.04126
1190.03585,0.04092
1188.10711,0.04047
1186.17836,0.03980
1184.24962,0.03889
1182.32087,0.03793
1180.39213,0.03705
1178.46338,0.03618
1176.53464,0.03536
1174.60589,0.03471
1172.67715,0.03425
1170.74840,0.03410
1168.81966,0.03439
1166.89091,0.03503
1164.96217,0.03580
1163.03342,0.03652
1161.10467,0.03709
1159.17593,0.03754
1157.24718,0.03786
1155.31844,0.03776
1153.38969,0.03726
1151.46095,0.03683
1149.53220,0.03665
1147.60346,0.03650
1145.67471,0.03641
1143.74597,0.03644
1141.81722,0.03631
1139.88848,0.03599
1137.95973,0.03565
1136.03099,0.03532
1134.10224,0.03509
1132.17350,0.03493
1130.24475,0.03485
1128.31600,0.03489
1126.38726,0.03494
1124.45851,0.03499
1122.52977,0.03510
1120.60102,0.03515
1118.67228,0.03505
1116.74353,0.03505
1114.81479,0.03553
1112.88604,0.03627
1110.95730,0.03674
1109.02855,0.03697
1107.09981,0.03726
1105.17106,0.03756
1103.24232,0.03780
1101.31357,0.03783
1099.38483,0.03756
1097.45608,0.03745
1095.52733,0.03766
1093.59859,0.03775
1091.66984,0.03756
1089.74110,0.03740
1087.81235,0.03737
1085.88361,0.03737
1083.95486,0.03744
1082.02612,0.03781
1080.09737,0.03854
1078.16863,0.03925
1076.23988,0.03969
1074.31114,0.04027
1072.38239,0.04133
1070.45365,0.04260
1068.52490,0.04363
1066.59615,0.04449
1064.66741,0.04568
1062.73866,0.04739
1060.80992,0.04938
1058.88117,0.05112
1056.95243,0.05193
1055.02368,0.05190
1053.09494,0.05177
1051.16619,0.05181
1049.23745,0.05180
1047.30870,0.05164
1045.37996,0.05152
1043.45121,0.05161
1041.52247,0.05193
1039.59372,0.05263
1037.66498,0.05380
1035.73623,0.05523
1033.80748,0.05641
1031.87874,0.05710
1029.94999,0.05756
1028.02125,0.05802
1026.09250,0.05845
1024.16376,0.05872
1022.23501,0.05879
1020.30627,0.05894
1018.37752,0.05940
1016.44878,0.05989
1014.52003,0.06011
1012.59129,0.06031
1010.66254,0.06068
1008.73380,0.06099
1006.80505,0.06118
1004.87631,0.06131
1002.94756,0.06135
1001.01881,0.06142
999.09007,0.06159
997.16132,0.06189
995.23258,0.06238
993.30383,0.06284
991.37509,0.06315
989.44634,0.06353
987.51760,0.06410
985.58885,0.06509
983.66011,0.06660
981.73136,0.06785
979.80262,0.06833
977.87387,0.06852
975.94513,0.06888
974.01638,0.06940
972.08763,0.06988
970.15889,0.07019
968.23014,0.07038
966.30140,0.07071
964.37265,0.07124
962.44391,0.07176
960.51516,0.07216
958.58642,0.07261
956.65767,0.07318
954.72893,0.07378
952.80018,0.07432
950.87144,0.07468
948.94269,0.07502
947.01395,0.07553
945.08520,0.07595
943.15646,0.07616
941.22771,0.07632
939.29896,0.07647
937.37022,0.07671
935.44147,0.07715
933.51273,0.07771
931.58398,0.07820
929.65524,0.07844
927.72649,0.07839
925.79775,0.07822
923.86900,0.07810
921.94026,0.07791
920.01151,0.07744
918.08277,0.07670
916.15402,0.07584
914.22528,0.07498
912.29653,0.07414
910.36779,0.07312
908.43904,0.07189
906.51029,0.07076
904.58155,0.06974
902.65280,0.06864
900.72406,0.06772
898.79531,0.06751
896.86657,0.06792
894.93782,0.06848
893.00908,0.06903
891.08033,0.06958
889.15159,0.07000
887.22284,0.07033
885.29410,0.07062
883.36535,0.07087
881.43661,0.07113
879.50786,0.07139
877.57911,0.07156
875.65037,0.07156
873.72162,0.07157
871.79288,0.07161
869.86413,0.07152
867.93539,0.07143
866.00664,0.07149
864.07790,0.07161
862.14915,0.07176
860.22041,0.07188
858.29166,0.07173
856.36292,0.07151
854.43417,0.07189
852.50543,0.07264
850.57668,0.07312
848.64794,0.07333
846.71919,0.07337
844.79044,0.07317
842.86170,0.07274
840.93295,0.07226
839.00421,0.07185
837.07546,0.07130
835.14672,0.07053
833.21797,0.06969
831.28923,0.06903
829.36048,0.06868
827.43174,0.06829
825.50299,0.06750
823.57425,0.06658
821.64550,0.06597
819.71676,0.06550
817.78801,0.06473
815.85926,0.06368
813.93052,0.06294
812.00177,0.06271
810.07303,0.06253
808.14428,0.06213
806.21554,0.06194
804.28679,0.06236
802.35805,0.06308
800.42930,0.06339
798.50056,0.06326
796.57181,0.06302
794.64307,0.06261
792.71432,0.06191
790.78558,0.06125
788.85683,0.06083
786.92809,0.06035
784.99934,0.05980
783.07059,0.05954
781.14185,0.05930
779.21310,0.05880
777.28436,0.05846
775.35561,0.05846
773.42687,0.05854
771.49812,0.05859
769.56938,0.05858
767.64063,0.05833
765.71189,0.05785
763.78314,0.05755
761.85440,0.05756
759.92565,0.05743
757.99691,0.05703
756.06816,0.05686
754.13942,0.05702
752.21067,0.05689
750.28192,0.05623
748.35318,0.05544
746.42443,0.05483
744.49569,0.05444
742.56694,0.05430
740.63820,0.05433
738.70945,0.05410
736.78071,0.05331
734.85196,0.05242
732.92322,0.05201
730.99447,0.05190
729.06573,0.05151
727.13698,0.05083
725.20824,0.05022
723.27949,0.04994
721.35074,0.04990
719.42200,0.04966
717.49325,0.04922
715.56451,0.04902
713.63576,0.04907
711.70702,0.04903
709.77827,0.04870
707.84953,0.04831
705.92078,0.04829
703.99204,0.04851
702.06329,0.04839
700.13455,0.04801
698.20580,0.04795
696.27706,0.04809
694.34831,0.04780
692.41957,0.04717
690.49082,0.04677
688.56207,0.04672
686.63333,0.04669
684.70458,0.04658
682.77584,0.04664
680.84709,0.04674
678.91835,0.04640
676.98960,0.04567
675.06086,0.04528
673.13211,0.04527
671.20337,0.04514
669.27462,0.04511
667.34588,0.04527
665.41713,0.04536
663.48839,0.04553
661.55964,0.04573
659.63090,0.04579
657.70215,0.04604
655.77340,0.04642
653.84466,0.04616
651.91591,0.04534
649.98717,0.04477
648.05842,0.04474
646.12968,0.04496
644.20093,0.04498
642.27219,0.04471
640.34344,0.04425
638.41470,0.04373
636.48595,0.04352
634.55721,0.04360
632.62846,0.04402
630.69972,0.04492
628.77097,0.04569
626.84222,0.04559
624.91348,0.04517
622.98473,0.04513
621.05599,0.04503
619.12724,0.04482
617.19850,0.04510
615.26975,0.04583
613.34101,0.04625
611.41226,0.04598
609.48352,0.04562
607.55477,0.04570
605.62603,0.04633
603.69728,0.04692
601.76854,0.04682
599.83979,0.04621
