7497.03301,0.72184
7495.10426,0.72133
7493.17552,0.72136
7491.24677,0.72072
7489.31803,0.71633
7487.38928,0.71230
7485.46054,0.71245
7483.53179,0.71472
7481.60305,0.71755
7479.67430,0.71883
7477.74556,0.71610
7475.81681,0.71141
7473.88807,0.70922
7471.95932,0.71256
7470.03057,0.71866
7468.10183,0.71994
7466.17308,0.71456
7464.24434,0.70881
7462.31559,0.70696
7460.38685,0.70731
7458.45810,0.70678
7456.52936,0.70362
7454.60061,0.70096
7452.67187,0.70281
7450.74312,0.70563
7448.81438,0.70542
7446.88563,0.70350
7444.95689,0.70048
7443.02814,0.69790
7441.09940,0.69807
7439.17065,0.69783
7437.24190,0.69478
7435.31316,0.69306
7433.38441,0.69423
7431.45567,0.69478
7429.52692,0.69432
7427.59818,0.69461
7425.66943,0.69404
7423.74069,0.69088
7421.81194,0.68855
7419.88320,0.69066
7417.95445,0.69351
7416.02571,0.69253
7414.09696,0.68981
7412.16822,0.68783
7410.23947,0.68587
7408.31073,0.68313
7406.38198,0.68218
7404.45323,0.68619
7402.52449,0.69033
7400.59574,0.68942
7398.66700,0.68863
7396.73825,0.69140
7394.80951,0.69370
7392.88076,0.69309
7390.95202,0.69085
7389.02327,0.68928
7387.09453,0.68943
7385.16578,0.69031
7383.23704,0.69046
7381.30829,0.68906
7379.37955,0.68708
7377.45080,0.68605
7375.52205,0.68516
7373.59331,0.68348
7371.66456,0.68140
7369.73582,0.67753
7367.80707,0.67337
7365.87833,0.67419
7363.94958,0.67749
7362.02084,0.67747
7360.09209,0.67653
7358.16335,0.67718
7356.23460,0.67693
7354.30586,0.67531
7352.37711,0.67347
7350.44837,0.67140
7348.51962,0.67024
7346.59088,0.67170
7344.66213,0.67551
7342.73338,0.67829
7340.80464,0.67746
7338.87589,0.67573
7336.94715,0.67484
7335.01840,0.67286
7333.08966,0.67112
7331.16091,0.67107
7329.23217,0.67071
7327.30342,0.67001
7325.37468,0.66840
7323.44593,0.66406
7321.51719,0.66080
7319.58844,0.66025
7317.65970,0.65977
7315.73095,0.66175
7313.80221,0.66578
7311.87346,0.66627
7309.94471,0.66235
7308.01597,0.65731
7306.08722,0.65468
7304.15848,0.65482
7302.22973,0.65526
7300.30099,0.65686
7298.37224,0.66113
7296.44350,0.66391
7294.51475,0.66117
7292.58601,0.65775
7290.65726,0.65930
7288.72852,0.66160
7286.79977,0.66069
7284.87103,0.65964
7282.94228,0.65913
7281.01353,0.65840
7279.08479,0.65829
7277.15604,0.65746
7275.22730,0.65622
7273.29855,0.65699
7271.36981,0.66118
7269.44106,0.66724
7267.51232,0.66831
7265.58357,0.66236
7263.65483,0.65849
7261.72608,0.66167
7259.79734,0.66551
7257.86859,0.66537
7255.93985,0.66406
7254.01110,0.66282
7252.08236,0.65969
7250.15361,0.65627
7248.22486,0.65656
7246.29612,0.65982
7244.36737,0.66216
7242.43863,0.66319
7240.50988,0.66264
7238.58114,0.65885
7236.65239,0.65481
7234.72365,0.65425
7232.79490,0.65589
7230.86616,0.65576
7228.93741,0.65218
7227.00867,0.64930
7225.07992,0.65101
7223.15118,0.65455
7221.22243,0.65713
7219.29369,0.65925
7217.36494,0.65983
7215.43619,0.65849
7213.50745,0.65806
7211.57870,0.65884
7209.64996,0.65759
7207.72121,0.65422
7205.79247,0.65173
7203.86372,0.65074
7201.93498,0.64882
7200.00623,0.64476
7198.07749,0.64086
7196.14874,0.63930
7194.22000,0.64029
7192.29125,0.64215
7190.36251,0.64310
7188.43376,0.64464
7186.50501,0.64572
7184.57627,0.64321
7182.64752,0.64125
7180.71878,0.64350
7178.79003,0.64630
7176.86129,0.64787
7174.93254,0.64871
7173.00380,0.64641
7171.07505,0.64125
7169.14631,0.63752
7167.21756,0.63680
7165.28882,0.63880
7163.36007,0.64237
7161.43133,0.64308
7159.50258,0.64038
7157.57384,0.64008
7155.64509,0.64346
7153.71634,0.64512
7151.78760,0.64242
7149.85885,0.63879
7147.93011,0.63633
7146.00136,0.63270
7144.07262,0.62881
7142.14387,0.62938
7140.21513,0.63327
7138.28638,0.63520
7136.35764,0.63468
7134.42889,0.63397
7132.50015,0.63306
7130.57140,0.63083
7128.64266,0.62665
7126.71391,0.62183
7124.78516,0.61971
7122.85642,0.62128
7120.92767,0.62297
7118.99893,0.62066
7117.07018,0.61587
7115.14144,0.61387
7113.21269,0.61495
7111.28395,0.61571
7109.35520,0.61371
7107.42646,0.60891
7105.49771,0.60498
7103.56897,0.60409
7101.64022,0.60492
7099.71148,0.60698
7097.78273,0.60844
7095.85399,0.60560
7093.92524,0.59937
7091.99649,0.59438
7090.06775,0.59202
7088.13900,0.59069
7086.21026,0.58950
7084.28151,0.58951
7082.35277,0.59069
7080.42402,0.59043
7078.49528,0.58820
7076.56653,0.58608
7074.63779,0.58485
7072.70904,0.58300
7070.78030,0.57927
7068.85155,0.57547
7066.92281,0.57402
7064.99406,0.57379
7063.06532,0.57237
7061.13657,0.57011
7059.20782,0.56728
7057.27908,0.56412
7055.35033,0.56397
7053.42159,0.56689
7051.49284,0.56745
7049.56410,0.56341
7047.63535,0.55984
7045.70661,0.56026
7043.77786,0.56055
7041.84912,0.55815
7039.92037,0.55558
7037.99163,0.55385
7036.06288,0.55215
7034.13414,0.55025
7032.20539,0.54798
7030.27664,0.54586
7028.34790,0.54569
7026.41915,0.54706
7024.49041,0.54805
7022.56166,0.54908
7020.63292,0.54885
7018.70417,0.54371
7016.77543,0.53438
7014.84668,0.52673
7012.91794,0.52552
7010.98919,0.52844
7009.06045,0.53064
7007.13170,0.53104
7005.20296,0.53000
7003.27421,0.52828
7001.34547,0.52778
6999.41672,0.52942
6997.48797,0.53146
6995.55923,0.53047
6993.63048,0.52711
6991.70174,0.52525
6989.77299,0.52544
6987.84425,0.52598
6985.91550,0.52610
6983.98676,0.52599
6982.05801,0.52514
6980.12927,0.52277
6978.20052,0.52062
6976.27178,0.52089
6974.34303,0.52162
6972.41429,0.51921
6970.48554,0.51521
6968.55680,0.51366
6966.62805,0.51434
6964.69930,0.51443
6962.77056,0.51345
6960.84181,0.51344
6958.91307,0.51547
6956.98432,0.51783
6955.05558,0.51819
6953.12683,0.51646
6951.19809,0.51497
6949.26934,0.51522
6947.34060,0.51491
6945.41185,0.51106
6943.48311,0.50623
6941.55436,0.50494
6939.62562,0.50606
6937.69687,0.50602
6935.76812,0.50458
6933.83938,0.50379
6931.91063,0.50400
6929.98189,0.50530
6928.05314,0.50808
6926.12440,0.50950
6924.19565,0.50700
6922.26691,0.50243
6920.33816,0.49939
6918.40942,0.49994
6916.48067,0.50306
6914.55193,0.50534
6912.62318,0.50518
6910.69444,0.50496
6908.76569,0.50505
6906.83695,0.50404
6904.90820,0.50398
6902.97945,0.50408
6901.05071,0.50153
6899.12196,0.49961
6897.19322,0.50154
6895.26447,0.50424
6893.33573,0.50404
6891.40698,0.50163
6889.47824,0.50009
6887.54949,0.49996
6885.62075,0.49909
6883.69200,0.49821
6881.76326,0.49923
6879.83451,0.50008
6877.90577,0.49893
6875.97702,0.49673
6874.04828,0.49453
6872.11953,0.49430
6870.19078,0.49741
6868.26204,0.50055
6866.33329,0.50067
6864.40455,0.49996
6862.47580,0.49955
6860.54706,0.49822
6858.61831,0.49741
6856.68957,0.49776
6854.76082,0.49703
6852.83208,0.49526
6850.90333,0.49487
6848.97459,0.49487
6847.04584,0.49373
6845.11710,0.49374
6843.18835,0.49520
6841.25960,0.49566
6839.33086,0.49501
6837.40211,0.49501
6835.47337,0.49614
6833.54462,0.49689
6831.61588,0.49773
6829.68713,0.50021
6827.75839,0.50126
6825.82964,0.49699
6823.90090,0.49086
6821.97215,0.48912
6820.04341,0.49163
6818.11466,0.49464
6816.18592,0.49557
6814.25717,0.49385
6812.32843,0.49129
6810.39968,0.48986
6808.47093,0.49025
6806.54219,0.49086
6804.61344,0.48999
6802.68470,0.48960
6800.75595,0.49097
6798.82721,0.49221
6796.89846,0.49250
6794.96972,0.49138
6793.04097,0.48849
6791.11223,0.48593
6789.18348,0.48561
6787.25474,0.48728
6785.32599,0.48918
6783.39725,0.49023
6781.46850,0.49064
6779.53975,0.48894
6777.61101,0.48514
6775.68226,0.48336
6773.75352,0.48534
6771.82477,0.48730
6769.89603,0.48625
6767.96728,0.48482
6766.03854,0.48498
6764.10979,0.48492
6762.18105,0.48431
6760.25230,0.48361
6758.32356,0.48246
6756.39481,0.48150
6754.46607,0.48031
6752.53732,0.47833
6750.60858,0.47771
6748.67983,0.47970
6746.75108,0.48225
6744.82234,0.48297
6742.89359,0.48194
6740.96485,0.48136
6739.03610,0.48157
6737.10736,0.48126
6735.17861,0.48107
6733.24987,0.48162
6731.32112,0.48188
6729.39238,0.48134
6727.46363,0.48082
6725.53489,0.48114
6723.60614,0.48089
6721.67740,0.47869
6719.74865,0.47725
6717.81991,0.47769
6715.89116,0.47739
6713.96241,0.47760
6712.03367,0.47975
6710.10492,0.48062
6708.17618,0.48010
6706.24743,0.48136
6704.31869,0.48286
6702.38994,0.48093
6700.46120,0.47739
6698.53245,0.47619
6696.60371,0.47710
6694.67496,0.47784
6692.74622,0.47855
6690.81747,0.48031
6688.88873,0.48126
6686.95998,0.48045
6685.03123,0.47987
6683.10249,0.47983
6681.17374,0.48013
6679.24500,0.48083
6677.31625,0.48069
6675.38751,0.48046
6673.45876,0.48236
6671.53002,0.48521
6669.60127,0.48589
6667.67253,0.48408
6665.74378,0.48240
6663.81504,0.48282
6661.88629,0.48417
6659.95755,0.48476
6658.02880,0.48530
6656.10006,0.48547
6654.17131,0.48390
6652.24256,0.48323
6650.31382,0.48521
6648.38507,0.48680
6646.45633,0.48762
6644.52758,0.48883
6642.59884,0.48870
6640.67009,0.48772
6638.74135,0.48794
6636.81260,0.48923
6634.88386,0.49144
6632.95511,0.49369
6631.02637,0.49385
6629.09762,0.49168
6627.16888,0.48918
6625.24013,0.48815
6623.31139,0.48860
6621.38264,0.48925
6619.45389,0.49023
6617.52515,0.49315
6615.59640,0.49584
6613.66766,0.49420
6611.73891,0.49139
6609.81017,0.49210
6607.88142,0.49377
6605.95268,0.49440
6604.02393,0.49630
6602.09519,0.49835
6600.16644,0.49769
6598.23770,0.49613
6596.30895,0.49568
6594.38021,0.49629
6592.45146,0.49816
6590.52271,0.49873
6588.59397,0.49607
6586.66522,0.49331
6584.73648,0.49334
6582.80773,0.49534
6580.87899,0.49744
6578.95024,0.49935
6577.02150,0.50085
6575.09275,0.50130
6573.16401,0.50104
6571.23526,0.50089
6569.30652,0.50136
6567.37777,0.50192
6565.44903,0.50200
6563.52028,0.50188
6561.59154,0.50269
6559.66279,0.50519
6557.73404,0.50621
6555.80530,0.50362
6553.87655,0.50109
6551.94781,0.50105
6550.01906,0.50251
6548.09032,0.50532
6546.16157,0.50832
6544.23283,0.50905
6542.30408,0.50799
6540.37534,0.50693
6538.44659,0.50584
6536.51785,0.50474
6534.58910,0.50479
6532.66036,0.50669
6530.73161,0.50914
6528.80287,0.51078
6526.87412,0.51214
6524.94537,0.51317
6523.01663,0.51312
6521.08788,0.51170
6519.15914,0.50928
6517.23039,0.50762
6515.30165,0.50770
6513.37290,0.50807
6511.44416,0.50761
6509.51541,0.50670
6507.58667,0.50598
6505.65792,0.50589
6503.72918,0.50659
6501.80043,0.50767
6499.87169,0.50865
6497.94294,0.51011
6496.01419,0.51207
6494.08545,0.51306
6492.15670,0.51296
6490.22796,0.51278
6488.29921,0.51235
6486.37047,0.51192
6484.44172,0.51204
6482.51298,0.51220
6480.58423,0.51276
6478.65549,0.51516
6476.72674,0.51786
6474.79800,0.51719
6472.86925,0.51452
6470.94051,0.51441
6469.01176,0.51610
6467.08302,0.51613
6465.15427,0.51562
6463.22552,0.51713
6461.29678,0.51883
6459.36803,0.51821
6457.43929,0.51656
6455.51054,0.51570
6453.58180,0.51567
6451.65305,0.51608
6449.72431,0.51608
6447.79556,0.51620
6445.86682,0.51764
6443.93807,0.51821
6442.00933,0.51701
6440.08058,0.51626
6438.15184,0.51674
6436.22309,0.51877
6434.29434,0.52085
6432.36560,0.52136
6430.43685,0.52190
6428.50811,0.52235
6426.57936,0.52110
6424.65062,0.51938
6422.72187,0.51887
6420.79313,0.51911
6418.86438,0.52011
6416.93564,0.52263
6415.00689,0.52460
6413.07815,0.52427
6411.14940,0.52316
6409.22066,0.52191
6407.29191,0.52084
6405.36317,0.52103
6403.43442,0.52197
6401.50567,0.52311
6399.57693,0.52435
6397.64818,0.52466
6395.71944,0.52383
6393.79069,0.52280
6391.86195,0.52216
6389.93320,0.52192
6388.00446,0.52242
6386.07571,0.52351
6384.14697,0.52381
6382.21822,0.52348
6380.28948,0.52340
6378.36073,0.52259
6376.43199,0.52109
6374.50324,0.52017
6372.57450,0.52028
6370.64575,0.52172
6368.71700,0.52375
6366.78826,0.52462
6364.85951,0.52407
6362.93077,0.52340
6361.00202,0.52386
6359.07328,0.52570
6357.14453,0.52720
6355.21579,0.52670
6353.28704,0.52643
6351.35830,0.52853
6349.42955,0.53030
6347.50081,0.52966
6345.57206,0.52860
6343.64332,0.52798
6341.71457,0.52668
6339.78582,0.52511
6337.85708,0.52476
6335.92833,0.52535
6333.99959,0.52527
6332.07084,0.52444
6330.14210,0.52443
6328.21335,0.52586
6326.28461,0.52785
6324.35586,0.52948
6322.42712,0.52994
6320.49837,0.52906
6318.56963,0.52875
6316.64088,0.53045
6314.71214,0.53179
6312.78339,0.53027
6310.85465,0.52797
6308.92590,0.52795
6306.99715,0.53055
6305.06841,0.53437
6303.13966,0.53646
6301.21092,0.53510
6299.28217,0.53252
6297.35343,0.53113
6295.42468,0.53077
6293.49594,0.53027
6291.56719,0.52930
6289.63845,0.52881
6287.70970,0.52941
6285.78096,0.53047
6283.85221,0.53123
6281.92347,0.53182
6279.99472,0.53232
6278.06598,0.53311
6276.13723,0.53574
6274.20848,0.53989
6272.27974,0.54193
6270.35099,0.53951
6268.42225,0.53593
6266.49350,0.53611
6264.56476,0.53912
6262.63601,0.54071
6260.70727,0.54031
6258.77852,0.53975
6256.84978,0.53996
6254.92103,0.54116
6252.99229,0.54276
6251.06354,0.54394
6249.13480,0.54483
6247.20605,0.54558
6245.27730,0.54551
6243.34856,0.54385
6241.41981,0.54202
6239.49107,0.54273
6237.56232,0.54568
6235.63358,0.54780
6233.70483,0.54721
6231.77609,0.54541
6229.84734,0.54563
6227.91860,0.54821
6225.98985,0.55063
6224.06111,0.55166
6222.13236,0.55195
6220.20362,0.55218
6218.27487,0.55273
6216.34613,0.55316
6214.41738,0.55295
6212.48863,0.55256
6210.55989,0.55197
6208.63114,0.55128
6206.70240,0.55213
6204.77365,0.55467
6202.84491,0.55644
6200.91616,0.55695
6198.98742,0.55850
6197.05867,0.56088
6195.12993,0.56181
6193.20118,0.56073
6191.27244,0.55926
6189.34369,0.55948
6187.41495,0.56074
6185.48620,0.56124
6183.55746,0.56125
6181.62871,0.56178
6179.69996,0.56331
6177.77122,0.56529
6175.84247,0.56580
6173.91373,0.56434
6171.98498,0.56373
6170.05624,0.56511
6168.12749,0.56558
6166.19875,0.56516
6164.27000,0.56619
6162.34126,0.56815
6160.41251,0.56982
6158.48377,0.57051
6156.55502,0.57046
6154.62628,0.57125
6152.69753,0.57200
6150.76878,0.57039
6148.84004,0.56819
6146.91129,0.56854
6144.98255,0.57064
6143.05380,0.57186
6141.12506,0.57175
6139.19631,0.57193
6137.26757,0.57304
6135.33882,0.57377
6133.41008,0.57390
6131.48133,0.57439
6129.55259,0.57470
6127.62384,0.57403
6125.69510,0.57356
6123.76635,0.57415
6121.83761,0.57475
6119.90886,0.57482
6117.98011,0.57473
6116.05137,0.57399
6114.12262,0.57265
6112.19388,0.57201
6110.26513,0.57269
6108.33639,0.57406
6106.40764,0.57494
6104.47890,0.57499
6102.55015,0.57546
6100.62141,0.57669
6098.69266,0.57713
6096.76392,0.57655
6094.83517,0.57622
6092.90643,0.57623
6090.97768,0.57674
6089.04893,0.57796
6087.12019,0.57869
6085.19144,0.57854
6083.26270,0.57820
6081.33395,0.57738
6079.40521,0.57628
6077.47646,0.57615
6075.54772,0.57686
6073.61897,0.57773
6071.69023,0.57908
6069.76148,0.58010
6067.83274,0.57940
6065.90399,0.57754
6063.97525,0.57591
6062.04650,0.57534
6060.11776,0.57612
6058.18901,0.57722
6056.26026,0.57707
6054.33152,0.57564
6052.40277,0.57416
6050.47403,0.57362
6048.54528,0.57348
6046.61654,0.57278
6044.68779,0.57253
6042.75905,0.57362
6040.83030,0.57449
6038.90156,0.57370
6036.97281,0.57253
6035.04407,0.57261
6033.11532,0.57301
6031.18658,0.57235
6029.25783,0.57129
6027.32909,0.57018
6025.40034,0.56848
6023.47159,0.56723
6021.54285,0.56716
6019.61410,0.56686
6017.68536,0.56578
6015.75661,0.56509
6013.82787,0.56504
6011.89912,0.56497
6009.97038,0.56440
6008.04163,0.56278
6006.11289,0.56087
6004.18414,0.56005
6002.25540,0.55983
6000.32665,0.55918
5998.39791,0.55787
5996.46916,0.55619
5994.54041,0.55464
5992.61167,0.55375
5990.68292,0.55380
5988.75418,0.55424
5986.82543,0.55439
5984.89669,0.55450
5982.96794,0.55511
5981.03920,0.55607
5979.11045,0.55653
5977.18171,0.55609
5975.25296,0.55524
5973.32422,0.55455
5971.39547,0.55384
5969.46673,0.55278
5967.53798,0.55187
5965.60924,0.55172
5963.68049,0.55263
5961.75174,0.55399
5959.82300,0.55431
5957.89425,0.55340
5955.96551,0.55335
5954.03676,0.55492
5952.10802,0.55579
5950.17927,0.55517
5948.25053,0.55465
5946.32178,0.55413
5944.39304,0.55366
5942.46429,0.55453
5940.53555,0.55565
5938.60680,0.55548
5936.67806,0.55528
5934.74931,0.55578
5932.82057,0.55536
5930.89182,0.55370
5928.96307,0.55276
5927.03433,0.55305
5925.10558,0.55270
5923.17684,0.55122
5921.24809,0.55010
5919.31935,0.54983
5917.39060,0.54993
5915.46186,0.55027
5913.53311,0.55071
5911.60437,0.55085
5909.67562,0.55029
5907.74688,0.54950
5905.81813,0.54913
5903.88939,0.54922
5901.96064,0.55003
5900.03189,0.55024
5898.10315,0.54833
5896.17440,0.54597
5894.24566,0.54519
5892.31691,0.54584
5890.38817,0.54703
5888.45942,0.54737
5886.53068,0.54624
5884.60193,0.54532
5882.67319,0.54587
5880.74444,0.54658
5878.81570,0.54638
5876.88695,0.54585
5874.95821,0.54551
5873.02946,0.54498
5871.10072,0.54447
5869.17197,0.54470
5867.24322,0.54529
5865.31448,0.54534
5863.38573,0.54453
5861.45699,0.54355
5859.52824,0.54349
5857.59950,0.54355
5855.67075,0.54232
5853.74201,0.54056
5851.81326,0.54015
5849.88452,0.54162
5847.95577,0.54341
5846.02703,0.54369
5844.09828,0.54239
5842.16954,0.54122
5840.24079,0.54184
5838.31205,0.54335
5836.38330,0.54375
5834.45455,0.54319
5832.52581,0.54214
5830.59706,0.54112
5828.66832,0.54121
5826.73957,0.54141
5824.81083,0.54062
5822.88208,0.53999
5820.95334,0.54003
5819.02459,0.54022
5817.09585,0.54025
5815.16710,0.53926
5813.23836,0.53697
5811.30961,0.53541
5809.38087,0.53625
5807.45212,0.53754
5805.52337,0.53776
5803.59463,0.53828
5801.66588,0.53866
5799.73714,0.53782
5797.80839,0.53745
5795.87965,0.53829
5793.95090,0.53862
5792.02216,0.53779
5790.09341,0.53647
5788.16467,0.53543
5786.23592,0.53589
5784.30718,0.53826
5782.37843,0.54074
5780.44969,0.54122
5778.52094,0.54013
5776.59220,0.53952
5774.66345,0.53961
5772.73470,0.53990
5770.80596,0.54084
5768.87721,0.54217
5766.94847,0.54284
5765.01972,0.54229
5763.09098,0.54109
5761.16223,0.54046
5759.23349,0.54052
5757.30474,0.54077
5755.37600,0.54170
5753.44725,0.54300
5751.51851,0.54358
5749.58976,0.54358
5747.66102,0.54347
5745.73227,0.54339
5743.80352,0.54292
5741.87478,0.54168
5739.94603,0.54049
5738.01729,0.54035
5736.08854,0.54156
5734.15980,0.54300
5732.23105,0.54321
5730.30231,0.54245
5728.37356,0.54219
5726.44482,0.54251
5724.51607,0.54195
5722.58733,0.54079
5720.65858,0.54034
5718.72984,0.54076
5716.80109,0.54177
5714.87235,0.54259
5712.94360,0.54295
5711.01485,0.54338
5709.08611,0.54342
5707.15736,0.54241
5705.22862,0.54122
5703.29987,0.54138
5701.37113,0.54255
5699.44238,0.54303
5697.51364,0.54258
5695.58489,0.54228
5693.65615,0.54231
5691.72740,0.54242
5689.79866,0.54279
5687.86991,0.54311
5685.94117,0.54276
5684.01242,0.54190
5682.08368,0.54158
5680.15493,0.54184
5678.22618,0.54169
5676.29744,0.54128
5674.36869,0.54114
5672.43995,0.54105
5670.51120,0.54056
5668.58246,0.54005
5666.65371,0.54040
5664.72497,0.54127
5662.79622,0.54165
5660.86748,0.54107
5658.93873,0.54030
5657.00999,0.54021
5655.08124,0.54035
5653.15250,0.54043
5651.22375,0.54107
5649.29500,0.54202
5647.36626,0.54244
5645.43751,0.54263
5643.50877,0.54285
5641.58002,0.54237
5639.65128,0.54152
5637.72253,0.54132
5635.79379,0.54176
5633.86504,0.54195
5631.93630,0.54133
5630.00755,0.54052
5628.07881,0.54024
5626.15006,0.54030
5624.22132,0.54094
5622.29257,0.54204
5620.36383,0.54249
5618.43508,0.54199
5616.50633,0.54093
5614.57759,0.54054
5612.64884,0.54173
5610.72010,0.54303
5608.79135,0.54284
5606.86261,0.54171
5604.93386,0.54114
5603.00512,0.54152
5601.07637,0.54185
5599.14763,0.54187
5597.21888,0.54243
5595.29014,0.54299
5593.36139,0.54246
5591.43265,0.54203
5589.50390,0.54225
5587.57516,0.54189
5585.64641,0.54124
5583.71766,0.54131
5581.78892,0.54199
5579.86017,0.54248
5577.93143,0.54227
5576.00268,0.54147
5574.07394,0.54057
5572.14519,0.54056
5570.21645,0.54179
5568.28770,0.54330
5566.35896,0.54416
5564.43021,0.54417
5562.50147,0.54373
5560.57272,0.54356
5558.64398,0.54427
5556.71523,0.54588
5554.78648,0.54710
5552.85774,0.54681
5550.92899,0.54603
5549.00025,0.54621
5547.07150,0.54698
5545.14276,0.54729
5543.21401,0.54705
5541.28527,0.54671
5539.35652,0.54668
5537.42778,0.54751
5535.49903,0.54892
5533.57029,0.54952
5531.64154,0.54853
5529.71280,0.54679
5527.78405,0.54603
5525.85531,0.54711
5523.92656,0.54904
5521.99781,0.54989
5520.06907,0.54915
5518.14032,0.54808
5516.21158,0.54776
5514.28283,0.54848
5512.35409,0.54941
5510.42534,0.54929
5508.49660,0.54841
5506.56785,0.54812
5504.63911,0.54863
5502.71036,0.54879
5500.78162,0.54881
5498.85287,0.54961
5496.92413,0.55039
5494.99538,0.55051
5493.06664,0.55060
5491.13789,0.55085
5489.20914,0.55090
5487.28040,0.55096
5485.35165,0.55137
5483.42291,0.55170
5481.49416,0.55202
5479.56542,0.55286
5477.63667,0.55353
5475.70793,0.55328
5473.77918,0.55228
5471.85044,0.55125
5469.92169,0.55115
5467.99295,0.55177
5466.06420,0.55246
5464.13546,0.55316
5462.20671,0.55328
5460.27796,0.55256
5458.34922,0.55222
5456.42047,0.55283
5454.49173,0.55408
5452.56298,0.55568
5450.63424,0.55665
5448.70549,0.55633
5446.77675,0.55592
5444.84800,0.55692
5442.91926,0.55865
5440.99051,0.55918
5439.06177,0.55861
5437.13302,0.55848
5435.20428,0.55878
5433.27553,0.55884
5431.34679,0.55910
5429.41804,0.55994
5427.48929,0.56050
5425.56055,0.56070
5423.63180,0.56155
5421.70306,0.56242
5419.77431,0.56205
5417.84557,0.56135
5415.91682,0.56166
5413.98808,0.56239
5412.05933,0.56275
5410.13059,0.56291
5408.20184,0.56325
5406.27310,0.56395
5404.34435,0.56472
5402.41561,0.56503
5400.48686,0.56514
5398.55811,0.56544
5396.62937,0.56539
5394.70062,0.56459
5392.77188,0.56381
5390.84313,0.56411
5388.91439,0.56534
5386.98564,0.56615
5385.05690,0.56608
5383.12815,0.56594
5381.19941,0.56588
5379.27066,0.56555
5377.34192,0.56530
5375.41317,0.56574
5373.48443,0.56624
5371.55568,0.56556
5369.62694,0.56444
5367.69819,0.56441
5365.76944,0.56484
5363.84070,0.56422
5361.91195,0.56321
5359.98321,0.56306
5358.05446,0.56306
5356.12572,0.56270
5354.19697,0.56294
5352.26823,0.56355
5350.33948,0.56335
5348.41074,0.56259
5346.48199,0.56140
5344.55325,0.55989
5342.62450,0.55944
5340.69576,0.55973
5338.76701,0.55929
5336.83827,0.55849
5334.90952,0.55788
5332.98077,0.55692
5331.05203,0.55600
5329.12328,0.55612
5327.19454,0.55631
5325.26579,0.55548
5323.33705,0.55449
5321.40830,0.55346
5319.47956,0.55169
5317.55081,0.54940
5315.62207,0.54707
5313.69332,0.54533
5311.76458,0.54447
5309.83583,0.54378
5307.90709,0.54248
5305.97834,0.54043
5304.04959,0.53810
5302.12085,0.53592
5300.19210,0.53359
5298.26336,0.53101
5296.33461,0.52872
5294.40587,0.52654
5292.47712,0.52410
5290.54838,0.52164
5288.61963,0.51936
5286.69089,0.51686
5284.76214,0.51339
5282.83340,0.50915
5280.90465,0.50530
5278.97591,0.50235
5277.04716,0.49974
5275.11842,0.49647
5273.18967,0.49221
5271.26092,0.48788
5269.33218,0.48449
5267.40343,0.48175
5265.47469,0.47839
5263.54594,0.47414
5261.61720,0.46988
5259.68845,0.46599
5257.75971,0.46239
5255.83096,0.45880
5253.90222,0.45529
5251.97347,0.45245
5250.04473,0.45002
5248.11598,0.44741
5246.18724,0.44475
5244.25849,0.44185
5242.32975,0.43835
5240.40100,0.43495
5238.47225,0.43280
5236.54351,0.43144
5234.61476,0.42938
5232.68602,0.42646
5230.75727,0.42341
5228.82853,0.42087
5226.89978,0.41919
5224.97104,0.41792
5223.04229,0.41655
5221.11355,0.41489
5219.18480,0.41294
5217.25606,0.41129
5215.32731,0.41021
5213.39857,0.40903
5211.46982,0.40762
5209.54107,0.40660
5207.61233,0.40584
5205.68358,0.40472
5203.75484,0.40365
5201.82609,0.40334
5199.89735,0.40329
5197.96860,0.40261
5196.03986,0.40146
5194.11111,0.40071
5192.18237,0.40081
5190.25362,0.40159
5188.32488,0.40230
5186.39613,0.40218
5184.46739,0.40112
5182.53864,0.39970
5180.60990,0.39876
5178.68115,0.39853
5176.75240,0.39875
5174.82366,0.39938
5172.89491,0.40025
5170.96617,0.40068
5169.03742,0.40013
5167.10868,0.39927
5165.17993,0.39928
5163.25119,0.40002
5161.32244,0.40053
5159.39370,0.40044
5157.46495,0.40004
5155.53621,0.39998
5153.60746,0.40031
5151.67872,0.40052
5149.74997,0.40081
5147.82123,0.40159
5145.89248,0.40274
5143.96373,0.40367
5142.03499,0.40416
5140.10624,0.40461
5138.17750,0.40501
5136.24875,0.40499
5134.32001,0.40478
5132.39126,0.40495
5130.46252,0.40543
5128.53377,0.40558
5126.60503,0.40543
5124.67628,0.40555
5122.74754,0.40614
5120.81879,0.40667
5118.89005,0.40687
5116.96130,0.40715
5115.03255,0.40750
5113.10381,0.40745
5111.17506,0.40702
5109.24632,0.40643
5107.31757,0.40602
5105.38883,0.40601
5103.46008,0.40594
5101.53134,0.40513
5099.60259,0.40383
5097.67385,0.40309
5095.74510,0.40313
5093.81636,0.40294
5091.88761,0.40222
5089.95887,0.40158
5088.03012,0.40111
5086.10138,0.40050
5084.17263,0.39944
5082.24388,0.39808
5080.31514,0.39744
5078.38639,0.39809
5076.45765,0.39917
5074.52890,0.39963
5072.60016,0.39944
5070.67141,0.39903
5068.74267,0.39858
5066.81392,0.39834
5064.88518,0.39864
5062.95643,0.39909
5061.02769,0.39939
5059.09894,0.39984
5057.17020,0.40042
5055.24145,0.40086
5053.31270,0.40164
5051.38396,0.40284
5049.45521,0.40351
5047.52647,0.40352
5045.59772,0.40379
5043.66898,0.40458
5041.74023,0.40539
5039.81149,0.40605
5037.88274,0.40699
5035.95400,0.40810
5034.02525,0.40849
5032.09651,0.40853
5030.16776,0.40917
5028.23902,0.41010
5026.31027,0.41106
5024.38153,0.41210
5022.45278,0.41268
5020.52403,0.41285
5018.59529,0.41334
5016.66654,0.41412
5014.73780,0.41477
5012.80905,0.41543
5010.88031,0.41601
5008.95156,0.41650
5007.02282,0.41727
5005.09407,0.41823
5003.16533,0.41912
5001.23658,0.41990
4999.30784,0.42046
4997.37909,0.42042
4995.45035,0.41987
4993.52160,0.41956
4991.59286,0.41978
4989.66411,0.42044
4987.73536,0.42140
4985.80662,0.42217
4983.87787,0.42224
4981.94913,0.42152
4980.02038,0.42060
4978.09164,0.42010
4976.16289,0.41957
4974.23415,0.41865
4972.30540,0.41813
4970.37666,0.41848
4968.44791,0.41852
4966.51917,0.41699
4964.59042,0.41490
4962.66168,0.41414
4960.73293,0.41429
4958.80418,0.41370
4956.87544,0.41235
4954.94669,0.41113
4953.01795,0.41000
4951.08920,0.40841
4949.16046,0.40676
4947.23171,0.40600
4945.30297,0.40593
4943.37422,0.40527
4941.44548,0.40370
4939.51673,0.40208
4937.58799,0.40090
4935.65924,0.39991
4933.73050,0.39883
4931.80175,0.39773
4929.87301,0.39702
4927.94426,0.39643
4926.01551,0.39545
4924.08677,0.39417
4922.15802,0.39294
4920.22928,0.39171
4918.30053,0.39019
4916.37179,0.38876
4914.44304,0.38784
4912.51430,0.38715
4910.58555,0.38652
4908.65681,0.38570
4906.72806,0.38472
4904.79932,0.38383
4902.87057,0.38263
4900.94183,0.38117
4899.01308,0.38011
4897.08434,0.37913
4895.15559,0.37786
4893.22684,0.37686
4891.29810,0.37636
4889.36935,0.37605
4887.44061,0.37551
4885.51186,0.37452
4883.58312,0.37293
4881.65437,0.37092
4879.72563,0.36941
4877.79688,0.36894
4875.86814,0.36908
4873.93939,0.36907
4872.01065,0.36841
4870.08190,0.36725
4868.15316,0.36602
4866.22441,0.36488
4864.29566,0.36398
4862.36692,0.36337
4860.43817,0.36265
4858.50943,0.36165
4856.58068,0.36072
4854.65194,0.36006
4852.72319,0.35953
4850.79445,0.35877
4848.86570,0.35783
4846.93696,0.35711
4845.00821,0.35645
4843.07947,0.35572
4841.15072,0.35505
4839.22198,0.35430
4837.29323,0.35332
4835.36449,0.35234
4833.43574,0.35165
4831.50699,0.35122
4829.57825,0.35088
4827.64950,0.35025
4825.72076,0.34924
4823.79201,0.34839
4821.86327,0.34784
4819.93452,0.34723
4818.00578,0.34648
4816.07703,0.34571
4814.14829,0.34514
4812.21954,0.34521
4810.29080,0.34578
4808.36205,0.34592
4806.43331,0.34501
4804.50456,0.34360
4802.57582,0.34291
4800.64707,0.34323
4798.71832,0.34349
4796.78958,0.34307
4794.86083,0.34233
4792.93209,0.34191
4791.00334,0.34228
4789.07460,0.34302
4787.14585,0.34332
4785.21711,0.34294
4783.28836,0.34209
4781.35962,0.34140
4779.43087,0.34126
4777.50213,0.34102
4775.57338,0.34038
4773.64464,0.34007
4771.71589,0.34025
4769.78714,0.34031
4767.85840,0.34005
4765.92965,0.33958
4764.00091,0.33923
4762.07216,0.33935
4760.14342,0.33949
4758.21467,0.33939
4756.28593,0.33927
4754.35718,0.33902
4752.42844,0.33863
4750.49969,0.33841
4748.57095,0.33866
4746.64220,0.33923
4744.71346,0.33942
4742.78471,0.33914
4740.85597,0.33905
4738.92722,0.33909
4736.99847,0.33879
4735.06973,0.33839
4733.14098,0.33847
4731.21224,0.33905
4729.28349,0.33964
4727.35475,0.33966
4725.42600,0.33941
4723.49726,0.33956
4721.56851,0.33985
4719.63977,0.33996
4717.71102,0.34022
4715.78228,0.34071
4713.85353,0.34089
4711.92479,0.34055
4709.99604,0.34032
4708.06729,0.34049
4706.13855,0.34048
4704.20980,0.34022
4702.28106,0.34030
4700.35231,0.34057
4698.42357,0.34061
4696.49482,0.34042
4694.56608,0.34034
4692.63733,0.34065
4690.70859,0.34124
4688.77984,0.34170
4686.85110,0.34200
4684.92235,0.34239
4682.99361,0.34259
4681.06486,0.34238
4679.13612,0.34216
4677.20737,0.34224
4675.27862,0.34267
4673.34988,0.34322
4671.42113,0.34339
4669.49239,0.34321
4667.56364,0.34331
4665.63490,0.34388
4663.70615,0.34452
4661.77741,0.34489
4659.84866,0.34501
4657.91992,0.34508
4655.99117,0.34525
4654.06243,0.34557
4652.13368,0.34601
4650.20494,0.34646
4648.27619,0.34684
4646.34745,0.34720
4644.41870,0.34726
4642.48995,0.34709
4640.56121,0.34751
4638.63246,0.34845
4636.70372,0.34887
4634.77497,0.34881
4632.84623,0.34900
4630.91748,0.34946
4628.98874,0.35011
4627.05999,0.35077
4625.13125,0.35106
4623.20250,0.35135
4621.27376,0.35212
4619.34501,0.35301
4617.41627,0.35372
4615.48752,0.35433
4613.55877,0.35464
4611.63003,0.35472
4609.70128,0.35501
4607.77254,0.35557
4605.84379,0.35604
4603.91505,0.35643
4601.98630,0.35703
4600.05756,0.35766
4598.12881,0.35831
4596.20007,0.35912
4594.27132,0.35951
4592.34258,0.35935
4590.41383,0.35925
4588.48509,0.35956
4586.55634,0.36035
4584.62760,0.36118
4582.69885,0.36137
4580.77010,0.36107
4578.84136,0.36100
4576.91261,0.36126
4574.98387,0.36152
4573.05512,0.36173
4571.12638,0.36188
4569.19763,0.36194
4567.26889,0.36210
4565.34014,0.36236
4563.41140,0.36264
4561.48265,0.36310
4559.55391,0.36337
4557.62516,0.36291
4555.69642,0.36229
4553.76767,0.36213
4551.83893,0.36229
4549.91018,0.36280
4547.98143,0.36342
4546.05269,0.36366
4544.12394,0.36379
4542.19520,0.36416
4540.26645,0.36447
4538.33771,0.36471
4536.40896,0.36510
4534.48022,0.36534
4532.55147,0.36534
4530.62273,0.36546
4528.69398,0.36562
4526.76524,0.36563
4524.83649,0.36579
4522.90775,0.36639
4520.97900,0.36715
4519.05025,0.36761
4517.12151,0.36751
4515.19276,0.36720
4513.26402,0.36712
4511.33527,0.36702
4509.40653,0.36678
4507.47778,0.36703
4505.54904,0.36747
4503.62029,0.36727
4501.69155,0.36670
4499.76280,0.36641
4497.83406,0.36651
4495.90531,0.36674
4493.97657,0.36639
4492.04782,0.36536
4490.11908,0.36454
4488.19033,0.36404
4486.26158,0.36330
4484.33284,0.36237
4482.40409,0.36163
4480.47535,0.36107
4478.54660,0.36026
4476.61786,0.35892
4474.68911,0.35732
4472.76037,0.35588
4470.83162,0.35458
4468.90288,0.35322
4466.97413,0.35183
4465.04539,0.35050
4463.11664,0.34906
4461.18790,0.34738
4459.25915,0.34565
4457.33041,0.34383
4455.40166,0.34168
4453.47291,0.33949
4451.54417,0.33784
4449.61542,0.33646
4447.68668,0.33473
4445.75793,0.33289
4443.82919,0.33129
4441.90044,0.32976
4439.97170,0.32817
4438.04295,0.32656
4436.11421,0.32522
4434.18546,0.32384
4432.25672,0.32184
4430.32797,0.31964
4428.39923,0.31796
4426.47048,0.31649
4424.54173,0.31479
4422.61299,0.31306
4420.68424,0.31151
4418.75550,0.30990
4416.82675,0.30818
4414.89801,0.30693
4412.96926,0.30605
4411.04052,0.30468
4409.11177,0.30321
4407.18303,0.30249
4405.25428,0.30229
4403.32554,0.30197
4401.39679,0.30152
4399.46805,0.30159
4397.53930,0.30218
4395.61056,0.30259
4393.68181,0.30265
4391.75306,0.30271
4389.82432,0.30298
4387.89557,0.30341
4385.96683,0.30385
4384.03808,0.30431
4382.10934,0.30495
4380.18059,0.30564
4378.25185,0.30608
4376.32310,0.30641
4374.39436,0.30686
4372.46561,0.30757
4370.53687,0.30861
4368.60812,0.30958
4366.67938,0.31004
4364.75063,0.31032
4362.82189,0.31094
4360.89314,0.31159
4358.96439,0.31166
4357.03565,0.31126
4355.10690,0.31099
4353.17816,0.31105
4351.24941,0.31121
4349.32067,0.31142
4347.39192,0.31158
4345.46318,0.31141
4343.53443,0.31099
4341.60569,0.31072
4339.67694,0.31062
4337.74820,0.31045
4335.81945,0.31017
4333.89071,0.30975
4331.96196,0.30903
4330.03321,0.30813
4328.10447,0.30740
4326.17572,0.30680
4324.24698,0.30615
4322.31823,0.30575
4320.38949,0.30573
4318.46074,0.30572
4316.53200,0.30546
4314.60325,0.30510
4312.67451,0.30474
4310.74576,0.30437
4308.81702,0.30398
4306.88827,0.30343
4304.95953,0.30269
4303.03078,0.30202
4301.10204,0.30170
4299.17329,0.30159
4297.24454,0.30140
4295.31580,0.30111
4293.38705,0.30066
4291.45831,0.30023
4289.52956,0.30015
4287.60082,0.30016
4285.67207,0.29983
4283.74333,0.29944
4281.81458,0.29932
4279.88584,0.29927
4277.95709,0.29913
4276.02835,0.29901
4274.09960,0.29914
4272.17086,0.29957
4270.24211,0.29998
4268.31336,0.30018
4266.38462,0.30027
4264.45587,0.30032
4262.52713,0.30061
4260.59838,0.30130
4258.66964,0.30206
4256.74089,0.30261
4254.81215,0.30315
4252.88340,0.30389
4250.95466,0.30457
4249.02591,0.30484
4247.09717,0.30492
4245.16842,0.30514
4243.23968,0.30538
4241.31093,0.30555
4239.38219,0.30568
4237.45344,0.30586
4235.52469,0.30612
4233.59595,0.30634
4231.66720,0.30627
4229.73846,0.30599
4227.80971,0.30597
4225.88097,0.30631
4223.95222,0.30663
4222.02348,0.30677
4220.09473,0.30669
4218.16599,0.30656
4216.23724,0.30650
4214.30850,0.30641
4212.37975,0.30631
4210.45101,0.30639
4208.52226,0.30668
4206.59352,0.30684
4204.66477,0.30673
4202.73602,0.30668
4200.80728,0.30673
4198.87853,0.30664
4196.94979,0.30653
4195.02104,0.30650
4193.09230,0.30626
4191.16355,0.30585
4189.23481,0.30577
4187.30606,0.30609
4185.37732,0.30657
4183.44857,0.30710
4181.51983,0.30764
4179.59108,0.30809
4177.66234,0.30838
4175.73359,0.30854
4173.80484,0.30858
4171.87610,0.30848
4169.94735,0.30864
4168.01861,0.30934
4166.08986,0.31011
4164.16112,0.31037
4162.23237,0.31003
4160.30363,0.30927
4158.37488,0.30853
4156.44614,0.30809
4154.51739,0.30780
4152.58865,0.30757
4150.65990,0.30736
4148.73116,0.30687
4146.80241,0.30609
4144.87367,0.30536
4142.94492,0.30473
4141.01617,0.30408
4139.08743,0.30346
4137.15868,0.30287
4135.22994,0.30215
4133.30119,0.30105
4131.37245,0.29974
4129.44370,0.29873
4127.51496,0.29813
4125.58621,0.29722
4123.65747,0.29564
4121.72872,0.29419
4119.79998,0.29343
4117.87123,0.29263
4115.94249,0.29139
4114.01374,0.29017
4112.08500,0.28906
4110.15625,0.28798
4108.22750,0.28704
4106.29876,0.28591
4104.37001,0.28450
4102.44127,0.28312
4100.51252,0.28162
4098.58378,0.28009
4096.65503,0.27877
4094.72629,0.27741
4092.79754,0.27584
4090.86880,0.27435
4088.94005,0.27303
4087.01131,0.27181
4085.08256,0.27062
4083.15382,0.26936
4081.22507,0.26787
4079.29632,0.26621
4077.36758,0.26456
4075.43883,0.26300
4073.51009,0.26154
4071.58134,0.26021
4069.65260,0.25889
4067.72385,0.25748
4065.79511,0.25618
4063.86636,0.25505
4061.93762,0.25371
4060.00887,0.25211
4058.08013,0.25086
4056.15138,0.25007
4054.22264,0.24895
4052.29389,0.24730
4050.36515,0.24566
4048.43640,0.24409
4046.50765,0.24250
4044.57891,0.24123
4042.65016,0.24051
4040.72142,0.23997
4038.79267,0.23909
4036.86393,0.23802
4034.93518,0.23721
4033.00644,0.23662
4031.07769,0.23596
4029.14895,0.23508
4027.22020,0.23416
4025.29146,0.23349
4023.36271,0.23319
4021.43397,0.23289
4019.50522,0.23229
4017.57648,0.23167
4015.64773,0.23141
4013.71898,0.23133
4011.79024,0.23113
4009.86149,0.23089
4007.93275,0.23090
4006.00400,0.23115
4004.07526,0.23151
4002.14651,0.23193
4000.21777,0.23220
3998.28902,0.23208
3996.36028,0.23206
3994.43153,0.23258
3992.50279,0.23328
3990.57404,0.23362
3988.64530,0.23364
3986.71655,0.23381
3984.78780,0.23412
3982.85906,0.23421
3980.93031,0.23431
3979.00157,0.23477
3977.07282,0.23529
3975.14408,0.23560
3973.21533,0.23592
3971.28659,0.23646
3969.35784,0.23712
3967.42910,0.23759
3965.50035,0.23771
3963.57161,0.23789
3961.64286,0.23859
3959.71412,0.23969
3957.78537,0.24070
3955.85663,0.24139
3953.92788,0.24192
3951.99913,0.24238
3950.07039,0.24292
3948.14164,0.24359
3946.21290,0.24419
3944.28415,0.24465
3942.35541,0.24505
3940.42666,0.24548
3938.49792,0.24627
3936.56917,0.24741
3934.64043,0.24818
3932.71168,0.24847
3930.78294,0.24899
3928.85419,0.24989
3926.92545,0.25082
3924.99670,0.25142
3923.06795,0.25173
3921.13921,0.25217
3919.21046,0.25286
3917.28172,0.25350
3915.35297,0.25387
3913.42423,0.25428
3911.49548,0.25506
3909.56674,0.25595
3907.63799,0.25657
3905.70925,0.25710
3903.78050,0.25783
3901.85176,0.25851
3899.92301,0.25886
3897.99427,0.25916
3896.06552,0.25972
3894.13678,0.26049
3892.20803,0.26124
3890.27928,0.26177
3888.35054,0.26236
3886.42179,0.26319
3884.49305,0.26396
3882.56430,0.26460
3880.63556,0.26529
3878.70681,0.26570
3876.77807,0.26576
3874.84932,0.26605
3872.92058,0.26690
3870.99183,0.26782
3869.06309,0.26843
3867.13434,0.26898
3865.20560,0.26979
3863.27685,0.27079
3861.34811,0.27181
3859.41936,0.27267
3857.49061,0.27333
3855.56187,0.27428
3853.63312,0.27555
3851.70438,0.27626
3849.77563,0.27671
3847.84689,0.27753
3845.91814,0.27832
3843.98940,0.27866
3842.06065,0.27895
3840.13191,0.27957
3838.20316,0.28024
3836.27442,0.28061
3834.34567,0.28071
3832.41693,0.28084
3830.48818,0.28120
3828.55943,0.28178
3826.63069,0.28244
3824.70194,0.28294
3822.77320,0.28305
3820.84445,0.28278
3818.91571,0.28243
3816.98696,0.28239
3815.05822,0.28263
3813.12947,0.28282
3811.20073,0.28303
3809.27198,0.28317
3807.34324,0.28309
3805.41449,0.28322
3803.48575,0.28347
3801.55700,0.28323
3799.62826,0.28280
3797.69951,0.28288
3795.77076,0.28323
3793.84202,0.28334
3791.91327,0.28312
3789.98453,0.28277
3788.05578,0.28252
3786.12704,0.28257
3784.19829,0.28271
3782.26955,0.28258
3780.34080,0.28233
3778.41206,0.28206
3776.48331,0.28166
3774.55457,0.28135
3772.62582,0.28124
3770.69708,0.28098
3768.76833,0.28050
3766.83959,0.28000
3764.91084,0.27947
3762.98209,0.27906
3761.05335,0.27895
3759.12460,0.27879
3757.19586,0.27826
3755.26711,0.27748
3753.33837,0.27673
3751.40962,0.27604
3749.48088,0.27526
3747.55213,0.27462
3745.62339,0.27383
3743.69464,0.27259
3741.76590,0.27164
3739.83715,0.27125
3737.90841,0.27075
3735.97966,0.26972
3734.05091,0.26843
3732.12217,0.26701
3730.19342,0.26558
3728.26468,0.26436
3726.33593,0.26317
3724.40719,0.26187
3722.47844,0.26050
3720.54970,0.25901
3718.62095,0.25738
3716.69221,0.25580
3714.76346,0.25439
3712.83472,0.25271
3710.90597,0.25044
3708.97723,0.24802
3707.04848,0.24596
3705.11974,0.24408
3703.19099,0.24175
3701.26224,0.23887
3699.33350,0.23617
3697.40475,0.23364
3695.47601,0.23074
3693.54726,0.22766
3691.61852,0.22455
3689.68977,0.22076
3687.76103,0.21640
3685.83228,0.21253
3683.90354,0.20889
3681.97479,0.20474
3680.04605,0.20035
3678.11730,0.19613
3676.18856,0.19144
3674.25981,0.18631
3672.33107,0.18175
3670.40232,0.17698
3668.47357,0.17162
3666.54483,0.16666
3664.61608,0.16211
3662.68734,0.15777
3660.75859,0.15373
3658.82985,0.14984
3656.90110,0.14564
3654.97236,0.14137
3653.04361,0.13786
3651.11487,0.13471
3649.18612,0.13102
3647.25738,0.12711
3645.32863,0.12374
3643.39989,0.12073
3641.47114,0.11773
3639.54239,0.11483
3637.61365,0.11212
3635.68490,0.10951
3633.75616,0.10721
3631.82741,0.10525
3629.89867,0.10293
3627.96992,0.10033
3626.04118,0.09831
3624.11243,0.09658
3622.18369,0.09481
3620.25494,0.09283
3618.32620,0.09064
3616.39745,0.08877
3614.46871,0.08729
3612.53996,0.08562
3610.61122,0.08368
3608.68247,0.08174
3606.75372,0.07994
3604.82498,0.07845
3602.89623,0.07718
3600.96749,0.07581
3599.03874,0.07444
3597.11000,0.07332
3595.18125,0.07219
3593.25251,0.07082
3591.32376,0.06956
3589.39502,0.06851
3587.46627,0.06723
3585.53753,0.06590
3583.60878,0.06488
3581.68004,0.06387
3579.75129,0.06262
3577.82254,0.06146
3575.89380,0.06080
3573.96505,0.06034
3572.03631,0.05968
3570.10756,0.05891
3568.17882,0.05805
3566.25007,0.05703
3564.32133,0.05596
3562.39258,0.05488
3560.46384,0.05402
3558.53509,0.05349
3556.60635,0.05298
3554.67760,0.05245
3552.74886,0.05206
3550.82011,0.05183
3548.89137,0.05156
3546.96262,0.05096
3545.03387,0.05008
3543.10513,0.04924
3541.17638,0.04858
3539.24764,0.04816
3537.31889,0.04801
3535.39015,0.04788
3533.46140,0.04763
3531.53266,0.04716
3529.60391,0.04651
3527.67517,0.04607
3525.74642,0.04600
3523.81768,0.04594
3521.88893,0.04553
3519.96019,0.04492
3518.03144,0.04441
3516.10270,0.04391
3514.17395,0.04330
3512.24520,0.04289
3510.31646,0.04281
3508.38771,0.04282
3506.45897,0.04266
3504.53022,0.04221
3502.60148,0.04159
3500.67273,0.04127
3498.74399,0.04125
3496.81524,0.04109
3494.88650,0.04064
3492.95775,0.03999
3491.02901,0.03938
3489.10026,0.03908
3487.17152,0.03904
3485.24277,0.03898
3483.31402,0.03880
3481.38528,0.03863
3479.45653,0.03860
3477.52779,0.03873
3475.59904,0.03884
3473.67030,0.03876
3471.74155,0.03867
3469.81281,0.03858
3467.88406,0.03835
3465.95532,0.03811
3464.02657,0.03800
3462.09783,0.03805
3460.16908,0.03814
3458.24034,0.03802
3456.31159,0.03788
3454.38285,0.03787
3452.45410,0.03773
3450.52535,0.03753
3448.59661,0.03756
3446.66786,0.03761
3444.73912,0.03757
3442.81037,0.03764
3440.88163,0.03767
3438.95288,0.03755
3437.02414,0.03757
3435.09539,0.03770
3433.16665,0.03751
3431.23790,0.03716
3429.30916,0.03712
3427.38041,0.03736
3425.45167,0.03757
3423.52292,0.03751
3421.59418,0.03735
3419.66543,0.03727
3417.73668,0.03724
3415.80794,0.03740
3413.87919,0.03768
3411.95045,0.03772
3410.02170,0.03756
3408.09296,0.03743
3406.16421,0.03726
3404.23547,0.03716
3402.30672,0.03727
3400.37798,0.03730
3398.44923,0.03703
3396.52049,0.03672
3394.59174,0.03677
3392.66300,0.03711
3390.73425,0.03737
3388.80550,0.03745
3386.87676,0.03750
3384.94801,0.03751
3383.01927,0.03746
3381.09052,0.03736
3379.16178,0.03737
3377.23303,0.03760
3375.30429,0.03784
3373.37554,0.03773
3371.44680,0.03765
3369.51805,0.03794
3367.58931,0.03824
3365.66056,0.03841
3363.73182,0.03867
3361.80307,0.03885
3359.87433,0.03876
3357.94558,0.03852
3356.01683,0.03844
3354.08809,0.03867
3352.15934,0.03896
3350.23060,0.03913
3348.30185,0.03932
3346.37311,0.03941
3344.44436,0.03927
3342.51562,0.03921
3340.58687,0.03930
3338.65813,0.03941
3336.72938,0.03969
3334.80064,0.04012
3332.87189,0.04049
3330.94315,0.04068
3329.01440,0.04071
3327.08566,0.04073
3325.15691,0.04080
3323.22816,0.04086
3321.29942,0.04116
3319.37067,0.04167
3317.44193,0.04188
3315.51318,0.04170
3313.58444,0.04158
3311.65569,0.04178
3309.72695,0.04210
3307.79820,0.04224
3305.86946,0.04217
3303.94071,0.04206
3302.01197,0.04208
3300.08322,0.04229
3298.15448,0.04248
3296.22573,0.04258
3294.29698,0.04278
3292.36824,0.04303
3290.43949,0.04328
3288.51075,0.04368
3286.58200,0.04402
3284.65326,0.04404
3282.72451,0.04386
3280.79577,0.04385
3278.86702,0.04405
3276.93828,0.04427
3275.00953,0.04450
3273.08079,0.04482
3271.15204,0.04515
3269.22330,0.04535
3267.29455,0.04552
3265.36581,0.04588
3263.43706,0.04620
3261.50831,0.04616
3259.57957,0.04607
3257.65082,0.04634
3255.72208,0.04670
3253.79333,0.04690
3251.86459,0.04727
3249.93584,0.04785
3248.00710,0.04825
3246.07835,0.04837
3244.14961,0.04850
3242.22086,0.04874
3240.29212,0.04884
3238.36337,0.04887
3236.43463,0.04904
3234.50588,0.04922
3232.57713,0.04923
3230.64839,0.04926
3228.71964,0.04950
3226.79090,0.04978
3224.86215,0.04995
3222.93341,0.05005
3221.00466,0.05020
3219.07592,0.05050
3217.14717,0.05077
3215.21843,0.05091
3213.28968,0.05104
3211.36094,0.05138
3209.43219,0.05181
3207.50345,0.05209
3205.57470,0.05232
3203.64596,0.05262
3201.71721,0.05281
3199.78846,0.05290
3197.85972,0.05311
3195.93097,0.05339
3194.00223,0.05371
3192.07348,0.05414
3190.14474,0.05446
3188.21599,0.05444
3186.28725,0.05438
3184.35850,0.05472
3182.42976,0.05536
3180.50101,0.05591
3178.57227,0.05631
3176.64352,0.05655
3174.71478,0.05663
3172.78603,0.05682
3170.85729,0.05728
3168.92854,0.05788
3166.99979,0.05836
3165.07105,0.05863
3163.14230,0.05887
3161.21356,0.05921
3159.28481,0.05955
3157.35607,0.05985
3155.42732,0.06018
3153.49858,0.06063
3151.56983,0.06121
3149.64109,0.06149
3147.71234,0.06139
3145.78360,0.06145
3143.85485,0.06175
3141.92611,0.06203
3139.99736,0.06233
3138.06861,0.06273
3136.13987,0.06311
3134.21112,0.06335
3132.28238,0.06346
3130.35363,0.06369
3128.42489,0.06408
3126.49614,0.06454
3124.56740,0.06499
3122.63865,0.06533
3120.70991,0.06552
3118.78116,0.06582
3116.85242,0.06633
3114.92367,0.06674
3112.99493,0.06697
3111.06618,0.06735
3109.13744,0.06783
3107.20869,0.06807
3105.27994,0.06829
3103.35120,0.06876
3101.42245,0.06906
3099.49371,0.06899
3097.56496,0.06901
3095.63622,0.06923
3093.70747,0.06963
3091.77873,0.07031
3089.84998,0.07098
3087.92124,0.07126
3085.99249,0.07115
3084.06375,0.07092
3082.13500,0.07087
3080.20626,0.07102
3078.27751,0.07129
3076.34877,0.07167
3074.42002,0.07210
3072.49127,0.07240
3070.56253,0.07266
3068.63378,0.07293
3066.70504,0.07318
3064.77629,0.07345
3062.84755,0.07367
3060.91880,0.07366
3058.99006,0.07369
3057.06131,0.07417
3055.13257,0.07501
3053.20382,0.07572
3051.27508,0.07609
3049.34633,0.07632
3047.41759,0.07660
3045.48884,0.07678
3043.56009,0.07678
3041.63135,0.07674
3039.70260,0.07682
3037.77386,0.07703
3035.84511,0.07728
3033.91637,0.07765
3031.98762,0.07804
3030.05888,0.07811
3028.13013,0.07803
3026.20139,0.07813
3024.27264,0.07819
3022.34390,0.07799
3020.41515,0.07776
3018.48641,0.07769
3016.55766,0.07762
3014.62892,0.07749
3012.70017,0.07744
3010.77142,0.07738
3008.84268,0.07704
3006.91393,0.07657
3004.98519,0.07616
3003.05644,0.07569
3001.12770,0.07517
2999.19895,0.07476
2997.27021,0.07461
2995.34146,0.07465
2993.41272,0.07447
2991.48397,0.07385
2989.55523,0.07305
2987.62648,0.07222
2985.69774,0.07138
2983.76899,0.07052
2981.84025,0.06945
2979.91150,0.06804
2977.98275,0.06664
2976.05401,0.06548
2974.12526,0.06427
2972.19652,0.06294
2970.26777,0.06184
2968.33903,0.06120
2966.41028,0.06086
2964.48154,0.06036
2962.55279,0.05963
2960.62405,0.05905
2958.69530,0.05859
2956.76656,0.05805
2954.83781,0.05754
2952.90907,0.05711
2950.98032,0.05685
2949.05157,0.05661
2947.12283,0.05607
2945.19408,0.05534
2943.26534,0.05489
2941.33659,0.05476
2939.40785,0.05459
2937.47910,0.05441
2935.55036,0.05448
2933.62161,0.05455
2931.69287,0.05433
2929.76412,0.05398
2927.83538,0.05373
2925.90663,0.05363
2923.97789,0.05370
2922.04914,0.05384
2920.12040,0.05387
2918.19165,0.05383
2916.26290,0.05390
2914.33416,0.05415
2912.40541,0.05454
2910.47667,0.05486
2908.54792,0.05503
2906.61918,0.05525
2904.69043,0.05553
2902.76169,0.05564
2900.83294,0.05562
2898.90420,0.05569
2896.97545,0.05592
2895.04671,0.05625
2893.11796,0.05653
2891.18922,0.05695
2889.26047,0.05753
2887.33172,0.05789
2885.40298,0.05799
2883.47423,0.05809
2881.54549,0.05823
2879.61674,0.05846
2877.68800,0.05881
2875.75925,0.05912
2873.83051,0.05931
2871.90176,0.05948
2869.97302,0.05979
2868.04427,0.06034
2866.11553,0.06081
2864.18678,0.06107
2862.25804,0.06144
2860.32929,0.06194
2858.40055,0.06222
2856.47180,0.06235
2854.54305,0.06263
2852.61431,0.06314
2850.68556,0.06371
2848.75682,0.06441
2846.82807,0.06552
2844.89933,0.06702
2842.97058,0.06880
2841.04184,0.07064
2839.11309,0.07213
2837.18435,0.07322
2835.25560,0.07419
2833.32686,0.07523
2831.39811,0.07626
2829.46937,0.07720
2827.54062,0.07835
2825.61188,0.07975
2823.68313,0.08102
2821.75438,0.08201
2819.82564,0.08301
2817.89689,0.08415
2815.96815,0.08525
2814.03940,0.08619
2812.11066,0.08700
2810.18191,0.08774
2808.25317,0.08855
2806.32442,0.08939
2804.39568,0.09001
2802.46693,0.09048
2800.53819,0.09096
2798.60944,0.09147
2796.68070,0.09205
2794.75195,0.09260
2792.82320,0.09301
2790.89446,0.09345
2788.96571,0.09399
2787.03697,0.09444
2785.10822,0.09475
2783.17948,0.09503
2781.25073,0.09526
2779.32199,0.09551
2777.39324,0.09602
2775.46450,0.09666
2773.53575,0.09718
2771.60701,0.09753
2769.67826,0.09775
2767.74952,0.09784
2765.82077,0.09788
2763.89203,0.09798
2761.96328,0.09820
2760.03453,0.09850
2758.10579,0.09878
2756.17704,0.09892
2754.24830,0.09902
2752.31955,0.09928
2750.39081,0.09963
2748.46206,0.09993
2746.53332,0.10004
2744.60457,0.09989
2742.67583,0.09991
2740.74708,0.10032
2738.81834,0.10071
2736.88959,0.10086
2734.96085,0.10095
2733.03210,0.10110
2731.10336,0.10138
2729.17461,0.10176
2727.24586,0.10206
2725.31712,0.10226
2723.38837,0.10251
2721.45963,0.10293
2719.53088,0.10356
2717.60214,0.10418
2715.67339,0.10451
2713.74465,0.10476
2711.81590,0.10523
2709.88716,0.10586
2707.95841,0.10643
2706.02967,0.10691
2704.10092,0.10728
2702.17218,0.10757
2700.24343,0.10779
2698.31468,0.10808
2696.38594,0.10869
2694.45719,0.10955
2692.52845,0.11027
2690.59970,0.11066
2688.67096,0.11081
2686.74221,0.11094
2684.81347,0.11127
2682.88472,0.11181
2680.95598,0.11236
2679.02723,0.11286
2677.09849,0.11325
2675.16974,0.11351
2673.24100,0.11374
2671.31225,0.11408
2669.38351,0.11447
2667.45476,0.11480
2665.52601,0.11511
2663.59727,0.11549
2661.66852,0.11591
2659.73978,0.11628
2657.81103,0.11656
2655.88229,0.11671
2653.95354,0.11694
2652.02480,0.11731
2650.09605,0.11762
2648.16731,0.11790
2646.23856,0.11841
2644.30982,0.11901
2642.38107,0.11941
2640.45233,0.11971
2638.52358,0.12014
2636.59484,0.12064
2634.66609,0.12103
2632.73734,0.12132
2630.80860,0.12161
2628.87985,0.12191
2626.95111,0.12212
2625.02236,0.12231
2623.09362,0.12284
2621.16487,0.12363
2619.23613,0.12423
2617.30738,0.12452
2615.37864,0.12472
2613.44989,0.12488
2611.52115,0.12505
2609.59240,0.12538
2607.66366,0.12584
2605.73491,0.12621
2603.80616,0.12654
2601.87742,0.12694
2599.94867,0.12729
2598.01993,0.12768
2596.09118,0.12822
2594.16244,0.12869
2592.23369,0.12899
2590.30495,0.12929
2588.37620,0.12952
2586.44746,0.12956
2584.51871,0.12962
2582.58997,0.12989
2580.66122,0.13020
2578.73248,0.13040
2576.80373,0.13061
2574.87499,0.13085
2572.94624,0.13101
2571.01749,0.13119
2569.08875,0.13144
2567.16000,0.13155
2565.23126,0.13149
2563.30251,0.13154
2561.37377,0.13187
2559.44502,0.13224
2557.51628,0.13243
2555.58753,0.13257
2553.65879,0.13284
2551.73004,0.13309
2549.80130,0.13322
2547.87255,0.13319
2545.94381,0.13301
2544.01506,0.13292
2542.08631,0.13304
2540.15757,0.13332
2538.22882,0.13371
2536.30008,0.13410
2534.37133,0.13440
2532.44259,0.13477
2530.51384,0.13526
2528.58510,0.13564
2526.65635,0.13588
2524.72761,0.13612
2522.79886,0.13636
2520.87012,0.13659
2518.94137,0.13684
2517.01263,0.13703
2515.08388,0.13726
2513.15514,0.13771
2511.22639,0.13829
2509.29764,0.13881
2507.36890,0.13926
2505.44015,0.13977
2503.51141,0.14038
2501.58266,0.14089
2499.65392,0.14129
2497.72517,0.14177
2495.79643,0.14237
2493.86768,0.14294
2491.93894,0.14356
2490.01019,0.14420
2488.08145,0.14466
2486.15270,0.14508
2484.22396,0.14572
2482.29521,0.14640
2480.36647,0.14697
2478.43772,0.14753
2476.50897,0.14811
2474.58023,0.14857
2472.65148,0.14901
2470.72274,0.14950
2468.79399,0.14996
2466.86525,0.15027
2464.93650,0.15046
2463.00776,0.15074
2461.07901,0.15125
2459.15027,0.15187
2457.22152,0.15239
2455.29278,0.15275
2453.36403,0.15321
2451.43529,0.15390
2449.50654,0.15460
2447.57779,0.15516
2445.64905,0.15564
2443.72030,0.15618
2441.79156,0.15679
2439.86281,0.15737
2437.93407,0.15785
2436.00532,0.15833
2434.07658,0.15892
2432.14783,0.15956
2430.21909,0.16030
2428.29034,0.16107
2426.36160,0.16175
2424.43285,0.16245
2422.50411,0.16322
2420.57536,0.16390
2418.64662,0.16452
2416.71787,0.16522
2414.78912,0.16596
2412.86038,0.16670
2410.93163,0.16746
2409.00289,0.16825
2407.07414,0.16896
2405.14540,0.16945
2403.21665,0.16991
2401.28791,0.17059
2399.35916,0.17138
2397.43042,0.17213
2395.50167,0.17290
2393.57293,0.17366
2391.64418,0.17420
2389.71544,0.17462
2387.78669,0.17512
2385.85795,0.17574
2383.92920,0.17647
2382.00045,0.17712
2380.07171,0.17761
2378.14296,0.17815
2376.21422,0.17874
2374.28547,0.17926
2372.35673,0.17974
2370.42798,0.18029
2368.49924,0.18087
2366.57049,0.18132
2364.64175,0.18164
2362.71300,0.18200
2360.78426,0.18246
2358.85551,0.18289
2356.92677,0.18319
2354.99802,0.18342
2353.06927,0.18369
2351.14053,0.18399
2349.21178,0.18437
2347.28304,0.18486
2345.35429,0.18524
2343.42555,0.18525
2341.49680,0.18519
2339.56806,0.18545
2337.63931,0.18588
2335.71057,0.18623
2333.78182,0.18653
2331.85308,0.18672
2329.92433,0.18675
2327.99559,0.18682
2326.06684,0.18707
2324.13810,0.18739
2322.20935,0.18765
2320.28060,0.18779
2318.35186,0.18777
2316.42311,0.18763
2314.49437,0.18750
2312.56562,0.18739
2310.63688,0.18722
2308.70813,0.18703
2306.77939,0.18692
2304.85064,0.18685
2302.92190,0.18677
2300.99315,0.18670
2299.06441,0.18663
2297.13566,0.18659
2295.20692,0.18657
2293.27817,0.18643
2291.34943,0.18620
2289.42068,0.18599
2287.49193,0.18573
2285.56319,0.18548
2283.63444,0.18534
2281.70570,0.18528
2279.77695,0.18520
2277.84821,0.18503
2275.91946,0.18473
2273.99072,0.18438
2272.06197,0.18401
2270.13323,0.18363
2268.20448,0.18327
2266.27574,0.18289
2264.34699,0.18242
2262.41825,0.18189
2260.48950,0.18135
2258.56075,0.18081
2256.63201,0.18035
2254.70326,0.18004
2252.77452,0.17990
2250.84577,0.17975
2248.91703,0.17939
2246.98828,0.17897
2245.05954,0.17868
2243.13079,0.17849
2241.20205,0.17834
2239.27330,0.17811
2237.34456,0.17780
2235.41581,0.17760
2233.48707,0.17749
2231.55832,0.17731
2229.62958,0.17711
2227.70083,0.17701
2225.77208,0.17696
2223.84334,0.17685
2221.91459,0.17659
2219.98585,0.17626
2218.05710,0.17598
2216.12836,0.17576
2214.19961,0.17558
2212.27087,0.17543
2210.34212,0.17519
2208.41338,0.17485
2206.48463,0.17451
2204.55589,0.17415
2202.62714,0.17369
2200.69840,0.17319
2198.76965,0.17271
2196.84090,0.17229
2194.91216,0.17179
2192.98341,0.17112
2191.05467,0.17036
2189.12592,0.16968
2187.19718,0.16912
2185.26843,0.16855
2183.33969,0.16794
2181.41094,0.16741
2179.48220,0.16700
2177.55345,0.16650
2175.62471,0.16578
2173.69596,0.16509
2171.76722,0.16459
2169.83847,0.16419
2167.90973,0.16380
2165.98098,0.16338
2164.05223,0.16300
2162.12349,0.16269
2160.19474,0.16235
2158.26600,0.16192
2156.33725,0.16153
2154.40851,0.16131
2152.47976,0.16123
2150.55102,0.16106
2148.62227,0.16076
2146.69353,0.16044
2144.76478,0.16011
2142.83604,0.15981
2140.90729,0.15959
2138.97855,0.15948
2137.04980,0.15954
2135.12106,0.15973
2133.19231,0.15987
2131.26356,0.15987
2129.33482,0.15989
2127.40607,0.16008
2125.47733,0.16035
2123.54858,0.16060
2121.61984,0.16077
2119.69109,0.16093
2117.76235,0.16115
2115.83360,0.16133
2113.90486,0.16141
2111.97611,0.16167
2110.04737,0.16219
2108.11862,0.16261
2106.18988,0.16276
2104.26113,0.16278
2102.33238,0.16283
2100.40364,0.16290
2098.47489,0.16289
2096.54615,0.16290
2094.61740,0.16305
2092.68866,0.16325
2090.75991,0.16331
2088.83117,0.16321
2086.90242,0.16304
2084.97368,0.16298
2083.04493,0.16299
2081.11619,0.16292
2079.18744,0.16274
2077.25870,0.16244
2075.32995,0.16204
2073.40121,0.16160
2071.47246,0.16124
2069.54371,0.16100
2067.61497,0.16084
2065.68622,0.16061
2063.75748,0.16029
2061.82873,0.16003
2059.89999,0.15990
2057.97124,0.15983
2056.04250,0.15972
2054.11375,0.15958
2052.18501,0.15964
2050.25626,0.15988
2048.32752,0.16008
2046.39877,0.16031
2044.47003,0.16074
2042.54128,0.16122
2040.61254,0.16150
2038.68379,0.16176
2036.75504,0.16223
2034.82630,0.16274
2032.89755,0.16313
2030.96881,0.16360
2029.04006,0.16425
2027.11132,0.16495
2025.18257,0.16555
2023.25383,0.16597
2021.32508,0.16634
2019.39634,0.16685
2017.46759,0.16744
2015.53885,0.16802
2013.61010,0.16863
2011.68136,0.16914
2009.75261,0.16938
2007.82386,0.16957
2005.89512,0.16996
2003.96637,0.17046
2002.03763,0.17088
2000.10888,0.17120
1998.18014,0.17148
1996.25139,0.17170
1994.32265,0.17197
1992.39390,0.17242
1990.46516,0.17294
1988.53641,0.17329
1986.60767,0.17349
1984.67892,0.17371
1982.75018,0.17398
1980.82143,0.17425
1978.89269,0.17452
1976.96394,0.17482
1975.03519,0.17512
1973.10645,0.17538
1971.17770,0.17563
1969.24896,0.17588
1967.32021,0.17617
1965.39147,0.17653
1963.46272,0.17697
1961.53398,0.17740
1959.60523,0.17774
1957.67649,0.17810
1955.74774,0.17857
1953.81900,0.17913
1951.89025,0.17970
1949.96151,0.18011
1948.03276,0.18034
1946.10402,0.18059
1944.17527,0.18097
1942.24652,0.18138
1940.31778,0.18178
1938.38903,0.18214
1936.46029,0.18241
1934.53154,0.18262
1932.60280,0.18281
1930.67405,0.18299
1928.74531,0.18319
1926.81656,0.18333
1924.88782,0.18335
1922.95907,0.18327
1921.03033,0.18316
1919.10158,0.18307
1917.17284,0.18296
1915.24409,0.18278
1913.31534,0.18259
1911.38660,0.18250
1909.45785,0.18252
1907.52911,0.18237
1905.60036,0.18190
1903.67162,0.18150
1901.74287,0.18127
1899.81413,0.18099
1897.88538,0.18070
1895.95664,0.18046
1894.02789,0.18025
1892.09915,0.18007
1890.17040,0.17983
1888.24166,0.17947
1886.31291,0.17911
1884.38417,0.17893
1882.45542,0.17887
1880.52667,0.17866
1878.59793,0.17828
1876.66918,0.17797
1874.74044,0.17778
1872.81169,0.17759
1870.88295,0.17730
1868.95420,0.17689
1867.02546,0.17651
1865.09671,0.17623
1863.16797,0.17589
1861.23922,0.17541
1859.31048,0.17492
1857.38173,0.17450
1855.45299,0.17404
1853.52424,0.17351
1851.59549,0.17292
1849.66675,0.17233
1847.73800,0.17183
1845.80926,0.17129
1843.88051,0.17044
1841.95177,0.16944
1840.02302,0.16855
1838.09428,0.16767
1836.16553,0.16668
1834.23679,0.16570
1832.30804,0.16486
1830.37930,0.16403
1828.45055,0.16312
1826.52181,0.16201
1824.59306,0.16068
1822.66432,0.15931
1820.73557,0.15789
1818.80682,0.15638
1816.87808,0.15488
1814.94933,0.15331
1813.02059,0.15165
1811.09184,0.15008
1809.16310,0.14859
1807.23435,0.14696
1805.30561,0.14516
1803.37686,0.14328
1801.44812,0.14125
1799.51937,0.13905
1797.59063,0.13681
1795.66188,0.13458
1793.73314,0.13227
1791.80439,0.12970
1789.87565,0.12712
1787.94690,0.12471
1786.01815,0.12215
1784.08941,0.11932
1782.16066,0.11635
1780.23192,0.11327
1778.30317,0.11024
1776.37443,0.10740
1774.44568,0.10440
1772.51694,0.10080
1770.58819,0.09689
1768.65945,0.09299
1766.73070,0.08903
1764.80196,0.08513
1762.87321,0.08116
1760.94447,0.07709
1759.01572,0.07332
1757.08697,0.06973
1755.15823,0.06640
1753.22948,0.06357
1751.30074,0.06102
1749.37199,0.05868
1747.44325,0.05677
1745.51450,0.05538
1743.58576,0.05449
1741.65701,0.05380
1739.72827,0.05292
1737.79952,0.05216
1735.87078,0.05175
1733.94203,0.05159
1732.01329,0.05177
1730.08454,0.05208
1728.15580,0.05226
1726.22705,0.05230
1724.29830,0.05217
1722.36956,0.05196
1720.44081,0.05195
1718.51207,0.05209
1716.58332,0.05219
1714.65458,0.05225
1712.72583,0.05234
1710.79709,0.05238
1708.86834,0.05226
1706.93960,0.05193
1705.01085,0.05150
1703.08211,0.05114
1701.15336,0.05057
1699.22462,0.04953
1697.29587,0.04844
1695.36713,0.04738
1693.43838,0.04643
1691.50963,0.04568
1689.58089,0.04489
1687.65214,0.04411
1685.72340,0.04329
1683.79465,0.04206
1681.86591,0.04088
1679.93716,0.04021
1678.00842,0.03985
1676.07967,0.03949
1674.15093,0.03908
1672.22218,0.03877
1670.29344,0.03863
1668.36469,0.03857
1666.43595,0.03864
1664.50720,0.03884
1662.57845,0.03915
1660.64971,0.03960
1658.72096,0.04030
1656.79222,0.04114
1654.86347,0.04182
1652.93473,0.04230
1651.00598,0.04275
1649.07724,0.04328
1647.14849,0.04376
1645.21975,0.04401
1643.29100,0.04426
1641.36226,0.04471
1639.43351,0.04527
1637.50477,0.04563
1635.57602,0.04558
1633.64728,0.04535
1631.71853,0.04538
1629.78978,0.04563
1627.86104,0.04568
1625.93229,0.04535
1624.00355,0.04498
1622.07480,0.04480
1620.14606,0.04479
1618.21731,0.04483
1616.28857,0.04473
1614.35982,0.04446
1612.43108,0.04428
1610.50233,0.04428
1608.57359,0.04436
1606.64484,0.04452
1604.71610,0.04474
1602.78735,0.04484
1600.85861,0.04481
1598.92986,0.04491
1597.00111,0.04522
1595.07237,0.04561
1593.14362,0.04603
1591.21488,0.04647
1589.28613,0.04688
1587.35739,0.04723
1585.42864,0.04758
1583.49990,0.04797
1581.57115,0.04851
1579.64241,0.04924
1577.71366,0.04988
1575.78492,0.05039
1573.85617,0.05093
1571.92743,0.05147
1569.99868,0.05182
1568.06993,0.05198
1566.14119,0.05209
1564.21244,0.05214
1562.28370,0.05215
1560.35495,0.05215
1558.42621,0.05195
1556.49746,0.05165
1554.56872,0.05153
1552.63997,0.05160
1550.71123,0.05176
1548.78248,0.05182
1546.85374,0.05169
1544.92499,0.05153
1542.99625,0.05161
1541.06750,0.05183
1539.13876,0.05182
1537.21001,0.05173
1535.28126,0.05165
1533.35252,0.05143
1531.42377,0.05111
1529.49503,0.05082
1527.56628,0.05045
1525.63754,0.04977
1523.70879,0.04883
1521.78005,0.04762
1519.85130,0.04618
1517.92256,0.04489
1515.99381,0.04408
1514.06507,0.04378
1512.13632,0.04389
1510.20758,0.04429
1508.27883,0.04493
1506.35008,0.04583
1504.42134,0.04679
1502.49259,0.04768
1500.56385,0.04866
1498.63510,0.04973
1496.70636,0.05065
1494.77761,0.05122
1492.84887,0.05144
1490.92012,0.05144
1488.99138,0.05132
1487.06263,0.05113
1485.13389,0.05088
1483.20514,0.05056
1481.27640,0.04999
1479.34765,0.04913
1477.41891,0.04818
1475.49016,0.04726
1473.56141,0.04617
1471.63267,0.04499
1469.70392,0.04422
1467.77518,0.04376
1465.84643,0.04344
1463.91769,0.04343
1461.98894,0.04359
1460.06020,0.04372
1458.13145,0.04377
1456.20271,0.04371
1454.27396,0.04356
1452.34522,0.04350
1450.41647,0.04370
1448.48773,0.04402
1446.55898,0.04414
1444.63024,0.04417
1442.70149,0.04426
1440.77274,0.04422
1438.84400,0.04391
1436.91525,0.04338
1434.98651,0.04291
1433.05776,0.04256
1431.12902,0.04227
1429.20027,0.04220
1427.27153,0.04244
1425.34278,0.04284
1423.41404,0.04319
1421.48529,0.04339
1419.55655,0.04355
1417.62780,0.04382
1415.69906,0.04421
1413.77031,0.04470
1411.84156,0.04514
1409.91282,0.04536
1407.98407,0.04542
1406.05533,0.04539
1404.12658,0.04527
1402.19784,0.04504
1400.26909,0.04467
1398.34035,0.04416
1396.41160,0.04369
1394.48286,0.04326
1392.55411,0.04277
1390.62537,0.04237
1388.69662,0.04214
1386.76788,0.04192
1384.83913,0.04144
1382.91039,0.04080
1380.98164,0.04035
1379.05289,0.04025
1377.12415,0.04032
1375.19540,0.04037
1373.26666,0.04041
1371.33791,0.04050
1369.40917,0.04070
1367.48042,0.04108
1365.55168,0.04160
1363.62293,0.04194
1361.69419,0.04204
1359.76544,0.04216
1357.83670,0.04229
1355.90795,0.04232
1353.97921,0.04243
1352.05046,0.04258
1350.12172,0.04256
1348.19297,0.04241
1346.26422,0.04227
1344.33548,0.04213
1342.40673,0.04189
1340.47799,0.04163
1338.54924,0.04158
1336.62050,0.04170
1334.69175,0.04173
1332.76301,0.04163
1330.83426,0.04156
1328.90552,0.04153
1326.97677,0.04144
1325.04803,0.04127
1323.11928,0.04101
1321.19054,0.04070
1319.26179,0.04068
1317.33304,0.04103
1315.40430,0.04141
1313.47555,0.04167
1311.54681,0.04187
1309.61806,0.04211
1307.68932,0.04236
1305.76057,0.04248
1303.83183,0.04237
1301.90308,0.04212
1299.97434,0.04200
1298.04559,0.04199
1296.11685,0.04173
1294.18810,0.04118
1292.25936,0.04058
1290.33061,0.04005
1288.40187,0.03960
1286.47312,0.03925
1284.54437,0.03891
1282.61563,0.03855
1280.68688,0.03830
1278.75814,0.03813
1276.82939,0.03799
1274.90065,0.03799
1272.97190,0.03809
1271.04316,0.03809
1269.11441,0.03807
1267.18567,0.03830
1265.25692,0.03867
1263.32818,0.03893
1261.39943,0.03915
1259.47069,0.03954
1257.54194,0.03996
1255.61320,0.04026
1253.68445,0.04041
1251.75570,0.04041
1249.82696,0.04035
1247.89821,0.04038
1245.96947,0.04054
1244.04072,0.04074
1242.11198,0.04089
1240.18323,0.04103
1238.25449,0.04114
1236.32574,0.04114
1234.39700,0.04102
1232.46825,0.04094
1230.53951,0.04105
1228.61076,0.04129
1226.68202,0.04156
1224.75327,0.04179
1222.82452,0.04186
1220.89578,0.04186
1218.96703,0.04198
1217.03829,0.04222
1215.10954,0.04229
1213.18080,0.04215
1211.25205,0.04212
1209.32331,0.04228
1207.39456,0.04241
1205.46582,0.04244
1203.53707,0.04238
1201.60833,0.04223
1199.67958,0.04204
1197.75084,0.04187
1195.82209,0.04179
1193.89335,0.04177
1191.96460,0.04150
1190.03585,0.04082
1188.10711,0.03994
1186.17836,0.03912
1184.24962,0.03842
1182.32087,0.03778
1180.39213,0.03705
1178.46338,0.03624
1176.53464,0.03551
1174.60589,0.03492
1172.67715,0.03446
1170.74840,0.03426
1168.81966,0.03459
1166.89091,0.03530
1164.96217,0.03590
1163.03342,0.03629
1161.10467,0.03668
1159.17593,0.03719
1157.24718,0.03766
1155.31844,0.03779
1153.38969,0.03758
1151.46095,0.03730
1149.53220,0.03686
1147.60346,0.03623
1145.67471,0.03596
1143.74597,0.03628
1141.81722,0.03643
1139.88848,0.03588
1137.95973,0.03521
1136.03099,0.03500
1134.10224,0.03502
1132.17350,0.03495
1130.24475,0.03472
1128.31600,0.03445
1126.38726,0.03442
1124.45851,0.03469
1122.52977,0.03498
1120.60102,0.03511
1118.67228,0.03517
1116.74353,0.03526
1114.81479,0.03550
1112.88604,0.03602
1110.95730,0.03663
1109.02855,0.03703
1107.09981,0.03727
1105.17106,0.03756
1103.24232,0.03790
1101.31357,0.03801
1099.38483,0.03775
1097.45608,0.03732
1095.52733,0.03703
1093.59859,0.03699
1091.66984,0.03711
1089.74110,0.03732
1087.81235,0.03749
1085.88361,0.03775
1083.95486,0.03800
1082.02612,0.03808
1080.09737,0.03846
1078.16863,0.03935
1076.23988,0.04016
1074.31114,0.04081
1072.38239,0.04155
1070.45365,0.04223
1068.52490,0.04297
1066.59615,0.04422
1064.66741,0.04591
1062.73866,0.04759
1060.80992,0.04913
1058.88117,0.05036
1056.95243,0.05105
1055.02368,0.05138
1053.09494,0.05157
1051.16619,0.05156
1049.23745,0.05151
1047.30870,0.05156
1045.37996,0.05140
1043.45121,0.05114
1041.52247,0.05134
1039.59372,0.05225
1037.66498,0.05351
1035.73623,0.05472
1033.80748,0.05589
1031.87874,0.05699
1029.94999,0.05764
1028.02125,0.05785
1026.09250,0.05803
1024.16376,0.05842
1022.23501,0.05883
1020.30627,0.05893
1018.37752,0.05882
1016.44878,0.05890
1014.52003,0.05930
1012.59129,0.05966
1010.66254,0.05973
1008.73380,0.05956
1006.80505,0.05950
1004.87631,0.05981
1002.94756,0.06043
1001.01881,0.06100
999.09007,0.06130
997.16132,0.06151
995.23258,0.06183
993.30383,0.06222
991.37509,0.06274
989.44634,0.06343
987.51760,0.06418
985.58885,0.06509
983.66011,0.06624
981.73136,0.06740
979.80262,0.06835
977.87387,0.06905
975.94513,0.06955
974.01638,0.06987
972.08763,0.06997
970.15889,0.07006
968.23014,0.07044
966.30140,0.07093
964.37265,0.07134
962.44391,0.07177
960.51516,0.07222
958.58642,0.07257
956.65767,0.07291
954.72893,0.07338
952.80018,0.07396
950.87144,0.07447
948.94269,0.07490
947.01395,0.07535
945.08520,0.07583
943.15646,0.07614
941.22771,0.07631
939.29896,0.07650
937.37022,0.07674
935.44147,0.07694
933.51273,0.07707
931.58398,0.07744
929.65524,0.07812
927.72649,0.07855
925.79775,0.07839
923.86900,0.07792
921.94026,0.07753
920.01151,0.07736
918.08277,0.07709
916.15402,0.07654
914.22528,0.07581
912.29653,0.07481
910.36779,0.07347
908.43904,0.07215
906.51029,0.07120
904.58155,0.07027
902.65280,0.06911
900.72406,0.06802
898.79531,0.06735
896.86657,0.06736
894.93782,0.06817
893.00908,0.06913
891.08033,0.06983
889.15159,0.07061
887.22284,0.07143
885.29410,0.07182
883.36535,0.07186
881.43661,0.07178
879.50786,0.07165
877.57911,0.07157
875.65037,0.07142
873.72162,0.07109
871.79288,0.07106
869.86413,0.07148
867.93539,0.07185
866.00664,0.07174
864.07790,0.07149
862.14915,0.07173
860.22041,0.07235
858.29166,0.07273
856.36292,0.07291
854.43417,0.07315
852.50543,0.07344
850.57668,0.07396
848.64794,0.07460
846.71919,0.07473
844.79044,0.07431
842.86170,0.07357
840.93295,0.07277
839.00421,0.07228
837.07546,0.07220
835.14672,0.07214
833.21797,0.07155
831.28923,0.07042
829.36048,0.06916
827.43174,0.06814
825.50299,0.06745
823.57425,0.06698
821.64550,0.06658
819.71676,0.06602
817.78801,0.06520
815.85926,0.06430
813.93052,0.06363
812.00177,0.06313
810.07303,0.06262
808.14428,0.06250
806.21554,0.06294
804.28679,0.06356
802.35805,0.06395
800.42930,0.06391
798.50056,0.06367
796.57181,0.06344
794.64307,0.06309
792.71432,0.06266
790.78558,0.06222
788.85683,0.06173
786.92809,0.06126
784.99934,0.06093
783.07059,0.06047
781.14185,0.05973
779.21310,0.05917
777.28436,0.05882
775.35561,0.05830
773.42687,0.05779
771.49812,0.05777
769.56938,0.05813
767.64063,0.05839
765.71189,0.05827
763.78314,0.05804
761.85440,0.05806
759.92565,0.05815
757.99691,0.05793
756.06816,0.05752
754.13942,0.05704
752.21067,0.05644
750.28192,0.05593
748.35318,0.05576
746.42443,0.05577
744.49569,0.05556
742.56694,0.05497
740.63820,0.05424
738.70945,0.05356
736.78071,0.05299
734.85196,0.05276
732.92322,0.05279
730.99447,0.05244
729.06573,0.05195
727.13698,0.05194
725.20824,0.05180
723.27949,0.05105
721.35074,0.05044
719.42200,0.05033
717.49325,0.05033
715.56451,0.05025
713.63576,0.05016
711.70702,0.04999
709.77827,0.04967
707.84953,0.04925
705.92078,0.04903
703.99204,0.04920
702.06329,0.04923
700.13455,0.04904
698.20580,0.04897
696.27706,0.04884
694.34831,0.04856
692.41957,0.04832
690.49082,0.04793
688.56207,0.04714
686.63333,0.04640
684.70458,0.04616
682.77584,0.04605
680.84709,0.04581
678.91835,0.04568
676.98960,0.04574
675.06086,0.04582
673.13211,0.04576
671.20337,0.04533
669.27462,0.04512
667.34588,0.04557
665.41713,0.04579
663.48839,0.04548
661.55964,0.04524
659.63090,0.04536
657.70215,0.04563
655.77340,0.04576
653.84466,0.04570
651.91591,0.04570
649.98717,0.04567
648.05842,0.04532
646.12968,0.04537
644.20093,0.04615
642.27219,0.04655
640.34344,0.04621
638.41470,0.04561
636.48595,0.04497
634.55721,0.04469
632.62846,0.04520
630.69972,0.04580
628.77097,0.04527
626.84222,0.04389
624.91348,0.04315
622.98473,0.04325
621.05599,0.04319
619.12724,0.04302
617.19850,0.04370
615.26975,0.04529
613.34101,0.04699
611.41226,0.04803
609.48352,0.04832
607.55477,0.04823
605.62603,0.04775
603.69728,0.04634
601.76854,0.04447
599.83979,0.04409
