7497.03301,0.71987
7495.10426,0.72444
7493.17552,0.72614
7491.24677,0.72495
7489.31803,0.72244
7487.38928,0.71752
7485.46054,0.71089
7483.53179,0.70620
7481.60305,0.70248
7479.67430,0.69871
7477.74556,0.69867
7475.81681,0.70352
7473.88807,0.70949
7471.95932,0.71272
7470.03057,0.71275
7468.10183,0.71119
7466.17308,0.71033
7464.24434,0.71237
7462.31559,0.71356
7460.38685,0.70875
7458.45810,0.70283
7456.52936,0.70286
7454.60061,0.70618
7452.67187,0.70646
7450.74312,0.70502
7448.81438,0.70564
7446.88563,0.70578
7444.95689,0.70419
7443.02814,0.70432
7441.09940,0.70722
7439.17065,0.70949
7437.24190,0.70658
7435.31316,0.70032
7433.38441,0.69759
7431.45567,0.69882
7429.52692,0.69977
7427.59818,0.70095
7425.66943,0.70407
7423.74069,0.70489
7421.81194,0.69963
7419.88320,0.69083
7417.95445,0.68301
7416.02571,0.68042
7414.09696,0.68450
7412.16822,0.69042
7410.23947,0.69179
7408.31073,0.68828
7406.38198,0.68518
7404.45323,0.68595
7402.52449,0.68857
7400.59574,0.68977
7398.66700,0.68997
7396.73825,0.69192
7394.80951,0.69560
7392.88076,0.69726
7390.95202,0.69414
7389.02327,0.68874
7387.09453,0.68503
7385.16578,0.68305
7383.23704,0.68305
7381.30829,0.68758
7379.37955,0.69367
7377.45080,0.69405
7375.52205,0.68939
7373.59331,0.68545
7371.66456,0.68249
7369.73582,0.68023
7367.80707,0.68093
7365.87833,0.68315
7363.94958,0.68376
7362.02084,0.68297
7360.09209,0.68297
7358.16335,0.68292
7356.23460,0.68092
7354.30586,0.67853
7352.37711,0.67630
7350.44837,0.67265
7348.51962,0.66813
7346.59088,0.66639
7344.66213,0.67074
7342.73338,0.67711
7340.80464,0.67713
7338.87589,0.67078
7336.94715,0.66596
7335.01840,0.66593
7333.08966,0.66725
7331.16091,0.66803
7329.23217,0.66847
7327.30342,0.66659
7325.37468,0.66155
7323.44593,0.65711
7321.51719,0.65744
7319.58844,0.66046
7317.65970,0.66105
7315.73095,0.66077
7313.80221,0.66335
7311.87346,0.66704
7309.94471,0.66856
7308.01597,0.66601
7306.08722,0.66146
7304.15848,0.66015
7302.22973,0.66217
7300.30099,0.66516
7298.37224,0.66860
7296.44350,0.67018
7294.51475,0.66760
7292.58601,0.66161
7290.65726,0.65546
7288.72852,0.65319
7286.79977,0.65525
7284.87103,0.65724
7282.94228,0.65792
7281.01353,0.66026
7279.08479,0.66385
7277.15604,0.66715
7275.22730,0.66854
7273.29855,0.66496
7271.36981,0.66000
7269.44106,0.66073
7267.51232,0.66567
7265.58357,0.66710
7263.65483,0.66360
7261.72608,0.66119
7259.79734,0.66207
7257.86859,0.66272
7255.93985,0.66079
7254.01110,0.65748
7252.08236,0.65525
7250.15361,0.65557
7248.22486,0.65687
7246.29612,0.65655
7244.36737,0.65671
7242.43863,0.65947
7240.50988,0.66100
7238.58114,0.65791
7236.65239,0.65267
7234.72365,0.65080
7232.79490,0.65429
7230.86616,0.65964
7228.93741,0.66287
7227.00867,0.66299
7225.07992,0.66028
7223.15118,0.65676
7221.22243,0.65627
7219.29369,0.65758
7217.36494,0.65710
7215.43619,0.65757
7213.50745,0.65896
7211.57870,0.65448
7209.64996,0.64627
7207.72121,0.64430
7205.79247,0.64839
7203.86372,0.65082
7201.93498,0.64973
7200.00623,0.64760
7198.07749,0.64637
7196.14874,0.64772
7194.22000,0.65161
7192.29125,0.65324
7190.36251,0.64943
7188.43376,0.64662
7186.50501,0.64917
7184.57627,0.65061
7182.64752,0.64613
7180.71878,0.64041
7178.79003,0.63870
7176.86129,0.63986
7174.93254,0.64067
7173.00380,0.63983
7171.07505,0.63768
7169.14631,0.63703
7167.21756,0.63937
7165.28882,0.64088
7163.36007,0.63991
7161.43133,0.63880
7159.50258,0.63805
7157.57384,0.63867
7155.64509,0.64018
7153.71634,0.64049
7151.78760,0.64033
7149.85885,0.63888
7147.93011,0.63518
7146.00136,0.63066
7144.07262,0.62608
7142.14387,0.62464
7140.21513,0.62800
7138.28638,0.63126
7136.35764,0.63176
7134.42889,0.63103
7132.50015,0.62937
7130.57140,0.62811
7128.64266,0.62856
7126.71391,0.62855
7124.78516,0.62661
7122.85642,0.62440
7120.92767,0.62299
7118.99893,0.62169
7117.07018,0.62001
7115.14144,0.61799
7113.21269,0.61648
7111.28395,0.61591
7109.35520,0.61453
7107.42646,0.61157
7105.49771,0.60860
7103.56897,0.60621
7101.64022,0.60339
7099.71148,0.60094
7097.78273,0.60130
7095.85399,0.60376
7093.92524,0.60472
7091.99649,0.60145
7090.06775,0.59643
7088.13900,0.59438
7086.21026,0.59387
7084.28151,0.59298
7082.35277,0.59446
7080.42402,0.59757
7078.49528,0.59782
7076.56653,0.59427
7074.63779,0.59070
7072.70904,0.59009
7070.78030,0.59068
7068.85155,0.58943
7066.92281,0.58703
7064.99406,0.58524
7063.06532,0.58269
7061.13657,0.57960
7059.20782,0.57849
7057.27908,0.57745
7055.35033,0.57294
7053.42159,0.56703
7051.49284,0.56408
7049.56410,0.56355
7047.63535,0.56237
7045.70661,0.56059
7043.77786,0.56087
7041.84912,0.56322
7039.92037,0.56324
7037.99163,0.55906
7036.06288,0.55402
7034.13414,0.55179
7032.20539,0.55195
7030.27664,0.55083
7028.34790,0.54855
7026.41915,0.54719
7024.49041,0.54534
7022.56166,0.54236
7020.63292,0.54000
7018.70417,0.54025
7016.77543,0.54363
7014.84668,0.54656
7012.91794,0.54404
7010.98919,0.53750
7009.06045,0.53330
7007.13170,0.53256
7005.20296,0.53246
7003.27421,0.53257
7001.34547,0.53150
6999.41672,0.52810
6997.48797,0.52539
6995.55923,0.52456
6993.63048,0.52407
6991.70174,0.52432
6989.77299,0.52615
6987.84425,0.52831
6985.91550,0.52783
6983.98676,0.52393
6982.05801,0.51947
6980.12927,0.51744
6978.20052,0.51808
6976.27178,0.51876
6974.34303,0.51847
6972.41429,0.51920
6970.48554,0.52093
6968.55680,0.52148
6966.62805,0.51984
6964.69930,0.51697
6962.77056,0.51446
6960.84181,0.51332
6958.91307,0.51351
6956.98432,0.51352
6955.05558,0.51209
6953.12683,0.51155
6951.19809,0.51275
6949.26934,0.51166
6947.34060,0.50907
6945.41185,0.50918
6943.48311,0.51020
6941.55436,0.51024
6939.62562,0.50983
6937.69687,0.50810
6935.76812,0.50590
6933.83938,0.50533
6931.91063,0.50570
6929.98189,0.50572
6928.05314,0.50563
6926.12440,0.50540
6924.19565,0.50478
6922.26691,0.50474
6920.33816,0.50688
6918.40942,0.50920
6916.48067,0.50722
6914.55193,0.50258
6912.62318,0.50056
6910.69444,0.50074
6908.76569,0.50047
6906.83695,0.50113
6904.90820,0.50459
6902.97945,0.50817
6901.05071,0.50818
6899.12196,0.50590
6897.19322,0.50570
6895.26447,0.50705
6893.33573,0.50507
6891.40698,0.50065
6889.47824,0.49879
6887.54949,0.49997
6885.62075,0.50116
6883.69200,0.50044
6881.76326,0.49891
6879.83451,0.49705
6877.90577,0.49491
6875.97702,0.49560
6874.04828,0.49883
6872.11953,0.50067
6870.19078,0.50124
6868.26204,0.50190
6866.33329,0.50224
6864.40455,0.50198
6862.47580,0.50108
6860.54706,0.50051
6858.61831,0.50059
6856.68957,0.49892
6854.76082,0.49544
6852.83208,0.49349
6850.90333,0.49379
6848.97459,0.49469
6847.04584,0.49591
6845.11710,0.49904
6843.18835,0.50309
6841.25960,0.50326
6839.33086,0.49966
6837.40211,0.49718
6835.47337,0.49797
6833.54462,0.50075
6831.61588,0.50175
6829.68713,0.50090
6827.75839,0.50181
6825.82964,0.50210
6823.90090,0.49933
6821.97215,0.49711
6820.04341,0.49640
6818.11466,0.49536
6816.18592,0.49452
6814.25717,0.49388
6812.32843,0.49313
6810.39968,0.49423
6808.47093,0.49667
6806.54219,0.49723
6804.61344,0.49535
6802.68470,0.49278
6800.75595,0.49147
6798.82721,0.49227
6796.89846,0.49299
6794.96972,0.49157
6793.04097,0.49065
6791.11223,0.49268
6789.18348,0.49433
6787.25474,0.49203
6785.32599,0.48836
6783.39725,0.48757
6781.46850,0.48878
6779.53975,0.48911
6777.61101,0.48895
6775.68226,0.48826
6773.75352,0.48539
6771.82477,0.48154
6769.89603,0.47983
6767.96728,0.48118
6766.03854,0.48274
6764.10979,0.48151
6762.18105,0.47921
6760.25230,0.47941
6758.32356,0.48164
6756.39481,0.48327
6754.46607,0.48495
6752.53732,0.48705
6750.60858,0.48655
6748.67983,0.48284
6746.75108,0.47889
6744.82234,0.47731
6742.89359,0.47918
6740.96485,0.48303
6739.03610,0.48501
6737.10736,0.48295
6735.17861,0.47874
6733.24987,0.47528
6731.32112,0.47419
6729.39238,0.47520
6727.46363,0.47633
6725.53489,0.47764
6723.60614,0.48029
6721.67740,0.48187
6719.74865,0.48030
6717.81991,0.47879
6715.89116,0.47910
6713.96241,0.47812
6712.03367,0.47578
6710.10492,0.47453
6708.17618,0.47489
6706.24743,0.47686
6704.31869,0.47884
6702.38994,0.47886
6700.46120,0.47829
6698.53245,0.47933
6696.60371,0.48048
6694.67496,0.47903
6692.74622,0.47711
6690.81747,0.47849
6688.88873,0.48154
6686.95998,0.48309
6685.03123,0.48357
6683.10249,0.48299
6681.17374,0.48087
6679.24500,0.47924
6677.31625,0.47962
6675.38751,0.48118
6673.45876,0.48240
6671.53002,0.48311
6669.60127,0.48427
6667.67253,0.48588
6665.74378,0.48729
6663.81504,0.48768
6661.88629,0.48714
6659.95755,0.48673
6658.02880,0.48606
6656.10006,0.48493
6654.17131,0.48537
6652.24256,0.48778
6650.31382,0.48969
6648.38507,0.48880
6646.45633,0.48540
6644.52758,0.48312
6642.59884,0.48507
6640.67009,0.48841
6638.74135,0.48899
6636.81260,0.48810
6634.88386,0.48771
6632.95511,0.48659
6631.02637,0.48573
6629.09762,0.48761
6627.16888,0.49100
6625.24013,0.49414
6623.31139,0.49650
6621.38264,0.49703
6619.45389,0.49590
6617.52515,0.49444
6615.59640,0.49394
6613.66766,0.49480
6611.73891,0.49532
6609.81017,0.49458
6607.88142,0.49390
6605.95268,0.49455
6604.02393,0.49634
6602.09519,0.49739
6600.16644,0.49729
6598.23770,0.49744
6596.30895,0.49743
6594.38021,0.49705
6592.45146,0.49715
6590.52271,0.49663
6588.59397,0.49564
6586.66522,0.49624
6584.73648,0.49788
6582.80773,0.49981
6580.87899,0.50338
6578.95024,0.50599
6577.02150,0.50279
6575.09275,0.49722
6573.16401,0.49598
6571.23526,0.49914
6569.30652,0.50328
6567.37777,0.50537
6565.44903,0.50544
6563.52028,0.50574
6561.59154,0.50611
6559.66279,0.50583
6557.73404,0.50566
6555.80530,0.50653
6553.87655,0.50826
6551.94781,0.50858
6550.01906,0.50631
6548.09032,0.50376
6546.16157,0.50315
6544.23283,0.50410
6542.30408,0.50511
6540.37534,0.50545
6538.44659,0.50659
6536.51785,0.50911
6534.58910,0.51107
6532.66036,0.51220
6530.73161,0.51223
6528.80287,0.50948
6526.87412,0.50600
6524.94537,0.50563
6523.01663,0.50691
6521.08788,0.50682
6519.15914,0.50742
6517.23039,0.50985
6515.30165,0.51126
6513.37290,0.51129
6511.44416,0.51147
6509.51541,0.51115
6507.58667,0.51049
6505.65792,0.51102
6503.72918,0.51181
6501.80043,0.51158
6499.87169,0.51071
6497.94294,0.50993
6496.01419,0.51082
6494.08545,0.51356
6492.15670,0.51600
6490.22796,0.51697
6488.29921,0.51710
6486.37047,0.51647
6484.44172,0.51499
6482.51298,0.51434
6480.58423,0.51492
6478.65549,0.51548
6476.72674,0.51522
6474.79800,0.51384
6472.86925,0.51302
6470.94051,0.51419
6469.01176,0.51574
6467.08302,0.51577
6465.15427,0.51501
6463.22552,0.51472
6461.29678,0.51455
6459.36803,0.51452
6457.43929,0.51492
6455.51054,0.51569
6453.58180,0.51738
6451.65305,0.52021
6449.72431,0.52246
6447.79556,0.52285
6445.86682,0.52216
6443.93807,0.52033
6442.00933,0.51831
6440.08058,0.51895
6438.15184,0.52094
6436.22309,0.52108
6434.29434,0.52013
6432.36560,0.52041
6430.43685,0.52173
6428.50811,0.52196
6426.57936,0.52108
6424.65062,0.52107
6422.72187,0.52182
6420.79313,0.52222
6418.86438,0.52225
6416.93564,0.52289
6415.00689,0.52439
6413.07815,0.52512
6411.14940,0.52470
6409.22066,0.52495
6407.29191,0.52601
6405.36317,0.52523
6403.43442,0.52279
6401.50567,0.52265
6399.57693,0.52358
6397.64818,0.52251
6395.71944,0.52228
6393.79069,0.52382
6391.86195,0.52425
6389.93320,0.52359
6388.00446,0.52302
6386.07571,0.52247
6384.14697,0.52241
6382.21822,0.52359
6380.28948,0.52534
6378.36073,0.52668
6376.43199,0.52682
6374.50324,0.52474
6372.57450,0.52197
6370.64575,0.52207
6368.71700,0.52447
6366.78826,0.52618
6364.85951,0.52731
6362.93077,0.52788
6361.00202,0.52745
6359.07328,0.52728
6357.14453,0.52695
6355.21579,0.52585
6353.28704,0.52519
6351.35830,0.52551
6349.42955,0.52803
6347.50081,0.53270
6345.57206,0.53507
6343.64332,0.53333
6341.71457,0.53064
6339.78582,0.52871
6337.85708,0.52755
6335.92833,0.52767
6333.99959,0.52916
6332.07084,0.53065
6330.14210,0.53045
6328.21335,0.52937
6326.28461,0.52870
6324.35586,0.52859
6322.42712,0.52889
6320.49837,0.52852
6318.56963,0.52748
6316.64088,0.52789
6314.71214,0.53049
6312.78339,0.53285
6310.85465,0.53297
6308.92590,0.53213
6306.99715,0.53227
6305.06841,0.53308
6303.13966,0.53299
6301.21092,0.53162
6299.28217,0.53043
6297.35343,0.53094
6295.42468,0.53278
6293.49594,0.53488
6291.56719,0.53630
6289.63845,0.53585
6287.70970,0.53443
6285.78096,0.53414
6283.85221,0.53560
6281.92347,0.53723
6279.99472,0.53641
6278.06598,0.53426
6276.13723,0.53360
6274.20848,0.53506
6272.27974,0.53819
6270.35099,0.54050
6268.42225,0.53985
6266.49350,0.53853
6264.56476,0.53898
6262.63601,0.53977
6260.70727,0.53958
6258.77852,0.53982
6256.84978,0.54109
6254.92103,0.54238
6252.99229,0.54368
6251.06354,0.54491
6249.13480,0.54544
6247.20605,0.54545
6245.27730,0.54482
6243.34856,0.54365
6241.41981,0.54319
6239.49107,0.54405
6237.56232,0.54619
6235.63358,0.54812
6233.70483,0.54845
6231.77609,0.54861
6229.84734,0.54947
6227.91860,0.54952
6225.98985,0.54821
6224.06111,0.54743
6222.13236,0.54859
6220.20362,0.55033
6218.27487,0.55130
6216.34613,0.55205
6214.41738,0.55281
6212.48863,0.55358
6210.55989,0.55495
6208.63114,0.55596
6206.70240,0.55632
6204.77365,0.55732
6202.84491,0.55797
6200.91616,0.55799
6198.98742,0.55847
6197.05867,0.55925
6195.12993,0.56077
6193.20118,0.56206
6191.27244,0.56128
6189.34369,0.55928
6187.41495,0.55826
6185.48620,0.55915
6183.55746,0.56099
6181.62871,0.56287
6179.69996,0.56440
6177.77122,0.56531
6175.84247,0.56644
6173.91373,0.56768
6171.98498,0.56720
6170.05624,0.56592
6168.12749,0.56591
6166.19875,0.56624
6164.27000,0.56623
6162.34126,0.56670
6160.41251,0.56796
6158.48377,0.57012
6156.55502,0.57195
6154.62628,0.57206
6152.69753,0.57167
6150.76878,0.57190
6148.84004,0.57190
6146.91129,0.57160
6144.98255,0.57171
6143.05380,0.57209
6141.12506,0.57239
6139.19631,0.57239
6137.26757,0.57230
6135.33882,0.57267
6133.41008,0.57298
6131.48133,0.57277
6129.55259,0.57244
6127.62384,0.57191
6125.69510,0.57102
6123.76635,0.57091
6121.83761,0.57249
6119.90886,0.57460
6117.98011,0.57619
6116.05137,0.57685
6114.12262,0.57626
6112.19388,0.57550
6110.26513,0.57538
6108.33639,0.57542
6106.40764,0.57589
6104.47890,0.57669
6102.55015,0.57705
6100.62141,0.57760
6098.69266,0.57874
6096.76392,0.57864
6094.83517,0.57752
6092.90643,0.57771
6090.97768,0.57818
6089.04893,0.57802
6087.12019,0.57869
6085.19144,0.57915
6083.26270,0.57841
6081.33395,0.57779
6079.40521,0.57821
6077.47646,0.58003
6075.54772,0.58154
6073.61897,0.58009
6071.69023,0.57695
6069.76148,0.57551
6067.83274,0.57615
6065.90399,0.57709
6063.97525,0.57718
6062.04650,0.57655
6060.11776,0.57566
6058.18901,0.57456
6056.26026,0.57400
6054.33152,0.57407
6052.40277,0.57384
6050.47403,0.57404
6048.54528,0.57487
6046.61654,0.57436
6044.68779,0.57264
6042.75905,0.57232
6040.83030,0.57347
6038.90156,0.57430
6036.97281,0.57459
6035.04407,0.57377
6033.11532,0.57174
6031.18658,0.57046
6029.25783,0.57010
6027.32909,0.56918
6025.40034,0.56794
6023.47159,0.56713
6021.54285,0.56610
6019.61410,0.56507
6017.68536,0.56500
6015.75661,0.56527
6013.82787,0.56504
6011.89912,0.56419
6009.97038,0.56296
6008.04163,0.56197
6006.11289,0.56161
6004.18414,0.56165
6002.25540,0.56163
6000.32665,0.56135
5998.39791,0.56011
5996.46916,0.55836
5994.54041,0.55828
5992.61167,0.55949
5990.68292,0.55970
5988.75418,0.55850
5986.82543,0.55692
5984.89669,0.55649
5982.96794,0.55735
5981.03920,0.55735
5979.11045,0.55545
5977.18171,0.55343
5975.25296,0.55243
5973.32422,0.55218
5971.39547,0.55313
5969.46673,0.55456
5967.53798,0.55467
5965.60924,0.55426
5963.68049,0.55475
5961.75174,0.55521
5959.82300,0.55487
5957.89425,0.55494
5955.96551,0.55608
5954.03676,0.55673
5952.10802,0.55595
5950.17927,0.55501
5948.25053,0.55495
5946.32178,0.55525
5944.39304,0.55568
5942.46429,0.55643
5940.53555,0.55690
5938.60680,0.55685
5936.67806,0.55657
5934.74931,0.55589
5932.82057,0.55533
5930.89182,0.55570
5928.96307,0.55604
5927.03433,0.55479
5925.10558,0.55290
5923.17684,0.55312
5921.24809,0.55488
5919.31935,0.55480
5917.39060,0.55332
5915.46186,0.55336
5913.53311,0.55459
5911.60437,0.55482
5909.67562,0.55349
5907.74688,0.55169
5905.81813,0.55057
5903.88939,0.55049
5901.96064,0.55037
5900.03189,0.54928
5898.10315,0.54770
5896.17440,0.54603
5894.24566,0.54494
5892.31691,0.54502
5890.38817,0.54584
5888.45942,0.54669
5886.53068,0.54733
5884.60193,0.54767
5882.67319,0.54739
5880.74444,0.54694
5878.81570,0.54678
5876.88695,0.54600
5874.95821,0.54410
5873.02946,0.54239
5871.10072,0.54229
5869.17197,0.54272
5867.24322,0.54188
5865.31448,0.54069
5863.38573,0.54087
5861.45699,0.54184
5859.52824,0.54245
5857.59950,0.54327
5855.67075,0.54430
5853.74201,0.54425
5851.81326,0.54334
5849.88452,0.54276
5847.95577,0.54251
5846.02703,0.54208
5844.09828,0.54123
5842.16954,0.54012
5840.24079,0.53984
5838.31205,0.54112
5836.38330,0.54257
5834.45455,0.54237
5832.52581,0.54099
5830.59706,0.54025
5828.66832,0.54052
5826.73957,0.54042
5824.81083,0.53958
5822.88208,0.53967
5820.95334,0.54078
5819.02459,0.54085
5817.09585,0.54000
5815.16710,0.53953
5813.23836,0.53890
5811.30961,0.53777
5809.38087,0.53691
5807.45212,0.53686
5805.52337,0.53769
5803.59463,0.53889
5801.66588,0.53979
5799.73714,0.53973
5797.80839,0.53872
5795.87965,0.53791
5793.95090,0.53805
5792.02216,0.53867
5790.09341,0.53910
5788.16467,0.53932
5786.23592,0.53953
5784.30718,0.53923
5782.37843,0.53854
5780.44969,0.53845
5778.52094,0.53828
5776.59220,0.53728
5774.66345,0.53686
5772.73470,0.53796
5770.80596,0.54005
5768.87721,0.54224
5766.94847,0.54332
5765.01972,0.54301
5763.09098,0.54223
5761.16223,0.54134
5759.23349,0.54097
5757.30474,0.54212
5755.37600,0.54347
5753.44725,0.54320
5751.51851,0.54247
5749.58976,0.54251
5747.66102,0.54280
5745.73227,0.54335
5743.80352,0.54387
5741.87478,0.54357
5739.94603,0.54300
5738.01729,0.54266
5736.08854,0.54235
5734.15980,0.54193
5732.23105,0.54149
5730.30231,0.54160
5728.37356,0.54221
5726.44482,0.54265
5724.51607,0.54295
5722.58733,0.54358
5720.65858,0.54441
5718.72984,0.54439
5716.80109,0.54327
5714.87235,0.54203
5712.94360,0.54153
5711.01485,0.54196
5709.08611,0.54291
5707.15736,0.54393
5705.22862,0.54456
5703.29987,0.54466
5701.37113,0.54432
5699.44238,0.54305
5697.51364,0.54160
5695.58489,0.54178
5693.65615,0.54302
5691.72740,0.54386
5689.79866,0.54407
5687.86991,0.54342
5685.94117,0.54271
5684.01242,0.54292
5682.08368,0.54303
5680.15493,0.54255
5678.22618,0.54242
5676.29744,0.54293
5674.36869,0.54307
5672.43995,0.54262
5670.51120,0.54304
5668.58246,0.54404
5666.65371,0.54386
5664.72497,0.54283
5662.79622,0.54226
5660.86748,0.54199
5658.93873,0.54120
5657.00999,0.53990
5655.08124,0.53931
5653.15250,0.53997
5651.22375,0.54068
5649.29500,0.54070
5647.36626,0.54092
5645.43751,0.54136
5643.50877,0.54163
5641.58002,0.54277
5639.65128,0.54430
5637.72253,0.54458
5635.79379,0.54407
5633.86504,0.54341
5631.93630,0.54235
5630.00755,0.54123
5628.07881,0.54046
5626.15006,0.54062
5624.22132,0.54198
5622.29257,0.54347
5620.36383,0.54393
5618.43508,0.54335
5616.50633,0.54264
5614.57759,0.54289
5612.64884,0.54386
5610.72010,0.54416
5608.79135,0.54331
5606.86261,0.54230
5604.93386,0.54196
5603.00512,0.54198
5601.07637,0.54239
5599.14763,0.54338
5597.21888,0.54397
5595.29014,0.54372
5593.36139,0.54330
5591.43265,0.54312
5589.50390,0.54290
5587.57516,0.54253
5585.64641,0.54293
5583.71766,0.54420
5581.78892,0.54530
5579.86017,0.54591
5577.93143,0.54579
5576.00268,0.54478
5574.07394,0.54385
5572.14519,0.54368
5570.21645,0.54413
5568.28770,0.54519
5566.35896,0.54641
5564.43021,0.54700
5562.50147,0.54730
5560.57272,0.54784
5558.64398,0.54810
5556.71523,0.54764
5554.78648,0.54677
5552.85774,0.54601
5550.92899,0.54564
5549.00025,0.54548
5547.07150,0.54573
5545.14276,0.54666
5543.21401,0.54750
5541.28527,0.54772
5539.35652,0.54771
5537.42778,0.54775
5535.49903,0.54767
5533.57029,0.54747
5531.64154,0.54761
5529.71280,0.54844
5527.78405,0.54950
5525.85531,0.54976
5523.92656,0.54911
5521.99781,0.54843
5520.06907,0.54828
5518.14032,0.54867
5516.21158,0.54910
5514.28283,0.54899
5512.35409,0.54875
5510.42534,0.54909
5508.49660,0.54972
5506.56785,0.55006
5504.63911,0.55038
5502.71036,0.55095
5500.78162,0.55124
5498.85287,0.55093
5496.92413,0.55069
5494.99538,0.55109
5493.06664,0.55169
5491.13789,0.55186
5489.20914,0.55152
5487.28040,0.55116
5485.35165,0.55158
5483.42291,0.55250
5481.49416,0.55272
5479.56542,0.55204
5477.63667,0.55141
5475.70793,0.55149
5473.77918,0.55222
5471.85044,0.55305
5469.92169,0.55349
5467.99295,0.55327
5466.06420,0.55270
5464.13546,0.55241
5462.20671,0.55245
5460.27796,0.55283
5458.34922,0.55361
5456.42047,0.55460
5454.49173,0.55535
5452.56298,0.55555
5450.63424,0.55588
5448.70549,0.55714
5446.77675,0.55887
5444.84800,0.56003
5442.91926,0.56003
5440.99051,0.55908
5439.06177,0.55825
5437.13302,0.55822
5435.20428,0.55834
5433.27553,0.55850
5431.34679,0.55890
5429.41804,0.55911
5427.48929,0.55945
5425.56055,0.56071
5423.63180,0.56222
5421.70306,0.56268
5419.77431,0.56253
5417.84557,0.56262
5415.91682,0.56220
5413.98808,0.56108
5412.05933,0.56093
5410.13059,0.56265
5408.20184,0.56464
5406.27310,0.56551
5404.34435,0.56562
5402.41561,0.56525
5400.48686,0.56460
5398.55811,0.56420
5396.62937,0.56445
5394.70062,0.56526
5392.77188,0.56573
5390.84313,0.56566
5388.91439,0.56569
5386.98564,0.56567
5385.05690,0.56580
5383.12815,0.56652
5381.19941,0.56658
5379.27066,0.56529
5377.34192,0.56404
5375.41317,0.56413
5373.48443,0.56527
5371.55568,0.56607
5369.62694,0.56612
5367.69819,0.56630
5365.76944,0.56660
5363.84070,0.56657
5361.91195,0.56653
5359.98321,0.56628
5358.05446,0.56556
5356.12572,0.56487
5354.19697,0.56470
5352.26823,0.56527
5350.33948,0.56592
5348.41074,0.56544
5346.48199,0.56425
5344.55325,0.56331
5342.62450,0.56234
5340.69576,0.56134
5338.76701,0.56085
5336.83827,0.56054
5334.90952,0.55965
5332.98077,0.55853
5331.05203,0.55760
5329.12328,0.55713
5327.19454,0.55726
5325.26579,0.55685
5323.33705,0.55532
5321.40830,0.55326
5319.47956,0.55115
5317.55081,0.54955
5315.62207,0.54842
5313.69332,0.54745
5311.76458,0.54679
5309.83583,0.54610
5307.90709,0.54500
5305.97834,0.54318
5304.04959,0.54042
5302.12085,0.53739
5300.19210,0.53470
5298.26336,0.53271
5296.33461,0.53169
5294.40587,0.53058
5292.47712,0.52812
5290.54838,0.52461
5288.61963,0.52130
5286.69089,0.51882
5284.76214,0.51625
5282.83340,0.51296
5280.90465,0.50988
5278.97591,0.50722
5277.04716,0.50402
5275.11842,0.50015
5273.18967,0.49620
5271.26092,0.49224
5269.33218,0.48817
5267.40343,0.48427
5265.47469,0.48072
5263.54594,0.47742
5261.61720,0.47428
5259.68845,0.47102
5257.75971,0.46748
5255.83096,0.46414
5253.90222,0.46101
5251.97347,0.45769
5250.04473,0.45445
5248.11598,0.45162
5246.18724,0.44896
5244.25849,0.44612
5242.32975,0.44337
5240.40100,0.44085
5238.47225,0.43801
5236.54351,0.43481
5234.61476,0.43193
5232.68602,0.42977
5230.75727,0.42810
5228.82853,0.42653
5226.89978,0.42512
5224.97104,0.42363
5223.04229,0.42161
5221.11355,0.41967
5219.18480,0.41839
5217.25606,0.41713
5215.32731,0.41547
5213.39857,0.41413
5211.46982,0.41352
5209.54107,0.41293
5207.61233,0.41196
5205.68358,0.41095
5203.75484,0.41004
5201.82609,0.40940
5199.89735,0.40909
5197.96860,0.40841
5196.03986,0.40697
5194.11111,0.40584
5192.18237,0.40584
5190.25362,0.40598
5188.32488,0.40558
5186.39613,0.40535
5184.46739,0.40506
5182.53864,0.40424
5180.60990,0.40387
5178.68115,0.40455
5176.75240,0.40519
5174.82366,0.40497
5172.89491,0.40467
5170.96617,0.40469
5169.03742,0.40418
5167.10868,0.40337
5165.17993,0.40347
5163.25119,0.40441
5161.32244,0.40526
5159.39370,0.40570
5157.46495,0.40548
5155.53621,0.40483
5153.60746,0.40465
5151.67872,0.40498
5149.74997,0.40571
5147.82123,0.40698
5145.89248,0.40771
5143.96373,0.40751
5142.03499,0.40770
5140.10624,0.40835
5138.17750,0.40855
5136.24875,0.40887
5134.32001,0.40983
5132.39126,0.41081
5130.46252,0.41166
5128.53377,0.41225
5126.60503,0.41194
5124.67628,0.41094
5122.74754,0.41011
5120.81879,0.41008
5118.89005,0.41124
5116.96130,0.41292
5115.03255,0.41340
5113.10381,0.41252
5111.17506,0.41166
5109.24632,0.41128
5107.31757,0.41093
5105.38883,0.41062
5103.46008,0.41035
5101.53134,0.40975
5099.60259,0.40870
5097.67385,0.40733
5095.74510,0.40627
5093.81636,0.40611
5091.88761,0.40605
5089.95887,0.40548
5088.03012,0.40497
5086.10138,0.40452
5084.17263,0.40394
5082.24388,0.40334
5080.31514,0.40236
5078.38639,0.40147
5076.45765,0.40145
5074.52890,0.40159
5072.60016,0.40166
5070.67141,0.40205
5068.74267,0.40226
5066.81392,0.40222
5064.88518,0.40226
5062.95643,0.40189
5061.02769,0.40126
5059.09894,0.40167
5057.17020,0.40320
5055.24145,0.40463
5053.31270,0.40558
5051.38396,0.40634
5049.45521,0.40697
5047.52647,0.40744
5045.59772,0.40777
5043.66898,0.40803
5041.74023,0.40846
5039.81149,0.40917
5037.88274,0.40991
5035.95400,0.41072
5034.02525,0.41168
5032.09651,0.41249
5030.16776,0.41304
5028.23902,0.41351
5026.31027,0.41392
5024.38153,0.41455
5022.45278,0.41565
5020.52403,0.41652
5018.59529,0.41666
5016.66654,0.41675
5014.73780,0.41736
5012.80905,0.41848
5010.88031,0.42003
5008.95156,0.42140
5007.02282,0.42175
5005.09407,0.42148
5003.16533,0.42148
5001.23658,0.42157
4999.30784,0.42151
4997.37909,0.42163
4995.45035,0.42185
4993.52160,0.42224
4991.59286,0.42302
4989.66411,0.42365
4987.73536,0.42355
4985.80662,0.42312
4983.87787,0.42280
4981.94913,0.42245
4980.02038,0.42214
4978.09164,0.42207
4976.16289,0.42187
4974.23415,0.42144
4972.30540,0.42095
4970.37666,0.42032
4968.44791,0.41949
4966.51917,0.41863
4964.59042,0.41783
4962.66168,0.41687
4960.73293,0.41577
4958.80418,0.41509
4956.87544,0.41471
4954.94669,0.41367
4953.01795,0.41186
4951.08920,0.41031
4949.16046,0.40950
4947.23171,0.40883
4945.30297,0.40778
4943.37422,0.40659
4941.44548,0.40531
4939.51673,0.40369
4937.58799,0.40196
4935.65924,0.40071
4933.73050,0.39993
4931.80175,0.39900
4929.87301,0.39766
4927.94426,0.39639
4926.01551,0.39555
4924.08677,0.39483
4922.15802,0.39383
4920.22928,0.39267
4918.30053,0.39183
4916.37179,0.39149
4914.44304,0.39070
4912.51430,0.38897
4910.58555,0.38721
4908.65681,0.38578
4906.72806,0.38464
4904.79932,0.38360
4902.87057,0.38248
4900.94183,0.38169
4899.01308,0.38110
4897.08434,0.38005
4895.15559,0.37870
4893.22684,0.37769
4891.29810,0.37713
4889.36935,0.37646
4887.44061,0.37554
4885.51186,0.37484
4883.58312,0.37401
4881.65437,0.37252
4879.72563,0.37107
4877.79688,0.36993
4875.86814,0.36871
4873.93939,0.36776
4872.01065,0.36732
4870.08190,0.36678
4868.15316,0.36598
4866.22441,0.36525
4864.29566,0.36455
4862.36692,0.36375
4860.43817,0.36289
4858.50943,0.36220
4856.58068,0.36150
4854.65194,0.36023
4852.72319,0.35906
4850.79445,0.35881
4848.86570,0.35862
4846.93696,0.35772
4845.00821,0.35661
4843.07947,0.35579
4841.15072,0.35520
4839.22198,0.35476
4837.29323,0.35424
4835.36449,0.35318
4833.43574,0.35205
4831.50699,0.35160
4829.57825,0.35146
4827.64950,0.35102
4825.72076,0.35030
4823.79201,0.34955
4821.86327,0.34900
4819.93452,0.34845
4818.00578,0.34773
4816.07703,0.34721
4814.14829,0.34680
4812.21954,0.34609
4810.29080,0.34547
4808.36205,0.34535
4806.43331,0.34533
4804.50456,0.34484
4802.57582,0.34417
4800.64707,0.34390
4798.71832,0.34386
4796.78958,0.34368
4794.86083,0.34337
4792.93209,0.34291
4791.00334,0.34238
4789.07460,0.34206
4787.14585,0.34223
4785.21711,0.34260
4783.28836,0.34251
4781.35962,0.34196
4779.43087,0.34141
4777.50213,0.34115
4775.57338,0.34111
4773.64464,0.34105
4771.71589,0.34105
4769.78714,0.34103
4767.85840,0.34072
4765.92965,0.34036
4764.00091,0.34001
4762.07216,0.33954
4760.14342,0.33918
4758.21467,0.33913
4756.28593,0.33913
4754.35718,0.33917
4752.42844,0.33919
4750.49969,0.33907
4748.57095,0.33928
4746.64220,0.33992
4744.71346,0.34035
4742.78471,0.34011
4740.85597,0.33946
4738.92722,0.33926
4736.99847,0.33972
4735.06973,0.34008
4733.14098,0.33995
4731.21224,0.33967
4729.28349,0.33955
4727.35475,0.33959
4725.42600,0.33974
4723.49726,0.33988
4721.56851,0.33987
4719.63977,0.33987
4717.71102,0.34017
4715.78228,0.34050
4713.85353,0.34063
4711.92479,0.34071
4709.99604,0.34075
4708.06729,0.34075
4706.13855,0.34079
4704.20980,0.34090
4702.28106,0.34136
4700.35231,0.34202
4698.42357,0.34226
4696.49482,0.34204
4694.56608,0.34162
4692.63733,0.34115
4690.70859,0.34113
4688.77984,0.34166
4686.85110,0.34209
4684.92235,0.34210
4682.99361,0.34197
4681.06486,0.34189
4679.13612,0.34215
4677.20737,0.34292
4675.27862,0.34377
4673.34988,0.34431
4671.42113,0.34445
4669.49239,0.34447
4667.56364,0.34497
4665.63490,0.34569
4663.70615,0.34581
4661.77741,0.34534
4659.84866,0.34500
4657.91992,0.34524
4655.99117,0.34585
4654.06243,0.34626
4652.13368,0.34662
4650.20494,0.34748
4648.27619,0.34824
4646.34745,0.34804
4644.41870,0.34746
4642.48995,0.34744
4640.56121,0.34784
4638.63246,0.34822
4636.70372,0.34870
4634.77497,0.34946
4632.84623,0.35015
4630.91748,0.35030
4628.98874,0.35022
4627.05999,0.35074
4625.13125,0.35177
4623.20250,0.35241
4621.27376,0.35251
4619.34501,0.35259
4617.41627,0.35306
4615.48752,0.35385
4613.55877,0.35451
4611.63003,0.35508
4609.70128,0.35575
4607.77254,0.35639
4605.84379,0.35689
4603.91505,0.35738
4601.98630,0.35767
4600.05756,0.35766
4598.12881,0.35787
4596.20007,0.35855
4594.27132,0.35914
4592.34258,0.35949
4590.41383,0.35987
4588.48509,0.36028
4586.55634,0.36062
4584.62760,0.36088
4582.69885,0.36096
4580.77010,0.36107
4578.84136,0.36138
4576.91261,0.36157
4574.98387,0.36157
4573.05512,0.36170
4571.12638,0.36201
4569.19763,0.36248
4567.26889,0.36293
4565.34014,0.36329
4563.41140,0.36365
4561.48265,0.36377
4559.55391,0.36351
4557.62516,0.36327
4555.69642,0.36327
4553.76767,0.36337
4551.83893,0.36344
4549.91018,0.36356
4547.98143,0.36379
4546.05269,0.36400
4544.12394,0.36426
4542.19520,0.36470
4540.26645,0.36512
4538.33771,0.36550
4536.40896,0.36586
4534.48022,0.36607
4532.55147,0.36616
4530.62273,0.36631
4528.69398,0.36654
4526.76524,0.36656
4524.83649,0.36640
4522.90775,0.36644
4520.97900,0.36677
4519.05025,0.36721
4517.12151,0.36743
4515.19276,0.36726
4513.26402,0.36708
4511.33527,0.36729
4509.40653,0.36775
4507.47778,0.36814
4505.54904,0.36848
4503.62029,0.36871
4501.69155,0.36849
4499.76280,0.36779
4497.83406,0.36719
4495.90531,0.36698
4493.97657,0.36684
4492.04782,0.36657
4490.11908,0.36596
4488.19033,0.36489
4486.26158,0.36372
4484.33284,0.36270
4482.40409,0.36191
4480.47535,0.36122
4478.54660,0.36020
4476.61786,0.35880
4474.68911,0.35773
4472.76037,0.35696
4470.83162,0.35573
4468.90288,0.35420
4466.97413,0.35268
4465.04539,0.35090
4463.11664,0.34922
4461.18790,0.34793
4459.25915,0.34631
4457.33041,0.34421
4455.40166,0.34232
4453.47291,0.34072
4451.54417,0.33898
4449.61542,0.33705
4447.68668,0.33514
4445.75793,0.33333
4443.82919,0.33166
4441.90044,0.33023
4439.97170,0.32875
4438.04295,0.32680
4436.11421,0.32462
4434.18546,0.32256
4432.25672,0.32069
4430.32797,0.31903
4428.39923,0.31759
4426.47048,0.31626
4424.54173,0.31489
4422.61299,0.31336
4420.68424,0.31174
4418.75550,0.31036
4416.82675,0.30921
4414.89801,0.30787
4412.96926,0.30646
4411.04052,0.30535
4409.11177,0.30423
4407.18303,0.30311
4405.25428,0.30230
4403.32554,0.30173
4401.39679,0.30150
4399.46805,0.30162
4397.53930,0.30183
4395.61056,0.30203
4393.68181,0.30222
4391.75306,0.30240
4389.82432,0.30263
4387.89557,0.30296
4385.96683,0.30349
4384.03808,0.30416
4382.10934,0.30470
4380.18059,0.30500
4378.25185,0.30546
4376.32310,0.30637
4374.39436,0.30733
4372.46561,0.30787
4370.53687,0.30841
4368.60812,0.30937
4366.67938,0.31042
4364.75063,0.31112
4362.82189,0.31139
4360.89314,0.31145
4358.96439,0.31161
4357.03565,0.31198
4355.10690,0.31229
4353.17816,0.31227
4351.24941,0.31202
4349.32067,0.31180
4347.39192,0.31169
4345.46318,0.31166
4343.53443,0.31161
4341.60569,0.31151
4339.67694,0.31117
4337.74820,0.31039
4335.81945,0.30949
4333.89071,0.30896
4331.96196,0.30877
4330.03321,0.30872
4328.10447,0.30849
4326.17572,0.30790
4324.24698,0.30731
4322.31823,0.30698
4320.38949,0.30672
4318.46074,0.30629
4316.53200,0.30562
4314.60325,0.30503
4312.67451,0.30465
4310.74576,0.30435
4308.81702,0.30423
4306.88827,0.30414
4304.95953,0.30376
4303.03078,0.30325
4301.10204,0.30277
4299.17329,0.30233
4297.24454,0.30191
4295.31580,0.30148
4293.38705,0.30113
4291.45831,0.30076
4289.52956,0.30020
4287.60082,0.29968
4285.67207,0.29946
4283.74333,0.29935
4281.81458,0.29921
4279.88584,0.29914
4277.95709,0.29926
4276.02835,0.29951
4274.09960,0.29974
4272.17086,0.30006
4270.24211,0.30063
4268.31336,0.30111
4266.38462,0.30131
4264.45587,0.30161
4262.52713,0.30211
4260.59838,0.30260
4258.66964,0.30313
4256.74089,0.30356
4254.81215,0.30357
4252.88340,0.30356
4250.95466,0.30406
4249.02591,0.30480
4247.09717,0.30532
4245.16842,0.30556
4243.23968,0.30572
4241.31093,0.30592
4239.38219,0.30611
4237.45344,0.30620
4235.52469,0.30641
4233.59595,0.30679
4231.66720,0.30702
4229.73846,0.30722
4227.80971,0.30771
4225.88097,0.30825
4223.95222,0.30840
4222.02348,0.30811
4220.09473,0.30780
4218.16599,0.30763
4216.23724,0.30732
4214.30850,0.30684
4212.37975,0.30652
4210.45101,0.30670
4208.52226,0.30708
4206.59352,0.30713
4204.66477,0.30707
4202.73602,0.30707
4200.80728,0.30694
4198.87853,0.30681
4196.94979,0.30677
4195.02104,0.30687
4193.09230,0.30709
4191.16355,0.30718
4189.23481,0.30729
4187.30606,0.30751
4185.37732,0.30755
4183.44857,0.30751
4181.51983,0.30758
4179.59108,0.30763
4177.66234,0.30766
4175.73359,0.30786
4173.80484,0.30827
4171.87610,0.30862
4169.94735,0.30906
4168.01861,0.30955
4166.08986,0.30970
4164.16112,0.30968
4162.23237,0.30979
4160.30363,0.30969
4158.37488,0.30914
4156.44614,0.30852
4154.51739,0.30809
4152.58865,0.30765
4150.65990,0.30716
4148.73116,0.30671
4146.80241,0.30608
4144.87367,0.30527
4142.94492,0.30472
4141.01617,0.30461
4139.08743,0.30440
4137.15868,0.30368
4135.22994,0.30281
4133.30119,0.30198
4131.37245,0.30094
4129.44370,0.29974
4127.51496,0.29861
4125.58621,0.29755
4123.65747,0.29646
4121.72872,0.29535
4119.79998,0.29430
4117.87123,0.29338
4115.94249,0.29246
4114.01374,0.29133
4112.08500,0.29001
4110.15625,0.28875
4108.22750,0.28759
4106.29876,0.28630
4104.37001,0.28475
4102.44127,0.28311
4100.51252,0.28164
4098.58378,0.28035
4096.65503,0.27924
4094.72629,0.27820
4092.79754,0.27684
4090.86880,0.27512
4088.94005,0.27342
4087.01131,0.27194
4085.08256,0.27045
4083.15382,0.26898
4081.22507,0.26775
4079.29632,0.26654
4077.36758,0.26528
4075.43883,0.26408
4073.51009,0.26269
4071.58134,0.26101
4069.65260,0.25928
4067.72385,0.25769
4065.79511,0.25650
4063.86636,0.25547
4061.93762,0.25406
4060.00887,0.25236
4058.08013,0.25087
4056.15138,0.24963
4054.22264,0.24845
4052.29389,0.24731
4050.36515,0.24607
4048.43640,0.24473
4046.50765,0.24361
4044.57891,0.24256
4042.65016,0.24133
4040.72142,0.24023
4038.79267,0.23947
4036.86393,0.23861
4034.93518,0.23753
4033.00644,0.23672
4031.07769,0.23621
4029.14895,0.23569
4027.22020,0.23499
4025.29146,0.23419
4023.36271,0.23371
4021.43397,0.23363
4019.50522,0.23345
4017.57648,0.23297
4015.64773,0.23255
4013.71898,0.23231
4011.79024,0.23210
4009.86149,0.23194
4007.93275,0.23180
4006.00400,0.23158
4004.07526,0.23161
4002.14651,0.23206
4000.21777,0.23259
3998.28902,0.23308
3996.36028,0.23354
3994.43153,0.23375
3992.50279,0.23380
3990.57404,0.23398
3988.64530,0.23427
3986.71655,0.23445
3984.78780,0.23444
3982.85906,0.23446
3980.93031,0.23475
3979.00157,0.23518
3977.07282,0.23547
3975.14408,0.23572
3973.21533,0.23627
3971.28659,0.23703
3969.35784,0.23759
3967.42910,0.23792
3965.50035,0.23834
3963.57161,0.23906
3961.64286,0.23999
3959.71412,0.24083
3957.78537,0.24147
3955.85663,0.24204
3953.92788,0.24251
3951.99913,0.24278
3950.07039,0.24305
3948.14164,0.24362
3946.21290,0.24440
3944.28415,0.24531
3942.35541,0.24631
3940.42666,0.24710
3938.49792,0.24757
3936.56917,0.24810
3934.64043,0.24883
3932.71168,0.24949
3930.78294,0.24998
3928.85419,0.25058
3926.92545,0.25130
3924.99670,0.25185
3923.06795,0.25235
3921.13921,0.25317
3919.21046,0.25408
3917.28172,0.25462
3915.35297,0.25504
3913.42423,0.25564
3911.49548,0.25622
3909.56674,0.25669
3907.63799,0.25706
3905.70925,0.25750
3903.78050,0.25824
3901.85176,0.25902
3899.92301,0.25945
3897.99427,0.25979
3896.06552,0.26057
3894.13678,0.26165
3892.20803,0.26260
3890.27928,0.26331
3888.35054,0.26387
3886.42179,0.26435
3884.49305,0.26471
3882.56430,0.26483
3880.63556,0.26499
3878.70681,0.26553
3876.77807,0.26639
3874.84932,0.26740
3872.92058,0.26845
3870.99183,0.26920
3869.06309,0.26942
3867.13434,0.26965
3865.20560,0.27053
3863.27685,0.27172
3861.34811,0.27239
3859.41936,0.27274
3857.49061,0.27330
3855.56187,0.27406
3853.63312,0.27503
3851.70438,0.27613
3849.77563,0.27709
3847.84689,0.27799
3845.91814,0.27876
3843.98940,0.27947
3842.06065,0.28045
3840.13191,0.28145
3838.20316,0.28187
3836.27442,0.28197
3834.34567,0.28231
3832.41693,0.28262
3830.48818,0.28282
3828.55943,0.28303
3826.63069,0.28315
3824.70194,0.28328
3822.77320,0.28356
3820.84445,0.28402
3818.91571,0.28458
3816.98696,0.28477
3815.05822,0.28437
3813.12947,0.28409
3811.20073,0.28423
3809.27198,0.28434
3807.34324,0.28442
3805.41449,0.28476
3803.48575,0.28487
3801.55700,0.28445
3799.62826,0.28411
3797.69951,0.28418
3795.77076,0.28437
3793.84202,0.28461
3791.91327,0.28480
3789.98453,0.28470
3788.05578,0.28441
3786.12704,0.28415
3784.19829,0.28389
3782.26955,0.28371
3780.34080,0.28378
3778.41206,0.28398
3776.48331,0.28392
3774.55457,0.28358
3772.62582,0.28323
3770.69708,0.28297
3768.76833,0.28247
3766.83959,0.28174
3764.91084,0.28110
3762.98209,0.28058
3761.05335,0.28020
3759.12460,0.28004
3757.19586,0.27979
3755.26711,0.27919
3753.33837,0.27853
3751.40962,0.27805
3749.48088,0.27764
3747.55213,0.27707
3745.62339,0.27608
3743.69464,0.27490
3741.76590,0.27408
3739.83715,0.27347
3737.90841,0.27274
3735.97966,0.27171
3734.05091,0.27059
3732.12217,0.26958
3730.19342,0.26859
3728.26468,0.26752
3726.33593,0.26629
3724.40719,0.26483
3722.47844,0.26327
3720.54970,0.26193
3718.62095,0.26077
3716.69221,0.25937
3714.76346,0.25760
3712.83472,0.25547
3710.90597,0.25313
3708.97723,0.25095
3707.04848,0.24885
3705.11974,0.24661
3703.19099,0.24426
3701.26224,0.24178
3699.33350,0.23921
3697.40475,0.23650
3695.47601,0.23367
3693.54726,0.23100
3691.61852,0.22828
3689.68977,0.22478
3687.76103,0.22050
3685.83228,0.21637
3683.90354,0.21250
3681.97479,0.20844
3680.04605,0.20420
3678.11730,0.19990
3676.18856,0.19502
3674.25981,0.18972
3672.33107,0.18502
3670.40232,0.18054
3668.47357,0.17591
3666.54483,0.17150
3664.61608,0.16700
3662.68734,0.16237
3660.75859,0.15800
3658.82985,0.15369
3656.90110,0.14902
3654.97236,0.14459
3653.04361,0.14116
3651.11487,0.13806
3649.18612,0.13447
3647.25738,0.13064
3645.32863,0.12707
3643.39989,0.12364
3641.47114,0.12041
3639.54239,0.11770
3637.61365,0.11519
3635.68490,0.11256
3633.75616,0.11024
3631.82741,0.10853
3629.89867,0.10653
3627.96992,0.10348
3626.04118,0.10063
3624.11243,0.09869
3622.18369,0.09704
3620.25494,0.09501
3618.32620,0.09261
3616.39745,0.09053
3614.46871,0.08888
3612.53996,0.08743
3610.61122,0.08596
3608.68247,0.08400
3606.75372,0.08182
3604.82498,0.08016
3602.89623,0.07882
3600.96749,0.07738
3599.03874,0.07591
3597.11000,0.07447
3595.18125,0.07294
3593.25251,0.07146
3591.32376,0.07015
3589.39502,0.06880
3587.46627,0.06746
3585.53753,0.06655
3583.60878,0.06587
3581.68004,0.06485
3579.75129,0.06341
3577.82254,0.06199
3575.89380,0.06095
3573.96505,0.06024
3572.03631,0.05977
3570.10756,0.05938
3568.17882,0.05861
3566.25007,0.05747
3564.32133,0.05668
3562.39258,0.05633
3560.46384,0.05587
3558.53509,0.05512
3556.60635,0.05432
3554.67760,0.05363
3552.74886,0.05291
3550.82011,0.05219
3548.89137,0.05157
3546.96262,0.05107
3545.03387,0.05071
3543.10513,0.05041
3541.17638,0.05002
3539.24764,0.04939
3537.31889,0.04879
3535.39015,0.04859
3533.46140,0.04847
3531.53266,0.04799
3529.60391,0.04726
3527.67517,0.04661
3525.74642,0.04621
3523.81768,0.04600
3521.88893,0.04575
3519.96019,0.04517
3518.03144,0.04429
3516.10270,0.04382
3514.17395,0.04396
3512.24520,0.04391
3510.31646,0.04346
3508.38771,0.04296
3506.45897,0.04245
3504.53022,0.04207
3502.60148,0.04191
3500.67273,0.04173
3498.74399,0.04131
3496.81524,0.04080
3494.88650,0.04043
3492.95775,0.04024
3491.02901,0.04017
3489.10026,0.04005
3487.17152,0.03993
3485.24277,0.03998
3483.31402,0.03995
3481.38528,0.03961
3479.45653,0.03924
3477.52779,0.03892
3475.59904,0.03851
3473.67030,0.03815
3471.74155,0.03801
3469.81281,0.03810
3467.88406,0.03830
3465.95532,0.03833
3464.02657,0.03822
3462.09783,0.03829
3460.16908,0.03840
3458.24034,0.03844
3456.31159,0.03844
3454.38285,0.03840
3452.45410,0.03834
3450.52535,0.03817
3448.59661,0.03791
3446.66786,0.03765
3444.73912,0.03740
3442.81037,0.03723
3440.88163,0.03720
3438.95288,0.03725
3437.02414,0.03708
3435.09539,0.03671
3433.16665,0.03673
3431.23790,0.03715
3429.30916,0.03734
3427.38041,0.03711
3425.45167,0.03674
3423.52292,0.03656
3421.59418,0.03668
3419.66543,0.03681
3417.73668,0.03680
3415.80794,0.03675
3413.87919,0.03676
3411.95045,0.03711
3410.02170,0.03769
3408.09296,0.03799
3406.16421,0.03790
3404.23547,0.03778
3402.30672,0.03768
3400.37798,0.03754
3398.44923,0.03733
3396.52049,0.03721
3394.59174,0.03753
3392.66300,0.03799
3390.73425,0.03808
3388.80550,0.03784
3386.87676,0.03748
3384.94801,0.03729
3383.01927,0.03743
3381.09052,0.03772
3379.16178,0.03797
3377.23303,0.03798
3375.30429,0.03779
3373.37554,0.03774
3371.44680,0.03781
3369.51805,0.03770
3367.58931,0.03743
3365.66056,0.03729
3363.73182,0.03742
3361.80307,0.03782
3359.87433,0.03831
3357.94558,0.03858
3356.01683,0.03860
3354.08809,0.03855
3352.15934,0.03872
3350.23060,0.03915
3348.30185,0.03952
3346.37311,0.03964
3344.44436,0.03962
3342.51562,0.03949
3340.58687,0.03927
3338.65813,0.03926
3336.72938,0.03970
3334.80064,0.04034
3332.87189,0.04088
3330.94315,0.04123
3329.01440,0.04135
3327.08566,0.04134
3325.15691,0.04145
3323.22816,0.04167
3321.29942,0.04187
3319.37067,0.04187
3317.44193,0.04173
3315.51318,0.04184
3313.58444,0.04212
3311.65569,0.04227
3309.72695,0.04252
3307.79820,0.04295
3305.86946,0.04324
3303.94071,0.04329
3302.01197,0.04321
3300.08322,0.04304
3298.15448,0.04306
3296.22573,0.04327
3294.29698,0.04341
3292.36824,0.04346
3290.43949,0.04354
3288.51075,0.04365
3286.58200,0.04385
3284.65326,0.04415
3282.72451,0.04444
3280.79577,0.04449
3278.86702,0.04436
3276.93828,0.04438
3275.00953,0.04454
3273.08079,0.04470
3271.15204,0.04485
3269.22330,0.04502
3267.29455,0.04510
3265.36581,0.04521
3263.43706,0.04561
3261.50831,0.04615
3259.57957,0.04653
3257.65082,0.04671
3255.72208,0.04693
3253.79333,0.04720
3251.86459,0.04748
3249.93584,0.04783
3248.00710,0.04803
3246.07835,0.04800
3244.14961,0.04797
3242.22086,0.04802
3240.29212,0.04824
3238.36337,0.04870
3236.43463,0.04913
3234.50588,0.04925
3232.57713,0.04911
3230.64839,0.04888
3228.71964,0.04892
3226.79090,0.04941
3224.86215,0.05003
3222.93341,0.05049
3221.00466,0.05081
3219.07592,0.05103
3217.14717,0.05129
3215.21843,0.05165
3213.28968,0.05182
3211.36094,0.05166
3209.43219,0.05159
3207.50345,0.05197
3205.57470,0.05252
3203.64596,0.05285
3201.71721,0.05289
3199.78846,0.05283
3197.85972,0.05300
3195.93097,0.05343
3194.00223,0.05390
3192.07348,0.05427
3190.14474,0.05442
3188.21599,0.05459
3186.28725,0.05512
3184.35850,0.05563
3182.42976,0.05563
3180.50101,0.05563
3178.57227,0.05614
3176.64352,0.05683
3174.71478,0.05726
3172.78603,0.05741
3170.85729,0.05751
3168.92854,0.05773
3166.99979,0.05805
3165.07105,0.05843
3163.14230,0.05879
3161.21356,0.05913
3159.28481,0.05952
3157.35607,0.05983
3155.42732,0.05990
3153.49858,0.05989
3151.56983,0.06019
3149.64109,0.06079
3147.71234,0.06129
3145.78360,0.06153
3143.85485,0.06180
3141.92611,0.06226
3139.99736,0.06282
3138.06861,0.06333
3136.13987,0.06373
3134.21112,0.06405
3132.28238,0.06434
3130.35363,0.06456
3128.42489,0.06464
3126.49614,0.06470
3124.56740,0.06494
3122.63865,0.06529
3120.70991,0.06565
3118.78116,0.06614
3116.85242,0.06668
3114.92367,0.06703
3112.99493,0.06723
3111.06618,0.06740
3109.13744,0.06754
3107.20869,0.06757
3105.27994,0.06768
3103.35120,0.06793
3101.42245,0.06827
3099.49371,0.06881
3097.56496,0.06945
3095.63622,0.06990
3093.70747,0.07011
3091.77873,0.07021
3089.84998,0.07028
3087.92124,0.07044
3085.99249,0.07069
3084.06375,0.07085
3082.13500,0.07100
3080.20626,0.07136
3078.27751,0.07178
3076.34877,0.07219
3074.42002,0.07268
3072.49127,0.07305
3070.56253,0.07314
3068.63378,0.07326
3066.70504,0.07370
3064.77629,0.07428
3062.84755,0.07476
3060.91880,0.07498
3058.99006,0.07498
3057.06131,0.07503
3055.13257,0.07522
3053.20382,0.07556
3051.27508,0.07588
3049.34633,0.07599
3047.41759,0.07607
3045.48884,0.07628
3043.56009,0.07657
3041.63135,0.07688
3039.70260,0.07722
3037.77386,0.07773
3035.84511,0.07826
3033.91637,0.07845
3031.98762,0.07829
3030.05888,0.07819
3028.13013,0.07835
3026.20139,0.07856
3024.27264,0.07859
3022.34390,0.07851
3020.41515,0.07850
3018.48641,0.07840
3016.55766,0.07814
3014.62892,0.07784
3012.70017,0.07735
3010.77142,0.07681
3008.84268,0.07669
3006.91393,0.07680
3004.98519,0.07664
3003.05644,0.07631
3001.12770,0.07614
2999.19895,0.07606
2997.27021,0.07580
2995.34146,0.07529
2993.41272,0.07464
2991.48397,0.07393
2989.55523,0.07318
2987.62648,0.07239
2985.69774,0.07138
2983.76899,0.07005
2981.84025,0.06870
2979.91150,0.06763
2977.98275,0.06673
2976.05401,0.06564
2974.12526,0.06439
2972.19652,0.06333
2970.26777,0.06261
2968.33903,0.06200
2966.41028,0.06127
2964.48154,0.06044
2962.55279,0.05952
2960.62405,0.05871
2958.69530,0.05823
2956.76656,0.05788
2954.83781,0.05745
2952.90907,0.05704
2950.98032,0.05674
2949.05157,0.05636
2947.12283,0.05583
2945.19408,0.05529
2943.26534,0.05481
2941.33659,0.05453
2939.40785,0.05447
2937.47910,0.05429
2935.55036,0.05397
2933.62161,0.05390
2931.69287,0.05410
2929.76412,0.05416
2927.83538,0.05401
2925.90663,0.05383
2923.97789,0.05375
2922.04914,0.05379
2920.12040,0.05385
2918.19165,0.05390
2916.26290,0.05403
2914.33416,0.05418
2912.40541,0.05420
2910.47667,0.05413
2908.54792,0.05415
2906.61918,0.05446
2904.69043,0.05500
2902.76169,0.05552
2900.83294,0.05585
2898.90420,0.05610
2896.97545,0.05638
2895.04671,0.05656
2893.11796,0.05679
2891.18922,0.05734
2889.26047,0.05800
2887.33172,0.05827
2885.40298,0.05811
2883.47423,0.05803
2881.54549,0.05823
2879.61674,0.05846
2877.68800,0.05864
2875.75925,0.05893
2873.83051,0.05934
2871.90176,0.05968
2869.97302,0.05988
2868.04427,0.06006
2866.11553,0.06035
2864.18678,0.06080
2862.25804,0.06130
2860.32929,0.06179
2858.40055,0.06225
2856.47180,0.06267
2854.54305,0.06305
2852.61431,0.06335
2850.68556,0.06363
2848.75682,0.06430
2846.82807,0.06566
2844.89933,0.06743
2842.97058,0.06906
2841.04184,0.07035
2839.11309,0.07144
2837.18435,0.07252
2835.25560,0.07374
2833.32686,0.07517
2831.39811,0.07657
2829.46937,0.07770
2827.54062,0.07881
2825.61188,0.08017
2823.68313,0.08157
2821.75438,0.08261
2819.82564,0.08332
2817.89689,0.08413
2815.96815,0.08513
2814.03940,0.08608
2812.11066,0.08688
2810.18191,0.08761
2808.25317,0.08828
2806.32442,0.08895
2804.39568,0.08971
2802.46693,0.09054
2800.53819,0.09141
2798.60944,0.09229
2796.68070,0.09288
2794.75195,0.09310
2792.82320,0.09333
2790.89446,0.09389
2788.96571,0.09455
2787.03697,0.09494
2785.10822,0.09511
2783.17948,0.09540
2781.25073,0.09576
2779.32199,0.09599
2777.39324,0.09632
2775.46450,0.09682
2773.53575,0.09707
2771.60701,0.09712
2769.67826,0.09732
2767.74952,0.09745
2765.82077,0.09748
2763.89203,0.09780
2761.96328,0.09843
2760.03453,0.09903
2758.10579,0.09939
2756.17704,0.09947
2754.24830,0.09937
2752.31955,0.09938
2750.39081,0.09968
2748.46206,0.10006
2746.53332,0.10022
2744.60457,0.10016
2742.67583,0.10011
2740.74708,0.10016
2738.81834,0.10039
2736.88959,0.10085
2734.96085,0.10130
2733.03210,0.10147
2731.10336,0.10151
2729.17461,0.10176
2727.24586,0.10219
2725.31712,0.10245
2723.38837,0.10264
2721.45963,0.10311
2719.53088,0.10382
2717.60214,0.10449
2715.67339,0.10493
2713.74465,0.10523
2711.81590,0.10552
2709.88716,0.10570
2707.95841,0.10595
2706.02967,0.10648
2704.10092,0.10705
2702.17218,0.10755
2700.24343,0.10801
2698.31468,0.10842
2696.38594,0.10891
2694.45719,0.10948
2692.52845,0.10998
2690.59970,0.11047
2688.67096,0.11099
2686.74221,0.11144
2684.81347,0.11182
2682.88472,0.11217
2680.95598,0.11256
2679.02723,0.11297
2677.09849,0.11330
2675.16974,0.11357
2673.24100,0.11380
2671.31225,0.11402
2669.38351,0.11432
2667.45476,0.11470
2665.52601,0.11516
2663.59727,0.11568
2661.66852,0.11612
2659.73978,0.11636
2657.81103,0.11655
2655.88229,0.11684
2653.95354,0.11722
2652.02480,0.11763
2650.09605,0.11803
2648.16731,0.11835
2646.23856,0.11864
2644.30982,0.11900
2642.38107,0.11946
2640.45233,0.11993
2638.52358,0.12039
2636.59484,0.12084
2634.66609,0.12132
2632.73734,0.12178
2630.80860,0.12210
2628.87985,0.12230
2626.95111,0.12251
2625.02236,0.12281
2623.09362,0.12320
2621.16487,0.12359
2619.23613,0.12397
2617.30738,0.12441
2615.37864,0.12492
2613.44989,0.12543
2611.52115,0.12587
2609.59240,0.12623
2607.66366,0.12659
2605.73491,0.12695
2603.80616,0.12722
2601.87742,0.12749
2599.94867,0.12782
2598.01993,0.12810
2596.09118,0.12822
2594.16244,0.12835
2592.23369,0.12866
2590.30495,0.12910
2588.37620,0.12958
2586.44746,0.13000
2584.51871,0.13036
2582.58997,0.13076
2580.66122,0.13112
2578.73248,0.13129
2576.80373,0.13131
2574.87499,0.13143
2572.94624,0.13166
2571.01749,0.13178
2569.08875,0.13185
2567.16000,0.13197
2565.23126,0.13204
2563.30251,0.13213
2561.37377,0.13232
2559.44502,0.13234
2557.51628,0.13221
2555.58753,0.13230
2553.65879,0.13259
2551.73004,0.13281
2549.80130,0.13292
2547.87255,0.13299
2545.94381,0.13309
2544.01506,0.13337
2542.08631,0.13371
2540.15757,0.13397
2538.22882,0.13416
2536.30008,0.13423
2534.37133,0.13420
2532.44259,0.13436
2530.51384,0.13480
2528.58510,0.13532
2526.65635,0.13574
2524.72761,0.13614
2522.79886,0.13657
2520.87012,0.13682
2518.94137,0.13696
2517.01263,0.13724
2515.08388,0.13758
2513.15514,0.13789
2511.22639,0.13823
2509.29764,0.13865
2507.36890,0.13930
2505.44015,0.14005
2503.51141,0.14065
2501.58266,0.14118
2499.65392,0.14180
2497.72517,0.14249
2495.79643,0.14310
2493.86768,0.14359
2491.93894,0.14404
2490.01019,0.14444
2488.08145,0.14488
2486.15270,0.14553
2484.22396,0.14624
2482.29521,0.14667
2480.36647,0.14688
2478.43772,0.14721
2476.50897,0.14776
2474.58023,0.14829
2472.65148,0.14866
2470.72274,0.14905
2468.79399,0.14964
2466.86525,0.15026
2464.93650,0.15069
2463.00776,0.15096
2461.07901,0.15132
2459.15027,0.15190
2457.22152,0.15250
2455.29278,0.15295
2453.36403,0.15334
2451.43529,0.15375
2449.50654,0.15429
2447.57779,0.15498
2445.64905,0.15565
2443.72030,0.15626
2441.79156,0.15684
2439.86281,0.15741
2437.93407,0.15800
2436.00532,0.15864
2434.07658,0.15927
2432.14783,0.15983
2430.21909,0.16044
2428.29034,0.16122
2426.36160,0.16193
2424.43285,0.16245
2422.50411,0.16304
2420.57536,0.16385
2418.64662,0.16472
2416.71787,0.16556
2414.78912,0.16646
2412.86038,0.16722
2410.93163,0.16769
2409.00289,0.16816
2407.07414,0.16880
2405.14540,0.16957
2403.21665,0.17040
2401.28791,0.17118
2399.35916,0.17188
2397.43042,0.17267
2395.50167,0.17344
2393.57293,0.17400
2391.64418,0.17453
2389.71544,0.17505
2387.78669,0.17546
2385.85795,0.17594
2383.92920,0.17661
2382.00045,0.17723
2380.07171,0.17774
2378.14296,0.17832
2376.21422,0.17898
2374.28547,0.17963
2372.35673,0.18017
2370.42798,0.18062
2368.49924,0.18111
2366.57049,0.18165
2364.64175,0.18210
2362.71300,0.18248
2360.78426,0.18289
2358.85551,0.18320
2356.92677,0.18331
2354.99802,0.18337
2353.06927,0.18352
2351.14053,0.18385
2349.21178,0.18436
2347.28304,0.18493
2345.35429,0.18549
2343.42555,0.18606
2341.49680,0.18652
2339.56806,0.18682
2337.63931,0.18704
2335.71057,0.18713
2333.78182,0.18721
2331.85308,0.18752
2329.92433,0.18790
2327.99559,0.18811
2326.06684,0.18813
2324.13810,0.18816
2322.20935,0.18835
2320.28060,0.18849
2318.35186,0.18844
2316.42311,0.18832
2314.49437,0.18820
2312.56562,0.18811
2310.63688,0.18796
2308.70813,0.18777
2306.77939,0.18765
2304.85064,0.18762
2302.92190,0.18761
2300.99315,0.18758
2299.06441,0.18750
2297.13566,0.18724
2295.20692,0.18682
2293.27817,0.18649
2291.34943,0.18639
2289.42068,0.18630
2287.49193,0.18611
2285.56319,0.18598
2283.63444,0.18602
2281.70570,0.18611
2279.77695,0.18606
2277.84821,0.18589
2275.91946,0.18562
2273.99072,0.18522
2272.06197,0.18476
2270.13323,0.18430
2268.20448,0.18382
2266.27574,0.18330
2264.34699,0.18273
2262.41825,0.18221
2260.48950,0.18192
2258.56075,0.18168
2256.63201,0.18114
2254.70326,0.18058
2252.77452,0.18040
2250.84577,0.18044
2248.91703,0.18028
2246.98828,0.17995
2245.05954,0.17959
2243.13079,0.17924
2241.20205,0.17903
2239.27330,0.17895
2237.34456,0.17879
2235.41581,0.17854
2233.48707,0.17832
2231.55832,0.17806
2229.62958,0.17767
2227.70083,0.17733
2225.77208,0.17719
2223.84334,0.17716
2221.91459,0.17708
2219.98585,0.17700
2218.05710,0.17694
2216.12836,0.17688
2214.19961,0.17676
2212.27087,0.17637
2210.34212,0.17576
2208.41338,0.17525
2206.48463,0.17497
2204.55589,0.17478
2202.62714,0.17444
2200.69840,0.17394
2198.76965,0.17344
2196.84090,0.17301
2194.91216,0.17253
2192.98341,0.17195
2191.05467,0.17133
2189.12592,0.17080
2187.19718,0.17036
2185.26843,0.16987
2183.33969,0.16932
2181.41094,0.16872
2179.48220,0.16803
2177.55345,0.16735
2175.62471,0.16674
2173.69596,0.16621
2171.76722,0.16574
2169.83847,0.16525
2167.90973,0.16474
2165.98098,0.16431
2164.05223,0.16392
2162.12349,0.16350
2160.19474,0.16318
2158.26600,0.16295
2156.33725,0.16271
2154.40851,0.16249
2152.47976,0.16238
2150.55102,0.16225
2148.62227,0.16191
2146.69353,0.16148
2144.76478,0.16108
2142.83604,0.16081
2140.90729,0.16085
2138.97855,0.16101
2137.04980,0.16103
2135.12106,0.16112
2133.19231,0.16132
2131.26356,0.16138
2129.33482,0.16131
2127.40607,0.16130
2125.47733,0.16142
2123.54858,0.16170
2121.61984,0.16199
2119.69109,0.16227
2117.76235,0.16257
2115.83360,0.16277
2113.90486,0.16286
2111.97611,0.16297
2110.04737,0.16306
2108.11862,0.16307
2106.18988,0.16318
2104.26113,0.16348
2102.33238,0.16373
2100.40364,0.16385
2098.47489,0.16393
2096.54615,0.16401
2094.61740,0.16419
2092.68866,0.16444
2090.75991,0.16458
2088.83117,0.16463
2086.90242,0.16468
2084.97368,0.16461
2083.04493,0.16443
2081.11619,0.16417
2079.18744,0.16373
2077.25870,0.16327
2075.32995,0.16295
2073.40121,0.16263
2071.47246,0.16227
2069.54371,0.16200
2067.61497,0.16170
2065.68622,0.16131
2063.75748,0.16100
2061.82873,0.16087
2059.89999,0.16087
2057.97124,0.16098
2056.04250,0.16109
2054.11375,0.16114
2052.18501,0.16111
2050.25626,0.16105
2048.32752,0.16108
2046.39877,0.16127
2044.47003,0.16160
2042.54128,0.16202
2040.61254,0.16249
2038.68379,0.16295
2036.75504,0.16328
2034.82630,0.16353
2032.89755,0.16399
2030.96881,0.16470
2029.04006,0.16541
2027.11132,0.16598
2025.18257,0.16647
2023.25383,0.16693
2021.32508,0.16743
2019.39634,0.16807
2017.46759,0.16879
2015.53885,0.16943
2013.61010,0.16991
2011.68136,0.17028
2009.75261,0.17061
2007.82386,0.17091
2005.89512,0.17120
2003.96637,0.17146
2002.03763,0.17161
2000.10888,0.17180
1998.18014,0.17222
1996.25139,0.17277
1994.32265,0.17323
1992.39390,0.17358
1990.46516,0.17383
1988.53641,0.17402
1986.60767,0.17423
1984.67892,0.17458
1982.75018,0.17504
1980.82143,0.17541
1978.89269,0.17571
1976.96394,0.17601
1975.03519,0.17618
1973.10645,0.17624
1971.17770,0.17641
1969.24896,0.17674
1967.32021,0.17712
1965.39147,0.17749
1963.46272,0.17784
1961.53398,0.17819
1959.60523,0.17862
1957.67649,0.17914
1955.74774,0.17956
1953.81900,0.17988
1951.89025,0.18030
1949.96151,0.18088
1948.03276,0.18144
1946.10402,0.18184
1944.17527,0.18212
1942.24652,0.18241
1940.31778,0.18280
1938.38903,0.18326
1936.46029,0.18365
1934.53154,0.18395
1932.60280,0.18413
1930.67405,0.18418
1928.74531,0.18419
1926.81656,0.18420
1924.88782,0.18420
1922.95907,0.18419
1921.03033,0.18407
1919.10158,0.18386
1917.17284,0.18376
1915.24409,0.18373
1913.31534,0.18361
1911.38660,0.18342
1909.45785,0.18321
1907.52911,0.18296
1905.60036,0.18263
1903.67162,0.18224
1901.74287,0.18196
1899.81413,0.18176
1897.88538,0.18143
1895.95664,0.18103
1894.02789,0.18082
1892.09915,0.18070
1890.17040,0.18044
1888.24166,0.18006
1886.31291,0.17968
1884.38417,0.17935
1882.45542,0.17918
1880.52667,0.17919
1878.59793,0.17918
1876.66918,0.17902
1874.74044,0.17874
1872.81169,0.17849
1870.88295,0.17834
1868.95420,0.17812
1867.02546,0.17769
1865.09671,0.17717
1863.16797,0.17667
1861.23922,0.17619
1859.31048,0.17568
1857.38173,0.17522
1855.45299,0.17474
1853.52424,0.17412
1851.59549,0.17357
1849.66675,0.17320
1847.73800,0.17270
1845.80926,0.17178
1843.88051,0.17063
1841.95177,0.16967
1840.02302,0.16895
1838.09428,0.16824
1836.16553,0.16740
1834.23679,0.16652
1832.30804,0.16565
1830.37930,0.16465
1828.45055,0.16356
1826.52181,0.16246
1824.59306,0.16119
1822.66432,0.15979
1820.73557,0.15835
1818.80682,0.15686
1816.87808,0.15539
1814.94933,0.15388
1813.02059,0.15228
1811.09184,0.15060
1809.16310,0.14887
1807.23435,0.14721
1805.30561,0.14558
1803.37686,0.14375
1801.44812,0.14162
1799.51937,0.13928
1797.59063,0.13692
1795.66188,0.13476
1793.73314,0.13261
1791.80439,0.13007
1789.87565,0.12732
1787.94690,0.12463
1786.01815,0.12188
1784.08941,0.11906
1782.16066,0.11630
1780.23192,0.11349
1778.30317,0.11051
1776.37443,0.10745
1774.44568,0.10425
1772.51694,0.10059
1770.58819,0.09679
1768.65945,0.09317
1766.73070,0.08941
1764.80196,0.08555
1762.87321,0.08146
1760.94447,0.07713
1759.01572,0.07324
1757.08697,0.06982
1755.15823,0.06672
1753.22948,0.06389
1751.30074,0.06103
1749.37199,0.05844
1747.44325,0.05665
1745.51450,0.05542
1743.58576,0.05443
1741.65701,0.05365
1739.72827,0.05307
1737.79952,0.05256
1735.87078,0.05208
1733.94203,0.05181
1732.01329,0.05186
1730.08454,0.05185
1728.15580,0.05169
1726.22705,0.05170
1724.29830,0.05195
1722.36956,0.05221
1720.44081,0.05238
1718.51207,0.05248
1716.58332,0.05248
1714.65458,0.05245
1712.72583,0.05242
1710.79709,0.05238
1708.86834,0.05233
1706.93960,0.05216
1705.01085,0.05173
1703.08211,0.05107
1701.15336,0.05013
1699.22462,0.04922
1697.29587,0.04870
1695.36713,0.04788
1693.43838,0.04659
1691.50963,0.04536
1689.58089,0.04433
1687.65214,0.04360
1685.72340,0.04296
1683.79465,0.04191
1681.86591,0.04081
1679.93716,0.04007
1678.00842,0.03952
1676.07967,0.03906
1674.15093,0.03873
1672.22218,0.03858
1670.29344,0.03846
1668.36469,0.03835
1666.43595,0.03847
1664.50720,0.03888
1662.57845,0.03935
1660.64971,0.03973
1658.72096,0.04019
1656.79222,0.04085
1654.86347,0.04165
1652.93473,0.04245
1651.00598,0.04303
1649.07724,0.04347
1647.14849,0.04378
1645.21975,0.04393
1643.29100,0.04425
1641.36226,0.04483
1639.43351,0.04538
1637.50477,0.04567
1635.57602,0.04566
1633.64728,0.04558
1631.71853,0.04563
1629.78978,0.04573
1627.86104,0.04570
1625.93229,0.04549
1624.00355,0.04527
1622.07480,0.04513
1620.14606,0.04505
1618.21731,0.04504
1616.28857,0.04509
1614.35982,0.04499
1612.43108,0.04473
1610.50233,0.04455
1608.57359,0.04456
1606.64484,0.04468
1604.71610,0.04479
1602.78735,0.04487
1600.85861,0.04497
1598.92986,0.04520
1597.00111,0.04553
1595.07237,0.04582
1593.14362,0.04608
1591.21488,0.04653
1589.28613,0.04710
1587.35739,0.04746
1585.42864,0.04774
1583.49990,0.04820
1581.57115,0.04872
1579.64241,0.04913
1577.71366,0.04954
1575.78492,0.05013
1573.85617,0.05078
1571.92743,0.05127
1569.99868,0.05165
1568.06993,0.05206
1566.14119,0.05238
1564.21244,0.05249
1562.28370,0.05255
1560.35495,0.05256
1558.42621,0.05239
1556.49746,0.05217
1554.56872,0.05194
1552.63997,0.05166
1550.71123,0.05151
1548.78248,0.05159
1546.85374,0.05179
1544.92499,0.05186
1542.99625,0.05176
1541.06750,0.05168
1539.13876,0.05173
1537.21001,0.05176
1535.28126,0.05160
1533.35252,0.05121
1531.42377,0.05089
1529.49503,0.05069
1527.56628,0.05033
1525.63754,0.04970
1523.70879,0.04890
1521.78005,0.04771
1519.85130,0.04621
1517.92256,0.04490
1515.99381,0.04398
1514.06507,0.04361
1512.13632,0.04370
1510.20758,0.04405
1508.27883,0.04466
1506.35008,0.04551
1504.42134,0.04648
1502.49259,0.04750
1500.56385,0.04853
1498.63510,0.04950
1496.70636,0.05039
1494.77761,0.05111
1492.84887,0.05161
1490.92012,0.05181
1488.99138,0.05159
1487.06263,0.05118
1485.13389,0.05081
1483.20514,0.05042
1481.27640,0.04991
1479.34765,0.04927
1477.41891,0.04849
1475.49016,0.04756
1473.56141,0.04632
1471.63267,0.04490
1469.70392,0.04394
1467.77518,0.04355
1465.84643,0.04342
1463.91769,0.04344
1461.98894,0.04362
1460.06020,0.04382
1458.13145,0.04386
1456.20271,0.04365
1454.27396,0.04347
1452.34522,0.04357
1450.41647,0.04381
1448.48773,0.04396
1446.55898,0.04402
1444.63024,0.04408
1442.70149,0.04406
1440.77274,0.04392
1438.84400,0.04369
1436.91525,0.04326
1434.98651,0.04276
1433.05776,0.04256
1431.12902,0.04256
1429.20027,0.04244
1427.27153,0.04227
1425.34278,0.04238
1423.41404,0.04276
1421.48529,0.04323
1419.55655,0.04359
1417.62780,0.04379
1415.69906,0.04416
1413.77031,0.04465
1411.84156,0.04486
1409.91282,0.04483
1407.98407,0.04486
1406.05533,0.04499
1404.12658,0.04506
1402.19784,0.04491
1400.26909,0.04450
1398.34035,0.04399
1396.41160,0.04358
1394.48286,0.04329
1392.55411,0.04303
1390.62537,0.04267
1388.69662,0.04220
1386.76788,0.04175
1384.83913,0.04143
1382.91039,0.04120
1380.98164,0.04097
1379.05289,0.04068
1377.12415,0.04045
1375.19540,0.04041
1373.26666,0.04046
1371.33791,0.04055
1369.40917,0.04072
1367.48042,0.04103
1365.55168,0.04148
1363.62293,0.04192
1361.69419,0.04215
1359.76544,0.04222
1357.83670,0.04235
1355.90795,0.04249
1353.97921,0.04254
1352.05046,0.04249
1350.12172,0.04240
1348.19297,0.04229
1346.26422,0.04216
1344.33548,0.04207
1342.40673,0.04206
1340.47799,0.04203
1338.54924,0.04195
1336.62050,0.04186
1334.69175,0.04180
1332.76301,0.04181
1330.83426,0.04183
1328.90552,0.04169
1326.97677,0.04145
1325.04803,0.04136
1323.11928,0.04141
1321.19054,0.04143
1319.26179,0.04136
1317.33304,0.04131
1315.40430,0.04142
1313.47555,0.04175
1311.54681,0.04205
1309.61806,0.04213
1307.68932,0.04213
1305.76057,0.04209
1303.83183,0.04193
1301.90308,0.04181
1299.97434,0.04176
1298.04559,0.04159
1296.11685,0.04129
1294.18810,0.04105
1292.25936,0.04092
1290.33061,0.04058
1288.40187,0.03988
1286.47312,0.03917
1284.54437,0.03873
1282.61563,0.03844
1280.68688,0.03827
1278.75814,0.03821
1276.82939,0.03808
1274.90065,0.03787
1272.97190,0.03791
1271.04316,0.03830
1269.11441,0.03874
1267.18567,0.03898
1265.25692,0.03911
1263.32818,0.03935
1261.39943,0.03963
1259.47069,0.03967
1257.54194,0.03973
1255.61320,0.04002
1253.68445,0.04031
1251.75570,0.04052
1249.82696,0.04073
1247.89821,0.04091
1245.96947,0.04098
1244.04072,0.04097
1242.11198,0.04095
1240.18323,0.04089
1238.25449,0.04083
1236.32574,0.04090
1234.39700,0.04111
1232.46825,0.04133
1230.53951,0.04161
1228.61076,0.04197
1226.68202,0.04210
1224.75327,0.04193
1222.82452,0.04180
1220.89578,0.04178
1218.96703,0.04183
1217.03829,0.04204
1215.10954,0.04239
1213.18080,0.04264
1211.25205,0.04256
1209.32331,0.04218
1207.39456,0.04190
1205.46582,0.04196
1203.53707,0.04206
1201.60833,0.04196
1199.67958,0.04199
1197.75084,0.04224
1195.82209,0.04218
1193.89335,0.04166
1191.96460,0.04118
1190.03585,0.04080
1188.10711,0.04026
1186.17836,0.03954
1184.24962,0.03881
1182.32087,0.03809
1180.39213,0.03730
1178.46338,0.03656
1176.53464,0.03604
1174.60589,0.03561
1172.67715,0.03509
1170.74840,0.03457
1168.81966,0.03435
1166.89091,0.03468
1164.96217,0.03551
1163.03342,0.03643
1161.10467,0.03713
1159.17593,0.03757
1157.24718,0.03769
1155.31844,0.03760
1153.38969,0.03758
1151.46095,0.03760
1149.53220,0.03736
1147.60346,0.03680
1145.67471,0.03629
1143.74597,0.03624
1141.81722,0.03627
1139.88848,0.03583
1137.95973,0.03526
1136.03099,0.03496
1134.10224,0.03483
1132.17350,0.03474
1130.24475,0.03459
1128.31600,0.03453
1126.38726,0.03472
1124.45851,0.03492
1122.52977,0.03505
1120.60102,0.03524
1118.67228,0.03528
1116.74353,0.03517
1114.81479,0.03540
1112.88604,0.03616
1110.95730,0.03676
1109.02855,0.03677
1107.09981,0.03672
1105.17106,0.03693
1103.24232,0.03721
1101.31357,0.03741
1099.38483,0.03756
1097.45608,0.03769
1095.52733,0.03769
1093.59859,0.03742
1091.66984,0.03720
1089.74110,0.03719
1087.81235,0.03709
1085.88361,0.03710
1083.95486,0.03755
1082.02612,0.03821
1080.09737,0.03893
1078.16863,0.03955
1076.23988,0.03991
1074.31114,0.04022
1072.38239,0.04073
1070.45365,0.04156
1068.52490,0.04297
1066.59615,0.04469
1064.66741,0.04613
1062.73866,0.04738
1060.80992,0.04877
1058.88117,0.05018
1056.95243,0.05131
1055.02368,0.05186
1053.09494,0.05171
1051.16619,0.05139
1049.23745,0.05131
1047.30870,0.05120
1045.37996,0.05088
1043.45121,0.05078
1041.52247,0.05122
1039.59372,0.05219
1037.66498,0.05356
1035.73623,0.05491
1033.80748,0.05604
1031.87874,0.05700
1029.94999,0.05748
1028.02125,0.05757
1026.09250,0.05783
1024.16376,0.05814
1022.23501,0.05827
1020.30627,0.05855
1018.37752,0.05893
1016.44878,0.05922
1014.52003,0.05971
1012.59129,0.06024
1010.66254,0.06040
1008.73380,0.06025
1006.80505,0.06017
1004.87631,0.06031
1002.94756,0.06058
1001.01881,0.06085
999.09007,0.06107
997.16132,0.06132
995.23258,0.06171
993.30383,0.06227
991.37509,0.06294
989.44634,0.06359
987.51760,0.06438
985.58885,0.06545
983.66011,0.06657
981.73136,0.06743
979.80262,0.06814
977.87387,0.06896
975.94513,0.06958
974.01638,0.06983
972.08763,0.07007
970.15889,0.07051
968.23014,0.07098
966.30140,0.07134
964.37265,0.07163
962.44391,0.07196
960.51516,0.07244
958.58642,0.07308
956.65767,0.07373
954.72893,0.07419
952.80018,0.07445
950.87144,0.07477
948.94269,0.07518
947.01395,0.07554
945.08520,0.07595
943.15646,0.07646
941.22771,0.07688
939.29896,0.07704
937.37022,0.07707
935.44147,0.07741
933.51273,0.07812
931.58398,0.07873
929.65524,0.07892
927.72649,0.07883
925.79775,0.07866
923.86900,0.07839
921.94026,0.07804
920.01151,0.07760
918.08277,0.07700
916.15402,0.07630
914.22528,0.07567
912.29653,0.07503
910.36779,0.07406
908.43904,0.07254
906.51029,0.07090
904.58155,0.06975
902.65280,0.06899
900.72406,0.06831
898.79531,0.06794
896.86657,0.06806
894.93782,0.06845
893.00908,0.06902
891.08033,0.06974
889.15159,0.07034
887.22284,0.07076
885.29410,0.07114
883.36535,0.07152
881.43661,0.07191
879.50786,0.07219
877.57911,0.07220
875.65037,0.07203
873.72162,0.07191
871.79288,0.07177
869.86413,0.07171
867.93539,0.07196
866.00664,0.07217
864.07790,0.07208
862.14915,0.07208
860.22041,0.07241
858.29166,0.07287
856.36292,0.07315
854.43417,0.07329
852.50543,0.07355
850.57668,0.07387
848.64794,0.07426
846.71919,0.07465
844.79044,0.07444
842.86170,0.07374
840.93295,0.07329
839.00421,0.07304
837.07546,0.07248
835.14672,0.07173
833.21797,0.07115
831.28923,0.07055
829.36048,0.06975
827.43174,0.06909
825.50299,0.06874
823.57425,0.06833
821.64550,0.06750
819.71676,0.06620
817.78801,0.06488
815.85926,0.06412
813.93052,0.06381
812.00177,0.06349
810.07303,0.06318
808.14428,0.06310
806.21554,0.06321
804.28679,0.06337
802.35805,0.06359
800.42930,0.06369
798.50056,0.06344
796.57181,0.06310
794.64307,0.06287
792.71432,0.06258
790.78558,0.06209
788.85683,0.06152
786.92809,0.06115
784.99934,0.06099
783.07059,0.06068
781.14185,0.06005
779.21310,0.05937
777.28436,0.05895
775.35561,0.05889
773.42687,0.05914
771.49812,0.05957
769.56938,0.05991
767.64063,0.05989
765.71189,0.05958
763.78314,0.05925
761.85440,0.05890
759.92565,0.05844
757.99691,0.05801
756.06816,0.05769
754.13942,0.05748
752.21067,0.05738
750.28192,0.05705
748.35318,0.05629
746.42443,0.05549
744.49569,0.05497
742.56694,0.05465
740.63820,0.05444
738.70945,0.05432
736.78071,0.05408
734.85196,0.05369
732.92322,0.05326
730.99447,0.05284
729.06573,0.05250
727.13698,0.05223
725.20824,0.05180
723.27949,0.05119
721.35074,0.05063
719.42200,0.05017
717.49325,0.04983
715.56451,0.04981
713.63576,0.05002
711.70702,0.05028
709.77827,0.05062
707.84953,0.05073
705.92078,0.05020
703.99204,0.04947
702.06329,0.04924
700.13455,0.04935
698.20580,0.04922
696.27706,0.04878
694.34831,0.04840
692.41957,0.04819
690.49082,0.04819
688.56207,0.04812
686.63333,0.04755
684.70458,0.04693
682.77584,0.04668
680.84709,0.04667
678.91835,0.04657
676.98960,0.04628
675.06086,0.04608
673.13211,0.04598
671.20337,0.04578
669.27462,0.04560
667.34588,0.04560
665.41713,0.04570
663.48839,0.04553
661.55964,0.04519
659.63090,0.04549
657.70215,0.04645
655.77340,0.04703
653.84466,0.04670
651.91591,0.04577
649.98717,0.04465
648.05842,0.04419
646.12968,0.04481
644.20093,0.04570
642.27219,0.04634
640.34344,0.04674
638.41470,0.04643
636.48595,0.04519
634.55721,0.04396
632.62846,0.04352
630.69972,0.04368
628.77097,0.04368
626.84222,0.04315
624.91348,0.04338
622.98473,0.04473
621.05599,0.04559
619.12724,0.04557
617.19850,0.04534
615.26975,0.04521
613.34101,0.04553
611.41226,0.04594
609.48352,0.04600
607.55477,0.04628
605.62603,0.04703
603.69728,0.04754
601.76854,0.04740
599.83979,0.04714
