7497.03301,0.72208
7495.10426,0.71978
7493.17552,0.72287
7491.24677,0.72613
7489.31803,0.72247
7487.38928,0.71413
7485.46054,0.70874
7483.53179,0.70852
7481.60305,0.71340
7479.67430,0.72082
7477.74556,0.72367
7475.81681,0.71987
7473.88807,0.71601
7471.95932,0.71551
7470.03057,0.71552
7468.10183,0.71559
7466.17308,0.71549
7464.24434,0.71263
7462.31559,0.70805
7460.38685,0.70622
7458.45810,0.70663
7456.52936,0.70646
7454.60061,0.70917
7452.67187,0.71259
7450.74312,0.70770
7448.81438,0.69856
7446.88563,0.69527
7444.95689,0.69881
7443.02814,0.70467
7441.09940,0.70661
7439.17065,0.70327
7437.24190,0.70131
7435.31316,0.70213
7433.38441,0.70195
7431.45567,0.70242
7429.52692,0.70128
7427.59818,0.69550
7425.66943,0.69223
7423.74069,0.69420
7421.81194,0.69686
7419.88320,0.69988
7417.95445,0.70293
7416.02571,0.70251
7414.09696,0.69779
7412.16822,0.69287
7410.23947,0.69141
7408.31073,0.69114
7406.38198,0.68831
7404.45323,0.68329
7402.52449,0.67925
7400.59574,0.67910
7398.66700,0.68143
7396.73825,0.68220
7394.80951,0.68310
7392.88076,0.68766
7390.95202,0.69233
7389.02327,0.69282
7387.09453,0.69121
7385.16578,0.69028
7383.23704,0.68979
7381.30829,0.69004
7379.37955,0.69080
7377.45080,0.68952
7375.52205,0.68603
7373.59331,0.68297
7371.66456,0.68252
7369.73582,0.68430
7367.80707,0.68380
7365.87833,0.68006
7363.94958,0.67845
7362.02084,0.68100
7360.09209,0.68505
7358.16335,0.68886
7356.23460,0.69170
7354.30586,0.69093
7352.37711,0.68595
7350.44837,0.68187
7348.51962,0.68070
7346.59088,0.67941
7344.66213,0.67738
7342.73338,0.67464
7340.80464,0.67216
7338.87589,0.67383
7336.94715,0.67577
7335.01840,0.67105
7333.08966,0.66537
7331.16091,0.66530
7329.23217,0.66768
7327.30342,0.66975
7325.37468,0.67123
7323.44593,0.67116
7321.51719,0.66939
7319.58844,0.66887
7317.65970,0.67145
7315.73095,0.67210
7313.80221,0.66921
7311.87346,0.66878
7309.94471,0.67146
7308.01597,0.67161
7306.08722,0.66794
7304.15848,0.66448
7302.22973,0.66327
7300.30099,0.66225
7298.37224,0.66067
7296.44350,0.66129
7294.51475,0.66405
7292.58601,0.66598
7290.65726,0.66645
7288.72852,0.66522
7286.79977,0.66333
7284.87103,0.66211
7282.94228,0.66031
7281.01353,0.65874
7279.08479,0.65807
7277.15604,0.65700
7275.22730,0.65744
7273.29855,0.66212
7271.36981,0.66909
7269.44106,0.67247
7267.51232,0.66905
7265.58357,0.66230
7263.65483,0.65878
7261.72608,0.66153
7259.79734,0.66515
7257.86859,0.66238
7255.93985,0.65527
7254.01110,0.64971
7252.08236,0.64672
7250.15361,0.64665
7248.22486,0.65072
7246.29612,0.65615
7244.36737,0.65901
7242.43863,0.66039
7240.50988,0.66154
7238.58114,0.66033
7236.65239,0.65870
7234.72365,0.65942
7232.79490,0.66055
7230.86616,0.66066
7228.93741,0.66023
7227.00867,0.66017
7225.07992,0.65974
7223.15118,0.65778
7221.22243,0.65663
7219.29369,0.65779
7217.36494,0.65877
7215.43619,0.65683
7213.50745,0.65375
7211.57870,0.65382
7209.64996,0.65596
7207.72121,0.65475
7205.79247,0.64839
7203.86372,0.64209
7201.93498,0.64257
7200.00623,0.64941
7198.07749,0.65545
7196.14874,0.65465
7194.22000,0.64914
7192.29125,0.64722
7190.36251,0.65187
7188.43376,0.65493
7186.50501,0.65034
7184.57627,0.64498
7182.64752,0.64546
7180.71878,0.64828
7178.79003,0.64873
7176.86129,0.64725
7174.93254,0.64497
7173.00380,0.64171
7171.07505,0.63897
7169.14631,0.63918
7167.21756,0.64208
7165.28882,0.64353
7163.36007,0.64139
7161.43133,0.63840
7159.50258,0.63595
7157.57384,0.63466
7155.64509,0.63562
7153.71634,0.63657
7151.78760,0.63586
7149.85885,0.63422
7147.93011,0.63135
7146.00136,0.62873
7144.07262,0.63034
7142.14387,0.63429
7140.21513,0.63356
7138.28638,0.62917
7136.35764,0.62688
7134.42889,0.62583
7132.50015,0.62479
7130.57140,0.62415
7128.64266,0.62235
7126.71391,0.62046
7124.78516,0.62029
7122.85642,0.62088
7120.92767,0.62201
7118.99893,0.62214
7117.07018,0.61783
7115.14144,0.61185
7113.21269,0.60957
7111.28395,0.61140
7109.35520,0.61502
7107.42646,0.61642
7105.49771,0.61354
7103.56897,0.60894
7101.64022,0.60514
7099.71148,0.60286
7097.78273,0.60309
7095.85399,0.60578
7093.92524,0.60708
7091.99649,0.60452
7090.06775,0.60233
7088.13900,0.60282
7086.21026,0.60203
7084.28151,0.59917
7082.35277,0.59733
7080.42402,0.59504
7078.49528,0.59025
7076.56653,0.58788
7074.63779,0.59041
7072.70904,0.59010
7070.78030,0.58406
7068.85155,0.58028
7066.92281,0.58076
7064.99406,0.58056
7063.06532,0.57808
7061.13657,0.57491
7059.20782,0.57311
7057.27908,0.57279
7055.35033,0.57295
7053.42159,0.57271
7051.49284,0.57068
7049.56410,0.56776
7047.63535,0.56801
7045.70661,0.57276
7043.77786,0.57511
7041.84912,0.56977
7039.92037,0.56329
7037.99163,0.56047
7036.06288,0.55709
7034.13414,0.55264
7032.20539,0.55088
7030.27664,0.55105
7028.34790,0.54900
7026.41915,0.54407
7024.49041,0.54049
7022.56166,0.53997
7020.63292,0.54174
7018.70417,0.54528
7016.77543,0.54548
7014.84668,0.54048
7012.91794,0.53674
7010.98919,0.53572
7009.06045,0.53442
7007.13170,0.53489
7005.20296,0.53880
7003.27421,0.54217
7001.34547,0.54076
6999.41672,0.53569
6997.48797,0.53138
6995.55923,0.52829
6993.63048,0.52557
6991.70174,0.52577
6989.77299,0.52731
6987.84425,0.52642
6985.91550,0.52484
6983.98676,0.52402
6982.05801,0.52280
6980.12927,0.52116
6978.20052,0.51964
6976.27178,0.51798
6974.34303,0.51555
6972.41429,0.51314
6970.48554,0.51273
6968.55680,0.51448
6966.62805,0.51668
6964.69930,0.51786
6962.77056,0.51773
6960.84181,0.51759
6958.91307,0.51799
6956.98432,0.51647
6955.05558,0.51272
6953.12683,0.51010
6951.19809,0.50893
6949.26934,0.50778
6947.34060,0.50849
6945.41185,0.50963
6943.48311,0.50685
6941.55436,0.50372
6939.62562,0.50483
6937.69687,0.50715
6935.76812,0.50865
6933.83938,0.51172
6931.91063,0.51581
6929.98189,0.51604
6928.05314,0.51182
6926.12440,0.50852
6924.19565,0.50764
6922.26691,0.50701
6920.33816,0.50634
6918.40942,0.50602
6916.48067,0.50616
6914.55193,0.50611
6912.62318,0.50541
6910.69444,0.50505
6908.76569,0.50579
6906.83695,0.50735
6904.90820,0.50909
6902.97945,0.50987
6901.05071,0.50771
6899.12196,0.50360
6897.19322,0.50189
6895.26447,0.50283
6893.33573,0.50370
6891.40698,0.50451
6889.47824,0.50533
6887.54949,0.50516
6885.62075,0.50372
6883.69200,0.50100
6881.76326,0.49848
6879.83451,0.49943
6877.90577,0.50346
6875.97702,0.50481
6874.04828,0.50178
6872.11953,0.49926
6870.19078,0.49918
6868.26204,0.49984
6866.33329,0.50074
6864.40455,0.50150
6862.47580,0.50172
6860.54706,0.50219
6858.61831,0.50282
6856.68957,0.50122
6854.76082,0.49748
6852.83208,0.49637
6850.90333,0.49897
6848.97459,0.50126
6847.04584,0.50116
6845.11710,0.50018
6843.18835,0.50108
6841.25960,0.50282
6839.33086,0.50203
6837.40211,0.49951
6835.47337,0.49711
6833.54462,0.49499
6831.61588,0.49348
6829.68713,0.49344
6827.75839,0.49530
6825.82964,0.49703
6823.90090,0.49591
6821.97215,0.49404
6820.04341,0.49477
6818.11466,0.49556
6816.18592,0.49473
6814.25717,0.49444
6812.32843,0.49470
6810.39968,0.49513
6808.47093,0.49525
6806.54219,0.49501
6804.61344,0.49570
6802.68470,0.49562
6800.75595,0.49171
6798.82721,0.48571
6796.89846,0.48436
6794.96972,0.48845
6793.04097,0.49050
6791.11223,0.48774
6789.18348,0.48487
6787.25474,0.48539
6785.32599,0.48650
6783.39725,0.48600
6781.46850,0.48714
6779.53975,0.48954
6777.61101,0.49011
6775.68226,0.49051
6773.75352,0.49091
6771.82477,0.48836
6769.89603,0.48434
6767.96728,0.48228
6766.03854,0.48272
6764.10979,0.48384
6762.18105,0.48305
6760.25230,0.48117
6758.32356,0.48136
6756.39481,0.48279
6754.46607,0.48224
6752.53732,0.48055
6750.60858,0.48036
6748.67983,0.48089
6746.75108,0.48088
6744.82234,0.48054
6742.89359,0.48007
6740.96485,0.47985
6739.03610,0.47996
6737.10736,0.48002
6735.17861,0.47984
6733.24987,0.47961
6731.32112,0.47976
6729.39238,0.48103
6727.46363,0.48250
6725.53489,0.48154
6723.60614,0.47869
6721.67740,0.47746
6719.74865,0.47811
6717.81991,0.47744
6715.89116,0.47596
6713.96241,0.47619
6712.03367,0.47695
6710.10492,0.47689
6708.17618,0.47693
6706.24743,0.47736
6704.31869,0.47726
6702.38994,0.47724
6700.46120,0.47834
6698.53245,0.47986
6696.60371,0.48241
6694.67496,0.48610
6692.74622,0.48911
6690.81747,0.49067
6688.88873,0.48918
6686.95998,0.48455
6685.03123,0.48144
6683.10249,0.48267
6681.17374,0.48526
6679.24500,0.48563
6677.31625,0.48438
6675.38751,0.48450
6673.45876,0.48650
6671.53002,0.48779
6669.60127,0.48718
6667.67253,0.48636
6665.74378,0.48633
6663.81504,0.48566
6661.88629,0.48466
6659.95755,0.48565
6658.02880,0.48730
6656.10006,0.48758
6654.17131,0.48720
6652.24256,0.48655
6650.31382,0.48652
6648.38507,0.48793
6646.45633,0.49014
6644.52758,0.49126
6642.59884,0.48962
6640.67009,0.48768
6638.74135,0.48898
6636.81260,0.49203
6634.88386,0.49307
6632.95511,0.49204
6631.02637,0.49178
6629.09762,0.49308
6627.16888,0.49495
6625.24013,0.49628
6623.31139,0.49538
6621.38264,0.49308
6619.45389,0.49324
6617.52515,0.49573
6615.59640,0.49663
6613.66766,0.49513
6611.73891,0.49329
6609.81017,0.49293
6607.88142,0.49424
6605.95268,0.49607
6604.02393,0.49659
6602.09519,0.49559
6600.16644,0.49536
6598.23770,0.49608
6596.30895,0.49695
6594.38021,0.49876
6592.45146,0.50097
6590.52271,0.50261
6588.59397,0.50339
6586.66522,0.50262
6584.73648,0.50129
6582.80773,0.50141
6580.87899,0.50248
6578.95024,0.50375
6577.02150,0.50532
6575.09275,0.50505
6573.16401,0.50264
6571.23526,0.50134
6569.30652,0.50198
6567.37777,0.50351
6565.44903,0.50595
6563.52028,0.50848
6561.59154,0.50880
6559.66279,0.50732
6557.73404,0.50697
6555.80530,0.50755
6553.87655,0.50756
6551.94781,0.50815
6550.01906,0.50912
6548.09032,0.50832
6546.16157,0.50656
6544.23283,0.50585
6542.30408,0.50636
6540.37534,0.50707
6538.44659,0.50659
6536.51785,0.50616
6534.58910,0.50813
6532.66036,0.51067
6530.73161,0.51109
6528.80287,0.51070
6526.87412,0.51062
6524.94537,0.50942
6523.01663,0.50740
6521.08788,0.50673
6519.15914,0.50781
6517.23039,0.50846
6515.30165,0.50862
6513.37290,0.51050
6511.44416,0.51204
6509.51541,0.51063
6507.58667,0.50877
6505.65792,0.50926
6503.72918,0.51141
6501.80043,0.51318
6499.87169,0.51377
6497.94294,0.51386
6496.01419,0.51487
6494.08545,0.51689
6492.15670,0.51824
6490.22796,0.51739
6488.29921,0.51526
6486.37047,0.51470
6484.44172,0.51524
6482.51298,0.51533
6480.58423,0.51571
6478.65549,0.51613
6476.72674,0.51632
6474.79800,0.51685
6472.86925,0.51766
6470.94051,0.51786
6469.01176,0.51703
6467.08302,0.51656
6465.15427,0.51693
6463.22552,0.51655
6461.29678,0.51562
6459.36803,0.51648
6457.43929,0.51850
6455.51054,0.51935
6453.58180,0.51935
6451.65305,0.52009
6449.72431,0.52226
6447.79556,0.52333
6445.86682,0.52195
6443.93807,0.52114
6442.00933,0.52057
6440.08058,0.51879
6438.15184,0.51815
6436.22309,0.51907
6434.29434,0.52009
6432.36560,0.52012
6430.43685,0.51917
6428.50811,0.52008
6426.57936,0.52283
6424.65062,0.52331
6422.72187,0.52198
6420.79313,0.52167
6418.86438,0.52193
6416.93564,0.52246
6415.00689,0.52351
6413.07815,0.52434
6411.14940,0.52449
6409.22066,0.52345
6407.29191,0.52242
6405.36317,0.52375
6403.43442,0.52586
6401.50567,0.52671
6399.57693,0.52724
6397.64818,0.52713
6395.71944,0.52581
6393.79069,0.52539
6391.86195,0.52627
6389.93320,0.52595
6388.00446,0.52443
6386.07571,0.52377
6384.14697,0.52450
6382.21822,0.52633
6380.28948,0.52763
6378.36073,0.52691
6376.43199,0.52551
6374.50324,0.52466
6372.57450,0.52448
6370.64575,0.52548
6368.71700,0.52644
6366.78826,0.52692
6364.85951,0.52848
6362.93077,0.52962
6361.00202,0.52915
6359.07328,0.52819
6357.14453,0.52627
6355.21579,0.52515
6353.28704,0.52697
6351.35830,0.52872
6349.42955,0.52826
6347.50081,0.52791
6345.57206,0.52863
6343.64332,0.52926
6341.71457,0.52954
6339.78582,0.52966
6337.85708,0.53026
6335.92833,0.53145
6333.99959,0.53200
6332.07084,0.53162
6330.14210,0.53092
6328.21335,0.53031
6326.28461,0.53040
6324.35586,0.53158
6322.42712,0.53278
6320.49837,0.53245
6318.56963,0.53103
6316.64088,0.53004
6314.71214,0.53086
6312.78339,0.53325
6310.85465,0.53413
6308.92590,0.53244
6306.99715,0.53106
6305.06841,0.53130
6303.13966,0.53267
6301.21092,0.53423
6299.28217,0.53412
6297.35343,0.53309
6295.42468,0.53271
6293.49594,0.53290
6291.56719,0.53441
6289.63845,0.53652
6287.70970,0.53680
6285.78096,0.53521
6283.85221,0.53426
6281.92347,0.53604
6279.99472,0.53903
6278.06598,0.54008
6276.13723,0.53984
6274.20848,0.54066
6272.27974,0.54126
6270.35099,0.54079
6268.42225,0.54173
6266.49350,0.54375
6264.56476,0.54392
6262.63601,0.54303
6260.70727,0.54321
6258.77852,0.54383
6256.84978,0.54472
6254.92103,0.54615
6252.99229,0.54642
6251.06354,0.54486
6249.13480,0.54358
6247.20605,0.54461
6245.27730,0.54701
6243.34856,0.54857
6241.41981,0.54947
6239.49107,0.55030
6237.56232,0.55015
6235.63358,0.54933
6233.70483,0.55004
6231.77609,0.55178
6229.84734,0.55234
6227.91860,0.55246
6225.98985,0.55259
6224.06111,0.55138
6222.13236,0.54998
6220.20362,0.55018
6218.27487,0.55191
6216.34613,0.55492
6214.41738,0.55778
6212.48863,0.55831
6210.55989,0.55806
6208.63114,0.55900
6206.70240,0.55902
6204.77365,0.55798
6202.84491,0.55877
6200.91616,0.56002
6198.98742,0.55913
6197.05867,0.55796
6195.12993,0.55860
6193.20118,0.55991
6191.27244,0.56041
6189.34369,0.56104
6187.41495,0.56223
6185.48620,0.56232
6183.55746,0.56218
6181.62871,0.56365
6179.69996,0.56516
6177.77122,0.56522
6175.84247,0.56465
6173.91373,0.56446
6171.98498,0.56539
6170.05624,0.56802
6168.12749,0.57095
6166.19875,0.57159
6164.27000,0.56998
6162.34126,0.56903
6160.41251,0.57011
6158.48377,0.57118
6156.55502,0.57115
6154.62628,0.57118
6152.69753,0.57100
6150.76878,0.57032
6148.84004,0.57061
6146.91129,0.57188
6144.98255,0.57234
6143.05380,0.57145
6141.12506,0.57088
6139.19631,0.57200
6137.26757,0.57376
6135.33882,0.57525
6133.41008,0.57610
6131.48133,0.57560
6129.55259,0.57494
6127.62384,0.57531
6125.69510,0.57575
6123.76635,0.57520
6121.83761,0.57331
6119.90886,0.57174
6117.98011,0.57240
6116.05137,0.57437
6114.12262,0.57621
6112.19388,0.57703
6110.26513,0.57664
6108.33639,0.57747
6106.40764,0.58098
6104.47890,0.58431
6102.55015,0.58460
6100.62141,0.58233
6098.69266,0.58015
6096.76392,0.57988
6094.83517,0.58052
6092.90643,0.58005
6090.97768,0.57856
6089.04893,0.57798
6087.12019,0.57867
6085.19144,0.57991
6083.26270,0.58184
6081.33395,0.58388
6079.40521,0.58491
6077.47646,0.58472
6075.54772,0.58323
6073.61897,0.58052
6071.69023,0.57806
6069.76148,0.57703
6067.83274,0.57725
6065.90399,0.57846
6063.97525,0.57922
6062.04650,0.57858
6060.11776,0.57805
6058.18901,0.57844
6056.26026,0.57904
6054.33152,0.57898
6052.40277,0.57812
6050.47403,0.57703
6048.54528,0.57655
6046.61654,0.57707
6044.68779,0.57690
6042.75905,0.57510
6040.83030,0.57375
6038.90156,0.57415
6036.97281,0.57492
6035.04407,0.57393
6033.11532,0.57149
6031.18658,0.56951
6029.25783,0.56870
6027.32909,0.56945
6025.40034,0.57072
6023.47159,0.57014
6021.54285,0.56812
6019.61410,0.56653
6017.68536,0.56550
6015.75661,0.56481
6013.82787,0.56494
6011.89912,0.56572
6009.97038,0.56584
6008.04163,0.56484
6006.11289,0.56358
6004.18414,0.56302
6002.25540,0.56353
6000.32665,0.56393
5998.39791,0.56294
5996.46916,0.56147
5994.54041,0.56029
5992.61167,0.55898
5990.68292,0.55767
5988.75418,0.55715
5986.82543,0.55794
5984.89669,0.55927
5982.96794,0.55922
5981.03920,0.55700
5979.11045,0.55394
5977.18171,0.55245
5975.25296,0.55398
5973.32422,0.55676
5971.39547,0.55768
5969.46673,0.55670
5967.53798,0.55581
5965.60924,0.55597
5963.68049,0.55682
5961.75174,0.55695
5959.82300,0.55588
5957.89425,0.55512
5955.96551,0.55534
5954.03676,0.55583
5952.10802,0.55646
5950.17927,0.55736
5948.25053,0.55773
5946.32178,0.55706
5944.39304,0.55639
5942.46429,0.55667
5940.53555,0.55769
5938.60680,0.55919
5936.67806,0.56063
5934.74931,0.56087
5932.82057,0.56021
5930.89182,0.55968
5928.96307,0.55910
5927.03433,0.55839
5925.10558,0.55741
5923.17684,0.55590
5921.24809,0.55458
5919.31935,0.55429
5917.39060,0.55526
5915.46186,0.55597
5913.53311,0.55518
5911.60437,0.55412
5909.67562,0.55356
5907.74688,0.55313
5905.81813,0.55307
5903.88939,0.55309
5901.96064,0.55210
5900.03189,0.55009
5898.10315,0.54839
5896.17440,0.54778
5894.24566,0.54756
5892.31691,0.54718
5890.38817,0.54690
5888.45942,0.54701
5886.53068,0.54734
5884.60193,0.54740
5882.67319,0.54722
5880.74444,0.54728
5878.81570,0.54712
5876.88695,0.54636
5874.95821,0.54551
5873.02946,0.54530
5871.10072,0.54579
5869.17197,0.54601
5867.24322,0.54557
5865.31448,0.54469
5863.38573,0.54370
5861.45699,0.54361
5859.52824,0.54442
5857.59950,0.54488
5855.67075,0.54487
5853.74201,0.54495
5851.81326,0.54474
5849.88452,0.54399
5847.95577,0.54356
5846.02703,0.54382
5844.09828,0.54382
5842.16954,0.54355
5840.24079,0.54349
5838.31205,0.54306
5836.38330,0.54254
5834.45455,0.54273
5832.52581,0.54347
5830.59706,0.54385
5828.66832,0.54301
5826.73957,0.54211
5824.81083,0.54202
5822.88208,0.54114
5820.95334,0.53978
5819.02459,0.53993
5817.09585,0.54059
5815.16710,0.54004
5813.23836,0.53917
5811.30961,0.53928
5809.38087,0.54034
5807.45212,0.54098
5805.52337,0.53984
5803.59463,0.53784
5801.66588,0.53739
5799.73714,0.53906
5797.80839,0.54077
5795.87965,0.54091
5793.95090,0.54066
5792.02216,0.54083
5790.09341,0.54098
5788.16467,0.54097
5786.23592,0.54041
5784.30718,0.53991
5782.37843,0.54051
5780.44969,0.54134
5778.52094,0.54145
5776.59220,0.54135
5774.66345,0.54169
5772.73470,0.54249
5770.80596,0.54326
5768.87721,0.54325
5766.94847,0.54252
5765.01972,0.54209
5763.09098,0.54259
5761.16223,0.54375
5759.23349,0.54500
5757.30474,0.54597
5755.37600,0.54579
5753.44725,0.54412
5751.51851,0.54259
5749.58976,0.54209
5747.66102,0.54222
5745.73227,0.54339
5743.80352,0.54512
5741.87478,0.54541
5739.94603,0.54406
5738.01729,0.54296
5736.08854,0.54312
5734.15980,0.54398
5732.23105,0.54472
5730.30231,0.54448
5728.37356,0.54354
5726.44482,0.54361
5724.51607,0.54454
5722.58733,0.54440
5720.65858,0.54302
5718.72984,0.54178
5716.80109,0.54186
5714.87235,0.54331
5712.94360,0.54443
5711.01485,0.54393
5709.08611,0.54289
5707.15736,0.54278
5705.22862,0.54338
5703.29987,0.54377
5701.37113,0.54405
5699.44238,0.54438
5697.51364,0.54432
5695.58489,0.54408
5693.65615,0.54386
5691.72740,0.54313
5689.79866,0.54247
5687.86991,0.54279
5685.94117,0.54343
5684.01242,0.54354
5682.08368,0.54340
5680.15493,0.54350
5678.22618,0.54332
5676.29744,0.54260
5674.36869,0.54242
5672.43995,0.54306
5670.51120,0.54361
5668.58246,0.54380
5666.65371,0.54360
5664.72497,0.54291
5662.79622,0.54214
5660.86748,0.54188
5658.93873,0.54244
5657.00999,0.54356
5655.08124,0.54426
5653.15250,0.54431
5651.22375,0.54449
5649.29500,0.54453
5647.36626,0.54383
5645.43751,0.54294
5643.50877,0.54237
5641.58002,0.54238
5639.65128,0.54318
5637.72253,0.54409
5635.79379,0.54418
5633.86504,0.54390
5631.93630,0.54404
5630.00755,0.54446
5628.07881,0.54460
5626.15006,0.54428
5624.22132,0.54356
5622.29257,0.54285
5620.36383,0.54274
5618.43508,0.54273
5616.50633,0.54209
5614.57759,0.54182
5612.64884,0.54279
5610.72010,0.54398
5608.79135,0.54462
5606.86261,0.54493
5604.93386,0.54481
5603.00512,0.54432
5601.07637,0.54448
5599.14763,0.54523
5597.21888,0.54537
5595.29014,0.54514
5593.36139,0.54533
5591.43265,0.54501
5589.50390,0.54379
5587.57516,0.54306
5585.64641,0.54319
5583.71766,0.54371
5581.78892,0.54463
5579.86017,0.54548
5577.93143,0.54570
5576.00268,0.54561
5574.07394,0.54603
5572.14519,0.54726
5570.21645,0.54819
5568.28770,0.54759
5566.35896,0.54643
5564.43021,0.54602
5562.50147,0.54589
5560.57272,0.54609
5558.64398,0.54665
5556.71523,0.54644
5554.78648,0.54592
5552.85774,0.54632
5550.92899,0.54719
5549.00025,0.54766
5547.07150,0.54771
5545.14276,0.54781
5543.21401,0.54818
5541.28527,0.54837
5539.35652,0.54850
5537.42778,0.54926
5535.49903,0.54995
5533.57029,0.54995
5531.64154,0.55037
5529.71280,0.55130
5527.78405,0.55141
5525.85531,0.55080
5523.92656,0.55001
5521.99781,0.54954
5520.06907,0.55014
5518.14032,0.55098
5516.21158,0.55110
5514.28283,0.55106
5512.35409,0.55132
5510.42534,0.55160
5508.49660,0.55160
5506.56785,0.55140
5504.63911,0.55117
5502.71036,0.55099
5500.78162,0.55139
5498.85287,0.55242
5496.92413,0.55309
5494.99538,0.55339
5493.06664,0.55412
5491.13789,0.55459
5489.20914,0.55407
5487.28040,0.55327
5485.35165,0.55291
5483.42291,0.55280
5481.49416,0.55267
5479.56542,0.55249
5477.63667,0.55244
5475.70793,0.55292
5473.77918,0.55400
5471.85044,0.55498
5469.92169,0.55522
5467.99295,0.55493
5466.06420,0.55503
5464.13546,0.55568
5462.20671,0.55611
5460.27796,0.55603
5458.34922,0.55603
5456.42047,0.55657
5454.49173,0.55709
5452.56298,0.55720
5450.63424,0.55741
5448.70549,0.55769
5446.77675,0.55766
5444.84800,0.55768
5442.91926,0.55838
5440.99051,0.55974
5439.06177,0.56057
5437.13302,0.56038
5435.20428,0.56055
5433.27553,0.56126
5431.34679,0.56156
5429.41804,0.56195
5427.48929,0.56271
5425.56055,0.56320
5423.63180,0.56345
5421.70306,0.56395
5419.77431,0.56505
5417.84557,0.56602
5415.91682,0.56567
5413.98808,0.56425
5412.05933,0.56319
5410.13059,0.56330
5408.20184,0.56421
5406.27310,0.56540
5404.34435,0.56657
5402.41561,0.56706
5400.48686,0.56684
5398.55811,0.56650
5396.62937,0.56592
5394.70062,0.56524
5392.77188,0.56527
5390.84313,0.56605
5388.91439,0.56683
5386.98564,0.56696
5385.05690,0.56674
5383.12815,0.56699
5381.19941,0.56763
5379.27066,0.56832
5377.34192,0.56864
5375.41317,0.56812
5373.48443,0.56714
5371.55568,0.56663
5369.62694,0.56708
5367.69819,0.56752
5365.76944,0.56686
5363.84070,0.56607
5361.91195,0.56600
5359.98321,0.56606
5358.05446,0.56588
5356.12572,0.56561
5354.19697,0.56564
5352.26823,0.56569
5350.33948,0.56499
5348.41074,0.56449
5346.48199,0.56516
5344.55325,0.56568
5342.62450,0.56514
5340.69576,0.56440
5338.76701,0.56399
5336.83827,0.56354
5334.90952,0.56238
5332.98077,0.56089
5331.05203,0.56019
5329.12328,0.56003
5327.19454,0.55910
5325.26579,0.55739
5323.33705,0.55651
5321.40830,0.55666
5319.47956,0.55590
5317.55081,0.55382
5315.62207,0.55199
5313.69332,0.55103
5311.76458,0.55038
5309.83583,0.54967
5307.90709,0.54836
5305.97834,0.54587
5304.04959,0.54268
5302.12085,0.53995
5300.19210,0.53810
5298.26336,0.53645
5296.33461,0.53428
5294.40587,0.53151
5292.47712,0.52818
5290.54838,0.52462
5288.61963,0.52185
5286.69089,0.51988
5284.76214,0.51753
5282.83340,0.51477
5280.90465,0.51193
5278.97591,0.50842
5277.04716,0.50463
5275.11842,0.50150
5273.18967,0.49842
5271.26092,0.49486
5269.33218,0.49159
5267.40343,0.48850
5265.47469,0.48488
5263.54594,0.48139
5261.61720,0.47822
5259.68845,0.47447
5257.75971,0.47073
5255.83096,0.46780
5253.90222,0.46475
5251.97347,0.46126
5250.04473,0.45780
5248.11598,0.45427
5246.18724,0.45074
5244.25849,0.44740
5242.32975,0.44428
5240.40100,0.44177
5238.47225,0.43998
5236.54351,0.43836
5234.61476,0.43638
5232.68602,0.43395
5230.75727,0.43109
5228.82853,0.42825
5226.89978,0.42625
5224.97104,0.42528
5223.04229,0.42475
5221.11355,0.42361
5219.18480,0.42163
5217.25606,0.41974
5215.32731,0.41847
5213.39857,0.41741
5211.46982,0.41620
5209.54107,0.41490
5207.61233,0.41376
5205.68358,0.41317
5203.75484,0.41271
5201.82609,0.41139
5199.89735,0.40989
5197.96860,0.40947
5196.03986,0.40965
5194.11111,0.40951
5192.18237,0.40893
5190.25362,0.40829
5188.32488,0.40792
5186.39613,0.40798
5184.46739,0.40840
5182.53864,0.40862
5180.60990,0.40830
5178.68115,0.40797
5176.75240,0.40807
5174.82366,0.40829
5172.89491,0.40819
5170.96617,0.40783
5169.03742,0.40742
5167.10868,0.40716
5165.17993,0.40745
5163.25119,0.40811
5161.32244,0.40830
5159.39370,0.40797
5157.46495,0.40783
5155.53621,0.40821
5153.60746,0.40858
5151.67872,0.40845
5149.74997,0.40851
5147.82123,0.40949
5145.89248,0.41063
5143.96373,0.41107
5142.03499,0.41105
5140.10624,0.41126
5138.17750,0.41166
5136.24875,0.41150
5134.32001,0.41113
5132.39126,0.41140
5130.46252,0.41188
5128.53377,0.41213
5126.60503,0.41235
5124.67628,0.41258
5122.74754,0.41281
5120.81879,0.41299
5118.89005,0.41311
5116.96130,0.41321
5115.03255,0.41313
5113.10381,0.41280
5111.17506,0.41244
5109.24632,0.41212
5107.31757,0.41174
5105.38883,0.41156
5103.46008,0.41154
5101.53134,0.41113
5099.60259,0.41039
5097.67385,0.40991
5095.74510,0.40941
5093.81636,0.40861
5091.88761,0.40795
5089.95887,0.40739
5088.03012,0.40692
5086.10138,0.40660
5084.17263,0.40598
5082.24388,0.40525
5080.31514,0.40474
5078.38639,0.40437
5076.45765,0.40402
5074.52890,0.40335
5072.60016,0.40261
5070.67141,0.40246
5068.74267,0.40279
5066.81392,0.40329
5064.88518,0.40379
5062.95643,0.40430
5061.02769,0.40479
5059.09894,0.40507
5057.17020,0.40532
5055.24145,0.40566
5053.31270,0.40587
5051.38396,0.40655
5049.45521,0.40808
5047.52647,0.40932
5045.59772,0.40992
5043.66898,0.41077
5041.74023,0.41187
5039.81149,0.41272
5037.88274,0.41305
5035.95400,0.41284
5034.02525,0.41285
5032.09651,0.41373
5030.16776,0.41476
5028.23902,0.41535
5026.31027,0.41608
5024.38153,0.41710
5022.45278,0.41762
5020.52403,0.41785
5018.59529,0.41860
5016.66654,0.41955
5014.73780,0.42011
5012.80905,0.42033
5010.88031,0.42079
5008.95156,0.42187
5007.02282,0.42300
5005.09407,0.42378
5003.16533,0.42418
5001.23658,0.42416
4999.30784,0.42432
4997.37909,0.42481
4995.45035,0.42522
4993.52160,0.42580
4991.59286,0.42608
4989.66411,0.42529
4987.73536,0.42439
4985.80662,0.42447
4983.87787,0.42504
4981.94913,0.42512
4980.02038,0.42458
4978.09164,0.42399
4976.16289,0.42365
4974.23415,0.42346
4972.30540,0.42315
4970.37666,0.42245
4968.44791,0.42146
4966.51917,0.42040
4964.59042,0.41926
4962.66168,0.41787
4960.73293,0.41661
4958.80418,0.41605
4956.87544,0.41552
4954.94669,0.41445
4953.01795,0.41328
4951.08920,0.41211
4949.16046,0.41075
4947.23171,0.40946
4945.30297,0.40866
4943.37422,0.40826
4941.44548,0.40738
4939.51673,0.40562
4937.58799,0.40366
4935.65924,0.40222
4933.73050,0.40153
4931.80175,0.40133
4929.87301,0.40070
4927.94426,0.39882
4926.01551,0.39633
4924.08677,0.39448
4922.15802,0.39369
4920.22928,0.39335
4918.30053,0.39253
4916.37179,0.39123
4914.44304,0.39012
4912.51430,0.38917
4910.58555,0.38800
4908.65681,0.38671
4906.72806,0.38591
4904.79932,0.38548
4902.87057,0.38478
4900.94183,0.38386
4899.01308,0.38275
4897.08434,0.38144
4895.15559,0.38063
4893.22684,0.38011
4891.29810,0.37890
4889.36935,0.37747
4887.44061,0.37619
4885.51186,0.37467
4883.58312,0.37343
4881.65437,0.37274
4879.72563,0.37198
4877.79688,0.37090
4875.86814,0.36973
4873.93939,0.36878
4872.01065,0.36798
4870.08190,0.36713
4868.15316,0.36638
4866.22441,0.36584
4864.29566,0.36529
4862.36692,0.36442
4860.43817,0.36341
4858.50943,0.36265
4856.58068,0.36187
4854.65194,0.36109
4852.72319,0.36065
4850.79445,0.35996
4848.86570,0.35890
4846.93696,0.35826
4845.00821,0.35793
4843.07947,0.35735
4841.15072,0.35635
4839.22198,0.35529
4837.29323,0.35463
4835.36449,0.35420
4833.43574,0.35351
4831.50699,0.35265
4829.57825,0.35197
4827.64950,0.35144
4825.72076,0.35103
4823.79201,0.35076
4821.86327,0.35020
4819.93452,0.34922
4818.00578,0.34832
4816.07703,0.34772
4814.14829,0.34716
4812.21954,0.34655
4810.29080,0.34600
4808.36205,0.34556
4806.43331,0.34527
4804.50456,0.34493
4802.57582,0.34447
4800.64707,0.34415
4798.71832,0.34405
4796.78958,0.34397
4794.86083,0.34377
4792.93209,0.34368
4791.00334,0.34379
4789.07460,0.34374
4787.14585,0.34329
4785.21711,0.34283
4783.28836,0.34265
4781.35962,0.34240
4779.43087,0.34209
4777.50213,0.34234
4775.57338,0.34294
4773.64464,0.34286
4771.71589,0.34211
4769.78714,0.34156
4767.85840,0.34125
4765.92965,0.34083
4764.00091,0.34065
4762.07216,0.34100
4760.14342,0.34117
4758.21467,0.34069
4756.28593,0.34038
4754.35718,0.34062
4752.42844,0.34045
4750.49969,0.33970
4748.57095,0.33927
4746.64220,0.33942
4744.71346,0.33980
4742.78471,0.34027
4740.85597,0.34057
4738.92722,0.34045
4736.99847,0.34035
4735.06973,0.34053
4733.14098,0.34068
4731.21224,0.34057
4729.28349,0.34034
4727.35475,0.34005
4725.42600,0.33985
4723.49726,0.34010
4721.56851,0.34056
4719.63977,0.34091
4717.71102,0.34146
4715.78228,0.34225
4713.85353,0.34253
4711.92479,0.34186
4709.99604,0.34117
4708.06729,0.34143
4706.13855,0.34191
4704.20980,0.34167
4702.28106,0.34118
4700.35231,0.34125
4698.42357,0.34187
4696.49482,0.34260
4694.56608,0.34329
4692.63733,0.34356
4690.70859,0.34345
4688.77984,0.34378
4686.85110,0.34431
4684.92235,0.34427
4682.99361,0.34412
4681.06486,0.34420
4679.13612,0.34413
4677.20737,0.34381
4675.27862,0.34355
4673.34988,0.34367
4671.42113,0.34400
4669.49239,0.34420
4667.56364,0.34428
4665.63490,0.34464
4663.70615,0.34523
4661.77741,0.34568
4659.84866,0.34602
4657.91992,0.34642
4655.99117,0.34675
4654.06243,0.34722
4652.13368,0.34775
4650.20494,0.34783
4648.27619,0.34780
4646.34745,0.34842
4644.41870,0.34930
4642.48995,0.34948
4640.56121,0.34902
4638.63246,0.34873
4636.70372,0.34888
4634.77497,0.34917
4632.84623,0.34957
4630.91748,0.35040
4628.98874,0.35172
4627.05999,0.35285
4625.13125,0.35338
4623.20250,0.35363
4621.27376,0.35396
4619.34501,0.35454
4617.41627,0.35525
4615.48752,0.35564
4613.55877,0.35566
4611.63003,0.35594
4609.70128,0.35687
4607.77254,0.35787
4605.84379,0.35818
4603.91505,0.35811
4601.98630,0.35847
4600.05756,0.35933
4598.12881,0.36015
4596.20007,0.36078
4594.27132,0.36130
4592.34258,0.36154
4590.41383,0.36151
4588.48509,0.36159
4586.55634,0.36164
4584.62760,0.36147
4582.69885,0.36145
4580.77010,0.36165
4578.84136,0.36180
4576.91261,0.36180
4574.98387,0.36187
4573.05512,0.36221
4571.12638,0.36263
4569.19763,0.36303
4567.26889,0.36354
4565.34014,0.36384
4563.41140,0.36365
4561.48265,0.36376
4559.55391,0.36467
4557.62516,0.36546
4555.69642,0.36531
4553.76767,0.36451
4551.83893,0.36390
4549.91018,0.36397
4547.98143,0.36452
4546.05269,0.36506
4544.12394,0.36538
4542.19520,0.36556
4540.26645,0.36576
4538.33771,0.36615
4536.40896,0.36667
4534.48022,0.36700
4532.55147,0.36712
4530.62273,0.36724
4528.69398,0.36743
4526.76524,0.36763
4524.83649,0.36768
4522.90775,0.36770
4520.97900,0.36798
4519.05025,0.36833
4517.12151,0.36835
4515.19276,0.36838
4513.26402,0.36881
4511.33527,0.36916
4509.40653,0.36906
4507.47778,0.36885
4505.54904,0.36881
4503.62029,0.36891
4501.69155,0.36918
4499.76280,0.36938
4497.83406,0.36910
4495.90531,0.36843
4493.97657,0.36785
4492.04782,0.36733
4490.11908,0.36652
4488.19033,0.36539
4486.26158,0.36439
4484.33284,0.36384
4482.40409,0.36354
4480.47535,0.36305
4478.54660,0.36201
4476.61786,0.36040
4474.68911,0.35889
4472.76037,0.35786
4470.83162,0.35678
4468.90288,0.35512
4466.97413,0.35320
4465.04539,0.35148
4463.11664,0.34999
4461.18790,0.34856
4459.25915,0.34702
4457.33041,0.34526
4455.40166,0.34339
4453.47291,0.34178
4451.54417,0.34035
4449.61542,0.33848
4447.68668,0.33607
4445.75793,0.33382
4443.82919,0.33223
4441.90044,0.33102
4439.97170,0.32967
4438.04295,0.32778
4436.11421,0.32564
4434.18546,0.32403
4432.25672,0.32294
4430.32797,0.32156
4428.39923,0.31963
4426.47048,0.31760
4424.54173,0.31584
4422.61299,0.31428
4420.68424,0.31272
4418.75550,0.31114
4416.82675,0.30959
4414.89801,0.30820
4412.96926,0.30706
4411.04052,0.30614
4409.11177,0.30517
4407.18303,0.30413
4405.25428,0.30355
4403.32554,0.30346
4401.39679,0.30327
4399.46805,0.30286
4397.53930,0.30256
4395.61056,0.30262
4393.68181,0.30308
4391.75306,0.30358
4389.82432,0.30370
4387.89557,0.30383
4385.96683,0.30427
4384.03808,0.30481
4382.10934,0.30551
4380.18059,0.30638
4378.25185,0.30713
4376.32310,0.30782
4374.39436,0.30873
4372.46561,0.30961
4370.53687,0.31005
4368.60812,0.31043
4366.67938,0.31121
4364.75063,0.31188
4362.82189,0.31204
4360.89314,0.31194
4358.96439,0.31182
4357.03565,0.31179
4355.10690,0.31188
4353.17816,0.31211
4351.24941,0.31234
4349.32067,0.31236
4347.39192,0.31232
4345.46318,0.31231
4343.53443,0.31214
4341.60569,0.31191
4339.67694,0.31164
4337.74820,0.31117
4335.81945,0.31088
4333.89071,0.31098
4331.96196,0.31090
4330.03321,0.31028
4328.10447,0.30949
4326.17572,0.30893
4324.24698,0.30830
4322.31823,0.30725
4320.38949,0.30634
4318.46074,0.30607
4316.53200,0.30618
4314.60325,0.30626
4312.67451,0.30611
4310.74576,0.30573
4308.81702,0.30515
4306.88827,0.30472
4304.95953,0.30457
4303.03078,0.30424
4301.10204,0.30368
4299.17329,0.30324
4297.24454,0.30284
4295.31580,0.30223
4293.38705,0.30170
4291.45831,0.30150
4289.52956,0.30125
4287.60082,0.30084
4285.67207,0.30072
4283.74333,0.30092
4281.81458,0.30098
4279.88584,0.30072
4277.95709,0.30060
4276.02835,0.30095
4274.09960,0.30127
4272.17086,0.30116
4270.24211,0.30112
4268.31336,0.30151
4266.38462,0.30200
4264.45587,0.30234
4262.52713,0.30259
4260.59838,0.30287
4258.66964,0.30332
4256.74089,0.30380
4254.81215,0.30386
4252.88340,0.30366
4250.95466,0.30386
4249.02591,0.30452
4247.09717,0.30517
4245.16842,0.30573
4243.23968,0.30640
4241.31093,0.30699
4239.38219,0.30735
4237.45344,0.30756
4235.52469,0.30778
4233.59595,0.30825
4231.66720,0.30876
4229.73846,0.30863
4227.80971,0.30795
4225.88097,0.30751
4223.95222,0.30762
4222.02348,0.30800
4220.09473,0.30841
4218.16599,0.30855
4216.23724,0.30819
4214.30850,0.30752
4212.37975,0.30714
4210.45101,0.30717
4208.52226,0.30729
4206.59352,0.30750
4204.66477,0.30792
4202.73602,0.30837
4200.80728,0.30861
4198.87853,0.30854
4196.94979,0.30836
4195.02104,0.30832
4193.09230,0.30847
4191.16355,0.30864
4189.23481,0.30878
4187.30606,0.30890
4185.37732,0.30886
4183.44857,0.30857
4181.51983,0.30830
4179.59108,0.30848
4177.66234,0.30902
4175.73359,0.30949
4173.80484,0.30983
4171.87610,0.31005
4169.94735,0.31026
4168.01861,0.31058
4166.08986,0.31082
4164.16112,0.31074
4162.23237,0.31060
4160.30363,0.31055
4158.37488,0.31026
4156.44614,0.30974
4154.51739,0.30937
4152.58865,0.30911
4150.65990,0.30880
4148.73116,0.30847
4146.80241,0.30805
4144.87367,0.30752
4142.94492,0.30700
4141.01617,0.30626
4139.08743,0.30500
4137.15868,0.30370
4135.22994,0.30277
4133.30119,0.30185
4131.37245,0.30083
4129.44370,0.29997
4127.51496,0.29913
4125.58621,0.29819
4123.65747,0.29730
4121.72872,0.29646
4119.79998,0.29551
4117.87123,0.29436
4115.94249,0.29303
4114.01374,0.29159
4112.08500,0.29022
4110.15625,0.28926
4108.22750,0.28852
4106.29876,0.28741
4104.37001,0.28583
4102.44127,0.28412
4100.51252,0.28268
4098.58378,0.28142
4096.65503,0.27987
4094.72629,0.27822
4092.79754,0.27692
4090.86880,0.27561
4088.94005,0.27400
4087.01131,0.27245
4085.08256,0.27126
4083.15382,0.27011
4081.22507,0.26861
4079.29632,0.26691
4077.36758,0.26558
4075.43883,0.26479
4073.51009,0.26387
4071.58134,0.26224
4069.65260,0.26015
4067.72385,0.25833
4065.79511,0.25704
4063.86636,0.25582
4061.93762,0.25422
4060.00887,0.25253
4058.08013,0.25115
4056.15138,0.25012
4054.22264,0.24938
4052.29389,0.24861
4050.36515,0.24740
4048.43640,0.24592
4046.50765,0.24450
4044.57891,0.24317
4042.65016,0.24215
4040.72142,0.24141
4038.79267,0.24051
4036.86393,0.23954
4034.93518,0.23882
4033.00644,0.23797
4031.07769,0.23669
4029.14895,0.23554
4027.22020,0.23497
4025.29146,0.23467
4023.36271,0.23426
4021.43397,0.23364
4019.50522,0.23304
4017.57648,0.23293
4015.64773,0.23307
4013.71898,0.23297
4011.79024,0.23265
4009.86149,0.23237
4007.93275,0.23241
4006.00400,0.23275
4004.07526,0.23302
4002.14651,0.23297
4000.21777,0.23277
3998.28902,0.23278
3996.36028,0.23313
3994.43153,0.23373
3992.50279,0.23422
3990.57404,0.23441
3988.64530,0.23461
3986.71655,0.23506
3984.78780,0.23557
3982.85906,0.23598
3980.93031,0.23637
3979.00157,0.23663
3977.07282,0.23664
3975.14408,0.23670
3973.21533,0.23723
3971.28659,0.23804
3969.35784,0.23860
3967.42910,0.23891
3965.50035,0.23927
3963.57161,0.23964
3961.64286,0.24015
3959.71412,0.24098
3957.78537,0.24186
3955.85663,0.24267
3953.92788,0.24331
3951.99913,0.24377
3950.07039,0.24439
3948.14164,0.24513
3946.21290,0.24565
3944.28415,0.24603
3942.35541,0.24641
3940.42666,0.24701
3938.49792,0.24777
3936.56917,0.24845
3934.64043,0.24905
3932.71168,0.24974
3930.78294,0.25058
3928.85419,0.25155
3926.92545,0.25251
3924.99670,0.25316
3923.06795,0.25349
3921.13921,0.25389
3919.21046,0.25451
3917.28172,0.25517
3915.35297,0.25580
3913.42423,0.25642
3911.49548,0.25716
3909.56674,0.25812
3907.63799,0.25901
3905.70925,0.25962
3903.78050,0.25994
3901.85176,0.25995
3899.92301,0.26009
3897.99427,0.26082
3896.06552,0.26186
3894.13678,0.26269
3892.20803,0.26318
3890.27928,0.26352
3888.35054,0.26405
3886.42179,0.26496
3884.49305,0.26575
3882.56430,0.26608
3880.63556,0.26650
3878.70681,0.26726
3876.77807,0.26805
3874.84932,0.26874
3872.92058,0.26939
3870.99183,0.26990
3869.06309,0.27022
3867.13434,0.27072
3865.20560,0.27162
3863.27685,0.27268
3861.34811,0.27361
3859.41936,0.27446
3857.49061,0.27540
3855.56187,0.27648
3853.63312,0.27766
3851.70438,0.27847
3849.77563,0.27890
3847.84689,0.27923
3845.91814,0.27949
3843.98940,0.27987
3842.06065,0.28066
3840.13191,0.28175
3838.20316,0.28280
3836.27442,0.28334
3834.34567,0.28345
3832.41693,0.28365
3830.48818,0.28396
3828.55943,0.28422
3826.63069,0.28446
3824.70194,0.28469
3822.77320,0.28501
3820.84445,0.28536
3818.91571,0.28545
3816.98696,0.28556
3815.05822,0.28591
3813.12947,0.28604
3811.20073,0.28604
3809.27198,0.28622
3807.34324,0.28637
3805.41449,0.28620
3803.48575,0.28593
3801.55700,0.28577
3799.62826,0.28569
3797.69951,0.28562
3795.77076,0.28552
3793.84202,0.28550
3791.91327,0.28568
3789.98453,0.28581
3788.05578,0.28571
3786.12704,0.28550
3784.19829,0.28544
3782.26955,0.28558
3780.34080,0.28561
3778.41206,0.28533
3776.48331,0.28509
3774.55457,0.28493
3772.62582,0.28453
3770.69708,0.28396
3768.76833,0.28344
3766.83959,0.28303
3764.91084,0.28281
3762.98209,0.28254
3761.05335,0.28197
3759.12460,0.28128
3757.19586,0.28081
3755.26711,0.28059
3753.33837,0.28045
3751.40962,0.28008
3749.48088,0.27919
3747.55213,0.27819
3745.62339,0.27729
3743.69464,0.27634
3741.76590,0.27583
3739.83715,0.27579
3737.90841,0.27557
3735.97966,0.27473
3734.05091,0.27321
3732.12217,0.27126
3730.19342,0.26959
3728.26468,0.26842
3726.33593,0.26730
3724.40719,0.26592
3722.47844,0.26436
3720.54970,0.26279
3718.62095,0.26131
3716.69221,0.25996
3714.76346,0.25871
3712.83472,0.25725
3710.90597,0.25509
3708.97723,0.25250
3707.04848,0.25018
3705.11974,0.24819
3703.19099,0.24617
3701.26224,0.24379
3699.33350,0.24099
3697.40475,0.23810
3695.47601,0.23551
3693.54726,0.23296
3691.61852,0.22988
3689.68977,0.22608
3687.76103,0.22187
3685.83228,0.21772
3683.90354,0.21383
3681.97479,0.20999
3680.04605,0.20603
3678.11730,0.20189
3676.18856,0.19705
3674.25981,0.19164
3672.33107,0.18670
3670.40232,0.18164
3668.47357,0.17623
3666.54483,0.17151
3664.61608,0.16744
3662.68734,0.16334
3660.75859,0.15915
3658.82985,0.15511
3656.90110,0.15079
3654.97236,0.14628
3653.04361,0.14248
3651.11487,0.13905
3649.18612,0.13527
3647.25738,0.13150
3645.32863,0.12824
3643.39989,0.12533
3641.47114,0.12244
3639.54239,0.11945
3637.61365,0.11652
3635.68490,0.11384
3633.75616,0.11136
3631.82741,0.10900
3629.89867,0.10655
3627.96992,0.10390
3626.04118,0.10153
3624.11243,0.09948
3622.18369,0.09742
3620.25494,0.09535
3618.32620,0.09336
3616.39745,0.09146
3614.46871,0.08973
3612.53996,0.08814
3610.61122,0.08647
3608.68247,0.08473
3606.75372,0.08313
3604.82498,0.08139
3602.89623,0.07943
3600.96749,0.07775
3599.03874,0.07636
3597.11000,0.07487
3595.18125,0.07342
3593.25251,0.07206
3591.32376,0.07059
3589.39502,0.06905
3587.46627,0.06757
3585.53753,0.06649
3583.60878,0.06584
3581.68004,0.06507
3579.75129,0.06399
3577.82254,0.06296
3575.89380,0.06198
3573.96505,0.06087
3572.03631,0.05991
3570.10756,0.05934
3568.17882,0.05887
3566.25007,0.05815
3564.32133,0.05720
3562.39258,0.05636
3560.46384,0.05575
3558.53509,0.05520
3556.60635,0.05465
3554.67760,0.05393
3552.74886,0.05296
3550.82011,0.05219
3548.89137,0.05196
3546.96262,0.05185
3545.03387,0.05125
3543.10513,0.05032
3541.17638,0.04968
3539.24764,0.04932
3537.31889,0.04889
3535.39015,0.04829
3533.46140,0.04764
3531.53266,0.04698
3529.60391,0.04641
3527.67517,0.04606
3525.74642,0.04586
3523.81768,0.04576
3521.88893,0.04573
3519.96019,0.04549
3518.03144,0.04508
3516.10270,0.04468
3514.17395,0.04412
3512.24520,0.04355
3510.31646,0.04323
3508.38771,0.04286
3506.45897,0.04232
3504.53022,0.04187
3502.60148,0.04168
3500.67273,0.04174
3498.74399,0.04182
3496.81524,0.04174
3494.88650,0.04150
3492.95775,0.04109
3491.02901,0.04055
3489.10026,0.04013
3487.17152,0.03981
3485.24277,0.03929
3483.31402,0.03870
3481.38528,0.03852
3479.45653,0.03886
3477.52779,0.03924
3475.59904,0.03934
3473.67030,0.03939
3471.74155,0.03935
3469.81281,0.03893
3467.88406,0.03834
3465.95532,0.03806
3464.02657,0.03819
3462.09783,0.03845
3460.16908,0.03848
3458.24034,0.03814
3456.31159,0.03772
3454.38285,0.03758
3452.45410,0.03763
3450.52535,0.03765
3448.59661,0.03779
3446.66786,0.03803
3444.73912,0.03802
3442.81037,0.03773
3440.88163,0.03733
3438.95288,0.03695
3437.02414,0.03682
3435.09539,0.03684
3433.16665,0.03669
3431.23790,0.03665
3429.30916,0.03693
3427.38041,0.03718
3425.45167,0.03714
3423.52292,0.03697
3421.59418,0.03691
3419.66543,0.03695
3417.73668,0.03711
3415.80794,0.03746
3413.87919,0.03755
3411.95045,0.03721
3410.02170,0.03702
3408.09296,0.03722
3406.16421,0.03751
3404.23547,0.03767
3402.30672,0.03757
3400.37798,0.03725
3398.44923,0.03693
3396.52049,0.03673
3394.59174,0.03663
3392.66300,0.03687
3390.73425,0.03741
3388.80550,0.03769
3386.87676,0.03754
3384.94801,0.03747
3383.01927,0.03770
3381.09052,0.03794
3379.16178,0.03801
3377.23303,0.03814
3375.30429,0.03838
3373.37554,0.03829
3371.44680,0.03782
3369.51805,0.03758
3367.58931,0.03765
3365.66056,0.03769
3363.73182,0.03781
3361.80307,0.03808
3359.87433,0.03827
3357.94558,0.03824
3356.01683,0.03814
3354.08809,0.03826
3352.15934,0.03859
3350.23060,0.03898
3348.30185,0.03944
3346.37311,0.03990
3344.44436,0.04011
3342.51562,0.04013
3340.58687,0.04019
3338.65813,0.04007
3336.72938,0.03993
3334.80064,0.04015
3332.87189,0.04047
3330.94315,0.04077
3329.01440,0.04108
3327.08566,0.04116
3325.15691,0.04114
3323.22816,0.04132
3321.29942,0.04159
3319.37067,0.04181
3317.44193,0.04203
3315.51318,0.04225
3313.58444,0.04236
3311.65569,0.04247
3309.72695,0.04279
3307.79820,0.04309
3305.86946,0.04309
3303.94071,0.04285
3302.01197,0.04277
3300.08322,0.04296
3298.15448,0.04315
3296.22573,0.04327
3294.29698,0.04342
3292.36824,0.04356
3290.43949,0.04376
3288.51075,0.04399
3286.58200,0.04414
3284.65326,0.04419
3282.72451,0.04415
3280.79577,0.04407
3278.86702,0.04409
3276.93828,0.04431
3275.00953,0.04487
3273.08079,0.04556
3271.15204,0.04592
3269.22330,0.04578
3267.29455,0.04557
3265.36581,0.04573
3263.43706,0.04612
3261.50831,0.04644
3259.57957,0.04675
3257.65082,0.04702
3255.72208,0.04718
3253.79333,0.04737
3251.86459,0.04778
3249.93584,0.04820
3248.00710,0.04830
3246.07835,0.04825
3244.14961,0.04824
3242.22086,0.04808
3240.29212,0.04786
3238.36337,0.04794
3236.43463,0.04839
3234.50588,0.04896
3232.57713,0.04932
3230.64839,0.04944
3228.71964,0.04962
3226.79090,0.04991
3224.86215,0.05004
3222.93341,0.05006
3221.00466,0.05011
3219.07592,0.05008
3217.14717,0.05010
3215.21843,0.05042
3213.28968,0.05112
3211.36094,0.05190
3209.43219,0.05235
3207.50345,0.05255
3205.57470,0.05257
3203.64596,0.05234
3201.71721,0.05218
3199.78846,0.05239
3197.85972,0.05271
3195.93097,0.05313
3194.00223,0.05375
3192.07348,0.05421
3190.14474,0.05434
3188.21599,0.05444
3186.28725,0.05483
3184.35850,0.05540
3182.42976,0.05579
3180.50101,0.05602
3178.57227,0.05638
3176.64352,0.05689
3174.71478,0.05739
3172.78603,0.05780
3170.85729,0.05819
3168.92854,0.05845
3166.99979,0.05849
3165.07105,0.05856
3163.14230,0.05894
3161.21356,0.05948
3159.28481,0.05990
3157.35607,0.06019
3155.42732,0.06044
3153.49858,0.06067
3151.56983,0.06101
3149.64109,0.06137
3147.71234,0.06159
3145.78360,0.06191
3143.85485,0.06240
3141.92611,0.06269
3139.99736,0.06278
3138.06861,0.06296
3136.13987,0.06332
3134.21112,0.06392
3132.28238,0.06464
3130.35363,0.06514
3128.42489,0.06524
3126.49614,0.06525
3124.56740,0.06549
3122.63865,0.06576
3120.70991,0.06595
3118.78116,0.06630
3116.85242,0.06678
3114.92367,0.06712
3112.99493,0.06713
3111.06618,0.06702
3109.13744,0.06728
3107.20869,0.06790
3105.27994,0.06845
3103.35120,0.06865
3101.42245,0.06872
3099.49371,0.06899
3097.56496,0.06936
3095.63622,0.06964
3093.70747,0.06987
3091.77873,0.07006
3089.84998,0.07032
3087.92124,0.07080
3085.99249,0.07143
3084.06375,0.07182
3082.13500,0.07178
3080.20626,0.07177
3078.27751,0.07214
3076.34877,0.07257
3074.42002,0.07288
3072.49127,0.07309
3070.56253,0.07325
3068.63378,0.07359
3066.70504,0.07392
3064.77629,0.07392
3062.84755,0.07384
3060.91880,0.07404
3058.99006,0.07449
3057.06131,0.07506
3055.13257,0.07577
3053.20382,0.07639
3051.27508,0.07659
3049.34633,0.07660
3047.41759,0.07672
3045.48884,0.07686
3043.56009,0.07703
3041.63135,0.07728
3039.70260,0.07750
3037.77386,0.07762
3035.84511,0.07768
3033.91637,0.07789
3031.98762,0.07831
3030.05888,0.07860
3028.13013,0.07852
3026.20139,0.07832
3024.27264,0.07844
3022.34390,0.07870
3020.41515,0.07867
3018.48641,0.07845
3016.55766,0.07830
3014.62892,0.07810
3012.70017,0.07781
3010.77142,0.07756
3008.84268,0.07737
3006.91393,0.07718
3004.98519,0.07694
3003.05644,0.07657
3001.12770,0.07617
2999.19895,0.07594
2997.27021,0.07574
2995.34146,0.07531
2993.41272,0.07460
2991.48397,0.07379
2989.55523,0.07312
2987.62648,0.07259
2985.69774,0.07191
2983.76899,0.07086
2981.84025,0.06951
2979.91150,0.06802
2977.98275,0.06662
2976.05401,0.06551
2974.12526,0.06446
2972.19652,0.06332
2970.26777,0.06232
2968.33903,0.06151
2966.41028,0.06074
2964.48154,0.06000
2962.55279,0.05941
2960.62405,0.05897
2958.69530,0.05868
2956.76656,0.05846
2954.83781,0.05802
2952.90907,0.05745
2950.98032,0.05708
2949.05157,0.05679
2947.12283,0.05621
2945.19408,0.05544
2943.26534,0.05495
2941.33659,0.05477
2939.40785,0.05462
2937.47910,0.05443
2935.55036,0.05426
2933.62161,0.05410
2931.69287,0.05392
2929.76412,0.05389
2927.83538,0.05419
2925.90663,0.05431
2923.97789,0.05385
2922.04914,0.05334
2920.12040,0.05333
2918.19165,0.05378
2916.26290,0.05437
2914.33416,0.05490
2912.40541,0.05526
2910.47667,0.05538
2908.54792,0.05540
2906.61918,0.05551
2904.69043,0.05572
2902.76169,0.05588
2900.83294,0.05599
2898.90420,0.05619
2896.97545,0.05655
2895.04671,0.05696
2893.11796,0.05728
2891.18922,0.05748
2889.26047,0.05749
2887.33172,0.05746
2885.40298,0.05777
2883.47423,0.05833
2881.54549,0.05854
2879.61674,0.05844
2877.68800,0.05844
2875.75925,0.05866
2873.83051,0.05897
2871.90176,0.05936
2869.97302,0.05976
2868.04427,0.06000
2866.11553,0.06035
2864.18678,0.06096
2862.25804,0.06147
2860.32929,0.06177
2858.40055,0.06192
2856.47180,0.06198
2854.54305,0.06216
2852.61431,0.06261
2850.68556,0.06334
2848.75682,0.06441
2846.82807,0.06591
2844.89933,0.06759
2842.97058,0.06905
2841.04184,0.07038
2839.11309,0.07176
2837.18435,0.07308
2835.25560,0.07434
2833.32686,0.07557
2831.39811,0.07662
2829.46937,0.07754
2827.54062,0.07867
2825.61188,0.08003
2823.68313,0.08138
2821.75438,0.08250
2819.82564,0.08344
2817.89689,0.08431
2815.96815,0.08503
2814.03940,0.08583
2812.11066,0.08695
2810.18191,0.08798
2808.25317,0.08868
2806.32442,0.08923
2804.39568,0.08978
2802.46693,0.09048
2800.53819,0.09125
2798.60944,0.09187
2796.68070,0.09247
2794.75195,0.09312
2792.82320,0.09365
2790.89446,0.09414
2788.96571,0.09461
2787.03697,0.09493
2785.10822,0.09523
2783.17948,0.09569
2781.25073,0.09613
2779.32199,0.09642
2777.39324,0.09671
2775.46450,0.09699
2773.53575,0.09719
2771.60701,0.09737
2769.67826,0.09745
2767.74952,0.09748
2765.82077,0.09769
2763.89203,0.09817
2761.96328,0.09877
2760.03453,0.09921
2758.10579,0.09942
2756.17704,0.09955
2754.24830,0.09965
2752.31955,0.09971
2750.39081,0.09981
2748.46206,0.10010
2746.53332,0.10047
2744.60457,0.10069
2742.67583,0.10055
2740.74708,0.10032
2738.81834,0.10041
2736.88959,0.10078
2734.96085,0.10110
2733.03210,0.10141
2731.10336,0.10183
2729.17461,0.10226
2727.24586,0.10270
2725.31712,0.10306
2723.38837,0.10328
2721.45963,0.10365
2719.53088,0.10417
2717.60214,0.10455
2715.67339,0.10493
2713.74465,0.10536
2711.81590,0.10563
2709.88716,0.10587
2707.95841,0.10619
2706.02967,0.10658
2704.10092,0.10712
2702.17218,0.10786
2700.24343,0.10856
2698.31468,0.10900
2696.38594,0.10928
2694.45719,0.10965
2692.52845,0.11019
2690.59970,0.11078
2688.67096,0.11125
2686.74221,0.11152
2684.81347,0.11168
2682.88472,0.11193
2680.95598,0.11236
2679.02723,0.11286
2677.09849,0.11340
2675.16974,0.11390
2673.24100,0.11420
2671.31225,0.11447
2669.38351,0.11496
2667.45476,0.11556
2665.52601,0.11601
2663.59727,0.11628
2661.66852,0.11651
2659.73978,0.11671
2657.81103,0.11682
2655.88229,0.11698
2653.95354,0.11743
2652.02480,0.11798
2650.09605,0.11843
2648.16731,0.11885
2646.23856,0.11926
2644.30982,0.11957
2642.38107,0.11979
2640.45233,0.11999
2638.52358,0.12037
2636.59484,0.12105
2634.66609,0.12173
2632.73734,0.12212
2630.80860,0.12234
2628.87985,0.12254
2626.95111,0.12283
2625.02236,0.12325
2623.09362,0.12367
2621.16487,0.12411
2619.23613,0.12459
2617.30738,0.12502
2615.37864,0.12539
2613.44989,0.12564
2611.52115,0.12578
2609.59240,0.12595
2607.66366,0.12624
2605.73491,0.12654
2603.80616,0.12684
2601.87742,0.12728
2599.94867,0.12781
2598.01993,0.12833
2596.09118,0.12877
2594.16244,0.12900
2592.23369,0.12913
2590.30495,0.12949
2588.37620,0.12996
2586.44746,0.13025
2584.51871,0.13042
2582.58997,0.13057
2580.66122,0.13076
2578.73248,0.13111
2576.80373,0.13153
2574.87499,0.13180
2572.94624,0.13192
2571.01749,0.13207
2569.08875,0.13223
2567.16000,0.13229
2565.23126,0.13239
2563.30251,0.13264
2561.37377,0.13285
2559.44502,0.13281
2557.51628,0.13268
2555.58753,0.13274
2553.65879,0.13293
2551.73004,0.13307
2549.80130,0.13311
2547.87255,0.13316
2545.94381,0.13335
2544.01506,0.13362
2542.08631,0.13379
2540.15757,0.13383
2538.22882,0.13394
2536.30008,0.13416
2534.37133,0.13438
2532.44259,0.13466
2530.51384,0.13512
2528.58510,0.13566
2526.65635,0.13615
2524.72761,0.13661
2522.79886,0.13701
2520.87012,0.13715
2518.94137,0.13721
2517.01263,0.13752
2515.08388,0.13799
2513.15514,0.13849
2511.22639,0.13902
2509.29764,0.13943
2507.36890,0.13981
2505.44015,0.14051
2503.51141,0.14130
2501.58266,0.14178
2499.65392,0.14220
2497.72517,0.14284
2495.79643,0.14350
2493.86768,0.14392
2491.93894,0.14427
2490.01019,0.14479
2488.08145,0.14545
2486.15270,0.14606
2484.22396,0.14645
2482.29521,0.14667
2480.36647,0.14708
2478.43772,0.14780
2476.50897,0.14845
2474.58023,0.14897
2472.65148,0.14950
2470.72274,0.14988
2468.79399,0.15015
2466.86525,0.15052
2464.93650,0.15095
2463.00776,0.15143
2461.07901,0.15194
2459.15027,0.15236
2457.22152,0.15271
2455.29278,0.15314
2453.36403,0.15381
2451.43529,0.15461
2449.50654,0.15529
2447.57779,0.15570
2445.64905,0.15608
2443.72030,0.15671
2441.79156,0.15739
2439.86281,0.15788
2437.93407,0.15838
2436.00532,0.15901
2434.07658,0.15956
2432.14783,0.16005
2430.21909,0.16064
2428.29034,0.16127
2426.36160,0.16189
2424.43285,0.16262
2422.50411,0.16346
2420.57536,0.16439
2418.64662,0.16534
2416.71787,0.16614
2414.78912,0.16677
2412.86038,0.16736
2410.93163,0.16792
2409.00289,0.16852
2407.07414,0.16928
2405.14540,0.17011
2403.21665,0.17087
2401.28791,0.17158
2399.35916,0.17231
2397.43042,0.17301
2395.50167,0.17362
2393.57293,0.17421
2391.64418,0.17488
2389.71544,0.17557
2387.78669,0.17620
2385.85795,0.17681
2383.92920,0.17750
2382.00045,0.17827
2380.07171,0.17904
2378.14296,0.17961
2376.21422,0.17999
2374.28547,0.18047
2372.35673,0.18102
2370.42798,0.18141
2368.49924,0.18189
2366.57049,0.18254
2364.64175,0.18296
2362.71300,0.18317
2360.78426,0.18365
2358.85551,0.18441
2356.92677,0.18491
2354.99802,0.18499
2353.06927,0.18504
2351.14053,0.18529
2349.21178,0.18563
2347.28304,0.18591
2345.35429,0.18611
2343.42555,0.18641
2341.49680,0.18688
2339.56806,0.18720
2337.63931,0.18738
2335.71057,0.18766
2333.78182,0.18794
2331.85308,0.18803
2329.92433,0.18804
2327.99559,0.18808
2326.06684,0.18824
2324.13810,0.18848
2322.20935,0.18861
2320.28060,0.18857
2318.35186,0.18851
2316.42311,0.18850
2314.49437,0.18856
2312.56562,0.18871
2310.63688,0.18893
2308.70813,0.18904
2306.77939,0.18884
2304.85064,0.18854
2302.92190,0.18842
2300.99315,0.18837
2299.06441,0.18818
2297.13566,0.18782
2295.20692,0.18743
2293.27817,0.18718
2291.34943,0.18711
2289.42068,0.18714
2287.49193,0.18722
2285.56319,0.18731
2283.63444,0.18729
2281.70570,0.18710
2279.77695,0.18681
2277.84821,0.18644
2275.91946,0.18606
2273.99072,0.18578
2272.06197,0.18546
2270.13323,0.18488
2268.20448,0.18426
2266.27574,0.18391
2264.34699,0.18356
2262.41825,0.18302
2260.48950,0.18254
2258.56075,0.18228
2256.63201,0.18220
2254.70326,0.18217
2252.77452,0.18200
2250.84577,0.18163
2248.91703,0.18123
2246.98828,0.18082
2245.05954,0.18039
2243.13079,0.18000
2241.20205,0.17971
2239.27330,0.17946
2237.34456,0.17912
2235.41581,0.17881
2233.48707,0.17867
2231.55832,0.17860
2229.62958,0.17847
2227.70083,0.17833
2225.77208,0.17825
2223.84334,0.17824
2221.91459,0.17826
2219.98585,0.17815
2218.05710,0.17779
2216.12836,0.17738
2214.19961,0.17713
2212.27087,0.17690
2210.34212,0.17661
2208.41338,0.17634
2206.48463,0.17604
2204.55589,0.17569
2202.62714,0.17539
2200.69840,0.17508
2198.76965,0.17464
2196.84090,0.17409
2194.91216,0.17343
2192.98341,0.17282
2191.05467,0.17229
2189.12592,0.17171
2187.19718,0.17112
2185.26843,0.17059
2183.33969,0.16994
2181.41094,0.16916
2179.48220,0.16849
2177.55345,0.16803
2175.62471,0.16753
2173.69596,0.16686
2171.76722,0.16627
2169.83847,0.16593
2167.90973,0.16550
2165.98098,0.16479
2164.05223,0.16413
2162.12349,0.16377
2160.19474,0.16364
2158.26600,0.16356
2156.33725,0.16332
2154.40851,0.16300
2152.47976,0.16278
2150.55102,0.16263
2148.62227,0.16249
2146.69353,0.16229
2144.76478,0.16190
2142.83604,0.16151
2140.90729,0.16133
2138.97855,0.16131
2137.04980,0.16132
2135.12106,0.16134
2133.19231,0.16145
2131.26356,0.16167
2129.33482,0.16192
2127.40607,0.16208
2125.47733,0.16218
2123.54858,0.16226
2121.61984,0.16245
2119.69109,0.16275
2117.76235,0.16300
2115.83360,0.16315
2113.90486,0.16339
2111.97611,0.16364
2110.04737,0.16378
2108.11862,0.16392
2106.18988,0.16415
2104.26113,0.16441
2102.33238,0.16463
2100.40364,0.16474
2098.47489,0.16490
2096.54615,0.16516
2094.61740,0.16543
2092.68866,0.16563
2090.75991,0.16562
2088.83117,0.16536
2086.90242,0.16511
2084.97368,0.16501
2083.04493,0.16488
2081.11619,0.16462
2079.18744,0.16427
2077.25870,0.16386
2075.32995,0.16353
2073.40121,0.16336
2071.47246,0.16316
2069.54371,0.16279
2067.61497,0.16247
2065.68622,0.16234
2063.75748,0.16222
2061.82873,0.16201
2059.89999,0.16182
2057.97124,0.16167
2056.04250,0.16147
2054.11375,0.16130
2052.18501,0.16125
2050.25626,0.16140
2048.32752,0.16175
2046.39877,0.16210
2044.47003,0.16239
2042.54128,0.16268
2040.61254,0.16293
2038.68379,0.16332
2036.75504,0.16401
2034.82630,0.16474
2032.89755,0.16533
2030.96881,0.16583
2029.04006,0.16620
2027.11132,0.16651
2025.18257,0.16705
2023.25383,0.16785
2021.32508,0.16866
2019.39634,0.16936
2017.46759,0.16992
2015.53885,0.17032
2013.61010,0.17065
2011.68136,0.17094
2009.75261,0.17116
2007.82386,0.17144
2005.89512,0.17184
2003.96637,0.17230
2002.03763,0.17265
2000.10888,0.17286
1998.18014,0.17322
1996.25139,0.17378
1994.32265,0.17424
1992.39390,0.17452
1990.46516,0.17473
1988.53641,0.17498
1986.60767,0.17526
1984.67892,0.17551
1982.75018,0.17577
1980.82143,0.17608
1978.89269,0.17633
1976.96394,0.17658
1975.03519,0.17688
1973.10645,0.17718
1971.17770,0.17748
1969.24896,0.17780
1967.32021,0.17803
1965.39147,0.17821
1963.46272,0.17857
1961.53398,0.17904
1959.60523,0.17952
1957.67649,0.18006
1955.74774,0.18047
1953.81900,0.18068
1951.89025,0.18100
1949.96151,0.18154
1948.03276,0.18215
1946.10402,0.18270
1944.17527,0.18306
1942.24652,0.18326
1940.31778,0.18344
1938.38903,0.18377
1936.46029,0.18416
1934.53154,0.18443
1932.60280,0.18458
1930.67405,0.18468
1928.74531,0.18475
1926.81656,0.18489
1924.88782,0.18506
1922.95907,0.18505
1921.03033,0.18491
1919.10158,0.18490
1917.17284,0.18498
1915.24409,0.18491
1913.31534,0.18461
1911.38660,0.18418
1909.45785,0.18376
1907.52911,0.18353
1905.60036,0.18344
1903.67162,0.18327
1901.74287,0.18312
1899.81413,0.18297
1897.88538,0.18260
1895.95664,0.18211
1894.02789,0.18173
1892.09915,0.18144
1890.17040,0.18114
1888.24166,0.18088
1886.31291,0.18071
1884.38417,0.18053
1882.45542,0.18033
1880.52667,0.18016
1878.59793,0.17995
1876.66918,0.17964
1874.74044,0.17929
1872.81169,0.17899
1870.88295,0.17882
1868.95420,0.17858
1867.02546,0.17813
1865.09671,0.17768
1863.16797,0.17736
1861.23922,0.17710
1859.31048,0.17679
1857.38173,0.17634
1855.45299,0.17570
1853.52424,0.17492
1851.59549,0.17414
1849.66675,0.17343
1847.73800,0.17286
1845.80926,0.17238
1843.88051,0.17163
1841.95177,0.17058
1840.02302,0.16962
1838.09428,0.16891
1836.16553,0.16829
1834.23679,0.16742
1832.30804,0.16635
1830.37930,0.16531
1828.45055,0.16425
1826.52181,0.16310
1824.59306,0.16184
1822.66432,0.16050
1820.73557,0.15909
1818.80682,0.15762
1816.87808,0.15605
1814.94933,0.15444
1813.02059,0.15282
1811.09184,0.15116
1809.16310,0.14951
1807.23435,0.14784
1805.30561,0.14609
1803.37686,0.14414
1801.44812,0.14199
1799.51937,0.13992
1797.59063,0.13803
1795.66188,0.13604
1793.73314,0.13361
1791.80439,0.13073
1789.87565,0.12785
1787.94690,0.12521
1786.01815,0.12254
1784.08941,0.11967
1782.16066,0.11672
1780.23192,0.11379
1778.30317,0.11077
1776.37443,0.10768
1774.44568,0.10447
1772.51694,0.10082
1770.58819,0.09687
1768.65945,0.09297
1766.73070,0.08904
1764.80196,0.08523
1762.87321,0.08133
1760.94447,0.07722
1759.01572,0.07347
1757.08697,0.07000
1755.15823,0.06674
1753.22948,0.06384
1751.30074,0.06109
1749.37199,0.05857
1747.44325,0.05666
1745.51450,0.05528
1743.58576,0.05414
1741.65701,0.05324
1739.72827,0.05268
1737.79952,0.05248
1735.87078,0.05251
1733.94203,0.05255
1732.01329,0.05231
1730.08454,0.05192
1728.15580,0.05166
1726.22705,0.05163
1724.29830,0.05180
1722.36956,0.05212
1720.44081,0.05247
1718.51207,0.05271
1716.58332,0.05277
1714.65458,0.05274
1712.72583,0.05262
1710.79709,0.05241
1708.86834,0.05228
1706.93960,0.05208
1705.01085,0.05162
1703.08211,0.05108
1701.15336,0.05040
1699.22462,0.04938
1697.29587,0.04841
1695.36713,0.04740
1693.43838,0.04635
1691.50963,0.04555
1689.58089,0.04482
1687.65214,0.04404
1685.72340,0.04308
1683.79465,0.04178
1681.86591,0.04077
1679.93716,0.04032
1678.00842,0.03998
1676.07967,0.03940
1674.15093,0.03879
1672.22218,0.03862
1670.29344,0.03876
1668.36469,0.03881
1666.43595,0.03887
1664.50720,0.03908
1662.57845,0.03941
1660.64971,0.03992
1658.72096,0.04053
1656.79222,0.04115
1654.86347,0.04184
1652.93473,0.04243
1651.00598,0.04278
1649.07724,0.04324
1647.14849,0.04372
1645.21975,0.04400
1643.29100,0.04427
1641.36226,0.04463
1639.43351,0.04502
1637.50477,0.04535
1635.57602,0.04559
1633.64728,0.04571
1631.71853,0.04561
1629.78978,0.04540
1627.86104,0.04533
1625.93229,0.04537
1624.00355,0.04531
1622.07480,0.04507
1620.14606,0.04488
1618.21731,0.04486
1616.28857,0.04480
1614.35982,0.04466
1612.43108,0.04459
1610.50233,0.04454
1608.57359,0.04447
1606.64484,0.04443
1604.71610,0.04453
1602.78735,0.04487
1600.85861,0.04531
1598.92986,0.04561
1597.00111,0.04561
1595.07237,0.04560
1593.14362,0.04594
1591.21488,0.04653
1589.28613,0.04716
1587.35739,0.04757
1585.42864,0.04772
1583.49990,0.04803
1581.57115,0.04866
1579.64241,0.04937
1577.71366,0.05001
1575.78492,0.05050
1573.85617,0.05101
1571.92743,0.05169
1569.99868,0.05225
1568.06993,0.05239
1566.14119,0.05227
1564.21244,0.05226
1562.28370,0.05249
1560.35495,0.05263
1558.42621,0.05228
1556.49746,0.05193
1554.56872,0.05181
1552.63997,0.05176
1550.71123,0.05181
1548.78248,0.05188
1546.85374,0.05187
1544.92499,0.05189
1542.99625,0.05204
1541.06750,0.05231
1539.13876,0.05231
1537.21001,0.05201
1535.28126,0.05176
1533.35252,0.05155
1531.42377,0.05126
1529.49503,0.05086
1527.56628,0.05015
1525.63754,0.04921
1523.70879,0.04825
1521.78005,0.04713
1519.85130,0.04589
1517.92256,0.04488
1515.99381,0.04408
1514.06507,0.04366
1512.13632,0.04377
1510.20758,0.04431
1508.27883,0.04514
1506.35008,0.04606
1504.42134,0.04681
1502.49259,0.04751
1500.56385,0.04840
1498.63510,0.04951
1496.70636,0.05048
1494.77761,0.05106
1492.84887,0.05140
1490.92012,0.05157
1488.99138,0.05155
1487.06263,0.05134
1485.13389,0.05096
1483.20514,0.05046
1481.27640,0.04992
1479.34765,0.04930
1477.41891,0.04851
1475.49016,0.04751
1473.56141,0.04629
1471.63267,0.04500
1469.70392,0.04410
1467.77518,0.04366
1465.84643,0.04344
1463.91769,0.04329
1461.98894,0.04329
1460.06020,0.04338
1458.13145,0.04335
1456.20271,0.04322
1454.27396,0.04321
1452.34522,0.04328
1450.41647,0.04342
1448.48773,0.04358
1446.55898,0.04358
1444.63024,0.04360
1442.70149,0.04367
1440.77274,0.04359
1438.84400,0.04328
1436.91525,0.04288
1434.98651,0.04256
1433.05776,0.04248
1431.12902,0.04249
1429.20027,0.04256
1427.27153,0.04281
1425.34278,0.04323
1423.41404,0.04360
1421.48529,0.04386
1419.55655,0.04409
1417.62780,0.04436
1415.69906,0.04467
1413.77031,0.04508
1411.84156,0.04550
1409.91282,0.04577
1407.98407,0.04580
1406.05533,0.04564
1404.12658,0.04536
1402.19784,0.04509
1400.26909,0.04477
1398.34035,0.04433
1396.41160,0.04387
1394.48286,0.04348
1392.55411,0.04303
1390.62537,0.04247
1388.69662,0.04189
1386.76788,0.04133
1384.83913,0.04086
1382.91039,0.04062
1380.98164,0.04056
1379.05289,0.04048
1377.12415,0.04040
1375.19540,0.04037
1373.26666,0.04044
1371.33791,0.04065
1369.40917,0.04091
1367.48042,0.04115
1365.55168,0.04134
1363.62293,0.04149
1361.69419,0.04167
1359.76544,0.04187
1357.83670,0.04194
1355.90795,0.04194
1353.97921,0.04218
1352.05046,0.04255
1350.12172,0.04266
1348.19297,0.04246
1346.26422,0.04224
1344.33548,0.04211
1342.40673,0.04196
1340.47799,0.04170
1338.54924,0.04150
1336.62050,0.04150
1334.69175,0.04161
1332.76301,0.04174
1330.83426,0.04180
1328.90552,0.04170
1326.97677,0.04156
1325.04803,0.04149
1323.11928,0.04137
1321.19054,0.04116
1319.26179,0.04103
1317.33304,0.04112
1315.40430,0.04135
1313.47555,0.04160
1311.54681,0.04188
1309.61806,0.04215
1307.68932,0.04228
1305.76057,0.04230
1303.83183,0.04229
1301.90308,0.04220
1299.97434,0.04200
1298.04559,0.04171
1296.11685,0.04132
1294.18810,0.04089
1292.25936,0.04061
1290.33061,0.04042
1288.40187,0.03992
1286.47312,0.03911
1284.54437,0.03849
1282.61563,0.03829
1280.68688,0.03829
1278.75814,0.03832
1276.82939,0.03832
1274.90065,0.03818
1272.97190,0.03800
1271.04316,0.03801
1269.11441,0.03829
1267.18567,0.03877
1265.25692,0.03922
1263.32818,0.03958
1261.39943,0.03982
1259.47069,0.03985
1257.54194,0.03992
1255.61320,0.04025
1253.68445,0.04055
1251.75570,0.04063
1249.82696,0.04075
1247.89821,0.04099
1245.96947,0.04118
1244.04072,0.04124
1242.11198,0.04113
1240.18323,0.04095
1238.25449,0.04092
1236.32574,0.04096
1234.39700,0.04096
1232.46825,0.04110
1230.53951,0.04132
1228.61076,0.04145
1226.68202,0.04158
1224.75327,0.04180
1222.82452,0.04205
1220.89578,0.04231
1218.96703,0.04247
1217.03829,0.04247
1215.10954,0.04237
1213.18080,0.04218
1211.25205,0.04209
1209.32331,0.04212
1207.39456,0.04205
1205.46582,0.04199
1203.53707,0.04215
1201.60833,0.04232
1199.67958,0.04228
1197.75084,0.04200
1195.82209,0.04162
1193.89335,0.04133
1191.96460,0.04114
1190.03585,0.04088
1188.10711,0.04042
1186.17836,0.03978
1184.24962,0.03903
1182.32087,0.03809
1180.39213,0.03716
1178.46338,0.03646
1176.53464,0.03583
1174.60589,0.03523
1172.67715,0.03481
1170.74840,0.03470
1168.81966,0.03485
1166.89091,0.03525
1164.96217,0.03593
1163.03342,0.03668
1161.10467,0.03731
1159.17593,0.03787
1157.24718,0.03818
1155.31844,0.03804
1153.38969,0.03765
1151.46095,0.03739
1149.53220,0.03727
1147.60346,0.03705
1145.67471,0.03666
1143.74597,0.03634
1141.81722,0.03615
1139.88848,0.03588
1137.95973,0.03552
1136.03099,0.03534
1134.10224,0.03536
1132.17350,0.03518
1130.24475,0.03479
1128.31600,0.03456
1126.38726,0.03449
1124.45851,0.03440
1122.52977,0.03434
1120.60102,0.03448
1118.67228,0.03476
1116.74353,0.03502
1114.81479,0.03545
1112.88604,0.03607
1110.95730,0.03660
1109.02855,0.03701
1107.09981,0.03743
1105.17106,0.03774
1103.24232,0.03783
1101.31357,0.03767
1099.38483,0.03749
1097.45608,0.03746
1095.52733,0.03738
1093.59859,0.03721
1091.66984,0.03717
1089.74110,0.03722
1087.81235,0.03714
1085.88361,0.03715
1083.95486,0.03744
1082.02612,0.03786
1080.09737,0.03839
1078.16863,0.03917
1076.23988,0.04010
1074.31114,0.04082
1072.38239,0.04130
1070.45365,0.04223
1068.52490,0.04361
1066.59615,0.04490
1064.66741,0.04632
1062.73866,0.04796
1060.80992,0.04910
1058.88117,0.04979
1056.95243,0.05068
1055.02368,0.05158
1053.09494,0.05198
1051.16619,0.05203
1049.23745,0.05201
1047.30870,0.05176
1045.37996,0.05122
1043.45121,0.05085
1041.52247,0.05133
1039.59372,0.05276
1037.66498,0.05439
1035.73623,0.05552
1033.80748,0.05622
1031.87874,0.05683
1029.94999,0.05741
1028.02125,0.05787
1026.09250,0.05822
1024.16376,0.05844
1022.23501,0.05864
1020.30627,0.05894
1018.37752,0.05926
1016.44878,0.05971
1014.52003,0.06021
1012.59129,0.06043
1010.66254,0.06037
1008.73380,0.06030
1006.80505,0.06036
1004.87631,0.06038
1002.94756,0.06043
1001.01881,0.06085
999.09007,0.06141
997.16132,0.06174
995.23258,0.06197
993.30383,0.06230
991.37509,0.06284
989.44634,0.06356
987.51760,0.06434
985.58885,0.06518
983.66011,0.06621
981.73136,0.06727
979.80262,0.06808
977.87387,0.06871
975.94513,0.06937
974.01638,0.06992
972.08763,0.07024
970.15889,0.07057
968.23014,0.07108
966.30140,0.07155
964.37265,0.07190
962.44391,0.07230
960.51516,0.07277
958.58642,0.07310
956.65767,0.07335
954.72893,0.07379
952.80018,0.07442
950.87144,0.07490
948.94269,0.07512
947.01395,0.07533
945.08520,0.07565
943.15646,0.07593
941.22771,0.07630
939.29896,0.07699
937.37022,0.07764
935.44147,0.07781
933.51273,0.07763
931.58398,0.07761
929.65524,0.07801
927.72649,0.07852
925.79775,0.07876
923.86900,0.07859
921.94026,0.07811
920.01151,0.07755
918.08277,0.07701
916.15402,0.07640
914.22528,0.07565
912.29653,0.07481
910.36779,0.07385
908.43904,0.07272
906.51029,0.07154
904.58155,0.07049
902.65280,0.06971
900.72406,0.06906
898.79531,0.06857
896.86657,0.06857
894.93782,0.06909
893.00908,0.06975
891.08033,0.07042
889.15159,0.07106
887.22284,0.07156
885.29410,0.07182
883.36535,0.07181
881.43661,0.07171
879.50786,0.07169
877.57911,0.07166
875.65037,0.07163
873.72162,0.07174
871.79288,0.07199
869.86413,0.07225
867.93539,0.07219
866.00664,0.07171
864.07790,0.07140
862.14915,0.07182
860.22041,0.07263
858.29166,0.07301
856.36292,0.07297
854.43417,0.07318
852.50543,0.07363
850.57668,0.07393
848.64794,0.07410
846.71919,0.07414
844.79044,0.07397
842.86170,0.07351
840.93295,0.07284
839.00421,0.07238
837.07546,0.07231
835.14672,0.07223
833.21797,0.07170
831.28923,0.07089
829.36048,0.07011
827.43174,0.06933
825.50299,0.06857
823.57425,0.06795
821.64550,0.06728
819.71676,0.06631
817.78801,0.06509
815.85926,0.06390
813.93052,0.06314
812.00177,0.06321
810.07303,0.06385
808.14428,0.06417
806.21554,0.06408
804.28679,0.06418
802.35805,0.06440
800.42930,0.06432
798.50056,0.06409
796.57181,0.06404
794.64307,0.06390
792.71432,0.06341
790.78558,0.06266
788.85683,0.06190
786.92809,0.06141
784.99934,0.06118
783.07059,0.06104
781.14185,0.06077
779.21310,0.06026
777.28436,0.05988
775.35561,0.05974
773.42687,0.05960
771.49812,0.05952
769.56938,0.05947
767.64063,0.05935
765.71189,0.05923
763.78314,0.05899
761.85440,0.05857
759.92565,0.05815
757.99691,0.05776
756.06816,0.05738
754.13942,0.05704
752.21067,0.05686
750.28192,0.05696
748.35318,0.05706
746.42443,0.05681
744.49569,0.05614
742.56694,0.05519
740.63820,0.05430
738.70945,0.05375
736.78071,0.05370
734.85196,0.05401
732.92322,0.05388
730.99447,0.05309
729.06573,0.05234
727.13698,0.05194
725.20824,0.05171
723.27949,0.05153
721.35074,0.05135
719.42200,0.05118
717.49325,0.05092
715.56451,0.05049
713.63576,0.04996
711.70702,0.04952
709.77827,0.04942
707.84953,0.04957
705.92078,0.04933
703.99204,0.04883
702.06329,0.04872
700.13455,0.04878
698.20580,0.04863
696.27706,0.04846
694.34831,0.04815
692.41957,0.04773
690.49082,0.04756
688.56207,0.04758
686.63333,0.04748
684.70458,0.04710
682.77584,0.04673
680.84709,0.04661
678.91835,0.04640
676.98960,0.04618
675.06086,0.04608
673.13211,0.04580
671.20337,0.04523
669.27462,0.04480
667.34588,0.04499
665.41713,0.04552
663.48839,0.04589
661.55964,0.04603
659.63090,0.04609
657.70215,0.04608
655.77340,0.04599
653.84466,0.04628
651.91591,0.04683
649.98717,0.04659
648.05842,0.04551
646.12968,0.04518
644.20093,0.04618
642.27219,0.04699
640.34344,0.04669
638.41470,0.04603
636.48595,0.04563
634.55721,0.04526
632.62846,0.04458
630.69972,0.04406
628.77097,0.04480
626.84222,0.04663
624.91348,0.04754
622.98473,0.04654
621.05599,0.04512
619.12724,0.04462
617.19850,0.04491
615.26975,0.04574
613.34101,0.04687
611.41226,0.04778
609.48352,0.04829
607.55477,0.04862
605.62603,0.04879
603.69728,0.04845
601.76854,0.04762
599.83979,0.04715
