7497.03301,0.72785
7495.10426,0.72740
7493.17552,0.72992
7491.24677,0.73157
7489.31803,0.73067
7487.38928,0.72699
7485.46054,0.72242
7483.53179,0.71995
7481.60305,0.71755
7479.67430,0.71513
7477.74556,0.71565
7475.81681,0.71650
7473.88807,0.71544
7471.95932,0.71371
7470.03057,0.71177
7468.10183,0.71067
7466.17308,0.70899
7464.24434,0.70332
7462.31559,0.69793
7460.38685,0.69793
7458.45810,0.70107
7456.52936,0.70613
7454.60061,0.71228
7452.67187,0.71598
7450.74312,0.71640
7448.81438,0.71410
7446.88563,0.71044
7444.95689,0.70831
7443.02814,0.70801
7441.09940,0.70676
7439.17065,0.70441
7437.24190,0.70330
7435.31316,0.70272
7433.38441,0.70095
7431.45567,0.69909
7429.52692,0.69823
7427.59818,0.69769
7425.66943,0.69907
7423.74069,0.70290
7421.81194,0.70335
7419.88320,0.69853
7417.95445,0.69423
7416.02571,0.69387
7414.09696,0.69522
7412.16822,0.69558
7410.23947,0.69402
7408.31073,0.68955
7406.38198,0.68524
7404.45323,0.68610
7402.52449,0.68933
7400.59574,0.69083
7398.66700,0.69237
7396.73825,0.69324
7394.80951,0.68930
7392.88076,0.68364
7390.95202,0.68326
7389.02327,0.68629
7387.09453,0.68690
7385.16578,0.68725
7383.23704,0.69001
7381.30829,0.69125
7379.37955,0.69107
7377.45080,0.69238
7375.52205,0.69160
7373.59331,0.68674
7371.66456,0.68066
7369.73582,0.67456
7367.80707,0.67019
7365.87833,0.66948
7363.94958,0.67151
7362.02084,0.67319
7360.09209,0.67132
7358.16335,0.66719
7356.23460,0.66754
7354.30586,0.67649
7352.37711,0.68611
7350.44837,0.68639
7348.51962,0.68291
7346.59088,0.68396
7344.66213,0.68451
7342.73338,0.67958
7340.80464,0.67238
7338.87589,0.66773
7336.94715,0.66821
7335.01840,0.66932
7333.08966,0.66727
7331.16091,0.66800
7329.23217,0.67296
7327.30342,0.67530
7325.37468,0.67407
7323.44593,0.67145
7321.51719,0.66860
7319.58844,0.66853
7317.65970,0.67087
7315.73095,0.67223
7313.80221,0.67278
7311.87346,0.67303
7309.94471,0.67192
7308.01597,0.67103
7306.08722,0.67034
7304.15848,0.66811
7302.22973,0.66646
7300.30099,0.66681
7298.37224,0.66920
7296.44350,0.67297
7294.51475,0.67417
7292.58601,0.67255
7290.65726,0.67048
7288.72852,0.66756
7286.79977,0.66560
7284.87103,0.66639
7282.94228,0.66805
7281.01353,0.66783
7279.08479,0.66470
7277.15604,0.66077
7275.22730,0.65806
7273.29855,0.65797
7271.36981,0.65956
7269.44106,0.65808
7267.51232,0.65449
7265.58357,0.65384
7263.65483,0.65566
7261.72608,0.65855
7259.79734,0.66271
7257.86859,0.66415
7255.93985,0.65898
7254.01110,0.65212
7252.08236,0.65197
7250.15361,0.65876
7248.22486,0.66348
7246.29612,0.66310
7244.36737,0.66386
7242.43863,0.66529
7240.50988,0.66472
7238.58114,0.66373
7236.65239,0.66034
7234.72365,0.65527
7232.79490,0.65358
7230.86616,0.65645
7228.93741,0.66137
7227.00867,0.66521
7225.07992,0.66689
7223.15118,0.66754
7221.22243,0.66619
7219.29369,0.66254
7217.36494,0.66094
7215.43619,0.66175
7213.50745,0.66072
7211.57870,0.65799
7209.64996,0.65551
7207.72121,0.65327
7205.79247,0.65267
7203.86372,0.65430
7201.93498,0.65471
7200.00623,0.65356
7198.07749,0.65403
7196.14874,0.65535
7194.22000,0.65601
7192.29125,0.65574
7190.36251,0.65388
7188.43376,0.65094
7186.50501,0.64822
7184.57627,0.64702
7182.64752,0.64697
7180.71878,0.64567
7178.79003,0.64391
7176.86129,0.64466
7174.93254,0.64660
7173.00380,0.64726
7171.07505,0.64730
7169.14631,0.64620
7167.21756,0.64245
7165.28882,0.63937
7163.36007,0.64026
7161.43133,0.64103
7159.50258,0.63900
7157.57384,0.63709
7155.64509,0.63639
7153.71634,0.63668
7151.78760,0.63756
7149.85885,0.63810
7147.93011,0.63864
7146.00136,0.63933
7144.07262,0.63869
7142.14387,0.63637
7140.21513,0.63560
7138.28638,0.63695
7136.35764,0.63674
7134.42889,0.63407
7132.50015,0.62945
7130.57140,0.62441
7128.64266,0.62260
7126.71391,0.62396
7124.78516,0.62500
7122.85642,0.62530
7120.92767,0.62596
7118.99893,0.62579
7117.07018,0.62475
7115.14144,0.62382
7113.21269,0.62112
7111.28395,0.61668
7109.35520,0.61448
7107.42646,0.61411
7105.49771,0.61183
7103.56897,0.61035
7101.64022,0.61247
7099.71148,0.61315
7097.78273,0.61040
7095.85399,0.60735
7093.92524,0.60476
7091.99649,0.60381
7090.06775,0.60388
7088.13900,0.60106
7086.21026,0.59585
7084.28151,0.59164
7082.35277,0.59081
7080.42402,0.59462
7078.49528,0.59842
7076.56653,0.59598
7074.63779,0.58984
7072.70904,0.58609
7070.78030,0.58586
7068.85155,0.58683
7066.92281,0.58594
7064.99406,0.58345
7063.06532,0.58235
7061.13657,0.58272
7059.20782,0.58235
7057.27908,0.58020
7055.35033,0.57797
7053.42159,0.57710
7051.49284,0.57511
7049.56410,0.57066
7047.63535,0.56602
7045.70661,0.56332
7043.77786,0.56330
7041.84912,0.56341
7039.92037,0.56102
7037.99163,0.55811
7036.06288,0.55650
7034.13414,0.55580
7032.20539,0.55596
7030.27664,0.55578
7028.34790,0.55304
7026.41915,0.54881
7024.49041,0.54594
7022.56166,0.54488
7020.63292,0.54571
7018.70417,0.54689
7016.77543,0.54543
7014.84668,0.54295
7012.91794,0.54278
7010.98919,0.54419
7009.06045,0.54407
7007.13170,0.54144
7005.20296,0.53818
7003.27421,0.53551
7001.34547,0.53366
6999.41672,0.53307
6997.48797,0.53409
6995.55923,0.53559
6993.63048,0.53580
6991.70174,0.53488
6989.77299,0.53381
6987.84425,0.53283
6985.91550,0.53173
6983.98676,0.53036
6982.05801,0.52818
6980.12927,0.52524
6978.20052,0.52383
6976.27178,0.52343
6974.34303,0.52150
6972.41429,0.51955
6970.48554,0.51938
6968.55680,0.52059
6966.62805,0.52259
6964.69930,0.52281
6962.77056,0.52003
6960.84181,0.51821
6958.91307,0.51855
6956.98432,0.51798
6955.05558,0.51657
6953.12683,0.51515
6951.19809,0.51262
6949.26934,0.50955
6947.34060,0.50857
6945.41185,0.50988
6943.48311,0.51147
6941.55436,0.51304
6939.62562,0.51490
6937.69687,0.51706
6935.76812,0.51806
6933.83938,0.51658
6931.91063,0.51494
6929.98189,0.51322
6928.05314,0.50967
6926.12440,0.50788
6924.19565,0.51099
6922.26691,0.51422
6920.33816,0.51242
6918.40942,0.50782
6916.48067,0.50439
6914.55193,0.50454
6912.62318,0.50886
6910.69444,0.51288
6908.76569,0.51195
6906.83695,0.50759
6904.90820,0.50454
6902.97945,0.50457
6901.05071,0.50541
6899.12196,0.50538
6897.19322,0.50426
6895.26447,0.50255
6893.33573,0.50339
6891.40698,0.50744
6889.47824,0.50975
6887.54949,0.50916
6885.62075,0.50970
6883.69200,0.51086
6881.76326,0.50935
6879.83451,0.50640
6877.90577,0.50418
6875.97702,0.50246
6874.04828,0.50200
6872.11953,0.50284
6870.19078,0.50280
6868.26204,0.50210
6866.33329,0.50280
6864.40455,0.50380
6862.47580,0.50388
6860.54706,0.50479
6858.61831,0.50461
6856.68957,0.50024
6854.76082,0.49487
6852.83208,0.49171
6850.90333,0.49112
6848.97459,0.49430
6847.04584,0.49987
6845.11710,0.50250
6843.18835,0.50020
6841.25960,0.49682
6839.33086,0.49565
6837.40211,0.49689
6835.47337,0.49825
6833.54462,0.49834
6831.61588,0.49910
6829.68713,0.50031
6827.75839,0.49943
6825.82964,0.49709
6823.90090,0.49613
6821.97215,0.49583
6820.04341,0.49336
6818.11466,0.49091
6816.18592,0.49181
6814.25717,0.49462
6812.32843,0.49636
6810.39968,0.49578
6808.47093,0.49443
6806.54219,0.49399
6804.61344,0.49419
6802.68470,0.49450
6800.75595,0.49413
6798.82721,0.49301
6796.89846,0.49305
6794.96972,0.49476
6793.04097,0.49572
6791.11223,0.49494
6789.18348,0.49430
6787.25474,0.49402
6785.32599,0.49252
6783.39725,0.49010
6781.46850,0.48861
6779.53975,0.48869
6777.61101,0.48908
6775.68226,0.48822
6773.75352,0.48686
6771.82477,0.48698
6769.89603,0.48802
6767.96728,0.48794
6766.03854,0.48657
6764.10979,0.48531
6762.18105,0.48493
6760.25230,0.48503
6758.32356,0.48599
6756.39481,0.48769
6754.46607,0.48789
6752.53732,0.48733
6750.60858,0.48765
6748.67983,0.48601
6746.75108,0.48208
6744.82234,0.48097
6742.89359,0.48408
6740.96485,0.48657
6739.03610,0.48535
6737.10736,0.48276
6735.17861,0.48210
6733.24987,0.48368
6731.32112,0.48443
6729.39238,0.48160
6727.46363,0.47801
6725.53489,0.47880
6723.60614,0.48245
6721.67740,0.48395
6719.74865,0.48320
6717.81991,0.48192
6715.89116,0.48016
6713.96241,0.47917
6712.03367,0.48049
6710.10492,0.48269
6708.17618,0.48202
6706.24743,0.47772
6704.31869,0.47551
6702.38994,0.47848
6700.46120,0.48116
6698.53245,0.47966
6696.60371,0.47673
6694.67496,0.47604
6692.74622,0.47856
6690.81747,0.48128
6688.88873,0.48204
6686.95998,0.48321
6685.03123,0.48567
6683.10249,0.48608
6681.17374,0.48387
6679.24500,0.48236
6677.31625,0.48211
6675.38751,0.48198
6673.45876,0.48201
6671.53002,0.48193
6669.60127,0.48224
6667.67253,0.48362
6665.74378,0.48495
6663.81504,0.48498
6661.88629,0.48439
6659.95755,0.48411
6658.02880,0.48394
6656.10006,0.48450
6654.17131,0.48600
6652.24256,0.48695
6650.31382,0.48630
6648.38507,0.48549
6646.45633,0.48688
6644.52758,0.49021
6642.59884,0.49307
6640.67009,0.49294
6638.74135,0.49031
6636.81260,0.48888
6634.88386,0.48988
6632.95511,0.49132
6631.02637,0.49202
6629.09762,0.49240
6627.16888,0.49262
6625.24013,0.49261
6623.31139,0.49256
6621.38264,0.49209
6619.45389,0.49165
6617.52515,0.49197
6615.59640,0.49332
6613.66766,0.49608
6611.73891,0.49906
6609.81017,0.50017
6607.88142,0.49922
6605.95268,0.49819
6604.02393,0.49821
6602.09519,0.49830
6600.16644,0.49786
6598.23770,0.49742
6596.30895,0.49694
6594.38021,0.49652
6592.45146,0.49742
6590.52271,0.49873
6588.59397,0.49930
6586.66522,0.50153
6584.73648,0.50508
6582.80773,0.50674
6580.87899,0.50596
6578.95024,0.50431
6577.02150,0.50420
6575.09275,0.50593
6573.16401,0.50771
6571.23526,0.50939
6569.30652,0.51083
6567.37777,0.51073
6565.44903,0.50933
6563.52028,0.50835
6561.59154,0.50828
6559.66279,0.50790
6557.73404,0.50682
6555.80530,0.50718
6553.87655,0.51061
6551.94781,0.51359
6550.01906,0.51235
6548.09032,0.51016
6546.16157,0.51073
6544.23283,0.51204
6542.30408,0.51227
6540.37534,0.51213
6538.44659,0.51192
6536.51785,0.51149
6534.58910,0.51082
6532.66036,0.51052
6530.73161,0.51132
6528.80287,0.51238
6526.87412,0.51291
6524.94537,0.51397
6523.01663,0.51612
6521.08788,0.51777
6519.15914,0.51781
6517.23039,0.51659
6515.30165,0.51394
6513.37290,0.51118
6511.44416,0.51121
6509.51541,0.51370
6507.58667,0.51544
6505.65792,0.51501
6503.72918,0.51319
6501.80043,0.51093
6499.87169,0.50920
6497.94294,0.50975
6496.01419,0.51314
6494.08545,0.51703
6492.15670,0.51892
6490.22796,0.51835
6488.29921,0.51636
6486.37047,0.51462
6484.44172,0.51369
6482.51298,0.51358
6480.58423,0.51504
6478.65549,0.51665
6476.72674,0.51612
6474.79800,0.51502
6472.86925,0.51561
6470.94051,0.51689
6469.01176,0.51772
6467.08302,0.51978
6465.15427,0.52368
6463.22552,0.52524
6461.29678,0.52304
6459.36803,0.52113
6457.43929,0.52094
6455.51054,0.52123
6453.58180,0.52175
6451.65305,0.52243
6449.72431,0.52277
6447.79556,0.52255
6445.86682,0.52246
6443.93807,0.52281
6442.00933,0.52287
6440.08058,0.52218
6438.15184,0.52180
6436.22309,0.52239
6434.29434,0.52332
6432.36560,0.52454
6430.43685,0.52535
6428.50811,0.52540
6426.57936,0.52602
6424.65062,0.52705
6422.72187,0.52705
6420.79313,0.52562
6418.86438,0.52451
6416.93564,0.52490
6415.00689,0.52503
6413.07815,0.52472
6411.14940,0.52525
6409.22066,0.52518
6407.29191,0.52417
6405.36317,0.52504
6403.43442,0.52809
6401.50567,0.53016
6399.57693,0.52942
6397.64818,0.52697
6395.71944,0.52554
6393.79069,0.52660
6391.86195,0.52834
6389.93320,0.52786
6388.00446,0.52563
6386.07571,0.52531
6384.14697,0.52742
6382.21822,0.52897
6380.28948,0.52900
6378.36073,0.52829
6376.43199,0.52799
6374.50324,0.52933
6372.57450,0.53096
6370.64575,0.53087
6368.71700,0.52946
6366.78826,0.52819
6364.85951,0.52786
6362.93077,0.52829
6361.00202,0.52901
6359.07328,0.53015
6357.14453,0.53185
6355.21579,0.53246
6353.28704,0.53124
6351.35830,0.53057
6349.42955,0.53099
6347.50081,0.53171
6345.57206,0.53330
6343.64332,0.53433
6341.71457,0.53357
6339.78582,0.53209
6337.85708,0.53063
6335.92833,0.53054
6333.99959,0.53268
6332.07084,0.53462
6330.14210,0.53448
6328.21335,0.53316
6326.28461,0.53159
6324.35586,0.53029
6322.42712,0.52984
6320.49837,0.52970
6318.56963,0.52972
6316.64088,0.53071
6314.71214,0.53228
6312.78339,0.53336
6310.85465,0.53354
6308.92590,0.53279
6306.99715,0.53194
6305.06841,0.53162
6303.13966,0.53205
6301.21092,0.53406
6299.28217,0.53668
6297.35343,0.53664
6295.42468,0.53411
6293.49594,0.53324
6291.56719,0.53559
6289.63845,0.53851
6287.70970,0.53939
6285.78096,0.53848
6283.85221,0.53703
6281.92347,0.53634
6279.99472,0.53727
6278.06598,0.53831
6276.13723,0.53846
6274.20848,0.53930
6272.27974,0.54150
6270.35099,0.54376
6268.42225,0.54430
6266.49350,0.54331
6264.56476,0.54276
6262.63601,0.54239
6260.70727,0.54174
6258.77852,0.54229
6256.84978,0.54331
6254.92103,0.54266
6252.99229,0.54121
6251.06354,0.54208
6249.13480,0.54558
6247.20605,0.54772
6245.27730,0.54675
6243.34856,0.54533
6241.41981,0.54498
6239.49107,0.54535
6237.56232,0.54636
6235.63358,0.54813
6233.70483,0.55059
6231.77609,0.55367
6229.84734,0.55568
6227.91860,0.55441
6225.98985,0.55186
6224.06111,0.55156
6222.13236,0.55331
6220.20362,0.55456
6218.27487,0.55429
6216.34613,0.55362
6214.41738,0.55423
6212.48863,0.55678
6210.55989,0.55918
6208.63114,0.55888
6206.70240,0.55732
6204.77365,0.55753
6202.84491,0.55953
6200.91616,0.56088
6198.98742,0.56095
6197.05867,0.56136
6195.12993,0.56180
6193.20118,0.56136
6191.27244,0.56160
6189.34369,0.56239
6187.41495,0.56189
6185.48620,0.56146
6183.55746,0.56333
6181.62871,0.56645
6179.69996,0.56820
6177.77122,0.56821
6175.84247,0.56799
6173.91373,0.56818
6171.98498,0.56854
6170.05624,0.56871
6168.12749,0.56874
6166.19875,0.56941
6164.27000,0.57085
6162.34126,0.57192
6160.41251,0.57186
6158.48377,0.57128
6156.55502,0.57141
6154.62628,0.57194
6152.69753,0.57210
6150.76878,0.57272
6148.84004,0.57343
6146.91129,0.57262
6144.98255,0.57175
6143.05380,0.57287
6141.12506,0.57420
6139.19631,0.57433
6137.26757,0.57476
6135.33882,0.57531
6133.41008,0.57499
6131.48133,0.57459
6129.55259,0.57504
6127.62384,0.57694
6125.69510,0.57906
6123.76635,0.57885
6121.83761,0.57703
6119.90886,0.57641
6117.98011,0.57741
6116.05137,0.57830
6114.12262,0.57797
6112.19388,0.57696
6110.26513,0.57695
6108.33639,0.57829
6106.40764,0.57929
6104.47890,0.57895
6102.55015,0.57782
6100.62141,0.57717
6098.69266,0.57743
6096.76392,0.57809
6094.83517,0.57901
6092.90643,0.57968
6090.97768,0.57930
6089.04893,0.57825
6087.12019,0.57797
6085.19144,0.57931
6083.26270,0.58119
6081.33395,0.58223
6079.40521,0.58203
6077.47646,0.58166
6075.54772,0.58266
6073.61897,0.58373
6071.69023,0.58288
6069.76148,0.58064
6067.83274,0.57885
6065.90399,0.57950
6063.97525,0.58223
6062.04650,0.58365
6060.11776,0.58175
6058.18901,0.57830
6056.26026,0.57619
6054.33152,0.57609
6052.40277,0.57687
6050.47403,0.57794
6048.54528,0.57913
6046.61654,0.57980
6044.68779,0.57965
6042.75905,0.57865
6040.83030,0.57614
6038.90156,0.57308
6036.97281,0.57211
6035.04407,0.57290
6033.11532,0.57257
6031.18658,0.57083
6029.25783,0.56982
6027.32909,0.57041
6025.40034,0.57151
6023.47159,0.57164
6021.54285,0.57075
6019.61410,0.56992
6017.68536,0.56916
6015.75661,0.56794
6013.82787,0.56662
6011.89912,0.56586
6009.97038,0.56556
6008.04163,0.56539
6006.11289,0.56564
6004.18414,0.56583
6002.25540,0.56506
6000.32665,0.56350
5998.39791,0.56155
5996.46916,0.55987
5994.54041,0.55962
5992.61167,0.56075
5990.68292,0.56179
5988.75418,0.56145
5986.82543,0.55985
5984.89669,0.55827
5982.96794,0.55745
5981.03920,0.55760
5979.11045,0.55844
5977.18171,0.55821
5975.25296,0.55661
5973.32422,0.55549
5971.39547,0.55572
5969.46673,0.55609
5967.53798,0.55537
5965.60924,0.55516
5963.68049,0.55675
5961.75174,0.55811
5959.82300,0.55828
5957.89425,0.55842
5955.96551,0.55818
5954.03676,0.55749
5952.10802,0.55717
5950.17927,0.55676
5948.25053,0.55650
5946.32178,0.55721
5944.39304,0.55806
5942.46429,0.55844
5940.53555,0.55884
5938.60680,0.55925
5936.67806,0.55906
5934.74931,0.55816
5932.82057,0.55680
5930.89182,0.55594
5928.96307,0.55618
5927.03433,0.55650
5925.10558,0.55657
5923.17684,0.55663
5921.24809,0.55591
5919.31935,0.55459
5917.39060,0.55432
5915.46186,0.55539
5913.53311,0.55614
5911.60437,0.55620
5909.67562,0.55577
5907.74688,0.55414
5905.81813,0.55234
5903.88939,0.55199
5901.96064,0.55278
5900.03189,0.55379
5898.10315,0.55426
5896.17440,0.55392
5894.24566,0.55286
5892.31691,0.55114
5890.38817,0.54974
5888.45942,0.54915
5886.53068,0.54844
5884.60193,0.54782
5882.67319,0.54790
5880.74444,0.54818
5878.81570,0.54820
5876.88695,0.54790
5874.95821,0.54728
5873.02946,0.54651
5871.10072,0.54596
5869.17197,0.54617
5867.24322,0.54714
5865.31448,0.54761
5863.38573,0.54707
5861.45699,0.54682
5859.52824,0.54711
5857.59950,0.54683
5855.67075,0.54594
5853.74201,0.54515
5851.81326,0.54471
5849.88452,0.54480
5847.95577,0.54498
5846.02703,0.54414
5844.09828,0.54288
5842.16954,0.54298
5840.24079,0.54375
5838.31205,0.54357
5836.38330,0.54324
5834.45455,0.54325
5832.52581,0.54273
5830.59706,0.54174
5828.66832,0.54097
5826.73957,0.54112
5824.81083,0.54180
5822.88208,0.54174
5820.95334,0.54131
5819.02459,0.54171
5817.09585,0.54258
5815.16710,0.54245
5813.23836,0.54142
5811.30961,0.54061
5809.38087,0.53992
5807.45212,0.53923
5805.52337,0.53933
5803.59463,0.54036
5801.66588,0.54136
5799.73714,0.54216
5797.80839,0.54344
5795.87965,0.54446
5793.95090,0.54389
5792.02216,0.54225
5790.09341,0.54138
5788.16467,0.54152
5786.23592,0.54155
5784.30718,0.54142
5782.37843,0.54153
5780.44969,0.54170
5778.52094,0.54174
5776.59220,0.54158
5774.66345,0.54145
5772.73470,0.54207
5770.80596,0.54340
5768.87721,0.54355
5766.94847,0.54209
5765.01972,0.54155
5763.09098,0.54282
5761.16223,0.54431
5759.23349,0.54524
5757.30474,0.54529
5755.37600,0.54495
5753.44725,0.54502
5751.51851,0.54463
5749.58976,0.54387
5747.66102,0.54394
5745.73227,0.54427
5743.80352,0.54419
5741.87478,0.54433
5739.94603,0.54512
5738.01729,0.54584
5736.08854,0.54555
5734.15980,0.54487
5732.23105,0.54485
5730.30231,0.54511
5728.37356,0.54521
5726.44482,0.54562
5724.51607,0.54611
5722.58733,0.54595
5720.65858,0.54533
5718.72984,0.54494
5716.80109,0.54535
5714.87235,0.54630
5712.94360,0.54654
5711.01485,0.54532
5709.08611,0.54375
5707.15736,0.54359
5705.22862,0.54494
5703.29987,0.54619
5701.37113,0.54626
5699.44238,0.54561
5697.51364,0.54536
5695.58489,0.54583
5693.65615,0.54620
5691.72740,0.54572
5689.79866,0.54452
5687.86991,0.54348
5685.94117,0.54318
5684.01242,0.54326
5682.08368,0.54333
5680.15493,0.54363
5678.22618,0.54386
5676.29744,0.54347
5674.36869,0.54321
5672.43995,0.54389
5670.51120,0.54517
5668.58246,0.54609
5666.65371,0.54563
5664.72497,0.54460
5662.79622,0.54465
5660.86748,0.54555
5658.93873,0.54627
5657.00999,0.54628
5655.08124,0.54584
5653.15250,0.54536
5651.22375,0.54466
5649.29500,0.54398
5647.36626,0.54413
5645.43751,0.54486
5643.50877,0.54480
5641.58002,0.54383
5639.65128,0.54352
5637.72253,0.54478
5635.79379,0.54601
5633.86504,0.54585
5631.93630,0.54594
5630.00755,0.54676
5628.07881,0.54650
5626.15006,0.54554
5624.22132,0.54549
5622.29257,0.54619
5620.36383,0.54632
5618.43508,0.54545
5616.50633,0.54448
5614.57759,0.54418
5612.64884,0.54452
5610.72010,0.54504
5608.79135,0.54525
5606.86261,0.54509
5604.93386,0.54527
5603.00512,0.54587
5601.07637,0.54623
5599.14763,0.54639
5597.21888,0.54649
5595.29014,0.54625
5593.36139,0.54582
5591.43265,0.54548
5589.50390,0.54526
5587.57516,0.54534
5585.64641,0.54559
5583.71766,0.54546
5581.78892,0.54554
5579.86017,0.54632
5577.93143,0.54693
5576.00268,0.54711
5574.07394,0.54759
5572.14519,0.54813
5570.21645,0.54787
5568.28770,0.54762
5566.35896,0.54846
5564.43021,0.54932
5562.50147,0.54905
5560.57272,0.54852
5558.64398,0.54890
5556.71523,0.54982
5554.78648,0.55000
5552.85774,0.54975
5550.92899,0.55027
5549.00025,0.55078
5547.07150,0.55025
5545.14276,0.54989
5543.21401,0.55078
5541.28527,0.55214
5539.35652,0.55266
5537.42778,0.55201
5535.49903,0.55112
5533.57029,0.55057
5531.64154,0.55058
5529.71280,0.55118
5527.78405,0.55144
5525.85531,0.55119
5523.92656,0.55096
5521.99781,0.55066
5520.06907,0.55017
5518.14032,0.54952
5516.21158,0.54910
5514.28283,0.54933
5512.35409,0.54989
5510.42534,0.55058
5508.49660,0.55187
5506.56785,0.55337
5504.63911,0.55388
5502.71036,0.55389
5500.78162,0.55415
5498.85287,0.55420
5496.92413,0.55419
5494.99538,0.55443
5493.06664,0.55459
5491.13789,0.55476
5489.20914,0.55522
5487.28040,0.55606
5485.35165,0.55664
5483.42291,0.55583
5481.49416,0.55431
5479.56542,0.55362
5477.63667,0.55371
5475.70793,0.55465
5473.77918,0.55669
5471.85044,0.55799
5469.92169,0.55735
5467.99295,0.55615
5466.06420,0.55540
5464.13546,0.55521
5462.20671,0.55605
5460.27796,0.55751
5458.34922,0.55847
5456.42047,0.55864
5454.49173,0.55826
5452.56298,0.55824
5450.63424,0.55930
5448.70549,0.56042
5446.77675,0.56101
5444.84800,0.56159
5442.91926,0.56191
5440.99051,0.56143
5439.06177,0.56041
5437.13302,0.55966
5435.20428,0.55980
5433.27553,0.56071
5431.34679,0.56169
5429.41804,0.56235
5427.48929,0.56286
5425.56055,0.56338
5423.63180,0.56401
5421.70306,0.56508
5419.77431,0.56582
5417.84557,0.56541
5415.91682,0.56525
5413.98808,0.56642
5412.05933,0.56743
5410.13059,0.56722
5408.20184,0.56682
5406.27310,0.56697
5404.34435,0.56733
5402.41561,0.56751
5400.48686,0.56742
5398.55811,0.56713
5396.62937,0.56713
5394.70062,0.56751
5392.77188,0.56751
5390.84313,0.56708
5388.91439,0.56720
5386.98564,0.56810
5385.05690,0.56899
5383.12815,0.56923
5381.19941,0.56919
5379.27066,0.56923
5377.34192,0.56891
5375.41317,0.56832
5373.48443,0.56802
5371.55568,0.56799
5369.62694,0.56809
5367.69819,0.56790
5365.76944,0.56715
5363.84070,0.56664
5361.91195,0.56699
5359.98321,0.56757
5358.05446,0.56763
5356.12572,0.56717
5354.19697,0.56673
5352.26823,0.56646
5350.33948,0.56599
5348.41074,0.56599
5346.48199,0.56681
5344.55325,0.56699
5342.62450,0.56615
5340.69576,0.56519
5338.76701,0.56463
5336.83827,0.56449
5334.90952,0.56403
5332.98077,0.56323
5331.05203,0.56245
5329.12328,0.56116
5327.19454,0.55969
5325.26579,0.55872
5323.33705,0.55775
5321.40830,0.55651
5319.47956,0.55524
5317.55081,0.55390
5315.62207,0.55285
5313.69332,0.55235
5311.76458,0.55136
5309.83583,0.54934
5307.90709,0.54721
5305.97834,0.54559
5304.04959,0.54394
5302.12085,0.54192
5300.19210,0.53997
5298.26336,0.53832
5296.33461,0.53681
5294.40587,0.53490
5292.47712,0.53218
5290.54838,0.52967
5288.61963,0.52767
5286.69089,0.52494
5284.76214,0.52162
5282.83340,0.51848
5280.90465,0.51521
5278.97591,0.51197
5277.04716,0.50908
5275.11842,0.50577
5273.18967,0.50178
5271.26092,0.49772
5269.33218,0.49368
5267.40343,0.48961
5265.47469,0.48580
5263.54594,0.48227
5261.61720,0.47914
5259.68845,0.47668
5257.75971,0.47414
5255.83096,0.47109
5253.90222,0.46807
5251.97347,0.46482
5250.04473,0.46107
5248.11598,0.45738
5246.18724,0.45420
5244.25849,0.45128
5242.32975,0.44822
5240.40100,0.44546
5238.47225,0.44348
5236.54351,0.44146
5234.61476,0.43905
5232.68602,0.43706
5230.75727,0.43558
5228.82853,0.43409
5226.89978,0.43233
5224.97104,0.43003
5223.04229,0.42763
5221.11355,0.42577
5219.18480,0.42404
5217.25606,0.42220
5215.32731,0.42098
5213.39857,0.42043
5211.46982,0.41961
5209.54107,0.41838
5207.61233,0.41731
5205.68358,0.41629
5203.75484,0.41529
5201.82609,0.41477
5199.89735,0.41465
5197.96860,0.41425
5196.03986,0.41334
5194.11111,0.41256
5192.18237,0.41236
5190.25362,0.41218
5188.32488,0.41149
5186.39613,0.41069
5184.46739,0.41026
5182.53864,0.41029
5180.60990,0.41030
5178.68115,0.40969
5176.75240,0.40939
5174.82366,0.41025
5172.89491,0.41101
5170.96617,0.41080
5169.03742,0.41039
5167.10868,0.41023
5165.17993,0.41019
5163.25119,0.41031
5161.32244,0.41058
5159.39370,0.41078
5157.46495,0.41089
5155.53621,0.41124
5153.60746,0.41167
5151.67872,0.41202
5149.74997,0.41252
5147.82123,0.41292
5145.89248,0.41296
5143.96373,0.41322
5142.03499,0.41398
5140.10624,0.41483
5138.17750,0.41555
5136.24875,0.41607
5134.32001,0.41652
5132.39126,0.41693
5130.46252,0.41679
5128.53377,0.41624
5126.60503,0.41599
5124.67628,0.41605
5122.74754,0.41632
5120.81879,0.41680
5118.89005,0.41721
5116.96130,0.41739
5115.03255,0.41731
5113.10381,0.41725
5111.17506,0.41722
5109.24632,0.41674
5107.31757,0.41587
5105.38883,0.41510
5103.46008,0.41470
5101.53134,0.41445
5099.60259,0.41372
5097.67385,0.41254
5095.74510,0.41158
5093.81636,0.41071
5091.88761,0.40963
5089.95887,0.40904
5088.03012,0.40915
5086.10138,0.40902
5084.17263,0.40812
5082.24388,0.40708
5080.31514,0.40647
5078.38639,0.40614
5076.45765,0.40573
5074.52890,0.40514
5072.60016,0.40474
5070.67141,0.40472
5068.74267,0.40483
5066.81392,0.40534
5064.88518,0.40642
5062.95643,0.40750
5061.02769,0.40820
5059.09894,0.40864
5057.17020,0.40875
5055.24145,0.40858
5053.31270,0.40867
5051.38396,0.40932
5049.45521,0.41000
5047.52647,0.41038
5045.59772,0.41087
5043.66898,0.41155
5041.74023,0.41208
5039.81149,0.41240
5037.88274,0.41293
5035.95400,0.41384
5034.02525,0.41487
5032.09651,0.41578
5030.16776,0.41649
5028.23902,0.41698
5026.31027,0.41748
5024.38153,0.41814
5022.45278,0.41900
5020.52403,0.41991
5018.59529,0.42050
5016.66654,0.42106
5014.73780,0.42184
5012.80905,0.42251
5010.88031,0.42305
5008.95156,0.42347
5007.02282,0.42353
5005.09407,0.42358
5003.16533,0.42462
5001.23658,0.42632
4999.30784,0.42715
4997.37909,0.42706
4995.45035,0.42721
4993.52160,0.42749
4991.59286,0.42720
4989.66411,0.42656
4987.73536,0.42626
4985.80662,0.42629
4983.87787,0.42607
4981.94913,0.42546
4980.02038,0.42480
4978.09164,0.42436
4976.16289,0.42430
4974.23415,0.42445
4972.30540,0.42436
4970.37666,0.42383
4968.44791,0.42312
4966.51917,0.42254
4964.59042,0.42212
4962.66168,0.42113
4960.73293,0.41912
4958.80418,0.41724
4956.87544,0.41618
4954.94669,0.41511
4953.01795,0.41413
4951.08920,0.41407
4949.16046,0.41416
4947.23171,0.41298
4945.30297,0.41080
4943.37422,0.40898
4941.44548,0.40753
4939.51673,0.40585
4937.58799,0.40461
4935.65924,0.40391
4933.73050,0.40269
4931.80175,0.40104
4929.87301,0.39978
4927.94426,0.39886
4926.01551,0.39779
4924.08677,0.39664
4922.15802,0.39577
4920.22928,0.39494
4918.30053,0.39387
4916.37179,0.39275
4914.44304,0.39169
4912.51430,0.39045
4910.58555,0.38881
4908.65681,0.38742
4906.72806,0.38675
4904.79932,0.38609
4902.87057,0.38509
4900.94183,0.38395
4899.01308,0.38265
4897.08434,0.38145
4895.15559,0.38073
4893.22684,0.38011
4891.29810,0.37901
4889.36935,0.37778
4887.44061,0.37708
4885.51186,0.37663
4883.58312,0.37579
4881.65437,0.37460
4879.72563,0.37332
4877.79688,0.37210
4875.86814,0.37117
4873.93939,0.37045
4872.01065,0.36973
4870.08190,0.36902
4868.15316,0.36853
4866.22441,0.36820
4864.29566,0.36739
4862.36692,0.36598
4860.43817,0.36479
4858.50943,0.36396
4856.58068,0.36304
4854.65194,0.36229
4852.72319,0.36169
4850.79445,0.36087
4848.86570,0.35998
4846.93696,0.35922
4845.00821,0.35836
4843.07947,0.35740
4841.15072,0.35668
4839.22198,0.35607
4837.29323,0.35501
4835.36449,0.35370
4833.43574,0.35309
4831.50699,0.35312
4829.57825,0.35304
4827.64950,0.35278
4825.72076,0.35232
4823.79201,0.35144
4821.86327,0.35054
4819.93452,0.35017
4818.00578,0.35001
4816.07703,0.34933
4814.14829,0.34818
4812.21954,0.34718
4810.29080,0.34667
4808.36205,0.34655
4806.43331,0.34662
4804.50456,0.34647
4802.57582,0.34568
4800.64707,0.34460
4798.71832,0.34406
4796.78958,0.34420
4794.86083,0.34451
4792.93209,0.34462
4791.00334,0.34462
4789.07460,0.34447
4787.14585,0.34396
4785.21711,0.34333
4783.28836,0.34296
4781.35962,0.34292
4779.43087,0.34307
4777.50213,0.34305
4775.57338,0.34276
4773.64464,0.34250
4771.71589,0.34198
4769.78714,0.34145
4767.85840,0.34158
4765.92965,0.34163
4764.00091,0.34127
4762.07216,0.34119
4760.14342,0.34136
4758.21467,0.34127
4756.28593,0.34086
4754.35718,0.34041
4752.42844,0.34001
4750.49969,0.33954
4748.57095,0.33917
4746.64220,0.33933
4744.71346,0.34004
4742.78471,0.34061
4740.85597,0.34064
4738.92722,0.34073
4736.99847,0.34116
4735.06973,0.34152
4733.14098,0.34164
4731.21224,0.34170
4729.28349,0.34167
4727.35475,0.34157
4725.42600,0.34180
4723.49726,0.34220
4721.56851,0.34207
4719.63977,0.34169
4717.71102,0.34197
4715.78228,0.34262
4713.85353,0.34269
4711.92479,0.34246
4709.99604,0.34272
4708.06729,0.34329
4706.13855,0.34366
4704.20980,0.34355
4702.28106,0.34311
4700.35231,0.34305
4698.42357,0.34351
4696.49482,0.34378
4694.56608,0.34344
4692.63733,0.34285
4690.70859,0.34255
4688.77984,0.34258
4686.85110,0.34284
4684.92235,0.34318
4682.99361,0.34343
4681.06486,0.34371
4679.13612,0.34422
4677.20737,0.34476
4675.27862,0.34482
4673.34988,0.34459
4671.42113,0.34472
4669.49239,0.34521
4667.56364,0.34548
4665.63490,0.34547
4663.70615,0.34570
4661.77741,0.34629
4659.84866,0.34709
4657.91992,0.34790
4655.99117,0.34848
4654.06243,0.34869
4652.13368,0.34874
4650.20494,0.34886
4648.27619,0.34904
4646.34745,0.34932
4644.41870,0.34960
4642.48995,0.34971
4640.56121,0.34986
4638.63246,0.35012
4636.70372,0.35040
4634.77497,0.35092
4632.84623,0.35170
4630.91748,0.35225
4628.98874,0.35252
4627.05999,0.35286
4625.13125,0.35334
4623.20250,0.35398
4621.27376,0.35470
4619.34501,0.35530
4617.41627,0.35576
4615.48752,0.35610
4613.55877,0.35654
4611.63003,0.35730
4609.70128,0.35805
4607.77254,0.35846
4605.84379,0.35874
4603.91505,0.35904
4601.98630,0.35930
4600.05756,0.35963
4598.12881,0.36009
4596.20007,0.36035
4594.27132,0.36043
4592.34258,0.36085
4590.41383,0.36168
4588.48509,0.36238
4586.55634,0.36261
4584.62760,0.36254
4582.69885,0.36252
4580.77010,0.36274
4578.84136,0.36322
4576.91261,0.36389
4574.98387,0.36439
4573.05512,0.36453
4571.12638,0.36462
4569.19763,0.36498
4567.26889,0.36544
4565.34014,0.36549
4563.41140,0.36501
4561.48265,0.36472
4559.55391,0.36516
4557.62516,0.36571
4555.69642,0.36580
4553.76767,0.36576
4551.83893,0.36581
4549.91018,0.36575
4547.98143,0.36579
4546.05269,0.36638
4544.12394,0.36721
4542.19520,0.36769
4540.26645,0.36771
4538.33771,0.36728
4536.40896,0.36668
4534.48022,0.36652
4532.55147,0.36690
4530.62273,0.36757
4528.69398,0.36834
4526.76524,0.36893
4524.83649,0.36922
4522.90775,0.36947
4520.97900,0.36973
4519.05025,0.36972
4517.12151,0.36938
4515.19276,0.36924
4513.26402,0.36962
4511.33527,0.37033
4509.40653,0.37087
4507.47778,0.37048
4505.54904,0.36945
4503.62029,0.36896
4501.69155,0.36900
4499.76280,0.36889
4497.83406,0.36842
4495.90531,0.36795
4493.97657,0.36807
4492.04782,0.36853
4490.11908,0.36817
4488.19033,0.36684
4486.26158,0.36564
4484.33284,0.36503
4482.40409,0.36457
4480.47535,0.36389
4478.54660,0.36296
4476.61786,0.36193
4474.68911,0.36068
4472.76037,0.35915
4470.83162,0.35744
4468.90288,0.35555
4466.97413,0.35378
4465.04539,0.35242
4463.11664,0.35112
4461.18790,0.34941
4459.25915,0.34743
4457.33041,0.34578
4455.40166,0.34447
4453.47291,0.34277
4451.54417,0.34040
4449.61542,0.33805
4447.68668,0.33622
4445.75793,0.33482
4443.82919,0.33360
4441.90044,0.33242
4439.97170,0.33106
4438.04295,0.32944
4436.11421,0.32773
4434.18546,0.32604
4432.25672,0.32422
4430.32797,0.32221
4428.39923,0.32034
4426.47048,0.31887
4424.54173,0.31752
4422.61299,0.31586
4420.68424,0.31402
4418.75550,0.31234
4416.82675,0.31070
4414.89801,0.30897
4412.96926,0.30751
4411.04052,0.30658
4409.11177,0.30589
4407.18303,0.30516
4405.25428,0.30450
4403.32554,0.30404
4401.39679,0.30370
4399.46805,0.30335
4397.53930,0.30303
4395.61056,0.30286
4393.68181,0.30289
4391.75306,0.30327
4389.82432,0.30396
4387.89557,0.30457
4385.96683,0.30503
4384.03808,0.30564
4382.10934,0.30637
4380.18059,0.30702
4378.25185,0.30769
4376.32310,0.30844
4374.39436,0.30915
4372.46561,0.30963
4370.53687,0.30988
4368.60812,0.31022
4366.67938,0.31095
4364.75063,0.31189
4362.82189,0.31237
4360.89314,0.31219
4358.96439,0.31213
4357.03565,0.31261
4355.10690,0.31314
4353.17816,0.31348
4351.24941,0.31374
4349.32067,0.31389
4347.39192,0.31376
4345.46318,0.31322
4343.53443,0.31255
4341.60569,0.31206
4339.67694,0.31170
4337.74820,0.31145
4335.81945,0.31141
4333.89071,0.31146
4331.96196,0.31133
4330.03321,0.31075
4328.10447,0.30984
4326.17572,0.30912
4324.24698,0.30850
4322.31823,0.30780
4320.38949,0.30751
4318.46074,0.30750
4316.53200,0.30738
4314.60325,0.30729
4312.67451,0.30712
4310.74576,0.30665
4308.81702,0.30610
4306.88827,0.30558
4304.95953,0.30499
4303.03078,0.30445
4301.10204,0.30389
4299.17329,0.30332
4297.24454,0.30290
4295.31580,0.30250
4293.38705,0.30213
4291.45831,0.30199
4289.52956,0.30203
4287.60082,0.30195
4285.67207,0.30156
4283.74333,0.30119
4281.81458,0.30104
4279.88584,0.30097
4277.95709,0.30101
4276.02835,0.30126
4274.09960,0.30155
4272.17086,0.30155
4270.24211,0.30135
4268.31336,0.30156
4266.38462,0.30228
4264.45587,0.30280
4262.52713,0.30305
4260.59838,0.30366
4258.66964,0.30461
4256.74089,0.30538
4254.81215,0.30592
4252.88340,0.30633
4250.95466,0.30650
4249.02591,0.30657
4247.09717,0.30684
4245.16842,0.30708
4243.23968,0.30689
4241.31093,0.30675
4239.38219,0.30735
4237.45344,0.30814
4235.52469,0.30834
4233.59595,0.30818
4231.66720,0.30820
4229.73846,0.30844
4227.80971,0.30850
4225.88097,0.30835
4223.95222,0.30816
4222.02348,0.30791
4220.09473,0.30779
4218.16599,0.30813
4216.23724,0.30867
4214.30850,0.30888
4212.37975,0.30870
4210.45101,0.30843
4208.52226,0.30819
4206.59352,0.30812
4204.66477,0.30804
4202.73602,0.30789
4200.80728,0.30798
4198.87853,0.30826
4196.94979,0.30843
4195.02104,0.30851
4193.09230,0.30855
4191.16355,0.30856
4189.23481,0.30879
4187.30606,0.30923
4185.37732,0.30956
4183.44857,0.30971
4181.51983,0.30965
4179.59108,0.30951
4177.66234,0.30964
4175.73359,0.30996
4173.80484,0.31021
4171.87610,0.31038
4169.94735,0.31061
4168.01861,0.31109
4166.08986,0.31172
4164.16112,0.31222
4162.23237,0.31240
4160.30363,0.31198
4158.37488,0.31096
4156.44614,0.30991
4154.51739,0.30946
4152.58865,0.30957
4150.65990,0.30965
4148.73116,0.30939
4146.80241,0.30880
4144.87367,0.30809
4142.94492,0.30754
4141.01617,0.30692
4139.08743,0.30581
4137.15868,0.30453
4135.22994,0.30359
4133.30119,0.30298
4131.37245,0.30230
4129.44370,0.30115
4127.51496,0.29974
4125.58621,0.29864
4123.65747,0.29796
4121.72872,0.29736
4119.79998,0.29639
4117.87123,0.29496
4115.94249,0.29348
4114.01374,0.29224
4112.08500,0.29108
4110.15625,0.28990
4108.22750,0.28875
4106.29876,0.28757
4104.37001,0.28628
4102.44127,0.28474
4100.51252,0.28314
4098.58378,0.28188
4096.65503,0.28072
4094.72629,0.27928
4092.79754,0.27769
4090.86880,0.27619
4088.94005,0.27471
4087.01131,0.27314
4085.08256,0.27171
4083.15382,0.27062
4081.22507,0.26968
4079.29632,0.26863
4077.36758,0.26736
4075.43883,0.26583
4073.51009,0.26425
4071.58134,0.26281
4069.65260,0.26150
4067.72385,0.26025
4065.79511,0.25878
4063.86636,0.25695
4061.93762,0.25525
4060.00887,0.25397
4058.08013,0.25275
4056.15138,0.25148
4054.22264,0.25024
4052.29389,0.24888
4050.36515,0.24755
4048.43640,0.24643
4046.50765,0.24535
4044.57891,0.24424
4042.65016,0.24316
4040.72142,0.24194
4038.79267,0.24062
4036.86393,0.23958
4034.93518,0.23898
4033.00644,0.23846
4031.07769,0.23768
4029.14895,0.23680
4027.22020,0.23605
4025.29146,0.23553
4023.36271,0.23514
4021.43397,0.23473
4019.50522,0.23434
4017.57648,0.23407
4015.64773,0.23376
4013.71898,0.23336
4011.79024,0.23315
4009.86149,0.23309
4007.93275,0.23303
4006.00400,0.23307
4004.07526,0.23308
4002.14651,0.23311
4000.21777,0.23344
3998.28902,0.23382
3996.36028,0.23389
3994.43153,0.23407
3992.50279,0.23471
3990.57404,0.23530
3988.64530,0.23556
3986.71655,0.23587
3984.78780,0.23623
3982.85906,0.23641
3980.93031,0.23670
3979.00157,0.23724
3977.07282,0.23769
3975.14408,0.23792
3973.21533,0.23816
3971.28659,0.23851
3969.35784,0.23909
3967.42910,0.23976
3965.50035,0.24024
3963.57161,0.24069
3961.64286,0.24122
3959.71412,0.24170
3957.78537,0.24217
3955.85663,0.24286
3953.92788,0.24379
3951.99913,0.24469
3950.07039,0.24545
3948.14164,0.24625
3946.21290,0.24702
3944.28415,0.24747
3942.35541,0.24758
3940.42666,0.24773
3938.49792,0.24831
3936.56917,0.24937
3934.64043,0.25052
3932.71168,0.25127
3930.78294,0.25172
3928.85419,0.25232
3926.92545,0.25289
3924.99670,0.25315
3923.06795,0.25336
3921.13921,0.25380
3919.21046,0.25448
3917.28172,0.25534
3915.35297,0.25605
3913.42423,0.25657
3911.49548,0.25730
3909.56674,0.25830
3907.63799,0.25902
3905.70925,0.25936
3903.78050,0.25992
3901.85176,0.26089
3899.92301,0.26181
3897.99427,0.26233
3896.06552,0.26267
3894.13678,0.26312
3892.20803,0.26372
3890.27928,0.26448
3888.35054,0.26536
3886.42179,0.26620
3884.49305,0.26677
3882.56430,0.26711
3880.63556,0.26756
3878.70681,0.26827
3876.77807,0.26888
3874.84932,0.26932
3872.92058,0.26993
3870.99183,0.27087
3869.06309,0.27207
3867.13434,0.27309
3865.20560,0.27368
3863.27685,0.27411
3861.34811,0.27469
3859.41936,0.27554
3857.49061,0.27657
3855.56187,0.27739
3853.63312,0.27786
3851.70438,0.27853
3849.77563,0.27932
3847.84689,0.27997
3845.91814,0.28080
3843.98940,0.28183
3842.06065,0.28255
3840.13191,0.28293
3838.20316,0.28336
3836.27442,0.28382
3834.34567,0.28420
3832.41693,0.28466
3830.48818,0.28512
3828.55943,0.28544
3826.63069,0.28565
3824.70194,0.28589
3822.77320,0.28649
3820.84445,0.28709
3818.91571,0.28699
3816.98696,0.28655
3815.05822,0.28651
3813.12947,0.28680
3811.20073,0.28704
3809.27198,0.28723
3807.34324,0.28721
3805.41449,0.28674
3803.48575,0.28633
3801.55700,0.28652
3799.62826,0.28693
3797.69951,0.28700
3795.77076,0.28694
3793.84202,0.28701
3791.91327,0.28700
3789.98453,0.28679
3788.05578,0.28675
3786.12704,0.28700
3784.19829,0.28725
3782.26955,0.28727
3780.34080,0.28710
3778.41206,0.28681
3776.48331,0.28635
3774.55457,0.28589
3772.62582,0.28568
3770.69708,0.28565
3768.76833,0.28555
3766.83959,0.28531
3764.91084,0.28486
3762.98209,0.28420
3761.05335,0.28351
3759.12460,0.28302
3757.19586,0.28278
3755.26711,0.28266
3753.33837,0.28242
3751.40962,0.28169
3749.48088,0.28052
3747.55213,0.27952
3745.62339,0.27879
3743.69464,0.27806
3741.76590,0.27731
3739.83715,0.27670
3737.90841,0.27598
3735.97966,0.27485
3734.05091,0.27365
3732.12217,0.27263
3730.19342,0.27151
3728.26468,0.27022
3726.33593,0.26887
3724.40719,0.26754
3722.47844,0.26627
3720.54970,0.26504
3718.62095,0.26346
3716.69221,0.26156
3714.76346,0.25992
3712.83472,0.25850
3710.90597,0.25666
3708.97723,0.25445
3707.04848,0.25238
3705.11974,0.25051
3703.19099,0.24834
3701.26224,0.24557
3699.33350,0.24275
3697.40475,0.24007
3695.47601,0.23719
3693.54726,0.23420
3691.61852,0.23126
3689.68977,0.22797
3687.76103,0.22398
3685.83228,0.21990
3683.90354,0.21606
3681.97479,0.21214
3680.04605,0.20810
3678.11730,0.20384
3676.18856,0.19856
3674.25981,0.19273
3672.33107,0.18781
3670.40232,0.18292
3668.47357,0.17771
3666.54483,0.17314
3664.61608,0.16883
3662.68734,0.16438
3660.75859,0.16019
3658.82985,0.15626
3656.90110,0.15199
3654.97236,0.14768
3653.04361,0.14412
3651.11487,0.14072
3649.18612,0.13705
3647.25738,0.13362
3645.32863,0.13041
3643.39989,0.12718
3641.47114,0.12394
3639.54239,0.12077
3637.61365,0.11782
3635.68490,0.11507
3633.75616,0.11245
3631.82741,0.11003
3629.89867,0.10750
3627.96992,0.10492
3626.04118,0.10296
3624.11243,0.10127
3622.18369,0.09934
3620.25494,0.09710
3618.32620,0.09464
3616.39745,0.09250
3614.46871,0.09086
3612.53996,0.08925
3610.61122,0.08735
3608.68247,0.08543
3606.75372,0.08373
3604.82498,0.08192
3602.89623,0.07984
3600.96749,0.07797
3599.03874,0.07663
3597.11000,0.07545
3595.18125,0.07398
3593.25251,0.07250
3591.32376,0.07133
3589.39502,0.07005
3587.46627,0.06852
3585.53753,0.06741
3583.60878,0.06670
3581.68004,0.06569
3579.75129,0.06442
3577.82254,0.06336
3575.89380,0.06260
3573.96505,0.06191
3572.03631,0.06113
3570.10756,0.06018
3568.17882,0.05908
3566.25007,0.05805
3564.32133,0.05719
3562.39258,0.05633
3560.46384,0.05561
3558.53509,0.05514
3556.60635,0.05458
3554.67760,0.05391
3552.74886,0.05344
3550.82011,0.05307
3548.89137,0.05245
3546.96262,0.05160
3545.03387,0.05084
3543.10513,0.05041
3541.17638,0.05006
3539.24764,0.04961
3537.31889,0.04898
3535.39015,0.04830
3533.46140,0.04787
3531.53266,0.04766
3529.60391,0.04741
3527.67517,0.04700
3525.74642,0.04645
3523.81768,0.04582
3521.88893,0.04509
3519.96019,0.04449
3518.03144,0.04424
3516.10270,0.04419
3514.17395,0.04407
3512.24520,0.04379
3510.31646,0.04340
3508.38771,0.04305
3506.45897,0.04269
3504.53022,0.04231
3502.60148,0.04221
3500.67273,0.04237
3498.74399,0.04238
3496.81524,0.04197
3494.88650,0.04129
3492.95775,0.04076
3491.02901,0.04057
3489.10026,0.04038
3487.17152,0.03977
3485.24277,0.03909
3483.31402,0.03901
3481.38528,0.03929
3479.45653,0.03926
3477.52779,0.03906
3475.59904,0.03913
3473.67030,0.03926
3471.74155,0.03905
3469.81281,0.03864
3467.88406,0.03836
3465.95532,0.03823
3464.02657,0.03827
3462.09783,0.03857
3460.16908,0.03873
3458.24034,0.03851
3456.31159,0.03817
3454.38285,0.03766
3452.45410,0.03708
3450.52535,0.03695
3448.59661,0.03715
3446.66786,0.03713
3444.73912,0.03695
3442.81037,0.03682
3440.88163,0.03700
3438.95288,0.03751
3437.02414,0.03785
3435.09539,0.03786
3433.16665,0.03770
3431.23790,0.03753
3429.30916,0.03749
3427.38041,0.03754
3425.45167,0.03754
3423.52292,0.03732
3421.59418,0.03694
3419.66543,0.03681
3417.73668,0.03710
3415.80794,0.03738
3413.87919,0.03725
3411.95045,0.03688
3410.02170,0.03656
3408.09296,0.03647
3406.16421,0.03679
3404.23547,0.03715
3402.30672,0.03725
3400.37798,0.03733
3398.44923,0.03757
3396.52049,0.03786
3394.59174,0.03806
3392.66300,0.03804
3390.73425,0.03790
3388.80550,0.03791
3386.87676,0.03791
3384.94801,0.03770
3383.01927,0.03767
3381.09052,0.03793
3379.16178,0.03800
3377.23303,0.03774
3375.30429,0.03761
3373.37554,0.03786
3371.44680,0.03797
3369.51805,0.03763
3367.58931,0.03740
3365.66056,0.03763
3363.73182,0.03792
3361.80307,0.03807
3359.87433,0.03829
3357.94558,0.03847
3356.01683,0.03842
3354.08809,0.03844
3352.15934,0.03874
3350.23060,0.03905
3348.30185,0.03920
3346.37311,0.03940
3344.44436,0.03971
3342.51562,0.03999
3340.58687,0.04025
3338.65813,0.04033
3336.72938,0.04018
3334.80064,0.04018
3332.87189,0.04053
3330.94315,0.04101
3329.01440,0.04135
3327.08566,0.04140
3325.15691,0.04119
3323.22816,0.04108
3321.29942,0.04146
3319.37067,0.04198
3317.44193,0.04209
3315.51318,0.04189
3313.58444,0.04181
3311.65569,0.04206
3309.72695,0.04247
3307.79820,0.04275
3305.86946,0.04284
3303.94071,0.04283
3302.01197,0.04264
3300.08322,0.04245
3298.15448,0.04263
3296.22573,0.04302
3294.29698,0.04338
3292.36824,0.04366
3290.43949,0.04370
3288.51075,0.04364
3286.58200,0.04388
3284.65326,0.04424
3282.72451,0.04434
3280.79577,0.04445
3278.86702,0.04469
3276.93828,0.04485
3275.00953,0.04502
3273.08079,0.04526
3271.15204,0.04545
3269.22330,0.04559
3267.29455,0.04574
3265.36581,0.04600
3263.43706,0.04628
3261.50831,0.04642
3259.57957,0.04647
3257.65082,0.04661
3255.72208,0.04684
3253.79333,0.04711
3251.86459,0.04739
3249.93584,0.04762
3248.00710,0.04793
3246.07835,0.04829
3244.14961,0.04844
3242.22086,0.04848
3240.29212,0.04866
3238.36337,0.04890
3236.43463,0.04910
3234.50588,0.04940
3232.57713,0.04979
3230.64839,0.05004
3228.71964,0.04996
3226.79090,0.04980
3224.86215,0.04994
3222.93341,0.05028
3221.00466,0.05046
3219.07592,0.05051
3217.14717,0.05062
3215.21843,0.05098
3213.28968,0.05163
3211.36094,0.05207
3209.43219,0.05206
3207.50345,0.05208
3205.57470,0.05244
3203.64596,0.05284
3201.71721,0.05302
3199.78846,0.05312
3197.85972,0.05337
3195.93097,0.05375
3194.00223,0.05409
3192.07348,0.05425
3190.14474,0.05427
3188.21599,0.05441
3186.28725,0.05492
3184.35850,0.05557
3182.42976,0.05617
3180.50101,0.05680
3178.57227,0.05730
3176.64352,0.05750
3174.71478,0.05762
3172.78603,0.05785
3170.85729,0.05816
3168.92854,0.05846
3166.99979,0.05874
3165.07105,0.05914
3163.14230,0.05962
3161.21356,0.05990
3159.28481,0.05995
3157.35607,0.06006
3155.42732,0.06047
3153.49858,0.06093
3151.56983,0.06114
3149.64109,0.06138
3147.71234,0.06181
3145.78360,0.06217
3143.85485,0.06253
3141.92611,0.06293
3139.99736,0.06309
3138.06861,0.06325
3136.13987,0.06385
3134.21112,0.06456
3132.28238,0.06498
3130.35363,0.06523
3128.42489,0.06555
3126.49614,0.06595
3124.56740,0.06612
3122.63865,0.06608
3120.70991,0.06634
3118.78116,0.06692
3116.85242,0.06731
3114.92367,0.06746
3112.99493,0.06773
3111.06618,0.06807
3109.13744,0.06820
3107.20869,0.06824
3105.27994,0.06849
3103.35120,0.06892
3101.42245,0.06938
3099.49371,0.06978
3097.56496,0.06988
3095.63622,0.06984
3093.70747,0.07009
3091.77873,0.07058
3089.84998,0.07101
3087.92124,0.07129
3085.99249,0.07161
3084.06375,0.07199
3082.13500,0.07219
3080.20626,0.07234
3078.27751,0.07260
3076.34877,0.07275
3074.42002,0.07282
3072.49127,0.07304
3070.56253,0.07340
3068.63378,0.07364
3066.70504,0.07374
3064.77629,0.07407
3062.84755,0.07469
3060.91880,0.07516
3058.99006,0.07531
3057.06131,0.07560
3055.13257,0.07626
3053.20382,0.07675
3051.27508,0.07680
3049.34633,0.07678
3047.41759,0.07691
3045.48884,0.07714
3043.56009,0.07751
3041.63135,0.07806
3039.70260,0.07840
3037.77386,0.07832
3035.84511,0.07825
3033.91637,0.07849
3031.98762,0.07877
3030.05888,0.07880
3028.13013,0.07896
3026.20139,0.07946
3024.27264,0.07977
3022.34390,0.07960
3020.41515,0.07919
3018.48641,0.07883
3016.55766,0.07872
3014.62892,0.07855
3012.70017,0.07797
3010.77142,0.07739
3008.84268,0.07721
3006.91393,0.07722
3004.98519,0.07700
3003.05644,0.07651
3001.12770,0.07598
2999.19895,0.07565
2997.27021,0.07539
2995.34146,0.07480
2993.41272,0.07389
2991.48397,0.07311
2989.55523,0.07274
2987.62648,0.07253
2985.69774,0.07202
2983.76899,0.07106
2981.84025,0.06988
2979.91150,0.06863
2977.98275,0.06734
2976.05401,0.06611
2974.12526,0.06504
2972.19652,0.06397
2970.26777,0.06294
2968.33903,0.06211
2966.41028,0.06136
2964.48154,0.06051
2962.55279,0.05972
2960.62405,0.05917
2958.69530,0.05871
2956.76656,0.05822
2954.83781,0.05785
2952.90907,0.05747
2950.98032,0.05683
2949.05157,0.05620
2947.12283,0.05579
2945.19408,0.05539
2943.26534,0.05493
2941.33659,0.05458
2939.40785,0.05438
2937.47910,0.05414
2935.55036,0.05381
2933.62161,0.05362
2931.69287,0.05377
2929.76412,0.05410
2927.83538,0.05430
2925.90663,0.05416
2923.97789,0.05375
2922.04914,0.05348
2920.12040,0.05359
2918.19165,0.05396
2916.26290,0.05438
2914.33416,0.05461
2912.40541,0.05467
2910.47667,0.05478
2908.54792,0.05500
2906.61918,0.05514
2904.69043,0.05521
2902.76169,0.05547
2900.83294,0.05596
2898.90420,0.05641
2896.97545,0.05666
2895.04671,0.05679
2893.11796,0.05694
2891.18922,0.05713
2889.26047,0.05739
2887.33172,0.05777
2885.40298,0.05821
2883.47423,0.05854
2881.54549,0.05881
2879.61674,0.05910
2877.68800,0.05931
2875.75925,0.05943
2873.83051,0.05946
2871.90176,0.05951
2869.97302,0.05978
2868.04427,0.06023
2866.11553,0.06082
2864.18678,0.06145
2862.25804,0.06178
2860.32929,0.06177
2858.40055,0.06193
2856.47180,0.06245
2854.54305,0.06287
2852.61431,0.06298
2850.68556,0.06318
2848.75682,0.06397
2846.82807,0.06554
2844.89933,0.06745
2842.97058,0.06915
2841.04184,0.07049
2839.11309,0.07169
2837.18435,0.07293
2835.25560,0.07419
2833.32686,0.07539
2831.39811,0.07657
2829.46937,0.07789
2827.54062,0.07921
2825.61188,0.08032
2823.68313,0.08131
2821.75438,0.08235
2819.82564,0.08347
2817.89689,0.08444
2815.96815,0.08523
2814.03940,0.08612
2812.11066,0.08711
2810.18191,0.08795
2808.25317,0.08868
2806.32442,0.08947
2804.39568,0.09036
2802.46693,0.09110
2800.53819,0.09165
2798.60944,0.09225
2796.68070,0.09285
2794.75195,0.09322
2792.82320,0.09358
2790.89446,0.09423
2788.96571,0.09490
2787.03697,0.09536
2785.10822,0.09571
2783.17948,0.09603
2781.25073,0.09630
2779.32199,0.09659
2777.39324,0.09696
2775.46450,0.09743
2773.53575,0.09782
2771.60701,0.09798
2769.67826,0.09815
2767.74952,0.09856
2765.82077,0.09887
2763.89203,0.09881
2761.96328,0.09877
2760.03453,0.09903
2758.10579,0.09945
2756.17704,0.09990
2754.24830,0.10025
2752.31955,0.10038
2750.39081,0.10047
2748.46206,0.10060
2746.53332,0.10071
2744.60457,0.10071
2742.67583,0.10073
2740.74708,0.10095
2738.81834,0.10122
2736.88959,0.10132
2734.96085,0.10131
2733.03210,0.10139
2731.10336,0.10157
2729.17461,0.10182
2727.24586,0.10234
2725.31712,0.10308
2723.38837,0.10367
2721.45963,0.10409
2719.53088,0.10455
2717.60214,0.10504
2715.67339,0.10542
2713.74465,0.10563
2711.81590,0.10582
2709.88716,0.10607
2707.95841,0.10630
2706.02967,0.10671
2704.10092,0.10736
2702.17218,0.10794
2700.24343,0.10843
2698.31468,0.10900
2696.38594,0.10971
2694.45719,0.11042
2692.52845,0.11091
2690.59970,0.11119
2688.67096,0.11151
2686.74221,0.11198
2684.81347,0.11246
2682.88472,0.11279
2680.95598,0.11305
2679.02723,0.11341
2677.09849,0.11384
2675.16974,0.11426
2673.24100,0.11471
2671.31225,0.11512
2669.38351,0.11536
2667.45476,0.11553
2665.52601,0.11575
2663.59727,0.11608
2661.66852,0.11653
2659.73978,0.11704
2657.81103,0.11751
2655.88229,0.11789
2653.95354,0.11825
2652.02480,0.11863
2650.09605,0.11910
2648.16731,0.11950
2646.23856,0.11968
2644.30982,0.11974
2642.38107,0.11991
2640.45233,0.12032
2638.52358,0.12074
2636.59484,0.12104
2634.66609,0.12155
2632.73734,0.12223
2630.80860,0.12267
2628.87985,0.12296
2626.95111,0.12331
2625.02236,0.12374
2623.09362,0.12432
2621.16487,0.12498
2619.23613,0.12527
2617.30738,0.12518
2615.37864,0.12525
2613.44989,0.12560
2611.52115,0.12602
2609.59240,0.12640
2607.66366,0.12670
2605.73491,0.12703
2603.80616,0.12750
2601.87742,0.12799
2599.94867,0.12838
2598.01993,0.12869
2596.09118,0.12911
2594.16244,0.12954
2592.23369,0.12979
2590.30495,0.13004
2588.37620,0.13036
2586.44746,0.13050
2584.51871,0.13046
2582.58997,0.13060
2580.66122,0.13105
2578.73248,0.13157
2576.80373,0.13197
2574.87499,0.13225
2572.94624,0.13233
2571.01749,0.13231
2569.08875,0.13246
2567.16000,0.13277
2565.23126,0.13299
2563.30251,0.13308
2561.37377,0.13314
2559.44502,0.13317
2557.51628,0.13319
2555.58753,0.13327
2553.65879,0.13335
2551.73004,0.13341
2549.80130,0.13344
2547.87255,0.13352
2545.94381,0.13359
2544.01506,0.13359
2542.08631,0.13380
2540.15757,0.13429
2538.22882,0.13481
2536.30008,0.13513
2534.37133,0.13525
2532.44259,0.13536
2530.51384,0.13559
2528.58510,0.13590
2526.65635,0.13630
2524.72761,0.13676
2522.79886,0.13715
2520.87012,0.13738
2518.94137,0.13756
2517.01263,0.13798
2515.08388,0.13862
2513.15514,0.13917
2511.22639,0.13964
2509.29764,0.14012
2507.36890,0.14053
2505.44015,0.14086
2503.51141,0.14134
2501.58266,0.14206
2499.65392,0.14289
2497.72517,0.14357
2495.79643,0.14402
2493.86768,0.14437
2491.93894,0.14474
2490.01019,0.14523
2488.08145,0.14581
2486.15270,0.14636
2484.22396,0.14687
2482.29521,0.14737
2480.36647,0.14776
2478.43772,0.14799
2476.50897,0.14835
2474.58023,0.14894
2472.65148,0.14957
2470.72274,0.15023
2468.79399,0.15088
2466.86525,0.15139
2464.93650,0.15186
2463.00776,0.15224
2461.07901,0.15252
2459.15027,0.15295
2457.22152,0.15354
2455.29278,0.15408
2453.36403,0.15460
2451.43529,0.15520
2449.50654,0.15579
2447.57779,0.15627
2445.64905,0.15664
2443.72030,0.15701
2441.79156,0.15750
2439.86281,0.15813
2437.93407,0.15880
2436.00532,0.15946
2434.07658,0.16013
2432.14783,0.16079
2430.21909,0.16139
2428.29034,0.16194
2426.36160,0.16258
2424.43285,0.16335
2422.50411,0.16418
2420.57536,0.16489
2418.64662,0.16551
2416.71787,0.16621
2414.78912,0.16697
2412.86038,0.16765
2410.93163,0.16836
2409.00289,0.16917
2407.07414,0.17000
2405.14540,0.17072
2403.21665,0.17135
2401.28791,0.17196
2399.35916,0.17264
2397.43042,0.17343
2395.50167,0.17426
2393.57293,0.17501
2391.64418,0.17563
2389.71544,0.17625
2387.78669,0.17691
2385.85795,0.17751
2383.92920,0.17812
2382.00045,0.17878
2380.07171,0.17938
2378.14296,0.17985
2376.21422,0.18025
2374.28547,0.18067
2372.35673,0.18110
2370.42798,0.18164
2368.49924,0.18227
2366.57049,0.18277
2364.64175,0.18312
2362.71300,0.18357
2360.78426,0.18409
2358.85551,0.18447
2356.92677,0.18485
2354.99802,0.18533
2353.06927,0.18567
2351.14053,0.18578
2349.21178,0.18596
2347.28304,0.18641
2345.35429,0.18694
2343.42555,0.18732
2341.49680,0.18753
2339.56806,0.18771
2337.63931,0.18805
2335.71057,0.18846
2333.78182,0.18873
2331.85308,0.18882
2329.92433,0.18887
2327.99559,0.18893
2326.06684,0.18904
2324.13810,0.18914
2322.20935,0.18919
2320.28060,0.18932
2318.35186,0.18950
2316.42311,0.18958
2314.49437,0.18962
2312.56562,0.18972
2310.63688,0.18983
2308.70813,0.18976
2306.77939,0.18948
2304.85064,0.18916
2302.92190,0.18902
2300.99315,0.18897
2299.06441,0.18873
2297.13566,0.18836
2295.20692,0.18812
2293.27817,0.18810
2291.34943,0.18809
2289.42068,0.18788
2287.49193,0.18764
2285.56319,0.18761
2283.63444,0.18761
2281.70570,0.18743
2279.77695,0.18719
2277.84821,0.18695
2275.91946,0.18664
2273.99072,0.18629
2272.06197,0.18594
2270.13323,0.18553
2268.20448,0.18501
2266.27574,0.18448
2264.34699,0.18404
2262.41825,0.18370
2260.48950,0.18338
2258.56075,0.18299
2256.63201,0.18254
2254.70326,0.18221
2252.77452,0.18212
2250.84577,0.18214
2248.91703,0.18191
2246.98828,0.18143
2245.05954,0.18112
2243.13079,0.18107
2241.20205,0.18103
2239.27330,0.18081
2237.34456,0.18056
2235.41581,0.18043
2233.48707,0.18025
2231.55832,0.17988
2229.62958,0.17939
2227.70083,0.17897
2225.77208,0.17879
2223.84334,0.17878
2221.91459,0.17877
2219.98585,0.17870
2218.05710,0.17862
2216.12836,0.17847
2214.19961,0.17812
2212.27087,0.17766
2210.34212,0.17747
2208.41338,0.17758
2206.48463,0.17756
2204.55589,0.17717
2202.62714,0.17654
2200.69840,0.17601
2198.76965,0.17565
2196.84090,0.17512
2194.91216,0.17433
2192.98341,0.17367
2191.05467,0.17334
2189.12592,0.17296
2187.19718,0.17221
2185.26843,0.17128
2183.33969,0.17053
2181.41094,0.17012
2179.48220,0.16985
2177.55345,0.16937
2175.62471,0.16870
2173.69596,0.16806
2171.76722,0.16752
2169.83847,0.16701
2167.90973,0.16651
2165.98098,0.16597
2164.05223,0.16543
2162.12349,0.16500
2160.19474,0.16475
2158.26600,0.16457
2156.33725,0.16433
2154.40851,0.16398
2152.47976,0.16361
2150.55102,0.16335
2148.62227,0.16312
2146.69353,0.16283
2144.76478,0.16261
2142.83604,0.16252
2140.90729,0.16241
2138.97855,0.16219
2137.04980,0.16206
2135.12106,0.16212
2133.19231,0.16226
2131.26356,0.16243
2129.33482,0.16256
2127.40607,0.16268
2125.47733,0.16288
2123.54858,0.16314
2121.61984,0.16329
2119.69109,0.16335
2117.76235,0.16354
2115.83360,0.16389
2113.90486,0.16432
2111.97611,0.16474
2110.04737,0.16503
2108.11862,0.16519
2106.18988,0.16530
2104.26113,0.16548
2102.33238,0.16571
2100.40364,0.16586
2098.47489,0.16592
2096.54615,0.16584
2094.61740,0.16577
2092.68866,0.16593
2090.75991,0.16617
2088.83117,0.16615
2086.90242,0.16585
2084.97368,0.16550
2083.04493,0.16534
2081.11619,0.16535
2079.18744,0.16527
2077.25870,0.16496
2075.32995,0.16454
2073.40121,0.16419
2071.47246,0.16396
2069.54371,0.16380
2067.61497,0.16354
2065.68622,0.16315
2063.75748,0.16284
2061.82873,0.16267
2059.89999,0.16262
2057.97124,0.16262
2056.04250,0.16263
2054.11375,0.16262
2052.18501,0.16254
2050.25626,0.16245
2048.32752,0.16252
2046.39877,0.16279
2044.47003,0.16316
2042.54128,0.16360
2040.61254,0.16408
2038.68379,0.16455
2036.75504,0.16497
2034.82630,0.16535
2032.89755,0.16570
2030.96881,0.16609
2029.04006,0.16665
2027.11132,0.16737
2025.18257,0.16799
2023.25383,0.16846
2021.32508,0.16899
2019.39634,0.16968
2017.46759,0.17043
2015.53885,0.17103
2013.61010,0.17148
2011.68136,0.17191
2009.75261,0.17228
2007.82386,0.17252
2005.89512,0.17278
2003.96637,0.17309
2002.03763,0.17337
2000.10888,0.17363
1998.18014,0.17402
1996.25139,0.17451
1994.32265,0.17491
1992.39390,0.17515
1990.46516,0.17532
1988.53641,0.17555
1986.60767,0.17590
1984.67892,0.17629
1982.75018,0.17661
1980.82143,0.17684
1978.89269,0.17708
1976.96394,0.17748
1975.03519,0.17786
1973.10645,0.17805
1971.17770,0.17822
1969.24896,0.17845
1967.32021,0.17856
1965.39147,0.17870
1963.46272,0.17912
1961.53398,0.17966
1959.60523,0.18012
1957.67649,0.18058
1955.74774,0.18107
1953.81900,0.18150
1951.89025,0.18191
1949.96151,0.18245
1948.03276,0.18309
1946.10402,0.18359
1944.17527,0.18394
1942.24652,0.18424
1940.31778,0.18449
1938.38903,0.18476
1936.46029,0.18511
1934.53154,0.18539
1932.60280,0.18555
1930.67405,0.18569
1928.74531,0.18588
1926.81656,0.18598
1924.88782,0.18593
1922.95907,0.18586
1921.03033,0.18584
1919.10158,0.18584
1917.17284,0.18573
1915.24409,0.18549
1913.31534,0.18527
1911.38660,0.18508
1909.45785,0.18485
1907.52911,0.18462
1905.60036,0.18442
1903.67162,0.18416
1901.74287,0.18375
1899.81413,0.18331
1897.88538,0.18308
1895.95664,0.18295
1894.02789,0.18268
1892.09915,0.18236
1890.17040,0.18214
1888.24166,0.18192
1886.31291,0.18170
1884.38417,0.18153
1882.45542,0.18138
1880.52667,0.18111
1878.59793,0.18069
1876.66918,0.18028
1874.74044,0.17992
1872.81169,0.17960
1870.88295,0.17936
1868.95420,0.17911
1867.02546,0.17877
1865.09671,0.17846
1863.16797,0.17808
1861.23922,0.17760
1859.31048,0.17716
1857.38173,0.17673
1855.45299,0.17624
1853.52424,0.17568
1851.59549,0.17504
1849.66675,0.17433
1847.73800,0.17362
1845.80926,0.17289
1843.88051,0.17206
1841.95177,0.17120
1840.02302,0.17042
1838.09428,0.16961
1836.16553,0.16871
1834.23679,0.16782
1832.30804,0.16694
1830.37930,0.16588
1828.45055,0.16471
1826.52181,0.16363
1824.59306,0.16244
1822.66432,0.16106
1820.73557,0.15966
1818.80682,0.15824
1816.87808,0.15671
1814.94933,0.15510
1813.02059,0.15346
1811.09184,0.15179
1809.16310,0.14999
1807.23435,0.14813
1805.30561,0.14635
1803.37686,0.14464
1801.44812,0.14271
1799.51937,0.14048
1797.59063,0.13821
1795.66188,0.13604
1793.73314,0.13365
1791.80439,0.13081
1789.87565,0.12794
1787.94690,0.12537
1786.01815,0.12289
1784.08941,0.12017
1782.16066,0.11725
1780.23192,0.11426
1778.30317,0.11103
1776.37443,0.10766
1774.44568,0.10438
1772.51694,0.10094
1770.58819,0.09731
1768.65945,0.09366
1766.73070,0.08974
1764.80196,0.08573
1762.87321,0.08161
1760.94447,0.07735
1759.01572,0.07348
1757.08697,0.06981
1755.15823,0.06639
1753.22948,0.06367
1751.30074,0.06144
1749.37199,0.05937
1747.44325,0.05751
1745.51450,0.05597
1743.58576,0.05482
1741.65701,0.05394
1739.72827,0.05321
1737.79952,0.05276
1735.87078,0.05270
1733.94203,0.05263
1732.01329,0.05217
1730.08454,0.05177
1728.15580,0.05169
1726.22705,0.05171
1724.29830,0.05181
1722.36956,0.05210
1720.44081,0.05251
1718.51207,0.05278
1716.58332,0.05268
1714.65458,0.05245
1712.72583,0.05235
1710.79709,0.05230
1708.86834,0.05228
1706.93960,0.05207
1705.01085,0.05154
1703.08211,0.05099
1701.15336,0.05030
1699.22462,0.04928
1697.29587,0.04836
1695.36713,0.04753
1693.43838,0.04670
1691.50963,0.04585
1689.58089,0.04483
1687.65214,0.04394
1685.72340,0.04319
1683.79465,0.04215
1681.86591,0.04100
1679.93716,0.04022
1678.00842,0.03981
1676.07967,0.03951
1674.15093,0.03908
1672.22218,0.03864
1670.29344,0.03840
1668.36469,0.03844
1666.43595,0.03875
1664.50720,0.03919
1662.57845,0.03958
1660.64971,0.03992
1658.72096,0.04027
1656.79222,0.04083
1654.86347,0.04173
1652.93473,0.04270
1651.00598,0.04326
1649.07724,0.04371
1647.14849,0.04424
1645.21975,0.04458
1643.29100,0.04479
1641.36226,0.04504
1639.43351,0.04539
1637.50477,0.04566
1635.57602,0.04561
1633.64728,0.04543
1631.71853,0.04536
1629.78978,0.04529
1627.86104,0.04524
1625.93229,0.04535
1624.00355,0.04545
1622.07480,0.04524
1620.14606,0.04492
1618.21731,0.04475
1616.28857,0.04459
1614.35982,0.04436
1612.43108,0.04422
1610.50233,0.04417
1608.57359,0.04426
1606.64484,0.04441
1604.71610,0.04456
1602.78735,0.04481
1600.85861,0.04522
1598.92986,0.04554
1597.00111,0.04560
1595.07237,0.04561
1593.14362,0.04586
1591.21488,0.04637
1589.28613,0.04701
1587.35739,0.04760
1585.42864,0.04807
1583.49990,0.04856
1581.57115,0.04916
1579.64241,0.04979
1577.71366,0.05039
1575.78492,0.05085
1573.85617,0.05111
1571.92743,0.05138
1569.99868,0.05169
1568.06993,0.05195
1566.14119,0.05222
1564.21244,0.05247
1562.28370,0.05269
1560.35495,0.05282
1558.42621,0.05280
1556.49746,0.05275
1554.56872,0.05261
1552.63997,0.05223
1550.71123,0.05187
1548.78248,0.05186
1546.85374,0.05211
1544.92499,0.05232
1542.99625,0.05235
1541.06750,0.05217
1539.13876,0.05189
1537.21001,0.05176
1535.28126,0.05175
1533.35252,0.05163
1531.42377,0.05148
1529.49503,0.05133
1527.56628,0.05087
1525.63754,0.05002
1523.70879,0.04894
1521.78005,0.04754
1519.85130,0.04597
1517.92256,0.04470
1515.99381,0.04391
1514.06507,0.04365
1512.13632,0.04378
1510.20758,0.04403
1508.27883,0.04438
1506.35008,0.04510
1504.42134,0.04621
1502.49259,0.04738
1500.56385,0.04857
1498.63510,0.04974
1496.70636,0.05064
1494.77761,0.05122
1492.84887,0.05166
1490.92012,0.05187
1488.99138,0.05172
1487.06263,0.05134
1485.13389,0.05097
1483.20514,0.05065
1481.27640,0.05020
1479.34765,0.04952
1477.41891,0.04861
1475.49016,0.04757
1473.56141,0.04645
1471.63267,0.04517
1469.70392,0.04415
1467.77518,0.04367
1465.84643,0.04355
1463.91769,0.04346
1461.98894,0.04335
1460.06020,0.04332
1458.13145,0.04320
1456.20271,0.04303
1454.27396,0.04313
1452.34522,0.04338
1450.41647,0.04361
1448.48773,0.04385
1446.55898,0.04407
1444.63024,0.04422
1442.70149,0.04425
1440.77274,0.04413
1438.84400,0.04388
1436.91525,0.04344
1434.98651,0.04287
1433.05776,0.04239
1431.12902,0.04219
1429.20027,0.04228
1427.27153,0.04245
1425.34278,0.04266
1423.41404,0.04309
1421.48529,0.04356
1419.55655,0.04379
1417.62780,0.04397
1415.69906,0.04435
1413.77031,0.04486
1411.84156,0.04529
1409.91282,0.04551
1407.98407,0.04555
1406.05533,0.04539
1404.12658,0.04504
1402.19784,0.04482
1400.26909,0.04482
1398.34035,0.04469
1396.41160,0.04419
1394.48286,0.04345
1392.55411,0.04286
1390.62537,0.04247
1388.69662,0.04205
1386.76788,0.04151
1384.83913,0.04104
1382.91039,0.04080
1380.98164,0.04066
1379.05289,0.04056
1377.12415,0.04063
1375.19540,0.04071
1373.26666,0.04074
1371.33791,0.04082
1369.40917,0.04093
1367.48042,0.04108
1365.55168,0.04130
1363.62293,0.04156
1361.69419,0.04185
1359.76544,0.04208
1357.83670,0.04220
1355.90795,0.04232
1353.97921,0.04254
1352.05046,0.04274
1350.12172,0.04273
1348.19297,0.04253
1346.26422,0.04244
1344.33548,0.04245
1342.40673,0.04228
1340.47799,0.04196
1338.54924,0.04171
1336.62050,0.04164
1334.69175,0.04167
1332.76301,0.04174
1330.83426,0.04187
1328.90552,0.04188
1326.97677,0.04160
1325.04803,0.04122
1323.11928,0.04105
1321.19054,0.04108
1319.26179,0.04108
1317.33304,0.04109
1315.40430,0.04136
1313.47555,0.04179
1311.54681,0.04205
1309.61806,0.04218
1307.68932,0.04230
1305.76057,0.04233
1303.83183,0.04228
1301.90308,0.04223
1299.97434,0.04209
1298.04559,0.04179
1296.11685,0.04138
1294.18810,0.04096
1292.25936,0.04048
1290.33061,0.03989
1288.40187,0.03938
1286.47312,0.03918
1284.54437,0.03905
1282.61563,0.03873
1280.68688,0.03837
1278.75814,0.03818
1276.82939,0.03819
1274.90065,0.03818
1272.97190,0.03804
1271.04316,0.03795
1269.11441,0.03809
1267.18567,0.03850
1265.25692,0.03904
1263.32818,0.03935
1261.39943,0.03946
1259.47069,0.03981
1257.54194,0.04040
1255.61320,0.04082
1253.68445,0.04093
1251.75570,0.04089
1249.82696,0.04091
1247.89821,0.04110
1245.96947,0.04125
1244.04072,0.04121
1242.11198,0.04116
1240.18323,0.04115
1238.25449,0.04103
1236.32574,0.04090
1234.39700,0.04095
1232.46825,0.04113
1230.53951,0.04134
1228.61076,0.04148
1226.68202,0.04156
1224.75327,0.04167
1222.82452,0.04191
1220.89578,0.04216
1218.96703,0.04219
1217.03829,0.04222
1215.10954,0.04239
1213.18080,0.04240
1211.25205,0.04228
1209.32331,0.04230
1207.39456,0.04234
1205.46582,0.04226
1203.53707,0.04215
1201.60833,0.04206
1199.67958,0.04203
1197.75084,0.04206
1195.82209,0.04198
1193.89335,0.04171
1191.96460,0.04130
1190.03585,0.04081
1188.10711,0.04024
1186.17836,0.03955
1184.24962,0.03866
1182.32087,0.03777
1180.39213,0.03709
1178.46338,0.03655
1176.53464,0.03591
1174.60589,0.03516
1172.67715,0.03460
1170.74840,0.03438
1168.81966,0.03444
1166.89091,0.03481
1164.96217,0.03557
1163.03342,0.03656
1161.10467,0.03740
1159.17593,0.03774
1157.24718,0.03752
1155.31844,0.03712
1153.38969,0.03707
1151.46095,0.03728
1149.53220,0.03719
1147.60346,0.03674
1145.67471,0.03642
1143.74597,0.03638
1141.81722,0.03626
1139.88848,0.03592
1137.95973,0.03557
1136.03099,0.03538
1134.10224,0.03523
1132.17350,0.03493
1130.24475,0.03464
1128.31600,0.03455
1126.38726,0.03450
1124.45851,0.03447
1122.52977,0.03469
1120.60102,0.03520
1118.67228,0.03555
1116.74353,0.03555
1114.81479,0.03564
1112.88604,0.03607
1110.95730,0.03665
1109.02855,0.03720
1107.09981,0.03754
1105.17106,0.03753
1103.24232,0.03737
1101.31357,0.03732
1099.38483,0.03729
1097.45608,0.03725
1095.52733,0.03739
1093.59859,0.03753
1091.66984,0.03741
1089.74110,0.03735
1087.81235,0.03747
1085.88361,0.03744
1083.95486,0.03730
1082.02612,0.03738
1080.09737,0.03779
1078.16863,0.03837
1076.23988,0.03894
1074.31114,0.03964
1072.38239,0.04064
1070.45365,0.04181
1068.52490,0.04318
1066.59615,0.04479
1064.66741,0.04636
1062.73866,0.04779
1060.80992,0.04916
1058.88117,0.05042
1056.95243,0.05124
1055.02368,0.05162
1053.09494,0.05189
1051.16619,0.05197
1049.23745,0.05173
1047.30870,0.05140
1045.37996,0.05111
1043.45121,0.05102
1041.52247,0.05137
1039.59372,0.05227
1037.66498,0.05358
1035.73623,0.05502
1033.80748,0.05619
1031.87874,0.05695
1029.94999,0.05754
1028.02125,0.05803
1026.09250,0.05823
1024.16376,0.05808
1022.23501,0.05798
1020.30627,0.05826
1018.37752,0.05865
1016.44878,0.05898
1014.52003,0.05952
1012.59129,0.06014
1010.66254,0.06038
1008.73380,0.06032
1006.80505,0.06029
1004.87631,0.06026
1002.94756,0.06029
1001.01881,0.06061
999.09007,0.06120
997.16132,0.06182
995.23258,0.06219
993.30383,0.06235
991.37509,0.06266
989.44634,0.06333
987.51760,0.06430
985.58885,0.06531
983.66011,0.06630
981.73136,0.06741
979.80262,0.06854
977.87387,0.06939
975.94513,0.07008
974.01638,0.07062
972.08763,0.07079
970.15889,0.07069
968.23014,0.07062
966.30140,0.07072
964.37265,0.07107
962.44391,0.07173
960.51516,0.07255
958.58642,0.07323
956.65767,0.07367
954.72893,0.07401
952.80018,0.07454
950.87144,0.07530
948.94269,0.07582
947.01395,0.07583
945.08520,0.07569
943.15646,0.07589
941.22771,0.07646
939.29896,0.07708
937.37022,0.07754
935.44147,0.07789
933.51273,0.07818
931.58398,0.07832
929.65524,0.07846
927.72649,0.07878
925.79775,0.07902
923.86900,0.07867
921.94026,0.07796
920.01151,0.07744
918.08277,0.07702
916.15402,0.07648
914.22528,0.07580
912.29653,0.07490
910.36779,0.07383
908.43904,0.07264
906.51029,0.07137
904.58155,0.07041
902.65280,0.06983
900.72406,0.06928
898.79531,0.06875
896.86657,0.06858
894.93782,0.06883
893.00908,0.06934
891.08033,0.06992
889.15159,0.07058
887.22284,0.07121
885.29410,0.07160
883.36535,0.07179
881.43661,0.07188
879.50786,0.07205
877.57911,0.07230
875.65037,0.07229
873.72162,0.07198
871.79288,0.07172
869.86413,0.07191
867.93539,0.07241
866.00664,0.07271
864.07790,0.07266
862.14915,0.07250
860.22041,0.07256
858.29166,0.07308
856.36292,0.07380
854.43417,0.07413
852.50543,0.07412
850.57668,0.07425
848.64794,0.07446
846.71919,0.07449
844.79044,0.07452
842.86170,0.07459
840.93295,0.07446
839.00421,0.07403
837.07546,0.07323
835.14672,0.07210
833.21797,0.07105
831.28923,0.07031
829.36048,0.06971
827.43174,0.06901
825.50299,0.06826
823.57425,0.06757
821.64550,0.06674
819.71676,0.06569
817.78801,0.06480
815.85926,0.06442
813.93052,0.06421
812.00177,0.06377
810.07303,0.06340
808.14428,0.06347
806.21554,0.06388
804.28679,0.06437
802.35805,0.06474
800.42930,0.06492
798.50056,0.06484
796.57181,0.06438
794.64307,0.06391
792.71432,0.06372
790.78558,0.06335
788.85683,0.06253
786.92809,0.06160
784.99934,0.06093
783.07059,0.06055
781.14185,0.06024
779.21310,0.05991
777.28436,0.05976
775.35561,0.05976
773.42687,0.05966
771.49812,0.05944
769.56938,0.05912
767.64063,0.05881
765.71189,0.05862
763.78314,0.05842
761.85440,0.05826
759.92565,0.05814
757.99691,0.05786
756.06816,0.05747
754.13942,0.05722
752.21067,0.05721
750.28192,0.05718
748.35318,0.05694
746.42443,0.05651
744.49569,0.05607
742.56694,0.05569
740.63820,0.05532
738.70945,0.05478
736.78071,0.05399
734.85196,0.05322
732.92322,0.05273
730.99447,0.05237
729.06573,0.05195
727.13698,0.05138
725.20824,0.05098
723.27949,0.05080
721.35074,0.05043
719.42200,0.05001
717.49325,0.04990
715.56451,0.04977
713.63576,0.04941
711.70702,0.04919
709.77827,0.04922
707.84953,0.04919
705.92078,0.04916
703.99204,0.04933
702.06329,0.04953
700.13455,0.04940
698.20580,0.04892
696.27706,0.04842
694.34831,0.04805
692.41957,0.04784
690.49082,0.04777
688.56207,0.04774
686.63333,0.04785
684.70458,0.04763
682.77584,0.04667
680.84709,0.04580
678.91835,0.04548
676.98960,0.04520
675.06086,0.04505
673.13211,0.04543
671.20337,0.04589
669.27462,0.04595
667.34588,0.04590
665.41713,0.04604
663.48839,0.04609
661.55964,0.04594
659.63090,0.04574
657.70215,0.04560
655.77340,0.04599
653.84466,0.04699
651.91591,0.04767
649.98717,0.04737
648.05842,0.04644
646.12968,0.04563
644.20093,0.04564
642.27219,0.04624
640.34344,0.04638
638.41470,0.04589
636.48595,0.04548
634.55721,0.04497
632.62846,0.04428
630.69972,0.04468
628.77097,0.04618
626.84222,0.04655
624.91348,0.04482
622.98473,0.04293
621.05599,0.04296
619.12724,0.04453
617.19850,0.04574
615.26975,0.04548
613.34101,0.04433
611.41226,0.04389
609.48352,0.04473
607.55477,0.04593
605.62603,0.04672
603.69728,0.04706
601.76854,0.04689
599.83979,0.04652
