7497.03301,0.74822
7495.10426,0.74219
7493.17552,0.74370
7491.24677,0.75289
7489.31803,0.76214
7487.38928,0.76467
7485.46054,0.76144
7483.53179,0.75904
7481.60305,0.76040
7479.67430,0.76062
7477.74556,0.75858
7475.81681,0.75843
7473.88807,0.75941
7471.95932,0.75978
7470.03057,0.75864
7468.10183,0.75362
7466.17308,0.74975
7464.24434,0.75138
7462.31559,0.75288
7460.38685,0.75191
7458.45810,0.75008
7456.52936,0.74997
7454.60061,0.75554
7452.67187,0.76270
7450.74312,0.76318
7448.81438,0.75811
7446.88563,0.75458
7444.95689,0.75179
7443.02814,0.74746
7441.09940,0.74735
7439.17065,0.75021
7437.24190,0.75235
7435.31316,0.75571
7433.38441,0.75490
7431.45567,0.74797
7429.52692,0.74363
7427.59818,0.74471
7425.66943,0.74743
7423.74069,0.74832
7421.81194,0.74593
7419.88320,0.74374
7417.95445,0.74392
7416.02571,0.74321
7414.09696,0.74174
7412.16822,0.74185
7410.23947,0.74213
7408.31073,0.74272
7406.38198,0.74462
7404.45323,0.74603
7402.52449,0.74640
7400.59574,0.74682
7398.66700,0.74565
7396.73825,0.74079
7394.80951,0.73511
7392.88076,0.73193
7390.95202,0.73157
7389.02327,0.73588
7387.09453,0.74201
7385.16578,0.74243
7383.23704,0.73988
7381.30829,0.74141
7379.37955,0.74586
7377.45080,0.74873
7375.52205,0.74659
7373.59331,0.74217
7371.66456,0.74155
7369.73582,0.74313
7367.80707,0.74250
7365.87833,0.73976
7363.94958,0.73576
7362.02084,0.73311
7360.09209,0.73394
7358.16335,0.73234
7356.23460,0.72658
7354.30586,0.72616
7352.37711,0.73152
7350.44837,0.73324
7348.51962,0.73166
7346.59088,0.73294
7344.66213,0.73550
7342.73338,0.73555
7340.80464,0.73443
7338.87589,0.73323
7336.94715,0.73039
7335.01840,0.72511
7333.08966,0.72140
7331.16091,0.72272
7329.23217,0.72365
7327.30342,0.72167
7325.37468,0.72030
7323.44593,0.71691
7321.51719,0.71043
7319.58844,0.70701
7317.65970,0.70852
7315.73095,0.71202
7313.80221,0.71797
7311.87346,0.72508
7309.94471,0.72799
7308.01597,0.72713
7306.08722,0.72687
7304.15848,0.72743
7302.22973,0.72675
7300.30099,0.72590
7298.37224,0.72699
7296.44350,0.72889
7294.51475,0.72913
7292.58601,0.72629
7290.65726,0.72156
7288.72852,0.71677
7286.79977,0.71418
7284.87103,0.71525
7282.94228,0.71657
7281.01353,0.71684
7279.08479,0.71898
7277.15604,0.72396
7275.22730,0.72926
7273.29855,0.72970
7271.36981,0.72649
7269.44106,0.72665
7267.51232,0.72823
7265.58357,0.72505
7263.65483,0.72002
7261.72608,0.71934
7259.79734,0.72175
7257.86859,0.72086
7255.93985,0.71610
7254.01110,0.71307
7252.08236,0.71270
7250.15361,0.71254
7248.22486,0.71347
7246.29612,0.71628
7244.36737,0.72084
7242.43863,0.72484
7240.50988,0.72327
7238.58114,0.71808
7236.65239,0.71518
7234.72365,0.71483
7232.79490,0.71608
7230.86616,0.71928
7228.93741,0.72092
7227.00867,0.71859
7225.07992,0.71597
7223.15118,0.71537
7221.22243,0.71435
7219.29369,0.71236
7217.36494,0.71198
7215.43619,0.71363
7213.50745,0.71450
7211.57870,0.71261
7209.64996,0.70907
7207.72121,0.70814
7205.79247,0.71296
7203.86372,0.71765
7201.93498,0.71533
7200.00623,0.71102
7198.07749,0.71085
7196.14874,0.71344
7194.22000,0.71557
7192.29125,0.71496
7190.36251,0.71262
7188.43376,0.71033
7186.50501,0.70617
7184.57627,0.70228
7182.64752,0.70290
7180.71878,0.70531
7178.79003,0.70635
7176.86129,0.70582
7174.93254,0.70524
7173.00380,0.70749
7171.07505,0.71053
7169.14631,0.71065
7167.21756,0.70798
7165.28882,0.70445
7163.36007,0.70238
7161.43133,0.70144
7159.50258,0.70002
7157.57384,0.70023
7155.64509,0.70103
7153.71634,0.69748
7151.78760,0.69290
7149.85885,0.69311
7147.93011,0.69700
7146.00136,0.70181
7144.07262,0.70296
7142.14387,0.69827
7140.21513,0.69330
7138.28638,0.69111
7136.35764,0.68927
7134.42889,0.68730
7132.50015,0.68722
7130.57140,0.68779
7128.64266,0.68597
7126.71391,0.68445
7124.78516,0.68589
7122.85642,0.68698
7120.92767,0.68600
7118.99893,0.68268
7117.07018,0.67577
7115.14144,0.66994
7113.21269,0.67087
7111.28395,0.67567
7109.35520,0.67832
7107.42646,0.67615
7105.49771,0.67056
7103.56897,0.66648
7101.64022,0.66555
7099.71148,0.66485
7097.78273,0.66488
7095.85399,0.66590
7093.92524,0.66458
7091.99649,0.66111
7090.06775,0.65752
7088.13900,0.65479
7086.21026,0.65318
7084.28151,0.65106
7082.35277,0.64854
7080.42402,0.64693
7078.49528,0.64431
7076.56653,0.63981
7074.63779,0.63871
7072.70904,0.64375
7070.78030,0.64797
7068.85155,0.64637
7066.92281,0.64234
7064.99406,0.63835
7063.06532,0.63432
7061.13657,0.63211
7059.20782,0.63349
7057.27908,0.63710
7055.35033,0.63906
7053.42159,0.63585
7051.49284,0.62892
7049.56410,0.62407
7047.63535,0.62265
7045.70661,0.62153
7043.77786,0.62125
7041.84912,0.62271
7039.92037,0.62243
7037.99163,0.61880
7036.06288,0.61489
7034.13414,0.61359
7032.20539,0.61394
7030.27664,0.61281
7028.34790,0.60938
7026.41915,0.60577
7024.49041,0.60417
7022.56166,0.60459
7020.63292,0.60495
7018.70417,0.60365
7016.77543,0.60232
7014.84668,0.60281
7012.91794,0.60248
7010.98919,0.59848
7009.06045,0.59365
7007.13170,0.59221
7005.20296,0.59417
7003.27421,0.59684
7001.34547,0.59843
6999.41672,0.59862
6997.48797,0.59742
6995.55923,0.59487
6993.63048,0.59214
6991.70174,0.58961
6989.77299,0.58618
6987.84425,0.58393
6985.91550,0.58586
6983.98676,0.58969
6982.05801,0.59171
6980.12927,0.59056
6978.20052,0.58741
6976.27178,0.58570
6974.34303,0.58589
6972.41429,0.58532
6970.48554,0.58413
6968.55680,0.58271
6966.62805,0.58072
6964.69930,0.58034
6962.77056,0.58131
6960.84181,0.58097
6958.91307,0.58070
6956.98432,0.58224
6955.05558,0.58343
6953.12683,0.58222
6951.19809,0.58009
6949.26934,0.57924
6947.34060,0.57851
6945.41185,0.57694
6943.48311,0.57669
6941.55436,0.57814
6939.62562,0.57955
6937.69687,0.58104
6935.76812,0.58298
6933.83938,0.58370
6931.91063,0.58179
6929.98189,0.57787
6928.05314,0.57521
6926.12440,0.57607
6924.19565,0.57754
6922.26691,0.57741
6920.33816,0.57760
6918.40942,0.57815
6916.48067,0.57741
6914.55193,0.57686
6912.62318,0.57767
6910.69444,0.57734
6908.76569,0.57487
6906.83695,0.57167
6904.90820,0.56992
6902.97945,0.57191
6901.05071,0.57487
6899.12196,0.57486
6897.19322,0.57438
6895.26447,0.57618
6893.33573,0.57817
6891.40698,0.57808
6889.47824,0.57616
6887.54949,0.57365
6885.62075,0.57225
6883.69200,0.57169
6881.76326,0.57026
6879.83451,0.56934
6877.90577,0.57093
6875.97702,0.57432
6874.04828,0.57658
6872.11953,0.57636
6870.19078,0.57641
6868.26204,0.57702
6866.33329,0.57570
6864.40455,0.57324
6862.47580,0.57236
6860.54706,0.57451
6858.61831,0.57733
6856.68957,0.57732
6854.76082,0.57552
6852.83208,0.57471
6850.90333,0.57483
6848.97459,0.57532
6847.04584,0.57588
6845.11710,0.57495
6843.18835,0.57284
6841.25960,0.57139
6839.33086,0.57072
6837.40211,0.57037
6835.47337,0.57112
6833.54462,0.57404
6831.61588,0.57725
6829.68713,0.57818
6827.75839,0.57753
6825.82964,0.57628
6823.90090,0.57511
6821.97215,0.57391
6820.04341,0.57157
6818.11466,0.56947
6816.18592,0.57003
6814.25717,0.57309
6812.32843,0.57532
6810.39968,0.57378
6808.47093,0.57023
6806.54219,0.56910
6804.61344,0.57245
6802.68470,0.57638
6800.75595,0.57618
6798.82721,0.57390
6796.89846,0.57300
6794.96972,0.57361
6793.04097,0.57509
6791.11223,0.57589
6789.18348,0.57547
6787.25474,0.57466
6785.32599,0.57378
6783.39725,0.57395
6781.46850,0.57517
6779.53975,0.57651
6777.61101,0.57743
6775.68226,0.57614
6773.75352,0.57344
6771.82477,0.57173
6769.89603,0.57099
6767.96728,0.57137
6766.03854,0.57288
6764.10979,0.57502
6762.18105,0.57725
6760.25230,0.57783
6758.32356,0.57693
6756.39481,0.57670
6754.46607,0.57638
6752.53732,0.57450
6750.60858,0.57328
6748.67983,0.57478
6746.75108,0.57706
6744.82234,0.57829
6742.89359,0.57964
6740.96485,0.58118
6739.03610,0.58138
6737.10736,0.58015
6735.17861,0.57897
6733.24987,0.58001
6731.32112,0.58252
6729.39238,0.58324
6727.46363,0.58171
6725.53489,0.58024
6723.60614,0.58052
6721.67740,0.58090
6719.74865,0.57937
6717.81991,0.57744
6715.89116,0.57583
6713.96241,0.57360
6712.03367,0.57300
6710.10492,0.57703
6708.17618,0.58268
6706.24743,0.58441
6704.31869,0.58300
6702.38994,0.58249
6700.46120,0.58190
6698.53245,0.57870
6696.60371,0.57599
6694.67496,0.57690
6692.74622,0.57900
6690.81747,0.57966
6688.88873,0.57896
6686.95998,0.57812
6685.03123,0.57872
6683.10249,0.58043
6681.17374,0.58152
6679.24500,0.58207
6677.31625,0.58279
6675.38751,0.58343
6673.45876,0.58371
6671.53002,0.58291
6669.60127,0.58191
6667.67253,0.58274
6665.74378,0.58447
6663.81504,0.58541
6661.88629,0.58582
6659.95755,0.58540
6658.02880,0.58412
6656.10006,0.58380
6654.17131,0.58447
6652.24256,0.58415
6650.31382,0.58341
6648.38507,0.58435
6646.45633,0.58681
6644.52758,0.58954
6642.59884,0.59180
6640.67009,0.59272
6638.74135,0.59225
6636.81260,0.59150
6634.88386,0.59133
6632.95511,0.59156
6631.02637,0.59098
6629.09762,0.58924
6627.16888,0.58812
6625.24013,0.58860
6623.31139,0.58946
6621.38264,0.58902
6619.45389,0.58792
6617.52515,0.58951
6615.59640,0.59355
6613.66766,0.59525
6611.73891,0.59431
6609.81017,0.59376
6607.88142,0.59330
6605.95268,0.59346
6604.02393,0.59560
6602.09519,0.59711
6600.16644,0.59535
6598.23770,0.59209
6596.30895,0.59033
6594.38021,0.59107
6592.45146,0.59470
6590.52271,0.59964
6588.59397,0.60166
6586.66522,0.60062
6584.73648,0.59971
6582.80773,0.59855
6580.87899,0.59680
6578.95024,0.59694
6577.02150,0.59848
6575.09275,0.59854
6573.16401,0.59826
6571.23526,0.59998
6569.30652,0.60193
6567.37777,0.60186
6565.44903,0.60036
6563.52028,0.59952
6561.59154,0.60036
6559.66279,0.60170
6557.73404,0.60172
6555.80530,0.59949
6553.87655,0.59710
6551.94781,0.59744
6550.01906,0.59939
6548.09032,0.59995
6546.16157,0.59910
6544.23283,0.59920
6542.30408,0.60063
6540.37534,0.60112
6538.44659,0.60011
6536.51785,0.59954
6534.58910,0.60110
6532.66036,0.60362
6530.73161,0.60441
6528.80287,0.60413
6526.87412,0.60485
6524.94537,0.60572
6523.01663,0.60592
6521.08788,0.60616
6519.15914,0.60636
6517.23039,0.60546
6515.30165,0.60376
6513.37290,0.60356
6511.44416,0.60502
6509.51541,0.60551
6507.58667,0.60520
6505.65792,0.60561
6503.72918,0.60543
6501.80043,0.60464
6499.87169,0.60510
6497.94294,0.60589
6496.01419,0.60624
6494.08545,0.60717
6492.15670,0.60783
6490.22796,0.60683
6488.29921,0.60466
6486.37047,0.60314
6484.44172,0.60415
6482.51298,0.60696
6480.58423,0.60860
6478.65549,0.60839
6476.72674,0.60795
6474.79800,0.60762
6472.86925,0.60725
6470.94051,0.60767
6469.01176,0.60873
6467.08302,0.60890
6465.15427,0.60764
6463.22552,0.60573
6461.29678,0.60360
6459.36803,0.60268
6457.43929,0.60475
6455.51054,0.60808
6453.58180,0.60919
6451.65305,0.60814
6449.72431,0.60752
6447.79556,0.60793
6445.86682,0.60745
6443.93807,0.60649
6442.00933,0.60799
6440.08058,0.61028
6438.15184,0.61026
6436.22309,0.61005
6434.29434,0.61128
6432.36560,0.61200
6430.43685,0.61088
6428.50811,0.60984
6426.57936,0.61104
6424.65062,0.61294
6422.72187,0.61362
6420.79313,0.61279
6418.86438,0.61053
6416.93564,0.60852
6415.00689,0.60851
6413.07815,0.60924
6411.14940,0.60948
6409.22066,0.61037
6407.29191,0.61207
6405.36317,0.61230
6403.43442,0.61048
6401.50567,0.60945
6399.57693,0.61055
6397.64818,0.61237
6395.71944,0.61390
6393.79069,0.61478
6391.86195,0.61503
6389.93320,0.61448
6388.00446,0.61285
6386.07571,0.61121
6384.14697,0.61139
6382.21822,0.61277
6380.28948,0.61270
6378.36073,0.61181
6376.43199,0.61195
6374.50324,0.61203
6372.57450,0.61123
6370.64575,0.61072
6368.71700,0.61160
6366.78826,0.61269
6364.85951,0.61299
6362.93077,0.61356
6361.00202,0.61453
6359.07328,0.61513
6357.14453,0.61521
6355.21579,0.61522
6353.28704,0.61587
6351.35830,0.61704
6349.42955,0.61715
6347.50081,0.61611
6345.57206,0.61649
6343.64332,0.61830
6341.71457,0.61807
6339.78582,0.61552
6337.85708,0.61463
6335.92833,0.61700
6333.99959,0.61975
6332.07084,0.62059
6330.14210,0.61962
6328.21335,0.61770
6326.28461,0.61662
6324.35586,0.61745
6322.42712,0.61823
6320.49837,0.61801
6318.56963,0.61817
6316.64088,0.61795
6314.71214,0.61690
6312.78339,0.61611
6310.85465,0.61512
6308.92590,0.61520
6306.99715,0.61758
6305.06841,0.61989
6303.13966,0.62138
6301.21092,0.62268
6299.28217,0.62271
6297.35343,0.62227
6295.42468,0.62297
6293.49594,0.62363
6291.56719,0.62309
6289.63845,0.62242
6287.70970,0.62275
6285.78096,0.62399
6283.85221,0.62514
6281.92347,0.62471
6279.99472,0.62304
6278.06598,0.62224
6276.13723,0.62273
6274.20848,0.62345
6272.27974,0.62461
6270.35099,0.62609
6268.42225,0.62642
6266.49350,0.62596
6264.56476,0.62666
6262.63601,0.62808
6260.70727,0.62856
6258.77852,0.62883
6256.84978,0.62964
6254.92103,0.62932
6252.99229,0.62851
6251.06354,0.62987
6249.13480,0.63157
6247.20605,0.63102
6245.27730,0.62994
6243.34856,0.63014
6241.41981,0.63120
6239.49107,0.63264
6237.56232,0.63476
6235.63358,0.63708
6233.70483,0.63839
6231.77609,0.63873
6229.84734,0.63786
6227.91860,0.63568
6225.98985,0.63437
6224.06111,0.63531
6222.13236,0.63759
6220.20362,0.64003
6218.27487,0.64129
6216.34613,0.64117
6214.41738,0.64127
6212.48863,0.64213
6210.55989,0.64281
6208.63114,0.64301
6206.70240,0.64326
6204.77365,0.64387
6202.84491,0.64470
6200.91616,0.64535
6198.98742,0.64607
6197.05867,0.64757
6195.12993,0.64910
6193.20118,0.64973
6191.27244,0.65017
6189.34369,0.65083
6187.41495,0.65159
6185.48620,0.65254
6183.55746,0.65254
6181.62871,0.65137
6179.69996,0.65104
6177.77122,0.65157
6175.84247,0.65144
6173.91373,0.65096
6171.98498,0.65082
6170.05624,0.65146
6168.12749,0.65305
6166.19875,0.65483
6164.27000,0.65624
6162.34126,0.65687
6160.41251,0.65665
6158.48377,0.65625
6156.55502,0.65605
6154.62628,0.65609
6152.69753,0.65635
6150.76878,0.65668
6148.84004,0.65667
6146.91129,0.65625
6144.98255,0.65589
6143.05380,0.65613
6141.12506,0.65768
6139.19631,0.66070
6137.26757,0.66388
6135.33882,0.66492
6133.41008,0.66348
6131.48133,0.66190
6129.55259,0.66127
6127.62384,0.66099
6125.69510,0.66104
6123.76635,0.66083
6121.83761,0.65984
6119.90886,0.65970
6117.98011,0.66109
6116.05137,0.66231
6114.12262,0.66266
6112.19388,0.66255
6110.26513,0.66288
6108.33639,0.66444
6106.40764,0.66598
6104.47890,0.66625
6102.55015,0.66587
6100.62141,0.66558
6098.69266,0.66549
6096.76392,0.66537
6094.83517,0.66496
6092.90643,0.66417
6090.97768,0.66294
6089.04893,0.66174
6087.12019,0.66159
6085.19144,0.66247
6083.26270,0.66301
6081.33395,0.66340
6079.40521,0.66506
6077.47646,0.66633
6075.54772,0.66586
6073.61897,0.66573
6071.69023,0.66536
6069.76148,0.66281
6067.83274,0.65987
6065.90399,0.65851
6063.97525,0.65907
6062.04650,0.66086
6060.11776,0.66189
6058.18901,0.66123
6056.26026,0.66030
6054.33152,0.65981
6052.40277,0.65938
6050.47403,0.65976
6048.54528,0.66077
6046.61654,0.66042
6044.68779,0.65944
6042.75905,0.65965
6040.83030,0.65930
6038.90156,0.65760
6036.97281,0.65733
6035.04407,0.65889
6033.11532,0.65961
6031.18658,0.65858
6029.25783,0.65724
6027.32909,0.65613
6025.40034,0.65423
6023.47159,0.65183
6021.54285,0.65082
6019.61410,0.65180
6017.68536,0.65334
6015.75661,0.65361
6013.82787,0.65226
6011.89912,0.65046
6009.97038,0.64917
6008.04163,0.64862
6006.11289,0.64858
6004.18414,0.64792
6002.25540,0.64699
6000.32665,0.64774
5998.39791,0.64940
5996.46916,0.64950
5994.54041,0.64824
5992.61167,0.64722
5990.68292,0.64705
5988.75418,0.64728
5986.82543,0.64713
5984.89669,0.64651
5982.96794,0.64566
5981.03920,0.64473
5979.11045,0.64447
5977.18171,0.64525
5975.25296,0.64618
5973.32422,0.64611
5971.39547,0.64536
5969.46673,0.64501
5967.53798,0.64499
5965.60924,0.64484
5963.68049,0.64401
5961.75174,0.64254
5959.82300,0.64208
5957.89425,0.64308
5955.96551,0.64419
5954.03676,0.64469
5952.10802,0.64495
5950.17927,0.64515
5948.25053,0.64508
5946.32178,0.64497
5944.39304,0.64448
5942.46429,0.64422
5940.53555,0.64559
5938.60680,0.64650
5936.67806,0.64509
5934.74931,0.64379
5932.82057,0.64399
5930.89182,0.64444
5928.96307,0.64514
5927.03433,0.64608
5925.10558,0.64537
5923.17684,0.64334
5921.24809,0.64296
5919.31935,0.64431
5917.39060,0.64523
5915.46186,0.64580
5913.53311,0.64627
5911.60437,0.64592
5909.67562,0.64516
5907.74688,0.64412
5905.81813,0.64239
5903.88939,0.64066
5901.96064,0.63968
5900.03189,0.63962
5898.10315,0.63994
5896.17440,0.63998
5894.24566,0.64049
5892.31691,0.64164
5890.38817,0.64158
5888.45942,0.64020
5886.53068,0.63956
5884.60193,0.64007
5882.67319,0.64037
5880.74444,0.63970
5878.81570,0.63826
5876.88695,0.63660
5874.95821,0.63570
5873.02946,0.63621
5871.10072,0.63760
5869.17197,0.63871
5867.24322,0.63845
5865.31448,0.63723
5863.38573,0.63714
5861.45699,0.63849
5859.52824,0.63886
5857.59950,0.63730
5855.67075,0.63607
5853.74201,0.63674
5851.81326,0.63772
5849.88452,0.63736
5847.95577,0.63701
5846.02703,0.63795
5844.09828,0.63859
5842.16954,0.63832
5840.24079,0.63846
5838.31205,0.63868
5836.38330,0.63814
5834.45455,0.63738
5832.52581,0.63650
5830.59706,0.63596
5828.66832,0.63674
5826.73957,0.63772
5824.81083,0.63783
5822.88208,0.63776
5820.95334,0.63734
5819.02459,0.63578
5817.09585,0.63350
5815.16710,0.63180
5813.23836,0.63139
5811.30961,0.63195
5809.38087,0.63276
5807.45212,0.63299
5805.52337,0.63235
5803.59463,0.63171
5801.66588,0.63232
5799.73714,0.63384
5797.80839,0.63491
5795.87965,0.63513
5793.95090,0.63449
5792.02216,0.63320
5790.09341,0.63199
5788.16467,0.63098
5786.23592,0.63011
5784.30718,0.63012
5782.37843,0.63150
5780.44969,0.63314
5778.52094,0.63364
5776.59220,0.63358
5774.66345,0.63435
5772.73470,0.63529
5770.80596,0.63533
5768.87721,0.63558
5766.94847,0.63643
5765.01972,0.63629
5763.09098,0.63559
5761.16223,0.63594
5759.23349,0.63624
5757.30474,0.63537
5755.37600,0.63468
5753.44725,0.63513
5751.51851,0.63603
5749.58976,0.63615
5747.66102,0.63554
5745.73227,0.63571
5743.80352,0.63634
5741.87478,0.63577
5739.94603,0.63487
5738.01729,0.63551
5736.08854,0.63721
5734.15980,0.63825
5732.23105,0.63788
5730.30231,0.63618
5728.37356,0.63450
5726.44482,0.63478
5724.51607,0.63607
5722.58733,0.63644
5720.65858,0.63623
5718.72984,0.63585
5716.80109,0.63567
5714.87235,0.63633
5712.94360,0.63688
5711.01485,0.63649
5709.08611,0.63568
5707.15736,0.63500
5705.22862,0.63476
5703.29987,0.63499
5701.37113,0.63552
5699.44238,0.63599
5697.51364,0.63561
5695.58489,0.63444
5693.65615,0.63381
5691.72740,0.63416
5689.79866,0.63453
5687.86991,0.63437
5685.94117,0.63446
5684.01242,0.63516
5682.08368,0.63504
5680.15493,0.63380
5678.22618,0.63327
5676.29744,0.63368
5674.36869,0.63347
5672.43995,0.63247
5670.51120,0.63238
5668.58246,0.63401
5666.65371,0.63561
5664.72497,0.63566
5662.79622,0.63473
5660.86748,0.63378
5658.93873,0.63345
5657.00999,0.63426
5655.08124,0.63535
5653.15250,0.63516
5651.22375,0.63400
5649.29500,0.63354
5647.36626,0.63376
5645.43751,0.63339
5643.50877,0.63318
5641.58002,0.63420
5639.65128,0.63508
5637.72253,0.63489
5635.79379,0.63451
5633.86504,0.63410
5631.93630,0.63289
5630.00755,0.63175
5628.07881,0.63203
5626.15006,0.63296
5624.22132,0.63339
5622.29257,0.63346
5620.36383,0.63426
5618.43508,0.63592
5616.50633,0.63698
5614.57759,0.63681
5612.64884,0.63563
5610.72010,0.63398
5608.79135,0.63279
5606.86261,0.63243
5604.93386,0.63293
5603.00512,0.63350
5601.07637,0.63301
5599.14763,0.63213
5597.21888,0.63187
5595.29014,0.63206
5593.36139,0.63261
5591.43265,0.63317
5589.50390,0.63336
5587.57516,0.63373
5585.64641,0.63418
5583.71766,0.63402
5581.78892,0.63346
5579.86017,0.63300
5577.93143,0.63284
5576.00268,0.63344
5574.07394,0.63499
5572.14519,0.63606
5570.21645,0.63587
5568.28770,0.63539
5566.35896,0.63516
5564.43021,0.63567
5562.50147,0.63684
5560.57272,0.63732
5558.64398,0.63677
5556.71523,0.63617
5554.78648,0.63626
5552.85774,0.63681
5550.92899,0.63718
5549.00025,0.63697
5547.07150,0.63656
5545.14276,0.63681
5543.21401,0.63696
5541.28527,0.63618
5539.35652,0.63569
5537.42778,0.63643
5535.49903,0.63759
5533.57029,0.63811
5531.64154,0.63782
5529.71280,0.63792
5527.78405,0.63915
5525.85531,0.64013
5523.92656,0.64005
5521.99781,0.63929
5520.06907,0.63781
5518.14032,0.63679
5516.21158,0.63746
5514.28283,0.63894
5512.35409,0.63998
5510.42534,0.63995
5508.49660,0.63960
5506.56785,0.63992
5504.63911,0.64004
5502.71036,0.63938
5500.78162,0.63901
5498.85287,0.63955
5496.92413,0.64035
5494.99538,0.64099
5493.06664,0.64138
5491.13789,0.64114
5489.20914,0.64090
5487.28040,0.64157
5485.35165,0.64254
5483.42291,0.64275
5481.49416,0.64241
5479.56542,0.64191
5477.63667,0.64116
5475.70793,0.64095
5473.77918,0.64186
5471.85044,0.64298
5469.92169,0.64388
5467.99295,0.64443
5466.06420,0.64404
5464.13546,0.64314
5462.20671,0.64316
5460.27796,0.64465
5458.34922,0.64637
5456.42047,0.64664
5454.49173,0.64550
5452.56298,0.64416
5450.63424,0.64361
5448.70549,0.64440
5446.77675,0.64614
5444.84800,0.64745
5442.91926,0.64776
5440.99051,0.64792
5439.06177,0.64834
5437.13302,0.64859
5435.20428,0.64871
5433.27553,0.64877
5431.34679,0.64883
5429.41804,0.64958
5427.48929,0.65040
5425.56055,0.65006
5423.63180,0.64932
5421.70306,0.64988
5419.77431,0.65188
5417.84557,0.65336
5415.91682,0.65341
5413.98808,0.65341
5412.05933,0.65404
5410.13059,0.65487
5408.20184,0.65525
5406.27310,0.65487
5404.34435,0.65447
5402.41561,0.65442
5400.48686,0.65436
5398.55811,0.65451
5396.62937,0.65500
5394.70062,0.65525
5392.77188,0.65484
5390.84313,0.65406
5388.91439,0.65407
5386.98564,0.65498
5385.05690,0.65490
5383.12815,0.65373
5381.19941,0.65329
5379.27066,0.65329
5377.34192,0.65284
5375.41317,0.65273
5373.48443,0.65307
5371.55568,0.65313
5369.62694,0.65309
5367.69819,0.65315
5365.76944,0.65308
5363.84070,0.65276
5361.91195,0.65207
5359.98321,0.65146
5358.05446,0.65155
5356.12572,0.65229
5354.19697,0.65304
5352.26823,0.65331
5350.33948,0.65329
5348.41074,0.65324
5346.48199,0.65307
5344.55325,0.65245
5342.62450,0.65145
5340.69576,0.65066
5338.76701,0.65008
5336.83827,0.64920
5334.90952,0.64813
5332.98077,0.64737
5331.05203,0.64699
5329.12328,0.64657
5327.19454,0.64542
5325.26579,0.64377
5323.33705,0.64226
5321.40830,0.64037
5319.47956,0.63780
5317.55081,0.63536
5315.62207,0.63393
5313.69332,0.63352
5311.76458,0.63270
5309.83583,0.63079
5307.90709,0.62873
5305.97834,0.62679
5304.04959,0.62442
5302.12085,0.62156
5300.19210,0.61859
5298.26336,0.61592
5296.33461,0.61348
5294.40587,0.61113
5292.47712,0.60913
5290.54838,0.60701
5288.61963,0.60362
5286.69089,0.59950
5284.76214,0.59580
5282.83340,0.59248
5280.90465,0.58914
5278.97591,0.58515
5277.04716,0.58038
5275.11842,0.57602
5273.18967,0.57227
5271.26092,0.56847
5269.33218,0.56449
5267.40343,0.56039
5265.47469,0.55631
5263.54594,0.55236
5261.61720,0.54830
5259.68845,0.54431
5257.75971,0.54094
5255.83096,0.53764
5253.90222,0.53345
5251.97347,0.52933
5250.04473,0.52600
5248.11598,0.52289
5246.18724,0.52001
5244.25849,0.51708
5242.32975,0.51345
5240.40100,0.50940
5238.47225,0.50560
5236.54351,0.50306
5234.61476,0.50197
5232.68602,0.50078
5230.75727,0.49879
5228.82853,0.49690
5226.89978,0.49550
5224.97104,0.49368
5223.04229,0.49105
5221.11355,0.48848
5219.18480,0.48644
5217.25606,0.48501
5215.32731,0.48446
5213.39857,0.48441
5211.46982,0.48388
5209.54107,0.48259
5207.61233,0.48140
5205.68358,0.48069
5203.75484,0.47984
5201.82609,0.47872
5199.89735,0.47799
5197.96860,0.47829
5196.03986,0.47934
5194.11111,0.47982
5192.18237,0.47950
5190.25362,0.47949
5188.32488,0.47982
5186.39613,0.48011
5184.46739,0.48038
5182.53864,0.48039
5180.60990,0.48061
5178.68115,0.48124
5176.75240,0.48161
5174.82366,0.48163
5172.89491,0.48197
5170.96617,0.48308
5169.03742,0.48440
5167.10868,0.48519
5165.17993,0.48567
5163.25119,0.48636
5161.32244,0.48716
5159.39370,0.48760
5157.46495,0.48815
5155.53621,0.48946
5153.60746,0.49112
5151.67872,0.49278
5149.74997,0.49452
5147.82123,0.49570
5145.89248,0.49598
5143.96373,0.49631
5142.03499,0.49712
5140.10624,0.49792
5138.17750,0.49895
5136.24875,0.50058
5134.32001,0.50217
5132.39126,0.50330
5130.46252,0.50421
5128.53377,0.50503
5126.60503,0.50595
5124.67628,0.50709
5122.74754,0.50836
5120.81879,0.50989
5118.89005,0.51154
5116.96130,0.51270
5115.03255,0.51344
5113.10381,0.51460
5111.17506,0.51646
5109.24632,0.51822
5107.31757,0.51865
5105.38883,0.51813
5103.46008,0.51816
5101.53134,0.51891
5099.60259,0.51998
5097.67385,0.52155
5095.74510,0.52346
5093.81636,0.52507
5091.88761,0.52635
5089.95887,0.52777
5088.03012,0.52901
5086.10138,0.52964
5084.17263,0.53011
5082.24388,0.53087
5080.31514,0.53200
5078.38639,0.53348
5076.45765,0.53481
5074.52890,0.53518
5072.60016,0.53549
5070.67141,0.53688
5068.74267,0.53834
5066.81392,0.53883
5064.88518,0.53885
5062.95643,0.53928
5061.02769,0.54041
5059.09894,0.54181
5057.17020,0.54318
5055.24145,0.54437
5053.31270,0.54514
5051.38396,0.54578
5049.45521,0.54644
5047.52647,0.54687
5045.59772,0.54745
5043.66898,0.54878
5041.74023,0.55034
5039.81149,0.55139
5037.88274,0.55173
5035.95400,0.55182
5034.02525,0.55231
5032.09651,0.55327
5030.16776,0.55419
5028.23902,0.55477
5026.31027,0.55523
5024.38153,0.55598
5022.45278,0.55706
5020.52403,0.55803
5018.59529,0.55857
5016.66654,0.55887
5014.73780,0.55910
5012.80905,0.55920
5010.88031,0.55917
5008.95156,0.55911
5007.02282,0.55927
5005.09407,0.55957
5003.16533,0.55966
5001.23658,0.55953
4999.30784,0.55964
4997.37909,0.56019
4995.45035,0.56068
4993.52160,0.56085
4991.59286,0.56082
4989.66411,0.56057
4987.73536,0.56015
4985.80662,0.55977
4983.87787,0.55945
4981.94913,0.55925
4980.02038,0.55909
4978.09164,0.55847
4976.16289,0.55752
4974.23415,0.55679
4972.30540,0.55622
4970.37666,0.55567
4968.44791,0.55505
4966.51917,0.55430
4964.59042,0.55374
4962.66168,0.55326
4960.73293,0.55215
4958.80418,0.55059
4956.87544,0.54928
4954.94669,0.54812
4953.01795,0.54699
4951.08920,0.54582
4949.16046,0.54461
4947.23171,0.54378
4945.30297,0.54289
4943.37422,0.54111
4941.44548,0.53925
4939.51673,0.53811
4937.58799,0.53680
4935.65924,0.53481
4933.73050,0.53290
4931.80175,0.53137
4929.87301,0.53012
4927.94426,0.52900
4926.01551,0.52741
4924.08677,0.52508
4922.15802,0.52313
4920.22928,0.52208
4918.30053,0.52054
4916.37179,0.51807
4914.44304,0.51604
4912.51430,0.51479
4910.58555,0.51357
4908.65681,0.51218
4906.72806,0.51063
4904.79932,0.50869
4902.87057,0.50642
4900.94183,0.50443
4899.01308,0.50294
4897.08434,0.50151
4895.15559,0.49990
4893.22684,0.49817
4891.29810,0.49641
4889.36935,0.49494
4887.44061,0.49392
4885.51186,0.49306
4883.58312,0.49172
4881.65437,0.48952
4879.72563,0.48705
4877.79688,0.48497
4875.86814,0.48333
4873.93939,0.48233
4872.01065,0.48181
4870.08190,0.48097
4868.15316,0.47941
4866.22441,0.47752
4864.29566,0.47605
4862.36692,0.47528
4860.43817,0.47447
4858.50943,0.47280
4856.58068,0.47060
4854.65194,0.46891
4852.72319,0.46796
4850.79445,0.46712
4848.86570,0.46609
4846.93696,0.46518
4845.00821,0.46437
4843.07947,0.46310
4841.15072,0.46135
4839.22198,0.45988
4837.29323,0.45878
4835.36449,0.45756
4833.43574,0.45629
4831.50699,0.45527
4829.57825,0.45421
4827.64950,0.45288
4825.72076,0.45173
4823.79201,0.45118
4821.86327,0.45082
4819.93452,0.44995
4818.00578,0.44877
4816.07703,0.44776
4814.14829,0.44678
4812.21954,0.44587
4810.29080,0.44546
4808.36205,0.44548
4806.43331,0.44526
4804.50456,0.44438
4802.57582,0.44328
4800.64707,0.44241
4798.71832,0.44190
4796.78958,0.44197
4794.86083,0.44226
4792.93209,0.44221
4791.00334,0.44202
4789.07460,0.44159
4787.14585,0.44034
4785.21711,0.43891
4783.28836,0.43850
4781.35962,0.43890
4779.43087,0.43906
4777.50213,0.43846
4775.57338,0.43750
4773.64464,0.43684
4771.71589,0.43644
4769.78714,0.43596
4767.85840,0.43553
4765.92965,0.43517
4764.00091,0.43485
4762.07216,0.43482
4760.14342,0.43511
4758.21467,0.43545
4756.28593,0.43562
4754.35718,0.43548
4752.42844,0.43512
4750.49969,0.43470
4748.57095,0.43439
4746.64220,0.43419
4744.71346,0.43417
4742.78471,0.43465
4740.85597,0.43536
4738.92722,0.43572
4736.99847,0.43576
4735.06973,0.43582
4733.14098,0.43590
4731.21224,0.43587
4729.28349,0.43600
4727.35475,0.43641
4725.42600,0.43688
4723.49726,0.43734
4721.56851,0.43753
4719.63977,0.43734
4717.71102,0.43722
4715.78228,0.43747
4713.85353,0.43779
4711.92479,0.43789
4709.99604,0.43801
4708.06729,0.43814
4706.13855,0.43802
4704.20980,0.43809
4702.28106,0.43863
4700.35231,0.43899
4698.42357,0.43900
4696.49482,0.43900
4694.56608,0.43905
4692.63733,0.43940
4690.70859,0.44002
4688.77984,0.44047
4686.85110,0.44075
4684.92235,0.44108
4682.99361,0.44147
4681.06486,0.44207
4679.13612,0.44280
4677.20737,0.44311
4675.27862,0.44300
4673.34988,0.44312
4671.42113,0.44359
4669.49239,0.44432
4667.56364,0.44523
4665.63490,0.44581
4663.70615,0.44619
4661.77741,0.44698
4659.84866,0.44789
4657.91992,0.44859
4655.99117,0.44946
4654.06243,0.45052
4652.13368,0.45131
4650.20494,0.45183
4648.27619,0.45239
4646.34745,0.45298
4644.41870,0.45365
4642.48995,0.45434
4640.56121,0.45470
4638.63246,0.45493
4636.70372,0.45555
4634.77497,0.45646
4632.84623,0.45730
4630.91748,0.45818
4628.98874,0.45938
4627.05999,0.46060
4625.13125,0.46160
4623.20250,0.46249
4621.27376,0.46323
4619.34501,0.46382
4617.41627,0.46455
4615.48752,0.46568
4613.55877,0.46688
4611.63003,0.46791
4609.70128,0.46905
4607.77254,0.47014
4605.84379,0.47103
4603.91505,0.47205
4601.98630,0.47300
4600.05756,0.47343
4598.12881,0.47369
4596.20007,0.47408
4594.27132,0.47466
4592.34258,0.47570
4590.41383,0.47692
4588.48509,0.47787
4586.55634,0.47865
4584.62760,0.47942
4582.69885,0.48009
4580.77010,0.48061
4578.84136,0.48105
4576.91261,0.48154
4574.98387,0.48234
4573.05512,0.48331
4571.12638,0.48418
4569.19763,0.48499
4567.26889,0.48561
4565.34014,0.48596
4563.41140,0.48616
4561.48265,0.48642
4559.55391,0.48700
4557.62516,0.48760
4555.69642,0.48789
4553.76767,0.48818
4551.83893,0.48856
4549.91018,0.48880
4547.98143,0.48894
4546.05269,0.48907
4544.12394,0.48939
4542.19520,0.48984
4540.26645,0.49014
4538.33771,0.49059
4536.40896,0.49136
4534.48022,0.49178
4532.55147,0.49164
4530.62273,0.49157
4528.69398,0.49212
4526.76524,0.49308
4524.83649,0.49365
4522.90775,0.49358
4520.97900,0.49335
4519.05025,0.49325
4517.12151,0.49334
4515.19276,0.49333
4513.26402,0.49281
4511.33527,0.49199
4509.40653,0.49129
4507.47778,0.49093
4505.54904,0.49081
4503.62029,0.49077
4501.69155,0.49088
4499.76280,0.49055
4497.83406,0.48939
4495.90531,0.48816
4493.97657,0.48730
4492.04782,0.48648
4490.11908,0.48559
4488.19033,0.48482
4486.26158,0.48401
4484.33284,0.48264
4482.40409,0.48084
4480.47535,0.47898
4478.54660,0.47696
4476.61786,0.47503
4474.68911,0.47344
4472.76037,0.47198
4470.83162,0.47039
4468.90288,0.46840
4466.97413,0.46595
4465.04539,0.46348
4463.11664,0.46138
4461.18790,0.45941
4459.25915,0.45709
4457.33041,0.45450
4455.40166,0.45192
4453.47291,0.44967
4451.54417,0.44780
4449.61542,0.44569
4447.68668,0.44337
4445.75793,0.44123
4443.82919,0.43893
4441.90044,0.43652
4439.97170,0.43441
4438.04295,0.43253
4436.11421,0.43064
4434.18546,0.42842
4432.25672,0.42571
4430.32797,0.42296
4428.39923,0.42069
4426.47048,0.41867
4424.54173,0.41637
4422.61299,0.41396
4420.68424,0.41189
4418.75550,0.41002
4416.82675,0.40795
4414.89801,0.40575
4412.96926,0.40369
4411.04052,0.40193
4409.11177,0.40049
4407.18303,0.39921
4405.25428,0.39814
4403.32554,0.39746
4401.39679,0.39695
4399.46805,0.39648
4397.53930,0.39617
4395.61056,0.39611
4393.68181,0.39628
4391.75306,0.39656
4389.82432,0.39685
4387.89557,0.39716
4385.96683,0.39764
4384.03808,0.39847
4382.10934,0.39934
4380.18059,0.39990
4378.25185,0.40052
4376.32310,0.40146
4374.39436,0.40236
4372.46561,0.40312
4370.53687,0.40414
4368.60812,0.40511
4366.67938,0.40554
4364.75063,0.40592
4362.82189,0.40642
4360.89314,0.40660
4358.96439,0.40657
4357.03565,0.40669
4355.10690,0.40678
4353.17816,0.40654
4351.24941,0.40608
4349.32067,0.40570
4347.39192,0.40541
4345.46318,0.40514
4343.53443,0.40501
4341.60569,0.40496
4339.67694,0.40464
4337.74820,0.40427
4335.81945,0.40400
4333.89071,0.40338
4331.96196,0.40250
4330.03321,0.40201
4328.10447,0.40182
4326.17572,0.40131
4324.24698,0.40032
4322.31823,0.39917
4320.38949,0.39820
4318.46074,0.39748
4316.53200,0.39682
4314.60325,0.39601
4312.67451,0.39522
4310.74576,0.39453
4308.81702,0.39387
4306.88827,0.39340
4304.95953,0.39283
4303.03078,0.39179
4301.10204,0.39055
4299.17329,0.38948
4297.24454,0.38888
4295.31580,0.38866
4293.38705,0.38825
4291.45831,0.38736
4289.52956,0.38647
4287.60082,0.38608
4285.67207,0.38577
4283.74333,0.38537
4281.81458,0.38531
4279.88584,0.38528
4277.95709,0.38510
4276.02835,0.38504
4274.09960,0.38501
4272.17086,0.38499
4270.24211,0.38519
4268.31336,0.38572
4266.38462,0.38631
4264.45587,0.38675
4262.52713,0.38724
4260.59838,0.38772
4258.66964,0.38795
4256.74089,0.38815
4254.81215,0.38849
4252.88340,0.38900
4250.95466,0.38946
4249.02591,0.38962
4247.09717,0.38981
4245.16842,0.39032
4243.23968,0.39084
4241.31093,0.39115
4239.38219,0.39134
4237.45344,0.39142
4235.52469,0.39135
4233.59595,0.39137
4231.66720,0.39155
4229.73846,0.39160
4227.80971,0.39141
4225.88097,0.39096
4223.95222,0.39051
4222.02348,0.39045
4220.09473,0.39063
4218.16599,0.39072
4216.23724,0.39086
4214.30850,0.39136
4212.37975,0.39182
4210.45101,0.39178
4208.52226,0.39157
4206.59352,0.39153
4204.66477,0.39152
4202.73602,0.39151
4200.80728,0.39174
4198.87853,0.39199
4196.94979,0.39204
4195.02104,0.39229
4193.09230,0.39287
4191.16355,0.39342
4189.23481,0.39365
4187.30606,0.39362
4185.37732,0.39364
4183.44857,0.39380
4181.51983,0.39398
4179.59108,0.39413
4177.66234,0.39444
4175.73359,0.39514
4173.80484,0.39605
4171.87610,0.39663
4169.94735,0.39682
4168.01861,0.39694
4166.08986,0.39724
4164.16112,0.39772
4162.23237,0.39805
4160.30363,0.39794
4158.37488,0.39757
4156.44614,0.39715
4154.51739,0.39684
4152.58865,0.39668
4150.65990,0.39648
4148.73116,0.39600
4146.80241,0.39520
4144.87367,0.39410
4142.94492,0.39292
4141.01617,0.39186
4139.08743,0.39093
4137.15868,0.39015
4135.22994,0.38949
4133.30119,0.38874
4131.37245,0.38770
4129.44370,0.38648
4127.51496,0.38539
4125.58621,0.38424
4123.65747,0.38274
4121.72872,0.38116
4119.79998,0.37998
4117.87123,0.37909
4115.94249,0.37801
4114.01374,0.37663
4112.08500,0.37505
4110.15625,0.37324
4108.22750,0.37148
4106.29876,0.36999
4104.37001,0.36853
4102.44127,0.36700
4100.51252,0.36556
4098.58378,0.36400
4096.65503,0.36211
4094.72629,0.35992
4092.79754,0.35783
4090.86880,0.35607
4088.94005,0.35441
4087.01131,0.35274
4085.08256,0.35122
4083.15382,0.34967
4081.22507,0.34775
4079.29632,0.34566
4077.36758,0.34367
4075.43883,0.34178
4073.51009,0.34016
4071.58134,0.33877
4069.65260,0.33722
4067.72385,0.33523
4065.79511,0.33316
4063.86636,0.33146
4061.93762,0.32982
4060.00887,0.32794
4058.08013,0.32614
4056.15138,0.32450
4054.22264,0.32280
4052.29389,0.32114
4050.36515,0.31971
4048.43640,0.31851
4046.50765,0.31731
4044.57891,0.31575
4042.65016,0.31387
4040.72142,0.31243
4038.79267,0.31164
4036.86393,0.31077
4034.93518,0.30944
4033.00644,0.30798
4031.07769,0.30687
4029.14895,0.30611
4027.22020,0.30518
4025.29146,0.30415
4023.36271,0.30345
4021.43397,0.30280
4019.50522,0.30202
4017.57648,0.30160
4015.64773,0.30195
4013.71898,0.30258
4011.79024,0.30271
4009.86149,0.30251
4007.93275,0.30233
4006.00400,0.30224
4004.07526,0.30248
4002.14651,0.30295
4000.21777,0.30342
3998.28902,0.30388
3996.36028,0.30415
3994.43153,0.30442
3992.50279,0.30506
3990.57404,0.30561
3988.64530,0.30580
3986.71655,0.30617
3984.78780,0.30673
3982.85906,0.30709
3980.93031,0.30727
3979.00157,0.30753
3977.07282,0.30809
3975.14408,0.30902
3973.21533,0.30991
3971.28659,0.31046
3969.35784,0.31096
3967.42910,0.31152
3965.50035,0.31204
3963.57161,0.31267
3961.64286,0.31351
3959.71412,0.31446
3957.78537,0.31535
3955.85663,0.31613
3953.92788,0.31687
3951.99913,0.31771
3950.07039,0.31871
3948.14164,0.31972
3946.21290,0.32062
3944.28415,0.32151
3942.35541,0.32222
3940.42666,0.32270
3938.49792,0.32338
3936.56917,0.32427
3934.64043,0.32521
3932.71168,0.32626
3930.78294,0.32717
3928.85419,0.32781
3926.92545,0.32863
3924.99670,0.32979
3923.06795,0.33089
3921.13921,0.33177
3919.21046,0.33269
3917.28172,0.33370
3915.35297,0.33448
3913.42423,0.33493
3911.49548,0.33547
3909.56674,0.33639
3907.63799,0.33756
3905.70925,0.33869
3903.78050,0.33954
3901.85176,0.34033
3899.92301,0.34126
3897.99427,0.34200
3896.06552,0.34257
3894.13678,0.34333
3892.20803,0.34427
3890.27928,0.34510
3888.35054,0.34582
3886.42179,0.34653
3884.49305,0.34715
3882.56430,0.34777
3880.63556,0.34832
3878.70681,0.34854
3876.77807,0.34892
3874.84932,0.34979
3872.92058,0.35072
3870.99183,0.35144
3869.06309,0.35202
3867.13434,0.35278
3865.20560,0.35397
3863.27685,0.35534
3861.34811,0.35647
3859.41936,0.35723
3857.49061,0.35795
3855.56187,0.35926
3853.63312,0.36087
3851.70438,0.36121
3849.77563,0.36080
3847.84689,0.36090
3845.91814,0.36171
3843.98940,0.36276
3842.06065,0.36364
3840.13191,0.36433
3838.20316,0.36497
3836.27442,0.36543
3834.34567,0.36560
3832.41693,0.36547
3830.48818,0.36538
3828.55943,0.36594
3826.63069,0.36694
3824.70194,0.36760
3822.77320,0.36787
3820.84445,0.36761
3818.91571,0.36685
3816.98696,0.36608
3815.05822,0.36542
3813.12947,0.36516
3811.20073,0.36532
3809.27198,0.36564
3807.34324,0.36596
3805.41449,0.36608
3803.48575,0.36609
3801.55700,0.36598
3799.62826,0.36550
3797.69951,0.36488
3795.77076,0.36422
3793.84202,0.36360
3791.91327,0.36336
3789.98453,0.36349
3788.05578,0.36357
3786.12704,0.36331
3784.19829,0.36274
3782.26955,0.36233
3780.34080,0.36239
3778.41206,0.36221
3776.48331,0.36124
3774.55457,0.36040
3772.62582,0.36027
3770.69708,0.36020
3768.76833,0.35971
3766.83959,0.35913
3764.91084,0.35843
3762.98209,0.35771
3761.05335,0.35729
3759.12460,0.35675
3757.19586,0.35582
3755.26711,0.35495
3753.33837,0.35444
3751.40962,0.35398
3749.48088,0.35304
3747.55213,0.35200
3745.62339,0.35084
3743.69464,0.34911
3741.76590,0.34773
3739.83715,0.34701
3737.90841,0.34635
3735.97966,0.34531
3734.05091,0.34373
3732.12217,0.34163
3730.19342,0.33950
3728.26468,0.33763
3726.33593,0.33586
3724.40719,0.33408
3722.47844,0.33216
3720.54970,0.32987
3718.62095,0.32731
3716.69221,0.32492
3714.76346,0.32295
3712.83472,0.32095
3710.90597,0.31817
3708.97723,0.31481
3707.04848,0.31152
3705.11974,0.30850
3703.19099,0.30549
3701.26224,0.30181
3699.33350,0.29746
3697.40475,0.29309
3695.47601,0.28912
3693.54726,0.28555
3691.61852,0.28177
3689.68977,0.27664
3687.76103,0.27002
3685.83228,0.26373
3683.90354,0.25826
3681.97479,0.25264
3680.04605,0.24687
3678.11730,0.24133
3676.18856,0.23477
3674.25981,0.22703
3672.33107,0.22022
3670.40232,0.21322
3668.47357,0.20542
3666.54483,0.19864
3664.61608,0.19270
3662.68734,0.18676
3660.75859,0.18089
3658.82985,0.17520
3656.90110,0.16932
3654.97236,0.16386
3653.04361,0.15976
3651.11487,0.15579
3649.18612,0.15055
3647.25738,0.14498
3645.32863,0.14034
3643.39989,0.13645
3641.47114,0.13283
3639.54239,0.12934
3637.61365,0.12606
3635.68490,0.12308
3633.75616,0.12040
3631.82741,0.11792
3629.89867,0.11485
3627.96992,0.11077
3626.04118,0.10728
3624.11243,0.10502
3622.18369,0.10340
3620.25494,0.10170
3618.32620,0.09944
3616.39745,0.09709
3614.46871,0.09509
3612.53996,0.09340
3610.61122,0.09172
3608.68247,0.08954
3606.75372,0.08700
3604.82498,0.08488
3602.89623,0.08339
3600.96749,0.08212
3599.03874,0.08081
3597.11000,0.07935
3595.18125,0.07771
3593.25251,0.07621
3591.32376,0.07505
3589.39502,0.07381
3587.46627,0.07224
3585.53753,0.07079
3583.60878,0.06964
3581.68004,0.06846
3579.75129,0.06708
3577.82254,0.06572
3575.89380,0.06469
3573.96505,0.06407
3572.03631,0.06364
3570.10756,0.06298
3568.17882,0.06205
3566.25007,0.06113
3564.32133,0.06025
3562.39258,0.05943
3560.46384,0.05865
3558.53509,0.05774
3556.60635,0.05683
3554.67760,0.05629
3552.74886,0.05596
3550.82011,0.05542
3548.89137,0.05464
3546.96262,0.05390
3545.03387,0.05335
3543.10513,0.05291
3541.17638,0.05262
3539.24764,0.05244
3537.31889,0.05207
3535.39015,0.05150
3533.46140,0.05105
3531.53266,0.05069
3529.60391,0.05009
3527.67517,0.04936
3525.74642,0.04890
3523.81768,0.04853
3521.88893,0.04802
3519.96019,0.04781
3518.03144,0.04805
3516.10270,0.04810
3514.17395,0.04758
3512.24520,0.04685
3510.31646,0.04635
3508.38771,0.04610
3506.45897,0.04583
3504.53022,0.04545
3502.60148,0.04526
3500.67273,0.04525
3498.74399,0.04507
3496.81524,0.04462
3494.88650,0.04415
3492.95775,0.04402
3491.02901,0.04410
3489.10026,0.04392
3487.17152,0.04331
3485.24277,0.04267
3483.31402,0.04234
3481.38528,0.04217
3479.45653,0.04192
3477.52779,0.04186
3475.59904,0.04225
3473.67030,0.04255
3471.74155,0.04248
3469.81281,0.04247
3467.88406,0.04244
3465.95532,0.04217
3464.02657,0.04187
3462.09783,0.04165
3460.16908,0.04136
3458.24034,0.04085
3456.31159,0.04031
3454.38285,0.04021
3452.45410,0.04049
3450.52535,0.04060
3448.59661,0.04062
3446.66786,0.04086
3444.73912,0.04111
3442.81037,0.04116
3440.88163,0.04108
3438.95288,0.04097
3437.02414,0.04077
3435.09539,0.04056
3433.16665,0.04053
3431.23790,0.04054
3429.30916,0.04028
3427.38041,0.03991
3425.45167,0.03982
3423.52292,0.04004
3421.59418,0.04045
3419.66543,0.04084
3417.73668,0.04088
3415.80794,0.04040
3413.87919,0.03988
3411.95045,0.03990
3410.02170,0.04009
3408.09296,0.04001
3406.16421,0.04001
3404.23547,0.04037
3402.30672,0.04075
3400.37798,0.04091
3398.44923,0.04101
3396.52049,0.04096
3394.59174,0.04067
3392.66300,0.04050
3390.73425,0.04055
3388.80550,0.04054
3386.87676,0.04042
3384.94801,0.04037
3383.01927,0.04040
3381.09052,0.04050
3379.16178,0.04059
3377.23303,0.04052
3375.30429,0.04047
3373.37554,0.04057
3371.44680,0.04085
3369.51805,0.04134
3367.58931,0.04174
3365.66056,0.04179
3363.73182,0.04156
3361.80307,0.04137
3359.87433,0.04150
3357.94558,0.04180
3356.01683,0.04194
3354.08809,0.04180
3352.15934,0.04159
3350.23060,0.04162
3348.30185,0.04189
3346.37311,0.04210
3344.44436,0.04213
3342.51562,0.04225
3340.58687,0.04269
3338.65813,0.04310
3336.72938,0.04342
3334.80064,0.04406
3332.87189,0.04464
3330.94315,0.04448
3329.01440,0.04397
3327.08566,0.04379
3325.15691,0.04387
3323.22816,0.04416
3321.29942,0.04469
3319.37067,0.04512
3317.44193,0.04530
3315.51318,0.04529
3313.58444,0.04523
3311.65569,0.04529
3309.72695,0.04537
3307.79820,0.04526
3305.86946,0.04514
3303.94071,0.04533
3302.01197,0.04581
3300.08322,0.04635
3298.15448,0.04682
3296.22573,0.04710
3294.29698,0.04725
3292.36824,0.04740
3290.43949,0.04750
3288.51075,0.04760
3286.58200,0.04790
3284.65326,0.04818
3282.72451,0.04821
3280.79577,0.04825
3278.86702,0.04848
3276.93828,0.04882
3275.00953,0.04931
3273.08079,0.04977
3271.15204,0.04994
3269.22330,0.05005
3267.29455,0.05035
3265.36581,0.05071
3263.43706,0.05082
3261.50831,0.05078
3259.57957,0.05103
3257.65082,0.05164
3255.72208,0.05227
3253.79333,0.05271
3251.86459,0.05317
3249.93584,0.05362
3248.00710,0.05388
3246.07835,0.05406
3244.14961,0.05427
3242.22086,0.05453
3240.29212,0.05488
3238.36337,0.05538
3236.43463,0.05587
3234.50588,0.05624
3232.57713,0.05653
3230.64839,0.05674
3228.71964,0.05696
3226.79090,0.05742
3224.86215,0.05794
3222.93341,0.05820
3221.00466,0.05829
3219.07592,0.05843
3217.14717,0.05878
3215.21843,0.05930
3213.28968,0.05974
3211.36094,0.06012
3209.43219,0.06058
3207.50345,0.06106
3205.57470,0.06160
3203.64596,0.06232
3201.71721,0.06297
3199.78846,0.06336
3197.85972,0.06361
3195.93097,0.06388
3194.00223,0.06419
3192.07348,0.06453
3190.14474,0.06487
3188.21599,0.06512
3186.28725,0.06532
3184.35850,0.06578
3182.42976,0.06652
3180.50101,0.06715
3178.57227,0.06748
3176.64352,0.06787
3174.71478,0.06854
3172.78603,0.06920
3170.85729,0.06970
3168.92854,0.07020
3166.99979,0.07073
3165.07105,0.07104
3163.14230,0.07104
3161.21356,0.07128
3159.28481,0.07202
3157.35607,0.07284
3155.42732,0.07358
3153.49858,0.07432
3151.56983,0.07496
3149.64109,0.07556
3147.71234,0.07606
3145.78360,0.07630
3143.85485,0.07665
3141.92611,0.07744
3139.99736,0.07814
3138.06861,0.07835
3136.13987,0.07835
3134.21112,0.07854
3132.28238,0.07906
3130.35363,0.07988
3128.42489,0.08068
3126.49614,0.08114
3124.56740,0.08144
3122.63865,0.08186
3120.70991,0.08240
3118.78116,0.08304
3116.85242,0.08365
3114.92367,0.08407
3112.99493,0.08441
3111.06618,0.08481
3109.13744,0.08522
3107.20869,0.08572
3105.27994,0.08641
3103.35120,0.08719
3101.42245,0.08773
3099.49371,0.08799
3097.56496,0.08825
3095.63622,0.08861
3093.70747,0.08902
3091.77873,0.08950
3089.84998,0.09001
3087.92124,0.09040
3085.99249,0.09082
3084.06375,0.09135
3082.13500,0.09175
3080.20626,0.09212
3078.27751,0.09262
3076.34877,0.09303
3074.42002,0.09333
3072.49127,0.09373
3070.56253,0.09411
3068.63378,0.09428
3066.70504,0.09458
3064.77629,0.09532
3062.84755,0.09624
3060.91880,0.09703
3058.99006,0.09764
3057.06131,0.09801
3055.13257,0.09829
3053.20382,0.09871
3051.27508,0.09918
3049.34633,0.09949
3047.41759,0.09982
3045.48884,0.10041
3043.56009,0.10107
3041.63135,0.10138
3039.70260,0.10144
3037.77386,0.10173
3035.84511,0.10226
3033.91637,0.10286
3031.98762,0.10330
3030.05888,0.10342
3028.13013,0.10333
3026.20139,0.10323
3024.27264,0.10326
3022.34390,0.10326
3020.41515,0.10300
3018.48641,0.10254
3016.55766,0.10210
3014.62892,0.10183
3012.70017,0.10149
3010.77142,0.10085
3008.84268,0.10020
3006.91393,0.09976
3004.98519,0.09939
3003.05644,0.09893
3001.12770,0.09835
2999.19895,0.09778
2997.27021,0.09722
2995.34146,0.09660
2993.41272,0.09590
2991.48397,0.09507
2989.55523,0.09414
2987.62648,0.09315
2985.69774,0.09193
2983.76899,0.09041
2981.84025,0.08869
2979.91150,0.08692
2977.98275,0.08524
2976.05401,0.08349
2974.12526,0.08164
2972.19652,0.07995
2970.26777,0.07838
2968.33903,0.07694
2966.41028,0.07574
2964.48154,0.07477
2962.55279,0.07391
2960.62405,0.07300
2958.69530,0.07214
2956.76656,0.07152
2954.83781,0.07091
2952.90907,0.07014
2950.98032,0.06935
2949.05157,0.06857
2947.12283,0.06779
2945.19408,0.06706
2943.26534,0.06638
2941.33659,0.06570
2939.40785,0.06514
2937.47910,0.06494
2935.55036,0.06494
2933.62161,0.06473
2931.69287,0.06443
2929.76412,0.06448
2927.83538,0.06468
2925.90663,0.06464
2923.97789,0.06449
2922.04914,0.06456
2920.12040,0.06474
2918.19165,0.06481
2916.26290,0.06480
2914.33416,0.06465
2912.40541,0.06441
2910.47667,0.06443
2908.54792,0.06474
2906.61918,0.06503
2904.69043,0.06516
2902.76169,0.06529
2900.83294,0.06556
2898.90420,0.06580
2896.97545,0.06604
2895.04671,0.06653
2893.11796,0.06731
2891.18922,0.06807
2889.26047,0.06851
2887.33172,0.06860
2885.40298,0.06870
2883.47423,0.06904
2881.54549,0.06943
2879.61674,0.06977
2877.68800,0.07031
2875.75925,0.07097
2873.83051,0.07134
2871.90176,0.07152
2869.97302,0.07188
2868.04427,0.07261
2866.11553,0.07359
2864.18678,0.07446
2862.25804,0.07502
2860.32929,0.07549
2858.40055,0.07605
2856.47180,0.07666
2854.54305,0.07740
2852.61431,0.07831
2850.68556,0.07936
2848.75682,0.08077
2846.82807,0.08251
2844.89933,0.08413
2842.97058,0.08559
2841.04184,0.08716
2839.11309,0.08883
2837.18435,0.09057
2835.25560,0.09239
2833.32686,0.09424
2831.39811,0.09604
2829.46937,0.09785
2827.54062,0.09974
2825.61188,0.10158
2823.68313,0.10343
2821.75438,0.10535
2819.82564,0.10700
2817.89689,0.10832
2815.96815,0.10955
2814.03940,0.11076
2812.11066,0.11206
2810.18191,0.11339
2808.25317,0.11457
2806.32442,0.11560
2804.39568,0.11664
2802.46693,0.11761
2800.53819,0.11843
2798.60944,0.11924
2796.68070,0.12025
2794.75195,0.12136
2792.82320,0.12233
2790.89446,0.12309
2788.96571,0.12376
2787.03697,0.12444
2785.10822,0.12511
2783.17948,0.12570
2781.25073,0.12622
2779.32199,0.12666
2777.39324,0.12693
2775.46450,0.12709
2773.53575,0.12733
2771.60701,0.12766
2769.67826,0.12796
2767.74952,0.12827
2765.82077,0.12864
2763.89203,0.12890
2761.96328,0.12904
2760.03453,0.12926
2758.10579,0.12973
2756.17704,0.13028
2754.24830,0.13059
2752.31955,0.13079
2750.39081,0.13114
2748.46206,0.13148
2746.53332,0.13160
2744.60457,0.13148
2742.67583,0.13134
2740.74708,0.13145
2738.81834,0.13167
2736.88959,0.13187
2734.96085,0.13220
2733.03210,0.13264
2731.10336,0.13305
2729.17461,0.13348
2727.24586,0.13390
2725.31712,0.13417
2723.38837,0.13441
2721.45963,0.13477
2719.53088,0.13524
2717.60214,0.13574
2715.67339,0.13632
2713.74465,0.13705
2711.81590,0.13785
2709.88716,0.13862
2707.95841,0.13934
2706.02967,0.14012
2704.10092,0.14103
2702.17218,0.14192
2700.24343,0.14262
2698.31468,0.14318
2696.38594,0.14359
2694.45719,0.14388
2692.52845,0.14439
2690.59970,0.14522
2688.67096,0.14594
2686.74221,0.14636
2684.81347,0.14685
2682.88472,0.14744
2680.95598,0.14789
2679.02723,0.14846
2677.09849,0.14931
2675.16974,0.15006
2673.24100,0.15049
2671.31225,0.15083
2669.38351,0.15115
2667.45476,0.15146
2665.52601,0.15189
2663.59727,0.15239
2661.66852,0.15288
2659.73978,0.15337
2657.81103,0.15377
2655.88229,0.15411
2653.95354,0.15446
2652.02480,0.15485
2650.09605,0.15535
2648.16731,0.15587
2646.23856,0.15632
2644.30982,0.15672
2642.38107,0.15698
2640.45233,0.15727
2638.52358,0.15782
2636.59484,0.15840
2634.66609,0.15880
2632.73734,0.15929
2630.80860,0.15992
2628.87985,0.16045
2626.95111,0.16090
2625.02236,0.16149
2623.09362,0.16222
2621.16487,0.16298
2619.23613,0.16357
2617.30738,0.16388
2615.37864,0.16402
2613.44989,0.16428
2611.52115,0.16486
2609.59240,0.16558
2607.66366,0.16620
2605.73491,0.16673
2603.80616,0.16714
2601.87742,0.16738
2599.94867,0.16757
2598.01993,0.16785
2596.09118,0.16834
2594.16244,0.16907
2592.23369,0.16976
2590.30495,0.17011
2588.37620,0.17025
2586.44746,0.17057
2584.51871,0.17115
2582.58997,0.17171
2580.66122,0.17205
2578.73248,0.17236
2576.80373,0.17285
2574.87499,0.17332
2572.94624,0.17359
2571.01749,0.17378
2569.08875,0.17395
2567.16000,0.17402
2565.23126,0.17402
2563.30251,0.17415
2561.37377,0.17453
2559.44502,0.17487
2557.51628,0.17499
2555.58753,0.17499
2553.65879,0.17499
2551.73004,0.17513
2549.80130,0.17542
2547.87255,0.17572
2545.94381,0.17592
2544.01506,0.17599
2542.08631,0.17598
2540.15757,0.17615
2538.22882,0.17664
2536.30008,0.17725
2534.37133,0.17781
2532.44259,0.17832
2530.51384,0.17881
2528.58510,0.17928
2526.65635,0.17968
2524.72761,0.18006
2522.79886,0.18055
2520.87012,0.18120
2518.94137,0.18181
2517.01263,0.18229
2515.08388,0.18270
2513.15514,0.18307
2511.22639,0.18347
2509.29764,0.18399
2507.36890,0.18469
2505.44015,0.18547
2503.51141,0.18640
2501.58266,0.18757
2499.65392,0.18871
2497.72517,0.18958
2495.79643,0.19025
2493.86768,0.19083
2491.93894,0.19153
2490.01019,0.19243
2488.08145,0.19338
2486.15270,0.19424
2484.22396,0.19498
2482.29521,0.19565
2480.36647,0.19642
2478.43772,0.19723
2476.50897,0.19792
2474.58023,0.19853
2472.65148,0.19917
2470.72274,0.19994
2468.79399,0.20084
2466.86525,0.20166
2464.93650,0.20223
2463.00776,0.20265
2461.07901,0.20314
2459.15027,0.20377
2457.22152,0.20440
2455.29278,0.20499
2453.36403,0.20566
2451.43529,0.20654
2449.50654,0.20752
2447.57779,0.20834
2445.64905,0.20901
2443.72030,0.20975
2441.79156,0.21063
2439.86281,0.21154
2437.93407,0.21245
2436.00532,0.21335
2434.07658,0.21412
2432.14783,0.21479
2430.21909,0.21561
2428.29034,0.21659
2426.36160,0.21749
2424.43285,0.21825
2422.50411,0.21903
2420.57536,0.21999
2418.64662,0.22107
2416.71787,0.22208
2414.78912,0.22304
2412.86038,0.22400
2410.93163,0.22479
2409.00289,0.22542
2407.07414,0.22609
2405.14540,0.22689
2403.21665,0.22782
2401.28791,0.22871
2399.35916,0.22945
2397.43042,0.23020
2395.50167,0.23103
2393.57293,0.23185
2391.64418,0.23261
2389.71544,0.23341
2387.78669,0.23429
2385.85795,0.23518
2383.92920,0.23596
2382.00045,0.23671
2380.07171,0.23747
2378.14296,0.23825
2376.21422,0.23915
2374.28547,0.24011
2372.35673,0.24087
2370.42798,0.24143
2368.49924,0.24211
2366.57049,0.24299
2364.64175,0.24370
2362.71300,0.24416
2360.78426,0.24483
2358.85551,0.24557
2356.92677,0.24606
2354.99802,0.24643
2353.06927,0.24663
2351.14053,0.24667
2349.21178,0.24694
2347.28304,0.24750
2345.35429,0.24816
2343.42555,0.24888
2341.49680,0.24954
2339.56806,0.24998
2337.63931,0.25028
2335.71057,0.25050
2333.78182,0.25063
2331.85308,0.25080
2329.92433,0.25106
2327.99559,0.25126
2326.06684,0.25145
2324.13810,0.25180
2322.20935,0.25223
2320.28060,0.25256
2318.35186,0.25260
2316.42311,0.25244
2314.49437,0.25235
2312.56562,0.25241
2310.63688,0.25253
2308.70813,0.25258
2306.77939,0.25252
2304.85064,0.25247
2302.92190,0.25253
2300.99315,0.25259
2299.06441,0.25244
2297.13566,0.25208
2295.20692,0.25173
2293.27817,0.25164
2291.34943,0.25177
2289.42068,0.25187
2287.49193,0.25186
2285.56319,0.25184
2283.63444,0.25191
2281.70570,0.25205
2279.77695,0.25206
2277.84821,0.25178
2275.91946,0.25151
2273.99072,0.25136
2272.06197,0.25114
2270.13323,0.25072
2268.20448,0.25016
2266.27574,0.24964
2264.34699,0.24915
2262.41825,0.24854
2260.48950,0.24787
2258.56075,0.24742
2256.63201,0.24722
2254.70326,0.24698
2252.77452,0.24654
2250.84577,0.24608
2248.91703,0.24576
2246.98828,0.24565
2245.05954,0.24569
2243.13079,0.24571
2241.20205,0.24567
2239.27330,0.24554
2237.34456,0.24517
2235.41581,0.24460
2233.48707,0.24417
2231.55832,0.24399
2229.62958,0.24389
2227.70083,0.24370
2225.77208,0.24343
2223.84334,0.24319
2221.91459,0.24313
2219.98585,0.24323
2218.05710,0.24337
2216.12836,0.24345
2214.19961,0.24348
2212.27087,0.24344
2210.34212,0.24317
2208.41338,0.24261
2206.48463,0.24203
2204.55589,0.24158
2202.62714,0.24125
2200.69840,0.24096
2198.76965,0.24049
2196.84090,0.23991
2194.91216,0.23933
2192.98341,0.23861
2191.05467,0.23782
2189.12592,0.23697
2187.19718,0.23594
2185.26843,0.23485
2183.33969,0.23391
2181.41094,0.23304
2179.48220,0.23208
2177.55345,0.23101
2175.62471,0.22992
2173.69596,0.22887
2171.76722,0.22785
2169.83847,0.22689
2167.90973,0.22607
2165.98098,0.22537
2164.05223,0.22474
2162.12349,0.22412
2160.19474,0.22348
2158.26600,0.22276
2156.33725,0.22206
2154.40851,0.22138
2152.47976,0.22079
2150.55102,0.22041
2148.62227,0.22010
2146.69353,0.21971
2144.76478,0.21927
2142.83604,0.21874
2140.90729,0.21829
2138.97855,0.21809
2137.04980,0.21794
2135.12106,0.21777
2133.19231,0.21771
2131.26356,0.21767
2129.33482,0.21764
2127.40607,0.21776
2125.47733,0.21799
2123.54858,0.21815
2121.61984,0.21836
2119.69109,0.21873
2117.76235,0.21909
2115.83360,0.21933
2113.90486,0.21964
2111.97611,0.22001
2110.04737,0.22030
2108.11862,0.22052
2106.18988,0.22072
2104.26113,0.22094
2102.33238,0.22117
2100.40364,0.22141
2098.47489,0.22162
2096.54615,0.22179
2094.61740,0.22191
2092.68866,0.22199
2090.75991,0.22211
2088.83117,0.22221
2086.90242,0.22227
2084.97368,0.22218
2083.04493,0.22184
2081.11619,0.22138
2079.18744,0.22091
2077.25870,0.22041
2075.32995,0.21997
2073.40121,0.21963
2071.47246,0.21929
2069.54371,0.21900
2067.61497,0.21873
2065.68622,0.21839
2063.75748,0.21809
2061.82873,0.21793
2059.89999,0.21783
2057.97124,0.21767
2056.04250,0.21753
2054.11375,0.21762
2052.18501,0.21792
2050.25626,0.21826
2048.32752,0.21862
2046.39877,0.21893
2044.47003,0.21925
2042.54128,0.21970
2040.61254,0.22024
2038.68379,0.22081
2036.75504,0.22142
2034.82630,0.22210
2032.89755,0.22289
2030.96881,0.22369
2029.04006,0.22451
2027.11132,0.22548
2025.18257,0.22646
2023.25383,0.22732
2021.32508,0.22816
2019.39634,0.22912
2017.46759,0.23011
2015.53885,0.23097
2013.61010,0.23176
2011.68136,0.23254
2009.75261,0.23320
2007.82386,0.23374
2005.89512,0.23429
2003.96637,0.23484
2002.03763,0.23538
2000.10888,0.23585
1998.18014,0.23624
1996.25139,0.23684
1994.32265,0.23765
1992.39390,0.23815
1990.46516,0.23831
1988.53641,0.23872
1986.60767,0.23941
1984.67892,0.24001
1982.75018,0.24035
1980.82143,0.24054
1978.89269,0.24073
1976.96394,0.24110
1975.03519,0.24168
1973.10645,0.24222
1971.17770,0.24257
1969.24896,0.24287
1967.32021,0.24326
1965.39147,0.24370
1963.46272,0.24421
1961.53398,0.24477
1959.60523,0.24534
1957.67649,0.24594
1955.74774,0.24660
1953.81900,0.24739
1951.89025,0.24821
1949.96151,0.24891
1948.03276,0.24953
1946.10402,0.25011
1944.17527,0.25069
1942.24652,0.25136
1940.31778,0.25208
1938.38903,0.25271
1936.46029,0.25315
1934.53154,0.25355
1932.60280,0.25401
1930.67405,0.25440
1928.74531,0.25458
1926.81656,0.25470
1924.88782,0.25495
1922.95907,0.25531
1921.03033,0.25571
1919.10158,0.25607
1917.17284,0.25628
1915.24409,0.25625
1913.31534,0.25615
1911.38660,0.25613
1909.45785,0.25614
1907.52911,0.25605
1905.60036,0.25578
1903.67162,0.25535
1901.74287,0.25493
1899.81413,0.25474
1897.88538,0.25473
1895.95664,0.25466
1894.02789,0.25447
1892.09915,0.25420
1890.17040,0.25390
1888.24166,0.25366
1886.31291,0.25351
1884.38417,0.25337
1882.45542,0.25320
1880.52667,0.25302
1878.59793,0.25281
1876.66918,0.25246
1874.74044,0.25196
1872.81169,0.25162
1870.88295,0.25168
1868.95420,0.25166
1867.02546,0.25117
1865.09671,0.25056
1863.16797,0.25012
1861.23922,0.24974
1859.31048,0.24920
1857.38173,0.24842
1855.45299,0.24760
1853.52424,0.24687
1851.59549,0.24607
1849.66675,0.24522
1847.73800,0.24452
1845.80926,0.24391
1843.88051,0.24300
1841.95177,0.24167
1840.02302,0.24019
1838.09428,0.23875
1836.16553,0.23748
1834.23679,0.23630
1832.30804,0.23504
1830.37930,0.23357
1828.45055,0.23171
1826.52181,0.22952
1824.59306,0.22707
1822.66432,0.22450
1820.73557,0.22184
1818.80682,0.21891
1816.87808,0.21575
1814.94933,0.21252
1813.02059,0.20916
1811.09184,0.20540
1809.16310,0.20132
1807.23435,0.19724
1805.30561,0.19328
1803.37686,0.18933
1801.44812,0.18518
1799.51937,0.18076
1797.59063,0.17632
1795.66188,0.17208
1793.73314,0.16776
1791.80439,0.16295
1789.87565,0.15810
1787.94690,0.15369
1786.01815,0.14930
1784.08941,0.14462
1782.16066,0.13992
1780.23192,0.13534
1778.30317,0.13094
1776.37443,0.12684
1774.44568,0.12273
1772.51694,0.11792
1770.58819,0.11270
1768.65945,0.10779
1766.73070,0.10294
1764.80196,0.09830
1762.87321,0.09371
1760.94447,0.08895
1759.01572,0.08463
1757.08697,0.08066
1755.15823,0.07713
1753.22948,0.07428
1751.30074,0.07167
1749.37199,0.06923
1747.44325,0.06725
1745.51450,0.06559
1743.58576,0.06430
1741.65701,0.06346
1739.72827,0.06282
1737.79952,0.06234
1735.87078,0.06216
1733.94203,0.06208
1732.01329,0.06190
1730.08454,0.06185
1728.15580,0.06201
1726.22705,0.06231
1724.29830,0.06286
1722.36956,0.06361
1720.44081,0.06447
1718.51207,0.06553
1716.58332,0.06655
1714.65458,0.06723
1712.72583,0.06784
1710.79709,0.06865
1708.86834,0.06961
1706.93960,0.07046
1705.01085,0.07115
1703.08211,0.07179
1701.15336,0.07238
1699.22462,0.07267
1697.29587,0.07255
1695.36713,0.07191
1693.43838,0.07101
1691.50963,0.07031
1689.58089,0.06969
1687.65214,0.06924
1685.72340,0.06895
1683.79465,0.06816
1681.86591,0.06684
1679.93716,0.06572
1678.00842,0.06510
1676.07967,0.06471
1674.15093,0.06406
1672.22218,0.06347
1670.29344,0.06322
1668.36469,0.06277
1666.43595,0.06213
1664.50720,0.06172
1662.57845,0.06154
1660.64971,0.06155
1658.72096,0.06170
1656.79222,0.06206
1654.86347,0.06265
1652.93473,0.06272
1651.00598,0.06208
1649.07724,0.06178
1647.14849,0.06187
1645.21975,0.06209
1643.29100,0.06227
1641.36226,0.06233
1639.43351,0.06235
1637.50477,0.06241
1635.57602,0.06254
1633.64728,0.06237
1631.71853,0.06202
1629.78978,0.06194
1627.86104,0.06216
1625.93229,0.06230
1624.00355,0.06207
1622.07480,0.06165
1620.14606,0.06151
1618.21731,0.06154
1616.28857,0.06114
1614.35982,0.06042
1612.43108,0.05991
1610.50233,0.05951
1608.57359,0.05908
1606.64484,0.05871
1604.71610,0.05847
1602.78735,0.05834
1600.85861,0.05819
1598.92986,0.05823
1597.00111,0.05868
1595.07237,0.05940
1593.14362,0.06005
1591.21488,0.06061
1589.28613,0.06138
1587.35739,0.06248
1585.42864,0.06385
1583.49990,0.06562
1581.57115,0.06784
1579.64241,0.07011
1577.71366,0.07241
1575.78492,0.07504
1573.85617,0.07766
1571.92743,0.08019
1569.99868,0.08287
1568.06993,0.08519
1566.14119,0.08686
1564.21244,0.08820
1562.28370,0.08950
1560.35495,0.09098
1558.42621,0.09203
1556.49746,0.09199
1554.56872,0.09193
1552.63997,0.09210
1550.71123,0.09214
1548.78248,0.09181
1546.85374,0.09139
1544.92499,0.09129
1542.99625,0.09122
1541.06750,0.09030
1539.13876,0.08816
1537.21001,0.08621
1535.28126,0.08462
1533.35252,0.08224
1531.42377,0.07910
1529.49503,0.07599
1527.56628,0.07254
1525.63754,0.06859
1523.70879,0.06466
1521.78005,0.06055
1519.85130,0.05658
1517.92256,0.05369
1515.99381,0.05168
1514.06507,0.05048
1512.13632,0.05008
1510.20758,0.05033
1508.27883,0.05138
1506.35008,0.05307
1504.42134,0.05451
1502.49259,0.05599
1500.56385,0.05789
1498.63510,0.05982
1496.70636,0.06141
1494.77761,0.06279
1492.84887,0.06410
1490.92012,0.06514
1488.99138,0.06540
1487.06263,0.06487
1485.13389,0.06401
1483.20514,0.06297
1481.27640,0.06175
1479.34765,0.06043
1477.41891,0.05890
1475.49016,0.05705
1473.56141,0.05480
1471.63267,0.05235
1469.70392,0.05052
1467.77518,0.04941
1465.84643,0.04869
1463.91769,0.04827
1461.98894,0.04814
1460.06020,0.04826
1458.13145,0.04853
1456.20271,0.04865
1454.27396,0.04859
1452.34522,0.04859
1450.41647,0.04862
1448.48773,0.04873
1446.55898,0.04895
1444.63024,0.04917
1442.70149,0.04924
1440.77274,0.04910
1438.84400,0.04869
1436.91525,0.04791
1434.98651,0.04703
1433.05776,0.04648
1431.12902,0.04613
1429.20027,0.04578
1427.27153,0.04568
1425.34278,0.04609
1423.41404,0.04671
1421.48529,0.04728
1419.55655,0.04790
1417.62780,0.04860
1415.69906,0.04928
1413.77031,0.04994
1411.84156,0.05050
1409.91282,0.05088
1407.98407,0.05114
1406.05533,0.05132
1404.12658,0.05143
1402.19784,0.05148
1400.26909,0.05151
1398.34035,0.05146
1396.41160,0.05120
1394.48286,0.05069
1392.55411,0.05016
1390.62537,0.04985
1388.69662,0.04945
1386.76788,0.04859
1384.83913,0.04764
1382.91039,0.04691
1380.98164,0.04625
1379.05289,0.04572
1377.12415,0.04543
1375.19540,0.04532
1373.26666,0.04544
1371.33791,0.04569
1369.40917,0.04599
1367.48042,0.04645
1365.55168,0.04697
1363.62293,0.04732
1361.69419,0.04750
1359.76544,0.04771
1357.83670,0.04798
1355.90795,0.04823
1353.97921,0.04839
1352.05046,0.04844
1350.12172,0.04855
1348.19297,0.04868
1346.26422,0.04855
1344.33548,0.04809
1342.40673,0.04757
1340.47799,0.04727
1338.54924,0.04705
1336.62050,0.04688
1334.69175,0.04690
1332.76301,0.04696
1330.83426,0.04692
1328.90552,0.04681
1326.97677,0.04662
1325.04803,0.04632
1323.11928,0.04596
1321.19054,0.04566
1319.26179,0.04555
1317.33304,0.04566
1315.40430,0.04590
1313.47555,0.04614
1311.54681,0.04642
1309.61806,0.04675
1307.68932,0.04697
1305.76057,0.04700
1303.83183,0.04699
1301.90308,0.04706
1299.97434,0.04703
1298.04559,0.04667
1296.11685,0.04612
1294.18810,0.04561
1292.25936,0.04515
1290.33061,0.04456
1288.40187,0.04382
1286.47312,0.04317
1284.54437,0.04273
1282.61563,0.04249
1280.68688,0.04240
1278.75814,0.04239
1276.82939,0.04240
1274.90065,0.04237
1272.97190,0.04224
1271.04316,0.04223
1269.11441,0.04249
1267.18567,0.04290
1265.25692,0.04332
1263.32818,0.04368
1261.39943,0.04393
1259.47069,0.04414
1257.54194,0.04442
1255.61320,0.04472
1253.68445,0.04502
1251.75570,0.04534
1249.82696,0.04554
1247.89821,0.04561
1245.96947,0.04564
1244.04072,0.04561
1242.11198,0.04548
1240.18323,0.04535
1238.25449,0.04527
1236.32574,0.04525
1234.39700,0.04528
1232.46825,0.04535
1230.53951,0.04544
1228.61076,0.04562
1226.68202,0.04588
1224.75327,0.04611
1222.82452,0.04623
1220.89578,0.04628
1218.96703,0.04639
1217.03829,0.04665
1215.10954,0.04689
1213.18080,0.04686
1211.25205,0.04661
1209.32331,0.04638
1207.39456,0.04627
1205.46582,0.04633
1203.53707,0.04650
1201.60833,0.04661
1199.67958,0.04663
1197.75084,0.04669
1195.82209,0.04676
1193.89335,0.04674
1191.96460,0.04658
1190.03585,0.04620
1188.10711,0.04556
1186.17836,0.04462
1184.24962,0.04345
1182.32087,0.04235
1180.39213,0.04150
1178.46338,0.04061
1176.53464,0.03947
1174.60589,0.03848
1172.67715,0.03795
1170.74840,0.03777
1168.81966,0.03779
1166.89091,0.03805
1164.96217,0.03868
1163.03342,0.03958
1161.10467,0.04026
1159.17593,0.04068
1157.24718,0.04106
1155.31844,0.04124
1153.38969,0.04116
1151.46095,0.04086
1149.53220,0.04043
1147.60346,0.04003
1145.67471,0.03968
1143.74597,0.03930
1141.81722,0.03888
1139.88848,0.03849
1137.95973,0.03817
1136.03099,0.03780
1134.10224,0.03730
1132.17350,0.03676
1130.24475,0.03651
1128.31600,0.03665
1126.38726,0.03673
1124.45851,0.03644
1122.52977,0.03611
1120.60102,0.03615
1118.67228,0.03644
1116.74353,0.03671
1114.81479,0.03726
1112.88604,0.03826
1110.95730,0.03922
1109.02855,0.03955
1107.09981,0.03939
1105.17106,0.03926
1103.24232,0.03949
1101.31357,0.03993
1099.38483,0.04007
1097.45608,0.03974
1095.52733,0.03922
1093.59859,0.03892
1091.66984,0.03911
1089.74110,0.03948
1087.81235,0.03957
1085.88361,0.03953
1083.95486,0.03962
1082.02612,0.03979
1080.09737,0.04014
1078.16863,0.04091
1076.23988,0.04183
1074.31114,0.04266
1072.38239,0.04363
1070.45365,0.04493
1068.52490,0.04642
1066.59615,0.04804
1064.66741,0.04971
1062.73866,0.05144
1060.80992,0.05322
1058.88117,0.05463
1056.95243,0.05540
1055.02368,0.05577
1053.09494,0.05597
1051.16619,0.05597
1049.23745,0.05569
1047.30870,0.05524
1045.37996,0.05486
1043.45121,0.05469
1041.52247,0.05476
1039.59372,0.05541
1037.66498,0.05686
1035.73623,0.05837
1033.80748,0.05935
1031.87874,0.06020
1029.94999,0.06126
1028.02125,0.06219
1026.09250,0.06290
1024.16376,0.06362
1022.23501,0.06422
1020.30627,0.06452
1018.37752,0.06473
1016.44878,0.06521
1014.52003,0.06605
1012.59129,0.06678
1010.66254,0.06715
1008.73380,0.06733
1006.80505,0.06739
1004.87631,0.06739
1002.94756,0.06764
1001.01881,0.06837
999.09007,0.06925
997.16132,0.06990
995.23258,0.07039
993.30383,0.07101
991.37509,0.07207
989.44634,0.07336
987.51760,0.07459
985.58885,0.07606
983.66011,0.07795
981.73136,0.07984
979.80262,0.08150
977.87387,0.08300
975.94513,0.08418
974.01638,0.08486
972.08763,0.08518
970.15889,0.08552
968.23014,0.08633
966.30140,0.08758
964.37265,0.08887
962.44391,0.09027
960.51516,0.09167
958.58642,0.09268
956.65767,0.09346
954.72893,0.09443
952.80018,0.09560
950.87144,0.09664
948.94269,0.09724
947.01395,0.09773
945.08520,0.09851
943.15646,0.09932
941.22771,0.09986
939.29896,0.10032
937.37022,0.10094
935.44147,0.10164
933.51273,0.10216
931.58398,0.10247
929.65524,0.10266
927.72649,0.10284
925.79775,0.10299
923.86900,0.10281
921.94026,0.10242
920.01151,0.10206
918.08277,0.10146
916.15402,0.10052
914.22528,0.09937
912.29653,0.09799
910.36779,0.09637
908.43904,0.09458
906.51029,0.09258
904.58155,0.09059
902.65280,0.08892
900.72406,0.08758
898.79531,0.08688
896.86657,0.08721
894.93782,0.08812
893.00908,0.08911
891.08033,0.09011
889.15159,0.09099
887.22284,0.09164
885.29410,0.09194
883.36535,0.09203
881.43661,0.09233
879.50786,0.09279
877.57911,0.09296
875.65037,0.09289
873.72162,0.09292
871.79288,0.09311
869.86413,0.09329
867.93539,0.09345
866.00664,0.09380
864.07790,0.09445
862.14915,0.09525
860.22041,0.09595
858.29166,0.09644
856.36292,0.09692
854.43417,0.09763
852.50543,0.09844
850.57668,0.09898
848.64794,0.09902
846.71919,0.09883
844.79044,0.09890
842.86170,0.09939
840.93295,0.09972
839.00421,0.09936
837.07546,0.09851
835.14672,0.09749
833.21797,0.09625
831.28923,0.09480
829.36048,0.09341
827.43174,0.09214
825.50299,0.09056
823.57425,0.08859
821.64550,0.08680
819.71676,0.08549
817.78801,0.08457
815.85926,0.08417
813.93052,0.08417
812.00177,0.08394
810.07303,0.08352
808.14428,0.08333
806.21554,0.08326
804.28679,0.08340
802.35805,0.08383
800.42930,0.08415
798.50056,0.08440
796.57181,0.08459
794.64307,0.08442
792.71432,0.08412
790.78558,0.08402
788.85683,0.08387
786.92809,0.08334
784.99934,0.08243
783.07059,0.08154
781.14185,0.08078
779.21310,0.08008
777.28436,0.07942
775.35561,0.07880
773.42687,0.07839
771.49812,0.07836
769.56938,0.07861
767.64063,0.07879
765.71189,0.07843
763.78314,0.07779
761.85440,0.07746
759.92565,0.07713
757.99691,0.07642
756.06816,0.07585
754.13942,0.07560
752.21067,0.07506
750.28192,0.07425
748.35318,0.07359
746.42443,0.07285
744.49569,0.07214
742.56694,0.07186
740.63820,0.07168
738.70945,0.07120
736.78071,0.07043
734.85196,0.06961
732.92322,0.06899
730.99447,0.06844
729.06573,0.06783
727.13698,0.06742
725.20824,0.06712
723.27949,0.06675
721.35074,0.06653
719.42200,0.06637
717.49325,0.06584
715.56451,0.06510
713.63576,0.06467
711.70702,0.06446
709.77827,0.06413
707.84953,0.06376
705.92078,0.06352
703.99204,0.06332
702.06329,0.06320
700.13455,0.06328
698.20580,0.06334
696.27706,0.06313
694.34831,0.06278
692.41957,0.06235
690.49082,0.06177
688.56207,0.06114
686.63333,0.06069
684.70458,0.06065
682.77584,0.06046
680.84709,0.05936
678.91835,0.05800
676.98960,0.05741
675.06086,0.05757
673.13211,0.05785
671.20337,0.05804
669.27462,0.05840
667.34588,0.05854
665.41713,0.05788
663.48839,0.05744
661.55964,0.05792
659.63090,0.05847
657.70215,0.05852
655.77340,0.05848
653.84466,0.05849
651.91591,0.05833
649.98717,0.05789
648.05842,0.05728
646.12968,0.05693
644.20093,0.05683
642.27219,0.05649
640.34344,0.05588
638.41470,0.05535
636.48595,0.05489
634.55721,0.05405
632.62846,0.05337
630.69972,0.05430
628.77097,0.05587
626.84222,0.05579
624.91348,0.05478
622.98473,0.05467
621.05599,0.05529
619.12724,0.05557
617.19850,0.05513
615.26975,0.05447
613.34101,0.05432
611.41226,0.05532
609.48352,0.05724
607.55477,0.05906
605.62603,0.06005
603.69728,0.05956
601.76854,0.05807
599.83979,0.05698
