7497.03301,0.76548
7495.10426,0.76566
7493.17552,0.76772
7491.24677,0.76770
7489.31803,0.76217
7487.38928,0.75653
7485.46054,0.75595
7483.53179,0.75771
7481.60305,0.75797
7479.67430,0.75594
7477.74556,0.75418
7475.81681,0.75585
7473.88807,0.76093
7471.95932,0.76618
7470.03057,0.76986
7468.10183,0.77117
7466.17308,0.76915
7464.24434,0.76759
7462.31559,0.76720
7460.38685,0.76495
7458.45810,0.76326
7456.52936,0.76195
7454.60061,0.75747
7452.67187,0.75264
7450.74312,0.75277
7448.81438,0.75755
7446.88563,0.76137
7444.95689,0.75907
7443.02814,0.75032
7441.09940,0.74124
7439.17065,0.73844
7437.24190,0.74181
7435.31316,0.74657
7433.38441,0.74743
7431.45567,0.74371
7429.52692,0.74105
7427.59818,0.74256
7425.66943,0.74469
7423.74069,0.74416
7421.81194,0.74366
7419.88320,0.74603
7417.95445,0.74857
7416.02571,0.74879
7414.09696,0.74532
7412.16822,0.73834
7410.23947,0.73425
7408.31073,0.73667
7406.38198,0.74052
7404.45323,0.74164
7402.52449,0.74184
7400.59574,0.74204
7398.66700,0.73924
7396.73825,0.73388
7394.80951,0.72980
7392.88076,0.72910
7390.95202,0.73240
7389.02327,0.73688
7387.09453,0.73765
7385.16578,0.73600
7383.23704,0.73779
7381.30829,0.74209
7379.37955,0.74317
7377.45080,0.74145
7375.52205,0.74042
7373.59331,0.74074
7371.66456,0.74020
7369.73582,0.73615
7367.80707,0.73070
7365.87833,0.72677
7363.94958,0.72416
7362.02084,0.72520
7360.09209,0.73026
7358.16335,0.73378
7356.23460,0.73457
7354.30586,0.73631
7352.37711,0.73863
7350.44837,0.73829
7348.51962,0.73348
7346.59088,0.72681
7344.66213,0.72579
7342.73338,0.73110
7340.80464,0.73401
7338.87589,0.73203
7336.94715,0.72844
7335.01840,0.72408
7333.08966,0.72138
7331.16091,0.72110
7329.23217,0.72129
7327.30342,0.72301
7325.37468,0.72571
7323.44593,0.72695
7321.51719,0.72726
7319.58844,0.72706
7317.65970,0.72578
7315.73095,0.72405
7313.80221,0.72318
7311.87346,0.72432
7309.94471,0.72732
7308.01597,0.72863
7306.08722,0.72583
7304.15848,0.72316
7302.22973,0.72322
7300.30099,0.72367
7298.37224,0.72626
7296.44350,0.73120
7294.51475,0.73158
7292.58601,0.72562
7290.65726,0.71828
7288.72852,0.71378
7286.79977,0.71521
7284.87103,0.72006
7282.94228,0.72211
7281.01353,0.72200
7279.08479,0.72326
7277.15604,0.72465
7275.22730,0.72714
7273.29855,0.73090
7271.36981,0.72879
7269.44106,0.72134
7267.51232,0.71770
7265.58357,0.71927
7263.65483,0.72197
7261.72608,0.72332
7259.79734,0.72267
7257.86859,0.72124
7255.93985,0.71998
7254.01110,0.72042
7252.08236,0.72254
7250.15361,0.72177
7248.22486,0.71810
7246.29612,0.71766
7244.36737,0.72151
7242.43863,0.72375
7240.50988,0.72150
7238.58114,0.71976
7236.65239,0.72139
7234.72365,0.72264
7232.79490,0.72037
7230.86616,0.71604
7228.93741,0.71432
7227.00867,0.71737
7225.07992,0.72103
7223.15118,0.72049
7221.22243,0.71770
7219.29369,0.71736
7217.36494,0.71863
7215.43619,0.71959
7213.50745,0.72018
7211.57870,0.71859
7209.64996,0.71696
7207.72121,0.71848
7205.79247,0.71895
7203.86372,0.71548
7201.93498,0.71258
7200.00623,0.71318
7198.07749,0.71572
7196.14874,0.71744
7194.22000,0.71671
7192.29125,0.71601
7190.36251,0.71786
7188.43376,0.71903
7186.50501,0.71495
7184.57627,0.70805
7182.64752,0.70518
7180.71878,0.70765
7178.79003,0.71103
7176.86129,0.71157
7174.93254,0.71016
7173.00380,0.71060
7171.07505,0.71144
7169.14631,0.70833
7167.21756,0.70258
7165.28882,0.69937
7163.36007,0.70105
7161.43133,0.70562
7159.50258,0.70964
7157.57384,0.71041
7155.64509,0.70816
7153.71634,0.70557
7151.78760,0.70427
7149.85885,0.70318
7147.93011,0.70156
7146.00136,0.70184
7144.07262,0.70312
7142.14387,0.70224
7140.21513,0.70114
7138.28638,0.69978
7136.35764,0.69609
7134.42889,0.69284
7132.50015,0.69130
7130.57140,0.68975
7128.64266,0.68757
7126.71391,0.68456
7124.78516,0.68295
7122.85642,0.68536
7120.92767,0.68788
7118.99893,0.68658
7117.07018,0.68313
7115.14144,0.67934
7113.21269,0.67752
7111.28395,0.67886
7109.35520,0.68065
7107.42646,0.68076
7105.49771,0.68033
7103.56897,0.68177
7101.64022,0.68224
7099.71148,0.67716
7097.78273,0.67009
7095.85399,0.66620
7093.92524,0.66576
7091.99649,0.66811
7090.06775,0.67142
7088.13900,0.67086
7086.21026,0.66424
7084.28151,0.65719
7082.35277,0.65533
7080.42402,0.65699
7078.49528,0.65776
7076.56653,0.65487
7074.63779,0.65018
7072.70904,0.64774
7070.78030,0.64643
7068.85155,0.64465
7066.92281,0.64360
7064.99406,0.64142
7063.06532,0.63864
7061.13657,0.63976
7059.20782,0.64206
7057.27908,0.63910
7055.35033,0.63343
7053.42159,0.63122
7051.49284,0.63149
7049.56410,0.63008
7047.63535,0.62684
7045.70661,0.62385
7043.77786,0.62197
7041.84912,0.62145
7039.92037,0.62111
7037.99163,0.61947
7036.06288,0.61886
7034.13414,0.62105
7032.20539,0.62165
7030.27664,0.61723
7028.34790,0.61261
7026.41915,0.61215
7024.49041,0.61357
7022.56166,0.61535
7020.63292,0.61694
7018.70417,0.61498
7016.77543,0.60935
7014.84668,0.60492
7012.91794,0.60379
7010.98919,0.60368
7009.06045,0.60447
7007.13170,0.60612
7005.20296,0.60507
7003.27421,0.60107
7001.34547,0.59768
6999.41672,0.59636
6997.48797,0.59579
6995.55923,0.59386
6993.63048,0.59224
6991.70174,0.59300
6989.77299,0.59261
6987.84425,0.59118
6985.91550,0.59307
6983.98676,0.59616
6982.05801,0.59743
6980.12927,0.59759
6978.20052,0.59587
6976.27178,0.59241
6974.34303,0.58986
6972.41429,0.58856
6970.48554,0.58762
6968.55680,0.58735
6966.62805,0.58728
6964.69930,0.58665
6962.77056,0.58616
6960.84181,0.58617
6958.91307,0.58660
6956.98432,0.58744
6955.05558,0.58756
6953.12683,0.58653
6951.19809,0.58540
6949.26934,0.58315
6947.34060,0.58038
6945.41185,0.58141
6943.48311,0.58435
6941.55436,0.58298
6939.62562,0.57873
6937.69687,0.57703
6935.76812,0.57866
6933.83938,0.58180
6931.91063,0.58544
6929.98189,0.58739
6928.05314,0.58555
6926.12440,0.58279
6924.19565,0.58285
6922.26691,0.58372
6920.33816,0.58218
6918.40942,0.57905
6916.48067,0.57660
6914.55193,0.57690
6912.62318,0.58003
6910.69444,0.58170
6908.76569,0.58103
6906.83695,0.58236
6904.90820,0.58378
6902.97945,0.58161
6901.05071,0.57881
6899.12196,0.57777
6897.19322,0.57912
6895.26447,0.58178
6893.33573,0.58071
6891.40698,0.57662
6889.47824,0.57429
6887.54949,0.57251
6885.62075,0.57171
6883.69200,0.57473
6881.76326,0.57869
6879.83451,0.58052
6877.90577,0.58149
6875.97702,0.58323
6874.04828,0.58425
6872.11953,0.58256
6870.19078,0.58003
6868.26204,0.57910
6866.33329,0.58008
6864.40455,0.58270
6862.47580,0.58508
6860.54706,0.58376
6858.61831,0.57920
6856.68957,0.57623
6854.76082,0.57635
6852.83208,0.57672
6850.90333,0.57624
6848.97459,0.57698
6847.04584,0.58000
6845.11710,0.58283
6843.18835,0.58358
6841.25960,0.58256
6839.33086,0.57955
6837.40211,0.57598
6835.47337,0.57592
6833.54462,0.57923
6831.61588,0.58116
6829.68713,0.57991
6827.75839,0.57699
6825.82964,0.57416
6823.90090,0.57277
6821.97215,0.57356
6820.04341,0.57574
6818.11466,0.57650
6816.18592,0.57630
6814.25717,0.57905
6812.32843,0.58286
6810.39968,0.58261
6808.47093,0.57947
6806.54219,0.57730
6804.61344,0.57743
6802.68470,0.57876
6800.75595,0.57860
6798.82721,0.57727
6796.89846,0.57813
6794.96972,0.58121
6793.04097,0.58349
6791.11223,0.58356
6789.18348,0.58264
6787.25474,0.58239
6785.32599,0.58267
6783.39725,0.58167
6781.46850,0.57943
6779.53975,0.57847
6777.61101,0.57944
6775.68226,0.57967
6773.75352,0.57766
6771.82477,0.57489
6769.89603,0.57266
6767.96728,0.57267
6766.03854,0.57592
6764.10979,0.57952
6762.18105,0.58101
6760.25230,0.58121
6758.32356,0.58158
6756.39481,0.58190
6754.46607,0.58045
6752.53732,0.57753
6750.60858,0.57629
6748.67983,0.57812
6746.75108,0.58043
6744.82234,0.58133
6742.89359,0.58229
6740.96485,0.58411
6739.03610,0.58504
6737.10736,0.58408
6735.17861,0.58278
6733.24987,0.58186
6731.32112,0.58061
6729.39238,0.57968
6727.46363,0.58042
6725.53489,0.58194
6723.60614,0.58253
6721.67740,0.58302
6719.74865,0.58391
6717.81991,0.58415
6715.89116,0.58510
6713.96241,0.58708
6712.03367,0.58646
6710.10492,0.58261
6708.17618,0.58037
6706.24743,0.58193
6704.31869,0.58389
6702.38994,0.58343
6700.46120,0.58215
6698.53245,0.58275
6696.60371,0.58450
6694.67496,0.58477
6692.74622,0.58362
6690.81747,0.58352
6688.88873,0.58534
6686.95998,0.58704
6685.03123,0.58769
6683.10249,0.58889
6681.17374,0.59073
6679.24500,0.59201
6677.31625,0.59138
6675.38751,0.58844
6673.45876,0.58601
6671.53002,0.58634
6669.60127,0.58768
6667.67253,0.58747
6665.74378,0.58728
6663.81504,0.58904
6661.88629,0.59008
6659.95755,0.58934
6658.02880,0.58834
6656.10006,0.58763
6654.17131,0.58873
6652.24256,0.59159
6650.31382,0.59314
6648.38507,0.59157
6646.45633,0.58858
6644.52758,0.58690
6642.59884,0.58766
6640.67009,0.59080
6638.74135,0.59387
6636.81260,0.59397
6634.88386,0.59338
6632.95511,0.59515
6631.02637,0.59681
6629.09762,0.59569
6627.16888,0.59388
6625.24013,0.59360
6623.31139,0.59415
6621.38264,0.59505
6619.45389,0.59643
6617.52515,0.59695
6615.59640,0.59646
6613.66766,0.59776
6611.73891,0.60173
6609.81017,0.60434
6607.88142,0.60237
6605.95268,0.59877
6604.02393,0.59721
6602.09519,0.59829
6600.16644,0.60128
6598.23770,0.60264
6596.30895,0.60037
6594.38021,0.59841
6592.45146,0.59947
6590.52271,0.60194
6588.59397,0.60391
6586.66522,0.60350
6584.73648,0.60089
6582.80773,0.59888
6580.87899,0.59711
6578.95024,0.59439
6577.02150,0.59385
6575.09275,0.59730
6573.16401,0.60269
6571.23526,0.60664
6569.30652,0.60610
6567.37777,0.60316
6565.44903,0.60199
6563.52028,0.60205
6561.59154,0.60204
6559.66279,0.60269
6557.73404,0.60400
6555.80530,0.60555
6553.87655,0.60744
6551.94781,0.60863
6550.01906,0.60732
6548.09032,0.60487
6546.16157,0.60408
6544.23283,0.60385
6542.30408,0.60256
6540.37534,0.60237
6538.44659,0.60473
6536.51785,0.60769
6534.58910,0.60940
6532.66036,0.60993
6530.73161,0.61028
6528.80287,0.61069
6526.87412,0.61043
6524.94537,0.60948
6523.01663,0.60844
6521.08788,0.60805
6519.15914,0.60864
6517.23039,0.60860
6515.30165,0.60732
6513.37290,0.60769
6511.44416,0.61079
6509.51541,0.61260
6507.58667,0.61057
6505.65792,0.60852
6503.72918,0.60981
6501.80043,0.61168
6499.87169,0.61105
6497.94294,0.60916
6496.01419,0.60859
6494.08545,0.60981
6492.15670,0.61055
6490.22796,0.60974
6488.29921,0.60902
6486.37047,0.60842
6484.44172,0.60721
6482.51298,0.60693
6480.58423,0.60857
6478.65549,0.61068
6476.72674,0.61144
6474.79800,0.61076
6472.86925,0.61032
6470.94051,0.61172
6469.01176,0.61311
6467.08302,0.61176
6465.15427,0.60963
6463.22552,0.60951
6461.29678,0.60990
6459.36803,0.60864
6457.43929,0.60718
6455.51054,0.60868
6453.58180,0.61344
6451.65305,0.61743
6449.72431,0.61707
6447.79556,0.61471
6445.86682,0.61428
6443.93807,0.61404
6442.00933,0.61233
6440.08058,0.61222
6438.15184,0.61397
6436.22309,0.61454
6434.29434,0.61425
6432.36560,0.61435
6430.43685,0.61428
6428.50811,0.61409
6426.57936,0.61413
6424.65062,0.61390
6422.72187,0.61461
6420.79313,0.61736
6418.86438,0.61968
6416.93564,0.62060
6415.00689,0.62119
6413.07815,0.62004
6411.14940,0.61707
6409.22066,0.61493
6407.29191,0.61452
6405.36317,0.61423
6403.43442,0.61355
6401.50567,0.61342
6399.57693,0.61354
6397.64818,0.61420
6395.71944,0.61646
6393.79069,0.61897
6391.86195,0.61968
6389.93320,0.61857
6388.00446,0.61662
6386.07571,0.61519
6384.14697,0.61517
6382.21822,0.61601
6380.28948,0.61766
6378.36073,0.61903
6376.43199,0.61841
6374.50324,0.61749
6372.57450,0.61740
6370.64575,0.61714
6368.71700,0.61686
6366.78826,0.61753
6364.85951,0.61973
6362.93077,0.62238
6361.00202,0.62338
6359.07328,0.62244
6357.14453,0.62086
6355.21579,0.61960
6353.28704,0.61955
6351.35830,0.62067
6349.42955,0.62138
6347.50081,0.62074
6345.57206,0.61907
6343.64332,0.61873
6341.71457,0.62091
6339.78582,0.62293
6337.85708,0.62373
6335.92833,0.62397
6333.99959,0.62390
6332.07084,0.62466
6330.14210,0.62525
6328.21335,0.62339
6326.28461,0.62112
6324.35586,0.62164
6322.42712,0.62345
6320.49837,0.62373
6318.56963,0.62272
6316.64088,0.62206
6314.71214,0.62235
6312.78339,0.62332
6310.85465,0.62542
6308.92590,0.62833
6306.99715,0.62957
6305.06841,0.62817
6303.13966,0.62627
6301.21092,0.62650
6299.28217,0.62928
6297.35343,0.63149
6295.42468,0.63051
6293.49594,0.62776
6291.56719,0.62547
6289.63845,0.62499
6287.70970,0.62596
6285.78096,0.62638
6283.85221,0.62669
6281.92347,0.62794
6279.99472,0.62847
6278.06598,0.62782
6276.13723,0.62765
6274.20848,0.62841
6272.27974,0.62916
6270.35099,0.62917
6268.42225,0.62906
6266.49350,0.62984
6264.56476,0.63123
6262.63601,0.63203
6260.70727,0.63177
6258.77852,0.63158
6256.84978,0.63258
6254.92103,0.63462
6252.99229,0.63650
6251.06354,0.63720
6249.13480,0.63777
6247.20605,0.63838
6245.27730,0.63793
6243.34856,0.63743
6241.41981,0.63786
6239.49107,0.63908
6237.56232,0.64080
6235.63358,0.64188
6233.70483,0.64162
6231.77609,0.64097
6229.84734,0.64146
6227.91860,0.64282
6225.98985,0.64281
6224.06111,0.64124
6222.13236,0.64073
6220.20362,0.64249
6218.27487,0.64490
6216.34613,0.64598
6214.41738,0.64571
6212.48863,0.64576
6210.55989,0.64609
6208.63114,0.64602
6206.70240,0.64683
6204.77365,0.64805
6202.84491,0.64838
6200.91616,0.64949
6198.98742,0.65169
6197.05867,0.65247
6195.12993,0.65192
6193.20118,0.65262
6191.27244,0.65426
6189.34369,0.65439
6187.41495,0.65277
6185.48620,0.65148
6183.55746,0.65243
6181.62871,0.65503
6179.69996,0.65678
6177.77122,0.65693
6175.84247,0.65673
6173.91373,0.65669
6171.98498,0.65585
6170.05624,0.65461
6168.12749,0.65522
6166.19875,0.65702
6164.27000,0.65773
6162.34126,0.65815
6160.41251,0.65908
6158.48377,0.65968
6156.55502,0.65987
6154.62628,0.65977
6152.69753,0.66010
6150.76878,0.66188
6148.84004,0.66327
6146.91129,0.66243
6144.98255,0.66106
6143.05380,0.66040
6141.12506,0.66014
6139.19631,0.66088
6137.26757,0.66224
6135.33882,0.66395
6133.41008,0.66685
6131.48133,0.66862
6129.55259,0.66718
6127.62384,0.66493
6125.69510,0.66401
6123.76635,0.66447
6121.83761,0.66542
6119.90886,0.66593
6117.98011,0.66642
6116.05137,0.66634
6114.12262,0.66508
6112.19388,0.66417
6110.26513,0.66455
6108.33639,0.66527
6106.40764,0.66572
6104.47890,0.66649
6102.55015,0.66733
6100.62141,0.66736
6098.69266,0.66756
6096.76392,0.66876
6094.83517,0.66955
6092.90643,0.66875
6090.97768,0.66776
6089.04893,0.66790
6087.12019,0.66845
6085.19144,0.66883
6083.26270,0.66875
6081.33395,0.66813
6079.40521,0.66770
6077.47646,0.66788
6075.54772,0.66898
6073.61897,0.66995
6071.69023,0.66894
6069.76148,0.66708
6067.83274,0.66560
6065.90399,0.66386
6063.97525,0.66320
6062.04650,0.66539
6060.11776,0.66800
6058.18901,0.66794
6056.26026,0.66636
6054.33152,0.66529
6052.40277,0.66468
6050.47403,0.66436
6048.54528,0.66395
6046.61654,0.66273
6044.68779,0.66116
6042.75905,0.66011
6040.83030,0.65988
6038.90156,0.66021
6036.97281,0.66042
6035.04407,0.66017
6033.11532,0.65953
6031.18658,0.65850
6029.25783,0.65738
6027.32909,0.65650
6025.40034,0.65633
6023.47159,0.65684
6021.54285,0.65693
6019.61410,0.65620
6017.68536,0.65504
6015.75661,0.65385
6013.82787,0.65400
6011.89912,0.65520
6009.97038,0.65532
6008.04163,0.65382
6006.11289,0.65228
6004.18414,0.65228
6002.25540,0.65252
6000.32665,0.65125
5998.39791,0.65001
5996.46916,0.65002
5994.54041,0.65025
5992.61167,0.65013
5990.68292,0.65007
5988.75418,0.65022
5986.82543,0.65037
5984.89669,0.65054
5982.96794,0.65056
5981.03920,0.65000
5979.11045,0.64902
5977.18171,0.64825
5975.25296,0.64768
5973.32422,0.64717
5971.39547,0.64726
5969.46673,0.64752
5967.53798,0.64664
5965.60924,0.64475
5963.68049,0.64379
5961.75174,0.64510
5959.82300,0.64736
5957.89425,0.64821
5955.96551,0.64779
5954.03676,0.64747
5952.10802,0.64705
5950.17927,0.64644
5948.25053,0.64722
5946.32178,0.64930
5944.39304,0.65059
5942.46429,0.65041
5940.53555,0.64971
5938.60680,0.64921
5936.67806,0.64848
5934.74931,0.64755
5932.82057,0.64782
5930.89182,0.64888
5928.96307,0.64944
5927.03433,0.64985
5925.10558,0.64983
5923.17684,0.64869
5921.24809,0.64695
5919.31935,0.64535
5917.39060,0.64495
5915.46186,0.64666
5913.53311,0.64937
5911.60437,0.65041
5909.67562,0.64914
5907.74688,0.64762
5905.81813,0.64662
5903.88939,0.64533
5901.96064,0.64466
5900.03189,0.64491
5898.10315,0.64396
5896.17440,0.64203
5894.24566,0.64112
5892.31691,0.64143
5890.38817,0.64240
5888.45942,0.64323
5886.53068,0.64273
5884.60193,0.64112
5882.67319,0.63980
5880.74444,0.63914
5878.81570,0.63925
5876.88695,0.64099
5874.95821,0.64321
5873.02946,0.64392
5871.10072,0.64276
5869.17197,0.64141
5867.24322,0.64206
5865.31448,0.64371
5863.38573,0.64386
5861.45699,0.64235
5859.52824,0.64062
5857.59950,0.63990
5855.67075,0.64041
5853.74201,0.64128
5851.81326,0.64176
5849.88452,0.64208
5847.95577,0.64178
5846.02703,0.64058
5844.09828,0.64014
5842.16954,0.64097
5840.24079,0.64167
5838.31205,0.64166
5836.38330,0.64113
5834.45455,0.64037
5832.52581,0.63999
5830.59706,0.63998
5828.66832,0.63965
5826.73957,0.63873
5824.81083,0.63730
5822.88208,0.63637
5820.95334,0.63650
5819.02459,0.63644
5817.09585,0.63601
5815.16710,0.63582
5813.23836,0.63528
5811.30961,0.63468
5809.38087,0.63470
5807.45212,0.63457
5805.52337,0.63383
5803.59463,0.63318
5801.66588,0.63332
5799.73714,0.63378
5797.80839,0.63327
5795.87965,0.63215
5793.95090,0.63203
5792.02216,0.63333
5790.09341,0.63534
5788.16467,0.63684
5786.23592,0.63742
5784.30718,0.63780
5782.37843,0.63800
5780.44969,0.63760
5778.52094,0.63691
5776.59220,0.63646
5774.66345,0.63578
5772.73470,0.63464
5770.80596,0.63452
5768.87721,0.63596
5766.94847,0.63711
5765.01972,0.63693
5763.09098,0.63681
5761.16223,0.63781
5759.23349,0.63903
5757.30474,0.63874
5755.37600,0.63672
5753.44725,0.63561
5751.51851,0.63656
5749.58976,0.63724
5747.66102,0.63728
5745.73227,0.63783
5743.80352,0.63821
5741.87478,0.63819
5739.94603,0.63806
5738.01729,0.63730
5736.08854,0.63672
5734.15980,0.63711
5732.23105,0.63759
5730.30231,0.63805
5728.37356,0.63885
5726.44482,0.63958
5724.51607,0.63943
5722.58733,0.63816
5720.65858,0.63711
5718.72984,0.63712
5716.80109,0.63759
5714.87235,0.63857
5712.94360,0.64003
5711.01485,0.64083
5709.08611,0.64015
5707.15736,0.63826
5705.22862,0.63676
5703.29987,0.63679
5701.37113,0.63681
5699.44238,0.63586
5697.51364,0.63522
5695.58489,0.63541
5693.65615,0.63593
5691.72740,0.63615
5689.79866,0.63586
5687.86991,0.63598
5685.94117,0.63662
5684.01242,0.63669
5682.08368,0.63588
5680.15493,0.63531
5678.22618,0.63593
5676.29744,0.63675
5674.36869,0.63688
5672.43995,0.63753
5670.51120,0.63865
5668.58246,0.63832
5666.65371,0.63661
5664.72497,0.63538
5662.79622,0.63562
5660.86748,0.63709
5658.93873,0.63864
5657.00999,0.63913
5655.08124,0.63876
5653.15250,0.63833
5651.22375,0.63818
5649.29500,0.63823
5647.36626,0.63786
5645.43751,0.63699
5643.50877,0.63634
5641.58002,0.63608
5639.65128,0.63593
5637.72253,0.63581
5635.79379,0.63608
5633.86504,0.63687
5631.93630,0.63774
5630.00755,0.63808
5628.07881,0.63749
5626.15006,0.63706
5624.22132,0.63758
5622.29257,0.63787
5620.36383,0.63736
5618.43508,0.63683
5616.50633,0.63708
5614.57759,0.63741
5612.64884,0.63686
5610.72010,0.63610
5608.79135,0.63578
5606.86261,0.63631
5604.93386,0.63733
5603.00512,0.63749
5601.07637,0.63748
5599.14763,0.63871
5597.21888,0.64010
5595.29014,0.64010
5593.36139,0.63838
5591.43265,0.63603
5589.50390,0.63510
5587.57516,0.63587
5585.64641,0.63696
5583.71766,0.63780
5581.78892,0.63860
5579.86017,0.63881
5577.93143,0.63810
5576.00268,0.63775
5574.07394,0.63815
5572.14519,0.63798
5570.21645,0.63725
5568.28770,0.63678
5566.35896,0.63673
5564.43021,0.63733
5562.50147,0.63845
5560.57272,0.63912
5558.64398,0.63930
5556.71523,0.63970
5554.78648,0.63986
5552.85774,0.63950
5550.92899,0.63968
5549.00025,0.64031
5547.07150,0.64053
5545.14276,0.64067
5543.21401,0.64104
5541.28527,0.64176
5539.35652,0.64269
5537.42778,0.64267
5535.49903,0.64199
5533.57029,0.64189
5531.64154,0.64174
5529.71280,0.64152
5527.78405,0.64167
5525.85531,0.64149
5523.92656,0.64141
5521.99781,0.64179
5520.06907,0.64165
5518.14032,0.64115
5516.21158,0.64128
5514.28283,0.64230
5512.35409,0.64308
5510.42534,0.64244
5508.49660,0.64137
5506.56785,0.64161
5504.63911,0.64284
5502.71036,0.64362
5500.78162,0.64373
5498.85287,0.64357
5496.92413,0.64360
5494.99538,0.64419
5493.06664,0.64448
5491.13789,0.64426
5489.20914,0.64464
5487.28040,0.64567
5485.35165,0.64644
5483.42291,0.64664
5481.49416,0.64644
5479.56542,0.64603
5477.63667,0.64546
5475.70793,0.64515
5473.77918,0.64585
5471.85044,0.64738
5469.92169,0.64846
5467.99295,0.64832
5466.06420,0.64771
5464.13546,0.64768
5462.20671,0.64768
5460.27796,0.64710
5458.34922,0.64709
5456.42047,0.64778
5454.49173,0.64764
5452.56298,0.64675
5450.63424,0.64663
5448.70549,0.64760
5446.77675,0.64882
5444.84800,0.64963
5442.91926,0.64992
5440.99051,0.65008
5439.06177,0.65065
5437.13302,0.65197
5435.20428,0.65304
5433.27553,0.65282
5431.34679,0.65208
5429.41804,0.65159
5427.48929,0.65144
5425.56055,0.65220
5423.63180,0.65370
5421.70306,0.65492
5419.77431,0.65572
5417.84557,0.65628
5415.91682,0.65628
5413.98808,0.65585
5412.05933,0.65567
5410.13059,0.65613
5408.20184,0.65694
5406.27310,0.65752
5404.34435,0.65784
5402.41561,0.65818
5400.48686,0.65848
5398.55811,0.65867
5396.62937,0.65880
5394.70062,0.65864
5392.77188,0.65847
5390.84313,0.65885
5388.91439,0.65923
5386.98564,0.65908
5385.05690,0.65877
5383.12815,0.65861
5381.19941,0.65856
5379.27066,0.65861
5377.34192,0.65858
5375.41317,0.65852
5373.48443,0.65893
5371.55568,0.65947
5369.62694,0.65910
5367.69819,0.65814
5365.76944,0.65749
5363.84070,0.65741
5361.91195,0.65821
5359.98321,0.65920
5358.05446,0.65894
5356.12572,0.65793
5354.19697,0.65748
5352.26823,0.65751
5350.33948,0.65761
5348.41074,0.65750
5346.48199,0.65698
5344.55325,0.65675
5342.62450,0.65745
5340.69576,0.65811
5338.76701,0.65749
5336.83827,0.65563
5334.90952,0.65361
5332.98077,0.65237
5331.05203,0.65195
5329.12328,0.65173
5327.19454,0.65104
5325.26579,0.64986
5323.33705,0.64887
5321.40830,0.64830
5319.47956,0.64755
5317.55081,0.64637
5315.62207,0.64501
5313.69332,0.64366
5311.76458,0.64202
5309.83583,0.63976
5307.90709,0.63753
5305.97834,0.63597
5304.04959,0.63423
5302.12085,0.63185
5300.19210,0.62975
5298.26336,0.62787
5296.33461,0.62528
5294.40587,0.62228
5292.47712,0.62001
5290.54838,0.61768
5288.61963,0.61387
5286.69089,0.61035
5284.76214,0.60861
5282.83340,0.60686
5280.90465,0.60372
5278.97591,0.59962
5277.04716,0.59522
5275.11842,0.59138
5273.18967,0.58804
5271.26092,0.58422
5269.33218,0.58000
5267.40343,0.57608
5265.47469,0.57224
5263.54594,0.56839
5261.61720,0.56484
5259.68845,0.56163
5257.75971,0.55878
5255.83096,0.55595
5253.90222,0.55267
5251.97347,0.54906
5250.04473,0.54552
5248.11598,0.54204
5246.18724,0.53859
5244.25849,0.53564
5242.32975,0.53354
5240.40100,0.53185
5238.47225,0.52950
5236.54351,0.52611
5234.61476,0.52291
5232.68602,0.52062
5230.75727,0.51867
5228.82853,0.51714
5226.89978,0.51595
5224.97104,0.51426
5223.04229,0.51233
5221.11355,0.51126
5219.18480,0.51092
5217.25606,0.51030
5215.32731,0.50898
5213.39857,0.50758
5211.46982,0.50672
5209.54107,0.50624
5207.61233,0.50549
5205.68358,0.50426
5203.75484,0.50328
5201.82609,0.50283
5199.89735,0.50262
5197.96860,0.50257
5196.03986,0.50270
5194.11111,0.50287
5192.18237,0.50285
5190.25362,0.50286
5188.32488,0.50334
5186.39613,0.50399
5184.46739,0.50425
5182.53864,0.50390
5180.60990,0.50362
5178.68115,0.50389
5176.75240,0.50412
5174.82366,0.50458
5172.89491,0.50585
5170.96617,0.50692
5169.03742,0.50738
5167.10868,0.50841
5165.17993,0.50993
5163.25119,0.51086
5161.32244,0.51169
5159.39370,0.51290
5157.46495,0.51357
5155.53621,0.51393
5153.60746,0.51498
5151.67872,0.51613
5149.74997,0.51670
5147.82123,0.51739
5145.89248,0.51856
5143.96373,0.51971
5142.03499,0.52068
5140.10624,0.52146
5138.17750,0.52208
5136.24875,0.52332
5134.32001,0.52522
5132.39126,0.52657
5130.46252,0.52728
5128.53377,0.52814
5126.60503,0.52920
5124.67628,0.53026
5122.74754,0.53143
5120.81879,0.53271
5118.89005,0.53349
5116.96130,0.53381
5115.03255,0.53470
5113.10381,0.53633
5111.17506,0.53817
5109.24632,0.53954
5107.31757,0.53983
5105.38883,0.53969
5103.46008,0.54034
5101.53134,0.54169
5099.60259,0.54326
5097.67385,0.54466
5095.74510,0.54536
5093.81636,0.54578
5091.88761,0.54666
5089.95887,0.54769
5088.03012,0.54866
5086.10138,0.54979
5084.17263,0.55102
5082.24388,0.55229
5080.31514,0.55350
5078.38639,0.55441
5076.45765,0.55481
5074.52890,0.55486
5072.60016,0.55532
5070.67141,0.55650
5068.74267,0.55754
5066.81392,0.55844
5064.88518,0.55953
5062.95643,0.56012
5061.02769,0.56054
5059.09894,0.56152
5057.17020,0.56271
5055.24145,0.56378
5053.31270,0.56448
5051.38396,0.56476
5049.45521,0.56492
5047.52647,0.56522
5045.59772,0.56584
5043.66898,0.56682
5041.74023,0.56795
5039.81149,0.56881
5037.88274,0.56929
5035.95400,0.56955
5034.02525,0.56959
5032.09651,0.56975
5030.16776,0.57043
5028.23902,0.57135
5026.31027,0.57199
5024.38153,0.57239
5022.45278,0.57279
5020.52403,0.57340
5018.59529,0.57415
5016.66654,0.57426
5014.73780,0.57367
5012.80905,0.57332
5010.88031,0.57352
5008.95156,0.57401
5007.02282,0.57456
5005.09407,0.57493
5003.16533,0.57525
5001.23658,0.57572
4999.30784,0.57588
4997.37909,0.57533
4995.45035,0.57451
4993.52160,0.57416
4991.59286,0.57441
4989.66411,0.57452
4987.73536,0.57395
4985.80662,0.57287
4983.87787,0.57164
4981.94913,0.57057
4980.02038,0.56965
4978.09164,0.56892
4976.16289,0.56849
4974.23415,0.56813
4972.30540,0.56740
4970.37666,0.56633
4968.44791,0.56531
4966.51917,0.56438
4964.59042,0.56325
4962.66168,0.56176
4960.73293,0.56008
4958.80418,0.55856
4956.87544,0.55720
4954.94669,0.55582
4953.01795,0.55457
4951.08920,0.55372
4949.16046,0.55277
4947.23171,0.55090
4945.30297,0.54859
4943.37422,0.54675
4941.44548,0.54493
4939.51673,0.54265
4937.58799,0.54055
4935.65924,0.53892
4933.73050,0.53742
4931.80175,0.53599
4929.87301,0.53461
4927.94426,0.53330
4926.01551,0.53198
4924.08677,0.53028
4922.15802,0.52833
4920.22928,0.52645
4918.30053,0.52436
4916.37179,0.52222
4914.44304,0.52064
4912.51430,0.51931
4910.58555,0.51761
4908.65681,0.51554
4906.72806,0.51340
4904.79932,0.51153
4902.87057,0.50993
4900.94183,0.50816
4899.01308,0.50621
4897.08434,0.50450
4895.15559,0.50284
4893.22684,0.50100
4891.29810,0.49936
4889.36935,0.49796
4887.44061,0.49663
4885.51186,0.49521
4883.58312,0.49361
4881.65437,0.49211
4879.72563,0.49075
4877.79688,0.48906
4875.86814,0.48715
4873.93939,0.48542
4872.01065,0.48392
4870.08190,0.48231
4868.15316,0.48066
4866.22441,0.47915
4864.29566,0.47723
4862.36692,0.47522
4860.43817,0.47410
4858.50943,0.47355
4856.58068,0.47272
4854.65194,0.47134
4852.72319,0.46972
4850.79445,0.46842
4848.86570,0.46742
4846.93696,0.46623
4845.00821,0.46510
4843.07947,0.46432
4841.15072,0.46326
4839.22198,0.46164
4837.29323,0.46002
4835.36449,0.45869
4833.43574,0.45760
4831.50699,0.45677
4829.57825,0.45599
4827.64950,0.45500
4825.72076,0.45401
4823.79201,0.45314
4821.86327,0.45207
4819.93452,0.45064
4818.00578,0.44921
4816.07703,0.44827
4814.14829,0.44784
4812.21954,0.44760
4810.29080,0.44730
4808.36205,0.44660
4806.43331,0.44566
4804.50456,0.44509
4802.57582,0.44476
4800.64707,0.44420
4798.71832,0.44344
4796.78958,0.44262
4794.86083,0.44184
4792.93209,0.44144
4791.00334,0.44155
4789.07460,0.44161
4787.14585,0.44107
4785.21711,0.44025
4783.28836,0.44008
4781.35962,0.44067
4779.43087,0.44072
4777.50213,0.43963
4775.57338,0.43861
4773.64464,0.43854
4771.71589,0.43886
4769.78714,0.43904
4767.85840,0.43871
4765.92965,0.43773
4764.00091,0.43699
4762.07216,0.43702
4760.14342,0.43712
4758.21467,0.43700
4756.28593,0.43679
4754.35718,0.43659
4752.42844,0.43648
4750.49969,0.43632
4748.57095,0.43633
4746.64220,0.43675
4744.71346,0.43713
4742.78471,0.43719
4740.85597,0.43694
4738.92722,0.43660
4736.99847,0.43672
4735.06973,0.43709
4733.14098,0.43715
4731.21224,0.43730
4729.28349,0.43768
4727.35475,0.43790
4725.42600,0.43799
4723.49726,0.43816
4721.56851,0.43832
4719.63977,0.43843
4717.71102,0.43865
4715.78228,0.43910
4713.85353,0.43969
4711.92479,0.44014
4709.99604,0.44040
4708.06729,0.44069
4706.13855,0.44093
4704.20980,0.44091
4702.28106,0.44101
4700.35231,0.44170
4698.42357,0.44256
4696.49482,0.44309
4694.56608,0.44329
4692.63733,0.44297
4690.70859,0.44261
4688.77984,0.44299
4686.85110,0.44357
4684.92235,0.44372
4682.99361,0.44359
4681.06486,0.44358
4679.13612,0.44398
4677.20737,0.44472
4675.27862,0.44559
4673.34988,0.44632
4671.42113,0.44645
4669.49239,0.44629
4667.56364,0.44680
4665.63490,0.44801
4663.70615,0.44909
4661.77741,0.44980
4659.84866,0.45055
4657.91992,0.45145
4655.99117,0.45212
4654.06243,0.45248
4652.13368,0.45278
4650.20494,0.45316
4648.27619,0.45368
4646.34745,0.45458
4644.41870,0.45591
4642.48995,0.45707
4640.56121,0.45775
4638.63246,0.45826
4636.70372,0.45872
4634.77497,0.45909
4632.84623,0.45958
4630.91748,0.46030
4628.98874,0.46132
4627.05999,0.46252
4625.13125,0.46351
4623.20250,0.46447
4621.27376,0.46581
4619.34501,0.46734
4617.41627,0.46867
4615.48752,0.46970
4613.55877,0.47065
4611.63003,0.47158
4609.70128,0.47240
4607.77254,0.47319
4605.84379,0.47386
4603.91505,0.47445
4601.98630,0.47534
4600.05756,0.47638
4598.12881,0.47714
4596.20007,0.47758
4594.27132,0.47806
4592.34258,0.47889
4590.41383,0.47996
4588.48509,0.48079
4586.55634,0.48132
4584.62760,0.48206
4582.69885,0.48293
4580.77010,0.48348
4578.84136,0.48383
4576.91261,0.48430
4574.98387,0.48518
4573.05512,0.48644
4571.12638,0.48742
4569.19763,0.48767
4567.26889,0.48770
4565.34014,0.48805
4563.41140,0.48837
4561.48265,0.48859
4559.55391,0.48923
4557.62516,0.49017
4555.69642,0.49089
4553.76767,0.49125
4551.83893,0.49141
4549.91018,0.49153
4547.98143,0.49175
4546.05269,0.49211
4544.12394,0.49255
4542.19520,0.49313
4540.26645,0.49351
4538.33771,0.49333
4536.40896,0.49324
4534.48022,0.49396
4532.55147,0.49506
4530.62273,0.49560
4528.69398,0.49549
4526.76524,0.49545
4524.83649,0.49568
4522.90775,0.49581
4520.97900,0.49574
4519.05025,0.49546
4517.12151,0.49523
4515.19276,0.49554
4513.26402,0.49600
4511.33527,0.49587
4509.40653,0.49528
4507.47778,0.49459
4505.54904,0.49397
4503.62029,0.49364
4501.69155,0.49346
4499.76280,0.49300
4497.83406,0.49205
4495.90531,0.49083
4493.97657,0.48957
4492.04782,0.48813
4490.11908,0.48673
4488.19033,0.48598
4486.26158,0.48550
4484.33284,0.48434
4482.40409,0.48263
4480.47535,0.48102
4478.54660,0.47969
4476.61786,0.47831
4474.68911,0.47662
4472.76037,0.47463
4470.83162,0.47224
4468.90288,0.46961
4466.97413,0.46734
4465.04539,0.46547
4463.11664,0.46334
4461.18790,0.46121
4459.25915,0.45945
4457.33041,0.45742
4455.40166,0.45508
4453.47291,0.45302
4451.54417,0.45087
4449.61542,0.44812
4447.68668,0.44519
4445.75793,0.44265
4443.82919,0.44058
4441.90044,0.43875
4439.97170,0.43672
4438.04295,0.43425
4436.11421,0.43160
4434.18546,0.42918
4432.25672,0.42700
4430.32797,0.42465
4428.39923,0.42180
4426.47048,0.41889
4424.54173,0.41650
4422.61299,0.41451
4420.68424,0.41245
4418.75550,0.41045
4416.82675,0.40875
4414.89801,0.40710
4412.96926,0.40533
4411.04052,0.40359
4409.11177,0.40197
4407.18303,0.40059
4405.25428,0.39976
4403.32554,0.39939
4401.39679,0.39912
4399.46805,0.39877
4397.53930,0.39834
4395.61056,0.39820
4393.68181,0.39855
4391.75306,0.39894
4389.82432,0.39889
4387.89557,0.39863
4385.96683,0.39880
4384.03808,0.39954
4382.10934,0.40027
4380.18059,0.40067
4378.25185,0.40119
4376.32310,0.40217
4374.39436,0.40319
4372.46561,0.40390
4370.53687,0.40462
4368.60812,0.40552
4366.67938,0.40637
4364.75063,0.40713
4362.82189,0.40759
4360.89314,0.40771
4358.96439,0.40797
4357.03565,0.40829
4355.10690,0.40809
4353.17816,0.40761
4351.24941,0.40742
4349.32067,0.40743
4347.39192,0.40736
4345.46318,0.40698
4343.53443,0.40635
4341.60569,0.40597
4339.67694,0.40589
4337.74820,0.40550
4335.81945,0.40474
4333.89071,0.40424
4331.96196,0.40412
4330.03321,0.40391
4328.10447,0.40337
4326.17572,0.40277
4324.24698,0.40216
4322.31823,0.40132
4320.38949,0.40043
4318.46074,0.39961
4316.53200,0.39864
4314.60325,0.39772
4312.67451,0.39686
4310.74576,0.39595
4308.81702,0.39520
4306.88827,0.39454
4304.95953,0.39391
4303.03078,0.39343
4301.10204,0.39292
4299.17329,0.39199
4297.24454,0.39071
4295.31580,0.38972
4293.38705,0.38922
4291.45831,0.38892
4289.52956,0.38870
4287.60082,0.38838
4285.67207,0.38779
4283.74333,0.38711
4281.81458,0.38689
4279.88584,0.38709
4277.95709,0.38691
4276.02835,0.38640
4274.09960,0.38636
4272.17086,0.38682
4270.24211,0.38728
4268.31336,0.38750
4266.38462,0.38771
4264.45587,0.38822
4262.52713,0.38877
4260.59838,0.38916
4258.66964,0.38967
4256.74089,0.39038
4254.81215,0.39100
4252.88340,0.39135
4250.95466,0.39164
4249.02591,0.39203
4247.09717,0.39241
4245.16842,0.39265
4243.23968,0.39275
4241.31093,0.39286
4239.38219,0.39316
4237.45344,0.39371
4235.52469,0.39412
4233.59595,0.39408
4231.66720,0.39389
4229.73846,0.39372
4227.80971,0.39346
4225.88097,0.39332
4223.95222,0.39336
4222.02348,0.39330
4220.09473,0.39318
4218.16599,0.39321
4216.23724,0.39335
4214.30850,0.39356
4212.37975,0.39391
4210.45101,0.39412
4208.52226,0.39408
4206.59352,0.39410
4204.66477,0.39421
4202.73602,0.39438
4200.80728,0.39481
4198.87853,0.39550
4196.94979,0.39607
4195.02104,0.39624
4193.09230,0.39610
4191.16355,0.39596
4189.23481,0.39599
4187.30606,0.39622
4185.37732,0.39648
4183.44857,0.39650
4181.51983,0.39652
4179.59108,0.39714
4177.66234,0.39820
4175.73359,0.39899
4173.80484,0.39923
4171.87610,0.39934
4169.94735,0.39972
4168.01861,0.40030
4166.08986,0.40070
4164.16112,0.40070
4162.23237,0.40060
4160.30363,0.40092
4158.37488,0.40142
4156.44614,0.40145
4154.51739,0.40094
4152.58865,0.40034
4150.65990,0.39968
4148.73116,0.39886
4146.80241,0.39811
4144.87367,0.39752
4142.94492,0.39687
4141.01617,0.39617
4139.08743,0.39565
4137.15868,0.39511
4135.22994,0.39428
4133.30119,0.39316
4131.37245,0.39192
4129.44370,0.39067
4127.51496,0.38951
4125.58621,0.38837
4123.65747,0.38704
4121.72872,0.38566
4119.79998,0.38442
4117.87123,0.38299
4115.94249,0.38131
4114.01374,0.37989
4112.08500,0.37878
4110.15625,0.37749
4108.22750,0.37595
4106.29876,0.37432
4104.37001,0.37266
4102.44127,0.37097
4100.51252,0.36932
4098.58378,0.36769
4096.65503,0.36594
4094.72629,0.36408
4092.79754,0.36223
4090.86880,0.36046
4088.94005,0.35877
4087.01131,0.35701
4085.08256,0.35510
4083.15382,0.35312
4081.22507,0.35125
4079.29632,0.34964
4077.36758,0.34809
4075.43883,0.34647
4073.51009,0.34462
4071.58134,0.34263
4069.65260,0.34080
4067.72385,0.33915
4065.79511,0.33741
4063.86636,0.33548
4061.93762,0.33344
4060.00887,0.33138
4058.08013,0.32947
4056.15138,0.32796
4054.22264,0.32659
4052.29389,0.32486
4050.36515,0.32308
4048.43640,0.32173
4046.50765,0.32030
4044.57891,0.31855
4042.65016,0.31704
4040.72142,0.31592
4038.79267,0.31472
4036.86393,0.31337
4034.93518,0.31219
4033.00644,0.31126
4031.07769,0.31049
4029.14895,0.30974
4027.22020,0.30880
4025.29146,0.30776
4023.36271,0.30701
4021.43397,0.30669
4019.50522,0.30648
4017.57648,0.30609
4015.64773,0.30568
4013.71898,0.30554
4011.79024,0.30558
4009.86149,0.30554
4007.93275,0.30547
4006.00400,0.30551
4004.07526,0.30575
4002.14651,0.30613
4000.21777,0.30638
3998.28902,0.30658
3996.36028,0.30710
3994.43153,0.30775
3992.50279,0.30805
3990.57404,0.30812
3988.64530,0.30837
3986.71655,0.30899
3984.78780,0.30991
3982.85906,0.31065
3980.93031,0.31105
3979.00157,0.31143
3977.07282,0.31192
3975.14408,0.31239
3973.21533,0.31286
3971.28659,0.31347
3969.35784,0.31407
3967.42910,0.31456
3965.50035,0.31528
3963.57161,0.31615
3961.64286,0.31686
3959.71412,0.31764
3957.78537,0.31878
3955.85663,0.31986
3953.92788,0.32063
3951.99913,0.32145
3950.07039,0.32249
3948.14164,0.32355
3946.21290,0.32440
3944.28415,0.32501
3942.35541,0.32563
3940.42666,0.32659
3938.49792,0.32776
3936.56917,0.32888
3934.64043,0.33000
3932.71168,0.33113
3930.78294,0.33204
3928.85419,0.33283
3926.92545,0.33360
3924.99670,0.33436
3923.06795,0.33540
3921.13921,0.33656
3919.21046,0.33739
3917.28172,0.33800
3915.35297,0.33870
3913.42423,0.33959
3911.49548,0.34066
3909.56674,0.34164
3907.63799,0.34233
3905.70925,0.34294
3903.78050,0.34371
3901.85176,0.34447
3899.92301,0.34510
3897.99427,0.34580
3896.06552,0.34661
3894.13678,0.34748
3892.20803,0.34844
3890.27928,0.34933
3888.35054,0.34999
3886.42179,0.35060
3884.49305,0.35128
3882.56430,0.35194
3880.63556,0.35250
3878.70681,0.35311
3876.77807,0.35389
3874.84932,0.35469
3872.92058,0.35524
3870.99183,0.35565
3869.06309,0.35631
3867.13434,0.35733
3865.20560,0.35874
3863.27685,0.36023
3861.34811,0.36123
3859.41936,0.36196
3857.49061,0.36298
3855.56187,0.36428
3853.63312,0.36533
3851.70438,0.36592
3849.77563,0.36637
3847.84689,0.36688
3845.91814,0.36764
3843.98940,0.36857
3842.06065,0.36925
3840.13191,0.36972
3838.20316,0.37050
3836.27442,0.37144
3834.34567,0.37172
3832.41693,0.37148
3830.48818,0.37149
3828.55943,0.37180
3826.63069,0.37212
3824.70194,0.37256
3822.77320,0.37317
3820.84445,0.37354
3818.91571,0.37343
3816.98696,0.37291
3815.05822,0.37234
3813.12947,0.37212
3811.20073,0.37210
3809.27198,0.37226
3807.34324,0.37253
3805.41449,0.37272
3803.48575,0.37286
3801.55700,0.37287
3799.62826,0.37276
3797.69951,0.37269
3795.77076,0.37249
3793.84202,0.37223
3791.91327,0.37207
3789.98453,0.37182
3788.05578,0.37133
3786.12704,0.37080
3784.19829,0.37062
3782.26955,0.37061
3780.34080,0.37031
3778.41206,0.36990
3776.48331,0.36969
3774.55457,0.36946
3772.62582,0.36909
3770.69708,0.36867
3768.76833,0.36813
3766.83959,0.36744
3764.91084,0.36674
3762.98209,0.36621
3761.05335,0.36604
3759.12460,0.36591
3757.19586,0.36521
3755.26711,0.36418
3753.33837,0.36332
3751.40962,0.36246
3749.48088,0.36161
3747.55213,0.36106
3745.62339,0.36022
3743.69464,0.35879
3741.76590,0.35764
3739.83715,0.35699
3737.90841,0.35637
3735.97966,0.35543
3734.05091,0.35410
3732.12217,0.35261
3730.19342,0.35108
3728.26468,0.34940
3726.33593,0.34760
3724.40719,0.34593
3722.47844,0.34423
3720.54970,0.34215
3718.62095,0.33982
3716.69221,0.33766
3714.76346,0.33574
3712.83472,0.33373
3710.90597,0.33115
3708.97723,0.32797
3707.04848,0.32475
3705.11974,0.32180
3703.19099,0.31875
3701.26224,0.31522
3699.33350,0.31158
3697.40475,0.30797
3695.47601,0.30426
3693.54726,0.30044
3691.61852,0.29623
3689.68977,0.29103
3687.76103,0.28508
3685.83228,0.27949
3683.90354,0.27423
3681.97479,0.26885
3680.04605,0.26344
3678.11730,0.25772
3676.18856,0.25082
3674.25981,0.24348
3672.33107,0.23719
3670.40232,0.23053
3668.47357,0.22306
3666.54483,0.21622
3664.61608,0.20996
3662.68734,0.20397
3660.75859,0.19803
3658.82985,0.19212
3656.90110,0.18634
3654.97236,0.18067
3653.04361,0.17552
3651.11487,0.17077
3649.18612,0.16569
3647.25738,0.16031
3645.32863,0.15546
3643.39989,0.15138
3641.47114,0.14764
3639.54239,0.14394
3637.61365,0.14029
3635.68490,0.13667
3633.75616,0.13343
3631.82741,0.13078
3629.89867,0.12772
3627.96992,0.12370
3626.04118,0.12015
3624.11243,0.11735
3622.18369,0.11455
3620.25494,0.11161
3618.32620,0.10901
3616.39745,0.10689
3614.46871,0.10465
3612.53996,0.10210
3610.61122,0.09956
3608.68247,0.09717
3606.75372,0.09493
3604.82498,0.09276
3602.89623,0.09062
3600.96749,0.08857
3599.03874,0.08672
3597.11000,0.08505
3595.18125,0.08347
3593.25251,0.08189
3591.32376,0.08045
3589.39502,0.07898
3587.46627,0.07719
3585.53753,0.07564
3583.60878,0.07469
3581.68004,0.07384
3579.75129,0.07264
3577.82254,0.07110
3575.89380,0.06952
3573.96505,0.06811
3572.03631,0.06705
3570.10756,0.06634
3568.17882,0.06562
3566.25007,0.06462
3564.32133,0.06359
3562.39258,0.06263
3560.46384,0.06159
3558.53509,0.06061
3556.60635,0.06001
3554.67760,0.05969
3552.74886,0.05926
3550.82011,0.05839
3548.89137,0.05719
3546.96262,0.05616
3545.03387,0.05556
3543.10513,0.05524
3541.17638,0.05477
3539.24764,0.05397
3537.31889,0.05322
3535.39015,0.05276
3533.46140,0.05232
3531.53266,0.05163
3529.60391,0.05090
3527.67517,0.05052
3525.74642,0.05053
3523.81768,0.05063
3521.88893,0.05045
3519.96019,0.04992
3518.03144,0.04934
3516.10270,0.04889
3514.17395,0.04854
3512.24520,0.04820
3510.31646,0.04779
3508.38771,0.04711
3506.45897,0.04629
3504.53022,0.04602
3502.60148,0.04644
3500.67273,0.04666
3498.74399,0.04631
3496.81524,0.04582
3494.88650,0.04522
3492.95775,0.04469
3491.02901,0.04463
3489.10026,0.04486
3487.17152,0.04488
3485.24277,0.04444
3483.31402,0.04381
3481.38528,0.04337
3479.45653,0.04317
3477.52779,0.04312
3475.59904,0.04304
3473.67030,0.04272
3471.74155,0.04230
3469.81281,0.04208
3467.88406,0.04197
3465.95532,0.04174
3464.02657,0.04138
3462.09783,0.04106
3460.16908,0.04108
3458.24034,0.04150
3456.31159,0.04188
3454.38285,0.04199
3452.45410,0.04198
3450.52535,0.04180
3448.59661,0.04153
3446.66786,0.04141
3444.73912,0.04142
3442.81037,0.04143
3440.88163,0.04128
3438.95288,0.04097
3437.02414,0.04087
3435.09539,0.04098
3433.16665,0.04094
3431.23790,0.04079
3429.30916,0.04078
3427.38041,0.04094
3425.45167,0.04102
3423.52292,0.04095
3421.59418,0.04086
3419.66543,0.04078
3417.73668,0.04072
3415.80794,0.04070
3413.87919,0.04071
3411.95045,0.04074
3410.02170,0.04076
3408.09296,0.04095
3406.16421,0.04129
3404.23547,0.04127
3402.30672,0.04090
3400.37798,0.04077
3398.44923,0.04101
3396.52049,0.04121
3394.59174,0.04120
3392.66300,0.04121
3390.73425,0.04145
3388.80550,0.04163
3386.87676,0.04154
3384.94801,0.04144
3383.01927,0.04143
3381.09052,0.04138
3379.16178,0.04135
3377.23303,0.04157
3375.30429,0.04183
3373.37554,0.04178
3371.44680,0.04157
3369.51805,0.04147
3367.58931,0.04133
3365.66056,0.04109
3363.73182,0.04099
3361.80307,0.04109
3359.87433,0.04146
3357.94558,0.04192
3356.01683,0.04202
3354.08809,0.04182
3352.15934,0.04176
3350.23060,0.04192
3348.30185,0.04214
3346.37311,0.04243
3344.44436,0.04273
3342.51562,0.04292
3340.58687,0.04309
3338.65813,0.04337
3336.72938,0.04368
3334.80064,0.04397
3332.87189,0.04417
3330.94315,0.04422
3329.01440,0.04435
3327.08566,0.04467
3325.15691,0.04490
3323.22816,0.04500
3321.29942,0.04508
3319.37067,0.04513
3317.44193,0.04520
3315.51318,0.04535
3313.58444,0.04550
3311.65569,0.04551
3309.72695,0.04560
3307.79820,0.04600
3305.86946,0.04656
3303.94071,0.04710
3302.01197,0.04734
3300.08322,0.04724
3298.15448,0.04722
3296.22573,0.04728
3294.29698,0.04740
3292.36824,0.04795
3290.43949,0.04851
3288.51075,0.04856
3286.58200,0.04823
3284.65326,0.04795
3282.72451,0.04817
3280.79577,0.04868
3278.86702,0.04913
3276.93828,0.04965
3275.00953,0.05014
3273.08079,0.05029
3271.15204,0.05036
3269.22330,0.05067
3267.29455,0.05133
3265.36581,0.05193
3263.43706,0.05205
3261.50831,0.05217
3259.57957,0.05276
3257.65082,0.05343
3255.72208,0.05377
3253.79333,0.05389
3251.86459,0.05408
3249.93584,0.05442
3248.00710,0.05482
3246.07835,0.05522
3244.14961,0.05562
3242.22086,0.05604
3240.29212,0.05647
3238.36337,0.05683
3236.43463,0.05707
3234.50588,0.05728
3232.57713,0.05763
3230.64839,0.05820
3228.71964,0.05895
3226.79090,0.05975
3224.86215,0.06020
3222.93341,0.06018
3221.00466,0.06027
3219.07592,0.06087
3217.14717,0.06164
3215.21843,0.06211
3213.28968,0.06231
3211.36094,0.06251
3209.43219,0.06264
3207.50345,0.06260
3205.57470,0.06279
3203.64596,0.06347
3201.71721,0.06437
3199.78846,0.06526
3197.85972,0.06602
3195.93097,0.06652
3194.00223,0.06675
3192.07348,0.06699
3190.14474,0.06751
3188.21599,0.06825
3186.28725,0.06882
3184.35850,0.06899
3182.42976,0.06908
3180.50101,0.06948
3178.57227,0.07011
3176.64352,0.07073
3174.71478,0.07137
3172.78603,0.07204
3170.85729,0.07255
3168.92854,0.07288
3166.99979,0.07322
3165.07105,0.07365
3163.14230,0.07412
3161.21356,0.07477
3159.28481,0.07567
3157.35607,0.07649
3155.42732,0.07705
3153.49858,0.07750
3151.56983,0.07798
3149.64109,0.07845
3147.71234,0.07895
3145.78360,0.07957
3143.85485,0.08023
3141.92611,0.08075
3139.99736,0.08118
3138.06861,0.08164
3136.13987,0.08216
3134.21112,0.08271
3132.28238,0.08323
3130.35363,0.08378
3128.42489,0.08433
3126.49614,0.08464
3124.56740,0.08486
3122.63865,0.08544
3120.70991,0.08617
3118.78116,0.08660
3116.85242,0.08698
3114.92367,0.08770
3112.99493,0.08855
3111.06618,0.08924
3109.13744,0.08975
3107.20869,0.09022
3105.27994,0.09075
3103.35120,0.09123
3101.42245,0.09152
3099.49371,0.09175
3097.56496,0.09220
3095.63622,0.09276
3093.70747,0.09327
3091.77873,0.09367
3089.84998,0.09400
3087.92124,0.09461
3085.99249,0.09553
3084.06375,0.09619
3082.13500,0.09635
3080.20626,0.09647
3078.27751,0.09674
3076.34877,0.09700
3074.42002,0.09732
3072.49127,0.09786
3070.56253,0.09851
3068.63378,0.09910
3066.70504,0.09958
3064.77629,0.10003
3062.84755,0.10053
3060.91880,0.10106
3058.99006,0.10160
3057.06131,0.10215
3055.13257,0.10260
3053.20382,0.10308
3051.27508,0.10375
3049.34633,0.10434
3047.41759,0.10461
3045.48884,0.10466
3043.56009,0.10472
3041.63135,0.10509
3039.70260,0.10564
3037.77386,0.10597
3035.84511,0.10617
3033.91637,0.10643
3031.98762,0.10670
3030.05888,0.10703
3028.13013,0.10733
3026.20139,0.10724
3024.27264,0.10680
3022.34390,0.10632
3020.41515,0.10604
3018.48641,0.10588
3016.55766,0.10563
3014.62892,0.10521
3012.70017,0.10472
3010.77142,0.10422
3008.84268,0.10354
3006.91393,0.10254
3004.98519,0.10154
3003.05644,0.10092
3001.12770,0.10068
2999.19895,0.10040
2997.27021,0.09978
2995.34146,0.09897
2993.41272,0.09823
2991.48397,0.09756
2989.55523,0.09672
2987.62648,0.09553
2985.69774,0.09405
2983.76899,0.09243
2981.84025,0.09070
2979.91150,0.08886
2977.98275,0.08694
2976.05401,0.08496
2974.12526,0.08294
2972.19652,0.08097
2970.26777,0.07937
2968.33903,0.07820
2966.41028,0.07706
2964.48154,0.07587
2962.55279,0.07503
2960.62405,0.07441
2958.69530,0.07364
2956.76656,0.07283
2954.83781,0.07196
2952.90907,0.07101
2950.98032,0.07001
2949.05157,0.06895
2947.12283,0.06796
2945.19408,0.06723
2943.26534,0.06671
2941.33659,0.06614
2939.40785,0.06556
2937.47910,0.06524
2935.55036,0.06500
2933.62161,0.06465
2931.69287,0.06449
2929.76412,0.06464
2927.83538,0.06496
2925.90663,0.06520
2923.97789,0.06515
2922.04914,0.06485
2920.12040,0.06470
2918.19165,0.06486
2916.26290,0.06504
2914.33416,0.06507
2912.40541,0.06519
2910.47667,0.06537
2908.54792,0.06533
2906.61918,0.06518
2904.69043,0.06527
2902.76169,0.06561
2900.83294,0.06595
2898.90420,0.06627
2896.97545,0.06666
2895.04671,0.06715
2893.11796,0.06765
2891.18922,0.06810
2889.26047,0.06851
2887.33172,0.06893
2885.40298,0.06932
2883.47423,0.06954
2881.54549,0.06969
2879.61674,0.07003
2877.68800,0.07056
2875.75925,0.07098
2873.83051,0.07121
2871.90176,0.07156
2869.97302,0.07212
2868.04427,0.07268
2866.11553,0.07328
2864.18678,0.07405
2862.25804,0.07484
2860.32929,0.07549
2858.40055,0.07618
2856.47180,0.07699
2854.54305,0.07789
2852.61431,0.07902
2850.68556,0.08033
2848.75682,0.08167
2846.82807,0.08318
2844.89933,0.08497
2842.97058,0.08677
2841.04184,0.08831
2839.11309,0.08978
2837.18435,0.09137
2835.25560,0.09311
2833.32686,0.09502
2831.39811,0.09712
2829.46937,0.09933
2827.54062,0.10150
2825.61188,0.10343
2823.68313,0.10502
2821.75438,0.10637
2819.82564,0.10773
2817.89689,0.10924
2815.96815,0.11090
2814.03940,0.11255
2812.11066,0.11409
2810.18191,0.11552
2808.25317,0.11683
2806.32442,0.11812
2804.39568,0.11945
2802.46693,0.12063
2800.53819,0.12158
2798.60944,0.12235
2796.68070,0.12306
2794.75195,0.12380
2792.82320,0.12459
2790.89446,0.12541
2788.96571,0.12615
2787.03697,0.12678
2785.10822,0.12734
2783.17948,0.12779
2781.25073,0.12810
2779.32199,0.12835
2777.39324,0.12882
2775.46450,0.12952
2773.53575,0.13007
2771.60701,0.13032
2769.67826,0.13046
2767.74952,0.13074
2765.82077,0.13118
2763.89203,0.13160
2761.96328,0.13181
2760.03453,0.13196
2758.10579,0.13235
2756.17704,0.13285
2754.24830,0.13324
2752.31955,0.13346
2750.39081,0.13352
2748.46206,0.13353
2746.53332,0.13358
2744.60457,0.13370
2742.67583,0.13386
2740.74708,0.13395
2738.81834,0.13401
2736.88959,0.13408
2734.96085,0.13425
2733.03210,0.13469
2731.10336,0.13528
2729.17461,0.13580
2727.24586,0.13620
2725.31712,0.13660
2723.38837,0.13714
2721.45963,0.13778
2719.53088,0.13841
2717.60214,0.13897
2715.67339,0.13945
2713.74465,0.13996
2711.81590,0.14048
2709.88716,0.14100
2707.95841,0.14175
2706.02967,0.14281
2704.10092,0.14390
2702.17218,0.14471
2700.24343,0.14518
2698.31468,0.14562
2696.38594,0.14636
2694.45719,0.14730
2692.52845,0.14823
2690.59970,0.14894
2688.67096,0.14934
2686.74221,0.14960
2684.81347,0.14993
2682.88472,0.15042
2680.95598,0.15104
2679.02723,0.15162
2677.09849,0.15205
2675.16974,0.15247
2673.24100,0.15300
2671.31225,0.15355
2669.38351,0.15400
2667.45476,0.15437
2665.52601,0.15473
2663.59727,0.15519
2661.66852,0.15573
2659.73978,0.15624
2657.81103,0.15665
2655.88229,0.15694
2653.95354,0.15723
2652.02480,0.15764
2650.09605,0.15807
2648.16731,0.15848
2646.23856,0.15894
2644.30982,0.15941
2642.38107,0.15985
2640.45233,0.16019
2638.52358,0.16042
2636.59484,0.16083
2634.66609,0.16154
2632.73734,0.16238
2630.80860,0.16309
2628.87985,0.16364
2626.95111,0.16422
2625.02236,0.16473
2623.09362,0.16501
2621.16487,0.16532
2619.23613,0.16580
2617.30738,0.16639
2615.37864,0.16700
2613.44989,0.16753
2611.52115,0.16797
2609.59240,0.16844
2607.66366,0.16890
2605.73491,0.16919
2603.80616,0.16935
2601.87742,0.16970
2599.94867,0.17039
2598.01993,0.17121
2596.09118,0.17179
2594.16244,0.17211
2592.23369,0.17243
2590.30495,0.17293
2588.37620,0.17358
2586.44746,0.17417
2584.51871,0.17460
2582.58997,0.17505
2580.66122,0.17553
2578.73248,0.17577
2576.80373,0.17579
2574.87499,0.17598
2572.94624,0.17643
2571.01749,0.17672
2569.08875,0.17667
2567.16000,0.17670
2565.23126,0.17703
2563.30251,0.17739
2561.37377,0.17766
2559.44502,0.17795
2557.51628,0.17825
2555.58753,0.17839
2553.65879,0.17833
2551.73004,0.17827
2549.80130,0.17834
2547.87255,0.17842
2545.94381,0.17853
2544.01506,0.17880
2542.08631,0.17919
2540.15757,0.17960
2538.22882,0.17992
2536.30008,0.18023
2534.37133,0.18056
2532.44259,0.18088
2530.51384,0.18138
2528.58510,0.18210
2526.65635,0.18282
2524.72761,0.18327
2522.79886,0.18343
2520.87012,0.18364
2518.94137,0.18409
2517.01263,0.18459
2515.08388,0.18511
2513.15514,0.18577
2511.22639,0.18650
2509.29764,0.18732
2507.36890,0.18824
2505.44015,0.18916
2503.51141,0.19005
2501.58266,0.19090
2499.65392,0.19175
2497.72517,0.19273
2495.79643,0.19365
2493.86768,0.19435
2491.93894,0.19495
2490.01019,0.19552
2488.08145,0.19619
2486.15270,0.19710
2484.22396,0.19806
2482.29521,0.19892
2480.36647,0.19967
2478.43772,0.20032
2476.50897,0.20092
2474.58023,0.20153
2472.65148,0.20226
2470.72274,0.20311
2468.79399,0.20391
2466.86525,0.20451
2464.93650,0.20503
2463.00776,0.20565
2461.07901,0.20641
2459.15027,0.20723
2457.22152,0.20804
2455.29278,0.20878
2453.36403,0.20946
2451.43529,0.21025
2449.50654,0.21109
2447.57779,0.21170
2445.64905,0.21216
2443.72030,0.21289
2441.79156,0.21387
2439.86281,0.21482
2437.93407,0.21575
2436.00532,0.21668
2434.07658,0.21757
2432.14783,0.21843
2430.21909,0.21925
2428.29034,0.22017
2426.36160,0.22108
2424.43285,0.22190
2422.50411,0.22280
2420.57536,0.22369
2418.64662,0.22449
2416.71787,0.22544
2414.78912,0.22650
2412.86038,0.22739
2410.93163,0.22812
2409.00289,0.22891
2407.07414,0.22977
2405.14540,0.23064
2403.21665,0.23154
2401.28791,0.23239
2399.35916,0.23328
2397.43042,0.23426
2395.50167,0.23515
2393.57293,0.23593
2391.64418,0.23679
2389.71544,0.23766
2387.78669,0.23838
2385.85795,0.23908
2383.92920,0.23975
2382.00045,0.24034
2380.07171,0.24109
2378.14296,0.24211
2376.21422,0.24311
2374.28547,0.24393
2372.35673,0.24479
2370.42798,0.24584
2368.49924,0.24683
2366.57049,0.24744
2364.64175,0.24781
2362.71300,0.24829
2360.78426,0.24887
2358.85551,0.24934
2356.92677,0.24982
2354.99802,0.25046
2353.06927,0.25109
2351.14053,0.25158
2349.21178,0.25201
2347.28304,0.25238
2345.35429,0.25277
2343.42555,0.25329
2341.49680,0.25390
2339.56806,0.25453
2337.63931,0.25507
2335.71057,0.25531
2333.78182,0.25532
2331.85308,0.25546
2329.92433,0.25575
2327.99559,0.25609
2326.06684,0.25645
2324.13810,0.25680
2322.20935,0.25712
2320.28060,0.25738
2318.35186,0.25759
2316.42311,0.25780
2314.49437,0.25803
2312.56562,0.25822
2310.63688,0.25833
2308.70813,0.25831
2306.77939,0.25808
2304.85064,0.25782
2302.92190,0.25780
2300.99315,0.25793
2299.06441,0.25802
2297.13566,0.25799
2295.20692,0.25789
2293.27817,0.25779
2291.34943,0.25767
2289.42068,0.25758
2287.49193,0.25769
2285.56319,0.25791
2283.63444,0.25804
2281.70570,0.25801
2279.77695,0.25787
2277.84821,0.25766
2275.91946,0.25739
2273.99072,0.25712
2272.06197,0.25686
2270.13323,0.25647
2268.20448,0.25598
2266.27574,0.25555
2264.34699,0.25509
2262.41825,0.25459
2260.48950,0.25412
2258.56075,0.25369
2256.63201,0.25341
2254.70326,0.25323
2252.77452,0.25302
2250.84577,0.25284
2248.91703,0.25273
2246.98828,0.25257
2245.05954,0.25228
2243.13079,0.25195
2241.20205,0.25169
2239.27330,0.25157
2237.34456,0.25146
2235.41581,0.25121
2233.48707,0.25093
2231.55832,0.25075
2229.62958,0.25065
2227.70083,0.25067
2225.77208,0.25070
2223.84334,0.25051
2221.91459,0.25031
2219.98585,0.25038
2218.05710,0.25058
2216.12836,0.25072
2214.19961,0.25080
2212.27087,0.25081
2210.34212,0.25065
2208.41338,0.25025
2206.48463,0.24968
2204.55589,0.24908
2202.62714,0.24858
2200.69840,0.24827
2198.76965,0.24797
2196.84090,0.24741
2194.91216,0.24668
2192.98341,0.24595
2191.05467,0.24519
2189.12592,0.24431
2187.19718,0.24340
2185.26843,0.24258
2183.33969,0.24166
2181.41094,0.24054
2179.48220,0.23941
2177.55345,0.23835
2175.62471,0.23740
2173.69596,0.23655
2171.76722,0.23562
2169.83847,0.23461
2167.90973,0.23369
2165.98098,0.23292
2164.05223,0.23232
2162.12349,0.23181
2160.19474,0.23108
2158.26600,0.23005
2156.33725,0.22928
2154.40851,0.22892
2152.47976,0.22846
2150.55102,0.22781
2148.62227,0.22737
2146.69353,0.22717
2144.76478,0.22681
2142.83604,0.22614
2140.90729,0.22547
2138.97855,0.22498
2137.04980,0.22464
2135.12106,0.22449
2133.19231,0.22452
2131.26356,0.22460
2129.33482,0.22474
2127.40607,0.22499
2125.47733,0.22532
2123.54858,0.22561
2121.61984,0.22587
2119.69109,0.22628
2117.76235,0.22677
2115.83360,0.22706
2113.90486,0.22714
2111.97611,0.22739
2110.04737,0.22789
2108.11862,0.22835
2106.18988,0.22856
2104.26113,0.22856
2102.33238,0.22860
2100.40364,0.22887
2098.47489,0.22924
2096.54615,0.22951
2094.61740,0.22967
2092.68866,0.22974
2090.75991,0.22973
2088.83117,0.22963
2086.90242,0.22954
2084.97368,0.22957
2083.04493,0.22957
2081.11619,0.22929
2079.18744,0.22880
2077.25870,0.22831
2075.32995,0.22782
2073.40121,0.22729
2071.47246,0.22678
2069.54371,0.22629
2067.61497,0.22586
2065.68622,0.22561
2063.75748,0.22552
2061.82873,0.22543
2059.89999,0.22521
2057.97124,0.22496
2056.04250,0.22492
2054.11375,0.22509
2052.18501,0.22533
2050.25626,0.22557
2048.32752,0.22575
2046.39877,0.22599
2044.47003,0.22640
2042.54128,0.22683
2040.61254,0.22730
2038.68379,0.22795
2036.75504,0.22871
2034.82630,0.22952
2032.89755,0.23044
2030.96881,0.23145
2029.04006,0.23239
2027.11132,0.23317
2025.18257,0.23402
2023.25383,0.23502
2021.32508,0.23598
2019.39634,0.23686
2017.46759,0.23773
2015.53885,0.23854
2013.61010,0.23931
2011.68136,0.24014
2009.75261,0.24089
2007.82386,0.24145
2005.89512,0.24197
2003.96637,0.24248
2002.03763,0.24298
2000.10888,0.24360
1998.18014,0.24424
1996.25139,0.24462
1994.32265,0.24494
1992.39390,0.24545
1990.46516,0.24608
1988.53641,0.24668
1986.60767,0.24716
1984.67892,0.24754
1982.75018,0.24795
1980.82143,0.24842
1978.89269,0.24880
1976.96394,0.24895
1975.03519,0.24912
1973.10645,0.24962
1971.17770,0.25031
1969.24896,0.25088
1967.32021,0.25137
1965.39147,0.25185
1963.46272,0.25234
1961.53398,0.25286
1959.60523,0.25331
1957.67649,0.25369
1955.74774,0.25428
1953.81900,0.25501
1951.89025,0.25568
1949.96151,0.25640
1948.03276,0.25728
1946.10402,0.25814
1944.17527,0.25882
1942.24652,0.25936
1940.31778,0.25987
1938.38903,0.26043
1936.46029,0.26100
1934.53154,0.26146
1932.60280,0.26169
1930.67405,0.26184
1928.74531,0.26212
1926.81656,0.26254
1924.88782,0.26299
1922.95907,0.26330
1921.03033,0.26344
1919.10158,0.26338
1917.17284,0.26317
1915.24409,0.26309
1913.31534,0.26318
1911.38660,0.26318
1909.45785,0.26304
1907.52911,0.26295
1905.60036,0.26284
1903.67162,0.26251
1901.74287,0.26204
1899.81413,0.26173
1897.88538,0.26164
1895.95664,0.26157
1894.02789,0.26132
1892.09915,0.26099
1890.17040,0.26071
1888.24166,0.26045
1886.31291,0.26021
1884.38417,0.26009
1882.45542,0.26003
1880.52667,0.25988
1878.59793,0.25951
1876.66918,0.25903
1874.74044,0.25870
1872.81169,0.25854
1870.88295,0.25838
1868.95420,0.25802
1867.02546,0.25745
1865.09671,0.25690
1863.16797,0.25646
1861.23922,0.25594
1859.31048,0.25531
1857.38173,0.25471
1855.45299,0.25402
1853.52424,0.25320
1851.59549,0.25237
1849.66675,0.25152
1847.73800,0.25061
1845.80926,0.24963
1843.88051,0.24849
1841.95177,0.24731
1840.02302,0.24614
1838.09428,0.24480
1836.16553,0.24334
1834.23679,0.24188
1832.30804,0.24038
1830.37930,0.23871
1828.45055,0.23677
1826.52181,0.23454
1824.59306,0.23188
1822.66432,0.22905
1820.73557,0.22623
1818.80682,0.22314
1816.87808,0.21979
1814.94933,0.21638
1813.02059,0.21282
1811.09184,0.20879
1809.16310,0.20455
1807.23435,0.20047
1805.30561,0.19637
1803.37686,0.19213
1801.44812,0.18771
1799.51937,0.18310
1797.59063,0.17840
1795.66188,0.17387
1793.73314,0.16927
1791.80439,0.16410
1789.87565,0.15895
1787.94690,0.15442
1786.01815,0.14998
1784.08941,0.14532
1782.16066,0.14066
1780.23192,0.13599
1778.30317,0.13137
1776.37443,0.12704
1774.44568,0.12267
1772.51694,0.11765
1770.58819,0.11235
1768.65945,0.10732
1766.73070,0.10242
1764.80196,0.09784
1762.87321,0.09327
1760.94447,0.08858
1759.01572,0.08440
1757.08697,0.08057
1755.15823,0.07705
1753.22948,0.07408
1751.30074,0.07134
1749.37199,0.06877
1747.44325,0.06676
1745.51450,0.06535
1743.58576,0.06436
1741.65701,0.06357
1739.72827,0.06295
1737.79952,0.06264
1735.87078,0.06255
1733.94203,0.06244
1732.01329,0.06229
1730.08454,0.06235
1728.15580,0.06270
1726.22705,0.06324
1724.29830,0.06382
1722.36956,0.06440
1720.44081,0.06505
1718.51207,0.06590
1716.58332,0.06682
1714.65458,0.06764
1712.72583,0.06850
1710.79709,0.06948
1708.86834,0.07058
1706.93960,0.07168
1705.01085,0.07257
1703.08211,0.07321
1701.15336,0.07365
1699.22462,0.07375
1697.29587,0.07361
1695.36713,0.07321
1693.43838,0.07259
1691.50963,0.07199
1689.58089,0.07138
1687.65214,0.07088
1685.72340,0.07036
1683.79465,0.06930
1681.86591,0.06821
1679.93716,0.06759
1678.00842,0.06706
1676.07967,0.06629
1674.15093,0.06546
1672.22218,0.06499
1670.29344,0.06477
1668.36469,0.06456
1666.43595,0.06438
1664.50720,0.06421
1662.57845,0.06402
1660.64971,0.06397
1658.72096,0.06418
1656.79222,0.06459
1654.86347,0.06490
1652.93473,0.06484
1651.00598,0.06482
1649.07724,0.06495
1647.14849,0.06487
1645.21975,0.06472
1643.29100,0.06475
1641.36226,0.06487
1639.43351,0.06513
1637.50477,0.06534
1635.57602,0.06510
1633.64728,0.06473
1631.71853,0.06470
1629.78978,0.06477
1627.86104,0.06468
1625.93229,0.06442
1624.00355,0.06399
1622.07480,0.06347
1620.14606,0.06319
1618.21731,0.06305
1616.28857,0.06247
1614.35982,0.06156
1612.43108,0.06094
1610.50233,0.06054
1608.57359,0.06004
1606.64484,0.05953
1604.71610,0.05918
1602.78735,0.05905
1600.85861,0.05911
1598.92986,0.05932
1597.00111,0.05952
1595.07237,0.05963
1593.14362,0.05988
1591.21488,0.06057
1589.28613,0.06173
1587.35739,0.06315
1585.42864,0.06479
1583.49990,0.06661
1581.57115,0.06864
1579.64241,0.07094
1577.71366,0.07365
1575.78492,0.07676
1573.85617,0.07950
1571.92743,0.08179
1569.99868,0.08417
1568.06993,0.08647
1566.14119,0.08837
1564.21244,0.08995
1562.28370,0.09118
1560.35495,0.09220
1558.42621,0.09300
1556.49746,0.09334
1554.56872,0.09354
1552.63997,0.09373
1550.71123,0.09380
1548.78248,0.09371
1546.85374,0.09342
1544.92499,0.09286
1542.99625,0.09192
1541.06750,0.09045
1539.13876,0.08853
1537.21001,0.08701
1535.28126,0.08561
1533.35252,0.08317
1531.42377,0.07983
1529.49503,0.07656
1527.56628,0.07314
1525.63754,0.06939
1523.70879,0.06558
1521.78005,0.06119
1519.85130,0.05670
1517.92256,0.05333
1515.99381,0.05107
1514.06507,0.04992
1512.13632,0.04974
1510.20758,0.05023
1508.27883,0.05115
1506.35008,0.05242
1504.42134,0.05414
1502.49259,0.05602
1500.56385,0.05792
1498.63510,0.05992
1496.70636,0.06188
1494.77761,0.06339
1492.84887,0.06454
1490.92012,0.06550
1488.99138,0.06586
1487.06263,0.06547
1485.13389,0.06472
1483.20514,0.06376
1481.27640,0.06259
1479.34765,0.06127
1477.41891,0.05975
1475.49016,0.05794
1473.56141,0.05564
1471.63267,0.05299
1469.70392,0.05094
1467.77518,0.04972
1465.84643,0.04898
1463.91769,0.04845
1461.98894,0.04823
1460.06020,0.04843
1458.13145,0.04872
1456.20271,0.04853
1454.27396,0.04823
1452.34522,0.04838
1450.41647,0.04886
1448.48773,0.04936
1446.55898,0.04967
1444.63024,0.04974
1442.70149,0.04956
1440.77274,0.04916
1438.84400,0.04861
1436.91525,0.04776
1434.98651,0.04669
1433.05776,0.04588
1431.12902,0.04543
1429.20027,0.04532
1427.27153,0.04552
1425.34278,0.04590
1423.41404,0.04634
1421.48529,0.04692
1419.55655,0.04765
1417.62780,0.04835
1415.69906,0.04900
1413.77031,0.04970
1411.84156,0.05036
1409.91282,0.05094
1407.98407,0.05140
1406.05533,0.05156
1404.12658,0.05153
1402.19784,0.05151
1400.26909,0.05155
1398.34035,0.05166
1396.41160,0.05165
1394.48286,0.05115
1392.55411,0.05035
1390.62537,0.04970
1388.69662,0.04917
1386.76788,0.04848
1384.83913,0.04778
1382.91039,0.04722
1380.98164,0.04661
1379.05289,0.04602
1377.12415,0.04567
1375.19540,0.04550
1373.26666,0.04548
1371.33791,0.04560
1369.40917,0.04573
1367.48042,0.04597
1365.55168,0.04647
1363.62293,0.04704
1361.69419,0.04746
1359.76544,0.04783
1357.83670,0.04816
1355.90795,0.04839
1353.97921,0.04862
1352.05046,0.04881
1350.12172,0.04881
1348.19297,0.04856
1346.26422,0.04818
1344.33548,0.04783
1342.40673,0.04759
1340.47799,0.04738
1338.54924,0.04708
1336.62050,0.04678
1334.69175,0.04666
1332.76301,0.04667
1330.83426,0.04665
1328.90552,0.04660
1326.97677,0.04655
1325.04803,0.04649
1323.11928,0.04638
1321.19054,0.04627
1319.26179,0.04618
1317.33304,0.04617
1315.40430,0.04622
1313.47555,0.04634
1311.54681,0.04662
1309.61806,0.04707
1307.68932,0.04743
1305.76057,0.04752
1303.83183,0.04747
1301.90308,0.04735
1299.97434,0.04693
1298.04559,0.04629
1296.11685,0.04577
1294.18810,0.04542
1292.25936,0.04502
1290.33061,0.04452
1288.40187,0.04397
1286.47312,0.04339
1284.54437,0.04287
1282.61563,0.04244
1280.68688,0.04211
1278.75814,0.04199
1276.82939,0.04213
1274.90065,0.04240
1272.97190,0.04254
1271.04316,0.04239
1269.11441,0.04230
1267.18567,0.04258
1265.25692,0.04313
1263.32818,0.04378
1261.39943,0.04440
1259.47069,0.04485
1257.54194,0.04507
1255.61320,0.04521
1253.68445,0.04528
1251.75570,0.04516
1249.82696,0.04497
1247.89821,0.04497
1245.96947,0.04518
1244.04072,0.04544
1242.11198,0.04566
1240.18323,0.04575
1238.25449,0.04567
1236.32574,0.04555
1234.39700,0.04544
1232.46825,0.04543
1230.53951,0.04560
1228.61076,0.04592
1226.68202,0.04624
1224.75327,0.04634
1222.82452,0.04630
1220.89578,0.04638
1218.96703,0.04654
1217.03829,0.04663
1215.10954,0.04657
1213.18080,0.04641
1211.25205,0.04632
1209.32331,0.04622
1207.39456,0.04608
1205.46582,0.04617
1203.53707,0.04655
1201.60833,0.04696
1199.67958,0.04728
1197.75084,0.04738
1195.82209,0.04719
1193.89335,0.04688
1191.96460,0.04647
1190.03585,0.04589
1188.10711,0.04516
1186.17836,0.04428
1184.24962,0.04327
1182.32087,0.04228
1180.39213,0.04134
1178.46338,0.04045
1176.53464,0.03960
1174.60589,0.03878
1172.67715,0.03810
1170.74840,0.03780
1168.81966,0.03805
1166.89091,0.03868
1164.96217,0.03949
1163.03342,0.04036
1161.10467,0.04104
1159.17593,0.04143
1157.24718,0.04170
1155.31844,0.04173
1153.38969,0.04147
1151.46095,0.04115
1149.53220,0.04084
1147.60346,0.04047
1145.67471,0.04003
1143.74597,0.03966
1141.81722,0.03934
1139.88848,0.03894
1137.95973,0.03846
1136.03099,0.03808
1134.10224,0.03773
1132.17350,0.03709
1130.24475,0.03633
1128.31600,0.03605
1126.38726,0.03625
1124.45851,0.03635
1122.52977,0.03638
1120.60102,0.03656
1118.67228,0.03677
1116.74353,0.03694
1114.81479,0.03729
1112.88604,0.03790
1110.95730,0.03843
1109.02855,0.03878
1107.09981,0.03933
1105.17106,0.04006
1103.24232,0.04042
1101.31357,0.04018
1099.38483,0.03965
1097.45608,0.03933
1095.52733,0.03933
1093.59859,0.03947
1091.66984,0.03976
1089.74110,0.03991
1087.81235,0.03960
1085.88361,0.03917
1083.95486,0.03914
1082.02612,0.03972
1080.09737,0.04073
1078.16863,0.04170
1076.23988,0.04244
1074.31114,0.04311
1072.38239,0.04393
1070.45365,0.04491
1068.52490,0.04613
1066.59615,0.04791
1064.66741,0.05004
1062.73866,0.05195
1060.80992,0.05353
1058.88117,0.05482
1056.95243,0.05580
1055.02368,0.05638
1053.09494,0.05646
1051.16619,0.05608
1049.23745,0.05557
1047.30870,0.05522
1045.37996,0.05500
1043.45121,0.05480
1041.52247,0.05481
1039.59372,0.05543
1037.66498,0.05673
1035.73623,0.05838
1033.80748,0.06006
1031.87874,0.06129
1029.94999,0.06180
1028.02125,0.06201
1026.09250,0.06244
1024.16376,0.06298
1022.23501,0.06339
1020.30627,0.06383
1018.37752,0.06464
1016.44878,0.06557
1014.52003,0.06616
1012.59129,0.06654
1010.66254,0.06696
1008.73380,0.06718
1006.80505,0.06728
1004.87631,0.06762
1002.94756,0.06825
1001.01881,0.06892
999.09007,0.06950
997.16132,0.07017
995.23258,0.07114
993.30383,0.07225
991.37509,0.07323
989.44634,0.07400
987.51760,0.07484
985.58885,0.07624
983.66011,0.07827
981.73136,0.08050
979.80262,0.08241
977.87387,0.08387
975.94513,0.08512
974.01638,0.08604
972.08763,0.08655
970.15889,0.08703
968.23014,0.08778
966.30140,0.08875
964.37265,0.08985
962.44391,0.09111
960.51516,0.09238
958.58642,0.09352
956.65767,0.09464
954.72893,0.09574
952.80018,0.09684
950.87144,0.09800
948.94269,0.09897
947.01395,0.09954
945.08520,0.09986
943.15646,0.10010
941.22771,0.10052
939.29896,0.10114
937.37022,0.10178
935.44147,0.10240
933.51273,0.10293
931.58398,0.10334
929.65524,0.10378
927.72649,0.10409
925.79775,0.10418
923.86900,0.10410
921.94026,0.10388
920.01151,0.10350
918.08277,0.10279
916.15402,0.10173
914.22528,0.10043
912.29653,0.09884
910.36779,0.09708
908.43904,0.09540
906.51029,0.09365
904.58155,0.09199
902.65280,0.09077
900.72406,0.08989
898.79531,0.08935
896.86657,0.08919
894.93782,0.08939
893.00908,0.09015
891.08033,0.09132
889.15159,0.09239
887.22284,0.09313
885.29410,0.09342
883.36535,0.09343
881.43661,0.09361
879.50786,0.09415
877.57911,0.09468
875.65037,0.09489
873.72162,0.09515
871.79288,0.09566
869.86413,0.09616
867.93539,0.09652
866.00664,0.09682
864.07790,0.09726
862.14915,0.09783
860.22041,0.09826
858.29166,0.09877
856.36292,0.09942
854.43417,0.10008
852.50543,0.10101
850.57668,0.10205
848.64794,0.10278
846.71919,0.10322
844.79044,0.10354
842.86170,0.10368
840.93295,0.10355
839.00421,0.10307
837.07546,0.10199
835.14672,0.10051
833.21797,0.09929
831.28923,0.09838
829.36048,0.09720
827.43174,0.09547
825.50299,0.09340
823.57425,0.09144
821.64550,0.08982
819.71676,0.08862
817.78801,0.08800
815.85926,0.08778
813.93052,0.08745
812.00177,0.08698
810.07303,0.08667
808.14428,0.08649
806.21554,0.08636
804.28679,0.08659
802.35805,0.08736
800.42930,0.08814
798.50056,0.08866
796.57181,0.08900
794.64307,0.08913
792.71432,0.08907
790.78558,0.08872
788.85683,0.08800
786.92809,0.08731
784.99934,0.08675
783.07059,0.08592
781.14185,0.08492
779.21310,0.08414
777.28436,0.08351
775.35561,0.08285
773.42687,0.08236
771.49812,0.08217
769.56938,0.08194
767.64063,0.08151
765.71189,0.08129
763.78314,0.08126
761.85440,0.08094
759.92565,0.08042
757.99691,0.08001
756.06816,0.07967
754.13942,0.07930
752.21067,0.07871
750.28192,0.07780
748.35318,0.07701
746.42443,0.07656
744.49569,0.07615
742.56694,0.07556
740.63820,0.07499
738.70945,0.07480
736.78071,0.07475
734.85196,0.07434
732.92322,0.07353
730.99447,0.07244
729.06573,0.07119
727.13698,0.07013
725.20824,0.06960
723.27949,0.06975
721.35074,0.06997
719.42200,0.06938
717.49325,0.06800
715.56451,0.06694
713.63576,0.06681
711.70702,0.06696
709.77827,0.06683
707.84953,0.06639
705.92078,0.06598
703.99204,0.06621
702.06329,0.06658
700.13455,0.06588
698.20580,0.06454
696.27706,0.06384
694.34831,0.06382
692.41957,0.06382
690.49082,0.06377
688.56207,0.06358
686.63333,0.06299
684.70458,0.06236
682.77584,0.06196
680.84709,0.06124
678.91835,0.06017
676.98960,0.05941
675.06086,0.05914
673.13211,0.05890
671.20337,0.05854
669.27462,0.05834
667.34588,0.05833
665.41713,0.05846
663.48839,0.05872
661.55964,0.05866
659.63090,0.05824
657.70215,0.05817
655.77340,0.05878
653.84466,0.05939
651.91591,0.05961
649.98717,0.05963
648.05842,0.05924
646.12968,0.05867
644.20093,0.05858
642.27219,0.05852
640.34344,0.05815
638.41470,0.05786
636.48595,0.05745
634.55721,0.05643
632.62846,0.05532
630.69972,0.05532
628.77097,0.05637
626.84222,0.05714
624.91348,0.05706
622.98473,0.05661
621.05599,0.05662
619.12724,0.05717
617.19850,0.05713
615.26975,0.05655
613.34101,0.05659
611.41226,0.05743
609.48352,0.05824
607.55477,0.05857
605.62603,0.05852
603.69728,0.05806
601.76854,0.05767
599.83979,0.05831
