7497.03301,0.75992
7495.10426,0.75735
7493.17552,0.76285
7491.24677,0.77126
7489.31803,0.77215
7487.38928,0.76431
7485.46054,0.75960
7483.53179,0.76293
7481.60305,0.76803
7479.67430,0.76719
7477.74556,0.75914
7475.81681,0.75318
7473.88807,0.75484
7471.95932,0.75740
7470.03057,0.75463
7468.10183,0.75025
7466.17308,0.75177
7464.24434,0.75801
7462.31559,0.76255
7460.38685,0.76400
7458.45810,0.76374
7456.52936,0.76291
7454.60061,0.76106
7452.67187,0.75831
7450.74312,0.75586
7448.81438,0.75116
7446.88563,0.74564
7444.95689,0.74739
7443.02814,0.75493
7441.09940,0.75930
7439.17065,0.75859
7437.24190,0.75553
7435.31316,0.75277
7433.38441,0.75029
7431.45567,0.74775
7429.52692,0.74812
7427.59818,0.74991
7425.66943,0.75066
7423.74069,0.75221
7421.81194,0.75241
7419.88320,0.74972
7417.95445,0.74771
7416.02571,0.74729
7414.09696,0.74632
7412.16822,0.74382
7410.23947,0.74182
7408.31073,0.74261
7406.38198,0.74361
7404.45323,0.74215
7402.52449,0.74058
7400.59574,0.73937
7398.66700,0.73658
7396.73825,0.73559
7394.80951,0.73891
7392.88076,0.74160
7390.95202,0.74206
7389.02327,0.74423
7387.09453,0.74593
7385.16578,0.74180
7383.23704,0.73545
7381.30829,0.73427
7379.37955,0.73796
7377.45080,0.74162
7375.52205,0.74083
7373.59331,0.73503
7371.66456,0.72814
7369.73582,0.72391
7367.80707,0.72563
7365.87833,0.73063
7363.94958,0.73279
7362.02084,0.73234
7360.09209,0.73095
7358.16335,0.73007
7356.23460,0.73268
7354.30586,0.73722
7352.37711,0.73902
7350.44837,0.73753
7348.51962,0.73526
7346.59088,0.73287
7344.66213,0.72895
7342.73338,0.72363
7340.80464,0.72235
7338.87589,0.72776
7336.94715,0.73136
7335.01840,0.72853
7333.08966,0.72393
7331.16091,0.72084
7329.23217,0.71929
7327.30342,0.71870
7325.37468,0.72013
7323.44593,0.72395
7321.51719,0.72630
7319.58844,0.72435
7317.65970,0.72038
7315.73095,0.71731
7313.80221,0.71597
7311.87346,0.71595
7309.94471,0.71594
7308.01597,0.71698
7306.08722,0.72160
7304.15848,0.72697
7302.22973,0.72879
7300.30099,0.72721
7298.37224,0.72393
7296.44350,0.72090
7294.51475,0.71914
7292.58601,0.71782
7290.65726,0.71800
7288.72852,0.72071
7286.79977,0.72132
7284.87103,0.71774
7282.94228,0.71565
7281.01353,0.71786
7279.08479,0.72114
7277.15604,0.72199
7275.22730,0.71932
7273.29855,0.71501
7271.36981,0.71375
7269.44106,0.71747
7267.51232,0.72277
7265.58357,0.72666
7263.65483,0.72661
7261.72608,0.72382
7259.79734,0.72403
7257.86859,0.72664
7255.93985,0.72729
7254.01110,0.72504
7252.08236,0.72055
7250.15361,0.71733
7248.22486,0.71838
7246.29612,0.72053
7244.36737,0.72070
7242.43863,0.72113
7240.50988,0.72174
7238.58114,0.72035
7236.65239,0.71982
7234.72365,0.72327
7232.79490,0.72636
7230.86616,0.72356
7228.93741,0.71919
7227.00867,0.71761
7225.07992,0.71580
7223.15118,0.71271
7221.22243,0.71101
7219.29369,0.71021
7217.36494,0.70921
7215.43619,0.71063
7213.50745,0.71405
7211.57870,0.71689
7209.64996,0.72010
7207.72121,0.72225
7205.79247,0.72012
7203.86372,0.71569
7201.93498,0.71240
7200.00623,0.70991
7198.07749,0.70858
7196.14874,0.71029
7194.22000,0.71381
7192.29125,0.71680
7190.36251,0.71780
7188.43376,0.71603
7186.50501,0.71361
7184.57627,0.71218
7182.64752,0.71033
7180.71878,0.70860
7178.79003,0.70884
7176.86129,0.71097
7174.93254,0.71371
7173.00380,0.71326
7171.07505,0.70820
7169.14631,0.70448
7167.21756,0.70694
7165.28882,0.71157
7163.36007,0.71370
7161.43133,0.71326
7159.50258,0.70855
7157.57384,0.70075
7155.64509,0.69635
7153.71634,0.69679
7151.78760,0.69890
7149.85885,0.70190
7147.93011,0.70375
7146.00136,0.70195
7144.07262,0.69947
7142.14387,0.69717
7140.21513,0.69331
7138.28638,0.69084
7136.35764,0.69001
7134.42889,0.68728
7132.50015,0.68364
7130.57140,0.68323
7128.64266,0.68620
7126.71391,0.68859
7124.78516,0.68839
7122.85642,0.68559
7120.92767,0.68271
7118.99893,0.68319
7117.07018,0.68511
7115.14144,0.68484
7113.21269,0.68283
7111.28395,0.68100
7109.35520,0.67925
7107.42646,0.67692
7105.49771,0.67472
7103.56897,0.67304
7101.64022,0.67143
7099.71148,0.66976
7097.78273,0.66765
7095.85399,0.66386
7093.92524,0.66043
7091.99649,0.66102
7090.06775,0.66320
7088.13900,0.66320
7086.21026,0.66134
7084.28151,0.65868
7082.35277,0.65495
7080.42402,0.64797
7078.49528,0.64005
7076.56653,0.63904
7074.63779,0.64515
7072.70904,0.64993
7070.78030,0.64848
7068.85155,0.64438
7066.92281,0.64204
7064.99406,0.64012
7063.06532,0.63760
7061.13657,0.63598
7059.20782,0.63497
7057.27908,0.63260
7055.35033,0.62788
7053.42159,0.62514
7051.49284,0.62824
7049.56410,0.63243
7047.63535,0.63359
7045.70661,0.63276
7043.77786,0.62921
7041.84912,0.62308
7039.92037,0.61834
7037.99163,0.61767
7036.06288,0.61967
7034.13414,0.62067
7032.20539,0.61852
7030.27664,0.61449
7028.34790,0.61215
7026.41915,0.61406
7024.49041,0.61764
7022.56166,0.61673
7020.63292,0.61058
7018.70417,0.60538
7016.77543,0.60437
7014.84668,0.60567
7012.91794,0.60595
7010.98919,0.60242
7009.06045,0.59751
7007.13170,0.59580
7005.20296,0.59741
7003.27421,0.59987
7001.34547,0.60050
6999.41672,0.59807
6997.48797,0.59518
6995.55923,0.59480
6993.63048,0.59613
6991.70174,0.59616
6989.77299,0.59423
6987.84425,0.59295
6985.91550,0.59185
6983.98676,0.58853
6982.05801,0.58695
6980.12927,0.58970
6978.20052,0.59171
6976.27178,0.59143
6974.34303,0.59212
6972.41429,0.59193
6970.48554,0.58819
6968.55680,0.58438
6966.62805,0.58214
6964.69930,0.58040
6962.77056,0.58052
6960.84181,0.58160
6958.91307,0.58131
6956.98432,0.58091
6955.05558,0.58299
6953.12683,0.58603
6951.19809,0.58568
6949.26934,0.58368
6947.34060,0.58511
6945.41185,0.58801
6943.48311,0.58681
6941.55436,0.58278
6939.62562,0.58202
6937.69687,0.58455
6935.76812,0.58510
6933.83938,0.58310
6931.91063,0.58264
6929.98189,0.58413
6928.05314,0.58382
6926.12440,0.58074
6924.19565,0.57771
6922.26691,0.57703
6920.33816,0.57865
6918.40942,0.58145
6916.48067,0.58399
6914.55193,0.58401
6912.62318,0.58075
6910.69444,0.57677
6908.76569,0.57544
6906.83695,0.57549
6904.90820,0.57304
6902.97945,0.57050
6901.05071,0.57194
6899.12196,0.57504
6897.19322,0.57653
6895.26447,0.57685
6893.33573,0.57801
6891.40698,0.57979
6889.47824,0.57997
6887.54949,0.57846
6885.62075,0.57709
6883.69200,0.57764
6881.76326,0.57951
6879.83451,0.58051
6877.90577,0.58122
6875.97702,0.58175
6874.04828,0.58055
6872.11953,0.57925
6870.19078,0.58009
6868.26204,0.58233
6866.33329,0.58358
6864.40455,0.58307
6862.47580,0.58260
6860.54706,0.58278
6858.61831,0.58204
6856.68957,0.57886
6854.76082,0.57537
6852.83208,0.57524
6850.90333,0.57717
6848.97459,0.57820
6847.04584,0.57764
6845.11710,0.57644
6843.18835,0.57655
6841.25960,0.57784
6839.33086,0.57870
6837.40211,0.57812
6835.47337,0.57586
6833.54462,0.57422
6831.61588,0.57581
6829.68713,0.57867
6827.75839,0.57835
6825.82964,0.57528
6823.90090,0.57337
6821.97215,0.57249
6820.04341,0.57077
6818.11466,0.57012
6816.18592,0.57308
6814.25717,0.57728
6812.32843,0.57797
6810.39968,0.57528
6808.47093,0.57353
6806.54219,0.57498
6804.61344,0.57748
6802.68470,0.57795
6800.75595,0.57645
6798.82721,0.57471
6796.89846,0.57472
6794.96972,0.57693
6793.04097,0.57905
6791.11223,0.57963
6789.18348,0.57873
6787.25474,0.57770
6785.32599,0.57815
6783.39725,0.57844
6781.46850,0.57652
6779.53975,0.57354
6777.61101,0.57227
6775.68226,0.57325
6773.75352,0.57367
6771.82477,0.57256
6769.89603,0.57144
6767.96728,0.57138
6766.03854,0.57315
6764.10979,0.57652
6762.18105,0.57935
6760.25230,0.58020
6758.32356,0.57896
6756.39481,0.57581
6754.46607,0.57358
6752.53732,0.57473
6750.60858,0.57701
6748.67983,0.57750
6746.75108,0.57643
6744.82234,0.57599
6742.89359,0.57649
6740.96485,0.57637
6739.03610,0.57634
6737.10736,0.57803
6735.17861,0.58105
6733.24987,0.58312
6731.32112,0.58313
6729.39238,0.58244
6727.46363,0.58045
6725.53489,0.57667
6723.60614,0.57495
6721.67740,0.57748
6719.74865,0.58088
6717.81991,0.58127
6715.89116,0.57962
6713.96241,0.58076
6712.03367,0.58587
6710.10492,0.58947
6708.17618,0.58769
6706.24743,0.58404
6704.31869,0.58310
6702.38994,0.58415
6700.46120,0.58412
6698.53245,0.58288
6696.60371,0.58258
6694.67496,0.58325
6692.74622,0.58380
6690.81747,0.58408
6688.88873,0.58376
6686.95998,0.58336
6685.03123,0.58319
6683.10249,0.58175
6681.17374,0.57930
6679.24500,0.57906
6677.31625,0.58317
6675.38751,0.58814
6673.45876,0.58819
6671.53002,0.58504
6669.60127,0.58458
6667.67253,0.58678
6665.74378,0.58801
6663.81504,0.58770
6661.88629,0.58713
6659.95755,0.58667
6658.02880,0.58691
6656.10006,0.58804
6654.17131,0.58904
6652.24256,0.58919
6650.31382,0.58763
6648.38507,0.58544
6646.45633,0.58582
6644.52758,0.58894
6642.59884,0.59214
6640.67009,0.59383
6638.74135,0.59419
6636.81260,0.59365
6634.88386,0.59282
6632.95511,0.59224
6631.02637,0.59160
6629.09762,0.59065
6627.16888,0.58939
6625.24013,0.58840
6623.31139,0.58915
6621.38264,0.59148
6619.45389,0.59373
6617.52515,0.59597
6615.59640,0.59896
6613.66766,0.60074
6611.73891,0.59924
6609.81017,0.59663
6607.88142,0.59570
6605.95268,0.59500
6604.02393,0.59385
6602.09519,0.59548
6600.16644,0.59984
6598.23770,0.60295
6596.30895,0.60253
6594.38021,0.59948
6592.45146,0.59702
6590.52271,0.59661
6588.59397,0.59749
6586.66522,0.59943
6584.73648,0.60135
6582.80773,0.60222
6580.87899,0.60209
6578.95024,0.60069
6577.02150,0.59864
6575.09275,0.59749
6573.16401,0.59828
6571.23526,0.60102
6569.30652,0.60347
6567.37777,0.60481
6565.44903,0.60628
6563.52028,0.60642
6561.59154,0.60477
6559.66279,0.60299
6557.73404,0.60143
6555.80530,0.60145
6553.87655,0.60340
6551.94781,0.60489
6550.01906,0.60584
6548.09032,0.60684
6546.16157,0.60616
6544.23283,0.60455
6542.30408,0.60516
6540.37534,0.60713
6538.44659,0.60712
6536.51785,0.60531
6534.58910,0.60409
6532.66036,0.60382
6530.73161,0.60376
6528.80287,0.60417
6526.87412,0.60548
6524.94537,0.60698
6523.01663,0.60758
6521.08788,0.60701
6519.15914,0.60585
6517.23039,0.60606
6515.30165,0.60746
6513.37290,0.60633
6511.44416,0.60312
6509.51541,0.60265
6507.58667,0.60472
6505.65792,0.60559
6503.72918,0.60576
6501.80043,0.60600
6499.87169,0.60495
6497.94294,0.60473
6496.01419,0.60649
6494.08545,0.60766
6492.15670,0.60775
6490.22796,0.60802
6488.29921,0.60865
6486.37047,0.60917
6484.44172,0.60945
6482.51298,0.60970
6480.58423,0.60960
6478.65549,0.60873
6476.72674,0.60819
6474.79800,0.60876
6472.86925,0.60960
6470.94051,0.61065
6469.01176,0.61144
6467.08302,0.61079
6465.15427,0.60908
6463.22552,0.60779
6461.29678,0.60791
6459.36803,0.60882
6457.43929,0.61009
6455.51054,0.61142
6453.58180,0.61191
6451.65305,0.61190
6449.72431,0.61169
6447.79556,0.61057
6445.86682,0.60845
6443.93807,0.60675
6442.00933,0.60646
6440.08058,0.60724
6438.15184,0.60918
6436.22309,0.61144
6434.29434,0.61290
6432.36560,0.61353
6430.43685,0.61296
6428.50811,0.61166
6426.57936,0.61111
6424.65062,0.61173
6422.72187,0.61269
6420.79313,0.61322
6418.86438,0.61294
6416.93564,0.61160
6415.00689,0.61038
6413.07815,0.61151
6411.14940,0.61446
6409.22066,0.61710
6407.29191,0.61831
6405.36317,0.61691
6403.43442,0.61459
6401.50567,0.61417
6399.57693,0.61422
6397.64818,0.61390
6395.71944,0.61506
6393.79069,0.61707
6391.86195,0.61773
6389.93320,0.61686
6388.00446,0.61558
6386.07571,0.61531
6384.14697,0.61661
6382.21822,0.61788
6380.28948,0.61752
6378.36073,0.61649
6376.43199,0.61697
6374.50324,0.61793
6372.57450,0.61672
6370.64575,0.61495
6368.71700,0.61506
6366.78826,0.61619
6364.85951,0.61703
6362.93077,0.61755
6361.00202,0.61838
6359.07328,0.61999
6357.14453,0.62134
6355.21579,0.62106
6353.28704,0.62037
6351.35830,0.62066
6349.42955,0.62041
6347.50081,0.61915
6345.57206,0.61877
6343.64332,0.61926
6341.71457,0.61876
6339.78582,0.61790
6337.85708,0.61840
6335.92833,0.61970
6333.99959,0.62103
6332.07084,0.62261
6330.14210,0.62394
6328.21335,0.62385
6326.28461,0.62232
6324.35586,0.62063
6322.42712,0.62044
6320.49837,0.62195
6318.56963,0.62283
6316.64088,0.62206
6314.71214,0.62111
6312.78339,0.62018
6310.85465,0.61893
6308.92590,0.61816
6306.99715,0.61889
6305.06841,0.62071
6303.13966,0.62223
6301.21092,0.62442
6299.28217,0.62720
6297.35343,0.62707
6295.42468,0.62422
6293.49594,0.62245
6291.56719,0.62296
6289.63845,0.62417
6287.70970,0.62459
6285.78096,0.62450
6283.85221,0.62466
6281.92347,0.62515
6279.99472,0.62573
6278.06598,0.62587
6276.13723,0.62607
6274.20848,0.62666
6272.27974,0.62736
6270.35099,0.62925
6268.42225,0.63222
6266.49350,0.63364
6264.56476,0.63321
6262.63601,0.63341
6260.70727,0.63431
6258.77852,0.63402
6256.84978,0.63278
6254.92103,0.63278
6252.99229,0.63438
6251.06354,0.63532
6249.13480,0.63478
6247.20605,0.63455
6245.27730,0.63493
6243.34856,0.63464
6241.41981,0.63449
6239.49107,0.63577
6237.56232,0.63736
6235.63358,0.63923
6233.70483,0.64143
6231.77609,0.64162
6229.84734,0.64020
6227.91860,0.63980
6225.98985,0.64038
6224.06111,0.64079
6222.13236,0.64082
6220.20362,0.64032
6218.27487,0.64006
6216.34613,0.64170
6214.41738,0.64403
6212.48863,0.64494
6210.55989,0.64552
6208.63114,0.64701
6206.70240,0.64861
6204.77365,0.64893
6202.84491,0.64889
6200.91616,0.65063
6198.98742,0.65219
6197.05867,0.65137
6195.12993,0.65023
6193.20118,0.65042
6191.27244,0.65157
6189.34369,0.65332
6187.41495,0.65477
6185.48620,0.65544
6183.55746,0.65606
6181.62871,0.65706
6179.69996,0.65804
6177.77122,0.65846
6175.84247,0.65827
6173.91373,0.65790
6171.98498,0.65697
6170.05624,0.65570
6168.12749,0.65560
6166.19875,0.65651
6164.27000,0.65706
6162.34126,0.65698
6160.41251,0.65719
6158.48377,0.65872
6156.55502,0.66108
6154.62628,0.66245
6152.69753,0.66171
6150.76878,0.65958
6148.84004,0.65836
6146.91129,0.65924
6144.98255,0.66090
6143.05380,0.66156
6141.12506,0.66069
6139.19631,0.65984
6137.26757,0.66086
6135.33882,0.66215
6133.41008,0.66131
6131.48133,0.66011
6129.55259,0.66037
6127.62384,0.66118
6125.69510,0.66219
6123.76635,0.66349
6121.83761,0.66453
6119.90886,0.66458
6117.98011,0.66397
6116.05137,0.66309
6114.12262,0.66231
6112.19388,0.66348
6110.26513,0.66618
6108.33639,0.66749
6106.40764,0.66709
6104.47890,0.66656
6102.55015,0.66638
6100.62141,0.66591
6098.69266,0.66558
6096.76392,0.66623
6094.83517,0.66746
6092.90643,0.66864
6090.97768,0.66914
6089.04893,0.66856
6087.12019,0.66734
6085.19144,0.66684
6083.26270,0.66734
6081.33395,0.66698
6079.40521,0.66537
6077.47646,0.66433
6075.54772,0.66535
6073.61897,0.66710
6071.69023,0.66719
6069.76148,0.66705
6067.83274,0.66815
6065.90399,0.66854
6063.97525,0.66800
6062.04650,0.66792
6060.11776,0.66743
6058.18901,0.66563
6056.26026,0.66383
6054.33152,0.66289
6052.40277,0.66263
6050.47403,0.66307
6048.54528,0.66356
6046.61654,0.66339
6044.68779,0.66276
6042.75905,0.66144
6040.83030,0.65897
6038.90156,0.65700
6036.97281,0.65707
6035.04407,0.65808
6033.11532,0.65905
6031.18658,0.65954
6029.25783,0.65895
6027.32909,0.65803
6025.40034,0.65781
6023.47159,0.65785
6021.54285,0.65720
6019.61410,0.65629
6017.68536,0.65548
6015.75661,0.65424
6013.82787,0.65352
6011.89912,0.65380
6009.97038,0.65332
6008.04163,0.65175
6006.11289,0.65028
6004.18414,0.64934
6002.25540,0.64873
6000.32665,0.64756
5998.39791,0.64684
5996.46916,0.64830
5994.54041,0.64965
5992.61167,0.64866
5990.68292,0.64699
5988.75418,0.64658
5986.82543,0.64693
5984.89669,0.64654
5982.96794,0.64539
5981.03920,0.64468
5979.11045,0.64494
5977.18171,0.64562
5975.25296,0.64582
5973.32422,0.64583
5971.39547,0.64702
5969.46673,0.64916
5967.53798,0.65008
5965.60924,0.64884
5963.68049,0.64726
5961.75174,0.64717
5959.82300,0.64752
5957.89425,0.64719
5955.96551,0.64718
5954.03676,0.64774
5952.10802,0.64822
5950.17927,0.64799
5948.25053,0.64716
5946.32178,0.64683
5944.39304,0.64640
5942.46429,0.64562
5940.53555,0.64604
5938.60680,0.64681
5936.67806,0.64677
5934.74931,0.64691
5932.82057,0.64722
5930.89182,0.64725
5928.96307,0.64765
5927.03433,0.64807
5925.10558,0.64752
5923.17684,0.64658
5921.24809,0.64621
5919.31935,0.64591
5917.39060,0.64559
5915.46186,0.64602
5913.53311,0.64672
5911.60437,0.64658
5909.67562,0.64581
5907.74688,0.64536
5905.81813,0.64509
5903.88939,0.64409
5901.96064,0.64260
5900.03189,0.64183
5898.10315,0.64203
5896.17440,0.64268
5894.24566,0.64375
5892.31691,0.64436
5890.38817,0.64404
5888.45942,0.64356
5886.53068,0.64249
5884.60193,0.64101
5882.67319,0.64009
5880.74444,0.63964
5878.81570,0.63961
5876.88695,0.63956
5874.95821,0.63921
5873.02946,0.63950
5871.10072,0.64083
5869.17197,0.64224
5867.24322,0.64253
5865.31448,0.64190
5863.38573,0.64148
5861.45699,0.64089
5859.52824,0.63984
5857.59950,0.63963
5855.67075,0.64030
5853.74201,0.64072
5851.81326,0.64078
5849.88452,0.64051
5847.95577,0.63946
5846.02703,0.63788
5844.09828,0.63716
5842.16954,0.63792
5840.24079,0.63925
5838.31205,0.64089
5836.38330,0.64255
5834.45455,0.64215
5832.52581,0.63918
5830.59706,0.63691
5828.66832,0.63729
5826.73957,0.63853
5824.81083,0.63871
5822.88208,0.63802
5820.95334,0.63741
5819.02459,0.63674
5817.09585,0.63559
5815.16710,0.63500
5813.23836,0.63539
5811.30961,0.63517
5809.38087,0.63396
5807.45212,0.63324
5805.52337,0.63305
5803.59463,0.63321
5801.66588,0.63419
5799.73714,0.63501
5797.80839,0.63498
5795.87965,0.63428
5793.95090,0.63259
5792.02216,0.63084
5790.09341,0.63086
5788.16467,0.63233
5786.23592,0.63364
5784.30718,0.63426
5782.37843,0.63471
5780.44969,0.63527
5778.52094,0.63563
5776.59220,0.63584
5774.66345,0.63598
5772.73470,0.63524
5770.80596,0.63365
5768.87721,0.63289
5766.94847,0.63386
5765.01972,0.63578
5763.09098,0.63731
5761.16223,0.63737
5759.23349,0.63707
5757.30474,0.63766
5755.37600,0.63774
5753.44725,0.63670
5751.51851,0.63620
5749.58976,0.63673
5747.66102,0.63710
5745.73227,0.63701
5743.80352,0.63747
5741.87478,0.63815
5739.94603,0.63804
5738.01729,0.63784
5736.08854,0.63783
5734.15980,0.63737
5732.23105,0.63698
5730.30231,0.63709
5728.37356,0.63740
5726.44482,0.63783
5724.51607,0.63755
5722.58733,0.63640
5720.65858,0.63622
5718.72984,0.63738
5716.80109,0.63786
5714.87235,0.63708
5712.94360,0.63628
5711.01485,0.63595
5709.08611,0.63606
5707.15736,0.63652
5705.22862,0.63690
5703.29987,0.63721
5701.37113,0.63774
5699.44238,0.63816
5697.51364,0.63806
5695.58489,0.63783
5693.65615,0.63793
5691.72740,0.63796
5689.79866,0.63736
5687.86991,0.63605
5685.94117,0.63435
5684.01242,0.63340
5682.08368,0.63437
5680.15493,0.63638
5678.22618,0.63737
5676.29744,0.63692
5674.36869,0.63597
5672.43995,0.63549
5670.51120,0.63603
5668.58246,0.63644
5666.65371,0.63589
5664.72497,0.63592
5662.79622,0.63706
5660.86748,0.63765
5658.93873,0.63680
5657.00999,0.63549
5655.08124,0.63498
5653.15250,0.63543
5651.22375,0.63626
5649.29500,0.63661
5647.36626,0.63631
5645.43751,0.63619
5643.50877,0.63612
5641.58002,0.63566
5639.65128,0.63581
5637.72253,0.63655
5635.79379,0.63640
5633.86504,0.63531
5631.93630,0.63466
5630.00755,0.63497
5628.07881,0.63520
5626.15006,0.63484
5624.22132,0.63445
5622.29257,0.63408
5620.36383,0.63379
5618.43508,0.63384
5616.50633,0.63389
5614.57759,0.63347
5612.64884,0.63296
5610.72010,0.63320
5608.79135,0.63411
5606.86261,0.63481
5604.93386,0.63491
5603.00512,0.63485
5601.07637,0.63495
5599.14763,0.63491
5597.21888,0.63485
5595.29014,0.63524
5593.36139,0.63561
5591.43265,0.63525
5589.50390,0.63484
5587.57516,0.63508
5585.64641,0.63533
5583.71766,0.63549
5581.78892,0.63598
5579.86017,0.63646
5577.93143,0.63658
5576.00268,0.63616
5574.07394,0.63597
5572.14519,0.63703
5570.21645,0.63802
5568.28770,0.63731
5566.35896,0.63602
5564.43021,0.63624
5562.50147,0.63777
5560.57272,0.63904
5558.64398,0.63986
5556.71523,0.64025
5554.78648,0.63972
5552.85774,0.63934
5550.92899,0.64003
5549.00025,0.64055
5547.07150,0.64029
5545.14276,0.63983
5543.21401,0.63934
5541.28527,0.63928
5539.35652,0.63994
5537.42778,0.64043
5535.49903,0.64038
5533.57029,0.64079
5531.64154,0.64186
5529.71280,0.64238
5527.78405,0.64183
5525.85531,0.64067
5523.92656,0.63946
5521.99781,0.63900
5520.06907,0.63972
5518.14032,0.64132
5516.21158,0.64283
5514.28283,0.64248
5512.35409,0.64033
5510.42534,0.63927
5508.49660,0.64046
5506.56785,0.64194
5504.63911,0.64242
5502.71036,0.64208
5500.78162,0.64165
5498.85287,0.64230
5496.92413,0.64366
5494.99538,0.64420
5493.06664,0.64407
5491.13789,0.64461
5489.20914,0.64553
5487.28040,0.64547
5485.35165,0.64469
5483.42291,0.64424
5481.49416,0.64416
5479.56542,0.64440
5477.63667,0.64491
5475.70793,0.64503
5473.77918,0.64468
5471.85044,0.64418
5469.92169,0.64326
5467.99295,0.64257
5466.06420,0.64252
5464.13546,0.64234
5462.20671,0.64260
5460.27796,0.64392
5458.34922,0.64520
5456.42047,0.64540
5454.49173,0.64532
5452.56298,0.64601
5450.63424,0.64670
5448.70549,0.64675
5446.77675,0.64691
5444.84800,0.64754
5442.91926,0.64838
5440.99051,0.64930
5439.06177,0.65004
5437.13302,0.65053
5435.20428,0.65127
5433.27553,0.65219
5431.34679,0.65275
5429.41804,0.65334
5427.48929,0.65401
5425.56055,0.65391
5423.63180,0.65341
5421.70306,0.65372
5419.77431,0.65447
5417.84557,0.65449
5415.91682,0.65431
5413.98808,0.65466
5412.05933,0.65498
5410.13059,0.65501
5408.20184,0.65514
5406.27310,0.65561
5404.34435,0.65635
5402.41561,0.65716
5400.48686,0.65773
5398.55811,0.65769
5396.62937,0.65706
5394.70062,0.65607
5392.77188,0.65560
5390.84313,0.65651
5388.91439,0.65765
5386.98564,0.65779
5385.05690,0.65759
5383.12815,0.65738
5381.19941,0.65695
5379.27066,0.65666
5377.34192,0.65659
5375.41317,0.65663
5373.48443,0.65659
5371.55568,0.65611
5369.62694,0.65533
5367.69819,0.65485
5365.76944,0.65495
5363.84070,0.65512
5361.91195,0.65493
5359.98321,0.65493
5358.05446,0.65559
5356.12572,0.65634
5354.19697,0.65639
5352.26823,0.65575
5350.33948,0.65494
5348.41074,0.65427
5346.48199,0.65353
5344.55325,0.65271
5342.62450,0.65233
5340.69576,0.65222
5338.76701,0.65160
5336.83827,0.65076
5334.90952,0.65060
5332.98077,0.65051
5331.05203,0.64974
5329.12328,0.64877
5327.19454,0.64811
5325.26579,0.64775
5323.33705,0.64732
5321.40830,0.64607
5319.47956,0.64368
5317.55081,0.64099
5315.62207,0.63924
5313.69332,0.63844
5311.76458,0.63737
5309.83583,0.63545
5307.90709,0.63326
5305.97834,0.63140
5304.04959,0.62956
5302.12085,0.62745
5300.19210,0.62541
5298.26336,0.62320
5296.33461,0.62032
5294.40587,0.61780
5292.47712,0.61578
5290.54838,0.61248
5288.61963,0.60828
5286.69089,0.60510
5284.76214,0.60234
5282.83340,0.59869
5280.90465,0.59476
5278.97591,0.59150
5277.04716,0.58857
5275.11842,0.58525
5273.18967,0.58137
5271.26092,0.57706
5269.33218,0.57250
5267.40343,0.56816
5265.47469,0.56428
5263.54594,0.56077
5261.61720,0.55745
5259.68845,0.55336
5257.75971,0.54879
5255.83096,0.54548
5253.90222,0.54306
5251.97347,0.53995
5250.04473,0.53624
5248.11598,0.53247
5246.18724,0.52894
5244.25849,0.52601
5242.32975,0.52327
5240.40100,0.52019
5238.47225,0.51735
5236.54351,0.51544
5234.61476,0.51368
5232.68602,0.51098
5230.75727,0.50801
5228.82853,0.50584
5226.89978,0.50405
5224.97104,0.50224
5223.04229,0.50112
5221.11355,0.50049
5219.18480,0.49935
5217.25606,0.49792
5215.32731,0.49667
5213.39857,0.49556
5211.46982,0.49459
5209.54107,0.49365
5207.61233,0.49306
5205.68358,0.49296
5203.75484,0.49270
5201.82609,0.49226
5199.89735,0.49207
5197.96860,0.49192
5196.03986,0.49152
5194.11111,0.49116
5192.18237,0.49108
5190.25362,0.49131
5188.32488,0.49169
5186.39613,0.49194
5184.46739,0.49203
5182.53864,0.49244
5180.60990,0.49355
5178.68115,0.49437
5176.75240,0.49403
5174.82366,0.49365
5172.89491,0.49444
5170.96617,0.49581
5169.03742,0.49684
5167.10868,0.49738
5165.17993,0.49794
5163.25119,0.49881
5161.32244,0.49974
5159.39370,0.50064
5157.46495,0.50165
5155.53621,0.50304
5153.60746,0.50472
5151.67872,0.50597
5149.74997,0.50661
5147.82123,0.50705
5145.89248,0.50773
5143.96373,0.50888
5142.03499,0.51003
5140.10624,0.51102
5138.17750,0.51204
5136.24875,0.51280
5134.32001,0.51362
5132.39126,0.51491
5130.46252,0.51612
5128.53377,0.51723
5126.60503,0.51878
5124.67628,0.52040
5122.74754,0.52152
5120.81879,0.52240
5118.89005,0.52344
5116.96130,0.52453
5115.03255,0.52553
5113.10381,0.52647
5111.17506,0.52728
5109.24632,0.52805
5107.31757,0.52916
5105.38883,0.53063
5103.46008,0.53201
5101.53134,0.53338
5099.60259,0.53510
5097.67385,0.53662
5095.74510,0.53749
5093.81636,0.53807
5091.88761,0.53846
5089.95887,0.53862
5088.03012,0.53906
5086.10138,0.53999
5084.17263,0.54116
5082.24388,0.54211
5080.31514,0.54260
5078.38639,0.54304
5076.45765,0.54372
5074.52890,0.54473
5072.60016,0.54603
5070.67141,0.54696
5068.74267,0.54760
5066.81392,0.54853
5064.88518,0.54987
5062.95643,0.55137
5061.02769,0.55233
5059.09894,0.55259
5057.17020,0.55303
5055.24145,0.55427
5053.31270,0.55552
5051.38396,0.55621
5049.45521,0.55689
5047.52647,0.55766
5045.59772,0.55810
5043.66898,0.55844
5041.74023,0.55895
5039.81149,0.55965
5037.88274,0.56068
5035.95400,0.56191
5034.02525,0.56255
5032.09651,0.56215
5030.16776,0.56182
5028.23902,0.56257
5026.31027,0.56362
5024.38153,0.56408
5022.45278,0.56420
5020.52403,0.56447
5018.59529,0.56513
5016.66654,0.56597
5014.73780,0.56663
5012.80905,0.56719
5010.88031,0.56780
5008.95156,0.56858
5007.02282,0.56913
5005.09407,0.56897
5003.16533,0.56859
5001.23658,0.56847
4999.30784,0.56827
4997.37909,0.56803
4995.45035,0.56809
4993.52160,0.56827
4991.59286,0.56791
4989.66411,0.56706
4987.73536,0.56679
4985.80662,0.56725
4983.87787,0.56766
4981.94913,0.56755
4980.02038,0.56653
4978.09164,0.56500
4976.16289,0.56380
4974.23415,0.56301
4972.30540,0.56218
4970.37666,0.56123
4968.44791,0.56052
4966.51917,0.56036
4964.59042,0.56020
4962.66168,0.55919
4960.73293,0.55766
4958.80418,0.55652
4956.87544,0.55541
4954.94669,0.55377
4953.01795,0.55199
4951.08920,0.55028
4949.16046,0.54886
4947.23171,0.54793
4945.30297,0.54681
4943.37422,0.54521
4941.44548,0.54352
4939.51673,0.54182
4937.58799,0.54023
4935.65924,0.53873
4933.73050,0.53731
4931.80175,0.53582
4929.87301,0.53400
4927.94426,0.53208
4926.01551,0.53046
4924.08677,0.52901
4922.15802,0.52734
4920.22928,0.52542
4918.30053,0.52360
4916.37179,0.52195
4914.44304,0.52012
4912.51430,0.51811
4910.58555,0.51638
4908.65681,0.51482
4906.72806,0.51312
4904.79932,0.51117
4902.87057,0.50897
4900.94183,0.50689
4899.01308,0.50537
4897.08434,0.50439
4895.15559,0.50328
4893.22684,0.50146
4891.29810,0.49940
4889.36935,0.49753
4887.44061,0.49571
4885.51186,0.49417
4883.58312,0.49287
4881.65437,0.49118
4879.72563,0.48904
4877.79688,0.48693
4875.86814,0.48540
4873.93939,0.48441
4872.01065,0.48334
4870.08190,0.48205
4868.15316,0.48039
4866.22441,0.47832
4864.29566,0.47652
4862.36692,0.47523
4860.43817,0.47421
4858.50943,0.47324
4856.58068,0.47227
4854.65194,0.47123
4852.72319,0.46995
4850.79445,0.46858
4848.86570,0.46737
4846.93696,0.46638
4845.00821,0.46516
4843.07947,0.46326
4841.15072,0.46161
4839.22198,0.46075
4837.29323,0.45985
4835.36449,0.45859
4833.43574,0.45727
4831.50699,0.45617
4829.57825,0.45530
4827.64950,0.45435
4825.72076,0.45357
4823.79201,0.45288
4821.86327,0.45154
4819.93452,0.45024
4818.00578,0.45014
4816.07703,0.45021
4814.14829,0.44937
4812.21954,0.44846
4810.29080,0.44792
4808.36205,0.44690
4806.43331,0.44517
4804.50456,0.44398
4802.57582,0.44383
4800.64707,0.44353
4798.71832,0.44288
4796.78958,0.44259
4794.86083,0.44215
4792.93209,0.44163
4791.00334,0.44175
4789.07460,0.44190
4787.14585,0.44149
4785.21711,0.44092
4783.28836,0.44052
4781.35962,0.44012
4779.43087,0.43941
4777.50213,0.43851
4775.57338,0.43776
4773.64464,0.43743
4771.71589,0.43722
4769.78714,0.43692
4767.85840,0.43693
4765.92965,0.43706
4764.00091,0.43683
4762.07216,0.43661
4760.14342,0.43677
4758.21467,0.43698
4756.28593,0.43701
4754.35718,0.43706
4752.42844,0.43707
4750.49969,0.43662
4748.57095,0.43562
4746.64220,0.43474
4744.71346,0.43464
4742.78471,0.43509
4740.85597,0.43563
4738.92722,0.43615
4736.99847,0.43655
4735.06973,0.43699
4733.14098,0.43754
4731.21224,0.43781
4729.28349,0.43787
4727.35475,0.43814
4725.42600,0.43822
4723.49726,0.43790
4721.56851,0.43814
4719.63977,0.43903
4717.71102,0.43952
4715.78228,0.43967
4713.85353,0.44016
4711.92479,0.44063
4709.99604,0.44033
4708.06729,0.43959
4706.13855,0.43929
4704.20980,0.43965
4702.28106,0.44032
4700.35231,0.44067
4698.42357,0.44051
4696.49482,0.44042
4694.56608,0.44078
4692.63733,0.44133
4690.70859,0.44168
4688.77984,0.44191
4686.85110,0.44238
4684.92235,0.44283
4682.99361,0.44296
4681.06486,0.44312
4679.13612,0.44359
4677.20737,0.44425
4675.27862,0.44486
4673.34988,0.44512
4671.42113,0.44533
4669.49239,0.44597
4667.56364,0.44678
4665.63490,0.44719
4663.70615,0.44738
4661.77741,0.44811
4659.84866,0.44943
4657.91992,0.45062
4655.99117,0.45112
4654.06243,0.45127
4652.13368,0.45175
4650.20494,0.45254
4648.27619,0.45343
4646.34745,0.45423
4644.41870,0.45497
4642.48995,0.45617
4640.56121,0.45741
4638.63246,0.45792
4636.70372,0.45808
4634.77497,0.45858
4632.84623,0.45939
4630.91748,0.46030
4628.98874,0.46140
4627.05999,0.46254
4625.13125,0.46342
4623.20250,0.46406
4621.27376,0.46469
4619.34501,0.46538
4617.41627,0.46606
4615.48752,0.46690
4613.55877,0.46807
4611.63003,0.46908
4609.70128,0.46967
4607.77254,0.47063
4605.84379,0.47223
4603.91505,0.47361
4601.98630,0.47454
4600.05756,0.47554
4598.12881,0.47661
4596.20007,0.47746
4594.27132,0.47792
4592.34258,0.47833
4590.41383,0.47909
4588.48509,0.47992
4586.55634,0.48061
4584.62760,0.48137
4582.69885,0.48234
4580.77010,0.48341
4578.84136,0.48419
4576.91261,0.48446
4574.98387,0.48465
4573.05512,0.48504
4571.12638,0.48529
4569.19763,0.48532
4567.26889,0.48564
4565.34014,0.48647
4563.41140,0.48740
4561.48265,0.48805
4559.55391,0.48842
4557.62516,0.48874
4555.69642,0.48915
4553.76767,0.48951
4551.83893,0.49004
4549.91018,0.49073
4547.98143,0.49089
4546.05269,0.49058
4544.12394,0.49060
4542.19520,0.49118
4540.26645,0.49188
4538.33771,0.49217
4536.40896,0.49230
4534.48022,0.49267
4532.55147,0.49307
4530.62273,0.49355
4528.69398,0.49412
4526.76524,0.49424
4524.83649,0.49397
4522.90775,0.49384
4520.97900,0.49394
4519.05025,0.49416
4517.12151,0.49437
4515.19276,0.49440
4513.26402,0.49421
4511.33527,0.49385
4509.40653,0.49354
4507.47778,0.49327
4505.54904,0.49276
4503.62029,0.49216
4501.69155,0.49165
4499.76280,0.49107
4497.83406,0.49060
4495.90531,0.49027
4493.97657,0.48946
4492.04782,0.48810
4490.11908,0.48689
4488.19033,0.48604
4486.26158,0.48500
4484.33284,0.48349
4482.40409,0.48192
4480.47535,0.48058
4478.54660,0.47909
4476.61786,0.47711
4474.68911,0.47506
4472.76037,0.47332
4470.83162,0.47160
4468.90288,0.46948
4466.97413,0.46676
4465.04539,0.46372
4463.11664,0.46119
4461.18790,0.45956
4459.25915,0.45796
4457.33041,0.45568
4455.40166,0.45336
4453.47291,0.45139
4451.54417,0.44944
4449.61542,0.44762
4447.68668,0.44590
4445.75793,0.44373
4443.82919,0.44119
4441.90044,0.43867
4439.97170,0.43632
4438.04295,0.43399
4436.11421,0.43145
4434.18546,0.42896
4432.25672,0.42664
4430.32797,0.42412
4428.39923,0.42161
4426.47048,0.41940
4424.54173,0.41712
4422.61299,0.41471
4420.68424,0.41250
4418.75550,0.41046
4416.82675,0.40845
4414.89801,0.40668
4412.96926,0.40504
4411.04052,0.40323
4409.11177,0.40149
4407.18303,0.40014
4405.25428,0.39917
4403.32554,0.39855
4401.39679,0.39802
4399.46805,0.39760
4397.53930,0.39763
4395.61056,0.39777
4393.68181,0.39783
4391.75306,0.39825
4389.82432,0.39872
4387.89557,0.39888
4385.96683,0.39934
4384.03808,0.40016
4382.10934,0.40065
4380.18059,0.40078
4378.25185,0.40116
4376.32310,0.40225
4374.39436,0.40354
4372.46561,0.40426
4370.53687,0.40482
4368.60812,0.40552
4366.67938,0.40574
4364.75063,0.40568
4362.82189,0.40610
4360.89314,0.40691
4358.96439,0.40775
4357.03565,0.40844
4355.10690,0.40856
4353.17816,0.40808
4351.24941,0.40766
4349.32067,0.40760
4347.39192,0.40740
4345.46318,0.40681
4343.53443,0.40615
4341.60569,0.40562
4339.67694,0.40526
4337.74820,0.40497
4335.81945,0.40461
4333.89071,0.40419
4331.96196,0.40376
4330.03321,0.40337
4328.10447,0.40285
4326.17572,0.40207
4324.24698,0.40130
4322.31823,0.40057
4320.38949,0.39970
4318.46074,0.39889
4316.53200,0.39814
4314.60325,0.39717
4312.67451,0.39616
4310.74576,0.39534
4308.81702,0.39457
4306.88827,0.39382
4304.95953,0.39322
4303.03078,0.39264
4301.10204,0.39191
4299.17329,0.39134
4297.24454,0.39106
4295.31580,0.39045
4293.38705,0.38926
4291.45831,0.38818
4289.52956,0.38760
4287.60082,0.38712
4285.67207,0.38644
4283.74333,0.38585
4281.81458,0.38585
4279.88584,0.38622
4277.95709,0.38635
4276.02835,0.38633
4274.09960,0.38648
4272.17086,0.38663
4270.24211,0.38663
4268.31336,0.38686
4266.38462,0.38755
4264.45587,0.38824
4262.52713,0.38868
4260.59838,0.38892
4258.66964,0.38904
4256.74089,0.38933
4254.81215,0.39006
4252.88340,0.39089
4250.95466,0.39138
4249.02591,0.39175
4247.09717,0.39211
4245.16842,0.39233
4243.23968,0.39243
4241.31093,0.39239
4239.38219,0.39246
4237.45344,0.39288
4235.52469,0.39323
4233.59595,0.39320
4231.66720,0.39305
4229.73846,0.39295
4227.80971,0.39290
4225.88097,0.39298
4223.95222,0.39318
4222.02348,0.39338
4220.09473,0.39332
4218.16599,0.39288
4216.23724,0.39257
4214.30850,0.39288
4212.37975,0.39341
4210.45101,0.39364
4208.52226,0.39369
4206.59352,0.39384
4204.66477,0.39394
4202.73602,0.39378
4200.80728,0.39351
4198.87853,0.39339
4196.94979,0.39370
4195.02104,0.39438
4193.09230,0.39482
4191.16355,0.39498
4189.23481,0.39524
4187.30606,0.39542
4185.37732,0.39544
4183.44857,0.39559
4181.51983,0.39596
4179.59108,0.39661
4177.66234,0.39738
4175.73359,0.39778
4173.80484,0.39778
4171.87610,0.39798
4169.94735,0.39859
4168.01861,0.39904
4166.08986,0.39913
4164.16112,0.39921
4162.23237,0.39922
4160.30363,0.39908
4158.37488,0.39898
4156.44614,0.39902
4154.51739,0.39907
4152.58865,0.39885
4150.65990,0.39832
4148.73116,0.39774
4146.80241,0.39707
4144.87367,0.39614
4142.94492,0.39524
4141.01617,0.39475
4139.08743,0.39435
4137.15868,0.39349
4135.22994,0.39228
4133.30119,0.39131
4131.37245,0.39059
4129.44370,0.38971
4127.51496,0.38841
4125.58621,0.38695
4123.65747,0.38562
4121.72872,0.38428
4119.79998,0.38281
4117.87123,0.38132
4115.94249,0.37976
4114.01374,0.37805
4112.08500,0.37634
4110.15625,0.37489
4108.22750,0.37377
4106.29876,0.37283
4104.37001,0.37178
4102.44127,0.37016
4100.51252,0.36810
4098.58378,0.36623
4096.65503,0.36464
4094.72629,0.36312
4092.79754,0.36137
4090.86880,0.35922
4088.94005,0.35703
4087.01131,0.35510
4085.08256,0.35349
4083.15382,0.35202
4081.22507,0.35033
4079.29632,0.34847
4077.36758,0.34669
4075.43883,0.34494
4073.51009,0.34306
4071.58134,0.34125
4069.65260,0.33948
4067.72385,0.33747
4065.79511,0.33548
4063.86636,0.33376
4061.93762,0.33199
4060.00887,0.33008
4058.08013,0.32822
4056.15138,0.32656
4054.22264,0.32502
4052.29389,0.32331
4050.36515,0.32150
4048.43640,0.31989
4046.50765,0.31847
4044.57891,0.31700
4042.65016,0.31552
4040.72142,0.31423
4038.79267,0.31315
4036.86393,0.31225
4034.93518,0.31141
4033.00644,0.31051
4031.07769,0.30964
4029.14895,0.30889
4027.22020,0.30812
4025.29146,0.30724
4023.36271,0.30647
4021.43397,0.30578
4019.50522,0.30501
4017.57648,0.30424
4015.64773,0.30378
4013.71898,0.30372
4011.79024,0.30371
4009.86149,0.30371
4007.93275,0.30400
4006.00400,0.30434
4004.07526,0.30456
4002.14651,0.30494
4000.21777,0.30546
3998.28902,0.30590
3996.36028,0.30627
3994.43153,0.30670
3992.50279,0.30719
3990.57404,0.30759
3988.64530,0.30791
3986.71655,0.30835
3984.78780,0.30872
3982.85906,0.30898
3980.93031,0.30933
3979.00157,0.30971
3977.07282,0.31009
3975.14408,0.31051
3973.21533,0.31105
3971.28659,0.31166
3969.35784,0.31221
3967.42910,0.31291
3965.50035,0.31392
3963.57161,0.31498
3961.64286,0.31593
3959.71412,0.31682
3957.78537,0.31777
3955.85663,0.31872
3953.92788,0.31939
3951.99913,0.31972
3950.07039,0.32011
3948.14164,0.32084
3946.21290,0.32174
3944.28415,0.32259
3942.35541,0.32354
3940.42666,0.32468
3938.49792,0.32584
3936.56917,0.32702
3934.64043,0.32833
3932.71168,0.32946
3930.78294,0.33018
3928.85419,0.33086
3926.92545,0.33187
3924.99670,0.33297
3923.06795,0.33381
3921.13921,0.33453
3919.21046,0.33536
3917.28172,0.33634
3915.35297,0.33724
3913.42423,0.33791
3911.49548,0.33854
3909.56674,0.33927
3907.63799,0.34007
3905.70925,0.34091
3903.78050,0.34163
3901.85176,0.34230
3899.92301,0.34302
3897.99427,0.34369
3896.06552,0.34448
3894.13678,0.34556
3892.20803,0.34675
3890.27928,0.34765
3888.35054,0.34829
3886.42179,0.34899
3884.49305,0.34968
3882.56430,0.35007
3880.63556,0.35025
3878.70681,0.35079
3876.77807,0.35170
3874.84932,0.35251
3872.92058,0.35307
3870.99183,0.35358
3869.06309,0.35441
3867.13434,0.35562
3865.20560,0.35679
3863.27685,0.35754
3861.34811,0.35805
3859.41936,0.35873
3857.49061,0.35953
3855.56187,0.36047
3853.63312,0.36196
3851.70438,0.36343
3849.77563,0.36417
3847.84689,0.36467
3845.91814,0.36528
3843.98940,0.36595
3842.06065,0.36661
3840.13191,0.36716
3838.20316,0.36761
3836.27442,0.36813
3834.34567,0.36871
3832.41693,0.36918
3830.48818,0.36950
3828.55943,0.36980
3826.63069,0.37004
3824.70194,0.37022
3822.77320,0.37037
3820.84445,0.37012
3818.91571,0.36951
3816.98696,0.36890
3815.05822,0.36853
3813.12947,0.36858
3811.20073,0.36889
3809.27198,0.36924
3807.34324,0.36954
3805.41449,0.36974
3803.48575,0.36991
3801.55700,0.36997
3799.62826,0.36955
3797.69951,0.36887
3795.77076,0.36845
3793.84202,0.36843
3791.91327,0.36843
3789.98453,0.36828
3788.05578,0.36820
3786.12704,0.36819
3784.19829,0.36799
3782.26955,0.36771
3780.34080,0.36738
3778.41206,0.36676
3776.48331,0.36602
3774.55457,0.36558
3772.62582,0.36539
3770.69708,0.36500
3768.76833,0.36434
3766.83959,0.36375
3764.91084,0.36311
3762.98209,0.36249
3761.05335,0.36227
3759.12460,0.36194
3757.19586,0.36092
3755.26711,0.35970
3753.33837,0.35873
3751.40962,0.35790
3749.48088,0.35715
3747.55213,0.35651
3745.62339,0.35554
3743.69464,0.35415
3741.76590,0.35304
3739.83715,0.35218
3737.90841,0.35098
3735.97966,0.34934
3734.05091,0.34789
3732.12217,0.34660
3730.19342,0.34510
3728.26468,0.34345
3726.33593,0.34176
3724.40719,0.34002
3722.47844,0.33819
3720.54970,0.33632
3718.62095,0.33437
3716.69221,0.33234
3714.76346,0.33026
3712.83472,0.32768
3710.90597,0.32443
3708.97723,0.32120
3707.04848,0.31822
3705.11974,0.31540
3703.19099,0.31233
3701.26224,0.30852
3699.33350,0.30469
3697.40475,0.30134
3695.47601,0.29787
3693.54726,0.29408
3691.61852,0.29002
3689.68977,0.28499
3687.76103,0.27855
3685.83228,0.27214
3683.90354,0.26668
3681.97479,0.26153
3680.04605,0.25607
3678.11730,0.25010
3676.18856,0.24297
3674.25981,0.23532
3672.33107,0.22889
3670.40232,0.22199
3668.47357,0.21412
3666.54483,0.20731
3664.61608,0.20128
3662.68734,0.19545
3660.75859,0.19006
3658.82985,0.18471
3656.90110,0.17851
3654.97236,0.17256
3653.04361,0.16835
3651.11487,0.16434
3649.18612,0.15881
3647.25738,0.15297
3645.32863,0.14835
3643.39989,0.14448
3641.47114,0.14056
3639.54239,0.13662
3637.61365,0.13296
3635.68490,0.12942
3633.75616,0.12605
3631.82741,0.12322
3629.89867,0.12051
3627.96992,0.11726
3626.04118,0.11414
3624.11243,0.11154
3622.18369,0.10923
3620.25494,0.10696
3618.32620,0.10464
3616.39745,0.10241
3614.46871,0.10001
3612.53996,0.09755
3610.61122,0.09544
3608.68247,0.09329
3606.75372,0.09108
3604.82498,0.08936
3602.89623,0.08793
3600.96749,0.08631
3599.03874,0.08440
3597.11000,0.08241
3595.18125,0.08072
3593.25251,0.07938
3591.32376,0.07800
3589.39502,0.07643
3587.46627,0.07487
3585.53753,0.07348
3583.60878,0.07218
3581.68004,0.07098
3579.75129,0.06989
3577.82254,0.06881
3575.89380,0.06755
3573.96505,0.06632
3572.03631,0.06540
3570.10756,0.06468
3568.17882,0.06376
3566.25007,0.06259
3564.32133,0.06158
3562.39258,0.06084
3560.46384,0.06025
3558.53509,0.05966
3556.60635,0.05902
3554.67760,0.05826
3552.74886,0.05723
3550.82011,0.05645
3548.89137,0.05634
3546.96262,0.05622
3545.03387,0.05539
3543.10513,0.05421
3541.17638,0.05344
3539.24764,0.05316
3537.31889,0.05295
3535.39015,0.05245
3533.46140,0.05172
3531.53266,0.05127
3529.60391,0.05123
3527.67517,0.05093
3525.74642,0.05006
3523.81768,0.04926
3521.88893,0.04899
3519.96019,0.04907
3518.03144,0.04903
3516.10270,0.04857
3514.17395,0.04797
3512.24520,0.04745
3510.31646,0.04681
3508.38771,0.04632
3506.45897,0.04629
3504.53022,0.04645
3502.60148,0.04634
3500.67273,0.04593
3498.74399,0.04547
3496.81524,0.04528
3494.88650,0.04530
3492.95775,0.04513
3491.02901,0.04458
3489.10026,0.04390
3487.17152,0.04349
3485.24277,0.04340
3483.31402,0.04340
3481.38528,0.04328
3479.45653,0.04312
3477.52779,0.04292
3475.59904,0.04239
3473.67030,0.04169
3471.74155,0.04138
3469.81281,0.04145
3467.88406,0.04143
3465.95532,0.04136
3464.02657,0.04155
3462.09783,0.04166
3460.16908,0.04142
3458.24034,0.04127
3456.31159,0.04148
3454.38285,0.04170
3452.45410,0.04165
3450.52535,0.04156
3448.59661,0.04170
3446.66786,0.04182
3444.73912,0.04163
3442.81037,0.04120
3440.88163,0.04077
3438.95288,0.04062
3437.02414,0.04080
3435.09539,0.04095
3433.16665,0.04100
3431.23790,0.04101
3429.30916,0.04083
3427.38041,0.04063
3425.45167,0.04059
3423.52292,0.04055
3421.59418,0.04049
3419.66543,0.04053
3417.73668,0.04053
3415.80794,0.04045
3413.87919,0.04053
3411.95045,0.04076
3410.02170,0.04099
3408.09296,0.04117
3406.16421,0.04111
3404.23547,0.04097
3402.30672,0.04102
3400.37798,0.04093
3398.44923,0.04066
3396.52049,0.04048
3394.59174,0.04034
3392.66300,0.04041
3390.73425,0.04078
3388.80550,0.04097
3386.87676,0.04084
3384.94801,0.04077
3383.01927,0.04092
3381.09052,0.04112
3379.16178,0.04131
3377.23303,0.04148
3375.30429,0.04154
3373.37554,0.04144
3371.44680,0.04119
3369.51805,0.04110
3367.58931,0.04147
3365.66056,0.04189
3363.73182,0.04200
3361.80307,0.04209
3359.87433,0.04212
3357.94558,0.04197
3356.01683,0.04199
3354.08809,0.04211
3352.15934,0.04208
3350.23060,0.04208
3348.30185,0.04227
3346.37311,0.04258
3344.44436,0.04286
3342.51562,0.04301
3340.58687,0.04320
3338.65813,0.04349
3336.72938,0.04377
3334.80064,0.04406
3332.87189,0.04436
3330.94315,0.04457
3329.01440,0.04469
3327.08566,0.04506
3325.15691,0.04551
3323.22816,0.04549
3321.29942,0.04521
3319.37067,0.04527
3317.44193,0.04556
3315.51318,0.04563
3313.58444,0.04577
3311.65569,0.04630
3309.72695,0.04665
3307.79820,0.04641
3305.86946,0.04608
3303.94071,0.04619
3302.01197,0.04657
3300.08322,0.04682
3298.15448,0.04703
3296.22573,0.04732
3294.29698,0.04741
3292.36824,0.04716
3290.43949,0.04708
3288.51075,0.04731
3286.58200,0.04754
3284.65326,0.04789
3282.72451,0.04850
3280.79577,0.04895
3278.86702,0.04919
3276.93828,0.04949
3275.00953,0.04977
3273.08079,0.05015
3271.15204,0.05094
3269.22330,0.05180
3267.29455,0.05213
3265.36581,0.05198
3263.43706,0.05188
3261.50831,0.05210
3259.57957,0.05266
3257.65082,0.05335
3255.72208,0.05371
3253.79333,0.05372
3251.86459,0.05381
3249.93584,0.05409
3248.00710,0.05436
3246.07835,0.05459
3244.14961,0.05501
3242.22086,0.05558
3240.29212,0.05584
3238.36337,0.05593
3236.43463,0.05638
3234.50588,0.05702
3232.57713,0.05751
3230.64839,0.05783
3228.71964,0.05794
3226.79090,0.05808
3224.86215,0.05851
3222.93341,0.05894
3221.00466,0.05908
3219.07592,0.05928
3217.14717,0.05976
3215.21843,0.06047
3213.28968,0.06138
3211.36094,0.06219
3209.43219,0.06250
3207.50345,0.06243
3205.57470,0.06264
3203.64596,0.06338
3201.71721,0.06419
3199.78846,0.06468
3197.85972,0.06489
3195.93097,0.06502
3194.00223,0.06525
3192.07348,0.06561
3190.14474,0.06612
3188.21599,0.06675
3186.28725,0.06740
3184.35850,0.06790
3182.42976,0.06828
3180.50101,0.06861
3178.57227,0.06903
3176.64352,0.06967
3174.71478,0.07035
3172.78603,0.07091
3170.85729,0.07146
3168.92854,0.07208
3166.99979,0.07271
3165.07105,0.07328
3163.14230,0.07370
3161.21356,0.07394
3159.28481,0.07422
3157.35607,0.07480
3155.42732,0.07559
3153.49858,0.07627
3151.56983,0.07682
3149.64109,0.07742
3147.71234,0.07793
3145.78360,0.07832
3143.85485,0.07862
3141.92611,0.07882
3139.99736,0.07925
3138.06861,0.08014
3136.13987,0.08110
3134.21112,0.08183
3132.28238,0.08240
3130.35363,0.08276
3128.42489,0.08300
3126.49614,0.08344
3124.56740,0.08423
3122.63865,0.08511
3120.70991,0.08561
3118.78116,0.08579
3116.85242,0.08600
3114.92367,0.08635
3112.99493,0.08682
3111.06618,0.08730
3109.13744,0.08774
3107.20869,0.08818
3105.27994,0.08863
3103.35120,0.08904
3101.42245,0.08955
3099.49371,0.09036
3097.56496,0.09121
3095.63622,0.09166
3093.70747,0.09178
3091.77873,0.09191
3089.84998,0.09217
3087.92124,0.09253
3085.99249,0.09300
3084.06375,0.09368
3082.13500,0.09445
3080.20626,0.09492
3078.27751,0.09518
3076.34877,0.09559
3074.42002,0.09618
3072.49127,0.09673
3070.56253,0.09701
3068.63378,0.09720
3066.70504,0.09750
3064.77629,0.09785
3062.84755,0.09828
3060.91880,0.09897
3058.99006,0.09974
3057.06131,0.10041
3055.13257,0.10093
3053.20382,0.10129
3051.27508,0.10171
3049.34633,0.10236
3047.41759,0.10304
3045.48884,0.10344
3043.56009,0.10361
3041.63135,0.10377
3039.70260,0.10391
3037.77386,0.10409
3035.84511,0.10446
3033.91637,0.10479
3031.98762,0.10491
3030.05888,0.10512
3028.13013,0.10553
3026.20139,0.10575
3024.27264,0.10560
3022.34390,0.10513
3020.41515,0.10452
3018.48641,0.10400
3016.55766,0.10368
3014.62892,0.10342
3012.70017,0.10312
3010.77142,0.10271
3008.84268,0.10217
3006.91393,0.10167
3004.98519,0.10119
3003.05644,0.10055
3001.12770,0.09978
2999.19895,0.09902
2997.27021,0.09846
2995.34146,0.09804
2993.41272,0.09742
2991.48397,0.09664
2989.55523,0.09586
2987.62648,0.09484
2985.69774,0.09345
2983.76899,0.09178
2981.84025,0.08996
2979.91150,0.08807
2977.98275,0.08613
2976.05401,0.08414
2974.12526,0.08215
2972.19652,0.08036
2970.26777,0.07890
2968.33903,0.07763
2966.41028,0.07643
2964.48154,0.07545
2962.55279,0.07466
2960.62405,0.07387
2958.69530,0.07314
2956.76656,0.07252
2954.83781,0.07174
2952.90907,0.07066
2950.98032,0.06955
2949.05157,0.06866
2947.12283,0.06786
2945.19408,0.06706
2943.26534,0.06636
2941.33659,0.06567
2939.40785,0.06502
2937.47910,0.06474
2935.55036,0.06476
2933.62161,0.06472
2931.69287,0.06451
2929.76412,0.06434
2927.83538,0.06449
2925.90663,0.06494
2923.97789,0.06527
2922.04914,0.06517
2920.12040,0.06481
2918.19165,0.06466
2916.26290,0.06477
2914.33416,0.06489
2912.40541,0.06505
2910.47667,0.06534
2908.54792,0.06553
2906.61918,0.06552
2904.69043,0.06550
2902.76169,0.06567
2900.83294,0.06602
2898.90420,0.06642
2896.97545,0.06675
2895.04671,0.06699
2893.11796,0.06731
2891.18922,0.06784
2889.26047,0.06845
2887.33172,0.06891
2885.40298,0.06918
2883.47423,0.06938
2881.54549,0.06973
2879.61674,0.07023
2877.68800,0.07067
2875.75925,0.07105
2873.83051,0.07137
2871.90176,0.07164
2869.97302,0.07220
2868.04427,0.07298
2866.11553,0.07346
2864.18678,0.07375
2862.25804,0.07436
2860.32929,0.07521
2858.40055,0.07601
2856.47180,0.07683
2854.54305,0.07775
2852.61431,0.07871
2850.68556,0.07983
2848.75682,0.08132
2846.82807,0.08302
2844.89933,0.08463
2842.97058,0.08612
2841.04184,0.08763
2839.11309,0.08936
2837.18435,0.09135
2835.25560,0.09348
2833.32686,0.09550
2831.39811,0.09718
2829.46937,0.09865
2827.54062,0.10037
2825.61188,0.10238
2823.68313,0.10429
2821.75438,0.10604
2819.82564,0.10771
2817.89689,0.10922
2815.96815,0.11065
2814.03940,0.11220
2812.11066,0.11376
2810.18191,0.11502
2808.25317,0.11606
2806.32442,0.11714
2804.39568,0.11833
2802.46693,0.11961
2800.53819,0.12078
2798.60944,0.12164
2796.68070,0.12235
2794.75195,0.12310
2792.82320,0.12399
2790.89446,0.12496
2788.96571,0.12577
2787.03697,0.12626
2785.10822,0.12649
2783.17948,0.12673
2781.25073,0.12709
2779.32199,0.12743
2777.39324,0.12766
2775.46450,0.12794
2773.53575,0.12850
2771.60701,0.12918
2769.67826,0.12962
2767.74952,0.12986
2765.82077,0.13011
2763.89203,0.13040
2761.96328,0.13061
2760.03453,0.13083
2758.10579,0.13119
2756.17704,0.13156
2754.24830,0.13184
2752.31955,0.13210
2750.39081,0.13236
2748.46206,0.13251
2746.53332,0.13246
2744.60457,0.13234
2742.67583,0.13238
2740.74708,0.13269
2738.81834,0.13323
2736.88959,0.13372
2734.96085,0.13394
2733.03210,0.13404
2731.10336,0.13427
2729.17461,0.13466
2727.24586,0.13506
2725.31712,0.13551
2723.38837,0.13607
2721.45963,0.13662
2719.53088,0.13711
2717.60214,0.13757
2715.67339,0.13804
2713.74465,0.13863
2711.81590,0.13934
2709.88716,0.14003
2707.95841,0.14062
2706.02967,0.14131
2704.10092,0.14217
2702.17218,0.14301
2700.24343,0.14373
2698.31468,0.14447
2696.38594,0.14511
2694.45719,0.14553
2692.52845,0.14600
2690.59970,0.14674
2688.67096,0.14762
2686.74221,0.14840
2684.81347,0.14897
2682.88472,0.14943
2680.95598,0.15008
2679.02723,0.15080
2677.09849,0.15139
2675.16974,0.15199
2673.24100,0.15255
2671.31225,0.15294
2669.38351,0.15328
2667.45476,0.15366
2665.52601,0.15395
2663.59727,0.15414
2661.66852,0.15447
2659.73978,0.15499
2657.81103,0.15547
2655.88229,0.15578
2653.95354,0.15593
2652.02480,0.15616
2650.09605,0.15672
2648.16731,0.15751
2646.23856,0.15819
2644.30982,0.15860
2642.38107,0.15885
2640.45233,0.15915
2638.52358,0.15954
2636.59484,0.16003
2634.66609,0.16068
2632.73734,0.16138
2630.80860,0.16197
2628.87985,0.16245
2626.95111,0.16294
2625.02236,0.16346
2623.09362,0.16389
2621.16487,0.16420
2619.23613,0.16462
2617.30738,0.16530
2615.37864,0.16597
2613.44989,0.16637
2611.52115,0.16670
2609.59240,0.16708
2607.66366,0.16737
2605.73491,0.16772
2603.80616,0.16827
2601.87742,0.16884
2599.94867,0.16944
2598.01993,0.17009
2596.09118,0.17062
2594.16244,0.17109
2592.23369,0.17154
2590.30495,0.17189
2588.37620,0.17219
2586.44746,0.17264
2584.51871,0.17324
2582.58997,0.17375
2580.66122,0.17415
2578.73248,0.17462
2576.80373,0.17502
2574.87499,0.17521
2572.94624,0.17533
2571.01749,0.17544
2569.08875,0.17565
2567.16000,0.17598
2565.23126,0.17610
2563.30251,0.17606
2561.37377,0.17627
2559.44502,0.17666
2557.51628,0.17674
2555.58753,0.17665
2553.65879,0.17683
2551.73004,0.17716
2549.80130,0.17740
2547.87255,0.17762
2545.94381,0.17784
2544.01506,0.17793
2542.08631,0.17802
2540.15757,0.17825
2538.22882,0.17863
2536.30008,0.17912
2534.37133,0.17961
2532.44259,0.18006
2530.51384,0.18060
2528.58510,0.18119
2526.65635,0.18164
2524.72761,0.18201
2522.79886,0.18250
2520.87012,0.18302
2518.94137,0.18349
2517.01263,0.18396
2515.08388,0.18440
2513.15514,0.18491
2511.22639,0.18562
2509.29764,0.18634
2507.36890,0.18705
2505.44015,0.18779
2503.51141,0.18860
2501.58266,0.18954
2499.65392,0.19042
2497.72517,0.19117
2495.79643,0.19197
2493.86768,0.19289
2491.93894,0.19380
2490.01019,0.19464
2488.08145,0.19541
2486.15270,0.19604
2484.22396,0.19657
2482.29521,0.19713
2480.36647,0.19791
2478.43772,0.19885
2476.50897,0.19962
2474.58023,0.20020
2472.65148,0.20093
2470.72274,0.20178
2468.79399,0.20254
2466.86525,0.20321
2464.93650,0.20387
2463.00776,0.20463
2461.07901,0.20547
2459.15027,0.20616
2457.22152,0.20667
2455.29278,0.20722
2453.36403,0.20790
2451.43529,0.20869
2449.50654,0.20952
2447.57779,0.21031
2445.64905,0.21111
2443.72030,0.21195
2441.79156,0.21269
2439.86281,0.21330
2437.93407,0.21397
2436.00532,0.21483
2434.07658,0.21584
2432.14783,0.21680
2430.21909,0.21762
2428.29034,0.21847
2426.36160,0.21939
2424.43285,0.22039
2422.50411,0.22149
2420.57536,0.22255
2418.64662,0.22353
2416.71787,0.22447
2414.78912,0.22524
2412.86038,0.22595
2410.93163,0.22685
2409.00289,0.22787
2407.07414,0.22874
2405.14540,0.22944
2403.21665,0.23007
2401.28791,0.23076
2399.35916,0.23154
2397.43042,0.23246
2395.50167,0.23343
2393.57293,0.23433
2391.64418,0.23526
2389.71544,0.23623
2387.78669,0.23704
2385.85795,0.23769
2383.92920,0.23831
2382.00045,0.23898
2380.07171,0.23976
2378.14296,0.24061
2376.21422,0.24147
2374.28547,0.24234
2372.35673,0.24319
2370.42798,0.24388
2368.49924,0.24441
2366.57049,0.24500
2364.64175,0.24582
2362.71300,0.24649
2360.78426,0.24680
2358.85551,0.24709
2356.92677,0.24757
2354.99802,0.24805
2353.06927,0.24856
2351.14053,0.24920
2349.21178,0.24993
2347.28304,0.25061
2345.35429,0.25107
2343.42555,0.25141
2341.49680,0.25188
2339.56806,0.25242
2337.63931,0.25290
2335.71057,0.25327
2333.78182,0.25349
2331.85308,0.25369
2329.92433,0.25404
2327.99559,0.25456
2326.06684,0.25504
2324.13810,0.25520
2322.20935,0.25509
2320.28060,0.25499
2318.35186,0.25500
2316.42311,0.25516
2314.49437,0.25536
2312.56562,0.25553
2310.63688,0.25567
2308.70813,0.25573
2306.77939,0.25571
2304.85064,0.25569
2302.92190,0.25572
2300.99315,0.25571
2299.06441,0.25564
2297.13566,0.25554
2295.20692,0.25544
2293.27817,0.25534
2291.34943,0.25523
2289.42068,0.25518
2287.49193,0.25520
2285.56319,0.25522
2283.63444,0.25522
2281.70570,0.25524
2279.77695,0.25530
2277.84821,0.25527
2275.91946,0.25501
2273.99072,0.25468
2272.06197,0.25441
2270.13323,0.25411
2268.20448,0.25379
2266.27574,0.25344
2264.34699,0.25296
2262.41825,0.25237
2260.48950,0.25184
2258.56075,0.25139
2256.63201,0.25094
2254.70326,0.25054
2252.77452,0.25028
2250.84577,0.25007
2248.91703,0.24985
2246.98828,0.24964
2245.05954,0.24946
2243.13079,0.24918
2241.20205,0.24876
2239.27330,0.24840
2237.34456,0.24823
2235.41581,0.24813
2233.48707,0.24804
2231.55832,0.24799
2229.62958,0.24792
2227.70083,0.24783
2225.77208,0.24782
2223.84334,0.24781
2221.91459,0.24768
2219.98585,0.24759
2218.05710,0.24757
2216.12836,0.24745
2214.19961,0.24731
2212.27087,0.24725
2210.34212,0.24714
2208.41338,0.24688
2206.48463,0.24662
2204.55589,0.24641
2202.62714,0.24599
2200.69840,0.24543
2198.76965,0.24481
2196.84090,0.24404
2194.91216,0.24318
2192.98341,0.24243
2191.05467,0.24181
2189.12592,0.24119
2187.19718,0.24040
2185.26843,0.23942
2183.33969,0.23829
2181.41094,0.23724
2179.48220,0.23640
2177.55345,0.23550
2175.62471,0.23442
2173.69596,0.23338
2171.76722,0.23240
2169.83847,0.23145
2167.90973,0.23059
2165.98098,0.22972
2164.05223,0.22877
2162.12349,0.22788
2160.19474,0.22715
2158.26600,0.22656
2156.33725,0.22611
2154.40851,0.22579
2152.47976,0.22548
2150.55102,0.22502
2148.62227,0.22437
2146.69353,0.22366
2144.76478,0.22314
2142.83604,0.22279
2140.90729,0.22243
2138.97855,0.22209
2137.04980,0.22183
2135.12106,0.22171
2133.19231,0.22178
2131.26356,0.22193
2129.33482,0.22202
2127.40607,0.22217
2125.47733,0.22245
2123.54858,0.22267
2121.61984,0.22281
2119.69109,0.22304
2117.76235,0.22337
2115.83360,0.22360
2113.90486,0.22364
2111.97611,0.22374
2110.04737,0.22414
2108.11862,0.22456
2106.18988,0.22475
2104.26113,0.22488
2102.33238,0.22507
2100.40364,0.22526
2098.47489,0.22546
2096.54615,0.22567
2094.61740,0.22587
2092.68866,0.22609
2090.75991,0.22628
2088.83117,0.22635
2086.90242,0.22625
2084.97368,0.22608
2083.04493,0.22595
2081.11619,0.22581
2079.18744,0.22548
2077.25870,0.22498
2075.32995,0.22451
2073.40121,0.22404
2071.47246,0.22355
2069.54371,0.22313
2067.61497,0.22277
2065.68622,0.22246
2063.75748,0.22222
2061.82873,0.22204
2059.89999,0.22185
2057.97124,0.22165
2056.04250,0.22157
2054.11375,0.22171
2052.18501,0.22194
2050.25626,0.22215
2048.32752,0.22244
2046.39877,0.22292
2044.47003,0.22350
2042.54128,0.22391
2040.61254,0.22421
2038.68379,0.22469
2036.75504,0.22538
2034.82630,0.22610
2032.89755,0.22689
2030.96881,0.22790
2029.04006,0.22896
2027.11132,0.22989
2025.18257,0.23086
2023.25383,0.23191
2021.32508,0.23281
2019.39634,0.23370
2017.46759,0.23465
2015.53885,0.23534
2013.61010,0.23597
2011.68136,0.23688
2009.75261,0.23774
2007.82386,0.23813
2005.89512,0.23839
2003.96637,0.23889
2002.03763,0.23953
2000.10888,0.24010
1998.18014,0.24054
1996.25139,0.24102
1994.32265,0.24173
1992.39390,0.24241
1990.46516,0.24285
1988.53641,0.24328
1986.60767,0.24374
1984.67892,0.24415
1982.75018,0.24462
1980.82143,0.24511
1978.89269,0.24544
1976.96394,0.24567
1975.03519,0.24594
1973.10645,0.24627
1971.17770,0.24672
1969.24896,0.24739
1967.32021,0.24803
1965.39147,0.24840
1963.46272,0.24866
1961.53398,0.24905
1959.60523,0.24964
1957.67649,0.25034
1955.74774,0.25103
1953.81900,0.25171
1951.89025,0.25244
1949.96151,0.25316
1948.03276,0.25384
1946.10402,0.25450
1944.17527,0.25522
1942.24652,0.25594
1940.31778,0.25652
1938.38903,0.25707
1936.46029,0.25760
1934.53154,0.25803
1932.60280,0.25846
1930.67405,0.25891
1928.74531,0.25920
1926.81656,0.25948
1924.88782,0.25989
1922.95907,0.26012
1921.03033,0.26006
1919.10158,0.25999
1917.17284,0.26004
1915.24409,0.26005
1913.31534,0.25993
1911.38660,0.25987
1909.45785,0.25985
1907.52911,0.25975
1905.60036,0.25964
1903.67162,0.25957
1901.74287,0.25941
1899.81413,0.25903
1897.88538,0.25866
1895.95664,0.25843
1894.02789,0.25810
1892.09915,0.25771
1890.17040,0.25755
1888.24166,0.25754
1886.31291,0.25740
1884.38417,0.25720
1882.45542,0.25701
1880.52667,0.25676
1878.59793,0.25644
1876.66918,0.25610
1874.74044,0.25576
1872.81169,0.25540
1870.88295,0.25517
1868.95420,0.25501
1867.02546,0.25469
1865.09671,0.25421
1863.16797,0.25372
1861.23922,0.25314
1859.31048,0.25238
1857.38173,0.25168
1855.45299,0.25123
1853.52424,0.25081
1851.59549,0.25007
1849.66675,0.24907
1847.73800,0.24812
1845.80926,0.24719
1843.88051,0.24599
1841.95177,0.24470
1840.02302,0.24358
1838.09428,0.24234
1836.16553,0.24094
1834.23679,0.23952
1832.30804,0.23805
1830.37930,0.23643
1828.45055,0.23455
1826.52181,0.23236
1824.59306,0.22978
1822.66432,0.22705
1820.73557,0.22438
1818.80682,0.22146
1816.87808,0.21813
1814.94933,0.21462
1813.02059,0.21110
1811.09184,0.20744
1809.16310,0.20354
1807.23435,0.19937
1805.30561,0.19510
1803.37686,0.19092
1801.44812,0.18666
1799.51937,0.18207
1797.59063,0.17745
1795.66188,0.17315
1793.73314,0.16871
1791.80439,0.16363
1789.87565,0.15858
1787.94690,0.15408
1786.01815,0.14962
1784.08941,0.14496
1782.16066,0.14039
1780.23192,0.13586
1778.30317,0.13136
1776.37443,0.12708
1774.44568,0.12280
1772.51694,0.11782
1770.58819,0.11233
1768.65945,0.10720
1766.73070,0.10245
1764.80196,0.09805
1762.87321,0.09364
1760.94447,0.08900
1759.01572,0.08462
1757.08697,0.08057
1755.15823,0.07703
1753.22948,0.07418
1751.30074,0.07158
1749.37199,0.06920
1747.44325,0.06721
1745.51450,0.06560
1743.58576,0.06443
1741.65701,0.06372
1739.72827,0.06308
1737.79952,0.06252
1735.87078,0.06225
1733.94203,0.06222
1732.01329,0.06237
1730.08454,0.06271
1728.15580,0.06312
1726.22705,0.06346
1724.29830,0.06380
1722.36956,0.06434
1720.44081,0.06512
1718.51207,0.06601
1716.58332,0.06682
1714.65458,0.06751
1712.72583,0.06827
1710.79709,0.06923
1708.86834,0.07033
1706.93960,0.07144
1705.01085,0.07233
1703.08211,0.07283
1701.15336,0.07303
1699.22462,0.07307
1697.29587,0.07289
1695.36713,0.07236
1693.43838,0.07173
1691.50963,0.07119
1689.58089,0.07057
1687.65214,0.06995
1685.72340,0.06916
1683.79465,0.06799
1681.86591,0.06708
1679.93716,0.06652
1678.00842,0.06587
1676.07967,0.06503
1674.15093,0.06428
1672.22218,0.06394
1670.29344,0.06381
1668.36469,0.06359
1666.43595,0.06337
1664.50720,0.06325
1662.57845,0.06317
1660.64971,0.06311
1658.72096,0.06308
1656.79222,0.06322
1654.86347,0.06349
1652.93473,0.06366
1651.00598,0.06359
1649.07724,0.06359
1647.14849,0.06363
1645.21975,0.06362
1643.29100,0.06363
1641.36226,0.06371
1639.43351,0.06390
1637.50477,0.06401
1635.57602,0.06383
1633.64728,0.06361
1631.71853,0.06364
1629.78978,0.06368
1627.86104,0.06361
1625.93229,0.06353
1624.00355,0.06338
1622.07480,0.06310
1620.14606,0.06285
1618.21731,0.06257
1616.28857,0.06201
1614.35982,0.06137
1612.43108,0.06085
1610.50233,0.06026
1608.57359,0.05969
1606.64484,0.05923
1604.71610,0.05886
1602.78735,0.05869
1600.85861,0.05869
1598.92986,0.05888
1597.00111,0.05920
1595.07237,0.05952
1593.14362,0.05986
1591.21488,0.06048
1589.28613,0.06148
1587.35739,0.06278
1585.42864,0.06435
1583.49990,0.06619
1581.57115,0.06828
1579.64241,0.07052
1577.71366,0.07308
1575.78492,0.07615
1573.85617,0.07891
1571.92743,0.08125
1569.99868,0.08371
1568.06993,0.08585
1566.14119,0.08741
1564.21244,0.08882
1562.28370,0.09015
1560.35495,0.09142
1558.42621,0.09242
1556.49746,0.09278
1554.56872,0.09297
1552.63997,0.09311
1550.71123,0.09297
1548.78248,0.09261
1546.85374,0.09226
1544.92499,0.09186
1542.99625,0.09121
1541.06750,0.09019
1539.13876,0.08843
1537.21001,0.08660
1535.28126,0.08490
1533.35252,0.08254
1531.42377,0.07963
1529.49503,0.07667
1527.56628,0.07320
1525.63754,0.06931
1523.70879,0.06554
1521.78005,0.06131
1519.85130,0.05698
1517.92256,0.05380
1515.99381,0.05162
1514.06507,0.05030
1512.13632,0.04988
1510.20758,0.05020
1508.27883,0.05107
1506.35008,0.05248
1504.42134,0.05423
1502.49259,0.05609
1500.56385,0.05806
1498.63510,0.06014
1496.70636,0.06216
1494.77761,0.06371
1492.84887,0.06470
1490.92012,0.06540
1488.99138,0.06569
1487.06263,0.06534
1485.13389,0.06461
1483.20514,0.06359
1481.27640,0.06222
1479.34765,0.06083
1477.41891,0.05943
1475.49016,0.05760
1473.56141,0.05510
1471.63267,0.05246
1469.70392,0.05060
1467.77518,0.04955
1465.84643,0.04891
1463.91769,0.04857
1461.98894,0.04859
1460.06020,0.04886
1458.13145,0.04902
1456.20271,0.04892
1454.27396,0.04882
1452.34522,0.04882
1450.41647,0.04897
1448.48773,0.04935
1446.55898,0.04976
1444.63024,0.04989
1442.70149,0.04971
1440.77274,0.04931
1438.84400,0.04870
1436.91525,0.04770
1434.98651,0.04667
1433.05776,0.04607
1431.12902,0.04578
1429.20027,0.04572
1427.27153,0.04586
1425.34278,0.04604
1423.41404,0.04633
1421.48529,0.04704
1419.55655,0.04793
1417.62780,0.04856
1415.69906,0.04908
1413.77031,0.04969
1411.84156,0.05030
1409.91282,0.05082
1407.98407,0.05116
1406.05533,0.05137
1404.12658,0.05160
1402.19784,0.05163
1400.26909,0.05132
1398.34035,0.05092
1396.41160,0.05072
1394.48286,0.05062
1392.55411,0.05038
1390.62537,0.04988
1388.69662,0.04918
1386.76788,0.04832
1384.83913,0.04751
1382.91039,0.04687
1380.98164,0.04631
1379.05289,0.04589
1377.12415,0.04564
1375.19540,0.04550
1373.26666,0.04548
1371.33791,0.04563
1369.40917,0.04596
1367.48042,0.04636
1365.55168,0.04664
1363.62293,0.04684
1361.69419,0.04717
1359.76544,0.04764
1357.83670,0.04801
1355.90795,0.04832
1353.97921,0.04860
1352.05046,0.04881
1350.12172,0.04893
1348.19297,0.04886
1346.26422,0.04853
1344.33548,0.04812
1342.40673,0.04774
1340.47799,0.04741
1338.54924,0.04720
1336.62050,0.04702
1334.69175,0.04679
1332.76301,0.04668
1330.83426,0.04678
1328.90552,0.04686
1326.97677,0.04671
1325.04803,0.04635
1323.11928,0.04593
1321.19054,0.04562
1319.26179,0.04556
1317.33304,0.04583
1315.40430,0.04623
1313.47555,0.04651
1311.54681,0.04665
1309.61806,0.04675
1307.68932,0.04686
1305.76057,0.04702
1303.83183,0.04714
1301.90308,0.04708
1299.97434,0.04685
1298.04559,0.04651
1296.11685,0.04612
1294.18810,0.04573
1292.25936,0.04521
1290.33061,0.04451
1288.40187,0.04387
1286.47312,0.04337
1284.54437,0.04289
1282.61563,0.04246
1280.68688,0.04216
1278.75814,0.04195
1276.82939,0.04184
1274.90065,0.04190
1272.97190,0.04213
1271.04316,0.04247
1269.11441,0.04285
1267.18567,0.04318
1265.25692,0.04348
1263.32818,0.04389
1261.39943,0.04447
1259.47069,0.04512
1257.54194,0.04559
1255.61320,0.04566
1253.68445,0.04545
1251.75570,0.04534
1249.82696,0.04552
1247.89821,0.04570
1245.96947,0.04561
1244.04072,0.04548
1242.11198,0.04547
1240.18323,0.04537
1238.25449,0.04526
1236.32574,0.04535
1234.39700,0.04546
1232.46825,0.04551
1230.53951,0.04565
1228.61076,0.04581
1226.68202,0.04594
1224.75327,0.04605
1222.82452,0.04624
1220.89578,0.04650
1218.96703,0.04671
1217.03829,0.04678
1215.10954,0.04670
1213.18080,0.04651
1211.25205,0.04637
1209.32331,0.04638
1207.39456,0.04640
1205.46582,0.04645
1203.53707,0.04666
1201.60833,0.04691
1199.67958,0.04699
1197.75084,0.04693
1195.82209,0.04680
1193.89335,0.04661
1191.96460,0.04632
1190.03585,0.04585
1188.10711,0.04532
1186.17836,0.04469
1184.24962,0.04378
1182.32087,0.04271
1180.39213,0.04176
1178.46338,0.04097
1176.53464,0.04017
1174.60589,0.03931
1172.67715,0.03853
1170.74840,0.03814
1168.81966,0.03827
1166.89091,0.03870
1164.96217,0.03939
1163.03342,0.04027
1161.10467,0.04106
1159.17593,0.04157
1157.24718,0.04174
1155.31844,0.04154
1153.38969,0.04117
1151.46095,0.04098
1149.53220,0.04097
1147.60346,0.04080
1145.67471,0.04030
1143.74597,0.03967
1141.81722,0.03917
1139.88848,0.03875
1137.95973,0.03833
1136.03099,0.03796
1134.10224,0.03745
1132.17350,0.03687
1130.24475,0.03660
1128.31600,0.03645
1126.38726,0.03613
1124.45851,0.03603
1122.52977,0.03633
1120.60102,0.03669
1118.67228,0.03687
1116.74353,0.03687
1114.81479,0.03690
1112.88604,0.03715
1110.95730,0.03769
1109.02855,0.03842
1107.09981,0.03907
1105.17106,0.03949
1103.24232,0.03972
1101.31357,0.03982
1099.38483,0.03984
1097.45608,0.03987
1095.52733,0.03985
1093.59859,0.03964
1091.66984,0.03916
1089.74110,0.03871
1087.81235,0.03865
1085.88361,0.03891
1083.95486,0.03935
1082.02612,0.04010
1080.09737,0.04102
1078.16863,0.04176
1076.23988,0.04225
1074.31114,0.04276
1072.38239,0.04358
1070.45365,0.04476
1068.52490,0.04606
1066.59615,0.04734
1064.66741,0.04893
1062.73866,0.05120
1060.80992,0.05362
1058.88117,0.05530
1056.95243,0.05599
1055.02368,0.05607
1053.09494,0.05596
1051.16619,0.05591
1049.23745,0.05593
1047.30870,0.05571
1045.37996,0.05507
1043.45121,0.05454
1041.52247,0.05473
1039.59372,0.05570
1037.66498,0.05705
1035.73623,0.05839
1033.80748,0.05976
1031.87874,0.06099
1029.94999,0.06179
1028.02125,0.06230
1026.09250,0.06284
1024.16376,0.06334
1022.23501,0.06378
1020.30627,0.06427
1018.37752,0.06482
1016.44878,0.06547
1014.52003,0.06623
1012.59129,0.06690
1010.66254,0.06729
1008.73380,0.06730
1006.80505,0.06720
1004.87631,0.06742
1002.94756,0.06809
1001.01881,0.06899
999.09007,0.06972
997.16132,0.07015
995.23258,0.07058
993.30383,0.07120
991.37509,0.07194
989.44634,0.07290
987.51760,0.07432
985.58885,0.07614
983.66011,0.07801
981.73136,0.07985
979.80262,0.08177
977.87387,0.08349
975.94513,0.08461
974.01638,0.08535
972.08763,0.08616
970.15889,0.08700
968.23014,0.08762
966.30140,0.08820
964.37265,0.08918
962.44391,0.09056
960.51516,0.09204
958.58642,0.09337
956.65767,0.09463
954.72893,0.09587
952.80018,0.09687
950.87144,0.09766
948.94269,0.09841
947.01395,0.09891
945.08520,0.09914
943.15646,0.09950
941.22771,0.10007
939.29896,0.10059
937.37022,0.10093
935.44147,0.10123
933.51273,0.10178
931.58398,0.10254
929.65524,0.10321
927.72649,0.10361
925.79775,0.10384
923.86900,0.10390
921.94026,0.10366
920.01151,0.10293
918.08277,0.10186
916.15402,0.10066
914.22528,0.09949
912.29653,0.09845
910.36779,0.09737
908.43904,0.09602
906.51029,0.09440
904.58155,0.09249
902.65280,0.09056
900.72406,0.08917
898.79531,0.08853
896.86657,0.08830
894.93782,0.08845
893.00908,0.08926
891.08033,0.09055
889.15159,0.09168
887.22284,0.09254
885.29410,0.09320
883.36535,0.09327
881.43661,0.09303
879.50786,0.09341
877.57911,0.09407
875.65037,0.09414
873.72162,0.09377
871.79288,0.09375
869.86413,0.09445
867.93539,0.09518
866.00664,0.09537
864.07790,0.09549
862.14915,0.09593
860.22041,0.09663
858.29166,0.09757
856.36292,0.09848
854.43417,0.09896
852.50543,0.09930
850.57668,0.10012
848.64794,0.10121
846.71919,0.10194
844.79044,0.10213
842.86170,0.10178
840.93295,0.10121
839.00421,0.10082
837.07546,0.10037
835.14672,0.09937
833.21797,0.09789
831.28923,0.09642
829.36048,0.09539
827.43174,0.09448
825.50299,0.09304
823.57425,0.09103
821.64550,0.08895
819.71676,0.08740
817.78801,0.08657
815.85926,0.08605
813.93052,0.08541
812.00177,0.08480
810.07303,0.08471
808.14428,0.08503
806.21554,0.08531
804.28679,0.08549
802.35805,0.08595
800.42930,0.08675
798.50056,0.08734
796.57181,0.08754
794.64307,0.08765
792.71432,0.08742
790.78558,0.08663
788.85683,0.08581
786.92809,0.08548
784.99934,0.08516
783.07059,0.08415
781.14185,0.08299
779.21310,0.08239
777.28436,0.08206
775.35561,0.08168
773.42687,0.08121
771.49812,0.08076
769.56938,0.08037
767.64063,0.07988
765.71189,0.07950
763.78314,0.07940
761.85440,0.07922
759.92565,0.07872
757.99691,0.07806
756.06816,0.07757
754.13942,0.07717
752.21067,0.07687
750.28192,0.07684
748.35318,0.07640
746.42443,0.07526
744.49569,0.07445
742.56694,0.07440
740.63820,0.07446
738.70945,0.07400
736.78071,0.07309
734.85196,0.07213
732.92322,0.07114
730.99447,0.06999
729.06573,0.06897
727.13698,0.06849
725.20824,0.06854
723.27949,0.06851
721.35074,0.06799
719.42200,0.06717
717.49325,0.06641
715.56451,0.06590
713.63576,0.06570
711.70702,0.06567
709.77827,0.06562
707.84953,0.06553
705.92078,0.06550
703.99204,0.06537
702.06329,0.06500
700.13455,0.06474
698.20580,0.06481
696.27706,0.06470
694.34831,0.06409
692.41957,0.06340
690.49082,0.06312
688.56207,0.06295
686.63333,0.06248
684.70458,0.06181
682.77584,0.06107
680.84709,0.06034
678.91835,0.05967
676.98960,0.05901
675.06086,0.05812
673.13211,0.05719
671.20337,0.05686
669.27462,0.05741
667.34588,0.05852
665.41713,0.05888
663.48839,0.05807
661.55964,0.05774
659.63090,0.05856
657.70215,0.05894
655.77340,0.05859
653.84466,0.05868
651.91591,0.05923
649.98717,0.05946
648.05842,0.05932
646.12968,0.05932
644.20093,0.05898
642.27219,0.05782
640.34344,0.05660
638.41470,0.05591
636.48595,0.05603
634.55721,0.05690
632.62846,0.05748
630.69972,0.05699
628.77097,0.05566
626.84222,0.05393
624.91348,0.05305
622.98473,0.05378
621.05599,0.05519
619.12724,0.05624
617.19850,0.05682
615.26975,0.05733
613.34101,0.05747
611.41226,0.05708
609.48352,0.05767
607.55477,0.05964
605.62603,0.06127
603.69728,0.06156
601.76854,0.06111
599.83979,0.06025
