7497.03301,0.77329
7495.10426,0.77069
7493.17552,0.76926
7491.24677,0.76977
7489.31803,0.76609
7487.38928,0.76030
7485.46054,0.75971
7483.53179,0.76250
7481.60305,0.76060
7479.67430,0.75574
7477.74556,0.75750
7475.81681,0.76429
7473.88807,0.76592
7471.95932,0.76220
7470.03057,0.75878
7468.10183,0.75630
7466.17308,0.75513
7464.24434,0.75608
7462.31559,0.75740
7460.38685,0.75646
7458.45810,0.75311
7456.52936,0.75184
7454.60061,0.75454
7452.67187,0.75624
7450.74312,0.75420
7448.81438,0.75239
7446.88563,0.75369
7444.95689,0.75700
7443.02814,0.76042
7441.09940,0.75984
7439.17065,0.75392
7437.24190,0.74825
7435.31316,0.74614
7433.38441,0.74741
7431.45567,0.75087
7429.52692,0.75251
7427.59818,0.75177
7425.66943,0.75186
7423.74069,0.75042
7421.81194,0.74555
7419.88320,0.74228
7417.95445,0.74312
7416.02571,0.74658
7414.09696,0.74854
7412.16822,0.74463
7410.23947,0.74018
7408.31073,0.74147
7406.38198,0.74318
7404.45323,0.73932
7402.52449,0.73474
7400.59574,0.73594
7398.66700,0.74027
7396.73825,0.74141
7394.80951,0.73771
7392.88076,0.73298
7390.95202,0.73215
7389.02327,0.73481
7387.09453,0.73785
7385.16578,0.73901
7383.23704,0.73628
7381.30829,0.73308
7379.37955,0.73340
7377.45080,0.73286
7375.52205,0.73015
7373.59331,0.73262
7371.66456,0.74142
7369.73582,0.74707
7367.80707,0.74254
7365.87833,0.73270
7363.94958,0.72716
7362.02084,0.72856
7360.09209,0.73138
7358.16335,0.73143
7356.23460,0.73073
7354.30586,0.73146
7352.37711,0.73334
7350.44837,0.73579
7348.51962,0.73544
7346.59088,0.72940
7344.66213,0.72350
7342.73338,0.72179
7340.80464,0.72086
7338.87589,0.72057
7336.94715,0.72108
7335.01840,0.71987
7333.08966,0.71903
7331.16091,0.72195
7329.23217,0.72686
7327.30342,0.72877
7325.37468,0.72503
7323.44593,0.71882
7321.51719,0.71602
7319.58844,0.71792
7317.65970,0.72175
7315.73095,0.72514
7313.80221,0.72576
7311.87346,0.72397
7309.94471,0.72232
7308.01597,0.72038
7306.08722,0.71916
7304.15848,0.72103
7302.22973,0.72344
7300.30099,0.72480
7298.37224,0.72562
7296.44350,0.72569
7294.51475,0.72617
7292.58601,0.72498
7290.65726,0.72192
7288.72852,0.72365
7286.79977,0.72949
7284.87103,0.72963
7282.94228,0.72308
7281.01353,0.71920
7279.08479,0.72079
7277.15604,0.72245
7275.22730,0.72222
7273.29855,0.72164
7271.36981,0.72095
7269.44106,0.72134
7267.51232,0.72336
7265.58357,0.72339
7263.65483,0.72178
7261.72608,0.72242
7259.79734,0.72357
7257.86859,0.72156
7255.93985,0.71659
7254.01110,0.71257
7252.08236,0.71212
7250.15361,0.71523
7248.22486,0.72046
7246.29612,0.72224
7244.36737,0.71955
7242.43863,0.71855
7240.50988,0.72017
7238.58114,0.72137
7236.65239,0.72318
7234.72365,0.72549
7232.79490,0.72465
7230.86616,0.72233
7228.93741,0.72271
7227.00867,0.72387
7225.07992,0.72246
7223.15118,0.71980
7221.22243,0.72076
7219.29369,0.72535
7217.36494,0.72594
7215.43619,0.71953
7213.50745,0.71326
7211.57870,0.71318
7209.64996,0.71679
7207.72121,0.71813
7205.79247,0.71525
7203.86372,0.71269
7201.93498,0.71243
7200.00623,0.71041
7198.07749,0.70877
7196.14874,0.71109
7194.22000,0.71198
7192.29125,0.70862
7190.36251,0.70576
7188.43376,0.70616
7186.50501,0.71023
7184.57627,0.71566
7182.64752,0.71769
7180.71878,0.71661
7178.79003,0.71492
7176.86129,0.71236
7174.93254,0.70979
7173.00380,0.70928
7171.07505,0.71188
7169.14631,0.71518
7167.21756,0.71441
7165.28882,0.70977
7163.36007,0.70588
7161.43133,0.70335
7159.50258,0.70054
7157.57384,0.69966
7155.64509,0.70257
7153.71634,0.70550
7151.78760,0.70432
7149.85885,0.70059
7147.93011,0.69727
7146.00136,0.69531
7144.07262,0.69482
7142.14387,0.69379
7140.21513,0.69184
7138.28638,0.69178
7136.35764,0.69384
7134.42889,0.69493
7132.50015,0.69279
7130.57140,0.68878
7128.64266,0.68629
7126.71391,0.68517
7124.78516,0.68274
7122.85642,0.68027
7120.92767,0.68057
7118.99893,0.68219
7117.07018,0.68279
7115.14144,0.68153
7113.21269,0.67868
7111.28395,0.67698
7109.35520,0.67743
7107.42646,0.67632
7105.49771,0.67325
7103.56897,0.67255
7101.64022,0.67323
7099.71148,0.67141
7097.78273,0.66863
7095.85399,0.66725
7093.92524,0.66675
7091.99649,0.66606
7090.06775,0.66431
7088.13900,0.66133
7086.21026,0.65870
7084.28151,0.65790
7082.35277,0.65631
7080.42402,0.65224
7078.49528,0.64957
7076.56653,0.65024
7074.63779,0.65238
7072.70904,0.65277
7070.78030,0.64835
7068.85155,0.64242
7066.92281,0.64052
7064.99406,0.64092
7063.06532,0.63856
7061.13657,0.63428
7059.20782,0.63227
7057.27908,0.63250
7055.35033,0.63351
7053.42159,0.63402
7051.49284,0.63137
7049.56410,0.62644
7047.63535,0.62337
7045.70661,0.62282
7043.77786,0.62219
7041.84912,0.62072
7039.92037,0.61998
7037.99163,0.62105
7036.06288,0.62202
7034.13414,0.62019
7032.20539,0.61563
7030.27664,0.60976
7028.34790,0.60547
7026.41915,0.60495
7024.49041,0.60658
7022.56166,0.60866
7020.63292,0.60969
7018.70417,0.60828
7016.77543,0.60539
7014.84668,0.60208
7012.91794,0.59886
7010.98919,0.59738
7009.06045,0.59910
7007.13170,0.60102
7005.20296,0.59915
7003.27421,0.59574
7001.34547,0.59419
6999.41672,0.59448
6997.48797,0.59527
6995.55923,0.59493
6993.63048,0.59519
6991.70174,0.59807
6989.77299,0.59993
6987.84425,0.59784
6985.91550,0.59442
6983.98676,0.59154
6982.05801,0.58778
6980.12927,0.58396
6978.20052,0.58231
6976.27178,0.58260
6974.34303,0.58354
6972.41429,0.58416
6970.48554,0.58426
6968.55680,0.58342
6966.62805,0.58165
6964.69930,0.57925
6962.77056,0.57590
6960.84181,0.57419
6958.91307,0.57588
6956.98432,0.57841
6955.05558,0.58028
6953.12683,0.58120
6951.19809,0.58080
6949.26934,0.57981
6947.34060,0.58017
6945.41185,0.58181
6943.48311,0.58153
6941.55436,0.57932
6939.62562,0.57790
6937.69687,0.57798
6935.76812,0.57923
6933.83938,0.57940
6931.91063,0.57647
6929.98189,0.57350
6928.05314,0.57385
6926.12440,0.57670
6924.19565,0.57959
6922.26691,0.58040
6920.33816,0.57963
6918.40942,0.57882
6916.48067,0.57824
6914.55193,0.57846
6912.62318,0.57925
6910.69444,0.57899
6908.76569,0.57753
6906.83695,0.57796
6904.90820,0.58200
6902.97945,0.58511
6901.05071,0.58410
6899.12196,0.58158
6897.19322,0.57998
6895.26447,0.57901
6893.33573,0.57837
6891.40698,0.57892
6889.47824,0.57991
6887.54949,0.58031
6885.62075,0.58017
6883.69200,0.57861
6881.76326,0.57652
6879.83451,0.57565
6877.90577,0.57592
6875.97702,0.57651
6874.04828,0.57642
6872.11953,0.57639
6870.19078,0.57775
6868.26204,0.57965
6866.33329,0.57879
6864.40455,0.57463
6862.47580,0.57261
6860.54706,0.57423
6858.61831,0.57556
6856.68957,0.57577
6854.76082,0.57608
6852.83208,0.57702
6850.90333,0.57780
6848.97459,0.57696
6847.04584,0.57596
6845.11710,0.57723
6843.18835,0.57933
6841.25960,0.57947
6839.33086,0.57751
6837.40211,0.57539
6835.47337,0.57501
6833.54462,0.57478
6831.61588,0.57311
6829.68713,0.57315
6827.75839,0.57597
6825.82964,0.57765
6823.90090,0.57698
6821.97215,0.57603
6820.04341,0.57437
6818.11466,0.57194
6816.18592,0.57116
6814.25717,0.57407
6812.32843,0.57866
6810.39968,0.57899
6808.47093,0.57648
6806.54219,0.57763
6804.61344,0.58019
6802.68470,0.57922
6800.75595,0.57642
6798.82721,0.57445
6796.89846,0.57273
6794.96972,0.57252
6793.04097,0.57578
6791.11223,0.57983
6789.18348,0.58107
6787.25474,0.57860
6785.32599,0.57463
6783.39725,0.57238
6781.46850,0.57331
6779.53975,0.57623
6777.61101,0.57801
6775.68226,0.57748
6773.75352,0.57623
6771.82477,0.57588
6769.89603,0.57640
6767.96728,0.57653
6766.03854,0.57603
6764.10979,0.57613
6762.18105,0.57738
6760.25230,0.57865
6758.32356,0.57941
6756.39481,0.57956
6754.46607,0.57906
6752.53732,0.57853
6750.60858,0.57802
6748.67983,0.57865
6746.75108,0.58039
6744.82234,0.58061
6742.89359,0.57887
6740.96485,0.57691
6739.03610,0.57650
6737.10736,0.57796
6735.17861,0.57901
6733.24987,0.57871
6731.32112,0.57888
6729.39238,0.57920
6727.46363,0.57866
6725.53489,0.57918
6723.60614,0.58118
6721.67740,0.58255
6719.74865,0.58244
6717.81991,0.58239
6715.89116,0.58349
6713.96241,0.58409
6712.03367,0.58347
6710.10492,0.58274
6708.17618,0.58304
6706.24743,0.58516
6704.31869,0.58727
6702.38994,0.58672
6700.46120,0.58404
6698.53245,0.58181
6696.60371,0.58143
6694.67496,0.58295
6692.74622,0.58540
6690.81747,0.58682
6688.88873,0.58705
6686.95998,0.58727
6685.03123,0.58806
6683.10249,0.58880
6681.17374,0.58755
6679.24500,0.58520
6677.31625,0.58549
6675.38751,0.58814
6673.45876,0.58974
6671.53002,0.58937
6669.60127,0.58812
6667.67253,0.58626
6665.74378,0.58479
6663.81504,0.58522
6661.88629,0.58592
6659.95755,0.58539
6658.02880,0.58489
6656.10006,0.58553
6654.17131,0.58712
6652.24256,0.58805
6650.31382,0.58775
6648.38507,0.58712
6646.45633,0.58663
6644.52758,0.58718
6642.59884,0.58902
6640.67009,0.59017
6638.74135,0.58869
6636.81260,0.58687
6634.88386,0.58822
6632.95511,0.59055
6631.02637,0.59066
6629.09762,0.58942
6627.16888,0.58876
6625.24013,0.58923
6623.31139,0.58982
6621.38264,0.59010
6619.45389,0.59063
6617.52515,0.59089
6615.59640,0.59117
6613.66766,0.59270
6611.73891,0.59509
6609.81017,0.59719
6607.88142,0.59778
6605.95268,0.59691
6604.02393,0.59673
6602.09519,0.59855
6600.16644,0.60059
6598.23770,0.60022
6596.30895,0.59884
6594.38021,0.59932
6592.45146,0.60073
6590.52271,0.60057
6588.59397,0.59911
6586.66522,0.59883
6584.73648,0.59922
6582.80773,0.59814
6580.87899,0.59708
6578.95024,0.59747
6577.02150,0.59838
6575.09275,0.59944
6573.16401,0.60010
6571.23526,0.59972
6569.30652,0.59928
6567.37777,0.59927
6565.44903,0.59960
6563.52028,0.60072
6561.59154,0.60180
6559.66279,0.60215
6557.73404,0.60202
6555.80530,0.60195
6553.87655,0.60243
6551.94781,0.60251
6550.01906,0.60170
6548.09032,0.60168
6546.16157,0.60315
6544.23283,0.60405
6542.30408,0.60341
6540.37534,0.60286
6538.44659,0.60281
6536.51785,0.60278
6534.58910,0.60278
6532.66036,0.60270
6530.73161,0.60293
6528.80287,0.60376
6526.87412,0.60516
6524.94537,0.60618
6523.01663,0.60502
6521.08788,0.60362
6519.15914,0.60514
6517.23039,0.60734
6515.30165,0.60738
6513.37290,0.60627
6511.44416,0.60583
6509.51541,0.60715
6507.58667,0.60836
6505.65792,0.60750
6503.72918,0.60619
6501.80043,0.60573
6499.87169,0.60627
6497.94294,0.60726
6496.01419,0.60687
6494.08545,0.60526
6492.15670,0.60459
6490.22796,0.60599
6488.29921,0.60786
6486.37047,0.60738
6484.44172,0.60516
6482.51298,0.60471
6480.58423,0.60619
6478.65549,0.60686
6476.72674,0.60596
6474.79800,0.60427
6472.86925,0.60264
6470.94051,0.60302
6469.01176,0.60603
6467.08302,0.60915
6465.15427,0.61040
6463.22552,0.61033
6461.29678,0.61017
6459.36803,0.61036
6457.43929,0.61046
6455.51054,0.60998
6453.58180,0.60973
6451.65305,0.61106
6449.72431,0.61368
6447.79556,0.61561
6445.86682,0.61537
6443.93807,0.61327
6442.00933,0.61107
6440.08058,0.61060
6438.15184,0.61222
6436.22309,0.61374
6434.29434,0.61361
6432.36560,0.61374
6430.43685,0.61483
6428.50811,0.61472
6426.57936,0.61326
6424.65062,0.61216
6422.72187,0.61160
6420.79313,0.61072
6418.86438,0.60965
6416.93564,0.61023
6415.00689,0.61251
6413.07815,0.61269
6411.14940,0.61021
6409.22066,0.60994
6407.29191,0.61244
6405.36317,0.61369
6403.43442,0.61388
6401.50567,0.61486
6399.57693,0.61580
6397.64818,0.61635
6395.71944,0.61619
6393.79069,0.61477
6391.86195,0.61333
6389.93320,0.61292
6388.00446,0.61310
6386.07571,0.61273
6384.14697,0.61173
6382.21822,0.61244
6380.28948,0.61561
6378.36073,0.61838
6376.43199,0.61861
6374.50324,0.61760
6372.57450,0.61756
6370.64575,0.61800
6368.71700,0.61774
6366.78826,0.61746
6364.85951,0.61705
6362.93077,0.61625
6361.00202,0.61663
6359.07328,0.61795
6357.14453,0.61879
6355.21579,0.61988
6353.28704,0.62073
6351.35830,0.62025
6349.42955,0.61983
6347.50081,0.62000
6345.57206,0.62060
6343.64332,0.62126
6341.71457,0.62023
6339.78582,0.61829
6337.85708,0.61825
6335.92833,0.62057
6333.99959,0.62299
6332.07084,0.62304
6330.14210,0.62120
6328.21335,0.62046
6326.28461,0.62171
6324.35586,0.62297
6322.42712,0.62335
6320.49837,0.62311
6318.56963,0.62182
6316.64088,0.62007
6314.71214,0.61908
6312.78339,0.61955
6310.85465,0.62117
6308.92590,0.62268
6306.99715,0.62348
6305.06841,0.62351
6303.13966,0.62362
6301.21092,0.62438
6299.28217,0.62421
6297.35343,0.62295
6295.42468,0.62220
6293.49594,0.62179
6291.56719,0.62186
6289.63845,0.62320
6287.70970,0.62434
6285.78096,0.62462
6283.85221,0.62547
6281.92347,0.62634
6279.99472,0.62585
6278.06598,0.62452
6276.13723,0.62363
6274.20848,0.62438
6272.27974,0.62677
6270.35099,0.62853
6268.42225,0.62828
6266.49350,0.62691
6264.56476,0.62532
6262.63601,0.62469
6260.70727,0.62600
6258.77852,0.62840
6256.84978,0.63037
6254.92103,0.63140
6252.99229,0.63227
6251.06354,0.63303
6249.13480,0.63319
6247.20605,0.63288
6245.27730,0.63240
6243.34856,0.63298
6241.41981,0.63509
6239.49107,0.63692
6237.56232,0.63778
6235.63358,0.63832
6233.70483,0.63873
6231.77609,0.63917
6229.84734,0.63975
6227.91860,0.64096
6225.98985,0.64276
6224.06111,0.64372
6222.13236,0.64405
6220.20362,0.64430
6218.27487,0.64314
6216.34613,0.64191
6214.41738,0.64278
6212.48863,0.64368
6210.55989,0.64270
6208.63114,0.64207
6206.70240,0.64387
6204.77365,0.64649
6202.84491,0.64763
6200.91616,0.64729
6198.98742,0.64744
6197.05867,0.64964
6195.12993,0.65267
6193.20118,0.65436
6191.27244,0.65470
6189.34369,0.65496
6187.41495,0.65490
6185.48620,0.65457
6183.55746,0.65516
6181.62871,0.65528
6179.69996,0.65380
6177.77122,0.65214
6175.84247,0.65173
6173.91373,0.65383
6171.98498,0.65658
6170.05624,0.65634
6168.12749,0.65502
6166.19875,0.65638
6164.27000,0.65836
6162.34126,0.65839
6160.41251,0.65841
6158.48377,0.65918
6156.55502,0.65925
6154.62628,0.65928
6152.69753,0.66020
6150.76878,0.66012
6148.84004,0.65866
6146.91129,0.65854
6144.98255,0.65951
6143.05380,0.66025
6141.12506,0.66165
6139.19631,0.66232
6137.26757,0.66049
6135.33882,0.65803
6133.41008,0.65798
6131.48133,0.66068
6129.55259,0.66305
6127.62384,0.66366
6125.69510,0.66442
6123.76635,0.66557
6121.83761,0.66549
6119.90886,0.66403
6117.98011,0.66226
6116.05137,0.66109
6114.12262,0.66101
6112.19388,0.66151
6110.26513,0.66217
6108.33639,0.66361
6106.40764,0.66572
6104.47890,0.66714
6102.55015,0.66672
6100.62141,0.66490
6098.69266,0.66445
6096.76392,0.66612
6094.83517,0.66700
6092.90643,0.66683
6090.97768,0.66711
6089.04893,0.66678
6087.12019,0.66532
6085.19144,0.66390
6083.26270,0.66335
6081.33395,0.66359
6079.40521,0.66411
6077.47646,0.66493
6075.54772,0.66572
6073.61897,0.66556
6071.69023,0.66446
6069.76148,0.66352
6067.83274,0.66375
6065.90399,0.66483
6063.97525,0.66560
6062.04650,0.66572
6060.11776,0.66493
6058.18901,0.66348
6056.26026,0.66297
6054.33152,0.66331
6052.40277,0.66258
6050.47403,0.66100
6048.54528,0.65982
6046.61654,0.65911
6044.68779,0.65920
6042.75905,0.66022
6040.83030,0.66093
6038.90156,0.65990
6036.97281,0.65779
6035.04407,0.65694
6033.11532,0.65711
6031.18658,0.65620
6029.25783,0.65481
6027.32909,0.65463
6025.40034,0.65530
6023.47159,0.65568
6021.54285,0.65549
6019.61410,0.65501
6017.68536,0.65446
6015.75661,0.65367
6013.82787,0.65266
6011.89912,0.65216
6009.97038,0.65173
6008.04163,0.65018
6006.11289,0.64837
6004.18414,0.64756
6002.25540,0.64771
6000.32665,0.64825
5998.39791,0.64804
5996.46916,0.64725
5994.54041,0.64760
5992.61167,0.64925
5990.68292,0.65052
5988.75418,0.64997
5986.82543,0.64871
5984.89669,0.64917
5982.96794,0.65062
5981.03920,0.65014
5979.11045,0.64773
5977.18171,0.64555
5975.25296,0.64470
5973.32422,0.64522
5971.39547,0.64625
5969.46673,0.64667
5967.53798,0.64654
5965.60924,0.64619
5963.68049,0.64551
5961.75174,0.64492
5959.82300,0.64451
5957.89425,0.64426
5955.96551,0.64551
5954.03676,0.64766
5952.10802,0.64735
5950.17927,0.64446
5948.25053,0.64291
5946.32178,0.64452
5944.39304,0.64715
5942.46429,0.64881
5940.53555,0.64917
5938.60680,0.64857
5936.67806,0.64765
5934.74931,0.64679
5932.82057,0.64639
5930.89182,0.64647
5928.96307,0.64615
5927.03433,0.64538
5925.10558,0.64531
5923.17684,0.64589
5921.24809,0.64611
5919.31935,0.64631
5917.39060,0.64696
5915.46186,0.64700
5913.53311,0.64590
5911.60437,0.64487
5909.67562,0.64441
5907.74688,0.64383
5905.81813,0.64341
5903.88939,0.64383
5901.96064,0.64394
5900.03189,0.64221
5898.10315,0.64011
5896.17440,0.63961
5894.24566,0.63991
5892.31691,0.64036
5890.38817,0.64086
5888.45942,0.64055
5886.53068,0.63994
5884.60193,0.64044
5882.67319,0.64135
5880.74444,0.64106
5878.81570,0.64026
5876.88695,0.64052
5874.95821,0.64138
5873.02946,0.64103
5871.10072,0.63993
5869.17197,0.64014
5867.24322,0.64057
5865.31448,0.63980
5863.38573,0.63906
5861.45699,0.63898
5859.52824,0.63945
5857.59950,0.63996
5855.67075,0.63966
5853.74201,0.63941
5851.81326,0.63983
5849.88452,0.64006
5847.95577,0.64069
5846.02703,0.64142
5844.09828,0.64022
5842.16954,0.63788
5840.24079,0.63653
5838.31205,0.63635
5836.38330,0.63719
5834.45455,0.63902
5832.52581,0.64046
5830.59706,0.63948
5828.66832,0.63658
5826.73957,0.63452
5824.81083,0.63432
5822.88208,0.63474
5820.95334,0.63518
5819.02459,0.63572
5817.09585,0.63535
5815.16710,0.63385
5813.23836,0.63279
5811.30961,0.63266
5809.38087,0.63252
5807.45212,0.63242
5805.52337,0.63299
5803.59463,0.63388
5801.66588,0.63425
5799.73714,0.63396
5797.80839,0.63364
5795.87965,0.63365
5793.95090,0.63390
5792.02216,0.63408
5790.09341,0.63373
5788.16467,0.63349
5786.23592,0.63401
5784.30718,0.63518
5782.37843,0.63661
5780.44969,0.63661
5778.52094,0.63478
5776.59220,0.63394
5774.66345,0.63539
5772.73470,0.63681
5770.80596,0.63645
5768.87721,0.63549
5766.94847,0.63547
5765.01972,0.63622
5763.09098,0.63678
5761.16223,0.63687
5759.23349,0.63675
5757.30474,0.63653
5755.37600,0.63657
5753.44725,0.63696
5751.51851,0.63735
5749.58976,0.63797
5747.66102,0.63852
5745.73227,0.63789
5743.80352,0.63666
5741.87478,0.63602
5739.94603,0.63567
5738.01729,0.63567
5736.08854,0.63643
5734.15980,0.63710
5732.23105,0.63664
5730.30231,0.63566
5728.37356,0.63591
5726.44482,0.63748
5724.51607,0.63800
5722.58733,0.63638
5720.65858,0.63466
5718.72984,0.63437
5716.80109,0.63512
5714.87235,0.63614
5712.94360,0.63674
5711.01485,0.63703
5709.08611,0.63760
5707.15736,0.63777
5705.22862,0.63672
5703.29987,0.63570
5701.37113,0.63545
5699.44238,0.63495
5697.51364,0.63466
5695.58489,0.63579
5693.65615,0.63698
5691.72740,0.63643
5689.79866,0.63551
5687.86991,0.63634
5685.94117,0.63750
5684.01242,0.63688
5682.08368,0.63547
5680.15493,0.63488
5678.22618,0.63545
5676.29744,0.63706
5674.36869,0.63861
5672.43995,0.63866
5670.51120,0.63749
5668.58246,0.63626
5666.65371,0.63530
5664.72497,0.63453
5662.79622,0.63424
5660.86748,0.63499
5658.93873,0.63658
5657.00999,0.63780
5655.08124,0.63747
5653.15250,0.63602
5651.22375,0.63512
5649.29500,0.63537
5647.36626,0.63618
5645.43751,0.63668
5643.50877,0.63599
5641.58002,0.63476
5639.65128,0.63426
5637.72253,0.63416
5635.79379,0.63379
5633.86504,0.63316
5631.93630,0.63283
5630.00755,0.63360
5628.07881,0.63458
5626.15006,0.63452
5624.22132,0.63391
5622.29257,0.63330
5620.36383,0.63308
5618.43508,0.63399
5616.50633,0.63564
5614.57759,0.63679
5612.64884,0.63690
5610.72010,0.63680
5608.79135,0.63691
5606.86261,0.63603
5604.93386,0.63418
5603.00512,0.63273
5601.07637,0.63187
5599.14763,0.63193
5597.21888,0.63313
5595.29014,0.63389
5593.36139,0.63374
5591.43265,0.63392
5589.50390,0.63427
5587.57516,0.63422
5585.64641,0.63398
5583.71766,0.63383
5581.78892,0.63408
5579.86017,0.63505
5577.93143,0.63648
5576.00268,0.63750
5574.07394,0.63781
5572.14519,0.63767
5570.21645,0.63707
5568.28770,0.63643
5566.35896,0.63655
5564.43021,0.63694
5562.50147,0.63696
5560.57272,0.63700
5558.64398,0.63734
5556.71523,0.63780
5554.78648,0.63807
5552.85774,0.63807
5550.92899,0.63775
5549.00025,0.63733
5547.07150,0.63769
5545.14276,0.63903
5543.21401,0.64019
5541.28527,0.64042
5539.35652,0.64047
5537.42778,0.64068
5535.49903,0.64071
5533.57029,0.64067
5531.64154,0.64054
5529.71280,0.64021
5527.78405,0.63984
5525.85531,0.63954
5523.92656,0.63964
5521.99781,0.64053
5520.06907,0.64163
5518.14032,0.64241
5516.21158,0.64292
5514.28283,0.64296
5512.35409,0.64262
5510.42534,0.64225
5508.49660,0.64187
5506.56785,0.64157
5504.63911,0.64172
5502.71036,0.64208
5500.78162,0.64164
5498.85287,0.64078
5496.92413,0.64090
5494.99538,0.64193
5493.06664,0.64295
5491.13789,0.64322
5489.20914,0.64278
5487.28040,0.64232
5485.35165,0.64189
5483.42291,0.64162
5481.49416,0.64231
5479.56542,0.64355
5477.63667,0.64397
5475.70793,0.64362
5473.77918,0.64342
5471.85044,0.64353
5469.92169,0.64380
5467.99295,0.64434
5466.06420,0.64487
5464.13546,0.64474
5462.20671,0.64418
5460.27796,0.64456
5458.34922,0.64592
5456.42047,0.64685
5454.49173,0.64708
5452.56298,0.64704
5450.63424,0.64711
5448.70549,0.64724
5446.77675,0.64681
5444.84800,0.64653
5442.91926,0.64768
5440.99051,0.64933
5439.06177,0.64999
5437.13302,0.64966
5435.20428,0.64896
5433.27553,0.64875
5431.34679,0.64993
5429.41804,0.65199
5427.48929,0.65350
5425.56055,0.65355
5423.63180,0.65214
5421.70306,0.65078
5419.77431,0.65097
5417.84557,0.65197
5415.91682,0.65281
5413.98808,0.65348
5412.05933,0.65369
5410.13059,0.65372
5408.20184,0.65442
5406.27310,0.65547
5404.34435,0.65625
5402.41561,0.65688
5400.48686,0.65726
5398.55811,0.65717
5396.62937,0.65731
5394.70062,0.65778
5392.77188,0.65767
5390.84313,0.65749
5388.91439,0.65764
5386.98564,0.65732
5385.05690,0.65671
5383.12815,0.65642
5381.19941,0.65634
5379.27066,0.65650
5377.34192,0.65677
5375.41317,0.65653
5373.48443,0.65601
5371.55568,0.65601
5369.62694,0.65630
5367.69819,0.65618
5365.76944,0.65581
5363.84070,0.65563
5361.91195,0.65568
5359.98321,0.65573
5358.05446,0.65542
5356.12572,0.65453
5354.19697,0.65357
5352.26823,0.65369
5350.33948,0.65457
5348.41074,0.65430
5346.48199,0.65282
5344.55325,0.65211
5342.62450,0.65233
5340.69576,0.65244
5338.76701,0.65200
5336.83827,0.65074
5334.90952,0.64926
5332.98077,0.64834
5331.05203,0.64823
5329.12328,0.64840
5327.19454,0.64740
5325.26579,0.64533
5323.33705,0.64410
5321.40830,0.64404
5319.47956,0.64344
5317.55081,0.64140
5315.62207,0.63893
5313.69332,0.63728
5311.76458,0.63633
5309.83583,0.63485
5307.90709,0.63234
5305.97834,0.62975
5304.04959,0.62758
5302.12085,0.62521
5300.19210,0.62272
5298.26336,0.62067
5296.33461,0.61871
5294.40587,0.61612
5292.47712,0.61250
5290.54838,0.60869
5288.61963,0.60590
5286.69089,0.60346
5284.76214,0.60070
5282.83340,0.59770
5280.90465,0.59427
5278.97591,0.59027
5277.04716,0.58564
5275.11842,0.58076
5273.18967,0.57613
5271.26092,0.57208
5269.33218,0.56882
5267.40343,0.56582
5265.47469,0.56220
5263.54594,0.55797
5261.61720,0.55369
5259.68845,0.54969
5257.75971,0.54580
5255.83096,0.54183
5253.90222,0.53830
5251.97347,0.53557
5250.04473,0.53287
5248.11598,0.52914
5246.18724,0.52488
5244.25849,0.52187
5242.32975,0.51983
5240.40100,0.51727
5238.47225,0.51496
5236.54351,0.51340
5234.61476,0.51116
5232.68602,0.50799
5230.75727,0.50516
5228.82853,0.50320
5226.89978,0.50155
5224.97104,0.49960
5223.04229,0.49754
5221.11355,0.49582
5219.18480,0.49454
5217.25606,0.49379
5215.32731,0.49340
5213.39857,0.49282
5211.46982,0.49163
5209.54107,0.49004
5207.61233,0.48915
5205.68358,0.48931
5203.75484,0.48967
5201.82609,0.48983
5199.89735,0.48933
5197.96860,0.48785
5196.03986,0.48639
5194.11111,0.48602
5192.18237,0.48630
5190.25362,0.48670
5188.32488,0.48734
5186.39613,0.48784
5184.46739,0.48802
5182.53864,0.48845
5180.60990,0.48906
5178.68115,0.48944
5176.75240,0.48992
5174.82366,0.49059
5172.89491,0.49107
5170.96617,0.49185
5169.03742,0.49332
5167.10868,0.49471
5165.17993,0.49557
5163.25119,0.49592
5161.32244,0.49584
5159.39370,0.49586
5157.46495,0.49664
5155.53621,0.49816
5153.60746,0.49948
5151.67872,0.50012
5149.74997,0.50099
5147.82123,0.50268
5145.89248,0.50427
5143.96373,0.50501
5142.03499,0.50582
5140.10624,0.50728
5138.17750,0.50844
5136.24875,0.50930
5134.32001,0.51051
5132.39126,0.51179
5130.46252,0.51274
5128.53377,0.51352
5126.60503,0.51474
5124.67628,0.51632
5122.74754,0.51775
5120.81879,0.51936
5118.89005,0.52102
5116.96130,0.52184
5115.03255,0.52214
5113.10381,0.52278
5111.17506,0.52371
5109.24632,0.52458
5107.31757,0.52580
5105.38883,0.52731
5103.46008,0.52806
5101.53134,0.52792
5099.60259,0.52794
5097.67385,0.52864
5095.74510,0.52992
5093.81636,0.53159
5091.88761,0.53318
5089.95887,0.53407
5088.03012,0.53458
5086.10138,0.53547
5084.17263,0.53675
5082.24388,0.53780
5080.31514,0.53867
5078.38639,0.53969
5076.45765,0.54074
5074.52890,0.54189
5072.60016,0.54319
5070.67141,0.54422
5068.74267,0.54459
5066.81392,0.54497
5064.88518,0.54616
5062.95643,0.54768
5061.02769,0.54924
5059.09894,0.55077
5057.17020,0.55152
5055.24145,0.55195
5053.31270,0.55307
5051.38396,0.55436
5049.45521,0.55491
5047.52647,0.55472
5045.59772,0.55466
5043.66898,0.55536
5041.74023,0.55634
5039.81149,0.55701
5037.88274,0.55795
5035.95400,0.55945
5034.02525,0.56074
5032.09651,0.56129
5030.16776,0.56118
5028.23902,0.56118
5026.31027,0.56197
5024.38153,0.56279
5022.45278,0.56305
5020.52403,0.56358
5018.59529,0.56426
5016.66654,0.56420
5014.73780,0.56381
5012.80905,0.56387
5010.88031,0.56462
5008.95156,0.56563
5007.02282,0.56580
5005.09407,0.56498
5003.16533,0.56449
5001.23658,0.56499
4999.30784,0.56566
4997.37909,0.56559
4995.45035,0.56504
4993.52160,0.56485
4991.59286,0.56509
4989.66411,0.56514
4987.73536,0.56492
4985.80662,0.56494
4983.87787,0.56516
4981.94913,0.56479
4980.02038,0.56366
4978.09164,0.56252
4976.16289,0.56187
4974.23415,0.56148
4972.30540,0.56080
4970.37666,0.55963
4968.44791,0.55836
4966.51917,0.55762
4964.59042,0.55745
4962.66168,0.55720
4960.73293,0.55637
4958.80418,0.55506
4956.87544,0.55337
4954.94669,0.55140
4953.01795,0.54973
4951.08920,0.54879
4949.16046,0.54816
4947.23171,0.54711
4945.30297,0.54546
4943.37422,0.54361
4941.44548,0.54152
4939.51673,0.53909
4937.58799,0.53730
4935.65924,0.53667
4933.73050,0.53603
4931.80175,0.53447
4929.87301,0.53242
4927.94426,0.53052
4926.01551,0.52883
4924.08677,0.52739
4922.15802,0.52597
4920.22928,0.52407
4918.30053,0.52189
4916.37179,0.52000
4914.44304,0.51865
4912.51430,0.51742
4910.58555,0.51576
4908.65681,0.51405
4906.72806,0.51271
4904.79932,0.51115
4902.87057,0.50875
4900.94183,0.50611
4899.01308,0.50437
4897.08434,0.50335
4895.15559,0.50228
4893.22684,0.50088
4891.29810,0.49880
4889.36935,0.49627
4887.44061,0.49455
4885.51186,0.49364
4883.58312,0.49226
4881.65437,0.49044
4879.72563,0.48888
4877.79688,0.48761
4875.86814,0.48629
4873.93939,0.48485
4872.01065,0.48350
4870.08190,0.48224
4868.15316,0.48085
4866.22441,0.47912
4864.29566,0.47729
4862.36692,0.47579
4860.43817,0.47463
4858.50943,0.47354
4856.58068,0.47220
4854.65194,0.47062
4852.72319,0.46915
4850.79445,0.46801
4848.86570,0.46713
4846.93696,0.46633
4845.00821,0.46544
4843.07947,0.46435
4841.15072,0.46289
4839.22198,0.46106
4837.29323,0.45960
4835.36449,0.45879
4833.43574,0.45791
4831.50699,0.45678
4829.57825,0.45592
4827.64950,0.45510
4825.72076,0.45380
4823.79201,0.45261
4821.86327,0.45196
4819.93452,0.45107
4818.00578,0.44952
4816.07703,0.44794
4814.14829,0.44699
4812.21954,0.44648
4810.29080,0.44597
4808.36205,0.44560
4806.43331,0.44539
4804.50456,0.44485
4802.57582,0.44397
4800.64707,0.44320
4798.71832,0.44275
4796.78958,0.44282
4794.86083,0.44291
4792.93209,0.44216
4791.00334,0.44131
4789.07460,0.44135
4787.14585,0.44145
4785.21711,0.44065
4783.28836,0.43963
4781.35962,0.43924
4779.43087,0.43906
4777.50213,0.43835
4775.57338,0.43739
4773.64464,0.43696
4771.71589,0.43699
4769.78714,0.43720
4767.85840,0.43747
4765.92965,0.43739
4764.00091,0.43685
4762.07216,0.43612
4760.14342,0.43563
4758.21467,0.43548
4756.28593,0.43526
4754.35718,0.43506
4752.42844,0.43520
4750.49969,0.43569
4748.57095,0.43629
4746.64220,0.43662
4744.71346,0.43635
4742.78471,0.43592
4740.85597,0.43620
4738.92722,0.43694
4736.99847,0.43703
4735.06973,0.43662
4733.14098,0.43650
4731.21224,0.43665
4729.28349,0.43685
4727.35475,0.43722
4725.42600,0.43754
4723.49726,0.43761
4721.56851,0.43786
4719.63977,0.43846
4717.71102,0.43848
4715.78228,0.43774
4713.85353,0.43747
4711.92479,0.43808
4709.99604,0.43871
4708.06729,0.43892
4706.13855,0.43884
4704.20980,0.43886
4702.28106,0.43951
4700.35231,0.44050
4698.42357,0.44108
4696.49482,0.44122
4694.56608,0.44139
4692.63733,0.44177
4690.70859,0.44186
4688.77984,0.44164
4686.85110,0.44183
4684.92235,0.44250
4682.99361,0.44306
4681.06486,0.44347
4679.13612,0.44374
4677.20737,0.44357
4675.27862,0.44334
4673.34988,0.44369
4671.42113,0.44451
4669.49239,0.44538
4667.56364,0.44628
4665.63490,0.44699
4663.70615,0.44713
4661.77741,0.44723
4659.84866,0.44813
4657.91992,0.44961
4655.99117,0.45097
4654.06243,0.45182
4652.13368,0.45231
4650.20494,0.45269
4648.27619,0.45309
4646.34745,0.45376
4644.41870,0.45477
4642.48995,0.45599
4640.56121,0.45707
4638.63246,0.45783
4636.70372,0.45828
4634.77497,0.45845
4632.84623,0.45878
4630.91748,0.45958
4628.98874,0.46057
4627.05999,0.46149
4625.13125,0.46228
4623.20250,0.46320
4621.27376,0.46453
4619.34501,0.46624
4617.41627,0.46781
4615.48752,0.46852
4613.55877,0.46846
4611.63003,0.46851
4609.70128,0.46947
4607.77254,0.47148
4605.84379,0.47332
4603.91505,0.47391
4601.98630,0.47422
4600.05756,0.47505
4598.12881,0.47575
4596.20007,0.47634
4594.27132,0.47721
4592.34258,0.47780
4590.41383,0.47810
4588.48509,0.47909
4586.55634,0.48050
4584.62760,0.48120
4582.69885,0.48146
4580.77010,0.48206
4578.84136,0.48272
4576.91261,0.48306
4574.98387,0.48346
4573.05512,0.48433
4571.12638,0.48527
4569.19763,0.48578
4567.26889,0.48597
4565.34014,0.48613
4563.41140,0.48636
4561.48265,0.48672
4559.55391,0.48739
4557.62516,0.48831
4555.69642,0.48913
4553.76767,0.48969
4551.83893,0.48997
4549.91018,0.49014
4547.98143,0.49058
4546.05269,0.49136
4544.12394,0.49227
4542.19520,0.49293
4540.26645,0.49298
4538.33771,0.49268
4536.40896,0.49256
4534.48022,0.49266
4532.55147,0.49294
4530.62273,0.49345
4528.69398,0.49389
4526.76524,0.49386
4524.83649,0.49342
4522.90775,0.49306
4520.97900,0.49316
4519.05025,0.49364
4517.12151,0.49424
4515.19276,0.49444
4513.26402,0.49402
4511.33527,0.49370
4509.40653,0.49374
4507.47778,0.49365
4505.54904,0.49317
4503.62029,0.49265
4501.69155,0.49207
4499.76280,0.49095
4497.83406,0.48943
4495.90531,0.48818
4493.97657,0.48770
4492.04782,0.48758
4490.11908,0.48695
4488.19033,0.48594
4486.26158,0.48510
4484.33284,0.48407
4482.40409,0.48249
4480.47535,0.48047
4478.54660,0.47815
4476.61786,0.47589
4474.68911,0.47405
4472.76037,0.47254
4470.83162,0.47095
4468.90288,0.46910
4466.97413,0.46714
4465.04539,0.46499
4463.11664,0.46263
4461.18790,0.46039
4459.25915,0.45837
4457.33041,0.45651
4455.40166,0.45475
4453.47291,0.45284
4451.54417,0.45041
4449.61542,0.44749
4447.68668,0.44457
4445.75793,0.44192
4443.82919,0.43960
4441.90044,0.43746
4439.97170,0.43541
4438.04295,0.43354
4436.11421,0.43164
4434.18546,0.42941
4432.25672,0.42694
4430.32797,0.42440
4428.39923,0.42185
4426.47048,0.41944
4424.54173,0.41707
4422.61299,0.41465
4420.68424,0.41235
4418.75550,0.41008
4416.82675,0.40794
4414.89801,0.40622
4412.96926,0.40458
4411.04052,0.40271
4409.11177,0.40091
4407.18303,0.39960
4405.25428,0.39879
4403.32554,0.39816
4401.39679,0.39757
4399.46805,0.39727
4397.53930,0.39725
4395.61056,0.39711
4393.68181,0.39674
4391.75306,0.39663
4389.82432,0.39707
4387.89557,0.39765
4385.96683,0.39810
4384.03808,0.39850
4382.10934,0.39892
4380.18059,0.39951
4378.25185,0.40042
4376.32310,0.40149
4374.39436,0.40253
4372.46561,0.40334
4370.53687,0.40399
4368.60812,0.40462
4366.67938,0.40513
4364.75063,0.40562
4362.82189,0.40628
4360.89314,0.40688
4358.96439,0.40732
4357.03565,0.40753
4355.10690,0.40727
4353.17816,0.40695
4351.24941,0.40713
4349.32067,0.40719
4347.39192,0.40664
4345.46318,0.40609
4343.53443,0.40597
4341.60569,0.40595
4339.67694,0.40577
4337.74820,0.40542
4335.81945,0.40495
4333.89071,0.40457
4331.96196,0.40425
4330.03321,0.40362
4328.10447,0.40266
4326.17572,0.40161
4324.24698,0.40095
4322.31823,0.40059
4320.38949,0.39993
4318.46074,0.39897
4316.53200,0.39798
4314.60325,0.39697
4312.67451,0.39607
4310.74576,0.39530
4308.81702,0.39460
4306.88827,0.39395
4304.95953,0.39337
4303.03078,0.39296
4301.10204,0.39240
4299.17329,0.39138
4297.24454,0.39030
4295.31580,0.38957
4293.38705,0.38883
4291.45831,0.38809
4289.52956,0.38761
4287.60082,0.38718
4285.67207,0.38672
4283.74333,0.38634
4281.81458,0.38599
4279.88584,0.38570
4277.95709,0.38550
4276.02835,0.38558
4274.09960,0.38592
4272.17086,0.38616
4270.24211,0.38631
4268.31336,0.38673
4266.38462,0.38738
4264.45587,0.38791
4262.52713,0.38832
4260.59838,0.38869
4258.66964,0.38883
4256.74089,0.38889
4254.81215,0.38929
4252.88340,0.38994
4250.95466,0.39046
4249.02591,0.39075
4247.09717,0.39097
4245.16842,0.39130
4243.23968,0.39172
4241.31093,0.39207
4239.38219,0.39234
4237.45344,0.39254
4235.52469,0.39269
4233.59595,0.39290
4231.66720,0.39315
4229.73846,0.39336
4227.80971,0.39332
4225.88097,0.39300
4223.95222,0.39283
4222.02348,0.39298
4220.09473,0.39307
4218.16599,0.39281
4216.23724,0.39228
4214.30850,0.39183
4212.37975,0.39177
4210.45101,0.39210
4208.52226,0.39245
4206.59352,0.39253
4204.66477,0.39246
4202.73602,0.39255
4200.80728,0.39280
4198.87853,0.39321
4196.94979,0.39374
4195.02104,0.39377
4193.09230,0.39329
4191.16355,0.39322
4189.23481,0.39363
4187.30606,0.39415
4185.37732,0.39486
4183.44857,0.39541
4181.51983,0.39547
4179.59108,0.39554
4177.66234,0.39600
4175.73359,0.39655
4173.80484,0.39707
4171.87610,0.39754
4169.94735,0.39791
4168.01861,0.39823
4166.08986,0.39857
4164.16112,0.39878
4162.23237,0.39881
4160.30363,0.39890
4158.37488,0.39908
4156.44614,0.39906
4154.51739,0.39868
4152.58865,0.39808
4150.65990,0.39758
4148.73116,0.39718
4146.80241,0.39653
4144.87367,0.39562
4142.94492,0.39478
4141.01617,0.39404
4139.08743,0.39333
4137.15868,0.39252
4135.22994,0.39149
4133.30119,0.39030
4131.37245,0.38903
4129.44370,0.38786
4127.51496,0.38687
4125.58621,0.38572
4123.65747,0.38427
4121.72872,0.38288
4119.79998,0.38185
4117.87123,0.38084
4115.94249,0.37936
4114.01374,0.37768
4112.08500,0.37626
4110.15625,0.37497
4108.22750,0.37361
4106.29876,0.37203
4104.37001,0.37019
4102.44127,0.36842
4100.51252,0.36676
4098.58378,0.36495
4096.65503,0.36312
4094.72629,0.36139
4092.79754,0.35964
4090.86880,0.35798
4088.94005,0.35635
4087.01131,0.35446
4085.08256,0.35249
4083.15382,0.35070
4081.22507,0.34900
4079.29632,0.34748
4077.36758,0.34631
4075.43883,0.34510
4073.51009,0.34333
4071.58134,0.34116
4069.65260,0.33907
4067.72385,0.33719
4065.79511,0.33536
4063.86636,0.33353
4061.93762,0.33172
4060.00887,0.32985
4058.08013,0.32783
4056.15138,0.32584
4054.22264,0.32415
4052.29389,0.32292
4050.36515,0.32186
4048.43640,0.32035
4046.50765,0.31853
4044.57891,0.31694
4042.65016,0.31562
4040.72142,0.31430
4038.79267,0.31290
4036.86393,0.31170
4034.93518,0.31083
4033.00644,0.30983
4031.07769,0.30857
4029.14895,0.30753
4027.22020,0.30676
4025.29146,0.30600
4023.36271,0.30551
4021.43397,0.30527
4019.50522,0.30476
4017.57648,0.30405
4015.64773,0.30368
4013.71898,0.30365
4011.79024,0.30352
4009.86149,0.30334
4007.93275,0.30331
4006.00400,0.30345
4004.07526,0.30383
4002.14651,0.30437
4000.21777,0.30470
3998.28902,0.30480
3996.36028,0.30494
3994.43153,0.30537
3992.50279,0.30618
3990.57404,0.30700
3988.64530,0.30742
3986.71655,0.30766
3984.78780,0.30814
3982.85906,0.30868
3980.93031,0.30908
3979.00157,0.30961
3977.07282,0.31022
3975.14408,0.31051
3973.21533,0.31073
3971.28659,0.31131
3969.35784,0.31210
3967.42910,0.31284
3965.50035,0.31373
3963.57161,0.31475
3961.64286,0.31548
3959.71412,0.31598
3957.78537,0.31660
3955.85663,0.31743
3953.92788,0.31841
3951.99913,0.31928
3950.07039,0.31998
3948.14164,0.32088
3946.21290,0.32190
3944.28415,0.32265
3942.35541,0.32337
3940.42666,0.32423
3938.49792,0.32513
3936.56917,0.32605
3934.64043,0.32696
3932.71168,0.32793
3930.78294,0.32917
3928.85419,0.33053
3926.92545,0.33161
3924.99670,0.33249
3923.06795,0.33333
3921.13921,0.33391
3919.21046,0.33430
3917.28172,0.33491
3915.35297,0.33586
3913.42423,0.33690
3911.49548,0.33771
3909.56674,0.33835
3907.63799,0.33907
3905.70925,0.33987
3903.78050,0.34059
3901.85176,0.34142
3899.92301,0.34239
3897.99427,0.34313
3896.06552,0.34373
3894.13678,0.34453
3892.20803,0.34553
3890.27928,0.34657
3888.35054,0.34740
3886.42179,0.34802
3884.49305,0.34860
3882.56430,0.34926
3880.63556,0.34979
3878.70681,0.35019
3876.77807,0.35081
3874.84932,0.35167
3872.92058,0.35248
3870.99183,0.35319
3869.06309,0.35398
3867.13434,0.35482
3865.20560,0.35563
3863.27685,0.35649
3861.34811,0.35746
3859.41936,0.35832
3857.49061,0.35894
3855.56187,0.35951
3853.63312,0.36044
3851.70438,0.36172
3849.77563,0.36265
3847.84689,0.36312
3845.91814,0.36352
3843.98940,0.36427
3842.06065,0.36533
3840.13191,0.36619
3838.20316,0.36672
3836.27442,0.36716
3834.34567,0.36743
3832.41693,0.36762
3830.48818,0.36802
3828.55943,0.36831
3826.63069,0.36822
3824.70194,0.36820
3822.77320,0.36848
3820.84445,0.36876
3818.91571,0.36906
3816.98696,0.36928
3815.05822,0.36901
3813.12947,0.36839
3811.20073,0.36790
3809.27198,0.36782
3807.34324,0.36801
3805.41449,0.36817
3803.48575,0.36836
3801.55700,0.36845
3799.62826,0.36820
3797.69951,0.36787
3795.77076,0.36749
3793.84202,0.36698
3791.91327,0.36666
3789.98453,0.36659
3788.05578,0.36646
3786.12704,0.36627
3784.19829,0.36620
3782.26955,0.36607
3780.34080,0.36557
3778.41206,0.36492
3776.48331,0.36453
3774.55457,0.36417
3772.62582,0.36376
3770.69708,0.36360
3768.76833,0.36337
3766.83959,0.36274
3764.91084,0.36201
3762.98209,0.36134
3761.05335,0.36062
3759.12460,0.35987
3757.19586,0.35912
3755.26711,0.35827
3753.33837,0.35745
3751.40962,0.35683
3749.48088,0.35604
3747.55213,0.35511
3745.62339,0.35411
3743.69464,0.35272
3741.76590,0.35126
3739.83715,0.35010
3737.90841,0.34910
3735.97966,0.34797
3734.05091,0.34654
3732.12217,0.34489
3730.19342,0.34322
3728.26468,0.34151
3726.33593,0.33960
3724.40719,0.33762
3722.47844,0.33586
3720.54970,0.33417
3718.62095,0.33197
3716.69221,0.32939
3714.76346,0.32714
3712.83472,0.32518
3710.90597,0.32271
3708.97723,0.31948
3707.04848,0.31608
3705.11974,0.31308
3703.19099,0.31015
3701.26224,0.30655
3699.33350,0.30268
3697.40475,0.29902
3695.47601,0.29516
3693.54726,0.29113
3691.61852,0.28709
3689.68977,0.28216
3687.76103,0.27592
3685.83228,0.26983
3683.90354,0.26444
3681.97479,0.25909
3680.04605,0.25350
3678.11730,0.24769
3676.18856,0.24076
3674.25981,0.23297
3672.33107,0.22624
3670.40232,0.21942
3668.47357,0.21178
3666.54483,0.20507
3664.61608,0.19925
3662.68734,0.19337
3660.75859,0.18739
3658.82985,0.18168
3656.90110,0.17602
3654.97236,0.17056
3653.04361,0.16594
3651.11487,0.16135
3649.18612,0.15593
3647.25738,0.15058
3645.32863,0.14624
3643.39989,0.14243
3641.47114,0.13848
3639.54239,0.13445
3637.61365,0.13072
3635.68490,0.12738
3633.75616,0.12439
3631.82741,0.12176
3629.89867,0.11880
3627.96992,0.11522
3626.04118,0.11246
3624.11243,0.11045
3622.18369,0.10828
3620.25494,0.10567
3618.32620,0.10290
3616.39745,0.10057
3614.46871,0.09856
3612.53996,0.09669
3610.61122,0.09494
3608.68247,0.09282
3606.75372,0.09044
3604.82498,0.08827
3602.89623,0.08611
3600.96749,0.08405
3599.03874,0.08250
3597.11000,0.08122
3595.18125,0.07985
3593.25251,0.07848
3591.32376,0.07726
3589.39502,0.07591
3587.46627,0.07419
3585.53753,0.07254
3583.60878,0.07136
3581.68004,0.07019
3579.75129,0.06882
3577.82254,0.06768
3575.89380,0.06681
3573.96505,0.06579
3572.03631,0.06475
3570.10756,0.06395
3568.17882,0.06315
3566.25007,0.06210
3564.32133,0.06104
3562.39258,0.06026
3560.46384,0.05958
3558.53509,0.05888
3556.60635,0.05825
3554.67760,0.05754
3552.74886,0.05673
3550.82011,0.05624
3548.89137,0.05594
3546.96262,0.05525
3545.03387,0.05439
3543.10513,0.05383
3541.17638,0.05345
3539.24764,0.05294
3537.31889,0.05229
3535.39015,0.05183
3533.46140,0.05177
3531.53266,0.05175
3529.60391,0.05130
3527.67517,0.05048
3525.74642,0.04977
3523.81768,0.04926
3521.88893,0.04862
3519.96019,0.04801
3518.03144,0.04783
3516.10270,0.04792
3514.17395,0.04780
3512.24520,0.04741
3510.31646,0.04700
3508.38771,0.04677
3506.45897,0.04676
3504.53022,0.04673
3502.60148,0.04623
3500.67273,0.04534
3498.74399,0.04466
3496.81524,0.04445
3494.88650,0.04445
3492.95775,0.04434
3491.02901,0.04409
3489.10026,0.04378
3487.17152,0.04362
3485.24277,0.04365
3483.31402,0.04352
3481.38528,0.04306
3479.45653,0.04274
3477.52779,0.04278
3475.59904,0.04286
3473.67030,0.04284
3471.74155,0.04287
3469.81281,0.04284
3467.88406,0.04273
3465.95532,0.04272
3464.02657,0.04261
3462.09783,0.04232
3460.16908,0.04217
3458.24034,0.04204
3456.31159,0.04157
3454.38285,0.04103
3452.45410,0.04095
3450.52535,0.04130
3448.59661,0.04151
3446.66786,0.04114
3444.73912,0.04061
3442.81037,0.04055
3440.88163,0.04080
3438.95288,0.04091
3437.02414,0.04086
3435.09539,0.04088
3433.16665,0.04094
3431.23790,0.04088
3429.30916,0.04084
3427.38041,0.04092
3425.45167,0.04094
3423.52292,0.04079
3421.59418,0.04074
3419.66543,0.04084
3417.73668,0.04080
3415.80794,0.04059
3413.87919,0.04035
3411.95045,0.04012
3410.02170,0.04005
3408.09296,0.04004
3406.16421,0.04001
3404.23547,0.04016
3402.30672,0.04028
3400.37798,0.04018
3398.44923,0.04027
3396.52049,0.04073
3394.59174,0.04116
3392.66300,0.04115
3390.73425,0.04094
3388.80550,0.04099
3386.87676,0.04135
3384.94801,0.04166
3383.01927,0.04165
3381.09052,0.04146
3379.16178,0.04115
3377.23303,0.04074
3375.30429,0.04053
3373.37554,0.04057
3371.44680,0.04068
3369.51805,0.04090
3367.58931,0.04119
3365.66056,0.04132
3363.73182,0.04115
3361.80307,0.04090
3359.87433,0.04079
3357.94558,0.04095
3356.01683,0.04117
3354.08809,0.04117
3352.15934,0.04124
3350.23060,0.04160
3348.30185,0.04199
3346.37311,0.04227
3344.44436,0.04245
3342.51562,0.04264
3340.58687,0.04287
3338.65813,0.04318
3336.72938,0.04358
3334.80064,0.04381
3332.87189,0.04379
3330.94315,0.04368
3329.01440,0.04372
3327.08566,0.04403
3325.15691,0.04448
3323.22816,0.04480
3321.29942,0.04494
3319.37067,0.04495
3317.44193,0.04503
3315.51318,0.04543
3313.58444,0.04599
3311.65569,0.04622
3309.72695,0.04616
3307.79820,0.04627
3305.86946,0.04659
3303.94071,0.04689
3302.01197,0.04707
3300.08322,0.04719
3298.15448,0.04737
3296.22573,0.04761
3294.29698,0.04779
3292.36824,0.04783
3290.43949,0.04775
3288.51075,0.04776
3286.58200,0.04805
3284.65326,0.04831
3282.72451,0.04830
3280.79577,0.04842
3278.86702,0.04890
3276.93828,0.04945
3275.00953,0.04983
3273.08079,0.05010
3271.15204,0.05035
3269.22330,0.05048
3267.29455,0.05067
3265.36581,0.05114
3263.43706,0.05167
3261.50831,0.05202
3259.57957,0.05228
3257.65082,0.05260
3255.72208,0.05303
3253.79333,0.05339
3251.86459,0.05360
3249.93584,0.05384
3248.00710,0.05420
3246.07835,0.05463
3244.14961,0.05502
3242.22086,0.05536
3240.29212,0.05577
3238.36337,0.05620
3236.43463,0.05659
3234.50588,0.05688
3232.57713,0.05720
3230.64839,0.05766
3228.71964,0.05792
3226.79090,0.05790
3224.86215,0.05813
3222.93341,0.05876
3221.00466,0.05946
3219.07592,0.05994
3217.14717,0.06022
3215.21843,0.06043
3213.28968,0.06063
3211.36094,0.06093
3209.43219,0.06143
3207.50345,0.06212
3205.57470,0.06276
3203.64596,0.06300
3201.71721,0.06309
3199.78846,0.06340
3197.85972,0.06377
3195.93097,0.06414
3194.00223,0.06462
3192.07348,0.06528
3190.14474,0.06609
3188.21599,0.06677
3186.28725,0.06719
3184.35850,0.06753
3182.42976,0.06796
3180.50101,0.06847
3178.57227,0.06899
3176.64352,0.06945
3174.71478,0.06989
3172.78603,0.07050
3170.85729,0.07117
3168.92854,0.07165
3166.99979,0.07209
3165.07105,0.07259
3163.14230,0.07307
3161.21356,0.07355
3159.28481,0.07404
3157.35607,0.07446
3155.42732,0.07487
3153.49858,0.07525
3151.56983,0.07558
3149.64109,0.07606
3147.71234,0.07664
3145.78360,0.07700
3143.85485,0.07725
3141.92611,0.07782
3139.99736,0.07874
3138.06861,0.07961
3136.13987,0.08018
3134.21112,0.08052
3132.28238,0.08086
3130.35363,0.08137
3128.42489,0.08206
3126.49614,0.08274
3124.56740,0.08326
3122.63865,0.08367
3120.70991,0.08404
3118.78116,0.08435
3116.85242,0.08477
3114.92367,0.08555
3112.99493,0.08648
3111.06618,0.08705
3109.13744,0.08726
3107.20869,0.08753
3105.27994,0.08801
3103.35120,0.08858
3101.42245,0.08916
3099.49371,0.08971
3097.56496,0.09024
3095.63622,0.09071
3093.70747,0.09107
3091.77873,0.09146
3089.84998,0.09188
3087.92124,0.09230
3085.99249,0.09262
3084.06375,0.09277
3082.13500,0.09311
3080.20626,0.09375
3078.27751,0.09426
3076.34877,0.09453
3074.42002,0.09476
3072.49127,0.09508
3070.56253,0.09558
3068.63378,0.09627
3066.70504,0.09702
3064.77629,0.09765
3062.84755,0.09810
3060.91880,0.09853
3058.99006,0.09908
3057.06131,0.09971
3055.13257,0.10029
3053.20382,0.10077
3051.27508,0.10131
3049.34633,0.10204
3047.41759,0.10276
3045.48884,0.10320
3043.56009,0.10342
3041.63135,0.10363
3039.70260,0.10395
3037.77386,0.10432
3035.84511,0.10447
3033.91637,0.10445
3031.98762,0.10464
3030.05888,0.10484
3028.13013,0.10481
3026.20139,0.10480
3024.27264,0.10487
3022.34390,0.10473
3020.41515,0.10434
3018.48641,0.10392
3016.55766,0.10351
3014.62892,0.10299
3012.70017,0.10248
3010.77142,0.10212
3008.84268,0.10185
3006.91393,0.10146
3004.98519,0.10076
3003.05644,0.09989
3001.12770,0.09910
2999.19895,0.09852
2997.27021,0.09813
2995.34146,0.09761
2993.41272,0.09675
2991.48397,0.09585
2989.55523,0.09498
2987.62648,0.09388
2985.69774,0.09259
2983.76899,0.09117
2981.84025,0.08950
2979.91150,0.08767
2977.98275,0.08578
2976.05401,0.08382
2974.12526,0.08188
2972.19652,0.08004
2970.26777,0.07842
2968.33903,0.07717
2966.41028,0.07625
2964.48154,0.07541
2962.55279,0.07452
2960.62405,0.07374
2958.69530,0.07316
2956.76656,0.07248
2954.83781,0.07144
2952.90907,0.07036
2950.98032,0.06968
2949.05157,0.06896
2947.12283,0.06780
2945.19408,0.06666
2943.26534,0.06594
2941.33659,0.06550
2939.40785,0.06520
2937.47910,0.06495
2935.55036,0.06467
2933.62161,0.06435
2931.69287,0.06409
2929.76412,0.06405
2927.83538,0.06436
2925.90663,0.06479
2923.97789,0.06488
2922.04914,0.06475
2920.12040,0.06478
2918.19165,0.06499
2916.26290,0.06507
2914.33416,0.06492
2912.40541,0.06485
2910.47667,0.06498
2908.54792,0.06514
2906.61918,0.06518
2904.69043,0.06509
2902.76169,0.06511
2900.83294,0.06546
2898.90420,0.06611
2896.97545,0.06674
2895.04671,0.06708
2893.11796,0.06732
2891.18922,0.06770
2889.26047,0.06813
2887.33172,0.06856
2885.40298,0.06899
2883.47423,0.06926
2881.54549,0.06941
2879.61674,0.06971
2877.68800,0.07008
2875.75925,0.07033
2873.83051,0.07057
2871.90176,0.07106
2869.97302,0.07184
2868.04427,0.07266
2866.11553,0.07342
2864.18678,0.07422
2862.25804,0.07505
2860.32929,0.07564
2858.40055,0.07592
2856.47180,0.07637
2854.54305,0.07735
2852.61431,0.07869
2850.68556,0.08020
2848.75682,0.08174
2846.82807,0.08313
2844.89933,0.08441
2842.97058,0.08585
2841.04184,0.08748
2839.11309,0.08924
2837.18435,0.09120
2835.25560,0.09310
2833.32686,0.09476
2831.39811,0.09653
2829.46937,0.09852
2827.54062,0.10040
2825.61188,0.10217
2823.68313,0.10400
2821.75438,0.10575
2819.82564,0.10730
2817.89689,0.10878
2815.96815,0.11020
2814.03940,0.11158
2812.11066,0.11298
2810.18191,0.11442
2808.25317,0.11577
2806.32442,0.11694
2804.39568,0.11798
2802.46693,0.11889
2800.53819,0.11973
2798.60944,0.12063
2796.68070,0.12153
2794.75195,0.12245
2792.82320,0.12343
2790.89446,0.12420
2788.96571,0.12468
2787.03697,0.12518
2785.10822,0.12569
2783.17948,0.12607
2781.25073,0.12658
2779.32199,0.12726
2777.39324,0.12778
2775.46450,0.12805
2773.53575,0.12835
2771.60701,0.12878
2769.67826,0.12922
2767.74952,0.12957
2765.82077,0.12978
2763.89203,0.12997
2761.96328,0.13029
2760.03453,0.13072
2758.10579,0.13105
2756.17704,0.13125
2754.24830,0.13148
2752.31955,0.13159
2750.39081,0.13155
2748.46206,0.13167
2746.53332,0.13187
2744.60457,0.13184
2742.67583,0.13186
2740.74708,0.13216
2738.81834,0.13252
2736.88959,0.13279
2734.96085,0.13299
2733.03210,0.13320
2731.10336,0.13359
2729.17461,0.13413
2727.24586,0.13470
2725.31712,0.13531
2723.38837,0.13600
2721.45963,0.13663
2719.53088,0.13717
2717.60214,0.13766
2715.67339,0.13807
2713.74465,0.13841
2711.81590,0.13890
2709.88716,0.13965
2707.95841,0.14061
2706.02967,0.14162
2704.10092,0.14238
2702.17218,0.14285
2700.24343,0.14340
2698.31468,0.14408
2696.38594,0.14470
2694.45719,0.14541
2692.52845,0.14627
2690.59970,0.14701
2688.67096,0.14759
2686.74221,0.14837
2684.81347,0.14919
2682.88472,0.14953
2680.95598,0.14953
2679.02723,0.14975
2677.09849,0.15023
2675.16974,0.15071
2673.24100,0.15115
2671.31225,0.15177
2669.38351,0.15244
2667.45476,0.15290
2665.52601,0.15316
2663.59727,0.15346
2661.66852,0.15399
2659.73978,0.15468
2657.81103,0.15530
2655.88229,0.15570
2653.95354,0.15592
2652.02480,0.15617
2650.09605,0.15646
2648.16731,0.15679
2646.23856,0.15734
2644.30982,0.15798
2642.38107,0.15829
2640.45233,0.15837
2638.52358,0.15878
2636.59484,0.15952
2634.66609,0.16010
2632.73734,0.16054
2630.80860,0.16105
2628.87985,0.16162
2626.95111,0.16227
2625.02236,0.16298
2623.09362,0.16358
2621.16487,0.16407
2619.23613,0.16452
2617.30738,0.16486
2615.37864,0.16517
2613.44989,0.16567
2611.52115,0.16632
2609.59240,0.16697
2607.66366,0.16755
2605.73491,0.16799
2603.80616,0.16839
2601.87742,0.16888
2599.94867,0.16930
2598.01993,0.16970
2596.09118,0.17018
2594.16244,0.17059
2592.23369,0.17077
2590.30495,0.17095
2588.37620,0.17148
2586.44746,0.17230
2584.51871,0.17301
2582.58997,0.17346
2580.66122,0.17371
2578.73248,0.17391
2576.80373,0.17406
2574.87499,0.17420
2572.94624,0.17444
2571.01749,0.17473
2569.08875,0.17507
2567.16000,0.17551
2565.23126,0.17583
2563.30251,0.17592
2561.37377,0.17592
2559.44502,0.17587
2557.51628,0.17583
2555.58753,0.17596
2553.65879,0.17625
2551.73004,0.17656
2549.80130,0.17676
2547.87255,0.17689
2545.94381,0.17704
2544.01506,0.17723
2542.08631,0.17744
2540.15757,0.17765
2538.22882,0.17798
2536.30008,0.17845
2534.37133,0.17890
2532.44259,0.17923
2530.51384,0.17957
2528.58510,0.18006
2526.65635,0.18069
2524.72761,0.18137
2522.79886,0.18201
2520.87012,0.18256
2518.94137,0.18297
2517.01263,0.18328
2515.08388,0.18369
2513.15514,0.18428
2511.22639,0.18493
2509.29764,0.18563
2507.36890,0.18651
2505.44015,0.18743
2503.51141,0.18835
2501.58266,0.18933
2499.65392,0.19023
2497.72517,0.19101
2495.79643,0.19172
2493.86768,0.19246
2491.93894,0.19328
2490.01019,0.19406
2488.08145,0.19488
2486.15270,0.19572
2484.22396,0.19642
2482.29521,0.19699
2480.36647,0.19759
2478.43772,0.19824
2476.50897,0.19896
2474.58023,0.19970
2472.65148,0.20049
2470.72274,0.20134
2468.79399,0.20212
2466.86525,0.20281
2464.93650,0.20354
2463.00776,0.20427
2461.07901,0.20493
2459.15027,0.20561
2457.22152,0.20644
2455.29278,0.20726
2453.36403,0.20787
2451.43529,0.20835
2449.50654,0.20895
2447.57779,0.20979
2445.64905,0.21069
2443.72030,0.21136
2441.79156,0.21190
2439.86281,0.21264
2437.93407,0.21356
2436.00532,0.21440
2434.07658,0.21518
2432.14783,0.21603
2430.21909,0.21692
2428.29034,0.21786
2426.36160,0.21879
2424.43285,0.21961
2422.50411,0.22049
2420.57536,0.22156
2418.64662,0.22261
2416.71787,0.22356
2414.78912,0.22436
2412.86038,0.22505
2410.93163,0.22594
2409.00289,0.22708
2407.07414,0.22799
2405.14540,0.22856
2403.21665,0.22928
2401.28791,0.23025
2399.35916,0.23117
2397.43042,0.23196
2395.50167,0.23275
2393.57293,0.23352
2391.64418,0.23434
2389.71544,0.23525
2387.78669,0.23613
2385.85795,0.23683
2383.92920,0.23745
2382.00045,0.23815
2380.07171,0.23897
2378.14296,0.23977
2376.21422,0.24062
2374.28547,0.24170
2372.35673,0.24283
2370.42798,0.24360
2368.49924,0.24406
2366.57049,0.24457
2364.64175,0.24528
2362.71300,0.24603
2360.78426,0.24647
2358.85551,0.24663
2356.92677,0.24688
2354.99802,0.24737
2353.06927,0.24794
2351.14053,0.24841
2349.21178,0.24876
2347.28304,0.24923
2345.35429,0.24988
2343.42555,0.25061
2341.49680,0.25128
2339.56806,0.25163
2337.63931,0.25163
2335.71057,0.25169
2333.78182,0.25205
2331.85308,0.25260
2329.92433,0.25298
2327.99559,0.25306
2326.06684,0.25318
2324.13810,0.25362
2322.20935,0.25413
2320.28060,0.25445
2318.35186,0.25459
2316.42311,0.25470
2314.49437,0.25488
2312.56562,0.25509
2310.63688,0.25516
2308.70813,0.25504
2306.77939,0.25494
2304.85064,0.25493
2302.92190,0.25484
2300.99315,0.25470
2299.06441,0.25461
2297.13566,0.25451
2295.20692,0.25446
2293.27817,0.25446
2291.34943,0.25441
2289.42068,0.25435
2287.49193,0.25431
2285.56319,0.25426
2283.63444,0.25429
2281.70570,0.25441
2279.77695,0.25440
2277.84821,0.25417
2275.91946,0.25387
2273.99072,0.25357
2272.06197,0.25322
2270.13323,0.25285
2268.20448,0.25248
2266.27574,0.25209
2264.34699,0.25168
2262.41825,0.25127
2260.48950,0.25079
2258.56075,0.25020
2256.63201,0.24969
2254.70326,0.24946
2252.77452,0.24935
2250.84577,0.24914
2248.91703,0.24879
2246.98828,0.24845
2245.05954,0.24824
2243.13079,0.24813
2241.20205,0.24809
2239.27330,0.24804
2237.34456,0.24782
2235.41581,0.24747
2233.48707,0.24716
2231.55832,0.24695
2229.62958,0.24682
2227.70083,0.24670
2225.77208,0.24658
2223.84334,0.24651
2221.91459,0.24655
2219.98585,0.24662
2218.05710,0.24656
2216.12836,0.24636
2214.19961,0.24622
2212.27087,0.24621
2210.34212,0.24620
2208.41338,0.24612
2206.48463,0.24576
2204.55589,0.24517
2202.62714,0.24461
2200.69840,0.24406
2198.76965,0.24348
2196.84090,0.24294
2194.91216,0.24235
2192.98341,0.24165
2191.05467,0.24089
2189.12592,0.23993
2187.19718,0.23879
2185.26843,0.23772
2183.33969,0.23685
2181.41094,0.23602
2179.48220,0.23508
2177.55345,0.23409
2175.62471,0.23322
2173.69596,0.23240
2171.76722,0.23140
2169.83847,0.23026
2167.90973,0.22926
2165.98098,0.22836
2164.05223,0.22751
2162.12349,0.22682
2160.19474,0.22619
2158.26600,0.22556
2156.33725,0.22503
2154.40851,0.22455
2152.47976,0.22401
2150.55102,0.22345
2148.62227,0.22293
2146.69353,0.22245
2144.76478,0.22209
2142.83604,0.22178
2140.90729,0.22132
2138.97855,0.22081
2137.04980,0.22047
2135.12106,0.22034
2133.19231,0.22034
2131.26356,0.22037
2129.33482,0.22049
2127.40607,0.22077
2125.47733,0.22113
2123.54858,0.22149
2121.61984,0.22178
2119.69109,0.22192
2117.76235,0.22197
2115.83360,0.22215
2113.90486,0.22252
2111.97611,0.22287
2110.04737,0.22310
2108.11862,0.22334
2106.18988,0.22363
2104.26113,0.22391
2102.33238,0.22422
2100.40364,0.22446
2098.47489,0.22459
2096.54615,0.22468
2094.61740,0.22475
2092.68866,0.22483
2090.75991,0.22504
2088.83117,0.22527
2086.90242,0.22528
2084.97368,0.22500
2083.04493,0.22451
2081.11619,0.22413
2079.18744,0.22399
2077.25870,0.22372
2075.32995,0.22325
2073.40121,0.22284
2071.47246,0.22248
2069.54371,0.22207
2067.61497,0.22154
2065.68622,0.22102
2063.75748,0.22076
2061.82873,0.22074
2059.89999,0.22075
2057.97124,0.22078
2056.04250,0.22074
2054.11375,0.22060
2052.18501,0.22054
2050.25626,0.22066
2048.32752,0.22093
2046.39877,0.22134
2044.47003,0.22182
2042.54128,0.22234
2040.61254,0.22298
2038.68379,0.22369
2036.75504,0.22441
2034.82630,0.22520
2032.89755,0.22613
2030.96881,0.22715
2029.04006,0.22810
2027.11132,0.22892
2025.18257,0.22982
2023.25383,0.23087
2021.32508,0.23180
2019.39634,0.23243
2017.46759,0.23300
2015.53885,0.23373
2013.61010,0.23456
2011.68136,0.23539
2009.75261,0.23614
2007.82386,0.23675
2005.89512,0.23731
2003.96637,0.23787
2002.03763,0.23833
2000.10888,0.23868
1998.18014,0.23910
1996.25139,0.23977
1994.32265,0.24052
1992.39390,0.24109
1990.46516,0.24160
1988.53641,0.24217
1986.60767,0.24266
1984.67892,0.24308
1982.75018,0.24355
1980.82143,0.24395
1978.89269,0.24419
1976.96394,0.24446
1975.03519,0.24474
1973.10645,0.24500
1971.17770,0.24538
1969.24896,0.24588
1967.32021,0.24643
1965.39147,0.24691
1963.46272,0.24735
1961.53398,0.24790
1959.60523,0.24853
1957.67649,0.24915
1955.74774,0.24981
1953.81900,0.25052
1951.89025,0.25127
1949.96151,0.25208
1948.03276,0.25282
1946.10402,0.25335
1944.17527,0.25389
1942.24652,0.25451
1940.31778,0.25501
1938.38903,0.25544
1936.46029,0.25589
1934.53154,0.25643
1932.60280,0.25700
1930.67405,0.25744
1928.74531,0.25772
1926.81656,0.25798
1924.88782,0.25829
1922.95907,0.25853
1921.03033,0.25863
1919.10158,0.25865
1917.17284,0.25867
1915.24409,0.25878
1913.31534,0.25888
1911.38660,0.25883
1909.45785,0.25871
1907.52911,0.25860
1905.60036,0.25844
1903.67162,0.25831
1901.74287,0.25820
1899.81413,0.25797
1897.88538,0.25769
1895.95664,0.25747
1894.02789,0.25722
1892.09915,0.25689
1890.17040,0.25659
1888.24166,0.25642
1886.31291,0.25628
1884.38417,0.25612
1882.45542,0.25595
1880.52667,0.25573
1878.59793,0.25545
1876.66918,0.25511
1874.74044,0.25471
1872.81169,0.25439
1870.88295,0.25419
1868.95420,0.25387
1867.02546,0.25340
1865.09671,0.25293
1863.16797,0.25246
1861.23922,0.25188
1859.31048,0.25117
1857.38173,0.25051
1855.45299,0.24988
1853.52424,0.24928
1851.59549,0.24868
1849.66675,0.24801
1847.73800,0.24733
1845.80926,0.24654
1843.88051,0.24535
1841.95177,0.24392
1840.02302,0.24266
1838.09428,0.24149
1836.16553,0.24021
1834.23679,0.23873
1832.30804,0.23714
1830.37930,0.23537
1828.45055,0.23332
1826.52181,0.23111
1824.59306,0.22859
1822.66432,0.22584
1820.73557,0.22316
1818.80682,0.22043
1816.87808,0.21744
1814.94933,0.21412
1813.02059,0.21051
1811.09184,0.20660
1809.16310,0.20256
1807.23435,0.19860
1805.30561,0.19468
1803.37686,0.19057
1801.44812,0.18609
1799.51937,0.18148
1797.59063,0.17706
1795.66188,0.17289
1793.73314,0.16838
1791.80439,0.16321
1789.87565,0.15832
1787.94690,0.15403
1786.01815,0.14964
1784.08941,0.14503
1782.16066,0.14054
1780.23192,0.13603
1778.30317,0.13140
1776.37443,0.12691
1774.44568,0.12245
1772.51694,0.11745
1770.58819,0.11222
1768.65945,0.10736
1766.73070,0.10263
1764.80196,0.09816
1762.87321,0.09361
1760.94447,0.08876
1759.01572,0.08435
1757.08697,0.08044
1755.15823,0.07698
1753.22948,0.07411
1751.30074,0.07156
1749.37199,0.06922
1747.44325,0.06728
1745.51450,0.06574
1743.58576,0.06461
1741.65701,0.06374
1739.72827,0.06294
1737.79952,0.06251
1735.87078,0.06243
1733.94203,0.06224
1732.01329,0.06196
1730.08454,0.06203
1728.15580,0.06243
1726.22705,0.06287
1724.29830,0.06320
1722.36956,0.06365
1720.44081,0.06451
1718.51207,0.06569
1716.58332,0.06678
1714.65458,0.06774
1712.72583,0.06872
1710.79709,0.06970
1708.86834,0.07065
1706.93960,0.07150
1705.01085,0.07211
1703.08211,0.07255
1701.15336,0.07292
1699.22462,0.07307
1697.29587,0.07292
1695.36713,0.07235
1693.43838,0.07156
1691.50963,0.07093
1689.58089,0.07040
1687.65214,0.06991
1685.72340,0.06929
1683.79465,0.06823
1681.86591,0.06711
1679.93716,0.06631
1678.00842,0.06571
1676.07967,0.06513
1674.15093,0.06452
1672.22218,0.06400
1670.29344,0.06357
1668.36469,0.06311
1666.43595,0.06281
1664.50720,0.06267
1662.57845,0.06254
1660.64971,0.06250
1658.72096,0.06270
1656.79222,0.06305
1654.86347,0.06328
1652.93473,0.06323
1651.00598,0.06313
1649.07724,0.06314
1647.14849,0.06306
1645.21975,0.06298
1643.29100,0.06323
1641.36226,0.06356
1639.43351,0.06369
1637.50477,0.06364
1635.57602,0.06345
1633.64728,0.06323
1631.71853,0.06320
1629.78978,0.06330
1627.86104,0.06329
1625.93229,0.06311
1624.00355,0.06287
1622.07480,0.06261
1620.14606,0.06234
1618.21731,0.06209
1616.28857,0.06170
1614.35982,0.06104
1612.43108,0.06031
1610.50233,0.05965
1608.57359,0.05909
1606.64484,0.05876
1604.71610,0.05864
1602.78735,0.05855
1600.85861,0.05850
1598.92986,0.05862
1597.00111,0.05885
1595.07237,0.05923
1593.14362,0.05987
1591.21488,0.06073
1589.28613,0.06170
1587.35739,0.06267
1585.42864,0.06393
1583.49990,0.06576
1581.57115,0.06803
1579.64241,0.07037
1577.71366,0.07280
1575.78492,0.07577
1573.85617,0.07879
1571.92743,0.08142
1569.99868,0.08388
1568.06993,0.08602
1566.14119,0.08757
1564.21244,0.08876
1562.28370,0.08985
1560.35495,0.09101
1558.42621,0.09192
1556.49746,0.09213
1554.56872,0.09209
1552.63997,0.09205
1550.71123,0.09205
1548.78248,0.09214
1546.85374,0.09212
1544.92499,0.09184
1542.99625,0.09127
1541.06750,0.09020
1539.13876,0.08829
1537.21001,0.08640
1535.28126,0.08459
1533.35252,0.08209
1531.42377,0.07906
1529.49503,0.07603
1527.56628,0.07268
1525.63754,0.06904
1523.70879,0.06541
1521.78005,0.06119
1519.85130,0.05667
1517.92256,0.05320
1515.99381,0.05097
1514.06507,0.04998
1512.13632,0.04990
1510.20758,0.05028
1508.27883,0.05116
1506.35008,0.05276
1504.42134,0.05448
1502.49259,0.05607
1500.56385,0.05789
1498.63510,0.05990
1496.70636,0.06180
1494.77761,0.06330
1492.84887,0.06434
1490.92012,0.06504
1488.99138,0.06526
1487.06263,0.06492
1485.13389,0.06431
1483.20514,0.06354
1481.27640,0.06242
1479.34765,0.06095
1477.41891,0.05938
1475.49016,0.05769
1473.56141,0.05546
1471.63267,0.05280
1469.70392,0.05078
1467.77518,0.04970
1465.84643,0.04910
1463.91769,0.04870
1461.98894,0.04859
1460.06020,0.04873
1458.13145,0.04863
1456.20271,0.04802
1454.27396,0.04771
1452.34522,0.04794
1450.41647,0.04844
1448.48773,0.04891
1446.55898,0.04914
1444.63024,0.04920
1442.70149,0.04917
1440.77274,0.04887
1438.84400,0.04818
1436.91525,0.04716
1434.98651,0.04619
1433.05776,0.04564
1431.12902,0.04542
1429.20027,0.04542
1427.27153,0.04561
1425.34278,0.04596
1423.41404,0.04651
1421.48529,0.04723
1419.55655,0.04800
1417.62780,0.04861
1415.69906,0.04916
1413.77031,0.04974
1411.84156,0.05025
1409.91282,0.05059
1407.98407,0.05075
1406.05533,0.05090
1404.12658,0.05117
1402.19784,0.05148
1400.26909,0.05163
1398.34035,0.05157
1396.41160,0.05130
1394.48286,0.05082
1392.55411,0.05029
1390.62537,0.04978
1388.69662,0.04919
1386.76788,0.04845
1384.83913,0.04762
1382.91039,0.04686
1380.98164,0.04634
1379.05289,0.04597
1377.12415,0.04569
1375.19540,0.04553
1373.26666,0.04550
1371.33791,0.04559
1369.40917,0.04578
1367.48042,0.04610
1365.55168,0.04648
1363.62293,0.04688
1361.69419,0.04729
1359.76544,0.04761
1357.83670,0.04781
1355.90795,0.04807
1353.97921,0.04840
1352.05046,0.04863
1350.12172,0.04867
1348.19297,0.04859
1346.26422,0.04843
1344.33548,0.04812
1342.40673,0.04759
1340.47799,0.04705
1338.54924,0.04677
1336.62050,0.04674
1334.69175,0.04685
1332.76301,0.04696
1330.83426,0.04693
1328.90552,0.04679
1326.97677,0.04661
1325.04803,0.04634
1323.11928,0.04599
1321.19054,0.04576
1319.26179,0.04569
1317.33304,0.04568
1315.40430,0.04574
1313.47555,0.04593
1311.54681,0.04622
1309.61806,0.04660
1307.68932,0.04700
1305.76057,0.04723
1303.83183,0.04729
1301.90308,0.04724
1299.97434,0.04706
1298.04559,0.04671
1296.11685,0.04617
1294.18810,0.04556
1292.25936,0.04508
1290.33061,0.04459
1288.40187,0.04391
1286.47312,0.04319
1284.54437,0.04269
1282.61563,0.04249
1280.68688,0.04241
1278.75814,0.04234
1276.82939,0.04228
1274.90065,0.04221
1272.97190,0.04211
1271.04316,0.04207
1269.11441,0.04225
1267.18567,0.04268
1265.25692,0.04320
1263.32818,0.04368
1261.39943,0.04408
1259.47069,0.04445
1257.54194,0.04479
1255.61320,0.04513
1253.68445,0.04539
1251.75570,0.04555
1249.82696,0.04566
1247.89821,0.04578
1245.96947,0.04588
1244.04072,0.04595
1242.11198,0.04606
1240.18323,0.04618
1238.25449,0.04610
1236.32574,0.04590
1234.39700,0.04576
1232.46825,0.04570
1230.53951,0.04582
1228.61076,0.04604
1226.68202,0.04616
1224.75327,0.04621
1222.82452,0.04634
1220.89578,0.04651
1218.96703,0.04670
1217.03829,0.04687
1215.10954,0.04703
1213.18080,0.04704
1211.25205,0.04680
1209.32331,0.04662
1207.39456,0.04665
1205.46582,0.04673
1203.53707,0.04682
1201.60833,0.04689
1199.67958,0.04683
1197.75084,0.04676
1195.82209,0.04679
1193.89335,0.04673
1191.96460,0.04647
1190.03585,0.04600
1188.10711,0.04535
1186.17836,0.04452
1184.24962,0.04353
1182.32087,0.04256
1180.39213,0.04168
1178.46338,0.04084
1176.53464,0.03997
1174.60589,0.03900
1172.67715,0.03818
1170.74840,0.03789
1168.81966,0.03802
1166.89091,0.03831
1164.96217,0.03884
1163.03342,0.03958
1161.10467,0.04041
1159.17593,0.04122
1157.24718,0.04169
1155.31844,0.04162
1153.38969,0.04132
1151.46095,0.04105
1149.53220,0.04062
1147.60346,0.03996
1145.67471,0.03947
1143.74597,0.03936
1141.81722,0.03924
1139.88848,0.03883
1137.95973,0.03828
1136.03099,0.03773
1134.10224,0.03714
1132.17350,0.03644
1130.24475,0.03588
1128.31600,0.03576
1126.38726,0.03608
1124.45851,0.03653
1122.52977,0.03665
1120.60102,0.03645
1118.67228,0.03638
1116.74353,0.03665
1114.81479,0.03737
1112.88604,0.03840
1110.95730,0.03913
1109.02855,0.03931
1107.09981,0.03948
1105.17106,0.03984
1103.24232,0.04002
1101.31357,0.04000
1099.38483,0.03991
1097.45608,0.03987
1095.52733,0.03984
1093.59859,0.03976
1091.66984,0.03964
1089.74110,0.03942
1087.81235,0.03919
1085.88361,0.03906
1083.95486,0.03913
1082.02612,0.03968
1080.09737,0.04079
1078.16863,0.04181
1076.23988,0.04232
1074.31114,0.04274
1072.38239,0.04351
1070.45365,0.04450
1068.52490,0.04554
1066.59615,0.04704
1064.66741,0.04931
1062.73866,0.05178
1060.80992,0.05359
1058.88117,0.05450
1056.95243,0.05517
1055.02368,0.05604
1053.09494,0.05664
1051.16619,0.05658
1049.23745,0.05588
1047.30870,0.05497
1045.37996,0.05431
1043.45121,0.05410
1041.52247,0.05445
1039.59372,0.05528
1037.66498,0.05651
1035.73623,0.05824
1033.80748,0.06007
1031.87874,0.06123
1029.94999,0.06157
1028.02125,0.06173
1026.09250,0.06220
1024.16376,0.06275
1022.23501,0.06318
1020.30627,0.06368
1018.37752,0.06436
1016.44878,0.06511
1014.52003,0.06589
1012.59129,0.06656
1010.66254,0.06689
1008.73380,0.06709
1006.80505,0.06735
1004.87631,0.06750
1002.94756,0.06773
1001.01881,0.06839
999.09007,0.06926
997.16132,0.07003
995.23258,0.07068
993.30383,0.07142
991.37509,0.07237
989.44634,0.07343
987.51760,0.07473
985.58885,0.07648
983.66011,0.07853
981.73136,0.08045
979.80262,0.08195
977.87387,0.08319
975.94513,0.08441
974.01638,0.08550
972.08763,0.08630
970.15889,0.08691
968.23014,0.08750
966.30140,0.08829
964.37265,0.08928
962.44391,0.09041
960.51516,0.09175
958.58642,0.09312
956.65767,0.09439
954.72893,0.09561
952.80018,0.09659
950.87144,0.09721
948.94269,0.09785
947.01395,0.09861
945.08520,0.09907
943.15646,0.09927
941.22771,0.09968
939.29896,0.10038
937.37022,0.10112
935.44147,0.10163
933.51273,0.10177
931.58398,0.10192
929.65524,0.10246
927.72649,0.10311
925.79775,0.10346
923.86900,0.10341
921.94026,0.10303
920.01151,0.10247
918.08277,0.10183
916.15402,0.10087
914.22528,0.09954
912.29653,0.09809
910.36779,0.09662
908.43904,0.09506
906.51029,0.09340
904.58155,0.09160
902.65280,0.08990
900.72406,0.08876
898.79531,0.08846
896.86657,0.08874
894.93782,0.08927
893.00908,0.09021
891.08033,0.09139
889.15159,0.09219
887.22284,0.09252
885.29410,0.09271
883.36535,0.09304
881.43661,0.09358
879.50786,0.09394
877.57911,0.09384
875.65037,0.09361
873.72162,0.09361
871.79288,0.09386
869.86413,0.09437
867.93539,0.09499
866.00664,0.09546
864.07790,0.09571
862.14915,0.09587
860.22041,0.09634
858.29166,0.09742
856.36292,0.09863
854.43417,0.09940
852.50543,0.10010
850.57668,0.10090
848.64794,0.10133
846.71919,0.10134
844.79044,0.10135
842.86170,0.10135
840.93295,0.10110
839.00421,0.10044
837.07546,0.09935
835.14672,0.09803
833.21797,0.09681
831.28923,0.09597
829.36048,0.09526
827.43174,0.09399
825.50299,0.09212
823.57425,0.09019
821.64550,0.08849
819.71676,0.08707
817.78801,0.08612
815.85926,0.08564
813.93052,0.08534
812.00177,0.08510
810.07303,0.08509
808.14428,0.08525
806.21554,0.08536
804.28679,0.08547
802.35805,0.08565
800.42930,0.08600
798.50056,0.08667
796.57181,0.08732
794.64307,0.08726
792.71432,0.08660
790.78558,0.08622
788.85683,0.08611
786.92809,0.08554
784.99934,0.08466
783.07059,0.08396
781.14185,0.08344
779.21310,0.08297
777.28436,0.08243
775.35561,0.08167
773.42687,0.08068
771.49812,0.07973
769.56938,0.07915
767.64063,0.07892
765.71189,0.07881
763.78314,0.07879
761.85440,0.07874
759.92565,0.07820
757.99691,0.07712
756.06816,0.07625
754.13942,0.07600
752.21067,0.07592
750.28192,0.07561
748.35318,0.07524
746.42443,0.07496
744.49569,0.07452
742.56694,0.07370
740.63820,0.07282
738.70945,0.07219
736.78071,0.07183
734.85196,0.07149
732.92322,0.07087
730.99447,0.07006
729.06573,0.06939
727.13698,0.06897
725.20824,0.06868
723.27949,0.06826
721.35074,0.06744
719.42200,0.06632
717.49325,0.06577
715.56451,0.06603
713.63576,0.06618
711.70702,0.06604
709.77827,0.06612
707.84953,0.06618
705.92078,0.06569
703.99204,0.06483
702.06329,0.06399
700.13455,0.06333
698.20580,0.06305
696.27706,0.06316
694.34831,0.06317
692.41957,0.06282
690.49082,0.06256
688.56207,0.06250
686.63333,0.06230
684.70458,0.06181
682.77584,0.06118
680.84709,0.06032
678.91835,0.05917
676.98960,0.05846
675.06086,0.05862
673.13211,0.05878
671.20337,0.05834
669.27462,0.05793
667.34588,0.05782
665.41713,0.05759
663.48839,0.05728
661.55964,0.05732
659.63090,0.05760
657.70215,0.05771
655.77340,0.05776
653.84466,0.05806
651.91591,0.05830
649.98717,0.05807
648.05842,0.05753
646.12968,0.05719
644.20093,0.05704
642.27219,0.05682
640.34344,0.05667
638.41470,0.05672
636.48595,0.05675
634.55721,0.05667
632.62846,0.05628
630.69972,0.05530
628.77097,0.05478
626.84222,0.05525
624.91348,0.05545
622.98473,0.05491
621.05599,0.05452
619.12724,0.05488
617.19850,0.05533
615.26975,0.05538
613.34101,0.05572
611.41226,0.05617
609.48352,0.05650
607.55477,0.05734
605.62603,0.05789
603.69728,0.05716
601.76854,0.05639
599.83979,0.05638
