7497.03301,0.39338
7495.10426,0.39441
7493.17552,0.39476
7491.24677,0.39494
7489.31803,0.39421
7487.38928,0.39533
7485.46054,0.39622
7483.53179,0.38952
7481.60305,0.38011
7479.67430,0.37797
7477.74556,0.38076
7475.81681,0.38448
7473.88807,0.38938
7471.95932,0.39211
7470.03057,0.39257
7468.10183,0.39583
7466.17308,0.39999
7464.24434,0.40013
7462.31559,0.39729
7460.38685,0.39588
7458.45810,0.39759
7456.52936,0.39800
7454.60061,0.39493
7452.67187,0.39194
7450.74312,0.39035
7448.81438,0.38929
7446.88563,0.38884
7444.95689,0.38924
7443.02814,0.39011
7441.09940,0.38989
7439.17065,0.38803
7437.24190,0.38653
7435.31316,0.38604
7433.38441,0.38672
7431.45567,0.39077
7429.52692,0.39500
7427.59818,0.39412
7425.66943,0.39127
7423.74069,0.38920
7421.81194,0.38761
7419.88320,0.38900
7417.95445,0.39196
7416.02571,0.39251
7414.09696,0.39263
7412.16822,0.39490
7410.23947,0.39634
7408.31073,0.39497
7406.38198,0.39238
7404.45323,0.38916
7402.52449,0.38741
7400.59574,0.38894
7398.66700,0.38973
7396.73825,0.38643
7394.80951,0.38297
7392.88076,0.38506
7390.95202,0.39206
7389.02327,0.39707
7387.09453,0.39679
7385.16578,0.39486
7383.23704,0.39280
7381.30829,0.38908
7379.37955,0.38604
7377.45080,0.38724
7375.52205,0.39063
7373.59331,0.39061
7371.66456,0.38786
7369.73582,0.38869
7367.80707,0.39356
7365.87833,0.39673
7363.94958,0.39614
7362.02084,0.39475
7360.09209,0.39342
7358.16335,0.39006
7356.23460,0.38781
7354.30586,0.39169
7352.37711,0.39835
7350.44837,0.40135
7348.51962,0.39843
7346.59088,0.39179
7344.66213,0.38689
7342.73338,0.38635
7340.80464,0.38792
7338.87589,0.38934
7336.94715,0.39125
7335.01840,0.39319
7333.08966,0.39256
7331.16091,0.38936
7329.23217,0.38625
7327.30342,0.38526
7325.37468,0.38651
7323.44593,0.38855
7321.51719,0.39023
7319.58844,0.39217
7317.65970,0.39471
7315.73095,0.39703
7313.80221,0.39949
7311.87346,0.40080
7309.94471,0.39921
7308.01597,0.39657
7306.08722,0.39503
7304.15848,0.39481
7302.22973,0.39515
7300.30099,0.39505
7298.37224,0.39368
7296.44350,0.39171
7294.51475,0.39091
7292.58601,0.39021
7290.65726,0.38948
7288.72852,0.39042
7286.79977,0.39090
7284.87103,0.39030
7282.94228,0.39190
7281.01353,0.39437
7279.08479,0.39383
7277.15604,0.39209
7275.22730,0.39324
7273.29855,0.39623
7271.36981,0.39677
7269.44106,0.39331
7267.51232,0.38852
7265.58357,0.38737
7263.65483,0.39185
7261.72608,0.39705
7259.79734,0.39796
7257.86859,0.39508
7255.93985,0.39093
7254.01110,0.38813
7252.08236,0.38787
7250.15361,0.38882
7248.22486,0.39001
7246.29612,0.39252
7244.36737,0.39631
7242.43863,0.39749
7240.50988,0.39437
7238.58114,0.39181
7236.65239,0.39263
7234.72365,0.39253
7232.79490,0.38826
7230.86616,0.38253
7228.93741,0.37910
7227.00867,0.37963
7225.07992,0.38247
7223.15118,0.38384
7221.22243,0.38343
7219.29369,0.38431
7217.36494,0.38696
7215.43619,0.39010
7213.50745,0.39280
7211.57870,0.39334
7209.64996,0.39330
7207.72121,0.39423
7205.79247,0.39377
7203.86372,0.39341
7201.93498,0.39439
7200.00623,0.39314
7198.07749,0.39113
7196.14874,0.39125
7194.22000,0.39207
7192.29125,0.39426
7190.36251,0.39735
7188.43376,0.39582
7186.50501,0.39001
7184.57627,0.38625
7182.64752,0.38535
7180.71878,0.38473
7178.79003,0.38465
7176.86129,0.38512
7174.93254,0.38497
7173.00380,0.38276
7171.07505,0.38043
7169.14631,0.38396
7167.21756,0.39128
7165.28882,0.39445
7163.36007,0.39375
7161.43133,0.39294
7159.50258,0.39243
7157.57384,0.39107
7155.64509,0.38906
7153.71634,0.38863
7151.78760,0.39068
7149.85885,0.39153
7147.93011,0.38777
7146.00136,0.38331
7144.07262,0.38262
7142.14387,0.38496
7140.21513,0.38818
7138.28638,0.39105
7136.35764,0.39469
7134.42889,0.39769
7132.50015,0.39684
7130.57140,0.39437
7128.64266,0.39382
7126.71391,0.39448
7124.78516,0.39395
7122.85642,0.39210
7120.92767,0.39106
7118.99893,0.39198
7117.07018,0.39291
7115.14144,0.39222
7113.21269,0.39186
7111.28395,0.39261
7109.35520,0.39324
7107.42646,0.39293
7105.49771,0.39156
7103.56897,0.39105
7101.64022,0.39169
7099.71148,0.39087
7097.78273,0.38987
7095.85399,0.39146
7093.92524,0.39325
7091.99649,0.39300
7090.06775,0.39105
7088.13900,0.38767
7086.21026,0.38506
7084.28151,0.38422
7082.35277,0.38406
7080.42402,0.38523
7078.49528,0.38793
7076.56653,0.39142
7074.63779,0.39387
7072.70904,0.39368
7070.78030,0.39247
7068.85155,0.39154
7066.92281,0.39145
7064.99406,0.39227
7063.06532,0.39103
7061.13657,0.38678
7059.20782,0.38343
7057.27908,0.38447
7055.35033,0.38874
7053.42159,0.39146
7051.49284,0.39118
7049.56410,0.39164
7047.63535,0.39347
7045.70661,0.39316
7043.77786,0.39196
7041.84912,0.39219
7039.92037,0.39155
7037.99163,0.38953
7036.06288,0.38803
7034.13414,0.38805
7032.20539,0.39017
7030.27664,0.39352
7028.34790,0.39534
7026.41915,0.39374
7024.49041,0.39119
7022.56166,0.39034
7020.63292,0.38989
7018.70417,0.38920
7016.77543,0.38837
7014.84668,0.38499
7012.91794,0.38055
7010.98919,0.38092
7009.06045,0.38587
7007.13170,0.38964
7005.20296,0.39108
7003.27421,0.39260
7001.34547,0.39276
6999.41672,0.38968
6997.48797,0.38653
6995.55923,0.38615
6993.63048,0.38723
6991.70174,0.38792
6989.77299,0.38886
6987.84425,0.39169
6985.91550,0.39494
6983.98676,0.39472
6982.05801,0.38977
6980.12927,0.38495
6978.20052,0.38591
6976.27178,0.38976
6974.34303,0.39053
6972.41429,0.38922
6970.48554,0.38921
6968.55680,0.39050
6966.62805,0.39247
6964.69930,0.39469
6962.77056,0.39578
6960.84181,0.39558
6958.91307,0.39406
6956.98432,0.39130
6955.05558,0.38983
6953.12683,0.39091
6951.19809,0.39343
6949.26934,0.39577
6947.34060,0.39516
6945.41185,0.39240
6943.48311,0.39141
6941.55436,0.39129
6939.62562,0.39000
6937.69687,0.38868
6935.76812,0.38800
6933.83938,0.38856
6931.91063,0.39065
6929.98189,0.39121
6928.05314,0.38835
6926.12440,0.38574
6924.19565,0.38590
6922.26691,0.38715
6920.33816,0.38893
6918.40942,0.39104
6916.48067,0.39239
6914.55193,0.39340
6912.62318,0.39419
6910.69444,0.39399
6908.76569,0.39354
6906.83695,0.39331
6904.90820,0.39263
6902.97945,0.39103
6901.05071,0.38972
6899.12196,0.39102
6897.19322,0.39312
6895.26447,0.39269
6893.33573,0.39126
6891.40698,0.39225
6889.47824,0.39552
6887.54949,0.39702
6885.62075,0.39624
6883.69200,0.39644
6881.76326,0.39683
6879.83451,0.39480
6877.90577,0.39094
6875.97702,0.38852
6874.04828,0.38865
6872.11953,0.38923
6870.19078,0.39092
6868.26204,0.39345
6866.33329,0.39250
6864.40455,0.38800
6862.47580,0.38563
6860.54706,0.38881
6858.61831,0.39335
6856.68957,0.39369
6854.76082,0.39101
6852.83208,0.38904
6850.90333,0.38866
6848.97459,0.38842
6847.04584,0.38751
6845.11710,0.38745
6843.18835,0.38844
6841.25960,0.38842
6839.33086,0.38762
6837.40211,0.38830
6835.47337,0.38958
6833.54462,0.38929
6831.61588,0.38836
6829.68713,0.38799
6827.75839,0.38916
6825.82964,0.39243
6823.90090,0.39450
6821.97215,0.39317
6820.04341,0.39106
6818.11466,0.39091
6816.18592,0.39214
6814.25717,0.39255
6812.32843,0.39193
6810.39968,0.39086
6808.47093,0.39006
6806.54219,0.39107
6804.61344,0.39330
6802.68470,0.39369
6800.75595,0.39206
6798.82721,0.39220
6796.89846,0.39454
6794.96972,0.39538
6793.04097,0.39440
6791.11223,0.39362
6789.18348,0.39245
6787.25474,0.39027
6785.32599,0.38948
6783.39725,0.39075
6781.46850,0.39096
6779.53975,0.38976
6777.61101,0.39064
6775.68226,0.39316
6773.75352,0.39405
6771.82477,0.39326
6769.89603,0.39181
6767.96728,0.39016
6766.03854,0.38887
6764.10979,0.38834
6762.18105,0.39009
6760.25230,0.39352
6758.32356,0.39509
6756.39481,0.39395
6754.46607,0.39232
6752.53732,0.39226
6750.60858,0.39455
6748.67983,0.39669
6746.75108,0.39465
6744.82234,0.38992
6742.89359,0.38796
6740.96485,0.38935
6739.03610,0.39030
6737.10736,0.38990
6735.17861,0.39006
6733.24987,0.39024
6731.32112,0.38881
6729.39238,0.38724
6727.46363,0.38846
6725.53489,0.39168
6723.60614,0.39336
6721.67740,0.39315
6719.74865,0.39203
6717.81991,0.39026
6715.89116,0.38990
6713.96241,0.39171
6712.03367,0.39381
6710.10492,0.39497
6708.17618,0.39511
6706.24743,0.39480
6704.31869,0.39538
6702.38994,0.39510
6700.46120,0.39015
6698.53245,0.38378
6696.60371,0.38270
6694.67496,0.38627
6692.74622,0.38991
6690.81747,0.39158
6688.88873,0.39204
6686.95998,0.39291
6685.03123,0.39313
6683.10249,0.39136
6681.17374,0.38972
6679.24500,0.38922
6677.31625,0.38881
6675.38751,0.38914
6673.45876,0.38998
6671.53002,0.38954
6669.60127,0.38828
6667.67253,0.38785
6665.74378,0.38748
6663.81504,0.38655
6661.88629,0.38682
6659.95755,0.38769
6658.02880,0.38807
6656.10006,0.39056
6654.17131,0.39394
6652.24256,0.39314
6650.31382,0.38991
6648.38507,0.38972
6646.45633,0.39247
6644.52758,0.39481
6642.59884,0.39515
6640.67009,0.39340
6638.74135,0.39050
6636.81260,0.38841
6634.88386,0.38848
6632.95511,0.39036
6631.02637,0.39245
6629.09762,0.39399
6627.16888,0.39472
6625.24013,0.39442
6623.31139,0.39391
6621.38264,0.39294
6619.45389,0.39113
6617.52515,0.39069
6615.59640,0.39268
6613.66766,0.39465
6611.73891,0.39475
6609.81017,0.39358
6607.88142,0.39192
6605.95268,0.39088
6604.02393,0.39102
6602.09519,0.39086
6600.16644,0.39098
6598.23770,0.39294
6596.30895,0.39460
6594.38021,0.39450
6592.45146,0.39383
6590.52271,0.39288
6588.59397,0.39211
6586.66522,0.39168
6584.73648,0.39029
6582.80773,0.38853
6580.87899,0.38853
6578.95024,0.38971
6577.02150,0.39044
6575.09275,0.39063
6573.16401,0.39007
6571.23526,0.38970
6569.30652,0.39090
6567.37777,0.39202
6565.44903,0.39149
6563.52028,0.39023
6561.59154,0.38989
6559.66279,0.39106
6557.73404,0.39253
6555.80530,0.39268
6553.87655,0.39182
6551.94781,0.39196
6550.01906,0.39277
6548.09032,0.39233
6546.16157,0.39101
6544.23283,0.38953
6542.30408,0.38871
6540.37534,0.38906
6538.44659,0.38930
6536.51785,0.38977
6534.58910,0.39125
6532.66036,0.39206
6530.73161,0.39138
6528.80287,0.39047
6526.87412,0.39088
6524.94537,0.39268
6523.01663,0.39372
6521.08788,0.39246
6519.15914,0.38999
6517.23039,0.38817
6515.30165,0.38759
6513.37290,0.38787
6511.44416,0.38893
6509.51541,0.39011
6507.58667,0.38994
6505.65792,0.38991
6503.72918,0.39176
6501.80043,0.39285
6499.87169,0.39196
6497.94294,0.39123
6496.01419,0.39095
6494.08545,0.39083
6492.15670,0.39133
6490.22796,0.39225
6488.29921,0.39235
6486.37047,0.39077
6484.44172,0.38996
6482.51298,0.39122
6480.58423,0.39243
6478.65549,0.39244
6476.72674,0.39034
6474.79800,0.38739
6472.86925,0.38713
6470.94051,0.38942
6469.01176,0.39132
6467.08302,0.39130
6465.15427,0.39106
6463.22552,0.39188
6461.29678,0.39179
6459.36803,0.39064
6457.43929,0.39046
6455.51054,0.39116
6453.58180,0.39184
6451.65305,0.39263
6449.72431,0.39356
6447.79556,0.39402
6445.86682,0.39325
6443.93807,0.39149
6442.00933,0.39014
6440.08058,0.38973
6438.15184,0.38938
6436.22309,0.38952
6434.29434,0.39147
6432.36560,0.39411
6430.43685,0.39430
6428.50811,0.39171
6426.57936,0.38948
6424.65062,0.38849
6422.72187,0.38743
6420.79313,0.38703
6418.86438,0.38750
6416.93564,0.38784
6415.00689,0.38920
6413.07815,0.39199
6411.14940,0.39320
6409.22066,0.39220
6407.29191,0.39161
6405.36317,0.39118
6403.43442,0.39008
6401.50567,0.38951
6399.57693,0.38933
6397.64818,0.38944
6395.71944,0.39030
6393.79069,0.39093
6391.86195,0.39155
6389.93320,0.39240
6388.00446,0.39147
6386.07571,0.38893
6384.14697,0.38739
6382.21822,0.38801
6380.28948,0.38998
6378.36073,0.39138
6376.43199,0.39165
6374.50324,0.39153
6372.57450,0.39112
6370.64575,0.39030
6368.71700,0.38947
6366.78826,0.38973
6364.85951,0.39091
6362.93077,0.39156
6361.00202,0.39200
6359.07328,0.39270
6357.14453,0.39309
6355.21579,0.39270
6353.28704,0.39141
6351.35830,0.39016
6349.42955,0.39036
6347.50081,0.39147
6345.57206,0.39099
6343.64332,0.38943
6341.71457,0.39008
6339.78582,0.39253
6337.85708,0.39321
6335.92833,0.39121
6333.99959,0.38923
6332.07084,0.38882
6330.14210,0.38880
6328.21335,0.38873
6326.28461,0.38964
6324.35586,0.39088
6322.42712,0.39051
6320.49837,0.38849
6318.56963,0.38650
6316.64088,0.38641
6314.71214,0.38830
6312.78339,0.38979
6310.85465,0.38932
6308.92590,0.38785
6306.99715,0.38694
6305.06841,0.38710
6303.13966,0.38814
6301.21092,0.39029
6299.28217,0.39251
6297.35343,0.39235
6295.42468,0.38980
6293.49594,0.38722
6291.56719,0.38646
6289.63845,0.38796
6287.70970,0.39005
6285.78096,0.39067
6283.85221,0.38992
6281.92347,0.38843
6279.99472,0.38705
6278.06598,0.38700
6276.13723,0.38771
6274.20848,0.38808
6272.27974,0.38815
6270.35099,0.38797
6268.42225,0.38700
6266.49350,0.38581
6264.56476,0.38576
6262.63601,0.38668
6260.70727,0.38786
6258.77852,0.38864
6256.84978,0.38838
6254.92103,0.38760
6252.99229,0.38779
6251.06354,0.38952
6249.13480,0.39108
6247.20605,0.39092
6245.27730,0.38943
6243.34856,0.38811
6241.41981,0.38911
6239.49107,0.39182
6237.56232,0.39334
6235.63358,0.39333
6233.70483,0.39310
6231.77609,0.39263
6229.84734,0.39153
6227.91860,0.39057
6225.98985,0.39020
6224.06111,0.38986
6222.13236,0.38939
6220.20362,0.38896
6218.27487,0.38903
6216.34613,0.39025
6214.41738,0.39163
6212.48863,0.39112
6210.55989,0.38925
6208.63114,0.38810
6206.70240,0.38792
6204.77365,0.38850
6202.84491,0.38929
6200.91616,0.38931
6198.98742,0.38867
6197.05867,0.38792
6195.12993,0.38780
6193.20118,0.38848
6191.27244,0.38911
6189.34369,0.38835
6187.41495,0.38568
6185.48620,0.38349
6183.55746,0.38378
6181.62871,0.38517
6179.69996,0.38633
6177.77122,0.38730
6175.84247,0.38749
6173.91373,0.38640
6171.98498,0.38532
6170.05624,0.38528
6168.12749,0.38564
6166.19875,0.38598
6164.27000,0.38598
6162.34126,0.38505
6160.41251,0.38365
6158.48377,0.38277
6156.55502,0.38275
6154.62628,0.38376
6152.69753,0.38531
6150.76878,0.38613
6148.84004,0.38585
6146.91129,0.38513
6144.98255,0.38476
6143.05380,0.38467
6141.12506,0.38418
6139.19631,0.38420
6137.26757,0.38586
6135.33882,0.38741
6133.41008,0.38723
6131.48133,0.38600
6129.55259,0.38443
6127.62384,0.38388
6125.69510,0.38506
6123.76635,0.38601
6121.83761,0.38561
6119.90886,0.38489
6117.98011,0.38433
6116.05137,0.38339
6114.12262,0.38244
6112.19388,0.38264
6110.26513,0.38317
6108.33639,0.38208
6106.40764,0.38030
6104.47890,0.38023
6102.55015,0.38149
6100.62141,0.38198
6098.69266,0.38172
6096.76392,0.38230
6094.83517,0.38399
6092.90643,0.38614
6090.97768,0.38737
6089.04893,0.38640
6087.12019,0.38418
6085.19144,0.38222
6083.26270,0.38152
6081.33395,0.38260
6079.40521,0.38395
6077.47646,0.38417
6075.54772,0.38408
6073.61897,0.38431
6071.69023,0.38433
6069.76148,0.38342
6067.83274,0.38158
6065.90399,0.38062
6063.97525,0.38220
6062.04650,0.38463
6060.11776,0.38586
6058.18901,0.38583
6056.26026,0.38445
6054.33152,0.38308
6052.40277,0.38270
6050.47403,0.38207
6048.54528,0.38166
6046.61654,0.38258
6044.68779,0.38373
6042.75905,0.38397
6040.83030,0.38362
6038.90156,0.38355
6036.97281,0.38358
6035.04407,0.38300
6033.11532,0.38201
6031.18658,0.38145
6029.25783,0.38137
6027.32909,0.38112
6025.40034,0.38066
6023.47159,0.38019
6021.54285,0.37960
6019.61410,0.37866
6017.68536,0.37749
6015.75661,0.37687
6013.82787,0.37682
6011.89912,0.37583
6009.97038,0.37371
6008.04163,0.37286
6006.11289,0.37386
6004.18414,0.37380
6002.25540,0.37180
6000.32665,0.36974
5998.39791,0.36833
5996.46916,0.36738
5994.54041,0.36707
5992.61167,0.36767
5990.68292,0.36850
5988.75418,0.36816
5986.82543,0.36631
5984.89669,0.36434
5982.96794,0.36349
5981.03920,0.36263
5979.11045,0.36070
5977.18171,0.35905
5975.25296,0.35879
5973.32422,0.35930
5971.39547,0.35910
5969.46673,0.35776
5967.53798,0.35668
5965.60924,0.35655
5963.68049,0.35673
5961.75174,0.35709
5959.82300,0.35745
5957.89425,0.35708
5955.96551,0.35652
5954.03676,0.35664
5952.10802,0.35688
5950.17927,0.35728
5948.25053,0.35812
5946.32178,0.35834
5944.39304,0.35757
5942.46429,0.35681
5940.53555,0.35703
5938.60680,0.35823
5936.67806,0.35968
5934.74931,0.36080
5932.82057,0.36114
5930.89182,0.36059
5928.96307,0.36026
5927.03433,0.36061
5925.10558,0.36054
5923.17684,0.35992
5921.24809,0.35976
5919.31935,0.36018
5917.39060,0.36078
5915.46186,0.36144
5913.53311,0.36232
5911.60437,0.36332
5909.67562,0.36408
5907.74688,0.36470
5905.81813,0.36501
5903.88939,0.36451
5901.96064,0.36417
5900.03189,0.36490
5898.10315,0.36633
5896.17440,0.36793
5894.24566,0.36865
5892.31691,0.36787
5890.38817,0.36682
5888.45942,0.36702
5886.53068,0.36828
5884.60193,0.36943
5882.67319,0.37022
5880.74444,0.37158
5878.81570,0.37382
5876.88695,0.37575
5874.95821,0.37652
5873.02946,0.37627
5871.10072,0.37578
5869.17197,0.37565
5867.24322,0.37552
5865.31448,0.37569
5863.38573,0.37668
5861.45699,0.37761
5859.52824,0.37774
5857.59950,0.37721
5855.67075,0.37644
5853.74201,0.37592
5851.81326,0.37606
5849.88452,0.37670
5847.95577,0.37733
5846.02703,0.37772
5844.09828,0.37772
5842.16954,0.37765
5840.24079,0.37755
5838.31205,0.37726
5836.38330,0.37734
5834.45455,0.37781
5832.52581,0.37811
5830.59706,0.37824
5828.66832,0.37874
5826.73957,0.37964
5824.81083,0.37983
5822.88208,0.37865
5820.95334,0.37760
5819.02459,0.37844
5817.09585,0.38021
5815.16710,0.38061
5813.23836,0.37982
5811.30961,0.37966
5809.38087,0.38006
5807.45212,0.37961
5805.52337,0.37870
5803.59463,0.37854
5801.66588,0.37890
5799.73714,0.37930
5797.80839,0.37974
5795.87965,0.38015
5793.95090,0.38049
5792.02216,0.38073
5790.09341,0.38083
5788.16467,0.38074
5786.23592,0.38037
5784.30718,0.37972
5782.37843,0.37919
5780.44969,0.37930
5778.52094,0.38014
5776.59220,0.38109
5774.66345,0.38169
5772.73470,0.38202
5770.80596,0.38190
5768.87721,0.38183
5766.94847,0.38312
5765.01972,0.38489
5763.09098,0.38507
5761.16223,0.38422
5759.23349,0.38428
5757.30474,0.38542
5755.37600,0.38584
5753.44725,0.38456
5751.51851,0.38307
5749.58976,0.38289
5747.66102,0.38405
5745.73227,0.38587
5743.80352,0.38694
5741.87478,0.38618
5739.94603,0.38423
5738.01729,0.38300
5736.08854,0.38355
5734.15980,0.38486
5732.23105,0.38511
5730.30231,0.38355
5728.37356,0.38118
5726.44482,0.37984
5724.51607,0.38033
5722.58733,0.38176
5720.65858,0.38311
5718.72984,0.38420
5716.80109,0.38493
5714.87235,0.38531
5712.94360,0.38535
5711.01485,0.38470
5709.08611,0.38341
5707.15736,0.38218
5705.22862,0.38165
5703.29987,0.38210
5701.37113,0.38303
5699.44238,0.38324
5697.51364,0.38255
5695.58489,0.38205
5693.65615,0.38180
5691.72740,0.38136
5689.79866,0.38136
5687.86991,0.38187
5685.94117,0.38177
5684.01242,0.38110
5682.08368,0.38119
5680.15493,0.38177
5678.22618,0.38170
5676.29744,0.38113
5674.36869,0.38065
5672.43995,0.38046
5670.51120,0.38052
5668.58246,0.38064
5666.65371,0.38090
5664.72497,0.38143
5662.79622,0.38189
5660.86748,0.38193
5658.93873,0.38187
5657.00999,0.38190
5655.08124,0.38210
5653.15250,0.38302
5651.22375,0.38416
5649.29500,0.38427
5647.36626,0.38389
5645.43751,0.38376
5643.50877,0.38357
5641.58002,0.38356
5639.65128,0.38403
5637.72253,0.38506
5635.79379,0.38616
5633.86504,0.38597
5631.93630,0.38454
5630.00755,0.38295
5628.07881,0.38192
5626.15006,0.38242
5624.22132,0.38466
5622.29257,0.38662
5620.36383,0.38644
5618.43508,0.38509
5616.50633,0.38453
5614.57759,0.38497
5612.64884,0.38532
5610.72010,0.38507
5608.79135,0.38494
5606.86261,0.38497
5604.93386,0.38451
5603.00512,0.38391
5601.07637,0.38389
5599.14763,0.38418
5597.21888,0.38388
5595.29014,0.38331
5593.36139,0.38353
5591.43265,0.38411
5589.50390,0.38401
5587.57516,0.38358
5585.64641,0.38355
5583.71766,0.38350
5581.78892,0.38327
5579.86017,0.38360
5577.93143,0.38428
5576.00268,0.38442
5574.07394,0.38416
5572.14519,0.38396
5570.21645,0.38376
5568.28770,0.38343
5566.35896,0.38326
5564.43021,0.38341
5562.50147,0.38339
5560.57272,0.38337
5558.64398,0.38436
5556.71523,0.38557
5554.78648,0.38560
5552.85774,0.38555
5550.92899,0.38610
5549.00025,0.38605
5547.07150,0.38563
5545.14276,0.38565
5543.21401,0.38548
5541.28527,0.38440
5539.35652,0.38333
5537.42778,0.38326
5535.49903,0.38373
5533.57029,0.38420
5531.64154,0.38470
5529.71280,0.38519
5527.78405,0.38518
5525.85531,0.38400
5523.92656,0.38212
5521.99781,0.38128
5520.06907,0.38224
5518.14032,0.38362
5516.21158,0.38408
5514.28283,0.38405
5512.35409,0.38408
5510.42534,0.38389
5508.49660,0.38340
5506.56785,0.38338
5504.63911,0.38417
5502.71036,0.38506
5500.78162,0.38562
5498.85287,0.38596
5496.92413,0.38593
5494.99538,0.38588
5493.06664,0.38627
5491.13789,0.38651
5489.20914,0.38645
5487.28040,0.38679
5485.35165,0.38751
5483.42291,0.38757
5481.49416,0.38658
5479.56542,0.38576
5477.63667,0.38600
5475.70793,0.38645
5473.77918,0.38653
5471.85044,0.38695
5469.92169,0.38744
5467.99295,0.38689
5466.06420,0.38610
5464.13546,0.38634
5462.20671,0.38682
5460.27796,0.38656
5458.34922,0.38594
5456.42047,0.38567
5454.49173,0.38622
5452.56298,0.38711
5450.63424,0.38732
5448.70549,0.38685
5446.77675,0.38627
5444.84800,0.38590
5442.91926,0.38595
5440.99051,0.38593
5439.06177,0.38532
5437.13302,0.38488
5435.20428,0.38521
5433.27553,0.38585
5431.34679,0.38620
5429.41804,0.38621
5427.48929,0.38606
5425.56055,0.38560
5423.63180,0.38499
5421.70306,0.38488
5419.77431,0.38516
5417.84557,0.38527
5415.91682,0.38538
5413.98808,0.38591
5412.05933,0.38634
5410.13059,0.38616
5408.20184,0.38596
5406.27310,0.38605
5404.34435,0.38604
5402.41561,0.38584
5400.48686,0.38561
5398.55811,0.38558
5396.62937,0.38605
5394.70062,0.38722
5392.77188,0.38815
5390.84313,0.38766
5388.91439,0.38675
5386.98564,0.38634
5385.05690,0.38576
5383.12815,0.38526
5381.19941,0.38552
5379.27066,0.38577
5377.34192,0.38534
5375.41317,0.38458
5373.48443,0.38416
5371.55568,0.38436
5369.62694,0.38484
5367.69819,0.38529
5365.76944,0.38581
5363.84070,0.38626
5361.91195,0.38629
5359.98321,0.38599
5358.05446,0.38603
5356.12572,0.38665
5354.19697,0.38724
5352.26823,0.38760
5350.33948,0.38812
5348.41074,0.38848
5346.48199,0.38839
5344.55325,0.38839
5342.62450,0.38842
5340.69576,0.38808
5338.76701,0.38760
5336.83827,0.38718
5334.90952,0.38710
5332.98077,0.38715
5331.05203,0.38688
5329.12328,0.38667
5327.19454,0.38665
5325.26579,0.38656
5323.33705,0.38628
5321.40830,0.38590
5319.47956,0.38583
5317.55081,0.38613
5315.62207,0.38663
5313.69332,0.38690
5311.76458,0.38635
5309.83583,0.38569
5307.90709,0.38628
5305.97834,0.38733
5304.04959,0.38731
5302.12085,0.38714
5300.19210,0.38767
5298.26336,0.38792
5296.33461,0.38778
5294.40587,0.38808
5292.47712,0.38835
5290.54838,0.38773
5288.61963,0.38686
5286.69089,0.38665
5284.76214,0.38662
5282.83340,0.38655
5280.90465,0.38685
5278.97591,0.38694
5277.04716,0.38636
5275.11842,0.38576
5273.18967,0.38554
5271.26092,0.38565
5269.33218,0.38609
5267.40343,0.38663
5265.47469,0.38672
5263.54594,0.38630
5261.61720,0.38611
5259.68845,0.38642
5257.75971,0.38688
5255.83096,0.38728
5253.90222,0.38734
5251.97347,0.38715
5250.04473,0.38735
5248.11598,0.38787
5246.18724,0.38787
5244.25849,0.38727
5242.32975,0.38691
5240.40100,0.38689
5238.47225,0.38663
5236.54351,0.38645
5234.61476,0.38661
5232.68602,0.38664
5230.75727,0.38660
5228.82853,0.38706
5226.89978,0.38778
5224.97104,0.38792
5223.04229,0.38736
5221.11355,0.38671
5219.18480,0.38630
5217.25606,0.38617
5215.32731,0.38642
5213.39857,0.38692
5211.46982,0.38713
5209.54107,0.38686
5207.61233,0.38657
5205.68358,0.38644
5203.75484,0.38632
5201.82609,0.38635
5199.89735,0.38651
5197.96860,0.38669
5196.03986,0.38708
5194.11111,0.38743
5192.18237,0.38723
5190.25362,0.38687
5188.32488,0.38713
5186.39613,0.38785
5184.46739,0.38830
5182.53864,0.38834
5180.60990,0.38817
5178.68115,0.38783
5176.75240,0.38734
5174.82366,0.38677
5172.89491,0.38611
5170.96617,0.38566
5169.03742,0.38625
5167.10868,0.38748
5165.17993,0.38797
5163.25119,0.38780
5161.32244,0.38813
5159.39370,0.38892
5157.46495,0.38892
5155.53621,0.38789
5153.60746,0.38687
5151.67872,0.38633
5149.74997,0.38622
5147.82123,0.38643
5145.89248,0.38689
5143.96373,0.38773
5142.03499,0.38858
5140.10624,0.38867
5138.17750,0.38820
5136.24875,0.38787
5134.32001,0.38761
5132.39126,0.38727
5130.46252,0.38699
5128.53377,0.38706
5126.60503,0.38728
5124.67628,0.38671
5122.74754,0.38599
5120.81879,0.38644
5118.89005,0.38752
5116.96130,0.38829
5115.03255,0.38860
5113.10381,0.38826
5111.17506,0.38731
5109.24632,0.38681
5107.31757,0.38726
5105.38883,0.38786
5103.46008,0.38825
5101.53134,0.38845
5099.60259,0.38851
5097.67385,0.38868
5095.74510,0.38892
5093.81636,0.38906
5091.88761,0.38917
5089.95887,0.38904
5088.03012,0.38850
5086.10138,0.38824
5084.17263,0.38832
5082.24388,0.38794
5080.31514,0.38741
5078.38639,0.38726
5076.45765,0.38700
5074.52890,0.38659
5072.60016,0.38642
5070.67141,0.38638
5068.74267,0.38638
5066.81392,0.38642
5064.88518,0.38629
5062.95643,0.38619
5061.02769,0.38645
5059.09894,0.38694
5057.17020,0.38727
5055.24145,0.38745
5053.31270,0.38752
5051.38396,0.38744
5049.45521,0.38755
5047.52647,0.38782
5045.59772,0.38806
5043.66898,0.38820
5041.74023,0.38791
5039.81149,0.38730
5037.88274,0.38722
5035.95400,0.38798
5034.02525,0.38877
5032.09651,0.38925
5030.16776,0.38954
5028.23902,0.38909
5026.31027,0.38832
5024.38153,0.38810
5022.45278,0.38819
5020.52403,0.38825
5018.59529,0.38821
5016.66654,0.38822
5014.73780,0.38848
5012.80905,0.38864
5010.88031,0.38832
5008.95156,0.38753
5007.02282,0.38683
5005.09407,0.38684
5003.16533,0.38716
5001.23658,0.38732
4999.30784,0.38765
4997.37909,0.38800
4995.45035,0.38775
4993.52160,0.38704
4991.59286,0.38677
4989.66411,0.38726
4987.73536,0.38751
4985.80662,0.38714
4983.87787,0.38711
4981.94913,0.38772
4980.02038,0.38835
4978.09164,0.38844
4976.16289,0.38801
4974.23415,0.38765
4972.30540,0.38745
4970.37666,0.38735
4968.44791,0.38784
4966.51917,0.38857
4964.59042,0.38841
4962.66168,0.38729
4960.73293,0.38667
4958.80418,0.38757
4956.87544,0.38894
4954.94669,0.38946
4953.01795,0.38901
4951.08920,0.38834
4949.16046,0.38820
4947.23171,0.38818
4945.30297,0.38797
4943.37422,0.38820
4941.44548,0.38862
4939.51673,0.38847
4937.58799,0.38784
4935.65924,0.38746
4933.73050,0.38770
4931.80175,0.38823
4929.87301,0.38850
4927.94426,0.38830
4926.01551,0.38784
4924.08677,0.38750
4922.15802,0.38774
4920.22928,0.38868
4918.30053,0.38963
4916.37179,0.38989
4914.44304,0.38939
4912.51430,0.38838
4910.58555,0.38774
4908.65681,0.38825
4906.72806,0.38918
4904.79932,0.38942
4902.87057,0.38877
4900.94183,0.38767
4899.01308,0.38676
4897.08434,0.38657
4895.15559,0.38713
4893.22684,0.38764
4891.29810,0.38768
4889.36935,0.38762
4887.44061,0.38765
4885.51186,0.38772
4883.58312,0.38765
4881.65437,0.38745
4879.72563,0.38728
4877.79688,0.38712
4875.86814,0.38703
4873.93939,0.38728
4872.01065,0.38774
4870.08190,0.38789
4868.15316,0.38765
4866.22441,0.38749
4864.29566,0.38756
4862.36692,0.38746
4860.43817,0.38684
4858.50943,0.38619
4856.58068,0.38648
4854.65194,0.38727
4852.72319,0.38737
4850.79445,0.38704
4848.86570,0.38691
4846.93696,0.38682
4845.00821,0.38676
4843.07947,0.38671
4841.15072,0.38662
4839.22198,0.38671
4837.29323,0.38678
4835.36449,0.38664
4833.43574,0.38683
4831.50699,0.38752
4829.57825,0.38798
4827.64950,0.38772
4825.72076,0.38729
4823.79201,0.38723
4821.86327,0.38747
4819.93452,0.38772
4818.00578,0.38792
4816.07703,0.38821
4814.14829,0.38835
4812.21954,0.38795
4810.29080,0.38735
4808.36205,0.38722
4806.43331,0.38750
4804.50456,0.38748
4802.57582,0.38722
4800.64707,0.38732
4798.71832,0.38763
4796.78958,0.38772
4794.86083,0.38764
4792.93209,0.38730
4791.00334,0.38664
4789.07460,0.38630
4787.14585,0.38663
4785.21711,0.38714
4783.28836,0.38739
4781.35962,0.38711
4779.43087,0.38658
4777.50213,0.38634
4775.57338,0.38663
4773.64464,0.38697
4771.71589,0.38672
4769.78714,0.38625
4767.85840,0.38632
4765.92965,0.38666
4764.00091,0.38656
4762.07216,0.38616
4760.14342,0.38607
4758.21467,0.38628
4756.28593,0.38643
4754.35718,0.38636
4752.42844,0.38630
4750.49969,0.38647
4748.57095,0.38679
4746.64220,0.38709
4744.71346,0.38706
4742.78471,0.38656
4740.85597,0.38610
4738.92722,0.38593
4736.99847,0.38576
4735.06973,0.38573
4733.14098,0.38597
4731.21224,0.38625
4729.28349,0.38648
4727.35475,0.38635
4725.42600,0.38563
4723.49726,0.38481
4721.56851,0.38426
4719.63977,0.38406
4717.71102,0.38422
4715.78228,0.38424
4713.85353,0.38393
4711.92479,0.38385
4709.99604,0.38377
4708.06729,0.38297
4706.13855,0.38205
4704.20980,0.38184
4702.28106,0.38182
4700.35231,0.38155
4698.42357,0.38132
4696.49482,0.38120
4694.56608,0.38105
4692.63733,0.38078
4690.70859,0.38017
4688.77984,0.37917
4686.85110,0.37782
4684.92235,0.37601
4682.99361,0.37362
4681.06486,0.37098
4679.13612,0.36827
4677.20737,0.36538
4675.27862,0.36242
4673.34988,0.35961
4671.42113,0.35709
4669.49239,0.35503
4667.56364,0.35348
4665.63490,0.35247
4663.70615,0.35194
4661.77741,0.35170
4659.84866,0.35195
4657.91992,0.35317
4655.99117,0.35527
4654.06243,0.35755
4652.13368,0.35931
4650.20494,0.36066
4648.27619,0.36201
4646.34745,0.36333
4644.41870,0.36426
4642.48995,0.36438
4640.56121,0.36371
4638.63246,0.36269
4636.70372,0.36156
4634.77497,0.36027
4632.84623,0.35858
4630.91748,0.35670
4628.98874,0.35528
4627.05999,0.35441
4625.13125,0.35393
4623.20250,0.35382
4621.27376,0.35383
4619.34501,0.35367
4617.41627,0.35352
4615.48752,0.35299
4613.55877,0.35159
4611.63003,0.35021
4609.70128,0.34996
4607.77254,0.35039
4605.84379,0.35075
4603.91505,0.35134
4601.98630,0.35291
4600.05756,0.35549
4598.12881,0.35853
4596.20007,0.36156
4594.27132,0.36406
4592.34258,0.36564
4590.41383,0.36659
4588.48509,0.36729
4586.55634,0.36795
4584.62760,0.36853
4582.69885,0.36833
4580.77010,0.36691
4578.84136,0.36489
4576.91261,0.36291
4574.98387,0.36100
4573.05512,0.35955
4571.12638,0.35920
4569.19763,0.35999
4567.26889,0.36153
4565.34014,0.36357
4563.41140,0.36580
4561.48265,0.36788
4559.55391,0.36991
4557.62516,0.37184
4555.69642,0.37333
4553.76767,0.37446
4551.83893,0.37544
4549.91018,0.37622
4547.98143,0.37691
4546.05269,0.37767
4544.12394,0.37824
4542.19520,0.37846
4540.26645,0.37859
4538.33771,0.37873
4536.40896,0.37881
4534.48022,0.37894
4532.55147,0.37914
4530.62273,0.37927
4528.69398,0.37930
4526.76524,0.37923
4524.83649,0.37915
4522.90775,0.37932
4520.97900,0.37978
4519.05025,0.38018
4517.12151,0.38000
4515.19276,0.37941
4513.26402,0.37923
4511.33527,0.37955
4509.40653,0.37972
4507.47778,0.37956
4505.54904,0.37939
4503.62029,0.37948
4501.69155,0.37971
4499.76280,0.37988
4497.83406,0.38029
4495.90531,0.38102
4493.97657,0.38156
4492.04782,0.38150
4490.11908,0.38116
4488.19033,0.38103
4486.26158,0.38114
4484.33284,0.38136
4482.40409,0.38175
4480.47535,0.38219
4478.54660,0.38244
4476.61786,0.38248
4474.68911,0.38254
4472.76037,0.38260
4470.83162,0.38247
4468.90288,0.38211
4466.97413,0.38165
4465.04539,0.38152
4463.11664,0.38187
4461.18790,0.38224
4459.25915,0.38250
4457.33041,0.38297
4455.40166,0.38355
4453.47291,0.38378
4451.54417,0.38357
4449.61542,0.38311
4447.68668,0.38256
4445.75793,0.38185
4443.82919,0.38121
4441.90044,0.38094
4439.97170,0.38077
4438.04295,0.38054
4436.11421,0.38050
4434.18546,0.38075
4432.25672,0.38098
4430.32797,0.38085
4428.39923,0.38070
4426.47048,0.38087
4424.54173,0.38106
4422.61299,0.38098
4420.68424,0.38068
4418.75550,0.38043
4416.82675,0.38036
4414.89801,0.38023
4412.96926,0.37990
4411.04052,0.37953
4409.11177,0.37947
4407.18303,0.37943
4405.25428,0.37897
4403.32554,0.37844
4401.39679,0.37816
4399.46805,0.37787
4397.53930,0.37751
4395.61056,0.37709
4393.68181,0.37664
4391.75306,0.37626
4389.82432,0.37590
4387.89557,0.37540
4385.96683,0.37485
4384.03808,0.37429
4382.10934,0.37371
4380.18059,0.37313
4378.25185,0.37264
4376.32310,0.37238
4374.39436,0.37217
4372.46561,0.37159
4370.53687,0.37065
4368.60812,0.36977
4366.67938,0.36916
4364.75063,0.36844
4362.82189,0.36746
4360.89314,0.36656
4358.96439,0.36584
4357.03565,0.36517
4355.10690,0.36450
4353.17816,0.36375
4351.24941,0.36290
4349.32067,0.36248
4347.39192,0.36250
4345.46318,0.36217
4343.53443,0.36126
4341.60569,0.36046
4339.67694,0.36042
4337.74820,0.36089
4335.81945,0.36107
4333.89071,0.36088
4331.96196,0.36074
4330.03321,0.36077
4328.10447,0.36092
4326.17572,0.36135
4324.24698,0.36210
4322.31823,0.36303
4320.38949,0.36398
4318.46074,0.36484
4316.53200,0.36563
4314.60325,0.36653
4312.67451,0.36756
4310.74576,0.36840
4308.81702,0.36901
4306.88827,0.36949
4304.95953,0.36953
4303.03078,0.36916
4301.10204,0.36913
4299.17329,0.36962
4297.24454,0.36992
4295.31580,0.36959
4293.38705,0.36872
4291.45831,0.36770
4289.52956,0.36693
4287.60082,0.36631
4285.67207,0.36552
4283.74333,0.36441
4281.81458,0.36304
4279.88584,0.36173
4277.95709,0.36087
4276.02835,0.36022
4274.09960,0.35937
4272.17086,0.35836
4270.24211,0.35733
4268.31336,0.35619
4266.38462,0.35488
4264.45587,0.35358
4262.52713,0.35250
4260.59838,0.35148
4258.66964,0.35030
4256.74089,0.34918
4254.81215,0.34835
4252.88340,0.34787
4250.95466,0.34771
4249.02591,0.34780
4247.09717,0.34789
4245.16842,0.34784
4243.23968,0.34789
4241.31093,0.34831
4239.38219,0.34912
4237.45344,0.34995
4235.52469,0.35031
4233.59595,0.35028
4231.66720,0.35045
4229.73846,0.35093
4227.80971,0.35119
4225.88097,0.35131
4223.95222,0.35175
4222.02348,0.35222
4220.09473,0.35221
4218.16599,0.35179
4216.23724,0.35143
4214.30850,0.35144
4212.37975,0.35159
4210.45101,0.35156
4208.52226,0.35152
4206.59352,0.35175
4204.66477,0.35214
4202.73602,0.35259
4200.80728,0.35332
4198.87853,0.35433
4196.94979,0.35528
4195.02104,0.35593
4193.09230,0.35647
4191.16355,0.35719
4189.23481,0.35806
4187.30606,0.35873
4185.37732,0.35881
4183.44857,0.35846
4181.51983,0.35836
4179.59108,0.35876
4177.66234,0.35930
4175.73359,0.35978
4173.80484,0.36041
4171.87610,0.36128
4169.94735,0.36202
4168.01861,0.36234
4166.08986,0.36236
4164.16112,0.36236
4162.23237,0.36228
4160.30363,0.36220
4158.37488,0.36242
4156.44614,0.36243
4154.51739,0.36203
4152.58865,0.36209
4150.65990,0.36263
4148.73116,0.36279
4146.80241,0.36247
4144.87367,0.36196
4142.94492,0.36139
4141.01617,0.36098
4139.08743,0.36076
4137.15868,0.36055
4135.22994,0.36022
4133.30119,0.35969
4131.37245,0.35913
4129.44370,0.35875
4127.51496,0.35851
4125.58621,0.35811
4123.65747,0.35750
4121.72872,0.35679
4119.79998,0.35606
4117.87123,0.35557
4115.94249,0.35537
4114.01374,0.35519
4112.08500,0.35486
4110.15625,0.35420
4108.22750,0.35328
4106.29876,0.35250
4104.37001,0.35200
4102.44127,0.35162
4100.51252,0.35128
4098.58378,0.35096
4096.65503,0.35049
4094.72629,0.34976
4092.79754,0.34880
4090.86880,0.34769
4088.94005,0.34659
4087.01131,0.34547
4085.08256,0.34399
4083.15382,0.34199
4081.22507,0.33964
4079.29632,0.33737
4077.36758,0.33538
4075.43883,0.33328
4073.51009,0.33050
4071.58134,0.32708
4069.65260,0.32364
4067.72385,0.32061
4065.79511,0.31787
4063.86636,0.31522
4061.93762,0.31284
4060.00887,0.31104
4058.08013,0.30963
4056.15138,0.30845
4054.22264,0.30777
4052.29389,0.30790
4050.36515,0.30879
4048.43640,0.30994
4046.50765,0.31054
4044.57891,0.31008
4042.65016,0.30879
4040.72142,0.30721
4038.79267,0.30589
4036.86393,0.30564
4034.93518,0.30704
4033.00644,0.30968
4031.07769,0.31294
4029.14895,0.31668
4027.22020,0.32057
4025.29146,0.32419
4023.36271,0.32779
4021.43397,0.33194
4019.50522,0.33656
4017.57648,0.34091
4015.64773,0.34451
4013.71898,0.34740
4011.79024,0.34961
4009.86149,0.35107
4007.93275,0.35185
4006.00400,0.35222
4004.07526,0.35240
4002.14651,0.35240
4000.21777,0.35242
3998.28902,0.35300
3996.36028,0.35424
3994.43153,0.35567
3992.50279,0.35697
3990.57404,0.35820
3988.64530,0.35940
3986.71655,0.36019
3984.78780,0.36044
3982.85906,0.36069
3980.93031,0.36109
3979.00157,0.36114
3977.07282,0.36061
3975.14408,0.35996
3973.21533,0.35990
3971.28659,0.36045
3969.35784,0.36105
3967.42910,0.36140
3965.50035,0.36165
3963.57161,0.36192
3961.64286,0.36216
3959.71412,0.36248
3957.78537,0.36305
3955.85663,0.36346
3953.92788,0.36333
3951.99913,0.36315
3950.07039,0.36332
3948.14164,0.36336
3946.21290,0.36302
3944.28415,0.36258
3942.35541,0.36224
3940.42666,0.36200
3938.49792,0.36188
3936.56917,0.36189
3934.64043,0.36196
3932.71168,0.36213
3930.78294,0.36225
3928.85419,0.36233
3926.92545,0.36269
3924.99670,0.36321
3923.06795,0.36351
3921.13921,0.36363
3919.21046,0.36380
3917.28172,0.36419
3915.35297,0.36468
3913.42423,0.36496
3911.49548,0.36503
3909.56674,0.36506
3907.63799,0.36511
3905.70925,0.36512
3903.78050,0.36502
3901.85176,0.36499
3899.92301,0.36503
3897.99427,0.36487
3896.06552,0.36499
3894.13678,0.36564
3892.20803,0.36621
3890.27928,0.36627
3888.35054,0.36618
3886.42179,0.36620
3884.49305,0.36626
3882.56430,0.36635
3880.63556,0.36641
3878.70681,0.36625
3876.77807,0.36616
3874.84932,0.36625
3872.92058,0.36626
3870.99183,0.36624
3869.06309,0.36627
3867.13434,0.36632
3865.20560,0.36645
3863.27685,0.36657
3861.34811,0.36657
3859.41936,0.36651
3857.49061,0.36681
3855.56187,0.36764
3853.63312,0.36816
3851.70438,0.36756
3849.77563,0.36677
3847.84689,0.36629
3845.91814,0.36603
3843.98940,0.36590
3842.06065,0.36574
3840.13191,0.36542
3838.20316,0.36511
3836.27442,0.36510
3834.34567,0.36517
3832.41693,0.36487
3830.48818,0.36424
3828.55943,0.36383
3826.63069,0.36376
3824.70194,0.36359
3822.77320,0.36332
3820.84445,0.36331
3818.91571,0.36337
3816.98696,0.36317
3815.05822,0.36291
3813.12947,0.36281
3811.20073,0.36269
3809.27198,0.36265
3807.34324,0.36294
3805.41449,0.36319
3803.48575,0.36313
3801.55700,0.36297
3799.62826,0.36301
3797.69951,0.36329
3795.77076,0.36365
3793.84202,0.36398
3791.91327,0.36448
3789.98453,0.36522
3788.05578,0.36589
3786.12704,0.36634
3784.19829,0.36646
3782.26955,0.36632
3780.34080,0.36646
3778.41206,0.36695
3776.48331,0.36725
3774.55457,0.36722
3772.62582,0.36731
3770.69708,0.36764
3768.76833,0.36781
3766.83959,0.36754
3764.91084,0.36705
3762.98209,0.36673
3761.05335,0.36683
3759.12460,0.36720
3757.19586,0.36750
3755.26711,0.36783
3753.33837,0.36839
3751.40962,0.36887
3749.48088,0.36928
3747.55213,0.36997
3745.62339,0.37063
3743.69464,0.37049
3741.76590,0.36968
3739.83715,0.36929
3737.90841,0.36970
3735.97966,0.37016
3734.05091,0.36985
3732.12217,0.36908
3730.19342,0.36843
3728.26468,0.36783
3726.33593,0.36707
3724.40719,0.36633
3722.47844,0.36579
3720.54970,0.36535
3718.62095,0.36519
3716.69221,0.36570
3714.76346,0.36678
3712.83472,0.36787
3710.90597,0.36829
3708.97723,0.36780
3707.04848,0.36684
3705.11974,0.36573
3703.19099,0.36470
3701.26224,0.36411
3699.33350,0.36416
3697.40475,0.36452
3695.47601,0.36493
3693.54726,0.36545
3691.61852,0.36610
3689.68977,0.36650
3687.76103,0.36627
3685.83228,0.36569
3683.90354,0.36528
3681.97479,0.36527
3680.04605,0.36543
3678.11730,0.36551
3676.18856,0.36546
3674.25981,0.36518
3672.33107,0.36496
3670.40232,0.36498
3668.47357,0.36472
3666.54483,0.36402
3664.61608,0.36323
3662.68734,0.36252
3660.75859,0.36168
3658.82985,0.36041
3656.90110,0.35852
3654.97236,0.35625
3653.04361,0.35415
3651.11487,0.35218
3649.18612,0.35016
3647.25738,0.34878
3645.32863,0.34872
3643.39989,0.35017
3641.47114,0.35287
3639.54239,0.35588
3637.61365,0.35856
3635.68490,0.36066
3633.75616,0.36185
3631.82741,0.36234
3629.89867,0.36240
3627.96992,0.36157
3626.04118,0.35985
3624.11243,0.35807
3622.18369,0.35677
3620.25494,0.35647
3618.32620,0.35728
3616.39745,0.35858
3614.46871,0.36024
3612.53996,0.36232
3610.61122,0.36402
3608.68247,0.36485
3606.75372,0.36528
3604.82498,0.36580
3602.89623,0.36631
3600.96749,0.36666
3599.03874,0.36707
3597.11000,0.36749
3595.18125,0.36761
3593.25251,0.36752
3591.32376,0.36737
3589.39502,0.36723
3587.46627,0.36725
3585.53753,0.36743
3583.60878,0.36770
3581.68004,0.36790
3579.75129,0.36789
3577.82254,0.36778
3575.89380,0.36753
3573.96505,0.36726
3572.03631,0.36732
3570.10756,0.36759
3568.17882,0.36773
3566.25007,0.36765
3564.32133,0.36742
3562.39258,0.36709
3560.46384,0.36670
3558.53509,0.36629
3556.60635,0.36595
3554.67760,0.36576
3552.74886,0.36564
3550.82011,0.36550
3548.89137,0.36545
3546.96262,0.36558
3545.03387,0.36563
3543.10513,0.36529
3541.17638,0.36472
3539.24764,0.36432
3537.31889,0.36424
3535.39015,0.36441
3533.46140,0.36465
3531.53266,0.36444
3529.60391,0.36364
3527.67517,0.36299
3525.74642,0.36289
3523.81768,0.36298
3521.88893,0.36308
3519.96019,0.36308
3518.03144,0.36276
3516.10270,0.36246
3514.17395,0.36242
3512.24520,0.36233
3510.31646,0.36205
3508.38771,0.36166
3506.45897,0.36141
3504.53022,0.36134
3502.60148,0.36120
3500.67273,0.36097
3498.74399,0.36077
3496.81524,0.36037
3494.88650,0.35978
3492.95775,0.35923
3491.02901,0.35879
3489.10026,0.35849
3487.17152,0.35816
3485.24277,0.35763
3483.31402,0.35740
3481.38528,0.35768
3479.45653,0.35781
3477.52779,0.35756
3475.59904,0.35723
3473.67030,0.35683
3471.74155,0.35643
3469.81281,0.35626
3467.88406,0.35627
3465.95532,0.35622
3464.02657,0.35599
3462.09783,0.35566
3460.16908,0.35537
3458.24034,0.35508
3456.31159,0.35483
3454.38285,0.35482
3452.45410,0.35490
3450.52535,0.35482
3448.59661,0.35459
3446.66786,0.35426
3444.73912,0.35376
3442.81037,0.35335
3440.88163,0.35338
3438.95288,0.35385
3437.02414,0.35456
3435.09539,0.35520
3433.16665,0.35567
3431.23790,0.35608
3429.30916,0.35623
3427.38041,0.35610
3425.45167,0.35629
3423.52292,0.35698
3421.59418,0.35768
3419.66543,0.35824
3417.73668,0.35862
3415.80794,0.35847
3413.87919,0.35787
3411.95045,0.35743
3410.02170,0.35747
3408.09296,0.35775
3406.16421,0.35793
3404.23547,0.35804
3402.30672,0.35807
3400.37798,0.35792
3398.44923,0.35780
3396.52049,0.35790
3394.59174,0.35805
3392.66300,0.35812
3390.73425,0.35803
3388.80550,0.35786
3386.87676,0.35782
3384.94801,0.35783
3383.01927,0.35773
3381.09052,0.35780
3379.16178,0.35814
3377.23303,0.35839
3375.30429,0.35853
3373.37554,0.35868
3371.44680,0.35883
3369.51805,0.35892
3367.58931,0.35899
3365.66056,0.35911
3363.73182,0.35912
3361.80307,0.35897
3359.87433,0.35889
3357.94558,0.35883
3356.01683,0.35867
3354.08809,0.35882
3352.15934,0.35917
3350.23060,0.35912
3348.30185,0.35879
3346.37311,0.35851
3344.44436,0.35846
3342.51562,0.35870
3340.58687,0.35890
3338.65813,0.35891
3336.72938,0.35895
3334.80064,0.35903
3332.87189,0.35896
3330.94315,0.35903
3329.01440,0.35953
3327.08566,0.35994
3325.15691,0.35975
3323.22816,0.35923
3321.29942,0.35878
3319.37067,0.35877
3317.44193,0.35918
3315.51318,0.35946
3313.58444,0.35935
3311.65569,0.35887
3309.72695,0.35832
3307.79820,0.35830
3305.86946,0.35879
3303.94071,0.35913
3302.01197,0.35901
3300.08322,0.35874
3298.15448,0.35870
3296.22573,0.35877
3294.29698,0.35876
3292.36824,0.35873
3290.43949,0.35873
3288.51075,0.35881
3286.58200,0.35883
3284.65326,0.35872
3282.72451,0.35857
3280.79577,0.35814
3278.86702,0.35744
3276.93828,0.35702
3275.00953,0.35703
3273.08079,0.35715
3271.15204,0.35724
3269.22330,0.35711
3267.29455,0.35678
3265.36581,0.35654
3263.43706,0.35645
3261.50831,0.35654
3259.57957,0.35688
3257.65082,0.35732
3255.72208,0.35748
3253.79333,0.35729
3251.86459,0.35712
3249.93584,0.35709
3248.00710,0.35705
3246.07835,0.35687
3244.14961,0.35656
3242.22086,0.35657
3240.29212,0.35693
3238.36337,0.35706
3236.43463,0.35692
3234.50588,0.35676
3232.57713,0.35642
3230.64839,0.35597
3228.71964,0.35550
3226.79090,0.35519
3224.86215,0.35527
3222.93341,0.35534
3221.00466,0.35512
3219.07592,0.35478
3217.14717,0.35447
3215.21843,0.35414
3213.28968,0.35352
3211.36094,0.35277
3209.43219,0.35215
3207.50345,0.35134
3205.57470,0.35018
3203.64596,0.34901
3201.71721,0.34812
3199.78846,0.34764
3197.85972,0.34747
3195.93097,0.34738
3194.00223,0.34737
3192.07348,0.34743
3190.14474,0.34762
3188.21599,0.34786
3186.28725,0.34772
3184.35850,0.34724
3182.42976,0.34691
3180.50101,0.34680
3178.57227,0.34647
3176.64352,0.34571
3174.71478,0.34466
3172.78603,0.34324
3170.85729,0.34124
3168.92854,0.33846
3166.99979,0.33508
3165.07105,0.33177
3163.14230,0.32930
3161.21356,0.32858
3159.28481,0.32990
3157.35607,0.33236
3155.42732,0.33478
3153.49858,0.33634
3151.56983,0.33684
3149.64109,0.33682
3147.71234,0.33673
3145.78360,0.33654
3143.85485,0.33618
3141.92611,0.33575
3139.99736,0.33527
3138.06861,0.33460
3136.13987,0.33368
3134.21112,0.33258
3132.28238,0.33117
3130.35363,0.32939
3128.42489,0.32733
3126.49614,0.32512
3124.56740,0.32267
3122.63865,0.31961
3120.70991,0.31547
3118.78116,0.31001
3116.85242,0.30318
3114.92367,0.29479
3112.99493,0.28451
3111.06618,0.27246
3109.13744,0.25969
3107.20869,0.24806
3105.27994,0.23934
3103.35120,0.23481
3101.42245,0.23456
3099.49371,0.23682
3097.56496,0.23885
3095.63622,0.23816
3093.70747,0.23325
3091.77873,0.22415
3089.84998,0.21188
3087.92124,0.19783
3085.99249,0.18451
3084.06375,0.17521
3082.13500,0.17222
3080.20626,0.17544
3078.27751,0.18229
3076.34877,0.18916
3074.42002,0.19313
3072.49127,0.19310
3070.56253,0.18943
3068.63378,0.18287
3066.70504,0.17436
3064.77629,0.16558
3062.84755,0.15858
3060.91880,0.15505
3058.99006,0.15599
3057.06131,0.16134
3055.13257,0.16947
3053.20382,0.17818
3051.27508,0.18621
3049.34633,0.19306
3047.41759,0.19793
3045.48884,0.19980
3043.56009,0.19825
3041.63135,0.19341
3039.70260,0.18589
3037.77386,0.17651
3035.84511,0.16574
3033.91637,0.15405
3031.98762,0.14240
3030.05888,0.13228
3028.13013,0.12563
3026.20139,0.12416
3024.27264,0.12840
3022.34390,0.13795
3020.41515,0.15178
3018.48641,0.16803
3016.55766,0.18431
3014.62892,0.19866
3012.70017,0.20983
3010.77142,0.21701
3008.84268,0.21984
3006.91393,0.21838
3004.98519,0.21379
3003.05644,0.20895
3001.12770,0.20741
2999.19895,0.21164
2997.27021,0.22165
2995.34146,0.23464
2993.41272,0.24689
2991.48397,0.25608
2989.55523,0.26195
2987.62648,0.26532
2985.69774,0.26688
2983.76899,0.26669
2981.84025,0.26488
2979.91150,0.26223
2977.98275,0.25972
2976.05401,0.25776
2974.12526,0.25592
2972.19652,0.25344
2970.26777,0.25010
2968.33903,0.24604
2966.41028,0.24116
2964.48154,0.23550
2962.55279,0.22930
2960.62405,0.22267
2958.69530,0.21583
2956.76656,0.20911
2954.83781,0.20238
2952.90907,0.19520
2950.98032,0.18746
2949.05157,0.17949
2947.12283,0.17173
2945.19408,0.16429
2943.26534,0.15705
2941.33659,0.14985
2939.40785,0.14287
2937.47910,0.13650
2935.55036,0.13083
2933.62161,0.12585
2931.69287,0.12193
2929.76412,0.11931
2927.83538,0.11765
2925.90663,0.11673
2923.97789,0.11690
2922.04914,0.11827
2920.12040,0.12042
2918.19165,0.12321
2916.26290,0.12663
2914.33416,0.13042
2912.40541,0.13451
2910.47667,0.13904
2908.54792,0.14389
2906.61918,0.14872
2904.69043,0.15369
2902.76169,0.15915
2900.83294,0.16493
2898.90420,0.17080
2896.97545,0.17658
2895.04671,0.18174
2893.11796,0.18608
2891.18922,0.18994
2889.26047,0.19365
2887.33172,0.19730
2885.40298,0.20076
2883.47423,0.20402
2881.54549,0.20739
2879.61674,0.21079
2877.68800,0.21378
2875.75925,0.21641
2873.83051,0.21881
2871.90176,0.22052
2869.97302,0.22097
2868.04427,0.21975
2866.11553,0.21662
2864.18678,0.21184
2862.25804,0.20585
2860.32929,0.19902
2858.40055,0.19198
2856.47180,0.18536
2854.54305,0.17983
2852.61431,0.17604
2850.68556,0.17453
2848.75682,0.17569
2846.82807,0.17967
2844.89933,0.18672
2842.97058,0.19723
2841.04184,0.21095
2839.11309,0.22674
2837.18435,0.24310
2835.25560,0.25861
2833.32686,0.27220
2831.39811,0.28320
2829.46937,0.29144
2827.54062,0.29737
2825.61188,0.30176
2823.68313,0.30517
2821.75438,0.30780
2819.82564,0.30972
2817.89689,0.31100
2815.96815,0.31185
2814.03940,0.31247
2812.11066,0.31292
2810.18191,0.31331
2808.25317,0.31404
2806.32442,0.31530
2804.39568,0.31695
2802.46693,0.31882
2800.53819,0.32074
2798.60944,0.32249
2796.68070,0.32400
2794.75195,0.32534
2792.82320,0.32666
2790.89446,0.32778
2788.96571,0.32840
2787.03697,0.32871
2785.10822,0.32897
2783.17948,0.32914
2781.25073,0.32933
2779.32199,0.32977
2777.39324,0.33054
2775.46450,0.33172
2773.53575,0.33331
2771.60701,0.33506
2769.67826,0.33656
2767.74952,0.33761
2765.82077,0.33846
2763.89203,0.33932
2761.96328,0.34011
2760.03453,0.34075
2758.10579,0.34133
2756.17704,0.34189
2754.24830,0.34234
2752.31955,0.34286
2750.39081,0.34344
2748.46206,0.34373
2746.53332,0.34366
2744.60457,0.34342
2742.67583,0.34304
2740.74708,0.34259
2738.81834,0.34213
2736.88959,0.34158
2734.96085,0.34092
2733.03210,0.34020
2731.10336,0.33951
2729.17461,0.33902
2727.24586,0.33879
2725.31712,0.33860
2723.38837,0.33827
2721.45963,0.33794
2719.53088,0.33770
2717.60214,0.33759
2715.67339,0.33774
2713.74465,0.33819
2711.81590,0.33861
2709.88716,0.33877
2707.95841,0.33872
2706.02967,0.33864
2704.10092,0.33870
2702.17218,0.33878
2700.24343,0.33861
2698.31468,0.33828
2696.38594,0.33802
2694.45719,0.33806
2692.52845,0.33835
2690.59970,0.33842
2688.67096,0.33801
2686.74221,0.33757
2684.81347,0.33767
2682.88472,0.33830
2680.95598,0.33889
2679.02723,0.33905
2677.09849,0.33898
2675.16974,0.33893
2673.24100,0.33878
2671.31225,0.33859
2669.38351,0.33872
2667.45476,0.33913
2665.52601,0.33943
2663.59727,0.33946
2661.66852,0.33935
2659.73978,0.33936
2657.81103,0.33947
2655.88229,0.33953
2653.95354,0.33961
2652.02480,0.33960
2650.09605,0.33930
2648.16731,0.33887
2646.23856,0.33857
2644.30982,0.33850
2642.38107,0.33838
2640.45233,0.33777
2638.52358,0.33645
2636.59484,0.33463
2634.66609,0.33281
2632.73734,0.33151
2630.80860,0.33124
2628.87985,0.33239
2626.95111,0.33461
2625.02236,0.33695
2623.09362,0.33877
2621.16487,0.34006
2619.23613,0.34099
2617.30738,0.34149
2615.37864,0.34144
2613.44989,0.34093
2611.52115,0.34005
2609.59240,0.33871
2607.66366,0.33696
2605.73491,0.33527
2603.80616,0.33422
2601.87742,0.33412
2599.94867,0.33511
2598.01993,0.33699
2596.09118,0.33921
2594.16244,0.34115
2592.23369,0.34248
2590.30495,0.34301
2588.37620,0.34259
2586.44746,0.34143
2584.51871,0.34004
2582.58997,0.33891
2580.66122,0.33850
2578.73248,0.33921
2576.80373,0.34085
2574.87499,0.34261
2572.94624,0.34381
2571.01749,0.34442
2569.08875,0.34469
2567.16000,0.34484
2565.23126,0.34497
2563.30251,0.34504
2561.37377,0.34511
2559.44502,0.34520
2557.51628,0.34511
2555.58753,0.34475
2553.65879,0.34439
2551.73004,0.34428
2549.80130,0.34420
2547.87255,0.34399
2545.94381,0.34390
2544.01506,0.34404
2542.08631,0.34437
2540.15757,0.34496
2538.22882,0.34564
2536.30008,0.34608
2534.37133,0.34621
2532.44259,0.34619
2530.51384,0.34605
2528.58510,0.34575
2526.65635,0.34542
2524.72761,0.34523
2522.79886,0.34507
2520.87012,0.34478
2518.94137,0.34447
2517.01263,0.34433
2515.08388,0.34423
2513.15514,0.34402
2511.22639,0.34387
2509.29764,0.34392
2507.36890,0.34406
2505.44015,0.34415
2503.51141,0.34438
2501.58266,0.34502
2499.65392,0.34584
2497.72517,0.34637
2495.79643,0.34653
2493.86768,0.34668
2491.93894,0.34706
2490.01019,0.34759
2488.08145,0.34805
2486.15270,0.34835
2484.22396,0.34857
2482.29521,0.34895
2480.36647,0.34974
2478.43772,0.35079
2476.50897,0.35169
2474.58023,0.35238
2472.65148,0.35314
2470.72274,0.35392
2468.79399,0.35454
2466.86525,0.35502
2464.93650,0.35551
2463.00776,0.35599
2461.07901,0.35630
2459.15027,0.35640
2457.22152,0.35628
2455.29278,0.35595
2453.36403,0.35571
2451.43529,0.35582
2449.50654,0.35620
2447.57779,0.35654
2445.64905,0.35666
2443.72030,0.35679
2441.79156,0.35705
2439.86281,0.35720
2437.93407,0.35721
2436.00532,0.35734
2434.07658,0.35764
2432.14783,0.35808
2430.21909,0.35842
2428.29034,0.35841
2426.36160,0.35836
2424.43285,0.35857
2422.50411,0.35889
2420.57536,0.35911
2418.64662,0.35920
2416.71787,0.35922
2414.78912,0.35916
2412.86038,0.35895
2410.93163,0.35858
2409.00289,0.35816
2407.07414,0.35777
2405.14540,0.35743
2403.21665,0.35712
2401.28791,0.35701
2399.35916,0.35699
2397.43042,0.35674
2395.50167,0.35633
2393.57293,0.35613
2391.64418,0.35619
2389.71544,0.35627
2387.78669,0.35620
2385.85795,0.35605
2383.92920,0.35596
2382.00045,0.35591
2380.07171,0.35585
2378.14296,0.35582
2376.21422,0.35585
2374.28547,0.35577
2372.35673,0.35541
2370.42798,0.35485
2368.49924,0.35414
2366.57049,0.35314
2364.64175,0.35186
2362.71300,0.35072
2360.78426,0.35008
2358.85551,0.35001
2356.92677,0.35022
2354.99802,0.35032
2353.06927,0.35020
2351.14053,0.34980
2349.21178,0.34896
2347.28304,0.34755
2345.35429,0.34535
2343.42555,0.34228
2341.49680,0.33881
2339.56806,0.33569
2337.63931,0.33377
2335.71057,0.33402
2333.78182,0.33682
2331.85308,0.34136
2329.92433,0.34613
2327.99559,0.34991
2326.06684,0.35222
2324.13810,0.35322
2322.20935,0.35317
2320.28060,0.35214
2318.35186,0.35017
2316.42311,0.34760
2314.49437,0.34514
2312.56562,0.34362
2310.63688,0.34356
2308.70813,0.34512
2306.77939,0.34788
2304.85064,0.35099
2302.92190,0.35358
2300.99315,0.35509
2299.06441,0.35544
2297.13566,0.35520
2295.20692,0.35505
2293.27817,0.35522
2291.34943,0.35561
2289.42068,0.35626
2287.49193,0.35710
2285.56319,0.35787
2283.63444,0.35844
2281.70570,0.35885
2279.77695,0.35917
2277.84821,0.35940
2275.91946,0.35950
2273.99072,0.35943
2272.06197,0.35913
2270.13323,0.35873
2268.20448,0.35839
2266.27574,0.35797
2264.34699,0.35735
2262.41825,0.35673
2260.48950,0.35616
2258.56075,0.35557
2256.63201,0.35510
2254.70326,0.35501
2252.77452,0.35530
2250.84577,0.35584
2248.91703,0.35651
2246.98828,0.35731
2245.05954,0.35818
2243.13079,0.35904
2241.20205,0.35983
2239.27330,0.36043
2237.34456,0.36088
2235.41581,0.36126
2233.48707,0.36139
2231.55832,0.36126
2229.62958,0.36112
2227.70083,0.36111
2225.77208,0.36120
2223.84334,0.36140
2221.91459,0.36160
2219.98585,0.36171
2218.05710,0.36171
2216.12836,0.36155
2214.19961,0.36132
2212.27087,0.36114
2210.34212,0.36104
2208.41338,0.36103
2206.48463,0.36136
2204.55589,0.36202
2202.62714,0.36273
2200.69840,0.36333
2198.76965,0.36367
2196.84090,0.36371
2194.91216,0.36361
2192.98341,0.36338
2191.05467,0.36295
2189.12592,0.36245
2187.19718,0.36204
2185.26843,0.36181
2183.33969,0.36188
2181.41094,0.36233
2179.48220,0.36304
2177.55345,0.36381
2175.62471,0.36455
2173.69596,0.36516
2171.76722,0.36546
2169.83847,0.36556
2167.90973,0.36568
2165.98098,0.36584
2164.05223,0.36593
2162.12349,0.36594
2160.19474,0.36596
2158.26600,0.36601
2156.33725,0.36602
2154.40851,0.36593
2152.47976,0.36581
2150.55102,0.36585
2148.62227,0.36610
2146.69353,0.36642
2144.76478,0.36661
2142.83604,0.36658
2140.90729,0.36651
2138.97855,0.36663
2137.04980,0.36690
2135.12106,0.36711
2133.19231,0.36716
2131.26356,0.36731
2129.33482,0.36765
2127.40607,0.36792
2125.47733,0.36793
2123.54858,0.36786
2121.61984,0.36795
2119.69109,0.36813
2117.76235,0.36820
2115.83360,0.36822
2113.90486,0.36828
2111.97611,0.36830
2110.04737,0.36824
2108.11862,0.36822
2106.18988,0.36829
2104.26113,0.36847
2102.33238,0.36875
2100.40364,0.36903
2098.47489,0.36919
2096.54615,0.36929
2094.61740,0.36943
2092.68866,0.36960
2090.75991,0.36971
2088.83117,0.36970
2086.90242,0.36952
2084.97368,0.36933
2083.04493,0.36934
2081.11619,0.36944
2079.18744,0.36933
2077.25870,0.36899
2075.32995,0.36873
2073.40121,0.36874
2071.47246,0.36893
2069.54371,0.36898
2067.61497,0.36886
2065.68622,0.36876
2063.75748,0.36865
2061.82873,0.36841
2059.89999,0.36818
2057.97124,0.36811
2056.04250,0.36819
2054.11375,0.36833
2052.18501,0.36838
2050.25626,0.36822
2048.32752,0.36799
2046.39877,0.36801
2044.47003,0.36815
2042.54128,0.36811
2040.61254,0.36790
2038.68379,0.36762
2036.75504,0.36724
2034.82630,0.36672
2032.89755,0.36620
2030.96881,0.36584
2029.04006,0.36563
2027.11132,0.36552
2025.18257,0.36548
2023.25383,0.36541
2021.32508,0.36533
2019.39634,0.36530
2017.46759,0.36507
2015.53885,0.36453
2013.61010,0.36385
2011.68136,0.36324
2009.75261,0.36273
2007.82386,0.36222
2005.89512,0.36170
2003.96637,0.36127
2002.03763,0.36082
2000.10888,0.36016
1998.18014,0.35917
1996.25139,0.35783
1994.32265,0.35607
1992.39390,0.35365
1990.46516,0.35062
1988.53641,0.34766
1986.60767,0.34541
1984.67892,0.34414
1982.75018,0.34377
1980.82143,0.34375
1978.89269,0.34351
1976.96394,0.34254
1975.03519,0.34023
1973.10645,0.33615
1971.17770,0.33041
1969.24896,0.32348
1967.32021,0.31598
1965.39147,0.30870
1963.46272,0.30223
1961.53398,0.29681
1959.60523,0.29254
1957.67649,0.28919
1955.74774,0.28625
1953.81900,0.28320
1951.89025,0.27966
1949.96151,0.27544
1948.03276,0.27093
1946.10402,0.26714
1944.17527,0.26497
1942.24652,0.26505
1940.31778,0.26777
1938.38903,0.27315
1936.46029,0.28079
1934.53154,0.28982
1932.60280,0.29918
1930.67405,0.30799
1928.74531,0.31563
1926.81656,0.32185
1924.88782,0.32690
1922.95907,0.33127
1921.03033,0.33516
1919.10158,0.33865
1917.17284,0.34160
1915.24409,0.34362
1913.31534,0.34481
1911.38660,0.34546
1909.45785,0.34538
1907.52911,0.34449
1905.60036,0.34297
1903.67162,0.34075
1901.74287,0.33765
1899.81413,0.33362
1897.88538,0.32868
1895.95664,0.32298
1894.02789,0.31689
1892.09915,0.31092
1890.17040,0.30518
1888.24166,0.29983
1886.31291,0.29544
1884.38417,0.29214
1882.45542,0.28963
1880.52667,0.28751
1878.59793,0.28554
1876.66918,0.28361
1874.74044,0.28171
1872.81169,0.28020
1870.88295,0.27970
1868.95420,0.28071
1867.02546,0.28326
1865.09671,0.28739
1863.16797,0.29335
1861.23922,0.30099
1859.31048,0.30941
1857.38173,0.31769
1855.45299,0.32532
1853.52424,0.33191
1851.59549,0.33712
1849.66675,0.34102
1847.73800,0.34397
1845.80926,0.34623
1843.88051,0.34773
1841.95177,0.34834
1840.02302,0.34830
1838.09428,0.34762
1836.16553,0.34604
1834.23679,0.34364
1832.30804,0.34062
1830.37930,0.33684
1828.45055,0.33217
1826.52181,0.32700
1824.59306,0.32156
1822.66432,0.31616
1820.73557,0.31104
1818.80682,0.30614
1816.87808,0.30144
1814.94933,0.29687
1813.02059,0.29243
1811.09184,0.28817
1809.16310,0.28412
1807.23435,0.28059
1805.30561,0.27811
1803.37686,0.27702
1801.44812,0.27753
1799.51937,0.28005
1797.59063,0.28481
1795.66188,0.29160
1793.73314,0.30017
1791.80439,0.30965
1789.87565,0.31812
1787.94690,0.32481
1786.01815,0.33004
1784.08941,0.33344
1782.16066,0.33464
1780.23192,0.33403
1778.30317,0.33260
1776.37443,0.33158
1774.44568,0.33168
1772.51694,0.33284
1770.58819,0.33394
1768.65945,0.33396
1766.73070,0.33275
1764.80196,0.33039
1762.87321,0.32673
1760.94447,0.32184
1759.01572,0.31646
1757.08697,0.31062
1755.15823,0.30467
1753.22948,0.29933
1751.30074,0.29448
1749.37199,0.29025
1747.44325,0.28707
1745.51450,0.28495
1743.58576,0.28402
1741.65701,0.28443
1739.72827,0.28623
1737.79952,0.28926
1735.87078,0.29378
1733.94203,0.30016
1732.01329,0.30639
1730.08454,0.31120
1728.15580,0.31530
1726.22705,0.31877
1724.29830,0.32185
1722.36956,0.32472
1720.44081,0.32738
1718.51207,0.32993
1716.58332,0.33221
1714.65458,0.33383
1712.72583,0.33478
1710.79709,0.33515
1708.86834,0.33516
1706.93960,0.33488
1705.01085,0.33419
1703.08211,0.33353
1701.15336,0.33327
1699.22462,0.33318
1697.29587,0.33300
1695.36713,0.33227
1693.43838,0.33064
1691.50963,0.32854
1689.58089,0.32618
1687.65214,0.32389
1685.72340,0.32160
1683.79465,0.31849
1681.86591,0.31549
1679.93716,0.31355
1678.00842,0.31208
1676.07967,0.31050
1674.15093,0.30876
1672.22218,0.30732
1670.29344,0.30624
1668.36469,0.30537
1666.43595,0.30520
1664.50720,0.30613
1662.57845,0.30815
1660.64971,0.31077
1658.72096,0.31359
1656.79222,0.31659
1654.86347,0.32006
1652.93473,0.32365
1651.00598,0.32582
1649.07724,0.32730
1647.14849,0.32895
1645.21975,0.33020
1643.29100,0.33089
1641.36226,0.33140
1639.43351,0.33176
1637.50477,0.33177
1635.57602,0.33067
1633.64728,0.32826
1631.71853,0.32571
1629.78978,0.32330
1627.86104,0.32064
1625.93229,0.31773
1624.00355,0.31443
1622.07480,0.31056
1620.14606,0.30647
1618.21731,0.30133
1616.28857,0.29328
1614.35982,0.28276
1612.43108,0.26973
1610.50233,0.25184
1608.57359,0.22866
1606.64484,0.20356
1604.71610,0.18193
1602.78735,0.16894
1600.85861,0.16802
1598.92986,0.17869
1597.00111,0.19629
1595.07237,0.21479
1593.14362,0.23032
1591.21488,0.24174
1589.28613,0.24744
1587.35739,0.24473
1585.42864,0.23538
1583.49990,0.22923
1581.57115,0.23605
1579.64241,0.25362
1577.71366,0.27322
1575.78492,0.28957
1573.85617,0.30047
1571.92743,0.30811
1569.99868,0.31483
1568.06993,0.31966
1566.14119,0.32221
1564.21244,0.32357
1562.28370,0.32437
1560.35495,0.32440
1558.42621,0.32191
1556.49746,0.31738
1554.56872,0.31264
1552.63997,0.30755
1550.71123,0.30225
1548.78248,0.29711
1546.85374,0.29263
1544.92499,0.28926
1542.99625,0.28746
1541.06750,0.28744
1539.13876,0.28892
1537.21001,0.29152
1535.28126,0.29532
1533.35252,0.30018
1531.42377,0.30461
1529.49503,0.30794
1527.56628,0.31054
1525.63754,0.31215
1523.70879,0.31254
1521.78005,0.31172
1519.85130,0.30979
1517.92256,0.30700
1515.99381,0.30330
1514.06507,0.29911
1512.13632,0.29475
1510.20758,0.28985
1508.27883,0.28279
1506.35008,0.27046
1504.42134,0.25459
1502.49259,0.23717
1500.56385,0.21444
1498.63510,0.18389
1496.70636,0.15004
1494.77761,0.12767
1492.84887,0.12681
1490.92012,0.14483
1488.99138,0.17212
1487.06263,0.19753
1485.13389,0.21847
1483.20514,0.23637
1481.27640,0.25100
1479.34765,0.26129
1477.41891,0.26748
1475.49016,0.27051
1473.56141,0.27090
1471.63267,0.26892
1469.70392,0.26531
1467.77518,0.26066
1465.84643,0.25405
1463.91769,0.24421
1461.98894,0.23114
1460.06020,0.21374
1458.13145,0.18617
1456.20271,0.15047
1454.27396,0.12810
1452.34522,0.12612
1450.41647,0.13667
1448.48773,0.15086
1446.55898,0.16369
1444.63024,0.17505
1442.70149,0.18639
1440.77274,0.19800
1438.84400,0.21026
1436.91525,0.22507
1434.98651,0.24128
1433.05776,0.25609
1431.12902,0.26987
1429.20027,0.28206
1427.27153,0.29106
1425.34278,0.29714
1423.41404,0.30129
1421.48529,0.30432
1419.55655,0.30682
1417.62780,0.30851
1415.69906,0.30932
1413.77031,0.30967
1411.84156,0.30966
1409.91282,0.30934
1407.98407,0.30891
1406.05533,0.30834
1404.12658,0.30718
1402.19784,0.30529
1400.26909,0.30265
1398.34035,0.29909
1396.41160,0.29439
1394.48286,0.28801
1392.55411,0.28027
1390.62537,0.27214
1388.69662,0.26361
1386.76788,0.25489
1384.83913,0.24747
1382.91039,0.24205
1380.98164,0.23774
1379.05289,0.23364
1377.12415,0.22990
1375.19540,0.22714
1373.26666,0.22570
1371.33791,0.22565
1369.40917,0.22675
1367.48042,0.22833
1365.55168,0.22999
1363.62293,0.23189
1361.69419,0.23414
1359.76544,0.23664
1357.83670,0.23919
1355.90795,0.24124
1353.97921,0.24239
1352.05046,0.24289
1350.12172,0.24341
1348.19297,0.24452
1346.26422,0.24645
1344.33548,0.24917
1342.40673,0.25218
1340.47799,0.25446
1338.54924,0.25514
1336.62050,0.25393
1334.69175,0.25102
1332.76301,0.24720
1330.83426,0.24388
1328.90552,0.24244
1326.97677,0.24332
1325.04803,0.24569
1323.11928,0.24823
1321.19054,0.24998
1319.26179,0.25042
1317.33304,0.24955
1315.40430,0.24799
1313.47555,0.24669
1311.54681,0.24652
1309.61806,0.24777
1307.68932,0.24992
1305.76057,0.25226
1303.83183,0.25457
1301.90308,0.25696
1299.97434,0.25935
1298.04559,0.26120
1296.11685,0.26224
1294.18810,0.26279
1292.25936,0.26333
1290.33061,0.26403
1288.40187,0.26487
1286.47312,0.26582
1284.54437,0.26707
1282.61563,0.26891
1280.68688,0.27153
1278.75814,0.27494
1276.82939,0.27900
1274.90065,0.28334
1272.97190,0.28752
1271.04316,0.29129
1269.11441,0.29467
1267.18567,0.29767
1265.25692,0.30007
1263.32818,0.30171
1261.39943,0.30278
1259.47069,0.30349
1257.54194,0.30376
1255.61320,0.30337
1253.68445,0.30243
1251.75570,0.30130
1249.82696,0.30021
1247.89821,0.29935
1245.96947,0.29899
1244.04072,0.29919
1242.11198,0.29980
1240.18323,0.30056
1238.25449,0.30122
1236.32574,0.30156
1234.39700,0.30144
1232.46825,0.30083
1230.53951,0.29956
1228.61076,0.29784
1226.68202,0.29642
1224.75327,0.29565
1222.82452,0.29515
1220.89578,0.29459
1218.96703,0.29378
1217.03829,0.29255
1215.10954,0.29083
1213.18080,0.28865
1211.25205,0.28610
1209.32331,0.28310
1207.39456,0.27937
1205.46582,0.27497
1203.53707,0.27023
1201.60833,0.26542
1199.67958,0.26114
1197.75084,0.25798
1195.82209,0.25584
1193.89335,0.25424
1191.96460,0.25305
1190.03585,0.25198
1188.10711,0.24986
1186.17836,0.24552
1184.24962,0.23978
1182.32087,0.23585
1180.39213,0.23717
1178.46338,0.24451
1176.53464,0.25483
1174.60589,0.26394
1172.67715,0.27012
1170.74840,0.27399
1168.81966,0.27636
1166.89091,0.27758
1164.96217,0.27752
1163.03342,0.27511
1161.10467,0.26896
1159.17593,0.25912
1157.24718,0.24857
1155.31844,0.24263
1153.38969,0.24562
1151.46095,0.25705
1149.53220,0.27175
1147.60346,0.28462
1145.67471,0.29427
1143.74597,0.30177
1141.81722,0.30786
1139.88848,0.31264
1137.95973,0.31615
1136.03099,0.31836
1134.10224,0.31956
1132.17350,0.32029
1130.24475,0.32076
1128.31600,0.32083
1126.38726,0.32017
1124.45851,0.31828
1122.52977,0.31499
1120.60102,0.31062
1118.67228,0.30532
1116.74353,0.29973
1114.81479,0.29534
1112.88604,0.29324
1110.95730,0.29350
1109.02855,0.29511
1107.09981,0.29663
1105.17106,0.29731
1103.24232,0.29708
1101.31357,0.29565
1099.38483,0.29295
1097.45608,0.28970
1095.52733,0.28652
1093.59859,0.28350
1091.66984,0.28067
1089.74110,0.27784
1087.81235,0.27444
1085.88361,0.27022
1083.95486,0.26519
1082.02612,0.25953
1080.09737,0.25386
1078.16863,0.24831
1076.23988,0.24215
1074.31114,0.23563
1072.38239,0.23040
1070.45365,0.22777
1068.52490,0.22827
1066.59615,0.23199
1064.66741,0.23799
1062.73866,0.24493
1060.80992,0.25176
1058.88117,0.25795
1056.95243,0.26343
1055.02368,0.26843
1053.09494,0.27294
1051.16619,0.27659
1049.23745,0.27928
1047.30870,0.28120
1045.37996,0.28228
1043.45121,0.28187
1041.52247,0.27916
1039.59372,0.27295
1037.66498,0.26137
1035.73623,0.24359
1033.80748,0.22271
1031.87874,0.20504
1029.94999,0.19550
1028.02125,0.19549
1026.09250,0.20360
1024.16376,0.21589
1022.23501,0.22797
1020.30627,0.23799
1018.37752,0.24634
1016.44878,0.25348
1014.52003,0.25945
1012.59129,0.26441
1010.66254,0.26811
1008.73380,0.26942
1006.80505,0.26772
1004.87631,0.26484
1002.94756,0.26508
1001.01881,0.27127
999.09007,0.28066
997.16132,0.28806
995.23258,0.29142
993.30383,0.29180
991.37509,0.29042
989.44634,0.28786
987.51760,0.28437
985.58885,0.28013
983.66011,0.27581
981.73136,0.27271
979.80262,0.27183
977.87387,0.27317
975.94513,0.27586
974.01638,0.27815
972.08763,0.27801
970.15889,0.27479
968.23014,0.26993
966.30140,0.26568
964.37265,0.26423
962.44391,0.26698
960.51516,0.27334
958.58642,0.28080
956.65767,0.28689
954.72893,0.29061
952.80018,0.29197
950.87144,0.29127
948.94269,0.28914
947.01395,0.28643
945.08520,0.28421
943.15646,0.28354
941.22771,0.28504
939.29896,0.28857
937.37022,0.29351
935.44147,0.29903
933.51273,0.30424
931.58398,0.30833
929.65524,0.31060
927.72649,0.31067
925.79775,0.30867
923.86900,0.30505
921.94026,0.30021
920.01151,0.29408
918.08277,0.28604
916.15402,0.27524
914.22528,0.26183
912.29653,0.24781
910.36779,0.23594
908.43904,0.22861
906.51029,0.22752
904.58155,0.23318
902.65280,0.24455
900.72406,0.25943
898.79531,0.27517
896.86657,0.28919
894.93782,0.29994
893.00908,0.30750
891.08033,0.31291
889.15159,0.31711
887.22284,0.32057
885.29410,0.32350
883.36535,0.32611
881.43661,0.32851
879.50786,0.33044
877.57911,0.33166
875.65037,0.33244
873.72162,0.33315
871.79288,0.33379
869.86413,0.33421
867.93539,0.33442
866.00664,0.33444
864.07790,0.33440
862.14915,0.33431
860.22041,0.33366
858.29166,0.33199
856.36292,0.32918
854.43417,0.32489
852.50543,0.31862
850.57668,0.31016
848.64794,0.30002
846.71919,0.28990
844.79044,0.28201
842.86170,0.27777
840.93295,0.27763
839.00421,0.28167
837.07546,0.28984
835.14672,0.30097
833.21797,0.31216
831.28923,0.32087
829.36048,0.32641
827.43174,0.32929
825.50299,0.33041
823.57425,0.33064
821.64550,0.33032
819.71676,0.32951
817.78801,0.32837
815.85926,0.32688
813.93052,0.32504
812.00177,0.32287
810.07303,0.32057
808.14428,0.31834
806.21554,0.31586
804.28679,0.31277
802.35805,0.30895
800.42930,0.30412
798.50056,0.29814
796.57181,0.29119
794.64307,0.28321
792.71432,0.27400
790.78558,0.26383
788.85683,0.25336
786.92809,0.24311
784.99934,0.23309
783.07059,0.22289
781.14185,0.21194
779.21310,0.19981
777.28436,0.18688
775.35561,0.17419
773.42687,0.16250
771.49812,0.15222
769.56938,0.14360
767.64063,0.13709
765.71189,0.13300
763.78314,0.13070
761.85440,0.12970
759.92565,0.13041
757.99691,0.13305
756.06816,0.13725
754.13942,0.14232
752.21067,0.14755
750.28192,0.15275
748.35318,0.15878
746.42443,0.16693
744.49569,0.17767
742.56694,0.19015
740.63820,0.20289
738.70945,0.21503
736.78071,0.22743
734.85196,0.24098
732.92322,0.25432
730.99447,0.26509
729.06573,0.27203
727.13698,0.27487
725.20824,0.27391
723.27949,0.26990
721.35074,0.26296
719.42200,0.25248
717.49325,0.23791
715.56451,0.21840
713.63576,0.19276
711.70702,0.16122
709.77827,0.12722
707.84953,0.09712
705.92078,0.07812
703.99204,0.07574
702.06329,0.09113
700.13455,0.12050
698.20580,0.15680
696.27706,0.19301
694.34831,0.22515
692.41957,0.25211
690.49082,0.27351
688.56207,0.28874
686.63333,0.29871
684.70458,0.30585
682.77584,0.31114
680.84709,0.31455
678.91835,0.31635
676.98960,0.31680
675.06086,0.31680
673.13211,0.31744
671.20337,0.31871
669.27462,0.32023
667.34588,0.32238
665.41713,0.32593
663.48839,0.33084
661.55964,0.33645
659.63090,0.34195
657.70215,0.34691
655.77340,0.35089
653.84466,0.35333
651.91591,0.35509
649.98717,0.35754
648.05842,0.35988
646.12968,0.36033
644.20093,0.35889
642.27219,0.35657
640.34344,0.35384
638.41470,0.34971
636.48595,0.34319
634.55721,0.33577
632.62846,0.32931
630.69972,0.32401
628.77097,0.31986
626.84222,0.31673
624.91348,0.31362
622.98473,0.31000
621.05599,0.30814
619.12724,0.31051
617.19850,0.31532
615.26975,0.31936
613.34101,0.32164
611.41226,0.32276
609.48352,0.32335
607.55477,0.32316
605.62603,0.32146
603.69728,0.31880
601.76854,0.31680
599.83979,0.31539
