5996.40973,0.47993
5994.48101,0.48230
5992.55228,0.48262
5990.62356,0.48111
5988.69483,0.48095
5986.76610,0.48321
5984.83738,0.48524
5982.90865,0.48589
5980.97992,0.48449
5979.05120,0.47998
5977.12247,0.47510
5975.19375,0.47198
5973.26502,0.46996
5971.33629,0.46929
5969.40757,0.47165
5967.47884,0.47719
5965.55011,0.48146
5963.62139,0.48099
5961.69266,0.47738
5959.76394,0.47289
5957.83521,0.47021
5955.90648,0.47234
5953.97776,0.47818
5952.04903,0.48305
5950.12031,0.48352
5948.19158,0.48284
5946.26285,0.48508
5944.33413,0.48558
5942.40540,0.48067
5940.47667,0.47447
5938.54795,0.47024
5936.61922,0.46944
5934.69050,0.47174
5932.76177,0.47460
5930.83304,0.47661
5928.90432,0.47637
5926.97559,0.47463
5925.04686,0.47487
5923.11814,0.47738
5921.18941,0.47896
5919.26069,0.47789
5917.33196,0.47513
5915.40323,0.47257
5913.47451,0.47280
5911.54578,0.47522
5909.61706,0.47681
5907.68833,0.47702
5905.75960,0.47607
5903.83088,0.47577
5901.90215,0.47546
5899.97342,0.47069
5898.04470,0.46601
5896.11597,0.46855
5894.18725,0.47302
5892.25852,0.47257
5890.32979,0.47088
5888.40107,0.47133
5886.47234,0.47092
5884.54361,0.46876
5882.61489,0.46644
5880.68616,0.46477
5878.75744,0.46525
5876.82871,0.46812
5874.89998,0.47095
5872.97126,0.47281
5871.04253,0.47518
5869.11381,0.47771
5867.18508,0.47785
5865.25635,0.47482
5863.32763,0.47172
5861.39890,0.47118
5859.47017,0.47079
5857.54145,0.46819
5855.61272,0.46511
5853.68400,0.46476
5851.75527,0.46918
5849.82654,0.47553
5847.89782,0.47760
5845.96909,0.47329
5844.04036,0.46741
5842.11164,0.46506
5840.18291,0.46400
5838.25419,0.46142
5836.32546,0.46109
5834.39673,0.46445
5832.46801,0.46714
5830.53928,0.46743
5828.61056,0.46820
5826.68183,0.47116
5824.75310,0.47418
5822.82438,0.47470
5820.89565,0.47372
5818.96692,0.47307
5817.03820,0.47130
5815.10947,0.46836
5813.18075,0.46637
5811.25202,0.46547
5809.32329,0.46538
5807.39457,0.46489
5805.46584,0.46381
5803.53711,0.46468
5801.60839,0.46712
5799.67966,0.46789
5797.75094,0.46686
5795.82221,0.46748
5793.89348,0.46965
5791.96476,0.46907
5790.03603,0.46631
5788.10731,0.46520
5786.17858,0.46611
5784.24985,0.46769
5782.32113,0.46889
5780.39240,0.46964
5778.46367,0.47131
5776.53495,0.47334
5774.60622,0.47272
5772.67750,0.46890
5770.74877,0.46561
5768.82004,0.46643
5766.89132,0.46989
5764.96259,0.47200
5763.03386,0.47084
5761.10514,0.46777
5759.17641,0.46673
5757.24769,0.46908
5755.31896,0.47146
5753.39023,0.47066
5751.46151,0.46804
5749.53278,0.46723
5747.60406,0.46802
5745.67533,0.46993
5743.74660,0.47416
5741.81788,0.47708
5739.88915,0.47567
5737.96042,0.47255
5736.03170,0.46937
5734.10297,0.46674
5732.17425,0.46613
5730.24552,0.46766
5728.31679,0.46967
5726.38807,0.47119
5724.45934,0.47372
5722.53061,0.47668
5720.60189,0.47721
5718.67316,0.47551
5716.74444,0.47323
5714.81571,0.47100
5712.88698,0.46924
5710.95826,0.46791
5709.02953,0.46647
5707.10081,0.46560
5705.17208,0.46633
5703.24335,0.46732
5701.31463,0.46704
5699.38590,0.46634
5697.45717,0.46653
5695.52845,0.46694
5693.59972,0.46688
5691.67100,0.46740
5689.74227,0.46793
5687.81354,0.46751
5685.88482,0.46793
5683.95609,0.46944
5682.02736,0.46856
5680.09864,0.46579
5678.16991,0.46613
5676.24119,0.46938
5674.31246,0.47142
5672.38373,0.47152
5670.45501,0.47091
5668.52628,0.46994
5666.59756,0.46914
5664.66883,0.46844
5662.74010,0.46559
5660.81138,0.46045
5658.88265,0.45702
5656.95392,0.45826
5655.02520,0.46275
5653.09647,0.46642
5651.16775,0.46695
5649.23902,0.46601
5647.31029,0.46608
5645.38157,0.46591
5643.45284,0.46376
5641.52411,0.46189
5639.59539,0.46270
5637.66666,0.46504
5635.73794,0.46654
5633.80921,0.46763
5631.88048,0.46929
5629.95176,0.47081
5628.02303,0.47217
5626.09430,0.47275
5624.16558,0.47230
5622.23685,0.47235
5620.30813,0.47223
5618.37940,0.47078
5616.45067,0.46935
5614.52195,0.46839
5612.59322,0.46706
5610.66450,0.46518
5608.73577,0.46342
5606.80704,0.46464
5604.87832,0.46913
5602.94959,0.47167
5601.02086,0.47072
5599.09214,0.46924
5597.16341,0.46789
5595.23469,0.46755
5593.30596,0.46934
5591.37723,0.47312
5589.44851,0.47694
5587.51978,0.47735
5585.59105,0.47454
5583.66233,0.47244
5581.73360,0.47298
5579.80488,0.47490
5577.87615,0.47489
5575.94742,0.47248
5574.01870,0.47257
5572.08997,0.47683
5570.16125,0.47932
5568.23252,0.47615
5566.30379,0.47134
5564.37507,0.46916
5562.44634,0.47074
5560.51761,0.47482
5558.58889,0.47707
5556.66016,0.47573
5554.73144,0.47356
5552.80271,0.47207
5550.87398,0.47129
5548.94526,0.47184
5547.01653,0.47257
5545.08780,0.47133
5543.15908,0.47101
5541.23035,0.47562
5539.30163,0.48167
5537.37290,0.48308
5535.44417,0.48036
5533.51545,0.47714
5531.58672,0.47447
5529.65800,0.47267
5527.72927,0.47167
5525.80054,0.47094
5523.87182,0.47196
5521.94309,0.47590
5520.01436,0.48018
5518.08564,0.48096
5516.15691,0.47739
5514.22819,0.47255
5512.29946,0.47014
5510.37073,0.47091
5508.44201,0.47339
5506.51328,0.47584
5504.58455,0.47795
5502.65583,0.47948
5500.72710,0.47995
5498.79838,0.47980
5496.86965,0.47827
5494.94092,0.47458
5493.01220,0.47121
5491.08347,0.47091
5489.15475,0.47337
5487.22602,0.47681
5485.29729,0.48001
5483.36857,0.48155
5481.43984,0.48051
5479.51111,0.47829
5477.58239,0.47704
5475.65366,0.47689
5473.72494,0.47744
5471.79621,0.48004
5469.86748,0.48280
5467.93876,0.48196
5466.01003,0.47964
5464.08130,0.48041
5462.15258,0.48368
5460.22385,0.48531
5458.29513,0.48445
5456.36640,0.48410
5454.43767,0.48551
5452.50895,0.48835
5450.58022,0.49100
5448.65150,0.48984
5446.72277,0.48576
5444.79404,0.48426
5442.86532,0.48703
5440.93659,0.49027
5439.00786,0.49032
5437.07914,0.48897
5435.15041,0.48920
5433.22169,0.48981
5431.29296,0.48864
5429.36423,0.48687
5427.43551,0.48764
5425.50678,0.49178
5423.57805,0.49611
5421.64933,0.49733
5419.72060,0.49493
5417.79188,0.49021
5415.86315,0.48586
5413.93442,0.48409
5412.00570,0.48559
5410.07697,0.48949
5408.14825,0.49212
5406.21952,0.49115
5404.29079,0.48867
5402.36207,0.48757
5400.43334,0.48864
5398.50461,0.49046
5396.57589,0.49136
5394.64716,0.49257
5392.71844,0.49529
5390.78971,0.49659
5388.86098,0.49440
5386.93226,0.49024
5385.00353,0.48700
5383.07480,0.48697
5381.14608,0.48864
5379.21735,0.48883
5377.28863,0.48897
5375.35990,0.49174
5373.43117,0.49468
5371.50245,0.49427
5369.57372,0.49207
5367.64500,0.49112
5365.71627,0.49105
5363.78754,0.49091
5361.85882,0.49167
5359.93009,0.49228
5358.00136,0.48918
5356.07264,0.48250
5354.14391,0.47714
5352.21519,0.47620
5350.28646,0.47746
5348.35773,0.47739
5346.42901,0.47595
5344.50028,0.47520
5342.57155,0.47497
5340.64283,0.47434
5338.71410,0.47360
5336.78538,0.47343
5334.85665,0.47347
5332.92792,0.47348
5330.99920,0.47460
5329.07047,0.47691
5327.14175,0.47826
5325.21302,0.47726
5323.28429,0.47402
5321.35557,0.46943
5319.42684,0.46593
5317.49811,0.46486
5315.56939,0.46467
5313.64066,0.46344
5311.71194,0.46086
5309.78321,0.45769
5307.85448,0.45553
5305.92576,0.45548
5303.99703,0.45538
5302.06830,0.45253
5300.13958,0.44870
5298.21085,0.44575
5296.28213,0.44237
5294.35340,0.43820
5292.42467,0.43402
5290.49595,0.42977
5288.56722,0.42549
5286.63849,0.42137
5284.70977,0.41671
5282.78104,0.41255
5280.85232,0.41076
5278.92359,0.40953
5276.99486,0.40598
5275.06614,0.40082
5273.13741,0.39606
5271.20869,0.39170
5269.27996,0.38689
5267.35123,0.38090
5265.42251,0.37314
5263.49378,0.36505
5261.56505,0.36051
5259.63633,0.36020
5257.70760,0.36031
5255.77888,0.35836
5253.85015,0.35448
5251.92142,0.34950
5249.99270,0.34427
5248.06397,0.33948
5246.13524,0.33544
5244.20652,0.33205
5242.27779,0.32932
5240.34907,0.32794
5238.42034,0.32745
5236.49161,0.32563
5234.56289,0.32132
5232.63416,0.31592
5230.70544,0.31116
5228.77671,0.30834
5226.84798,0.30839
5224.91926,0.30955
5222.99053,0.30938
5221.06180,0.30868
5219.13308,0.30893
5217.20435,0.30926
5215.27563,0.30796
5213.34690,0.30560
5211.41817,0.30379
5209.48945,0.30275
5207.56072,0.30253
5205.63199,0.30314
5203.70327,0.30283
5201.77454,0.30043
5199.84582,0.29754
5197.91709,0.29669
5195.98836,0.29762
5194.05964,0.29798
5192.13091,0.29780
5190.20219,0.29837
5188.27346,0.29883
5186.34473,0.29823
5184.41601,0.29733
5182.48728,0.29678
5180.55855,0.29735
5178.62983,0.29967
5176.70110,0.30221
5174.77238,0.30273
5172.84365,0.30222
5170.91492,0.30297
5168.98620,0.30440
5167.05747,0.30465
5165.12874,0.30372
5163.20002,0.30330
5161.27129,0.30472
5159.34257,0.30634
5157.41384,0.30582
5155.48511,0.30480
5153.55639,0.30557
5151.62766,0.30730
5149.69894,0.30918
5147.77021,0.31130
5145.84148,0.31304
5143.91276,0.31392
5141.98403,0.31455
5140.05530,0.31591
5138.12658,0.31782
5136.19785,0.31928
5134.26913,0.32018
5132.34040,0.32151
5130.41167,0.32388
5128.48295,0.32666
5126.55422,0.32862
5124.62549,0.32850
5122.69677,0.32658
5120.76804,0.32532
5118.83932,0.32592
5116.91059,0.32701
5114.98186,0.32685
5113.05314,0.32580
5111.12441,0.32604
5109.19569,0.32800
5107.26696,0.32993
5105.33823,0.33107
5103.40951,0.33222
5101.48078,0.33365
5099.55205,0.33471
5097.62333,0.33548
5095.69460,0.33675
5093.76588,0.33803
5091.83715,0.33895
5089.90842,0.34076
5087.97970,0.34356
5086.05097,0.34558
5084.12224,0.34579
5082.19352,0.34518
5080.26479,0.34515
5078.33607,0.34638
5076.40734,0.34865
5074.47861,0.35015
5072.54989,0.35009
5070.62116,0.35092
5068.69244,0.35371
5066.76371,0.35627
5064.83498,0.35650
5062.90626,0.35467
5060.97753,0.35286
5059.04880,0.35231
5057.12008,0.35290
5055.19135,0.35497
5053.26263,0.35835
5051.33390,0.36135
5049.40517,0.36281
5047.47645,0.36277
5045.54772,0.36208
5043.61899,0.36226
5041.69027,0.36360
5039.76154,0.36555
5037.83282,0.36854
5035.90409,0.37163
5033.97536,0.37253
5032.04664,0.37182
5030.11791,0.37157
5028.18919,0.37234
5026.26046,0.37366
5024.33173,0.37447
5022.40301,0.37405
5020.47428,0.37327
5018.54555,0.37342
5016.61683,0.37435
5014.68810,0.37557
5012.75938,0.37720
5010.83065,0.37891
5008.90192,0.38049
5006.97320,0.38190
5005.04447,0.38259
5003.11574,0.38248
5001.18702,0.38155
4999.25829,0.38049
4997.32957,0.38057
4995.40084,0.38137
4993.47211,0.38168
4991.54339,0.38270
4989.61466,0.38477
4987.68594,0.38601
4985.75721,0.38573
4983.82848,0.38472
4981.89976,0.38425
4979.97103,0.38473
4978.04230,0.38487
4976.11358,0.38452
4974.18485,0.38422
4972.25613,0.38355
4970.32740,0.38313
4968.39867,0.38351
4966.46995,0.38422
4964.54122,0.38486
4962.61249,0.38458
4960.68377,0.38360
4958.75504,0.38319
4956.82632,0.38342
4954.89759,0.38373
4952.96886,0.38380
4951.04014,0.38307
4949.11141,0.38098
4947.18269,0.37844
4945.25396,0.37803
4943.32523,0.38029
4941.39651,0.38184
4939.46778,0.37972
4937.53905,0.37547
4935.61033,0.37274
4933.68160,0.37239
4931.75288,0.37255
4929.82415,0.37200
4927.89542,0.37160
4925.96670,0.37167
4924.03797,0.37050
4922.10924,0.36807
4920.18052,0.36586
4918.25179,0.36438
4916.32307,0.36383
4914.39434,0.36324
4912.46561,0.36187
4910.53689,0.36071
4908.60816,0.36034
4906.67943,0.36059
4904.75071,0.36036
4902.82198,0.35847
4900.89326,0.35582
4898.96453,0.35374
4897.03580,0.35195
4895.10708,0.35053
4893.17835,0.35057
4891.24963,0.35137
4889.32090,0.35111
4887.39217,0.34945
4885.46345,0.34730
4883.53472,0.34544
4881.60599,0.34362
4879.67727,0.34213
4877.74854,0.34194
4875.81982,0.34190
4873.89109,0.34074
4871.96236,0.33932
4870.03364,0.33839
4868.10491,0.33796
4866.17618,0.33733
4864.24746,0.33568
4862.31873,0.33364
4860.39001,0.33201
4858.46128,0.33053
4856.53255,0.32870
4854.60383,0.32737
4852.67510,0.32787
4850.74638,0.32921
4848.81765,0.32961
4846.88892,0.32941
4844.96020,0.32835
4843.03147,0.32538
4841.10274,0.32234
4839.17402,0.32109
4837.24529,0.32011
4835.31657,0.31872
4833.38784,0.31735
4831.45911,0.31558
4829.53039,0.31492
4827.60166,0.31591
4825.67293,0.31569
4823.74421,0.31384
4821.81548,0.31239
4819.88676,0.31164
4817.95803,0.31101
4816.02930,0.31075
4814.10058,0.31097
4812.17185,0.31101
4810.24313,0.31071
4808.31440,0.31053
4806.38567,0.31039
4804.45695,0.30988
4802.52822,0.30950
4800.59949,0.30985
4798.67077,0.31003
4796.74204,0.30928
4794.81332,0.30841
4792.88459,0.30815
4790.95586,0.30832
4789.02714,0.30811
4787.09841,0.30770
4785.16968,0.30777
4783.24096,0.30752
4781.31223,0.30656
4779.38351,0.30580
4777.45478,0.30531
4775.52605,0.30479
4773.59733,0.30422
4771.66860,0.30302
4769.73988,0.30189
4767.81115,0.30235
4765.88242,0.30352
4763.95370,0.30382
4762.02497,0.30309
4760.09624,0.30192
4758.16752,0.30088
4756.23879,0.29974
4754.31007,0.29897
4752.38134,0.29965
4750.45261,0.30089
4748.52389,0.30153
4746.59516,0.30208
4744.66643,0.30282
4742.73771,0.30352
4740.80898,0.30436
4738.88026,0.30517
4736.95153,0.30584
4735.02280,0.30615
4733.09408,0.30543
4731.16535,0.30472
4729.23663,0.30541
4727.30790,0.30641
4725.37917,0.30606
4723.45045,0.30456
4721.52172,0.30354
4719.59299,0.30343
4717.66427,0.30313
4715.73554,0.30297
4713.80682,0.30393
4711.87809,0.30521
4709.94936,0.30547
4708.02064,0.30497
4706.09191,0.30528
4704.16318,0.30642
4702.23446,0.30691
4700.30573,0.30697
4698.37701,0.30779
4696.44828,0.30936
4694.51955,0.31040
4692.59083,0.31017
4690.66210,0.30957
4688.73338,0.30908
4686.80465,0.30803
4684.87592,0.30660
4682.94720,0.30609
4681.01847,0.30695
4679.08974,0.30846
4677.16102,0.30994
4675.23229,0.31068
4673.30357,0.31035
4671.37484,0.30970
4669.44611,0.30955
4667.51739,0.31006
4665.58866,0.31082
4663.65993,0.31109
4661.73121,0.31083
4659.80248,0.31148
4657.87376,0.31353
4655.94503,0.31532
4654.01630,0.31581
4652.08758,0.31591
4650.15885,0.31658
4648.23013,0.31770
4646.30140,0.31869
4644.37267,0.31931
4642.44395,0.31955
4640.51522,0.31972
4638.58649,0.32007
4636.65777,0.32066
4634.72904,0.32145
4632.80032,0.32219
4630.87159,0.32329
4628.94286,0.32447
4627.01414,0.32450
4625.08541,0.32430
4623.15668,0.32513
4621.22796,0.32602
4619.29923,0.32689
4617.37051,0.32830
4615.44178,0.32915
4613.51305,0.32956
4611.58433,0.33112
4609.65560,0.33316
4607.72688,0.33428
4605.79815,0.33492
4603.86942,0.33583
4601.94070,0.33720
4600.01197,0.33868
4598.08324,0.33905
4596.15452,0.33827
4594.22579,0.33826
4592.29707,0.33943
4590.36834,0.34052
4588.43961,0.34145
4586.51089,0.34223
4584.58216,0.34238
4582.65343,0.34258
4580.72471,0.34345
4578.79598,0.34414
4576.86726,0.34407
4574.93853,0.34409
4573.00980,0.34488
4571.08108,0.34557
4569.15235,0.34516
4567.22363,0.34457
4565.29490,0.34506
4563.36617,0.34643
4561.43745,0.34805
4559.50872,0.34964
4557.57999,0.35106
4555.65127,0.35221
4553.72254,0.35272
4551.79382,0.35233
4549.86509,0.35155
4547.93636,0.35120
4546.00764,0.35110
4544.07891,0.35090
4542.15018,0.35147
4540.22146,0.35236
4538.29273,0.35246
4536.36401,0.35317
4534.43528,0.35530
4532.50655,0.35725
4530.57783,0.35718
4528.64910,0.35468
4526.72037,0.35229
4524.79165,0.35267
4522.86292,0.35449
4520.93420,0.35477
4519.00547,0.35357
4517.07674,0.35297
4515.14802,0.35337
4513.21929,0.35374
4511.29057,0.35398
4509.36184,0.35468
4507.43311,0.35548
4505.50439,0.35533
4503.57566,0.35451
4501.64693,0.35407
4499.71821,0.35340
4497.78948,0.35171
4495.86076,0.35012
4493.93203,0.34935
4492.00330,0.34867
4490.07458,0.34791
4488.14585,0.34743
4486.21712,0.34696
4484.28840,0.34609
4482.35967,0.34455
4480.43095,0.34254
4478.50222,0.34103
4476.57349,0.34040
4474.64477,0.33983
4472.71604,0.33822
4470.78732,0.33549
4468.85859,0.33306
4466.92986,0.33144
4465.00114,0.32948
4463.07241,0.32707
4461.14368,0.32499
4459.21496,0.32311
4457.28623,0.32112
4455.35751,0.31928
4453.42878,0.31771
4451.50005,0.31624
4449.57133,0.31499
4447.64260,0.31376
4445.71387,0.31187
4443.78515,0.30937
4441.85642,0.30697
4439.92770,0.30495
4437.99897,0.30301
4436.07024,0.30097
4434.14152,0.29881
4432.21279,0.29663
4430.28407,0.29464
4428.35534,0.29251
4426.42661,0.29006
4424.49789,0.28760
4422.56916,0.28488
4420.64043,0.28233
4418.71171,0.28097
4416.78298,0.27995
4414.85426,0.27861
4412.92553,0.27761
4410.99680,0.27658
4409.06808,0.27480
4407.13935,0.27308
4405.21062,0.27252
4403.28190,0.27277
4401.35317,0.27246
4399.42445,0.27100
4397.49572,0.26971
4395.56699,0.26973
4393.63827,0.27032
4391.70954,0.27049
4389.78082,0.27009
4387.85209,0.26992
4385.92336,0.27059
4383.99464,0.27147
4382.06591,0.27212
4380.13718,0.27253
4378.20846,0.27260
4376.27973,0.27289
4374.35101,0.27380
4372.42228,0.27493
4370.49355,0.27589
4368.56483,0.27630
4366.63610,0.27612
4364.70737,0.27598
4362.77865,0.27626
4360.84992,0.27637
4358.92120,0.27573
4356.99247,0.27502
4355.06374,0.27529
4353.13502,0.27628
4351.20629,0.27673
4349.27757,0.27631
4347.34884,0.27565
4345.42011,0.27529
4343.49139,0.27515
4341.56266,0.27471
4339.63393,0.27419
4337.70521,0.27394
4335.77648,0.27357
4333.84776,0.27322
4331.91903,0.27301
4329.99030,0.27235
4328.06158,0.27131
4326.13285,0.27063
4324.20412,0.27033
4322.27540,0.26983
4320.34667,0.26905
4318.41795,0.26843
4316.48922,0.26814
4314.56049,0.26795
4312.63177,0.26752
4310.70304,0.26690
4308.77432,0.26610
4306.84559,0.26507
4304.91686,0.26427
4302.98814,0.26391
4301.05941,0.26389
4299.13068,0.26392
4297.20196,0.26334
4295.27323,0.26212
4293.34451,0.26109
4291.41578,0.26069
4289.48705,0.26076
4287.55833,0.26081
4285.62960,0.26043
4283.70087,0.25986
4281.77215,0.25946
4279.84342,0.25934
4277.91470,0.25916
4275.98597,0.25859
4274.05724,0.25807
4272.12852,0.25829
4270.19979,0.25921
4268.27107,0.25984
4266.34234,0.25986
4264.41361,0.25993
4262.48489,0.26016
4260.55616,0.26015
4258.62743,0.25986
4256.69871,0.25971
4254.76998,0.26019
4252.84126,0.26117
4250.91253,0.26219
4248.98380,0.26278
4247.05508,0.26277
4245.12635,0.26262
4243.19762,0.26281
4241.26890,0.26321
4239.34017,0.26355
4237.41145,0.26379
4235.48272,0.26396
4233.55399,0.26412
4231.62527,0.26430
4229.69654,0.26452
4227.76782,0.26427
4225.83909,0.26339
4223.91036,0.26279
4221.98164,0.26309
4220.05291,0.26369
4218.12418,0.26366
4216.19546,0.26307
4214.26673,0.26280
4212.33801,0.26299
4210.40928,0.26293
4208.48055,0.26269
4206.55183,0.26294
4204.62310,0.26353
4202.69437,0.26409
4200.76565,0.26431
4198.83692,0.26391
4196.90820,0.26349
4194.97947,0.26316
4193.05074,0.26264
4191.12202,0.26282
4189.19329,0.26392
4187.26456,0.26480
4185.33584,0.26474
4183.40711,0.26423
4181.47839,0.26432
4179.54966,0.26499
4177.62093,0.26510
4175.69221,0.26488
4173.76348,0.26541
4171.83476,0.26616
4169.90603,0.26650
4167.97730,0.26723
4166.04858,0.26827
4164.11985,0.26858
4162.19112,0.26809
4160.26240,0.26718
4158.33367,0.26594
4156.40495,0.26497
4154.47622,0.26479
4152.54749,0.26467
4150.61877,0.26403
4148.69004,0.26339
4146.76131,0.26298
4144.83259,0.26266
4142.90386,0.26204
4140.97514,0.26076
4139.04641,0.25965
4137.11768,0.25926
4135.18896,0.25888
4133.26023,0.25818
4131.33151,0.25766
4129.40278,0.25721
4127.47405,0.25618
4125.54533,0.25477
4123.61660,0.25345
4121.68787,0.25222
4119.75915,0.25112
4117.83042,0.24999
4115.90170,0.24870
4113.97297,0.24769
4112.04424,0.24686
4110.11552,0.24596
4108.18679,0.24508
4106.25806,0.24390
4104.32934,0.24225
4102.40061,0.24051
4100.47189,0.23892
4098.54316,0.23758
4096.61443,0.23640
4094.68571,0.23524
4092.75698,0.23419
4090.82826,0.23277
4088.89953,0.23083
4086.97080,0.22941
4085.04208,0.22869
4083.11335,0.22773
4081.18462,0.22629
4079.25590,0.22476
4077.32717,0.22332
4075.39845,0.22202
4073.46972,0.22121
4071.54099,0.22071
4069.61227,0.21949
4067.68354,0.21755
4065.75481,0.21600
4063.82609,0.21493
4061.89736,0.21367
4059.96864,0.21212
4058.03991,0.21066
4056.11118,0.20973
4054.18246,0.20903
4052.25373,0.20767
4050.32501,0.20567
4048.39628,0.20364
4046.46755,0.20200
4044.53883,0.20094
4042.61010,0.20026
4040.68137,0.19971
4038.75265,0.19946
4036.82392,0.19931
4034.89520,0.19857
4032.96647,0.19745
4031.03774,0.19675
4029.10902,0.19637
4027.18029,0.19588
4025.25156,0.19534
4023.32284,0.19480
4021.39411,0.19431
4019.46539,0.19407
4017.53666,0.19373
4015.60793,0.19303
4013.67921,0.19261
4011.75048,0.19263
4009.82176,0.19260
4007.89303,0.19249
4005.96430,0.19259
4004.03558,0.19294
4002.10685,0.19351
4000.17812,0.19407
3998.24940,0.19409
3996.32067,0.19388
3994.39195,0.19403
3992.46322,0.19490
3990.53449,0.19594
3988.60577,0.19619
3986.67704,0.19587
3984.74831,0.19583
3982.81959,0.19611
3980.89086,0.19627
3978.96214,0.19662
3977.03341,0.19748
3975.10468,0.19830
3973.17596,0.19864
3971.24723,0.19872
3969.31851,0.19884
3967.38978,0.19897
3965.46105,0.19907
3963.53233,0.19926
3961.60360,0.19962
3959.67487,0.20019
3957.74615,0.20097
3955.81742,0.20171
3953.88870,0.20237
3951.95997,0.20322
3950.03124,0.20406
3948.10252,0.20449
3946.17379,0.20498
3944.24506,0.20620
3942.31634,0.20727
3940.38761,0.20725
3938.45889,0.20690
3936.53016,0.20708
3934.60143,0.20812
3932.67271,0.20965
3930.74398,0.21069
3928.81526,0.21103
3926.88653,0.21139
3924.95780,0.21191
3923.02908,0.21219
3921.10035,0.21259
3919.17162,0.21343
3917.24290,0.21444
3915.31417,0.21524
3913.38545,0.21574
3911.45672,0.21590
3909.52799,0.21587
3907.59927,0.21630
3905.67054,0.21725
3903.74181,0.21786
3901.81309,0.21831
3899.88436,0.21921
3897.95564,0.21958
3896.02691,0.21926
3894.09818,0.21940
3892.16946,0.22032
3890.24073,0.22115
3888.31201,0.22206
3886.38328,0.22333
3884.45455,0.22377
3882.52583,0.22390
3880.59710,0.22449
3878.66837,0.22430
3876.73965,0.22379
3874.81092,0.22384
3872.88220,0.22411
3870.95347,0.22466
3869.02474,0.22487
3867.09602,0.22478
3865.16729,0.22525
3863.23856,0.22589
3861.30984,0.22643
3859.38111,0.22651
3857.45239,0.22610
3855.52366,0.22648
3853.59493,0.22836
3851.66621,0.22973
3849.73748,0.23022
3847.80876,0.23041
3845.88003,0.23049
3843.95130,0.23017
3842.02258,0.22926
3840.09385,0.22881
3838.16512,0.22948
3836.23640,0.23038
3834.30767,0.23055
3832.37895,0.23044
3830.45022,0.23094
3828.52149,0.23220
3826.59277,0.23295
3824.66404,0.23253
3822.73531,0.23222
3820.80659,0.23160
3818.87786,0.23050
3816.94914,0.23098
3815.02041,0.23199
3813.09168,0.23210
3811.16296,0.23168
3809.23423,0.23118
3807.30550,0.23073
3805.37678,0.23029
3803.44805,0.23074
3801.51933,0.23122
3799.59060,0.23033
3797.66187,0.22997
3795.73315,0.23053
3793.80442,0.23106
3791.87570,0.23135
3789.94697,0.23122
3788.01824,0.23068
3786.08952,0.22988
3784.16079,0.22877
3782.23206,0.22786
3780.30334,0.22780
3778.37461,0.22802
3776.44589,0.22795
3774.51716,0.22737
3772.58843,0.22618
3770.65971,0.22494
3768.73098,0.22431
3766.80225,0.22449
3764.87353,0.22427
3762.94480,0.22299
3761.01608,0.22183
3759.08735,0.22089
3757.15862,0.21947
3755.22990,0.21774
3753.30117,0.21614
3751.37245,0.21453
3749.44372,0.21266
3747.51499,0.21165
3745.58627,0.21216
3743.65754,0.21255
3741.72881,0.21160
3739.80009,0.21020
3737.87136,0.20918
3735.94264,0.20831
3734.01391,0.20650
3732.08518,0.20424
3730.15646,0.20255
3728.22773,0.20146
3726.29900,0.20022
3724.37028,0.19844
3722.44155,0.19690
3720.51283,0.19610
3718.58410,0.19542
3716.65537,0.19397
3714.72665,0.19196
3712.79792,0.18963
3710.86920,0.18648
3708.94047,0.18309
3707.01174,0.18042
3705.08302,0.17827
3703.15429,0.17615
3701.22556,0.17357
3699.29684,0.17069
3697.36811,0.16786
3695.43939,0.16471
3693.51066,0.16138
3691.58193,0.15805
3689.65321,0.15387
3687.72448,0.14869
3685.79575,0.14416
3683.86703,0.14063
3681.93830,0.13707
3680.00958,0.13284
3678.08085,0.12804
3676.15212,0.12276
3674.22340,0.11748
3672.29467,0.11386
3670.36595,0.11089
3668.43722,0.10649
3666.50849,0.10167
3664.57977,0.09746
3662.65104,0.09365
3660.72231,0.09008
3658.79359,0.08659
3656.86486,0.08283
3654.93614,0.07909
3653.00741,0.07630
3651.07868,0.07423
3649.14996,0.07177
3647.22123,0.06892
3645.29250,0.06661
3643.36378,0.06500
3641.43505,0.06344
3639.50633,0.06147
3637.57760,0.05934
3635.64887,0.05752
3633.72015,0.05618
3631.79142,0.05542
3629.86270,0.05508
3627.93397,0.05410
3626.00524,0.05237
3624.07652,0.05086
3622.14779,0.04965
3620.21906,0.04842
3618.29034,0.04735
3616.36161,0.04664
3614.43289,0.04615
3612.50416,0.04566
3610.57543,0.04503
3608.64671,0.04427
3606.71798,0.04332
3604.78925,0.04232
3602.86053,0.04156
3600.93180,0.04120
3599.00308,0.04103
3597.07435,0.04062
3595.14562,0.03974
3593.21690,0.03854
3591.28817,0.03753
3589.35945,0.03706
3587.43072,0.03707
3585.50199,0.03727
3583.57327,0.03743
3581.64454,0.03726
3579.71581,0.03665
3577.78709,0.03598
3575.85836,0.03555
3573.92964,0.03531
3572.00091,0.03509
3570.07218,0.03501
3568.14346,0.03511
3566.21473,0.03491
3564.28600,0.03425
3562.35728,0.03365
3560.42855,0.03329
3558.49983,0.03298
3556.57110,0.03244
3554.64237,0.03162
3552.71365,0.03088
3550.78492,0.03060
3548.85620,0.03066
3546.92747,0.03070
3544.99874,0.03065
3543.07002,0.03066
3541.14129,0.03072
3539.21256,0.03066
3537.28384,0.03035
3535.35511,0.02973
3533.42639,0.02902
3531.49766,0.02856
3529.56893,0.02844
3527.64021,0.02837
3525.71148,0.02827
3523.78275,0.02843
3521.85403,0.02865
3519.92530,0.02857
3517.99658,0.02827
3516.06785,0.02795
3514.13912,0.02768
3512.21040,0.02745
3510.28167,0.02733
3508.35295,0.02722
3506.42422,0.02696
3504.49549,0.02670
3502.56677,0.02670
3500.63804,0.02687
3498.70931,0.02701
3496.78059,0.02715
3494.85186,0.02710
3492.92314,0.02663
3490.99441,0.02609
3489.06568,0.02587
3487.13696,0.02583
3485.20823,0.02578
3483.27950,0.02588
3481.35078,0.02607
3479.42205,0.02606
3477.49333,0.02591
3475.56460,0.02573
3473.63587,0.02556
3471.70715,0.02545
3469.77842,0.02535
3467.84970,0.02516
3465.92097,0.02507
3463.99224,0.02519
3462.06352,0.02503
3460.13479,0.02426
3458.20606,0.02357
3456.27734,0.02361
3454.34861,0.02399
3452.41989,0.02423
3450.49116,0.02442
3448.56243,0.02471
3446.63371,0.02484
3444.70498,0.02461
3442.77625,0.02443
3440.84753,0.02463
3438.91880,0.02496
3436.99008,0.02501
3435.06135,0.02477
3433.13262,0.02449
3431.20390,0.02427
3429.27517,0.02404
3427.34644,0.02404
3425.41772,0.02451
3423.48899,0.02491
3421.56027,0.02486
3419.63154,0.02481
3417.70281,0.02496
3415.77409,0.02497
3413.84536,0.02468
3411.91664,0.02428
3409.98791,0.02416
3408.05918,0.02442
3406.13046,0.02474
3404.20173,0.02483
3402.27300,0.02479
3400.34428,0.02471
3398.41555,0.02427
3396.48683,0.02371
3394.55810,0.02374
3392.62937,0.02433
3390.70065,0.02486
3388.77192,0.02510
3386.84319,0.02505
3384.91447,0.02483
3382.98574,0.02464
3381.05702,0.02446
3379.12829,0.02421
3377.19956,0.02409
3375.27084,0.02442
3373.34211,0.02516
3371.41339,0.02563
3369.48466,0.02540
3367.55593,0.02484
3365.62721,0.02449
3363.69848,0.02438
3361.76975,0.02440
3359.84103,0.02457
3357.91230,0.02485
3355.98358,0.02522
3354.05485,0.02567
3352.12612,0.02627
3350.19740,0.02678
3348.26867,0.02671
3346.33994,0.02623
3344.41122,0.02601
3342.48249,0.02635
3340.55377,0.02702
3338.62504,0.02773
3336.69631,0.02820
3334.76759,0.02802
3332.83886,0.02737
3330.91014,0.02700
3328.98141,0.02706
3327.05268,0.02728
3325.12396,0.02762
3323.19523,0.02798
3321.26650,0.02813
3319.33778,0.02808
3317.40905,0.02808
3315.48033,0.02834
3313.55160,0.02871
3311.62287,0.02881
3309.69415,0.02858
3307.76542,0.02831
3305.83669,0.02812
3303.90797,0.02805
3301.97924,0.02824
3300.05052,0.02850
3298.12179,0.02854
3296.19306,0.02874
3294.26434,0.02933
3292.33561,0.02970
3290.40689,0.02964
3288.47816,0.02956
3286.54943,0.02967
3284.62071,0.03005
3282.69198,0.03061
3280.76325,0.03089
3278.83453,0.03068
3276.90580,0.03033
3274.97708,0.03032
3273.04835,0.03064
3271.11962,0.03076
3269.19090,0.03051
3267.26217,0.03040
3265.33344,0.03081
3263.40472,0.03148
3261.47599,0.03185
3259.54727,0.03181
3257.61854,0.03172
3255.68981,0.03168
3253.76109,0.03178
3251.83236,0.03219
3249.90364,0.03269
3247.97491,0.03287
3246.04618,0.03279
3244.11746,0.03275
3242.18873,0.03289
3240.26000,0.03318
3238.33128,0.03362
3236.40255,0.03405
3234.47383,0.03431
3232.54510,0.03444
3230.61637,0.03450
3228.68765,0.03447
3226.75892,0.03452
3224.83019,0.03480
3222.90147,0.03511
3220.97274,0.03530
3219.04402,0.03551
3217.11529,0.03571
3215.18656,0.03582
3213.25784,0.03593
3211.32911,0.03616
3209.40039,0.03648
3207.47166,0.03674
3205.54293,0.03695
3203.61421,0.03724
3201.68548,0.03750
3199.75675,0.03748
3197.82803,0.03734
3195.89930,0.03737
3193.97058,0.03760
3192.04185,0.03797
3190.11312,0.03827
3188.18440,0.03827
3186.25567,0.03825
3184.32694,0.03865
3182.39822,0.03931
3180.46949,0.03982
3178.54077,0.04003
3176.61204,0.03998
3174.68331,0.03991
3172.75459,0.04017
3170.82586,0.04072
3168.89714,0.04116
3166.96841,0.04145
3165.03968,0.04181
3163.11096,0.04226
3161.18223,0.04250
3159.25350,0.04236
3157.32478,0.04221
3155.39605,0.04254
3153.46733,0.04307
3151.53860,0.04329
3149.60987,0.04328
3147.68115,0.04334
3145.75242,0.04341
3143.82369,0.04348
3141.89497,0.04378
3139.96624,0.04433
3138.03752,0.04502
3136.10879,0.04585
3134.18006,0.04644
3132.25134,0.04641
3130.32261,0.04601
3128.39389,0.04585
3126.46516,0.04608
3124.53643,0.04637
3122.60771,0.04665
3120.67898,0.04712
3118.75025,0.04773
3116.82153,0.04819
3114.89280,0.04850
3112.96408,0.04883
3111.03535,0.04920
3109.10662,0.04941
3107.17790,0.04946
3105.24917,0.04944
3103.32044,0.04941
3101.39172,0.04946
3099.46299,0.04967
3097.53427,0.05007
3095.60554,0.05067
3093.67681,0.05118
3091.74809,0.05143
3089.81936,0.05179
3087.89063,0.05241
3085.96191,0.05290
3084.03318,0.05302
3082.10446,0.05296
3080.17573,0.05294
3078.24700,0.05306
3076.31828,0.05344
3074.38955,0.05402
3072.46083,0.05447
3070.53210,0.05455
3068.60337,0.05453
3066.67465,0.05466
3064.74592,0.05485
3062.81719,0.05506
3060.88847,0.05534
3058.95974,0.05562
3057.03102,0.05580
3055.10229,0.05595
3053.17356,0.05617
3051.24484,0.05635
3049.31611,0.05651
3047.38738,0.05677
3045.45866,0.05715
3043.52993,0.05763
3041.60121,0.05819
3039.67248,0.05862
3037.74375,0.05877
3035.81503,0.05859
3033.88630,0.05827
3031.95758,0.05820
3030.02885,0.05854
3028.10012,0.05883
3026.17140,0.05884
3024.24267,0.05881
3022.31394,0.05880
3020.38522,0.05873
3018.45649,0.05880
3016.52777,0.05900
3014.59904,0.05881
3012.67031,0.05824
3010.74159,0.05789
3008.81286,0.05777
3006.88413,0.05758
3004.95541,0.05737
3003.02668,0.05717
3001.09796,0.05697
2999.16923,0.05693
2997.24050,0.05696
2995.31178,0.05680
2993.38305,0.05664
2991.45433,0.05663
2989.52560,0.05628
2987.59687,0.05533
2985.66815,0.05412
2983.73942,0.05304
2981.81069,0.05236
2979.88197,0.05211
2977.95324,0.05184
2976.02452,0.05108
2974.09579,0.05005
2972.16706,0.04925
2970.23834,0.04861
2968.30961,0.04781
2966.38088,0.04694
2964.45216,0.04638
2962.52343,0.04605
2960.59471,0.04550
2958.66598,0.04494
2956.73725,0.04485
2954.80853,0.04491
2952.87980,0.04460
2950.95108,0.04417
2949.02235,0.04382
2947.09362,0.04323
2945.16490,0.04246
2943.23617,0.04202
2941.30744,0.04189
2939.37872,0.04171
2937.44999,0.04155
2935.52127,0.04153
2933.59254,0.04155
2931.66381,0.04151
2929.73509,0.04154
2927.80636,0.04167
2925.87763,0.04185
2923.94891,0.04214
2922.02018,0.04218
2920.09146,0.04178
2918.16273,0.04142
2916.23400,0.04135
2914.30528,0.04146
2912.37655,0.04165
2910.44783,0.04186
2908.51910,0.04200
2906.59037,0.04208
2904.66165,0.04207
2902.73292,0.04173
2900.80419,0.04115
2898.87547,0.04105
2896.94674,0.04177
2895.01802,0.04262
2893.08929,0.04291
2891.16056,0.04293
2889.23184,0.04306
2887.30311,0.04335
2885.37438,0.04382
2883.44566,0.04426
2881.51693,0.04439
2879.58821,0.04435
2877.65948,0.04460
2875.73075,0.04517
2873.80203,0.04570
2871.87330,0.04599
2869.94458,0.04617
2868.01585,0.04634
2866.08712,0.04660
2864.15840,0.04690
2862.22967,0.04711
2860.30094,0.04722
2858.37222,0.04735
2856.44349,0.04759
2854.51477,0.04808
2852.58604,0.04882
2850.65731,0.04960
2848.72859,0.05036
2846.79986,0.05109
2844.87113,0.05177
2842.94241,0.05263
2841.01368,0.05365
2839.08496,0.05460
2837.15623,0.05549
2835.22750,0.05640
2833.29878,0.05736
2831.37005,0.05832
2829.44133,0.05937
2827.51260,0.06050
2825.58387,0.06149
2823.65515,0.06224
2821.72642,0.06284
2819.79769,0.06351
2817.86897,0.06431
2815.94024,0.06515
2814.01152,0.06594
2812.08279,0.06665
2810.15406,0.06726
2808.22534,0.06787
2806.29661,0.06867
2804.36788,0.06954
2802.43916,0.07014
2800.51043,0.07045
2798.58171,0.07069
2796.65298,0.07111
2794.72425,0.07177
2792.79553,0.07253
2790.86680,0.07320
2788.93808,0.07358
2787.00935,0.07386
2785.08062,0.07418
2783.15190,0.07433
2781.22317,0.07440
2779.29444,0.07467
2777.36572,0.07502
2775.43699,0.07530
2773.50827,0.07547
2771.57954,0.07561
2769.65081,0.07584
2767.72209,0.07609
2765.79336,0.07633
2763.86463,0.07665
2761.93591,0.07697
2760.00718,0.07708
2758.07846,0.07702
2756.14973,0.07709
2754.22100,0.07727
2752.29228,0.07731
2750.36355,0.07725
2748.43483,0.07723
2746.50610,0.07732
2744.57737,0.07748
2742.64865,0.07752
2740.71992,0.07750
2738.79119,0.07771
2736.86247,0.07818
2734.93374,0.07869
2733.00502,0.07896
2731.07629,0.07904
2729.14756,0.07918
2727.21884,0.07941
2725.29011,0.07981
2723.36138,0.08041
2721.43266,0.08091
2719.50393,0.08114
2717.57521,0.08129
2715.64648,0.08150
2713.71775,0.08177
2711.78903,0.08214
2709.86030,0.08276
2707.93157,0.08341
2706.00285,0.08381
2704.07412,0.08406
2702.14540,0.08439
2700.21667,0.08487
2698.28794,0.08538
2696.35922,0.08585
2694.43049,0.08641
2692.50177,0.08685
2690.57304,0.08677
2688.64431,0.08650
2686.71559,0.08669
2684.78686,0.08734
2682.85813,0.08813
2680.92941,0.08878
2679.00068,0.08908
2677.07196,0.08916
2675.14323,0.08937
2673.21450,0.08976
2671.28578,0.09022
2669.35705,0.09081
2667.42832,0.09140
2665.49960,0.09192
2663.57087,0.09240
2661.64215,0.09271
2659.71342,0.09289
2657.78469,0.09309
2655.85597,0.09317
2653.92724,0.09309
2651.99852,0.09319
2650.06979,0.09381
2648.14106,0.09452
2646.21234,0.09485
2644.28361,0.09493
2642.35488,0.09508
2640.42616,0.09552
2638.49743,0.09598
2636.56871,0.09619
2634.63998,0.09644
2632.71125,0.09691
2630.78253,0.09750
2628.85380,0.09826
2626.92507,0.09905
2624.99635,0.09944
2623.06762,0.09944
2621.13890,0.09949
2619.21017,0.09974
2617.28144,0.09995
2615.35272,0.10014
2613.42399,0.10042
2611.49527,0.10070
2609.56654,0.10088
2607.63781,0.10107
2605.70909,0.10140
2603.78036,0.10185
2601.85163,0.10225
2599.92291,0.10249
2597.99418,0.10262
2596.06546,0.10287
2594.13673,0.10338
2592.20800,0.10383
2590.27928,0.10402
2588.35055,0.10415
2586.42182,0.10442
2584.49310,0.10501
2582.56437,0.10576
2580.63565,0.10627
2578.70692,0.10643
2576.77819,0.10638
2574.84947,0.10627
2572.92074,0.10627
2570.99202,0.10642
2569.06329,0.10659
2567.13456,0.10669
2565.20584,0.10684
2563.27711,0.10706
2561.34838,0.10726
2559.41966,0.10740
2557.49093,0.10747
2555.56221,0.10757
2553.63348,0.10783
2551.70475,0.10819
2549.77603,0.10843
2547.84730,0.10849
2545.91857,0.10860
2543.98985,0.10874
2542.06112,0.10872
2540.13240,0.10873
2538.20367,0.10891
2536.27494,0.10910
2534.34622,0.10925
2532.41749,0.10951
2530.48877,0.11009
2528.56004,0.11075
2526.63131,0.11114
2524.70259,0.11148
2522.77386,0.11203
2520.84513,0.11254
2518.91641,0.11285
2516.98768,0.11317
2515.05896,0.11345
2513.13023,0.11364
2511.20150,0.11402
2509.27278,0.11469
2507.34405,0.11548
2505.41532,0.11614
2503.48660,0.11657
2501.55787,0.11694
2499.62915,0.11752
2497.70042,0.11815
2495.77169,0.11865
2493.84297,0.11916
2491.91424,0.11974
2489.98552,0.12036
2488.05679,0.12097
2486.12806,0.12137
2484.19934,0.12165
2482.27061,0.12199
2480.34188,0.12240
2478.41316,0.12290
2476.48443,0.12349
2474.55571,0.12404
2472.62698,0.12443
2470.69825,0.12467
2468.76953,0.12492
2466.84080,0.12525
2464.91207,0.12563
2462.98335,0.12605
2461.05462,0.12645
2459.12590,0.12687
2457.19717,0.12755
2455.26844,0.12840
2453.33972,0.12904
2451.41099,0.12947
2449.48227,0.12990
2447.55354,0.13039
2445.62481,0.13089
2443.69609,0.13129
2441.76736,0.13154
2439.83863,0.13166
2437.90991,0.13186
2435.98118,0.13240
2434.05246,0.13327
2432.12373,0.13412
2430.19500,0.13453
2428.26628,0.13460
2426.33755,0.13492
2424.40882,0.13580
2422.48010,0.13681
2420.55137,0.13742
2418.62265,0.13765
2416.69392,0.13794
2414.76519,0.13858
2412.83647,0.13934
2410.90774,0.14000
2408.97902,0.14052
2407.05029,0.14080
2405.12156,0.14101
2403.19284,0.14144
2401.26411,0.14209
2399.33538,0.14286
2397.40666,0.14356
2395.47793,0.14400
2393.54921,0.14408
2391.62048,0.14412
2389.69175,0.14442
2387.76303,0.14477
2385.83430,0.14484
2383.90557,0.14479
2381.97685,0.14493
2380.04812,0.14510
2378.11940,0.14472
2376.19067,0.14352
2374.26194,0.14211
2372.33322,0.14149
2370.40449,0.14158
2368.47576,0.14134
2366.54704,0.14023
2364.61831,0.13883
2362.68959,0.13822
2360.76086,0.13921
2358.83213,0.14102
2356.90341,0.14237
2354.97468,0.14309
2353.04596,0.14288
2351.11723,0.14186
2349.18850,0.14126
2347.25978,0.14187
2345.33105,0.14308
2343.40232,0.14387
2341.47360,0.14381
2339.54487,0.14305
2337.61615,0.14210
2335.68742,0.14199
2333.75869,0.14299
2331.82997,0.14402
2329.90124,0.14433
2327.97251,0.14464
2326.04379,0.14572
2324.11506,0.14739
2322.18634,0.14915
2320.25761,0.15061
2318.32888,0.15134
2316.40016,0.15139
2314.47143,0.15157
2312.54271,0.15242
2310.61398,0.15359
2308.68525,0.15444
2306.75653,0.15450
2304.82780,0.15395
2302.89907,0.15353
2300.97035,0.15346
2299.04162,0.15334
2297.11290,0.15299
2295.18417,0.15270
2293.25544,0.15275
2291.32672,0.15304
2289.39799,0.15326
2287.46926,0.15330
2285.54054,0.15329
2283.61181,0.15316
2281.68309,0.15275
2279.75436,0.15222
2277.82563,0.15176
2275.89691,0.15135
2273.96818,0.15106
2272.03946,0.15103
2270.11073,0.15114
2268.18200,0.15113
2266.25328,0.15096
2264.32455,0.15068
2262.39582,0.15023
2260.46710,0.14960
2258.53837,0.14904
2256.60965,0.14879
2254.68092,0.14888
2252.75219,0.14905
2250.82347,0.14913
2248.89474,0.14922
2246.96601,0.14914
2245.03729,0.14891
2243.10856,0.14847
2241.17984,0.14801
2239.25111,0.14767
2237.32238,0.14744
2235.39366,0.14725
2233.46493,0.14713
2231.53621,0.14693
2229.60748,0.14656
2227.67875,0.14635
2225.75003,0.14630
2223.82130,0.14625
2221.89257,0.14624
2219.96385,0.14630
2218.03512,0.14632
2216.10640,0.14608
2214.17767,0.14568
2212.24894,0.14536
2210.32022,0.14519
2208.39149,0.14501
2206.46276,0.14471
2204.53404,0.14438
2202.60531,0.14405
2200.67659,0.14381
2198.74786,0.14364
2196.81913,0.14323
2194.89041,0.14266
2192.96168,0.14221
2191.03296,0.14188
2189.10423,0.14157
2187.17550,0.14108
2185.24678,0.14025
2183.31805,0.13931
2181.38932,0.13867
2179.46060,0.13834
2177.53187,0.13799
2175.60315,0.13736
2173.67442,0.13661
2171.74569,0.13598
2169.81697,0.13547
2167.88824,0.13517
2165.95951,0.13488
2164.03079,0.13430
2162.10206,0.13373
2160.17334,0.13352
2158.24461,0.13337
2156.31588,0.13304
2154.38716,0.13265
2152.45843,0.13224
2150.52971,0.13182
2148.60098,0.13130
2146.67225,0.13074
2144.74353,0.13048
2142.81480,0.13055
2140.88607,0.13054
2138.95735,0.13027
2137.02862,0.13005
2135.09990,0.13006
2133.17117,0.13000
2131.24244,0.12976
2129.31372,0.12972
2127.38499,0.13017
2125.45626,0.13069
2123.52754,0.13077
2121.59881,0.13064
2119.67009,0.13070
2117.74136,0.13082
2115.81263,0.13098
2113.88391,0.13118
2111.95518,0.13130
2110.02646,0.13141
2108.09773,0.13160
2106.16900,0.13176
2104.24028,0.13182
2102.31155,0.13190
2100.38282,0.13208
2098.45410,0.13230
2096.52537,0.13254
2094.59665,0.13283
2092.66792,0.13305
2090.73919,0.13306
2088.81047,0.13286
2086.88174,0.13272
2084.95301,0.13275
2083.02429,0.13285
2081.09556,0.13303
2079.16684,0.13320
2077.23811,0.13309
2075.30938,0.13260
2073.38066,0.13202
2071.45193,0.13169
2069.52321,0.13163
2067.59448,0.13174
2065.66575,0.13186
2063.73703,0.13173
2061.80830,0.13146
2059.87957,0.13122
2057.95085,0.13108
2056.02212,0.13119
2054.09340,0.13143
2052.16467,0.13164
2050.23594,0.13181
2048.30722,0.13193
2046.37849,0.13207
2044.44976,0.13246
2042.52104,0.13302
2040.59231,0.13344
2038.66359,0.13365
2036.73486,0.13389
2034.80613,0.13443
2032.87741,0.13528
2030.94868,0.13610
2029.01996,0.13659
2027.09123,0.13696
2025.16250,0.13745
2023.23378,0.13806
2021.30505,0.13874
2019.37632,0.13964
2017.44760,0.14058
2015.51887,0.14112
2013.59015,0.14138
2011.66142,0.14166
2009.73269,0.14203
2007.80397,0.14254
2005.87524,0.14307
2003.94651,0.14354
2002.01779,0.14410
2000.08906,0.14468
1998.16034,0.14499
1996.23161,0.14508
1994.30288,0.14542
1992.37416,0.14610
1990.44543,0.14666
1988.51670,0.14709
1986.58798,0.14740
1984.65925,0.14760
1982.73053,0.14784
1980.80180,0.14815
1978.87307,0.14856
1976.94435,0.14893
1975.01562,0.14914
1973.08690,0.14940
1971.15817,0.14993
1969.22944,0.15070
1967.30072,0.15134
1965.37199,0.15151
1963.44326,0.15151
1961.51454,0.15168
1959.58581,0.15210
1957.65709,0.15280
1955.72836,0.15352
1953.79963,0.15397
1951.87091,0.15430
1949.94218,0.15472
1948.01345,0.15517
1946.08473,0.15576
1944.15600,0.15690
1942.22728,0.15799
1940.29855,0.15805
1938.36982,0.15777
1936.44110,0.15789
1934.51237,0.15821
1932.58365,0.15843
1930.65492,0.15855
1928.72619,0.15864
1926.79747,0.15888
1924.86874,0.15961
1922.94001,0.16034
1921.01129,0.16043
1919.08256,0.16033
1917.15384,0.16000
1915.22511,0.15941
1913.29638,0.15937
1911.36766,0.16000
1909.43893,0.16056
1907.51020,0.16042
1905.58148,0.15988
1903.65275,0.15950
1901.72403,0.15939
1899.79530,0.15941
1897.86657,0.15948
1895.93785,0.15943
1894.00912,0.15919
1892.08040,0.15912
1890.15167,0.15922
1888.22294,0.15887
1886.29422,0.15831
1884.36549,0.15807
1882.43676,0.15790
1880.50804,0.15769
1878.57931,0.15751
1876.65059,0.15732
1874.72186,0.15710
1872.79313,0.15720
1870.86441,0.15802
1868.93568,0.15871
1867.00695,0.15811
1865.07823,0.15692
1863.14950,0.15626
1861.22078,0.15601
1859.29205,0.15564
1857.36332,0.15507
1855.43460,0.15453
1853.50587,0.15411
1851.57715,0.15376
1849.64842,0.15356
1847.71969,0.15365
1845.79097,0.15395
1843.86224,0.15352
1841.93351,0.15196
1840.00479,0.15067
1838.07606,0.15005
1836.14734,0.14921
1834.21861,0.14803
1832.28988,0.14731
1830.36116,0.14719
1828.43243,0.14688
1826.50370,0.14631
1824.57498,0.14537
1822.64625,0.14388
1820.71753,0.14238
1818.78880,0.14101
1816.86007,0.13963
1814.93135,0.13839
1813.00262,0.13738
1811.07390,0.13614
1809.14517,0.13433
1807.21644,0.13234
1805.28772,0.13068
1803.35899,0.12952
1801.43026,0.12840
1799.50154,0.12671
1797.57281,0.12473
1795.64409,0.12307
1793.71536,0.12150
1791.78663,0.11905
1789.85791,0.11574
1787.92918,0.11281
1786.00045,0.11049
1784.07173,0.10837
1782.14300,0.10634
1780.21428,0.10397
1778.28555,0.10121
1776.35682,0.09893
1774.42810,0.09721
1772.49937,0.09472
1770.57065,0.09062
1768.64192,0.08596
1766.71319,0.08150
1764.78447,0.07763
1762.85574,0.07415
1760.92701,0.07053
1758.99829,0.06699
1757.06956,0.06342
1755.14084,0.05980
1753.21211,0.05691
1751.28338,0.05476
1749.35466,0.05255
1747.42593,0.05007
1745.49720,0.04790
1743.56848,0.04654
1741.63975,0.04588
1739.71103,0.04538
1737.78230,0.04496
1735.85357,0.04506
1733.92485,0.04527
1731.99612,0.04485
1730.06740,0.04445
1728.13867,0.04441
1726.20994,0.04457
1724.28122,0.04488
1722.35249,0.04534
1720.42376,0.04622
1718.49504,0.04786
1716.56631,0.04944
1714.63759,0.04974
1712.70886,0.04934
1710.78013,0.04931
1708.85141,0.04996
1706.92268,0.05099
1704.99395,0.05172
1703.06523,0.05208
1701.13650,0.05246
1699.20778,0.05238
1697.27905,0.05173
1695.35032,0.05091
1693.42160,0.05021
1691.49287,0.04987
1689.56415,0.04945
1687.63542,0.04885
1685.70669,0.04862
1683.77797,0.04808
1681.84924,0.04658
1679.92051,0.04522
1677.99179,0.04459
1676.06306,0.04429
1674.13434,0.04352
1672.20561,0.04230
1670.27688,0.04106
1668.34816,0.03978
1666.41943,0.03890
1664.49070,0.03874
1662.56198,0.03879
1660.63325,0.03851
1658.70453,0.03803
1656.77580,0.03779
1654.84707,0.03816
1652.91835,0.03862
1650.98962,0.03843
1649.06090,0.03863
1647.13217,0.03912
1645.20344,0.03874
1643.27472,0.03804
1641.34599,0.03795
1639.41726,0.03853
1637.48854,0.03934
1635.55981,0.03957
1633.63109,0.03914
1631.70236,0.03905
1629.77363,0.03946
1627.84491,0.03975
1625.91618,0.03970
1623.98745,0.03951
1622.05873,0.03911
1620.13000,0.03860
1618.20128,0.03827
1616.27255,0.03796
1614.34382,0.03767
1612.41510,0.03774
1610.48637,0.03803
1608.55764,0.03803
1606.62892,0.03765
1604.70019,0.03733
1602.77147,0.03747
1600.84274,0.03798
1598.91401,0.03846
1596.98529,0.03878
1595.05656,0.03914
1593.12784,0.03960
1591.19911,0.04015
1589.27038,0.04082
1587.34166,0.04157
1585.41293,0.04227
1583.48420,0.04297
1581.55548,0.04395
1579.62675,0.04542
1577.69803,0.04746
1575.76930,0.04951
1573.84057,0.05080
1571.91185,0.05221
1569.98312,0.05430
1568.05439,0.05588
1566.12567,0.05643
1564.19694,0.05687
1562.26822,0.05825
1560.33949,0.06097
1558.41076,0.06270
1556.48204,0.06136
1554.55331,0.05994
1552.62459,0.05953
1550.69586,0.05954
1548.76713,0.05953
1546.83841,0.05992
1544.90968,0.06120
1542.98095,0.06280
1541.05223,0.06280
1539.12350,0.05975
1537.19478,0.05642
1535.26605,0.05458
1533.33732,0.05294
1531.40860,0.05084
1529.47987,0.04911
1527.55114,0.04759
1525.62242,0.04539
1523.69369,0.04257
1521.76497,0.03948
1519.83624,0.03664
1517.90751,0.03465
1515.97879,0.03318
1514.05006,0.03226
1512.12134,0.03230
1510.19261,0.03331
1508.26388,0.03490
1506.33516,0.03576
1504.40643,0.03547
1502.47770,0.03551
1500.54898,0.03631
1498.62025,0.03747
1496.69153,0.03844
1494.76280,0.03904
1492.83407,0.03970
1490.90535,0.04039
1488.97662,0.04010
1487.04789,0.03879
1485.11917,0.03766
1483.19044,0.03712
1481.26172,0.03694
1479.33299,0.03689
1477.40426,0.03681
1475.47554,0.03649
1473.54681,0.03565
1471.61809,0.03416
1469.68936,0.03273
1467.76063,0.03189
1465.83191,0.03148
1463.90318,0.03134
1461.97445,0.03172
1460.04573,0.03285
1458.11700,0.03408
1456.18828,0.03389
1454.25955,0.03260
1452.33082,0.03191
1450.40210,0.03213
1448.47337,0.03258
1446.54464,0.03268
1444.61592,0.03244
1442.68719,0.03203
1440.75847,0.03167
1438.82974,0.03161
1436.90101,0.03167
1434.97229,0.03139
1433.04356,0.03111
1431.11484,0.03121
1429.18611,0.03132
1427.25738,0.03119
1425.32866,0.03113
1423.39993,0.03119
1421.47120,0.03138
1419.54248,0.03201
1417.61375,0.03291
1415.68503,0.03355
1413.75630,0.03391
1411.82757,0.03416
1409.89885,0.03428
1407.97012,0.03430
1406.04139,0.03430
1404.11267,0.03418
1402.18394,0.03408
1400.25522,0.03424
1398.32649,0.03440
1396.39776,0.03428
1394.46904,0.03389
1392.54031,0.03329
1390.61159,0.03262
1388.68286,0.03202
1386.75413,0.03151
1384.82541,0.03106
1382.89668,0.03071
1380.96795,0.03049
1379.03923,0.03048
1377.11050,0.03064
1375.18178,0.03080
1373.25305,0.03075
1371.32432,0.03065
1369.39560,0.03082
1367.46687,0.03121
1365.53814,0.03156
1363.60942,0.03183
1361.68069,0.03198
1359.75197,0.03200
1357.82324,0.03207
1355.89451,0.03226
1353.96579,0.03246
1352.03706,0.03260
1350.10834,0.03270
1348.17961,0.03260
1346.25088,0.03233
1344.32216,0.03223
1342.39343,0.03233
1340.46470,0.03225
1338.53598,0.03182
1336.60725,0.03141
1334.67853,0.03134
1332.74980,0.03151
1330.82107,0.03174
1328.89235,0.03192
1326.96362,0.03189
1325.03489,0.03157
1323.10617,0.03114
1321.17744,0.03095
1319.24872,0.03114
1317.31999,0.03137
1315.39126,0.03152
1313.46254,0.03186
1311.53381,0.03230
1309.60509,0.03251
1307.67636,0.03260
1305.74763,0.03282
1303.81891,0.03307
1301.89018,0.03319
1299.96145,0.03313
1298.03273,0.03283
1296.10400,0.03247
1294.17528,0.03227
1292.24655,0.03216
1290.31782,0.03202
1288.38910,0.03160
1286.46037,0.03085
1284.53164,0.03028
1282.60292,0.03009
1280.67419,0.02987
1278.74547,0.02955
1276.81674,0.02938
1274.88801,0.02935
1272.95929,0.02929
1271.03056,0.02930
1269.10183,0.02952
1267.17311,0.02985
1265.24438,0.03015
1263.31566,0.03049
1261.38693,0.03084
1259.45820,0.03116
1257.52948,0.03143
1255.60075,0.03163
1253.67203,0.03191
1251.74330,0.03237
1249.81457,0.03266
1247.88585,0.03243
1245.95712,0.03190
1244.02839,0.03166
1242.09967,0.03196
1240.17094,0.03246
1238.24222,0.03272
1236.31349,0.03271
1234.38476,0.03255
1232.45604,0.03226
1230.52731,0.03214
1228.59858,0.03236
1226.66986,0.03265
1224.74113,0.03283
1222.81241,0.03287
1220.88368,0.03295
1218.95495,0.03330
1217.02623,0.03372
1215.09750,0.03403
1213.16878,0.03445
1211.24005,0.03464
1209.31132,0.03417
1207.38260,0.03359
1205.45387,0.03352
1203.52514,0.03387
1201.59642,0.03438
1199.66769,0.03480
1197.73897,0.03504
1195.81024,0.03520
1193.88151,0.03510
1191.95279,0.03472
1190.02406,0.03432
1188.09533,0.03384
1186.16661,0.03313
1184.23788,0.03249
1182.30916,0.03188
1180.38043,0.03085
1178.45170,0.02960
1176.52298,0.02873
1174.59425,0.02812
1172.66553,0.02758
1170.73680,0.02757
1168.80807,0.02807
1166.87935,0.02848
1164.95062,0.02870
1163.02189,0.02897
1161.09317,0.02935
1159.16444,0.02967
1157.23572,0.02990
1155.30699,0.03021
1153.37826,0.03054
1151.44954,0.03067
1149.52081,0.03052
1147.59208,0.02993
1145.66336,0.02917
1143.73463,0.02894
1141.80591,0.02920
1139.87718,0.02921
1137.94845,0.02862
1136.01973,0.02782
1134.09100,0.02741
1132.16228,0.02718
1130.23355,0.02704
1128.30482,0.02741
1126.37610,0.02790
1124.44737,0.02792
1122.51864,0.02779
1120.58992,0.02774
1118.66119,0.02777
1116.73247,0.02801
1114.80374,0.02806
1112.87501,0.02756
1110.94629,0.02720
1109.01756,0.02751
1107.08883,0.02816
1105.16011,0.02877
1103.23138,0.02933
1101.30266,0.02987
1099.37393,0.03004
1097.44520,0.02954
1095.51648,0.02867
1093.58775,0.02809
1091.65903,0.02816
1089.73030,0.02833
1087.80157,0.02828
1085.87285,0.02859
1083.94412,0.02930
1082.01539,0.02983
1080.08667,0.03008
1078.15794,0.03021
1076.22922,0.03039
1074.30049,0.03108
1072.37176,0.03236
1070.44304,0.03390
1068.51431,0.03526
1066.58558,0.03600
1064.65686,0.03633
1062.72813,0.03695
1060.79941,0.03803
1058.87068,0.03911
1056.94195,0.04016
1055.01323,0.04151
1053.08450,0.04242
1051.15578,0.04234
1049.22705,0.04197
1047.29832,0.04164
1045.36960,0.04115
1043.44087,0.04071
1041.51214,0.04075
1039.58342,0.04161
1037.65469,0.04314
1035.72597,0.04475
1033.79724,0.04589
1031.86851,0.04646
1029.93979,0.04703
1028.01106,0.04766
1026.08233,0.04800
1024.15361,0.04827
1022.22488,0.04838
1020.29616,0.04812
1018.36743,0.04799
1016.43870,0.04843
1014.50998,0.04922
1012.58125,0.04977
1010.65253,0.04999
1008.72380,0.05026
1006.79507,0.05052
1004.86635,0.05057
1002.93762,0.05073
1001.00889,0.05131
999.08017,0.05187
997.15144,0.05207
995.22272,0.05259
993.29399,0.05365
991.36526,0.05456
989.43654,0.05513
987.50781,0.05596
985.57908,0.05725
983.65036,0.05845
981.72163,0.05919
979.79291,0.05985
977.86418,0.06106
975.93545,0.06229
974.00673,0.06248
972.07800,0.06209
970.14928,0.06194
968.22055,0.06205
966.29182,0.06262
964.36310,0.06359
962.43437,0.06416
960.50564,0.06409
958.57692,0.06402
956.64819,0.06467
954.71947,0.06601
952.79074,0.06720
950.86201,0.06750
948.93329,0.06710
947.00456,0.06665
945.07583,0.06643
943.14711,0.06636
941.21838,0.06669
939.28966,0.06771
937.36093,0.06893
935.43220,0.06954
933.50348,0.06957
931.57475,0.06953
929.64603,0.06959
927.71730,0.06968
925.78857,0.06960
923.85985,0.06935
921.93112,0.06929
920.00239,0.06926
918.07367,0.06885
916.14494,0.06803
914.21622,0.06686
912.28749,0.06571
910.35876,0.06474
908.43004,0.06361
906.50131,0.06264
904.57258,0.06220
902.64386,0.06197
900.71513,0.06173
898.78641,0.06139
896.85768,0.06098
894.92895,0.06108
893.00023,0.06204
891.07150,0.06305
889.14277,0.06334
887.21405,0.06347
885.28532,0.06414
883.35660,0.06472
881.42787,0.06419
879.49914,0.06317
877.57042,0.06298
875.64169,0.06337
873.71297,0.06338
871.78424,0.06328
869.85551,0.06364
867.92679,0.06412
865.99806,0.06399
864.06933,0.06346
862.14061,0.06326
860.21188,0.06354
858.28316,0.06390
856.35443,0.06378
854.42570,0.06344
852.49698,0.06388
850.56825,0.06484
848.63952,0.06505
846.71080,0.06439
844.78207,0.06362
842.85335,0.06299
840.92462,0.06252
838.99589,0.06248
837.06717,0.06287
835.13844,0.06296
833.20972,0.06176
831.28099,0.05987
829.35226,0.05882
827.42354,0.05878
825.49481,0.05886
823.56608,0.05850
821.63736,0.05773
819.70863,0.05661
817.77991,0.05539
815.85118,0.05458
813.92245,0.05429
811.99373,0.05435
810.06500,0.05435
808.13627,0.05422
806.20755,0.05456
804.27882,0.05530
802.35010,0.05573
800.42137,0.05568
798.49264,0.05562
796.56392,0.05595
794.63519,0.05603
792.70647,0.05536
790.77774,0.05462
788.84901,0.05468
786.92029,0.05538
784.99156,0.05540
783.06283,0.05463
781.13411,0.05443
779.20538,0.05461
777.27666,0.05429
775.34793,0.05394
773.41920,0.05389
771.49048,0.05343
769.56175,0.05274
767.63302,0.05260
765.70430,0.05254
763.77557,0.05204
761.84685,0.05175
759.91812,0.05198
757.98939,0.05187
756.06067,0.05112
754.13194,0.05088
752.20322,0.05128
750.27449,0.05086
748.34576,0.04945
746.41704,0.04830
744.48831,0.04792
742.55958,0.04821
740.63086,0.04876
738.70213,0.04886
736.77341,0.04869
734.84468,0.04908
732.91595,0.04955
730.98723,0.04932
729.05850,0.04882
727.12977,0.04841
725.20105,0.04787
723.27232,0.04749
721.34360,0.04732
719.41487,0.04685
717.48614,0.04587
715.55742,0.04530
713.62869,0.04560
711.69997,0.04603
709.77124,0.04609
707.84251,0.04602
705.91379,0.04608
703.98506,0.04619
702.05633,0.04628
700.12761,0.04616
698.19888,0.04570
696.27016,0.04513
694.34143,0.04480
692.41270,0.04478
690.48398,0.04484
688.55525,0.04473
686.62652,0.04458
684.69780,0.04444
682.76907,0.04361
680.84035,0.04179
678.91162,0.04054
676.98289,0.04131
675.05417,0.04294
673.12544,0.04356
671.19672,0.04370
669.26799,0.04449
667.33926,0.04499
665.41054,0.04427
663.48181,0.04348
661.55308,0.04379
659.62436,0.04512
657.69563,0.04659
655.76691,0.04752
653.83818,0.04733
651.90945,0.04588
649.98073,0.04430
648.05200,0.04372
646.12327,0.04383
644.19455,0.04424
642.26582,0.04498
640.33710,0.04520
638.40837,0.04434
636.47964,0.04361
634.55092,0.04370
632.62219,0.04388
630.69347,0.04391
628.76474,0.04411
626.83601,0.04424
624.90729,0.04393
622.97856,0.04397
621.04983,0.04482
619.12111,0.04576
617.19238,0.04544
615.26366,0.04362
613.33493,0.04268
611.40620,0.04415
609.47748,0.04665
607.54875,0.04865
605.62002,0.04928
603.69130,0.04821
601.76257,0.04675
599.83385,0.04643
597.90512,0.04759
595.97639,0.04899
594.04767,0.04891
592.11894,0.04794
590.19022,0.04786
588.26149,0.04872
586.33276,0.04973
584.40404,0.05080
582.47531,0.05224
580.54658,0.05353
578.61786,0.05377
576.68913,0.05364
574.76041,0.05414
572.83168,0.05463
570.90295,0.05438
568.97423,0.05291
567.04550,0.04994
565.11677,0.04739
563.18805,0.04714
561.25932,0.04839
559.33060,0.05001
557.40187,0.05154
555.47314,0.05213
553.54442,0.05147
551.61569,0.04993
549.68697,0.04829
547.75824,0.04810
545.82951,0.05000
543.90079,0.05300
541.97206,0.05593
540.04333,0.05716
538.11461,0.05547
536.18588,0.05262
534.25716,0.05134
532.32843,0.05196
530.39970,0.05314
528.47098,0.05434
526.54225,0.05576
524.61352,0.05667
522.68480,0.05622
520.75607,0.05521
518.82735,0.05517
516.89862,0.05642
514.96989,0.05763
513.04117,0.05760
511.11244,0.05608
509.18371,0.05387
507.25499,0.05260
505.32626,0.05323
503.39754,0.05556
501.46881,0.05841
499.54008,0.05965
497.61136,0.05810
495.68263,0.05551
493.75391,0.05520
491.82518,0.05843
489.89645,0.06219
487.96773,0.06313
486.03900,0.06168
484.11027,0.05949
482.18155,0.05764
480.25282,0.05780
478.32410,0.06046
476.39537,0.06301
474.46664,0.06311
472.53792,0.06192
470.60919,0.06019
468.68046,0.05615
466.75174,0.05216
464.82301,0.05363
462.89429,0.05933
460.96556,0.06236
459.03683,0.06141
457.10811,0.06032
455.17938,0.06090
453.25066,0.06311
451.32193,0.06518
449.39320,0.06534
447.46448,0.06435
445.53575,0.06318
443.60702,0.06288
441.67830,0.06394
439.74957,0.06322
437.82085,0.05989
435.89212,0.05775
433.96339,0.05701
432.03467,0.05527
430.10594,0.05423
428.17721,0.05647
426.24849,0.06160
424.31976,0.06592
422.39104,0.06406
420.46231,0.05907
418.53358,0.06048
416.60486,0.06656
414.67613,0.06809
412.74741,0.06650
410.81868,0.06616
408.88995,0.06480
406.96123,0.06139
405.03250,0.05954
403.10377,0.05955
401.17505,0.06087
399.24632,0.06500
