5996.40973,0.44809
5994.48101,0.44987
5992.55228,0.45460
5990.62356,0.45859
5988.69483,0.45762
5986.76610,0.45305
5984.83738,0.44883
5982.90865,0.44653
5980.97992,0.44539
5979.05120,0.44582
5977.12247,0.44854
5975.19375,0.45198
5973.26502,0.45388
5971.33629,0.45213
5969.40757,0.44708
5967.47884,0.44400
5965.55011,0.44580
5963.62139,0.44735
5961.69266,0.44517
5959.76394,0.44305
5957.83521,0.44238
5955.90648,0.44149
5953.97776,0.44201
5952.04903,0.44561
5950.12031,0.45016
5948.19158,0.45223
5946.26285,0.45236
5944.33413,0.45380
5942.40540,0.45607
5940.47667,0.45634
5938.54795,0.45447
5936.61922,0.45179
5934.69050,0.44929
5932.76177,0.44762
5930.83304,0.44708
5928.90432,0.44875
5926.97559,0.45202
5925.04686,0.45197
5923.11814,0.44794
5921.18941,0.44545
5919.26069,0.44498
5917.33196,0.44331
5915.40323,0.44147
5913.47451,0.44245
5911.54578,0.44600
5909.61706,0.44785
5907.68833,0.44635
5905.75960,0.44538
5903.83088,0.44615
5901.90215,0.44432
5899.97342,0.43918
5898.04470,0.43693
5896.11597,0.44006
5894.18725,0.44460
5892.25852,0.44856
5890.32979,0.45169
5888.40107,0.45072
5886.47234,0.44515
5884.54361,0.44023
5882.61489,0.43940
5880.68616,0.44073
5878.75744,0.44171
5876.82871,0.44338
5874.89998,0.44569
5872.97126,0.44555
5871.04253,0.44469
5869.11381,0.44697
5867.18508,0.44888
5865.25635,0.44584
5863.32763,0.44127
5861.39890,0.44023
5859.47017,0.44188
5857.54145,0.44255
5855.61272,0.44151
5853.68400,0.44182
5851.75527,0.44584
5849.82654,0.45126
5847.89782,0.45356
5845.96909,0.45126
5844.04036,0.44854
5842.11164,0.44942
5840.18291,0.45015
5838.25419,0.44670
5836.32546,0.44380
5834.39673,0.44498
5832.46801,0.44592
5830.53928,0.44432
5828.61056,0.44370
5826.68183,0.44522
5824.75310,0.44508
5822.82438,0.44252
5820.89565,0.44175
5818.96692,0.44293
5817.03820,0.44074
5815.10947,0.43480
5813.18075,0.43209
5811.25202,0.43500
5809.32329,0.43775
5807.39457,0.43758
5805.46584,0.43748
5803.53711,0.43879
5801.60839,0.44022
5799.67966,0.44229
5797.75094,0.44471
5795.82221,0.44408
5793.89348,0.44109
5791.96476,0.43929
5790.03603,0.43929
5788.10731,0.44150
5786.17858,0.44456
5784.24985,0.44558
5782.32113,0.44487
5780.39240,0.44443
5778.46367,0.44490
5776.53495,0.44469
5774.60622,0.44265
5772.67750,0.44058
5770.74877,0.44003
5768.82004,0.43973
5766.89132,0.43892
5764.96259,0.44064
5763.03386,0.44426
5761.10514,0.44443
5759.17641,0.44281
5757.24769,0.44340
5755.31896,0.44380
5753.39023,0.44236
5751.46151,0.44176
5749.53278,0.44480
5747.60406,0.44923
5745.67533,0.45066
5743.74660,0.45032
5741.81788,0.45021
5739.88915,0.44810
5737.96042,0.44361
5736.03170,0.44053
5734.10297,0.44087
5732.17425,0.44334
5730.24552,0.44641
5728.31679,0.44724
5726.38807,0.44510
5724.45934,0.44365
5722.53061,0.44425
5720.60189,0.44516
5718.67316,0.44483
5716.74444,0.44328
5714.81571,0.44236
5712.88698,0.44265
5710.95826,0.44242
5709.02953,0.44150
5707.10081,0.44090
5705.17208,0.43934
5703.24335,0.43659
5701.31463,0.43395
5699.38590,0.43262
5697.45717,0.43427
5695.52845,0.43778
5693.59972,0.44181
5691.67100,0.44529
5689.74227,0.44529
5687.81354,0.44226
5685.88482,0.43937
5683.95609,0.43844
5682.02736,0.43890
5680.09864,0.43920
5678.16991,0.44041
5676.24119,0.44274
5674.31246,0.44351
5672.38373,0.44157
5670.45501,0.43830
5668.52628,0.43613
5666.59756,0.43735
5664.66883,0.44114
5662.74010,0.44287
5660.81138,0.43994
5658.88265,0.43552
5656.95392,0.43397
5655.02520,0.43601
5653.09647,0.43856
5651.16775,0.43833
5649.23902,0.43679
5647.31029,0.43724
5645.38157,0.43809
5643.45284,0.43713
5641.52411,0.43614
5639.59539,0.43688
5637.66666,0.43891
5635.73794,0.44107
5633.80921,0.44326
5631.88048,0.44498
5629.95176,0.44501
5628.02303,0.44478
5626.09430,0.44478
5624.16558,0.44343
5622.23685,0.44263
5620.30813,0.44398
5618.37940,0.44533
5616.45067,0.44508
5614.52195,0.44285
5612.59322,0.43954
5610.66450,0.43777
5608.73577,0.43852
5606.80704,0.44128
5604.87832,0.44455
5602.94959,0.44489
5601.02086,0.44208
5599.09214,0.44047
5597.16341,0.44101
5595.23469,0.44192
5593.30596,0.44197
5591.37723,0.44179
5589.44851,0.44206
5587.51978,0.44170
5585.59105,0.44068
5583.66233,0.44106
5581.73360,0.44333
5579.80488,0.44601
5577.87615,0.44716
5575.94742,0.44617
5574.01870,0.44584
5572.08997,0.44835
5570.16125,0.45107
5568.23252,0.45115
5566.30379,0.44976
5564.37507,0.44794
5562.44634,0.44570
5560.51761,0.44518
5558.58889,0.44693
5556.66016,0.44868
5554.73144,0.44956
5552.80271,0.44883
5550.87398,0.44596
5548.94526,0.44387
5547.01653,0.44482
5545.08780,0.44703
5543.15908,0.44854
5541.23035,0.44919
5539.30163,0.44960
5537.37290,0.45060
5535.44417,0.45138
5533.51545,0.45055
5531.58672,0.44891
5529.65800,0.44771
5527.72927,0.44677
5525.80054,0.44512
5523.87182,0.44325
5521.94309,0.44436
5520.01436,0.44929
5518.08564,0.45336
5516.15691,0.45238
5514.22819,0.44737
5512.29946,0.44264
5510.37073,0.44169
5508.44201,0.44463
5506.51328,0.44844
5504.58455,0.45054
5502.65583,0.45055
5500.72710,0.44929
5498.79838,0.44802
5496.86965,0.44641
5494.94092,0.44373
5493.01220,0.44169
5491.08347,0.44311
5489.15475,0.44774
5487.22602,0.45165
5485.29729,0.45351
5483.36857,0.45501
5481.43984,0.45522
5479.51111,0.45261
5477.58239,0.44919
5475.65366,0.44739
5473.72494,0.44783
5471.79621,0.45086
5469.86748,0.45435
5467.93876,0.45431
5466.01003,0.45146
5464.08130,0.45074
5462.15258,0.45302
5460.22385,0.45418
5458.29513,0.45367
5456.36640,0.45498
5454.43767,0.45803
5452.50895,0.46083
5450.58022,0.46287
5448.65150,0.46338
5446.72277,0.46284
5444.79404,0.46330
5442.86532,0.46524
5440.93659,0.46631
5439.00786,0.46482
5437.07914,0.46314
5435.15041,0.46344
5433.22169,0.46426
5431.29296,0.46318
5429.36423,0.46025
5427.43551,0.45859
5425.50678,0.46105
5423.57805,0.46618
5421.64933,0.46961
5419.72060,0.46804
5417.79188,0.46285
5415.86315,0.45939
5413.93442,0.46023
5412.00570,0.46299
5410.07697,0.46477
5408.14825,0.46408
5406.21952,0.46149
5404.29079,0.45894
5402.36207,0.45802
5400.43334,0.45983
5398.50461,0.46399
5396.57589,0.46748
5394.64716,0.46814
5392.71844,0.46733
5390.78971,0.46674
5388.86098,0.46656
5386.93226,0.46588
5385.00353,0.46407
5383.07480,0.46259
5381.14608,0.46232
5379.21735,0.46260
5377.28863,0.46372
5375.35990,0.46537
5373.43117,0.46585
5371.50245,0.46442
5369.57372,0.46236
5367.64500,0.46131
5365.71627,0.46146
5363.78754,0.46286
5361.85882,0.46622
5359.93009,0.46958
5358.00136,0.46876
5356.07264,0.46318
5354.14391,0.45698
5352.21519,0.45413
5350.28646,0.45426
5348.35773,0.45498
5346.42901,0.45583
5344.50028,0.45609
5342.57155,0.45345
5340.64283,0.44994
5338.71410,0.44968
5336.78538,0.45232
5334.85665,0.45349
5332.92792,0.45162
5330.99920,0.44947
5329.07047,0.44963
5327.14175,0.45094
5325.21302,0.45047
5323.28429,0.44698
5321.35557,0.44196
5319.42684,0.43905
5317.49811,0.43964
5315.56939,0.44104
5313.64066,0.44009
5311.71194,0.43613
5309.78321,0.43084
5307.85448,0.42721
5305.92576,0.42732
5303.99703,0.42872
5302.06830,0.42724
5300.13958,0.42336
5298.21085,0.42004
5296.28213,0.41773
5294.35340,0.41501
5292.42467,0.41053
5290.49595,0.40526
5288.56722,0.40201
5286.63849,0.40020
5284.70977,0.39647
5282.78104,0.39146
5280.85232,0.38802
5278.92359,0.38590
5276.99486,0.38385
5275.06614,0.38135
5273.13741,0.37796
5271.20869,0.37351
5269.27996,0.36797
5267.35123,0.36120
5265.42251,0.35360
5263.49378,0.34685
5261.56505,0.34323
5259.63633,0.34215
5257.70760,0.34027
5255.77888,0.33666
5253.85015,0.33344
5251.92142,0.33139
5249.99270,0.32852
5248.06397,0.32388
5246.13524,0.31948
5244.20652,0.31688
5242.27779,0.31545
5240.34907,0.31428
5238.42034,0.31193
5236.49161,0.30799
5234.56289,0.30458
5232.63416,0.30254
5230.70544,0.29995
5228.77671,0.29666
5226.84798,0.29432
5224.91926,0.29336
5222.99053,0.29371
5221.06180,0.29431
5219.13308,0.29319
5217.20435,0.29069
5215.27563,0.28885
5213.34690,0.28828
5211.41817,0.28856
5209.48945,0.28903
5207.56072,0.28849
5205.63199,0.28630
5203.70327,0.28382
5201.77454,0.28281
5199.84582,0.28315
5197.91709,0.28362
5195.98836,0.28329
5194.05964,0.28266
5192.13091,0.28316
5190.20219,0.28459
5188.27346,0.28493
5186.34473,0.28324
5184.41601,0.28081
5182.48728,0.27972
5180.55855,0.28060
5178.62983,0.28248
5176.70110,0.28411
5174.77238,0.28498
5172.84365,0.28602
5170.91492,0.28791
5168.98620,0.28996
5167.05747,0.29100
5165.12874,0.29032
5163.20002,0.28918
5161.27129,0.28914
5159.34257,0.28944
5157.41384,0.28896
5155.48511,0.28825
5153.55639,0.28865
5151.62766,0.29096
5149.69894,0.29477
5147.77021,0.29796
5145.84148,0.29846
5143.91276,0.29744
5141.98403,0.29715
5140.05530,0.29826
5138.12658,0.30119
5136.19785,0.30475
5134.26913,0.30624
5132.34040,0.30582
5130.41167,0.30623
5128.48295,0.30766
5126.55422,0.30826
5124.62549,0.30819
5122.69677,0.30812
5120.76804,0.30732
5118.83932,0.30627
5116.91059,0.30732
5114.98186,0.31021
5113.05314,0.31219
5111.12441,0.31321
5109.19569,0.31488
5107.26696,0.31734
5105.33823,0.31945
5103.40951,0.31966
5101.48078,0.31815
5099.55205,0.31716
5097.62333,0.31815
5095.69460,0.32012
5093.76588,0.32096
5091.83715,0.32086
5089.90842,0.32211
5087.97970,0.32503
5086.05097,0.32742
5084.12224,0.32801
5082.19352,0.32749
5080.26479,0.32721
5078.33607,0.32845
5076.40734,0.33149
5074.47861,0.33448
5072.54989,0.33594
5070.62116,0.33710
5068.69244,0.33876
5066.76371,0.33961
5064.83498,0.33859
5062.90626,0.33634
5060.97753,0.33452
5059.04880,0.33405
5057.12008,0.33496
5055.19135,0.33690
5053.26263,0.33986
5051.33390,0.34319
5049.40517,0.34482
5047.47645,0.34488
5045.54772,0.34576
5043.61899,0.34731
5041.69027,0.34769
5039.76154,0.34773
5037.83282,0.34964
5035.90409,0.35215
5033.97536,0.35222
5032.04664,0.35039
5030.11791,0.34945
5028.18919,0.35079
5026.26046,0.35401
5024.33173,0.35646
5022.40301,0.35605
5020.47428,0.35539
5018.54555,0.35666
5016.61683,0.35757
5014.68810,0.35728
5012.75938,0.35776
5010.83065,0.35869
5008.90192,0.35917
5006.97320,0.36030
5005.04447,0.36190
5003.11574,0.36225
5001.18702,0.36124
4999.25829,0.36062
4997.32957,0.36123
4995.40084,0.36249
4993.47211,0.36360
4991.54339,0.36412
4989.61466,0.36375
4987.68594,0.36327
4985.75721,0.36369
4983.82848,0.36433
4981.89976,0.36434
4979.97103,0.36433
4978.04230,0.36443
4976.11358,0.36418
4974.18485,0.36321
4972.25613,0.36167
4970.32740,0.36104
4968.39867,0.36197
4966.46995,0.36346
4964.54122,0.36470
4962.61249,0.36478
4960.68377,0.36313
4958.75504,0.36146
4956.82632,0.36124
4954.89759,0.36103
4952.96886,0.35973
4951.04014,0.35873
4949.11141,0.35937
4947.18269,0.36017
4945.25396,0.35936
4943.32523,0.35835
4941.39651,0.35802
4939.46778,0.35722
4937.53905,0.35587
4935.61033,0.35435
4933.68160,0.35288
4931.75288,0.35175
4929.82415,0.35031
4927.89542,0.34856
4925.96670,0.34796
4924.03797,0.34781
4922.10924,0.34644
4920.18052,0.34436
4918.25179,0.34244
4916.32307,0.34148
4914.39434,0.34222
4912.46561,0.34316
4910.53689,0.34208
4908.60816,0.33997
4906.67943,0.33906
4904.75071,0.33881
4902.82198,0.33833
4900.89326,0.33772
4898.96453,0.33651
4897.03580,0.33449
4895.10708,0.33215
4893.17835,0.33004
4891.24963,0.32800
4889.32090,0.32619
4887.39217,0.32563
4885.46345,0.32592
4883.53472,0.32523
4881.60599,0.32280
4879.67727,0.31997
4877.74854,0.31856
4875.81982,0.31844
4873.89109,0.31786
4871.96236,0.31663
4870.03364,0.31620
4868.10491,0.31654
4866.17618,0.31628
4864.24746,0.31501
4862.31873,0.31399
4860.39001,0.31365
4858.46128,0.31247
4856.53255,0.31002
4854.60383,0.30758
4852.67510,0.30586
4850.74638,0.30454
4848.81765,0.30373
4846.88892,0.30372
4844.96020,0.30372
4843.03147,0.30314
4841.10274,0.30206
4839.17402,0.30020
4837.24529,0.29785
4835.31657,0.29595
4833.38784,0.29453
4831.45911,0.29388
4829.53039,0.29457
4827.60166,0.29515
4825.67293,0.29453
4823.74421,0.29393
4821.81548,0.29401
4819.88676,0.29326
4817.95803,0.29085
4816.02930,0.28894
4814.10058,0.28918
4812.17185,0.29037
4810.24313,0.29080
4808.31440,0.29024
4806.38567,0.29010
4804.45695,0.29012
4802.52822,0.28897
4800.59949,0.28803
4798.67077,0.28797
4796.74204,0.28760
4794.81332,0.28718
4792.88459,0.28718
4790.95586,0.28776
4789.02714,0.28863
4787.09841,0.28813
4785.16968,0.28629
4783.24096,0.28514
4781.31223,0.28493
4779.38351,0.28467
4777.45478,0.28481
4775.52605,0.28551
4773.59733,0.28541
4771.66860,0.28441
4769.73988,0.28352
4767.81115,0.28311
4765.88242,0.28323
4763.95370,0.28362
4762.02497,0.28346
4760.09624,0.28277
4758.16752,0.28242
4756.23879,0.28182
4754.31007,0.28041
4752.38134,0.27970
4750.45261,0.28048
4748.52389,0.28221
4746.59516,0.28373
4744.66643,0.28350
4742.73771,0.28235
4740.80898,0.28274
4738.88026,0.28458
4736.95153,0.28587
4735.02280,0.28536
4733.09408,0.28394
4731.16535,0.28341
4729.23663,0.28373
4727.30790,0.28362
4725.37917,0.28259
4723.45045,0.28162
4721.52172,0.28205
4719.59299,0.28361
4717.66427,0.28489
4715.73554,0.28528
4713.80682,0.28550
4711.87809,0.28580
4709.94936,0.28542
4708.02064,0.28494
4706.09191,0.28495
4704.16318,0.28494
4702.23446,0.28530
4700.30573,0.28603
4698.37701,0.28640
4696.44828,0.28678
4694.51955,0.28732
4692.59083,0.28714
4690.66210,0.28681
4688.73338,0.28719
4686.80465,0.28747
4684.87592,0.28745
4682.94720,0.28798
4681.01847,0.28882
4679.08974,0.28948
4677.16102,0.29001
4675.23229,0.29007
4673.30357,0.29006
4671.37484,0.29067
4669.44611,0.29117
4667.51739,0.29111
4665.58866,0.29079
4663.65993,0.29043
4661.73121,0.29086
4659.80248,0.29253
4657.87376,0.29441
4655.94503,0.29536
4654.01630,0.29591
4652.08758,0.29714
4650.15885,0.29814
4648.23013,0.29788
4646.30140,0.29711
4644.37267,0.29689
4642.44395,0.29770
4640.51522,0.29892
4638.58649,0.29936
4636.65777,0.29931
4634.72904,0.30011
4632.80032,0.30233
4630.87159,0.30470
4628.94286,0.30569
4627.01414,0.30588
4625.08541,0.30626
4623.15668,0.30632
4621.22796,0.30616
4619.29923,0.30691
4617.37051,0.30798
4615.44178,0.30829
4613.51305,0.30903
4611.58433,0.31069
4609.65560,0.31195
4607.72688,0.31272
4605.79815,0.31328
4603.86942,0.31377
4601.94070,0.31491
4600.01197,0.31643
4598.08324,0.31719
4596.15452,0.31742
4594.22579,0.31847
4592.29707,0.31986
4590.36834,0.31967
4588.43961,0.31864
4586.51089,0.31890
4584.58216,0.32034
4582.65343,0.32163
4580.72471,0.32246
4578.79598,0.32297
4576.86726,0.32325
4574.93853,0.32404
4573.00980,0.32547
4571.08108,0.32645
4569.15235,0.32681
4567.22363,0.32730
4565.29490,0.32785
4563.36617,0.32827
4561.43745,0.32833
4559.50872,0.32806
4557.57999,0.32825
4555.65127,0.32891
4553.72254,0.32921
4551.79382,0.32998
4549.86509,0.33199
4547.93636,0.33354
4546.00764,0.33326
4544.07891,0.33238
4542.15018,0.33251
4540.22146,0.33307
4538.29273,0.33306
4536.36401,0.33279
4534.43528,0.33284
4532.50655,0.33374
4530.57783,0.33535
4528.64910,0.33596
4526.72037,0.33508
4524.79165,0.33416
4522.86292,0.33374
4520.93420,0.33353
4519.00547,0.33374
4517.07674,0.33440
4515.14802,0.33458
4513.21929,0.33416
4511.29057,0.33409
4509.36184,0.33415
4507.43311,0.33377
4505.50439,0.33308
4503.57566,0.33243
4501.64693,0.33257
4499.71821,0.33321
4497.78948,0.33294
4495.86076,0.33141
4493.93203,0.32939
4492.00330,0.32803
4490.07458,0.32775
4488.14585,0.32751
4486.21712,0.32675
4484.28840,0.32582
4482.35967,0.32470
4480.43095,0.32336
4478.50222,0.32218
4476.57349,0.32133
4474.64477,0.32072
4472.71604,0.31981
4470.78732,0.31777
4468.85859,0.31468
4466.92986,0.31179
4465.00114,0.30978
4463.07241,0.30822
4461.14368,0.30681
4459.21496,0.30586
4457.28623,0.30509
4455.35751,0.30321
4453.42878,0.30051
4451.50005,0.29888
4449.57133,0.29782
4447.64260,0.29549
4445.71387,0.29253
4443.78515,0.29027
4441.85642,0.28854
4439.92770,0.28700
4437.99897,0.28556
4436.07024,0.28393
4434.14152,0.28201
4432.21279,0.28002
4430.28407,0.27810
4428.35534,0.27587
4426.42661,0.27306
4424.49789,0.27028
4422.56916,0.26809
4420.64043,0.26660
4418.71171,0.26562
4416.78298,0.26442
4414.85426,0.26279
4412.92553,0.26143
4410.99680,0.26023
4409.06808,0.25847
4407.13935,0.25656
4405.21062,0.25535
4403.28190,0.25474
4401.35317,0.25448
4399.42445,0.25452
4397.49572,0.25424
4395.56699,0.25329
4393.63827,0.25243
4391.70954,0.25232
4389.78082,0.25288
4387.85209,0.25407
4385.92336,0.25557
4383.99464,0.25632
4382.06591,0.25616
4380.13718,0.25595
4378.20846,0.25618
4376.27973,0.25675
4374.35101,0.25740
4372.42228,0.25831
4370.49355,0.25926
4368.56483,0.25966
4366.63610,0.26024
4364.70737,0.26134
4362.77865,0.26179
4360.84992,0.26137
4358.92120,0.26105
4356.99247,0.26139
4355.06374,0.26202
4353.13502,0.26233
4351.20629,0.26220
4349.27757,0.26193
4347.34884,0.26175
4345.42011,0.26109
4343.49139,0.25964
4341.56266,0.25839
4339.63393,0.25808
4337.70521,0.25814
4335.77648,0.25789
4333.84776,0.25736
4331.91903,0.25673
4329.99030,0.25589
4328.06158,0.25492
4326.13285,0.25401
4324.20412,0.25308
4322.27540,0.25227
4320.34667,0.25183
4318.41795,0.25188
4316.48922,0.25228
4314.56049,0.25217
4312.63177,0.25095
4310.70304,0.24935
4308.77432,0.24860
4306.84559,0.24909
4304.91686,0.24987
4302.98814,0.24977
4301.05941,0.24881
4299.13068,0.24770
4297.20196,0.24702
4295.27323,0.24707
4293.34451,0.24728
4291.41578,0.24694
4289.48705,0.24613
4287.55833,0.24541
4285.62960,0.24546
4283.70087,0.24618
4281.77215,0.24643
4279.84342,0.24581
4277.91470,0.24505
4275.98597,0.24443
4274.05724,0.24389
4272.12852,0.24398
4270.19979,0.24490
4268.27107,0.24575
4266.34234,0.24583
4264.41361,0.24577
4262.48489,0.24615
4260.55616,0.24650
4258.62743,0.24618
4256.69871,0.24542
4254.76998,0.24507
4252.84126,0.24536
4250.91253,0.24581
4248.98380,0.24640
4247.05508,0.24735
4245.12635,0.24828
4243.19762,0.24871
4241.26890,0.24879
4239.34017,0.24867
4237.41145,0.24811
4235.48272,0.24746
4233.55399,0.24754
4231.62527,0.24827
4229.69654,0.24870
4227.76782,0.24837
4225.83909,0.24769
4223.91036,0.24753
4221.98164,0.24836
4220.05291,0.24917
4218.12418,0.24889
4216.19546,0.24807
4214.26673,0.24769
4212.33801,0.24800
4210.40928,0.24846
4208.48055,0.24870
4206.55183,0.24907
4204.62310,0.24951
4202.69437,0.24979
4200.76565,0.24980
4198.83692,0.24923
4196.90820,0.24820
4194.97947,0.24758
4193.05074,0.24781
4191.12202,0.24855
4189.19329,0.24913
4187.26456,0.24906
4185.33584,0.24879
4183.40711,0.24894
4181.47839,0.24920
4179.54966,0.24922
4177.62093,0.24915
4175.69221,0.24947
4173.76348,0.25039
4171.83476,0.25120
4169.90603,0.25133
4167.97730,0.25137
4166.04858,0.25199
4164.11985,0.25272
4162.19112,0.25273
4160.26240,0.25190
4158.33367,0.25091
4156.40495,0.25029
4154.47622,0.24993
4152.54749,0.24955
4150.61877,0.24911
4148.69004,0.24855
4146.76131,0.24769
4144.83259,0.24650
4142.90386,0.24540
4140.97514,0.24485
4139.04641,0.24463
4137.11768,0.24438
4135.18896,0.24382
4133.26023,0.24264
4131.33151,0.24168
4129.40278,0.24167
4127.47405,0.24167
4125.54533,0.24066
4123.61660,0.23885
4121.68787,0.23712
4119.75915,0.23614
4117.83042,0.23561
4115.90170,0.23497
4113.97297,0.23430
4112.04424,0.23375
4110.11552,0.23283
4108.18679,0.23102
4106.25806,0.22895
4104.32934,0.22756
4102.40061,0.22648
4100.47189,0.22502
4098.54316,0.22360
4096.61443,0.22257
4094.68571,0.22135
4092.75698,0.21970
4090.82826,0.21806
4088.89953,0.21671
4086.97080,0.21565
4085.04208,0.21461
4083.11335,0.21338
4081.18462,0.21228
4079.25590,0.21146
4077.32717,0.21045
4075.39845,0.20906
4073.46972,0.20778
4071.54099,0.20681
4069.61227,0.20585
4067.68354,0.20481
4065.75481,0.20374
4063.82609,0.20242
4061.89736,0.20057
4059.96864,0.19850
4058.03991,0.19701
4056.11118,0.19629
4054.18246,0.19560
4052.25373,0.19441
4050.32501,0.19306
4048.39628,0.19187
4046.46755,0.19049
4044.53883,0.18904
4042.61010,0.18829
4040.68137,0.18776
4038.75265,0.18669
4036.82392,0.18575
4034.89520,0.18549
4032.96647,0.18535
4031.03774,0.18455
4029.10902,0.18328
4027.18029,0.18261
4025.25156,0.18284
4023.32284,0.18332
4021.39411,0.18334
4019.46539,0.18280
4017.53666,0.18212
4015.60793,0.18172
4013.67921,0.18175
4011.75048,0.18197
4009.82176,0.18187
4007.89303,0.18156
4005.96430,0.18159
4004.03558,0.18186
4002.10685,0.18210
4000.17812,0.18244
3998.24940,0.18274
3996.32067,0.18305
3994.39195,0.18341
3992.46322,0.18402
3990.53449,0.18463
3988.60577,0.18463
3986.67704,0.18418
3984.74831,0.18389
3982.81959,0.18402
3980.89086,0.18471
3978.96214,0.18585
3977.03341,0.18686
3975.10468,0.18735
3973.17596,0.18753
3971.24723,0.18766
3969.31851,0.18793
3967.38978,0.18854
3965.46105,0.18955
3963.53233,0.19052
3961.60360,0.19092
3959.67487,0.19081
3957.74615,0.19061
3955.81742,0.19054
3953.88870,0.19081
3951.95997,0.19161
3950.03124,0.19269
3948.10252,0.19328
3946.17379,0.19358
3944.24506,0.19441
3942.31634,0.19530
3940.38761,0.19566
3938.45889,0.19616
3936.53016,0.19713
3934.60143,0.19821
3932.67271,0.19891
3930.74398,0.19896
3928.81526,0.19898
3926.88653,0.19990
3924.95780,0.20116
3923.02908,0.20143
3921.10035,0.20145
3919.17162,0.20235
3917.24290,0.20341
3915.31417,0.20366
3913.38545,0.20359
3911.45672,0.20389
3909.52799,0.20467
3907.59927,0.20597
3905.67054,0.20750
3903.74181,0.20831
3901.81309,0.20822
3899.88436,0.20825
3897.95564,0.20844
3896.02691,0.20878
3894.09818,0.20976
3892.16946,0.21088
3890.24073,0.21091
3888.31201,0.21071
3886.38328,0.21130
3884.45455,0.21171
3882.52583,0.21214
3880.59710,0.21278
3878.66837,0.21263
3876.73965,0.21265
3874.81092,0.21331
3872.88220,0.21370
3870.95347,0.21393
3869.02474,0.21378
3867.09602,0.21380
3865.16729,0.21474
3863.23856,0.21538
3861.30984,0.21534
3859.38111,0.21525
3857.45239,0.21536
3855.52366,0.21620
3853.59493,0.21778
3851.66621,0.21852
3849.73748,0.21882
3847.80876,0.21933
3845.88003,0.21992
3843.95130,0.21999
3842.02258,0.21938
3840.09385,0.21922
3838.16512,0.22002
3836.23640,0.22097
3834.30767,0.22161
3832.37895,0.22201
3830.45022,0.22196
3828.52149,0.22157
3826.59277,0.22091
3824.66404,0.22041
3822.73531,0.22113
3820.80659,0.22162
3818.87786,0.22092
3816.94914,0.22120
3815.02041,0.22179
3813.09168,0.22154
3811.16296,0.22110
3809.23423,0.22092
3807.30550,0.22065
3805.37678,0.21980
3803.44805,0.21955
3801.51933,0.21992
3799.59060,0.22004
3797.66187,0.22052
3795.73315,0.22048
3793.80442,0.21994
3791.87570,0.22000
3789.94697,0.22037
3788.01824,0.22039
3786.08952,0.22002
3784.16079,0.21930
3782.23206,0.21857
3780.30334,0.21806
3778.37461,0.21732
3776.44589,0.21665
3774.51716,0.21651
3772.58843,0.21656
3770.65971,0.21613
3768.73098,0.21497
3766.80225,0.21412
3764.87353,0.21374
3762.94480,0.21327
3761.01608,0.21282
3759.08735,0.21194
3757.15862,0.21068
3755.22990,0.21004
3753.30117,0.20985
3751.37245,0.20859
3749.44372,0.20591
3747.51499,0.20449
3745.58627,0.20487
3743.65754,0.20463
3741.72881,0.20332
3739.80009,0.20245
3737.87136,0.20210
3735.94264,0.20119
3734.01391,0.19887
3732.08518,0.19660
3730.15646,0.19565
3728.22773,0.19535
3726.29900,0.19421
3724.37028,0.19216
3722.44155,0.19056
3720.51283,0.18960
3718.58410,0.18865
3716.65537,0.18745
3714.72665,0.18626
3712.79792,0.18460
3710.86920,0.18115
3708.94047,0.17700
3707.01174,0.17428
3705.08302,0.17272
3703.15429,0.17097
3701.22556,0.16836
3699.29684,0.16556
3697.36811,0.16304
3695.43939,0.16017
3693.51066,0.15710
3691.58193,0.15408
3689.65321,0.15019
3687.72448,0.14519
3685.79575,0.14059
3683.86703,0.13698
3681.93830,0.13372
3680.00958,0.13029
3678.08085,0.12633
3676.15212,0.12115
3674.22340,0.11537
3672.29467,0.11148
3670.36595,0.10818
3668.43722,0.10351
3666.50849,0.09934
3664.57977,0.09628
3662.65104,0.09305
3660.72231,0.08921
3658.79359,0.08519
3656.86486,0.08123
3654.93614,0.07790
3653.00741,0.07609
3651.07868,0.07500
3649.14996,0.07245
3647.22123,0.06846
3645.29250,0.06524
3643.36378,0.06338
3641.43505,0.06185
3639.50633,0.05966
3637.57760,0.05693
3635.64887,0.05456
3633.72015,0.05318
3631.79142,0.05281
3629.86270,0.05261
3627.93397,0.05118
3626.00524,0.04895
3624.07652,0.04727
3622.14779,0.04645
3620.21906,0.04616
3618.29034,0.04563
3616.36161,0.04466
3614.43289,0.04376
3612.50416,0.04291
3610.57543,0.04193
3608.64671,0.04091
3606.71798,0.03981
3604.78925,0.03872
3602.86053,0.03787
3600.93180,0.03747
3599.00308,0.03737
3597.07435,0.03702
3595.14562,0.03617
3593.21690,0.03523
3591.28817,0.03457
3589.35945,0.03402
3587.43072,0.03338
3585.50199,0.03279
3583.57327,0.03239
3581.64454,0.03216
3579.71581,0.03208
3577.78709,0.03205
3575.85836,0.03195
3573.92964,0.03156
3572.00091,0.03075
3570.07218,0.02986
3568.14346,0.02951
3566.21473,0.02960
3564.28600,0.02956
3562.35728,0.02948
3560.42855,0.02945
3558.49983,0.02907
3556.57110,0.02843
3554.64237,0.02813
3552.71365,0.02818
3550.78492,0.02791
3548.85620,0.02724
3546.92747,0.02675
3544.99874,0.02663
3543.07002,0.02660
3541.14129,0.02636
3539.21256,0.02583
3537.28384,0.02531
3535.35511,0.02512
3533.42639,0.02517
3531.49766,0.02525
3529.56893,0.02537
3527.64021,0.02538
3525.71148,0.02506
3523.78275,0.02464
3521.85403,0.02436
3519.92530,0.02413
3517.99658,0.02396
3516.06785,0.02398
3514.13912,0.02391
3512.21040,0.02355
3510.28167,0.02329
3508.35295,0.02334
3506.42422,0.02341
3504.49549,0.02353
3502.56677,0.02383
3500.63804,0.02401
3498.70931,0.02390
3496.78059,0.02360
3494.85186,0.02316
3492.92314,0.02263
3490.99441,0.02212
3489.06568,0.02184
3487.13696,0.02195
3485.20823,0.02227
3483.27950,0.02235
3481.35078,0.02213
3479.42205,0.02200
3477.49333,0.02224
3475.56460,0.02251
3473.63587,0.02231
3471.70715,0.02180
3469.77842,0.02142
3467.84970,0.02131
3465.92097,0.02151
3463.99224,0.02190
3462.06352,0.02213
3460.13479,0.02209
3458.20606,0.02203
3456.27734,0.02181
3454.34861,0.02118
3452.41989,0.02047
3450.49116,0.02024
3448.56243,0.02062
3446.63371,0.02121
3444.70498,0.02142
3442.77625,0.02113
3440.84753,0.02069
3438.91880,0.02038
3436.99008,0.02037
3435.06135,0.02061
3433.13262,0.02071
3431.20390,0.02072
3429.27517,0.02080
3427.34644,0.02081
3425.41772,0.02075
3423.48899,0.02082
3421.56027,0.02115
3419.63154,0.02142
3417.70281,0.02130
3415.77409,0.02107
3413.84536,0.02076
3411.91664,0.02054
3409.98791,0.02092
3408.05918,0.02154
3406.13046,0.02162
3404.20173,0.02112
3402.27300,0.02043
3400.34428,0.02007
3398.41555,0.02000
3396.48683,0.01981
3394.55810,0.01963
3392.62937,0.02001
3390.70065,0.02094
3388.77192,0.02172
3386.84319,0.02168
3384.91447,0.02116
3382.98574,0.02104
3381.05702,0.02144
3379.12829,0.02182
3377.19956,0.02185
3375.27084,0.02159
3373.34211,0.02136
3371.41339,0.02148
3369.48466,0.02182
3367.55593,0.02199
3365.62721,0.02192
3363.69848,0.02187
3361.76975,0.02193
3359.84103,0.02185
3357.91230,0.02166
3355.98358,0.02165
3354.05485,0.02181
3352.12612,0.02185
3350.19740,0.02186
3348.26867,0.02213
3346.33994,0.02252
3344.41122,0.02283
3342.48249,0.02298
3340.55377,0.02304
3338.62504,0.02316
3336.69631,0.02324
3334.76759,0.02317
3332.83886,0.02309
3330.91014,0.02306
3328.98141,0.02319
3327.05268,0.02365
3325.12396,0.02412
3323.19523,0.02419
3321.26650,0.02416
3319.33778,0.02456
3317.40905,0.02514
3315.48033,0.02524
3313.55160,0.02488
3311.62287,0.02463
3309.69415,0.02449
3307.76542,0.02421
3305.83669,0.02398
3303.90797,0.02397
3301.97924,0.02427
3300.05052,0.02485
3298.12179,0.02517
3296.19306,0.02479
3294.26434,0.02418
3292.33561,0.02404
3290.40689,0.02447
3288.47816,0.02497
3286.54943,0.02525
3284.62071,0.02541
3282.69198,0.02564
3280.76325,0.02576
3278.83453,0.02562
3276.90580,0.02543
3274.97708,0.02559
3273.04835,0.02607
3271.11962,0.02643
3269.19090,0.02640
3267.26217,0.02627
3265.33344,0.02650
3263.40472,0.02717
3261.47599,0.02794
3259.54727,0.02823
3257.61854,0.02799
3255.68981,0.02774
3253.76109,0.02769
3251.83236,0.02766
3249.90364,0.02755
3247.97491,0.02754
3246.04618,0.02793
3244.11746,0.02863
3242.18873,0.02903
3240.26000,0.02895
3238.33128,0.02887
3236.40255,0.02911
3234.47383,0.02940
3232.54510,0.02948
3230.61637,0.02956
3228.68765,0.02981
3226.75892,0.03001
3224.83019,0.02999
3222.90147,0.02981
3220.97274,0.02979
3219.04402,0.03037
3217.11529,0.03130
3215.18656,0.03189
3213.25784,0.03196
3211.32911,0.03192
3209.40039,0.03205
3207.47166,0.03208
3205.54293,0.03187
3203.61421,0.03179
3201.68548,0.03199
3199.75675,0.03206
3197.82803,0.03185
3195.89930,0.03193
3193.97058,0.03247
3192.04185,0.03290
3190.11312,0.03311
3188.18440,0.03336
3186.25567,0.03358
3184.32694,0.03369
3182.39822,0.03366
3180.46949,0.03362
3178.54077,0.03399
3176.61204,0.03479
3174.68331,0.03555
3172.75459,0.03584
3170.82586,0.03574
3168.89714,0.03568
3166.96841,0.03582
3165.03968,0.03606
3163.11096,0.03638
3161.18223,0.03662
3159.25350,0.03664
3157.32478,0.03678
3155.39605,0.03716
3153.46733,0.03739
3151.53860,0.03737
3149.60987,0.03750
3147.68115,0.03790
3145.75242,0.03834
3143.82369,0.03887
3141.89497,0.03950
3139.96624,0.03998
3138.03752,0.04023
3136.10879,0.04033
3134.18006,0.04043
3132.25134,0.04068
3130.32261,0.04087
3128.39389,0.04092
3126.46516,0.04116
3124.53643,0.04168
3122.60771,0.04196
3120.67898,0.04176
3118.75025,0.04166
3116.82153,0.04199
3114.89280,0.04239
3112.96408,0.04274
3111.03535,0.04323
3109.10662,0.04363
3107.17790,0.04376
3105.24917,0.04402
3103.32044,0.04450
3101.39172,0.04480
3099.46299,0.04488
3097.53427,0.04493
3095.60554,0.04503
3093.67681,0.04520
3091.74809,0.04544
3089.81936,0.04583
3087.89063,0.04621
3085.96191,0.04638
3084.03318,0.04651
3082.10446,0.04675
3080.17573,0.04685
3078.24700,0.04683
3076.31828,0.04717
3074.38955,0.04777
3072.46083,0.04818
3070.53210,0.04842
3068.60337,0.04871
3066.67465,0.04905
3064.74592,0.04937
3062.81719,0.04960
3060.88847,0.04975
3058.95974,0.04981
3057.03102,0.04992
3055.10229,0.05034
3053.17356,0.05090
3051.24484,0.05129
3049.31611,0.05168
3047.38738,0.05210
3045.45866,0.05220
3043.52993,0.05202
3041.60121,0.05204
3039.67248,0.05234
3037.74375,0.05267
3035.81503,0.05295
3033.88630,0.05319
3031.95758,0.05329
3030.02885,0.05337
3028.10012,0.05360
3026.17140,0.05380
3024.24267,0.05361
3022.31394,0.05329
3020.38522,0.05325
3018.45649,0.05340
3016.52777,0.05351
3014.59904,0.05340
3012.67031,0.05305
3010.74159,0.05275
3008.81286,0.05258
3006.88413,0.05238
3004.95541,0.05218
3003.02668,0.05217
3001.09796,0.05213
2999.16923,0.05176
2997.24050,0.05139
2995.31178,0.05138
2993.38305,0.05120
2991.45433,0.05052
2989.52560,0.04973
2987.59687,0.04920
2985.66815,0.04889
2983.73942,0.04853
2981.81069,0.04764
2979.88197,0.04624
2977.95324,0.04478
2976.02452,0.04341
2974.09579,0.04234
2972.16706,0.04157
2970.23834,0.04090
2968.30961,0.04047
2966.38088,0.04008
2964.45216,0.03940
2962.52343,0.03866
2960.59471,0.03819
2958.66598,0.03802
2956.73725,0.03805
2954.80853,0.03806
2952.87980,0.03765
2950.95108,0.03706
2949.02235,0.03690
2947.09362,0.03696
2945.16490,0.03660
2943.23617,0.03599
2941.30744,0.03561
2939.37872,0.03518
2937.44999,0.03453
2935.52127,0.03421
2933.59254,0.03425
2931.66381,0.03428
2929.73509,0.03440
2927.80636,0.03467
2925.87763,0.03464
2923.94891,0.03433
2922.02018,0.03424
2920.09146,0.03455
2918.16273,0.03496
2916.23400,0.03508
2914.30528,0.03491
2912.37655,0.03485
2910.44783,0.03505
2908.51910,0.03503
2906.59037,0.03482
2904.66165,0.03512
2902.73292,0.03577
2900.80419,0.03602
2898.87547,0.03601
2896.94674,0.03611
2895.01802,0.03621
2893.08929,0.03614
2891.16056,0.03606
2889.23184,0.03625
2887.30311,0.03675
2885.37438,0.03726
2883.44566,0.03765
2881.51693,0.03803
2879.58821,0.03827
2877.65948,0.03831
2875.73075,0.03824
2873.80203,0.03816
2871.87330,0.03813
2869.94458,0.03835
2868.01585,0.03886
2866.08712,0.03934
2864.15840,0.03961
2862.22967,0.03977
2860.30094,0.03997
2858.37222,0.04007
2856.44349,0.04007
2854.51477,0.04024
2852.58604,0.04046
2850.65731,0.04064
2848.72859,0.04123
2846.79986,0.04242
2844.87113,0.04376
2842.94241,0.04488
2841.01368,0.04596
2839.08496,0.04707
2837.15623,0.04801
2835.22750,0.04889
2833.29878,0.04997
2831.37005,0.05098
2829.44133,0.05176
2827.51260,0.05278
2825.58387,0.05422
2823.65515,0.05575
2821.72642,0.05708
2819.79769,0.05811
2817.86897,0.05888
2815.94024,0.05956
2814.01152,0.06023
2812.08279,0.06079
2810.15406,0.06140
2808.22534,0.06232
2806.29661,0.06328
2804.36788,0.06391
2802.43916,0.06434
2800.51043,0.06476
2798.58171,0.06516
2796.65298,0.06549
2794.72425,0.06590
2792.79553,0.06646
2790.86680,0.06695
2788.93808,0.06726
2787.00935,0.06757
2785.08062,0.06799
2783.15190,0.06846
2781.22317,0.06881
2779.29444,0.06900
2777.36572,0.06929
2775.43699,0.06963
2773.50827,0.06980
2771.57954,0.07003
2769.65081,0.07049
2767.72209,0.07082
2765.79336,0.07084
2763.86463,0.07086
2761.93591,0.07111
2760.00718,0.07147
2758.07846,0.07172
2756.14973,0.07187
2754.22100,0.07199
2752.29228,0.07205
2750.36355,0.07188
2748.43483,0.07156
2746.50610,0.07151
2744.57737,0.07180
2742.64865,0.07209
2740.71992,0.07229
2738.79119,0.07240
2736.86247,0.07245
2734.93374,0.07272
2733.00502,0.07318
2731.07629,0.07354
2729.14756,0.07383
2727.21884,0.07396
2725.29011,0.07384
2723.36138,0.07381
2721.43266,0.07412
2719.50393,0.07453
2717.57521,0.07479
2715.64648,0.07502
2713.71775,0.07546
2711.78903,0.07602
2709.86030,0.07655
2707.93157,0.07710
2706.00285,0.07752
2704.07412,0.07789
2702.14540,0.07843
2700.21667,0.07898
2698.28794,0.07936
2696.35922,0.07973
2694.43049,0.08023
2692.50177,0.08069
2690.57304,0.08092
2688.64431,0.08104
2686.71559,0.08131
2684.78686,0.08196
2682.85813,0.08279
2680.92941,0.08335
2679.00068,0.08362
2677.07196,0.08390
2675.14323,0.08415
2673.21450,0.08428
2671.28578,0.08430
2669.35705,0.08438
2667.42832,0.08481
2665.49960,0.08542
2663.57087,0.08590
2661.64215,0.08623
2659.71342,0.08660
2657.78469,0.08717
2655.85597,0.08756
2653.92724,0.08748
2651.99852,0.08754
2650.06979,0.08805
2648.14106,0.08861
2646.21234,0.08908
2644.28361,0.08946
2642.35488,0.08965
2640.42616,0.08973
2638.49743,0.08994
2636.56871,0.09028
2634.63998,0.09066
2632.71125,0.09116
2630.78253,0.09164
2628.85380,0.09197
2626.92507,0.09238
2624.99635,0.09288
2623.06762,0.09312
2621.13890,0.09316
2619.21017,0.09334
2617.28144,0.09377
2615.35272,0.09425
2613.42399,0.09459
2611.49527,0.09487
2609.56654,0.09507
2607.63781,0.09529
2605.70909,0.09580
2603.78036,0.09625
2601.85163,0.09638
2599.92291,0.09660
2597.99418,0.09695
2596.06546,0.09715
2594.13673,0.09742
2592.20800,0.09800
2590.27928,0.09862
2588.35055,0.09901
2586.42182,0.09909
2584.49310,0.09903
2582.56437,0.09914
2580.63565,0.09945
2578.70692,0.09974
2576.77819,0.10008
2574.84947,0.10063
2572.92074,0.10127
2570.99202,0.10170
2569.06329,0.10172
2567.13456,0.10146
2565.20584,0.10117
2563.27711,0.10094
2561.34838,0.10077
2559.41966,0.10079
2557.49093,0.10104
2555.56221,0.10133
2553.63348,0.10149
2551.70475,0.10151
2549.77603,0.10152
2547.84730,0.10155
2545.91857,0.10171
2543.98985,0.10214
2542.06112,0.10258
2540.13240,0.10277
2538.20367,0.10275
2536.27494,0.10276
2534.34622,0.10300
2532.41749,0.10352
2530.48877,0.10422
2528.56004,0.10492
2526.63131,0.10541
2524.70259,0.10564
2522.77386,0.10583
2520.84513,0.10606
2518.91641,0.10616
2516.98768,0.10616
2515.05896,0.10624
2513.13023,0.10667
2511.20150,0.10742
2509.27278,0.10817
2507.34405,0.10872
2505.41532,0.10905
2503.48660,0.10946
2501.55787,0.11017
2499.62915,0.11087
2497.70042,0.11123
2495.77169,0.11162
2493.84297,0.11232
2491.91424,0.11316
2489.98552,0.11394
2488.05679,0.11447
2486.12806,0.11484
2484.19934,0.11535
2482.27061,0.11589
2480.34188,0.11630
2478.41316,0.11677
2476.48443,0.11734
2474.55571,0.11788
2472.62698,0.11835
2470.69825,0.11872
2468.76953,0.11905
2466.84080,0.11938
2464.91207,0.11972
2462.98335,0.12020
2461.05462,0.12075
2459.12590,0.12116
2457.19717,0.12153
2455.26844,0.12203
2453.33972,0.12258
2451.41099,0.12314
2449.48227,0.12361
2447.55354,0.12392
2445.62481,0.12447
2443.69609,0.12530
2441.76736,0.12589
2439.83863,0.12622
2437.90991,0.12658
2435.98118,0.12696
2434.05246,0.12726
2432.12373,0.12768
2430.19500,0.12837
2428.26628,0.12920
2426.33755,0.12993
2424.40882,0.13040
2422.48010,0.13063
2420.55137,0.13087
2418.62265,0.13142
2416.69392,0.13217
2414.76519,0.13287
2412.83647,0.13356
2410.90774,0.13420
2408.97902,0.13456
2407.05029,0.13486
2405.12156,0.13543
2403.19284,0.13619
2401.26411,0.13688
2399.33538,0.13747
2397.40666,0.13803
2395.47793,0.13859
2393.54921,0.13902
2391.62048,0.13922
2389.69175,0.13915
2387.76303,0.13897
2385.83430,0.13893
2383.90557,0.13902
2381.97685,0.13916
2380.04812,0.13929
2378.11940,0.13923
2376.19067,0.13878
2374.26194,0.13784
2372.33322,0.13654
2370.40449,0.13535
2368.47576,0.13485
2366.54704,0.13484
2364.61831,0.13464
2362.68959,0.13424
2360.76086,0.13451
2358.83213,0.13611
2356.90341,0.13820
2354.97468,0.13924
2353.04596,0.13877
2351.11723,0.13769
2349.18850,0.13723
2347.25978,0.13769
2345.33105,0.13834
2343.40232,0.13841
2341.47360,0.13821
2339.54487,0.13819
2337.61615,0.13788
2335.68742,0.13745
2333.75869,0.13796
2331.82997,0.13921
2329.90124,0.14003
2327.97251,0.14041
2326.04379,0.14116
2324.11506,0.14252
2322.18634,0.14410
2320.25761,0.14536
2318.32888,0.14587
2316.40016,0.14595
2314.47143,0.14633
2312.54271,0.14720
2310.61398,0.14802
2308.68525,0.14823
2306.75653,0.14804
2304.82780,0.14804
2302.89907,0.14835
2300.97035,0.14856
2299.04162,0.14843
2297.11290,0.14801
2295.18417,0.14754
2293.25544,0.14729
2291.32672,0.14740
2289.39799,0.14768
2287.46926,0.14793
2285.54054,0.14808
2283.61181,0.14801
2281.68309,0.14778
2279.75436,0.14756
2277.82563,0.14730
2275.89691,0.14690
2273.96818,0.14642
2272.03946,0.14596
2270.11073,0.14560
2268.18200,0.14539
2266.25328,0.14516
2264.32455,0.14469
2262.39582,0.14414
2260.46710,0.14394
2258.53837,0.14408
2256.60965,0.14412
2254.68092,0.14389
2252.75219,0.14354
2250.82347,0.14334
2248.89474,0.14345
2246.96601,0.14345
2245.03729,0.14337
2243.10856,0.14315
2241.17984,0.14281
2239.25111,0.14255
2237.32238,0.14225
2235.39366,0.14177
2233.46493,0.14139
2231.53621,0.14131
2229.60748,0.14121
2227.67875,0.14093
2225.75003,0.14082
2223.82130,0.14101
2221.89257,0.14114
2219.96385,0.14109
2218.03512,0.14100
2216.10640,0.14099
2214.17767,0.14086
2212.24894,0.14044
2210.32022,0.14016
2208.39149,0.14033
2206.46276,0.14045
2204.53404,0.14005
2202.60531,0.13931
2200.67659,0.13863
2198.74786,0.13816
2196.81913,0.13783
2194.89041,0.13743
2192.96168,0.13691
2191.03296,0.13644
2189.10423,0.13604
2187.17550,0.13556
2185.24678,0.13494
2183.31805,0.13436
2181.38932,0.13378
2179.46060,0.13293
2177.53187,0.13204
2175.60315,0.13141
2173.67442,0.13094
2171.74569,0.13052
2169.81697,0.13008
2167.88824,0.12956
2165.95951,0.12893
2164.03079,0.12835
2162.10206,0.12797
2160.17334,0.12779
2158.24461,0.12754
2156.31588,0.12708
2154.38716,0.12673
2152.45843,0.12663
2150.52971,0.12657
2148.60098,0.12642
2146.67225,0.12622
2144.74353,0.12591
2142.81480,0.12541
2140.88607,0.12492
2138.95735,0.12457
2137.02862,0.12436
2135.09990,0.12434
2133.17117,0.12446
2131.24244,0.12464
2129.31372,0.12485
2127.38499,0.12495
2125.45626,0.12492
2123.52754,0.12489
2121.59881,0.12498
2119.67009,0.12505
2117.74136,0.12515
2115.81263,0.12539
2113.88391,0.12566
2111.95518,0.12591
2110.02646,0.12630
2108.09773,0.12674
2106.16900,0.12700
2104.24028,0.12713
2102.31155,0.12722
2100.38282,0.12720
2098.45410,0.12720
2096.52537,0.12745
2094.59665,0.12782
2092.66792,0.12807
2090.73919,0.12820
2088.81047,0.12818
2086.88174,0.12808
2084.95301,0.12804
2083.02429,0.12797
2081.09556,0.12802
2079.16684,0.12823
2077.23811,0.12813
2075.30938,0.12750
2073.38066,0.12681
2071.45193,0.12652
2069.52321,0.12665
2067.59448,0.12697
2065.66575,0.12712
2063.73703,0.12677
2061.80830,0.12628
2059.87957,0.12623
2057.95085,0.12653
2056.02212,0.12668
2054.09340,0.12663
2052.16467,0.12668
2050.23594,0.12681
2048.30722,0.12695
2046.37849,0.12727
2044.44976,0.12778
2042.52104,0.12832
2040.59231,0.12877
2038.66359,0.12922
2036.73486,0.12982
2034.80613,0.13043
2032.87741,0.13084
2030.94868,0.13118
2029.01996,0.13161
2027.09123,0.13214
2025.16250,0.13280
2023.23378,0.13346
2021.30505,0.13403
2019.37632,0.13474
2017.44760,0.13563
2015.51887,0.13633
2013.59015,0.13694
2011.66142,0.13761
2009.73269,0.13804
2007.80397,0.13831
2005.87524,0.13869
2003.94651,0.13906
2002.01779,0.13940
2000.08906,0.13996
1998.16034,0.14066
1996.23161,0.14124
1994.30288,0.14185
1992.37416,0.14247
1990.44543,0.14277
1988.51670,0.14285
1986.58798,0.14296
1984.65925,0.14324
1982.73053,0.14363
1980.80180,0.14392
1978.87307,0.14421
1976.94435,0.14456
1975.01562,0.14491
1973.08690,0.14520
1971.15817,0.14548
1969.22944,0.14609
1967.30072,0.14683
1965.37199,0.14698
1963.44326,0.14683
1961.51454,0.14706
1959.58581,0.14765
1957.65709,0.14827
1955.72836,0.14880
1953.79963,0.14924
1951.87091,0.14968
1949.94218,0.15028
1948.01345,0.15108
1946.08473,0.15191
1944.15600,0.15288
1942.22728,0.15362
1940.29855,0.15364
1938.36982,0.15357
1936.44110,0.15388
1934.51237,0.15425
1932.58365,0.15446
1930.65492,0.15453
1928.72619,0.15463
1926.79747,0.15504
1924.86874,0.15595
1922.94001,0.15664
1921.01129,0.15657
1919.08256,0.15647
1917.15384,0.15636
1915.22511,0.15602
1913.29638,0.15594
1911.36766,0.15622
1909.43893,0.15638
1907.51020,0.15607
1905.58148,0.15561
1903.65275,0.15539
1901.72403,0.15531
1899.79530,0.15531
1897.86657,0.15546
1895.93785,0.15568
1894.00912,0.15571
1892.08040,0.15585
1890.15167,0.15617
1888.22294,0.15600
1886.29422,0.15538
1884.36549,0.15486
1882.43676,0.15449
1880.50804,0.15427
1878.57931,0.15413
1876.65059,0.15396
1874.72186,0.15382
1872.79313,0.15411
1870.86441,0.15508
1868.93568,0.15578
1867.00695,0.15502
1865.07823,0.15364
1863.14950,0.15294
1861.22078,0.15290
1859.29205,0.15284
1857.36332,0.15239
1855.43460,0.15169
1853.50587,0.15109
1851.57715,0.15072
1849.64842,0.15050
1847.71969,0.15045
1845.79097,0.15062
1843.86224,0.15025
1841.93351,0.14889
1840.00479,0.14774
1838.07606,0.14705
1836.14734,0.14612
1834.21861,0.14526
1832.28988,0.14523
1830.36116,0.14539
1828.43243,0.14452
1826.50370,0.14321
1824.57498,0.14196
1822.64625,0.14051
1820.71753,0.13924
1818.78880,0.13817
1816.86007,0.13691
1814.93135,0.13549
1813.00262,0.13431
1811.07390,0.13310
1809.14517,0.13129
1807.21644,0.12922
1805.28772,0.12753
1803.35899,0.12627
1801.43026,0.12476
1799.50154,0.12264
1797.57281,0.12056
1795.64409,0.11914
1793.71536,0.11807
1791.78663,0.11607
1789.85791,0.11285
1787.92918,0.10989
1786.00045,0.10766
1784.07173,0.10548
1782.14300,0.10304
1780.21428,0.10036
1778.28555,0.09771
1776.35682,0.09563
1774.42810,0.09390
1772.49937,0.09119
1770.57065,0.08678
1768.64192,0.08193
1766.71319,0.07759
1764.78447,0.07407
1762.85574,0.07080
1760.92701,0.06690
1758.99829,0.06288
1757.06956,0.05926
1755.14084,0.05616
1753.21211,0.05394
1751.28338,0.05198
1749.35466,0.04933
1747.42593,0.04668
1745.49720,0.04506
1743.56848,0.04429
1741.63975,0.04375
1739.71103,0.04295
1737.78230,0.04210
1735.85357,0.04198
1733.92485,0.04234
1731.99612,0.04216
1730.06740,0.04151
1728.13867,0.04092
1726.20994,0.04083
1724.28122,0.04127
1722.35249,0.04195
1720.42376,0.04317
1718.49504,0.04518
1716.56631,0.04671
1714.63759,0.04670
1712.70886,0.04622
1710.78013,0.04617
1708.85141,0.04660
1706.92268,0.04720
1704.99395,0.04759
1703.06523,0.04780
1701.13650,0.04827
1699.20778,0.04863
1697.27905,0.04847
1695.35032,0.04783
1693.42160,0.04708
1691.49287,0.04669
1689.56415,0.04635
1687.63542,0.04587
1685.70669,0.04552
1683.77797,0.04472
1681.84924,0.04317
1679.92051,0.04192
1677.99179,0.04123
1676.06306,0.04071
1674.13434,0.03996
1672.20561,0.03915
1670.27688,0.03818
1668.34816,0.03673
1666.41943,0.03556
1664.49070,0.03514
1662.56198,0.03503
1660.63325,0.03470
1658.70453,0.03442
1656.77580,0.03491
1654.84707,0.03628
1652.91835,0.03689
1650.98962,0.03590
1649.06090,0.03556
1647.13217,0.03605
1645.20344,0.03584
1643.27472,0.03516
1641.34599,0.03488
1639.41726,0.03507
1637.48854,0.03557
1635.55981,0.03586
1633.63109,0.03546
1631.70236,0.03500
1629.77363,0.03501
1627.84491,0.03535
1625.91618,0.03579
1623.98745,0.03606
1622.05873,0.03582
1620.13000,0.03553
1618.20128,0.03588
1616.27255,0.03622
1614.34382,0.03583
1612.41510,0.03541
1610.48637,0.03546
1608.55764,0.03561
1606.62892,0.03543
1604.70019,0.03510
1602.77147,0.03507
1600.84274,0.03532
1598.91401,0.03553
1596.98529,0.03568
1595.05656,0.03591
1593.12784,0.03622
1591.19911,0.03658
1589.27038,0.03712
1587.34166,0.03804
1585.41293,0.03930
1583.48420,0.04056
1581.55548,0.04164
1579.62675,0.04296
1577.69803,0.04512
1575.76930,0.04744
1573.84057,0.04872
1571.91185,0.04990
1569.98312,0.05186
1568.05439,0.05366
1566.12567,0.05479
1564.19694,0.05573
1562.26822,0.05676
1560.33949,0.05775
1558.41076,0.05762
1556.48204,0.05656
1554.55331,0.05634
1552.62459,0.05681
1550.69586,0.05729
1548.76713,0.05737
1546.83841,0.05724
1544.90968,0.05721
1542.98095,0.05711
1541.05223,0.05663
1539.12350,0.05523
1537.19478,0.05387
1535.26605,0.05320
1533.33732,0.05188
1531.40860,0.04937
1529.47987,0.04690
1527.55114,0.04464
1525.62242,0.04219
1523.69369,0.03950
1521.76497,0.03625
1519.83624,0.03305
1517.90751,0.03089
1515.97879,0.02924
1514.05006,0.02801
1512.12134,0.02780
1510.19261,0.02872
1508.26388,0.03031
1506.33516,0.03132
1504.40643,0.03137
1502.47770,0.03165
1500.54898,0.03252
1498.62025,0.03359
1496.69153,0.03434
1494.76280,0.03472
1492.83407,0.03533
1490.90535,0.03623
1488.97662,0.03656
1487.04789,0.03598
1485.11917,0.03524
1483.19044,0.03476
1481.26172,0.03435
1479.33299,0.03361
1477.40426,0.03250
1475.47554,0.03130
1473.54681,0.03023
1471.61809,0.02923
1469.68936,0.02849
1467.76063,0.02821
1465.83191,0.02814
1463.90318,0.02793
1461.97445,0.02782
1460.04573,0.02809
1458.11700,0.02829
1456.18828,0.02774
1454.25955,0.02706
1452.33082,0.02695
1450.40210,0.02727
1448.47337,0.02769
1446.54464,0.02809
1444.61592,0.02843
1442.68719,0.02861
1440.75847,0.02858
1438.82974,0.02826
1436.90101,0.02750
1434.97229,0.02658
1433.04356,0.02622
1431.11484,0.02643
1429.18611,0.02670
1427.25738,0.02686
1425.32866,0.02714
1423.39993,0.02760
1421.47120,0.02815
1419.54248,0.02859
1417.61375,0.02868
1415.68503,0.02876
1413.75630,0.02918
1411.82757,0.02963
1409.89885,0.02985
1407.97012,0.03005
1406.04139,0.03040
1404.11267,0.03055
1402.18394,0.03030
1400.25522,0.03010
1398.32649,0.03014
1396.39776,0.03014
1394.46904,0.02981
1392.54031,0.02919
1390.61159,0.02858
1388.68286,0.02815
1386.75413,0.02780
1384.82541,0.02729
1382.89668,0.02661
1380.96795,0.02608
1379.03923,0.02595
1377.11050,0.02617
1375.18178,0.02636
1373.25305,0.02611
1371.32432,0.02568
1369.39560,0.02567
1367.46687,0.02618
1365.53814,0.02696
1363.60942,0.02759
1361.68069,0.02767
1359.75197,0.02746
1357.82324,0.02758
1355.89451,0.02805
1353.96579,0.02835
1352.03706,0.02840
1350.10834,0.02857
1348.17961,0.02876
1346.25088,0.02847
1344.32216,0.02775
1342.39343,0.02715
1340.46470,0.02691
1338.53598,0.02683
1336.60725,0.02683
1334.67853,0.02689
1332.74980,0.02690
1330.82107,0.02684
1328.89235,0.02674
1326.96362,0.02655
1325.03489,0.02634
1323.10617,0.02624
1321.17744,0.02634
1319.24872,0.02661
1317.31999,0.02689
1315.39126,0.02702
1313.46254,0.02716
1311.53381,0.02744
1309.60509,0.02774
1307.67636,0.02789
1305.74763,0.02790
1303.81891,0.02787
1301.89018,0.02781
1299.96145,0.02773
1298.03273,0.02786
1296.10400,0.02817
1294.17528,0.02807
1292.24655,0.02730
1290.31782,0.02649
1288.38910,0.02616
1286.46037,0.02595
1284.53164,0.02555
1282.60292,0.02517
1280.67419,0.02493
1278.74547,0.02472
1276.81674,0.02459
1274.88801,0.02471
1272.95929,0.02504
1271.03056,0.02517
1269.10183,0.02493
1267.17311,0.02470
1265.24438,0.02476
1263.31566,0.02506
1261.38693,0.02540
1259.45820,0.02563
1257.52948,0.02586
1255.60075,0.02612
1253.67203,0.02630
1251.74330,0.02655
1249.81457,0.02687
1247.88585,0.02699
1245.95712,0.02709
1244.02839,0.02727
1242.09967,0.02732
1240.17094,0.02734
1238.24222,0.02741
1236.31349,0.02737
1234.38476,0.02738
1232.45604,0.02760
1230.52731,0.02757
1228.59858,0.02710
1226.66986,0.02669
1224.74113,0.02673
1222.81241,0.02704
1220.88368,0.02734
1218.95495,0.02763
1217.02623,0.02792
1215.09750,0.02791
1213.16878,0.02766
1211.24005,0.02768
1209.31132,0.02801
1207.38260,0.02816
1205.45387,0.02798
1203.52514,0.02792
1201.59642,0.02841
1199.66769,0.02898
1197.73897,0.02906
1195.81024,0.02898
1193.88151,0.02904
1191.95279,0.02903
1190.02406,0.02860
1188.09533,0.02782
1186.16661,0.02728
1184.23788,0.02719
1182.30916,0.02687
1180.38043,0.02582
1178.45170,0.02454
1176.52298,0.02373
1174.59425,0.02339
1172.66553,0.02304
1170.73680,0.02272
1168.80807,0.02257
1166.87935,0.02226
1164.95062,0.02217
1163.02189,0.02316
1161.09317,0.02449
1159.16444,0.02493
1157.23572,0.02462
1155.30699,0.02440
1153.37826,0.02453
1151.44954,0.02468
1149.52081,0.02457
1147.59208,0.02405
1145.66336,0.02342
1143.73463,0.02300
1141.80591,0.02269
1139.87718,0.02258
1137.94845,0.02247
1136.01973,0.02197
1134.09100,0.02141
1132.16228,0.02141
1130.23355,0.02168
1128.30482,0.02150
1126.37610,0.02095
1124.44737,0.02049
1122.51864,0.02042
1120.58992,0.02098
1118.66119,0.02190
1116.73247,0.02226
1114.80374,0.02192
1112.87501,0.02178
1110.94629,0.02229
1109.01756,0.02306
1107.08883,0.02369
1105.16011,0.02392
1103.23138,0.02345
1101.30266,0.02276
1099.37393,0.02268
1097.44520,0.02297
1095.51648,0.02299
1093.58775,0.02310
1091.65903,0.02363
1089.73030,0.02390
1087.80157,0.02370
1085.87285,0.02382
1083.94412,0.02420
1082.01539,0.02433
1080.08667,0.02436
1078.15794,0.02461
1076.22922,0.02519
1074.30049,0.02609
1072.37176,0.02731
1070.44304,0.02864
1068.51431,0.02986
1066.58558,0.03090
1064.65686,0.03173
1062.72813,0.03226
1060.79941,0.03259
1058.87068,0.03341
1056.94195,0.03473
1055.01323,0.03556
1053.08450,0.03544
1051.15578,0.03491
1049.22705,0.03459
1047.29832,0.03443
1045.36960,0.03435
1043.44087,0.03460
1041.51214,0.03499
1039.58342,0.03523
1037.65469,0.03571
1035.72597,0.03708
1033.79724,0.03894
1031.86851,0.04024
1029.93979,0.04064
1028.01106,0.04050
1026.08233,0.04066
1024.15361,0.04140
1022.22488,0.04193
1020.29616,0.04195
1018.36743,0.04211
1016.43870,0.04276
1014.50998,0.04315
1012.58125,0.04284
1010.65253,0.04240
1008.72380,0.04214
1006.79507,0.04206
1004.86635,0.04226
1002.93762,0.04255
1001.00889,0.04304
999.08017,0.04381
997.15144,0.04433
995.22272,0.04445
993.29399,0.04468
991.36526,0.04516
989.43654,0.04553
987.50781,0.04618
985.57908,0.04773
983.65036,0.04947
981.72163,0.05046
979.79291,0.05088
977.86418,0.05127
975.93545,0.05182
974.00673,0.05246
972.07800,0.05287
970.14928,0.05298
968.22055,0.05321
966.29182,0.05338
964.36310,0.05324
962.43437,0.05334
960.50564,0.05401
958.57692,0.05518
956.64819,0.05639
954.71947,0.05703
952.79074,0.05702
950.86201,0.05696
948.93329,0.05746
947.00456,0.05824
945.07583,0.05890
943.14711,0.05918
941.21838,0.05885
939.28966,0.05863
937.36093,0.05914
935.43220,0.05991
933.50348,0.06064
931.57475,0.06114
929.64603,0.06116
927.71730,0.06089
925.78857,0.06072
923.85985,0.06062
921.93112,0.06019
920.00239,0.05960
918.07367,0.05940
916.14494,0.05917
914.21622,0.05871
912.28749,0.05859
910.35876,0.05830
908.43004,0.05697
906.50131,0.05474
904.57258,0.05253
902.64386,0.05151
900.71513,0.05158
898.78641,0.05167
896.85768,0.05139
894.92895,0.05116
893.00023,0.05160
891.07150,0.05253
889.14277,0.05330
887.21405,0.05376
885.28532,0.05387
883.35660,0.05367
881.42787,0.05324
879.49914,0.05295
877.57042,0.05326
875.64169,0.05384
873.71297,0.05423
871.78424,0.05454
869.85551,0.05481
867.92679,0.05468
865.99806,0.05413
864.06933,0.05385
862.14061,0.05395
860.21188,0.05401
858.28316,0.05429
856.35443,0.05486
854.42570,0.05495
852.49698,0.05482
850.56825,0.05544
848.63952,0.05621
846.71080,0.05634
844.78207,0.05629
842.85335,0.05613
840.92462,0.05552
838.99589,0.05481
837.06717,0.05417
835.13844,0.05310
833.20972,0.05176
831.28099,0.05088
829.35226,0.05060
827.42354,0.05050
825.49481,0.05008
823.56608,0.04927
821.63736,0.04842
819.70863,0.04772
817.77991,0.04730
815.85118,0.04720
813.92245,0.04697
811.99373,0.04622
810.06500,0.04556
808.13627,0.04593
806.20755,0.04713
804.27882,0.04792
802.35010,0.04796
800.42137,0.04759
798.49264,0.04690
796.56392,0.04654
794.63519,0.04679
792.70647,0.04695
790.77774,0.04686
788.84901,0.04703
786.92029,0.04719
784.99156,0.04635
783.06283,0.04496
781.13411,0.04481
779.20538,0.04578
777.27666,0.04601
775.34793,0.04536
773.41920,0.04476
771.49048,0.04393
769.56175,0.04310
767.63302,0.04313
765.70430,0.04327
763.77557,0.04283
761.84685,0.04279
759.91812,0.04320
757.98939,0.04297
756.06067,0.04245
754.13194,0.04252
752.20322,0.04247
750.27449,0.04179
748.34576,0.04122
746.41704,0.04074
744.48831,0.04030
742.55958,0.04055
740.63086,0.04081
738.70213,0.04018
736.77341,0.03955
734.84468,0.03956
732.91595,0.03964
730.98723,0.03946
729.05850,0.03930
727.12977,0.03897
725.20105,0.03804
723.27232,0.03717
721.34360,0.03690
719.41487,0.03724
717.48614,0.03775
715.55742,0.03772
713.62869,0.03709
711.69997,0.03673
709.77124,0.03685
707.84251,0.03657
705.91379,0.03576
703.98506,0.03552
702.05633,0.03630
700.12761,0.03729
698.19888,0.03751
696.27016,0.03678
694.34143,0.03594
692.41270,0.03589
690.48398,0.03646
688.55525,0.03664
686.62652,0.03599
684.69780,0.03515
682.76907,0.03460
680.84035,0.03446
678.91162,0.03491
676.98289,0.03541
675.05417,0.03514
673.12544,0.03461
671.19672,0.03522
669.26799,0.03673
667.33926,0.03682
665.41054,0.03537
663.48181,0.03436
661.55308,0.03412
659.62436,0.03412
657.69563,0.03448
655.76691,0.03526
653.83818,0.03583
651.90945,0.03591
649.98073,0.03585
648.05200,0.03561
646.12327,0.03497
644.19455,0.03456
642.26582,0.03500
640.33710,0.03568
638.40837,0.03593
636.47964,0.03601
634.55092,0.03617
632.62219,0.03635
630.69347,0.03616
628.76474,0.03509
626.83601,0.03342
624.90729,0.03226
622.97856,0.03229
621.04983,0.03379
619.12111,0.03536
617.19238,0.03538
615.26366,0.03495
613.33493,0.03515
611.40620,0.03505
609.47748,0.03488
607.54875,0.03596
605.62002,0.03751
603.69130,0.03767
601.76257,0.03669
599.83385,0.03628
597.90512,0.03676
595.97639,0.03726
594.04767,0.03781
592.11894,0.03873
590.19022,0.03918
588.26149,0.03871
586.33276,0.03823
584.40404,0.03864
582.47531,0.04003
580.54658,0.04134
578.61786,0.04142
576.68913,0.04080
574.76041,0.04019
572.83168,0.03959
570.90295,0.03979
568.97423,0.04060
567.04550,0.03968
565.11677,0.03718
563.18805,0.03655
561.25932,0.03844
559.33060,0.03988
557.40187,0.03989
555.47314,0.04065
553.54442,0.04291
551.61569,0.04469
549.68697,0.04456
547.75824,0.04348
545.82951,0.04291
543.90079,0.04278
541.97206,0.04208
540.04333,0.04142
538.11461,0.04210
536.18588,0.04323
534.25716,0.04325
532.32843,0.04250
530.39970,0.04190
528.47098,0.04186
526.54225,0.04216
524.61352,0.04211
522.68480,0.04206
520.75607,0.04349
518.82735,0.04564
516.89862,0.04554
514.96989,0.04430
513.04117,0.04483
511.11244,0.04493
509.18371,0.04258
507.25499,0.04116
505.32626,0.04345
503.39754,0.04817
501.46881,0.05179
499.54008,0.05116
497.61136,0.04751
495.68263,0.04444
493.75391,0.04286
491.82518,0.04232
489.89645,0.04426
487.96773,0.04875
486.03900,0.05229
484.11027,0.05328
482.18155,0.05347
480.25282,0.05264
478.32410,0.04946
476.39537,0.04541
474.46664,0.04339
472.53792,0.04500
470.60919,0.04880
468.68046,0.05119
466.75174,0.05010
464.82301,0.04598
462.89429,0.04176
460.96556,0.04164
459.03683,0.04642
457.10811,0.05107
455.17938,0.05067
453.25066,0.04706
451.32193,0.04449
449.39320,0.04408
447.46448,0.04428
445.53575,0.04513
443.60702,0.04706
441.67830,0.04775
439.74957,0.04575
437.82085,0.04342
435.89212,0.04470
433.96339,0.05113
432.03467,0.05771
430.10594,0.05938
428.17721,0.05928
426.24849,0.06028
424.31976,0.06116
422.39104,0.06360
420.46231,0.06981
418.53358,0.07092
416.60486,0.05867
414.67613,0.04629
412.74741,0.04325
410.81868,0.04742
408.88995,0.05260
406.96123,0.05747
405.03250,0.06336
403.10377,0.06618
401.17505,0.06391
399.24632,0.05998
