4498.35751,0.00216
4497.39323,0.00216
4496.42895,0.00210
4495.46467,0.00201
4494.50040,0.00189
4493.53612,0.00184
4492.57184,0.00194
4491.60756,0.00203
4490.64328,0.00200
4489.67901,0.00195
4488.71473,0.00204
4487.75045,0.00217
4486.78617,0.00221
4485.82189,0.00213
4484.85761,0.00202
4483.89334,0.00197
4482.92906,0.00198
4481.96478,0.00198
4481.00050,0.00193
4480.03622,0.00191
4479.07195,0.00195
4478.10767,0.00203
4477.14339,0.00213
4476.17911,0.00219
4475.21483,0.00217
4474.25055,0.00214
4473.28628,0.00212
4472.32200,0.00208
4471.35772,0.00205
4470.39344,0.00200
4469.42916,0.00194
4468.46489,0.00197
4467.50061,0.00202
4466.53633,0.00198
4465.57205,0.00193
4464.60777,0.00196
4463.64350,0.00207
4462.67922,0.00215
4461.71494,0.00216
4460.75066,0.00212
4459.78638,0.00209
4458.82210,0.00209
4457.85783,0.00206
4456.89355,0.00197
4455.92927,0.00194
4454.96499,0.00203
4454.00071,0.00206
4453.03644,0.00198
4452.07216,0.00193
4451.10788,0.00199
4450.14360,0.00205
4449.17932,0.00209
4448.21505,0.00210
4447.25077,0.00204
4446.28649,0.00197
4445.32221,0.00194
4444.35793,0.00198
4443.39365,0.00207
4442.42938,0.00219
4441.46510,0.00223
4440.50082,0.00217
4439.53654,0.00214
4438.57226,0.00212
4437.60799,0.00209
4436.64371,0.00217
4435.67943,0.00230
4434.71515,0.00232
4433.75087,0.00224
4432.78660,0.00219
4431.82232,0.00217
4430.85804,0.00216
4429.89376,0.00211
4428.92948,0.00210
4427.96520,0.00214
4427.00093,0.00211
4426.03665,0.00206
4425.07237,0.00215
4424.10809,0.00233
4423.14381,0.00248
4422.17954,0.00251
4421.21526,0.00243
4420.25098,0.00234
4419.28670,0.00232
4418.32242,0.00232
4417.35814,0.00236
4416.39387,0.00245
4415.42959,0.00247
4414.46531,0.00241
4413.50103,0.00236
4412.53675,0.00238
4411.57248,0.00252
4410.60820,0.00265
4409.64392,0.00269
4408.67964,0.00265
4407.71536,0.00257
4406.75109,0.00250
4405.78681,0.00249
4404.82253,0.00255
4403.85825,0.00261
4402.89397,0.00262
4401.92969,0.00263
4400.96542,0.00259
4400.00114,0.00254
4399.03686,0.00262
4398.07258,0.00274
4397.10830,0.00272
4396.14403,0.00266
4395.17975,0.00266
4394.21547,0.00263
4393.25119,0.00258
4392.28691,0.00261
4391.32264,0.00264
4390.35836,0.00257
4389.39408,0.00246
4388.42980,0.00240
4387.46552,0.00245
4386.50124,0.00255
4385.53697,0.00265
4384.57269,0.00268
4383.60841,0.00266
4382.64413,0.00264
4381.67985,0.00267
4380.71558,0.00267
4379.75130,0.00263
4378.78702,0.00261
4377.82274,0.00264
4376.85846,0.00267
4375.89418,0.00269
4374.92991,0.00275
4373.96563,0.00284
4373.00135,0.00284
4372.03707,0.00277
4371.07279,0.00271
4370.10852,0.00273
4369.14424,0.00281
4368.17996,0.00280
4367.21568,0.00270
4366.25140,0.00265
4365.28713,0.00269
4364.32285,0.00273
4363.35857,0.00272
4362.39429,0.00273
4361.43001,0.00275
4360.46573,0.00279
4359.50146,0.00283
4358.53718,0.00285
4357.57290,0.00286
4356.60862,0.00290
4355.64434,0.00295
4354.68007,0.00301
4353.71579,0.00307
4352.75151,0.00312
4351.78723,0.00312
4350.82295,0.00307
4349.85868,0.00301
4348.89440,0.00306
4347.93012,0.00319
4346.96584,0.00329
4346.00156,0.00327
4345.03728,0.00317
4344.07301,0.00313
4343.10873,0.00318
4342.14445,0.00325
4341.18017,0.00327
4340.21589,0.00323
4339.25162,0.00322
4338.28734,0.00325
4337.32306,0.00324
4336.35878,0.00329
4335.39450,0.00342
4334.43023,0.00350
4333.46595,0.00353
4332.50167,0.00356
4331.53739,0.00354
4330.57311,0.00344
4329.60883,0.00329
4328.64456,0.00316
4327.68028,0.00309
4326.71600,0.00309
4325.75172,0.00318
4324.78744,0.00330
4323.82317,0.00333
4322.85889,0.00325
4321.89461,0.00306
4320.93033,0.00286
4319.96605,0.00280
4319.00177,0.00286
4318.03750,0.00290
4317.07322,0.00291
4316.10894,0.00296
4315.14466,0.00298
4314.18038,0.00293
4313.21611,0.00289
4312.25183,0.00285
4311.28755,0.00279
4310.32327,0.00280
4309.35899,0.00286
4308.39472,0.00284
4307.43044,0.00276
4306.46616,0.00282
4305.50188,0.00293
4304.53760,0.00294
4303.57332,0.00299
4302.60905,0.00306
4301.64477,0.00303
4300.68049,0.00299
4299.71621,0.00300
4298.75193,0.00293
4297.78766,0.00281
4296.82338,0.00275
4295.85910,0.00278
4294.89482,0.00284
4293.93054,0.00285
4292.96627,0.00282
4292.00199,0.00286
4291.03771,0.00295
4290.07343,0.00298
4289.10915,0.00293
4288.14487,0.00288
4287.18060,0.00288
4286.21632,0.00292
4285.25204,0.00298
4284.28776,0.00295
4283.32348,0.00276
4282.35921,0.00259
4281.39493,0.00262
4280.43065,0.00276
4279.46637,0.00288
4278.50209,0.00295
4277.53782,0.00295
4276.57354,0.00285
4275.60926,0.00275
4274.64498,0.00276
4273.68070,0.00278
4272.71642,0.00278
4271.75215,0.00288
4270.78787,0.00300
4269.82359,0.00301
4268.85931,0.00301
4267.89503,0.00302
4266.93076,0.00294
4265.96648,0.00284
4265.00220,0.00279
4264.03792,0.00281
4263.07364,0.00293
4262.10936,0.00300
4261.14509,0.00296
4260.18081,0.00289
4259.21653,0.00288
4258.25225,0.00289
4257.28797,0.00295
4256.32370,0.00305
4255.35942,0.00305
4254.39514,0.00295
4253.43086,0.00287
4252.46658,0.00283
4251.50231,0.00282
4250.53803,0.00284
4249.57375,0.00288
4248.60947,0.00290
4247.64519,0.00289
4246.68091,0.00289
4245.71664,0.00291
4244.75236,0.00295
4243.78808,0.00299
4242.82380,0.00299
4241.85952,0.00296
4240.89525,0.00295
4239.93097,0.00295
4238.96669,0.00287
4238.00241,0.00278
4237.03813,0.00281
4236.07386,0.00291
4235.10958,0.00299
4234.14530,0.00304
4233.18102,0.00306
4232.21674,0.00308
4231.25246,0.00315
4230.28819,0.00325
4229.32391,0.00322
4228.35963,0.00311
4227.39535,0.00306
4226.43107,0.00302
4225.46680,0.00291
4224.50252,0.00286
4223.53824,0.00291
4222.57396,0.00291
4221.60968,0.00294
4220.64540,0.00306
4219.68113,0.00307
4218.71685,0.00294
4217.75257,0.00286
4216.78829,0.00296
4215.82401,0.00312
4214.85974,0.00319
4213.89546,0.00312
4212.93118,0.00300
4211.96690,0.00299
4211.00262,0.00304
4210.03835,0.00302
4209.07407,0.00295
4208.10979,0.00291
4207.14551,0.00289
4206.18123,0.00289
4205.21695,0.00291
4204.25268,0.00293
4203.28840,0.00295
4202.32412,0.00297
4201.35984,0.00298
4200.39556,0.00297
4199.43129,0.00293
4198.46701,0.00287
4197.50273,0.00284
4196.53845,0.00284
4195.57417,0.00287
4194.60990,0.00294
4193.64562,0.00298
4192.68134,0.00294
4191.71706,0.00288
4190.75278,0.00288
4189.78850,0.00291
4188.82423,0.00291
4187.85995,0.00289
4186.89567,0.00286
4185.93139,0.00284
4184.96711,0.00283
4184.00284,0.00289
4183.03856,0.00299
4182.07428,0.00301
4181.11000,0.00297
4180.14572,0.00294
4179.18145,0.00288
4178.21717,0.00277
4177.25289,0.00270
4176.28861,0.00268
4175.32433,0.00268
4174.36005,0.00271
4173.39578,0.00277
4172.43150,0.00283
4171.46722,0.00288
4170.50294,0.00295
4169.53866,0.00295
4168.57439,0.00288
4167.61011,0.00283
4166.64583,0.00283
4165.68155,0.00282
4164.71727,0.00283
4163.75299,0.00283
4162.78872,0.00279
4161.82444,0.00276
4160.86016,0.00279
4159.89588,0.00280
4158.93160,0.00277
4157.96733,0.00273
4157.00305,0.00271
4156.03877,0.00268
4155.07449,0.00268
4154.11021,0.00273
4153.14594,0.00275
4152.18166,0.00271
4151.21738,0.00266
4150.25310,0.00268
4149.28882,0.00272
4148.32454,0.00276
4147.36027,0.00284
4146.39599,0.00289
4145.43171,0.00282
4144.46743,0.00273
4143.50315,0.00271
4142.53888,0.00275
4141.57460,0.00271
4140.61032,0.00262
4139.64604,0.00259
4138.68176,0.00260
4137.71749,0.00259
4136.75321,0.00256
4135.78893,0.00255
4134.82465,0.00260
4133.86037,0.00274
4132.89609,0.00285
4131.93182,0.00286
4130.96754,0.00279
4130.00326,0.00270
4129.03898,0.00264
4128.07470,0.00262
4127.11043,0.00260
4126.14615,0.00258
4125.18187,0.00262
4124.21759,0.00269
4123.25331,0.00272
4122.28903,0.00272
4121.32476,0.00273
4120.36048,0.00273
4119.39620,0.00273
4118.43192,0.00272
4117.46764,0.00273
4116.50337,0.00273
4115.53909,0.00268
4114.57481,0.00257
4113.61053,0.00248
4112.64625,0.00251
4111.68198,0.00266
4110.71770,0.00274
4109.75342,0.00273
4108.78914,0.00276
4107.82486,0.00285
4106.86058,0.00295
4105.89631,0.00293
4104.93203,0.00280
4103.96775,0.00266
4103.00347,0.00260
4102.03919,0.00263
4101.07492,0.00270
4100.11064,0.00272
4099.14636,0.00273
4098.18208,0.00277
4097.21780,0.00279
4096.25353,0.00273
4095.28925,0.00271
4094.32497,0.00276
4093.36069,0.00279
4092.39641,0.00280
4091.43213,0.00280
4090.46786,0.00281
4089.50358,0.00282
4088.53930,0.00283
4087.57502,0.00287
4086.61074,0.00294
4085.64647,0.00298
4084.68219,0.00295
4083.71791,0.00288
4082.75363,0.00289
4081.78935,0.00297
4080.82508,0.00304
4079.86080,0.00302
4078.89652,0.00293
4077.93224,0.00286
4076.96796,0.00286
4076.00368,0.00286
4075.03941,0.00286
4074.07513,0.00286
4073.11085,0.00284
4072.14657,0.00283
4071.18229,0.00281
4070.21802,0.00277
4069.25374,0.00274
4068.28946,0.00273
4067.32518,0.00272
4066.36090,0.00270
4065.39662,0.00267
4064.43235,0.00266
4063.46807,0.00268
4062.50379,0.00273
4061.53951,0.00274
4060.57523,0.00269
4059.61096,0.00262
4058.64668,0.00259
4057.68240,0.00261
4056.71812,0.00265
4055.75384,0.00270
4054.78957,0.00275
4053.82529,0.00281
4052.86101,0.00285
4051.89673,0.00281
4050.93245,0.00273
4049.96817,0.00269
4049.00390,0.00268
4048.03962,0.00266
4047.07534,0.00268
4046.11106,0.00277
4045.14678,0.00287
4044.18251,0.00285
4043.21823,0.00273
4042.25395,0.00267
4041.28967,0.00267
4040.32539,0.00264
4039.36112,0.00257
4038.39684,0.00255
4037.43256,0.00261
4036.46828,0.00273
4035.50400,0.00277
4034.53972,0.00269
4033.57545,0.00262
4032.61117,0.00261
4031.64689,0.00261
4030.68261,0.00264
4029.71833,0.00265
4028.75406,0.00260
4027.78978,0.00252
4026.82550,0.00254
4025.86122,0.00266
4024.89694,0.00268
4023.93267,0.00257
4022.96839,0.00253
4022.00411,0.00261
4021.03983,0.00267
4020.07555,0.00267
4019.11127,0.00262
4018.14700,0.00261
4017.18272,0.00266
4016.21844,0.00265
4015.25416,0.00256
4014.28988,0.00257
4013.32561,0.00266
4012.36133,0.00269
4011.39705,0.00266
4010.43277,0.00266
4009.46849,0.00273
4008.50421,0.00280
4007.53994,0.00280
4006.57566,0.00276
4005.61138,0.00265
4004.64710,0.00251
4003.68282,0.00244
4002.71855,0.00248
4001.75427,0.00254
4000.78999,0.00253
3999.82571,0.00251
3998.86143,0.00252
3997.89716,0.00257
3996.93288,0.00259
3995.96860,0.00252
3995.00432,0.00243
3994.04004,0.00243
3993.07576,0.00250
3992.11149,0.00255
3991.14721,0.00255
3990.18293,0.00254
3989.21865,0.00256
3988.25437,0.00261
3987.29010,0.00264
3986.32582,0.00261
3985.36154,0.00258
3984.39726,0.00259
3983.43298,0.00265
3982.46871,0.00266
3981.50443,0.00260
3980.54015,0.00250
3979.57587,0.00244
3978.61159,0.00243
3977.64731,0.00248
3976.68304,0.00253
3975.71876,0.00254
3974.75448,0.00249
3973.79020,0.00242
3972.82592,0.00240
3971.86165,0.00240
3970.89737,0.00236
3969.93309,0.00234
3968.96881,0.00238
3968.00453,0.00241
3967.04025,0.00239
3966.07598,0.00237
3965.11170,0.00241
3964.14742,0.00251
3963.18314,0.00262
3962.21886,0.00263
3961.25459,0.00256
3960.29031,0.00249
3959.32603,0.00248
3958.36175,0.00249
3957.39747,0.00250
3956.43320,0.00251
3955.46892,0.00248
3954.50464,0.00244
3953.54036,0.00244
3952.57608,0.00252
3951.61180,0.00260
3950.64753,0.00262
3949.68325,0.00258
3948.71897,0.00257
3947.75469,0.00256
3946.79041,0.00246
3945.82614,0.00232
3944.86186,0.00228
3943.89758,0.00235
3942.93330,0.00243
3941.96902,0.00242
3941.00475,0.00237
3940.04047,0.00237
3939.07619,0.00241
3938.11191,0.00245
3937.14763,0.00249
3936.18335,0.00253
3935.21908,0.00259
3934.25480,0.00265
3933.29052,0.00267
3932.32624,0.00264
3931.36196,0.00256
3930.39769,0.00252
3929.43341,0.00249
3928.46913,0.00247
3927.50485,0.00245
3926.54057,0.00245
3925.57630,0.00248
3924.61202,0.00250
3923.64774,0.00250
3922.68346,0.00248
3921.71918,0.00245
3920.75490,0.00245
3919.79063,0.00251
3918.82635,0.00264
3917.86207,0.00275
3916.89779,0.00275
3915.93351,0.00265
3914.96924,0.00253
3914.00496,0.00250
3913.04068,0.00253
3912.07640,0.00259
3911.11212,0.00262
3910.14784,0.00260
3909.18357,0.00254
3908.21929,0.00249
3907.25501,0.00247
3906.29073,0.00248
3905.32645,0.00249
3904.36218,0.00252
3903.39790,0.00261
3902.43362,0.00274
3901.46934,0.00286
3900.50506,0.00289
3899.54079,0.00281
3898.57651,0.00269
3897.61223,0.00258
3896.64795,0.00251
3895.68367,0.00248
3894.71939,0.00246
3893.75512,0.00247
3892.79084,0.00252
3891.82656,0.00258
3890.86228,0.00261
3889.89800,0.00261
3888.93373,0.00261
3887.96945,0.00263
3887.00517,0.00266
3886.04089,0.00266
3885.07661,0.00265
3884.11234,0.00265
3883.14806,0.00270
3882.18378,0.00278
3881.21950,0.00284
3880.25522,0.00285
3879.29094,0.00279
3878.32667,0.00273
3877.36239,0.00269
3876.39811,0.00267
3875.43383,0.00266
3874.46955,0.00267
3873.50528,0.00270
3872.54100,0.00274
3871.57672,0.00277
3870.61244,0.00277
3869.64816,0.00277
3868.68389,0.00279
3867.71961,0.00284
3866.75533,0.00288
3865.79105,0.00289
3864.82677,0.00287
3863.86249,0.00286
3862.89822,0.00287
3861.93394,0.00287
3860.96966,0.00283
3860.00538,0.00279
3859.04110,0.00279
3858.07683,0.00285
3857.11255,0.00293
3856.14827,0.00297
3855.18399,0.00292
3854.21971,0.00279
3853.25543,0.00267
3852.29116,0.00266
3851.32688,0.00270
3850.36260,0.00271
3849.39832,0.00268
3848.43404,0.00265
3847.46977,0.00268
3846.50549,0.00276
3845.54121,0.00284
3844.57693,0.00287
3843.61265,0.00283
3842.64838,0.00277
3841.68410,0.00277
3840.71982,0.00283
3839.75554,0.00286
3838.79126,0.00283
3837.82698,0.00274
3836.86271,0.00271
3835.89843,0.00271
3834.93415,0.00272
3833.96987,0.00273
3833.00559,0.00275
3832.04132,0.00276
3831.07704,0.00274
3830.11276,0.00272
3829.14848,0.00270
3828.18420,0.00266
3827.21993,0.00262
3826.25565,0.00262
3825.29137,0.00267
3824.32709,0.00277
3823.36281,0.00286
3822.39853,0.00289
3821.43426,0.00285
3820.46998,0.00278
3819.50570,0.00274
3818.54142,0.00276
3817.57714,0.00278
3816.61287,0.00273
3815.64859,0.00264
3814.68431,0.00256
3813.72003,0.00252
3812.75575,0.00252
3811.79147,0.00251
3810.82720,0.00252
3809.86292,0.00256
3808.89864,0.00261
3807.93436,0.00263
3806.97008,0.00263
3806.00581,0.00265
3805.04153,0.00269
3804.07725,0.00276
3803.11297,0.00279
3802.14869,0.00272
3801.18442,0.00259
3800.22014,0.00249
3799.25586,0.00251
3798.29158,0.00263
3797.32730,0.00276
3796.36302,0.00279
3795.39875,0.00269
3794.43447,0.00254
3793.47019,0.00243
3792.50591,0.00238
3791.54163,0.00239
3790.57736,0.00240
3789.61308,0.00241
3788.64880,0.00243
3787.68452,0.00246
3786.72024,0.00248
3785.75597,0.00250
3784.79169,0.00252
3783.82741,0.00253
3782.86313,0.00254
3781.89885,0.00254
3780.93457,0.00254
3779.97030,0.00254
3779.00602,0.00255
3778.04174,0.00256
3777.07746,0.00257
3776.11318,0.00256
3775.14891,0.00252
3774.18463,0.00248
3773.22035,0.00247
3772.25607,0.00246
3771.29179,0.00243
3770.32752,0.00238
3769.36324,0.00240
3768.39896,0.00252
3767.43468,0.00270
3766.47040,0.00282
3765.50612,0.00282
3764.54185,0.00274
3763.57757,0.00267
3762.61329,0.00266
3761.64901,0.00271
3760.68473,0.00278
3759.72046,0.00285
3758.75618,0.00288
3757.79190,0.00287
3756.82762,0.00283
3755.86334,0.00280
3754.89906,0.00283
3753.93479,0.00292
3752.97051,0.00302
3752.00623,0.00307
3751.04195,0.00306
3750.07767,0.00299
3749.11340,0.00294
3748.14912,0.00298
3747.18484,0.00308
3746.22056,0.00316
3745.25628,0.00315
3744.29201,0.00311
3743.32773,0.00311
3742.36345,0.00312
3741.39917,0.00309
3740.43489,0.00305
3739.47061,0.00300
3738.50634,0.00297
3737.54206,0.00294
3736.57778,0.00296
3735.61350,0.00304
3734.64922,0.00312
3733.68495,0.00312
3732.72067,0.00302
3731.75639,0.00285
3730.79211,0.00270
3729.82783,0.00262
3728.86356,0.00261
3727.89928,0.00264
3726.93500,0.00264
3725.97072,0.00262
3725.00644,0.00259
3724.04216,0.00256
3723.07789,0.00254
3722.11361,0.00256
3721.14933,0.00258
3720.18505,0.00258
3719.22077,0.00252
3718.25650,0.00243
3717.29222,0.00238
3716.32794,0.00242
3715.36366,0.00252
3714.39938,0.00258
3713.43510,0.00256
3712.47083,0.00246
3711.50655,0.00237
3710.54227,0.00234
3709.57799,0.00237
3708.61371,0.00239
3707.64944,0.00241
3706.68516,0.00242
3705.72088,0.00243
3704.75660,0.00246
3703.79232,0.00250
3702.82805,0.00252
3701.86377,0.00249
3700.89949,0.00242
3699.93521,0.00237
3698.97093,0.00238
3698.00665,0.00242
3697.04238,0.00248
3696.07810,0.00254
3695.11382,0.00261
3694.14954,0.00267
3693.18526,0.00270
3692.22099,0.00268
3691.25671,0.00263
3690.29243,0.00260
3689.32815,0.00258
3688.36387,0.00258
3687.39960,0.00260
3686.43532,0.00266
3685.47104,0.00272
3684.50676,0.00276
3683.54248,0.00278
3682.57820,0.00279
3681.61393,0.00282
3680.64965,0.00287
3679.68537,0.00293
3678.72109,0.00296
3677.75681,0.00294
3676.79254,0.00285
3675.82826,0.00273
3674.86398,0.00262
3673.89970,0.00257
3672.93542,0.00257
3671.97115,0.00261
3671.00687,0.00264
3670.04259,0.00267
3669.07831,0.00269
3668.11403,0.00268
3667.14975,0.00265
3666.18548,0.00263
3665.22120,0.00265
3664.25692,0.00266
3663.29264,0.00264
3662.32836,0.00259
3661.36409,0.00256
3660.39981,0.00258
3659.43553,0.00266
3658.47125,0.00276
3657.50697,0.00284
3656.54269,0.00286
3655.57842,0.00281
3654.61414,0.00273
3653.64986,0.00266
3652.68558,0.00264
3651.72130,0.00268
3650.75703,0.00274
3649.79275,0.00279
3648.82847,0.00285
3647.86419,0.00289
3646.89991,0.00285
3645.93564,0.00276
3644.97136,0.00267
3644.00708,0.00263
3643.04280,0.00264
3642.07852,0.00267
3641.11424,0.00269
3640.14997,0.00268
3639.18569,0.00264
3638.22141,0.00259
3637.25713,0.00257
3636.29285,0.00258
3635.32858,0.00260
3634.36430,0.00261
3633.40002,0.00263
3632.43574,0.00270
3631.47146,0.00282
3630.50719,0.00293
3629.54291,0.00299
3628.57863,0.00298
3627.61435,0.00295
3626.65007,0.00290
3625.68579,0.00285
3624.72152,0.00279
3623.75724,0.00275
3622.79296,0.00274
3621.82868,0.00276
3620.86440,0.00279
3619.90013,0.00278
3618.93585,0.00276
3617.97157,0.00280
3617.00729,0.00288
3616.04301,0.00297
3615.07874,0.00300
3614.11446,0.00295
3613.15018,0.00287
3612.18590,0.00282
3611.22162,0.00284
3610.25734,0.00289
3609.29307,0.00292
3608.32879,0.00294
3607.36451,0.00297
3606.40023,0.00298
3605.43595,0.00295
3604.47168,0.00289
3603.50740,0.00283
3602.54312,0.00279
3601.57884,0.00279
3600.61456,0.00280
3599.65028,0.00281
3598.68601,0.00282
3597.72173,0.00282
3596.75745,0.00280
3595.79317,0.00279
3594.82889,0.00282
3593.86462,0.00288
3592.90034,0.00294
3591.93606,0.00296
3590.97178,0.00294
3590.00750,0.00291
3589.04323,0.00293
3588.07895,0.00297
3587.11467,0.00297
3586.15039,0.00291
3585.18611,0.00283
3584.22183,0.00280
3583.25756,0.00285
3582.29328,0.00294
3581.32900,0.00304
3580.36472,0.00310
3579.40044,0.00309
3578.43617,0.00306
3577.47189,0.00302
3576.50761,0.00298
3575.54333,0.00292
3574.57905,0.00290
3573.61478,0.00292
3572.65050,0.00298
3571.68622,0.00304
3570.72194,0.00310
3569.75766,0.00320
3568.79338,0.00333
3567.82911,0.00345
3566.86483,0.00346
3565.90055,0.00333
3564.93627,0.00316
3563.97199,0.00302
3563.00772,0.00295
3562.04344,0.00295
3561.07916,0.00301
3560.11488,0.00310
3559.15060,0.00317
3558.18632,0.00321
3557.22205,0.00323
3556.25777,0.00325
3555.29349,0.00328
3554.32921,0.00329
3553.36493,0.00329
3552.40066,0.00329
3551.43638,0.00328
3550.47210,0.00330
3549.50782,0.00339
3548.54354,0.00354
3547.57927,0.00367
3546.61499,0.00371
3545.65071,0.00362
3544.68643,0.00343
3543.72215,0.00328
3542.75787,0.00324
3541.79360,0.00329
3540.82932,0.00336
3539.86504,0.00343
3538.90076,0.00346
3537.93648,0.00343
3536.97221,0.00335
3536.00793,0.00324
3535.04365,0.00321
3534.07937,0.00327
3533.11509,0.00336
3532.15082,0.00341
3531.18654,0.00339
3530.22226,0.00335
3529.25798,0.00331
3528.29370,0.00327
3527.32942,0.00326
3526.36515,0.00333
3525.40087,0.00346
3524.43659,0.00355
3523.47231,0.00349
3522.50803,0.00332
3521.54376,0.00317
3520.57948,0.00309
3519.61520,0.00311
3518.65092,0.00321
3517.68664,0.00335
3516.72237,0.00347
3515.75809,0.00356
3514.79381,0.00362
3513.82953,0.00368
3512.86525,0.00368
3511.90097,0.00365
3510.93670,0.00363
3509.97242,0.00361
3509.00814,0.00355
3508.04386,0.00345
3507.07958,0.00339
3506.11531,0.00339
3505.15103,0.00341
3504.18675,0.00344
3503.22247,0.00343
3502.25819,0.00339
3501.29391,0.00339
3500.32964,0.00343
3499.36536,0.00349
3498.40108,0.00350
3497.43680,0.00350
3496.47252,0.00353
3495.50825,0.00357
3494.54397,0.00355
3493.57969,0.00350
3492.61541,0.00348
3491.65113,0.00351
3490.68686,0.00358
3489.72258,0.00367
3488.75830,0.00370
3487.79402,0.00367
3486.82974,0.00363
3485.86546,0.00367
3484.90119,0.00376
3483.93691,0.00381
3482.97263,0.00384
3482.00835,0.00383
3481.04407,0.00375
3480.07980,0.00366
3479.11552,0.00362
3478.15124,0.00361
3477.18696,0.00364
3476.22268,0.00368
3475.25841,0.00369
3474.29413,0.00366
3473.32985,0.00365
3472.36557,0.00368
3471.40129,0.00371
3470.43701,0.00374
3469.47274,0.00376
3468.50846,0.00379
3467.54418,0.00382
3466.57990,0.00383
3465.61562,0.00388
3464.65135,0.00401
3463.68707,0.00415
3462.72279,0.00423
3461.75851,0.00420
3460.79423,0.00413
3459.82995,0.00405
3458.86568,0.00400
3457.90140,0.00395
3456.93712,0.00389
3455.97284,0.00387
3455.00856,0.00392
3454.04429,0.00398
3453.08001,0.00404
3452.11573,0.00410
3451.15145,0.00415
3450.18717,0.00415
3449.22290,0.00415
3448.25862,0.00419
3447.29434,0.00421
3446.33006,0.00415
3445.36578,0.00411
3444.40150,0.00417
3443.43723,0.00428
3442.47295,0.00434
3441.50867,0.00434
3440.54439,0.00434
3439.58011,0.00436
3438.61584,0.00438
3437.65156,0.00437
3436.68728,0.00433
3435.72300,0.00429
3434.75872,0.00429
3433.79445,0.00434
3432.83017,0.00436
3431.86589,0.00435
3430.90161,0.00435
3429.93733,0.00440
3428.97305,0.00445
3428.00878,0.00449
3427.04450,0.00452
3426.08022,0.00455
3425.11594,0.00459
3424.15166,0.00462
3423.18739,0.00460
3422.22311,0.00457
3421.25883,0.00455
3420.29455,0.00454
3419.33027,0.00454
3418.36600,0.00458
3417.40172,0.00464
3416.43744,0.00465
3415.47316,0.00455
3414.50888,0.00436
3413.54460,0.00418
3412.58033,0.00412
3411.61605,0.00420
3410.65177,0.00430
3409.68749,0.00436
3408.72321,0.00435
3407.75894,0.00428
3406.79466,0.00417
3405.83038,0.00410
3404.86610,0.00413
3403.90182,0.00418
3402.93754,0.00414
3401.97327,0.00406
3401.00899,0.00401
3400.04471,0.00398
3399.08043,0.00402
3398.11615,0.00409
3397.15188,0.00413
3396.18760,0.00409
3395.22332,0.00403
3394.25904,0.00401
3393.29476,0.00401
3392.33049,0.00397
3391.36621,0.00386
3390.40193,0.00377
3389.43765,0.00378
3388.47337,0.00383
3387.50909,0.00382
3386.54482,0.00375
3385.58054,0.00370
3384.61626,0.00371
3383.65198,0.00372
3382.68770,0.00372
3381.72343,0.00373
3380.75915,0.00374
3379.79487,0.00371
3378.83059,0.00362
3377.86631,0.00353
3376.90204,0.00350
3375.93776,0.00354
3374.97348,0.00361
3374.00920,0.00367
3373.04492,0.00372
3372.08064,0.00375
3371.11637,0.00371
3370.15209,0.00361
3369.18781,0.00356
3368.22353,0.00357
3367.25925,0.00359
3366.29498,0.00357
3365.33070,0.00355
3364.36642,0.00351
3363.40214,0.00345
3362.43786,0.00342
3361.47359,0.00344
3360.50931,0.00347
3359.54503,0.00352
3358.58075,0.00359
3357.61647,0.00368
3356.65219,0.00378
3355.68792,0.00388
3354.72364,0.00391
3353.75936,0.00386
3352.79508,0.00372
3351.83080,0.00362
3350.86653,0.00363
3349.90225,0.00369
3348.93797,0.00370
3347.97369,0.00366
3347.00941,0.00356
3346.04513,0.00344
3345.08086,0.00345
3344.11658,0.00359
3343.15230,0.00372
3342.18802,0.00372
3341.22374,0.00363
3340.25947,0.00356
3339.29519,0.00358
3338.33091,0.00367
3337.36663,0.00375
3336.40235,0.00375
3335.43808,0.00370
3334.47380,0.00366
3333.50952,0.00368
3332.54524,0.00370
3331.58096,0.00368
3330.61668,0.00364
3329.65241,0.00363
3328.68813,0.00363
3327.72385,0.00361
3326.75957,0.00359
3325.79529,0.00361
3324.83102,0.00369
3323.86674,0.00374
3322.90246,0.00371
3321.93818,0.00367
3320.97390,0.00363
3320.00963,0.00359
3319.04535,0.00357
3318.08107,0.00362
3317.11679,0.00367
3316.15251,0.00366
3315.18823,0.00363
3314.22396,0.00364
3313.25968,0.00366
3312.29540,0.00368
3311.33112,0.00375
3310.36684,0.00386
3309.40257,0.00392
3308.43829,0.00391
3307.47401,0.00390
3306.50973,0.00392
3305.54545,0.00396
3304.58117,0.00401
3303.61690,0.00405
3302.65262,0.00406
3301.68834,0.00405
3300.72406,0.00404
3299.75978,0.00406
3298.79551,0.00407
3297.83123,0.00402
3296.86695,0.00395
3295.90267,0.00396
3294.93839,0.00403
3293.97412,0.00408
3293.00984,0.00409
3292.04556,0.00409
3291.08128,0.00407
3290.11700,0.00401
3289.15272,0.00393
3288.18845,0.00385
3287.22417,0.00375
3286.25989,0.00368
3285.29561,0.00371
3284.33133,0.00381
3283.36706,0.00390
3282.40278,0.00388
3281.43850,0.00377
3280.47422,0.00366
3279.50994,0.00358
3278.54567,0.00357
3277.58139,0.00360
3276.61711,0.00358
3275.65283,0.00351
3274.68855,0.00348
3273.72427,0.00350
3272.76000,0.00345
3271.79572,0.00336
3270.83144,0.00337
3269.86716,0.00347
3268.90288,0.00354
3267.93861,0.00352
3266.97433,0.00345
3266.01005,0.00335
3265.04577,0.00323
3264.08149,0.00318
3263.11722,0.00325
3262.15294,0.00332
3261.18866,0.00332
3260.22438,0.00327
3259.26010,0.00322
3258.29582,0.00318
3257.33155,0.00314
3256.36727,0.00310
3255.40299,0.00310
3254.43871,0.00312
3253.47443,0.00316
3252.51016,0.00319
3251.54588,0.00320
3250.58160,0.00320
3249.61732,0.00324
3248.65304,0.00328
3247.68876,0.00319
3246.72449,0.00306
3245.76021,0.00303
3244.79593,0.00309
3243.83165,0.00313
3242.86737,0.00313
3241.90310,0.00316
3240.93882,0.00324
3239.97454,0.00325
3239.01026,0.00315
3238.04598,0.00302
3237.08171,0.00298
3236.11743,0.00306
3235.15315,0.00313
3234.18887,0.00308
3233.22459,0.00300
3232.26031,0.00300
3231.29604,0.00304
3230.33176,0.00304
3229.36748,0.00301
3228.40320,0.00304
3227.43892,0.00316
3226.47465,0.00326
3225.51037,0.00323
3224.54609,0.00316
3223.58181,0.00312
3222.61753,0.00311
3221.65326,0.00311
3220.68898,0.00315
3219.72470,0.00321
3218.76042,0.00324
3217.79614,0.00321
3216.83186,0.00317
3215.86759,0.00315
3214.90331,0.00314
3213.93903,0.00307
3212.97475,0.00300
3212.01047,0.00302
3211.04620,0.00309
3210.08192,0.00312
3209.11764,0.00311
3208.15336,0.00311
3207.18908,0.00312
3206.22480,0.00310
3205.26053,0.00309
3204.29625,0.00311
3203.33197,0.00314
3202.36769,0.00312
3201.40341,0.00306
3200.43914,0.00301
3199.47486,0.00301
3198.51058,0.00307
3197.54630,0.00314
3196.58202,0.00316
3195.61775,0.00310
3194.65347,0.00301
3193.68919,0.00296
3192.72491,0.00300
3191.76063,0.00307
3190.79635,0.00311
3189.83208,0.00310
3188.86780,0.00311
3187.90352,0.00311
3186.93924,0.00309
3185.97496,0.00309
3185.01069,0.00313
3184.04641,0.00315
3183.08213,0.00313
3182.11785,0.00310
3181.15357,0.00306
3180.18930,0.00304
3179.22502,0.00308
3178.26074,0.00311
3177.29646,0.00305
3176.33218,0.00295
3175.36790,0.00288
3174.40363,0.00287
3173.43935,0.00294
3172.47507,0.00302
3171.51079,0.00307
3170.54651,0.00308
3169.58224,0.00311
3168.61796,0.00314
3167.65368,0.00312
3166.68940,0.00306
3165.72512,0.00300
3164.76085,0.00294
3163.79657,0.00290
3162.83229,0.00291
3161.86801,0.00294
3160.90373,0.00299
3159.93945,0.00304
3158.97518,0.00308
3158.01090,0.00305
3157.04662,0.00298
3156.08234,0.00292
3155.11806,0.00286
3154.15379,0.00282
3153.18951,0.00283
3152.22523,0.00288
3151.26095,0.00293
3150.29667,0.00298
3149.33239,0.00300
3148.36812,0.00300
3147.40384,0.00302
3146.43956,0.00309
3145.47528,0.00319
3144.51100,0.00324
3143.54673,0.00318
3142.58245,0.00308
3141.61817,0.00303
3140.65389,0.00305
3139.68961,0.00313
3138.72534,0.00322
3137.76106,0.00323
3136.79678,0.00316
3135.83250,0.00304
3134.86822,0.00291
3133.90394,0.00290
3132.93967,0.00299
3131.97539,0.00308
3131.01111,0.00312
3130.04683,0.00311
3129.08255,0.00308
3128.11828,0.00307
3127.15400,0.00307
3126.18972,0.00305
3125.22544,0.00306
3124.26116,0.00310
3123.29689,0.00314
3122.33261,0.00314
3121.36833,0.00310
3120.40405,0.00305
3119.43977,0.00301
3118.47549,0.00303
3117.51122,0.00304
3116.54694,0.00301
3115.58266,0.00301
3114.61838,0.00306
3113.65410,0.00316
3112.68983,0.00327
3111.72555,0.00335
3110.76127,0.00336
3109.79699,0.00333
3108.83271,0.00331
3107.86844,0.00331
3106.90416,0.00327
3105.93988,0.00322
3104.97560,0.00323
3104.01132,0.00328
3103.04704,0.00334
3102.08277,0.00339
3101.11849,0.00343
3100.15421,0.00342
3099.18993,0.00339
3098.22565,0.00342
3097.26138,0.00350
3096.29710,0.00353
3095.33282,0.00346
3094.36854,0.00340
3093.40426,0.00340
3092.43998,0.00343
3091.47571,0.00347
3090.51143,0.00349
3089.54715,0.00348
3088.58287,0.00351
3087.61859,0.00355
3086.65432,0.00354
3085.69004,0.00351
3084.72576,0.00354
3083.76148,0.00361
3082.79720,0.00364
3081.83293,0.00364
3080.86865,0.00367
3079.90437,0.00370
3078.94009,0.00369
3077.97581,0.00366
3077.01153,0.00364
3076.04726,0.00363
3075.08298,0.00364
3074.11870,0.00369
3073.15442,0.00374
3072.19014,0.00372
3071.22587,0.00366
3070.26159,0.00366
3069.29731,0.00376
3068.33303,0.00390
3067.36875,0.00395
3066.40448,0.00394
3065.44020,0.00394
3064.47592,0.00397
3063.51164,0.00401
3062.54736,0.00407
3061.58308,0.00410
3060.61881,0.00405
3059.65453,0.00401
3058.69025,0.00404
3057.72597,0.00408
3056.76169,0.00412
3055.79742,0.00418
3054.83314,0.00423
3053.86886,0.00425
3052.90458,0.00421
3051.94030,0.00414
3050.97602,0.00406
3050.01175,0.00402
3049.04747,0.00399
3048.08319,0.00393
3047.11891,0.00387
3046.15463,0.00387
3045.19036,0.00390
3044.22608,0.00392
3043.26180,0.00390
3042.29752,0.00386
3041.33324,0.00383
3040.36897,0.00385
3039.40469,0.00392
3038.44041,0.00401
3037.47613,0.00406
3036.51185,0.00409
3035.54757,0.00413
3034.58330,0.00417
3033.61902,0.00415
3032.65474,0.00415
3031.69046,0.00419
3030.72618,0.00424
3029.76191,0.00428
3028.79763,0.00431
3027.83335,0.00433
3026.86907,0.00434
3025.90479,0.00434
3024.94052,0.00434
3023.97624,0.00437
3023.01196,0.00446
3022.04768,0.00459
3021.08340,0.00465
3020.11912,0.00466
3019.15485,0.00470
3018.19057,0.00478
3017.22629,0.00488
3016.26201,0.00497
3015.29773,0.00503
3014.33346,0.00508
3013.36918,0.00515
3012.40490,0.00525
3011.44062,0.00536
3010.47634,0.00548
3009.51207,0.00559
3008.54779,0.00566
3007.58351,0.00576
3006.61923,0.00593
3005.65495,0.00612
3004.69067,0.00630
3003.72640,0.00649
3002.76212,0.00670
3001.79784,0.00692
3000.83356,0.00715
2999.86928,0.00732
2998.90501,0.00748
2997.94073,0.00765
2996.97645,0.00798
2996.01217,0.00842
2995.04789,0.00883
2994.08361,0.00919
2993.11934,0.00956
2992.15506,0.01003
2991.19078,0.01057
2990.22650,0.01112
2989.26222,0.01171
2988.29795,0.01238
2987.33367,0.01314
2986.36939,0.01396
2985.40511,0.01483
2984.44083,0.01575
2983.47656,0.01679
2982.51228,0.01794
2981.54800,0.01913
2980.58372,0.02042
2979.61944,0.02186
2978.65516,0.02343
2977.69089,0.02506
2976.72661,0.02672
2975.76233,0.02844
2974.79805,0.03027
2973.83377,0.03219
2972.86950,0.03419
2971.90522,0.03627
2970.94094,0.03846
2969.97666,0.04076
2969.01238,0.04310
2968.04811,0.04542
2967.08383,0.04767
2966.11955,0.04980
2965.15527,0.05178
2964.19099,0.05361
2963.22671,0.05526
2962.26244,0.05661
2961.29816,0.05757
2960.33388,0.05813
2959.36960,0.05832
2958.40532,0.05819
2957.44105,0.05769
2956.47677,0.05681
2955.51249,0.05558
2954.54821,0.05406
2953.58393,0.05236
2952.61966,0.05056
2951.65538,0.04871
2950.69110,0.04697
2949.72682,0.04544
2948.76254,0.04415
2947.79826,0.04317
2946.83399,0.04260
2945.86971,0.04242
2944.90543,0.04262
2943.94115,0.04320
2942.97687,0.04408
2942.01260,0.04522
2941.04832,0.04657
2940.08404,0.04811
2939.11976,0.04983
2938.15548,0.05172
2937.19120,0.05367
2936.22693,0.05551
2935.26265,0.05724
2934.29837,0.05894
2933.33409,0.06048
2932.36981,0.06174
2931.40554,0.06277
2930.44126,0.06362
2929.47698,0.06409
2928.51270,0.06415
2927.54842,0.06398
2926.58415,0.06370
2925.61987,0.06323
2924.65559,0.06259
2923.69131,0.06187
2922.72703,0.06116
2921.76275,0.06050
2920.79848,0.05987
2919.83420,0.05927
2918.86992,0.05870
2917.90564,0.05811
2916.94136,0.05745
2915.97709,0.05664
2915.01281,0.05565
2914.04853,0.05453
2913.08425,0.05339
2912.11997,0.05227
2911.15570,0.05115
2910.19142,0.05005
2909.22714,0.04894
2908.26286,0.04778
2907.29858,0.04658
2906.33430,0.04532
2905.37003,0.04400
2904.40575,0.04268
2903.44147,0.04134
2902.47719,0.03996
2901.51291,0.03856
2900.54864,0.03718
2899.58436,0.03586
2898.62008,0.03463
2897.65580,0.03350
2896.69152,0.03235
2895.72724,0.03123
2894.76297,0.03021
2893.79869,0.02925
2892.83441,0.02828
2891.87013,0.02736
2890.90585,0.02657
2889.94158,0.02594
2888.97730,0.02541
2888.01302,0.02497
2887.04874,0.02464
2886.08446,0.02450
2885.12019,0.02456
2884.15591,0.02477
2883.19163,0.02513
2882.22735,0.02572
2881.26307,0.02658
2880.29879,0.02762
2879.33452,0.02880
2878.37024,0.03006
2877.40596,0.03138
2876.44168,0.03262
2875.47740,0.03365
2874.51313,0.03442
2873.54885,0.03488
2872.58457,0.03498
2871.62029,0.03478
2870.65601,0.03437
2869.69174,0.03384
2868.72746,0.03335
2867.76318,0.03300
2866.79890,0.03289
2865.83462,0.03313
2864.87034,0.03373
2863.90607,0.03458
2862.94179,0.03550
2861.97751,0.03636
2861.01323,0.03703
2860.04895,0.03743
2859.08468,0.03749
2858.12040,0.03713
2857.15612,0.03633
2856.19184,0.03520
2855.22756,0.03393
2854.26329,0.03259
2853.29901,0.03117
2852.33473,0.02976
2851.37045,0.02843
2850.40617,0.02709
2849.44189,0.02567
2848.47762,0.02418
2847.51334,0.02260
2846.54906,0.02095
2845.58478,0.01935
2844.62050,0.01789
2843.65623,0.01662
2842.69195,0.01563
2841.72767,0.01487
2840.76339,0.01417
2839.79911,0.01340
2838.83483,0.01263
2837.87056,0.01201
2836.90628,0.01153
2835.94200,0.01111
2834.97772,0.01072
2834.01344,0.01038
2833.04917,0.01006
2832.08489,0.00978
2831.12061,0.00955
2830.15633,0.00934
2829.19205,0.00911
2828.22778,0.00888
2827.26350,0.00871
2826.29922,0.00862
2825.33494,0.00855
2824.37066,0.00845
2823.40638,0.00839
2822.44211,0.00837
2821.47783,0.00834
2820.51355,0.00831
2819.54927,0.00829
2818.58499,0.00828
2817.62072,0.00826
2816.65644,0.00819
2815.69216,0.00807
2814.72788,0.00792
2813.76360,0.00774
2812.79933,0.00754
2811.83505,0.00732
2810.87077,0.00709
2809.90649,0.00682
2808.94221,0.00656
2807.97793,0.00643
2807.01366,0.00641
2806.04938,0.00636
2805.08510,0.00623
2804.12082,0.00611
2803.15654,0.00603
2802.19227,0.00591
2801.22799,0.00573
2800.26371,0.00556
2799.29943,0.00546
2798.33515,0.00542
2797.37087,0.00537
2796.40660,0.00531
2795.44232,0.00525
2794.47804,0.00522
2793.51376,0.00518
2792.54948,0.00511
2791.58521,0.00507
2790.62093,0.00508
2789.65665,0.00505
2788.69237,0.00492
2787.72809,0.00478
2786.76382,0.00471
2785.79954,0.00470
2784.83526,0.00469
2783.87098,0.00465
2782.90670,0.00463
2781.94242,0.00465
2780.97815,0.00467
2780.01387,0.00466
2779.04959,0.00463
2778.08531,0.00460
2777.12103,0.00455
2776.15676,0.00447
2775.19248,0.00440
2774.22820,0.00439
2773.26392,0.00441
2772.29964,0.00442
2771.33537,0.00441
2770.37109,0.00442
2769.40681,0.00443
2768.44253,0.00440
2767.47825,0.00436
2766.51397,0.00438
2765.54970,0.00441
2764.58542,0.00440
2763.62114,0.00434
2762.65686,0.00429
2761.69258,0.00425
2760.72831,0.00425
2759.76403,0.00429
2758.79975,0.00432
2757.83547,0.00431
2756.87119,0.00432
2755.90692,0.00434
2754.94264,0.00434
2753.97836,0.00430
2753.01408,0.00429
2752.04980,0.00432
2751.08552,0.00433
2750.12125,0.00429
2749.15697,0.00428
2748.19269,0.00433
2747.22841,0.00435
2746.26413,0.00434
2745.29986,0.00440
2744.33558,0.00452
2743.37130,0.00456
2742.40702,0.00454
2741.44274,0.00452
2740.47846,0.00455
2739.51419,0.00459
2738.54991,0.00461
2737.58563,0.00461
2736.62135,0.00456
2735.65707,0.00447
2734.69280,0.00443
2733.72852,0.00445
2732.76424,0.00450
2731.79996,0.00456
2730.83568,0.00461
2729.87141,0.00458
2728.90713,0.00453
2727.94285,0.00447
2726.97857,0.00440
2726.01429,0.00431
2725.05001,0.00425
2724.08574,0.00421
2723.12146,0.00417
2722.15718,0.00412
2721.19290,0.00409
2720.22862,0.00406
2719.26435,0.00403
2718.30007,0.00402
2717.33579,0.00401
2716.37151,0.00399
2715.40723,0.00401
2714.44296,0.00402
2713.47868,0.00399
2712.51440,0.00395
2711.55012,0.00396
2710.58584,0.00397
2709.62156,0.00394
2708.65729,0.00393
2707.69301,0.00392
2706.72873,0.00390
2705.76445,0.00388
2704.80017,0.00385
2703.83590,0.00384
2702.87162,0.00384
2701.90734,0.00385
2700.94306,0.00381
2699.97878,0.00377
2699.01451,0.00376
2698.05023,0.00377
2697.08595,0.00378
2696.12167,0.00376
2695.15739,0.00375
2694.19311,0.00378
2693.22884,0.00380
2692.26456,0.00379
2691.30028,0.00377
2690.33600,0.00377
2689.37172,0.00377
2688.40745,0.00377
2687.44317,0.00379
2686.47889,0.00382
2685.51461,0.00382
2684.55033,0.00380
2683.58605,0.00382
2682.62178,0.00383
2681.65750,0.00379
2680.69322,0.00374
2679.72894,0.00375
2678.76466,0.00378
2677.80039,0.00380
2676.83611,0.00384
2675.87183,0.00390
2674.90755,0.00390
2673.94327,0.00385
2672.97900,0.00381
2672.01472,0.00382
2671.05044,0.00383
2670.08616,0.00378
2669.12188,0.00373
2668.15760,0.00373
2667.19333,0.00376
2666.22905,0.00382
2665.26477,0.00386
2664.30049,0.00385
2663.33621,0.00383
2662.37194,0.00383
2661.40766,0.00385
2660.44338,0.00387
2659.47910,0.00388
2658.51482,0.00384
2657.55055,0.00378
2656.58627,0.00378
2655.62199,0.00382
2654.65771,0.00382
2653.69343,0.00378
2652.72915,0.00376
2651.76488,0.00376
2650.80060,0.00375
2649.83632,0.00373
2648.87204,0.00372
2647.90776,0.00372
2646.94349,0.00371
2645.97921,0.00370
2645.01493,0.00371
2644.05065,0.00373
2643.08637,0.00374
2642.12209,0.00375
2641.15782,0.00375
2640.19354,0.00372
2639.22926,0.00368
2638.26498,0.00370
2637.30070,0.00373
2636.33643,0.00373
2635.37215,0.00371
2634.40787,0.00372
2633.44359,0.00372
2632.47931,0.00365
2631.51504,0.00358
2630.55076,0.00360
2629.58648,0.00364
2628.62220,0.00358
2627.65792,0.00349
2626.69364,0.00352
2625.72937,0.00360
2624.76509,0.00362
2623.80081,0.00362
2622.83653,0.00366
2621.87225,0.00366
2620.90798,0.00363
2619.94370,0.00362
2618.97942,0.00360
2618.01514,0.00356
2617.05086,0.00352
2616.08659,0.00350
2615.12231,0.00354
2614.15803,0.00364
2613.19375,0.00369
2612.22947,0.00366
2611.26519,0.00357
2610.30092,0.00346
2609.33664,0.00336
2608.37236,0.00329
2607.40808,0.00330
2606.44380,0.00342
2605.47953,0.00349
2604.51525,0.00348
2603.55097,0.00346
2602.58669,0.00349
2601.62241,0.00346
2600.65814,0.00336
2599.69386,0.00334
2598.72958,0.00340
2597.76530,0.00346
2596.80102,0.00347
2595.83674,0.00345
2594.87247,0.00347
2593.90819,0.00351
2592.94391,0.00351
2591.97963,0.00345
2591.01535,0.00345
2590.05108,0.00352
2589.08680,0.00355
2588.12252,0.00351
2587.15824,0.00342
2586.19396,0.00340
2585.22968,0.00341
2584.26541,0.00337
2583.30113,0.00333
2582.33685,0.00329
2581.37257,0.00322
2580.40829,0.00323
2579.44402,0.00334
2578.47974,0.00346
2577.51546,0.00350
2576.55118,0.00349
2575.58690,0.00351
2574.62263,0.00353
2573.65835,0.00349
2572.69407,0.00345
2571.72979,0.00341
2570.76551,0.00340
2569.80123,0.00350
2568.83696,0.00354
2567.87268,0.00344
2566.90840,0.00337
2565.94412,0.00341
2564.97984,0.00346
2564.01557,0.00345
2563.05129,0.00342
2562.08701,0.00340
2561.12273,0.00337
2560.15845,0.00338
2559.19418,0.00348
2558.22990,0.00355
2557.26562,0.00352
2556.30134,0.00347
2555.33706,0.00343
2554.37278,0.00339
2553.40851,0.00341
2552.44423,0.00347
2551.47995,0.00350
2550.51567,0.00350
2549.55139,0.00350
2548.58712,0.00352
2547.62284,0.00351
2546.65856,0.00340
2545.69428,0.00328
2544.73000,0.00324
2543.76572,0.00324
2542.80145,0.00327
2541.83717,0.00334
2540.87289,0.00342
2539.90861,0.00344
2538.94433,0.00339
2537.98006,0.00333
2537.01578,0.00333
2536.05150,0.00340
2535.08722,0.00351
2534.12294,0.00354
2533.15867,0.00347
2532.19439,0.00335
2531.23011,0.00328
2530.26583,0.00329
2529.30155,0.00333
2528.33727,0.00339
2527.37300,0.00337
2526.40872,0.00322
2525.44444,0.00308
2524.48016,0.00309
2523.51588,0.00319
2522.55161,0.00317
2521.58733,0.00312
2520.62305,0.00321
2519.65877,0.00332
2518.69449,0.00327
2517.73022,0.00319
2516.76594,0.00323
2515.80166,0.00327
2514.83738,0.00324
2513.87310,0.00319
2512.90882,0.00315
2511.94455,0.00318
2510.98027,0.00323
2510.01599,0.00321
2509.05171,0.00315
2508.08743,0.00312
2507.12316,0.00314
2506.15888,0.00315
2505.19460,0.00311
2504.23032,0.00307
2503.26604,0.00308
2502.30177,0.00310
2501.33749,0.00314
2500.37321,0.00322
2499.40893,0.00328
2498.44465,0.00323
2497.48037,0.00317
2496.51610,0.00318
2495.55182,0.00317
2494.58754,0.00306
2493.62326,0.00295
2492.65898,0.00298
2491.69471,0.00305
2490.73043,0.00308
2489.76615,0.00307
2488.80187,0.00304
2487.83759,0.00303
2486.87331,0.00307
2485.90904,0.00311
2484.94476,0.00313
2483.98048,0.00314
2483.01620,0.00308
2482.05192,0.00300
2481.08765,0.00300
2480.12337,0.00305
2479.15909,0.00307
2478.19481,0.00301
2477.23053,0.00288
2476.26626,0.00280
2475.30198,0.00281
2474.33770,0.00285
2473.37342,0.00286
2472.40914,0.00285
2471.44486,0.00285
2470.48059,0.00283
2469.51631,0.00277
2468.55203,0.00271
2467.58775,0.00274
2466.62347,0.00283
2465.65920,0.00283
2464.69492,0.00274
2463.73064,0.00271
2462.76636,0.00280
2461.80208,0.00292
2460.83781,0.00294
2459.87353,0.00289
2458.90925,0.00288
2457.94497,0.00288
2456.98069,0.00290
2456.01641,0.00294
2455.05214,0.00292
2454.08786,0.00280
2453.12358,0.00267
2452.15930,0.00259
2451.19502,0.00261
2450.23075,0.00272
2449.26647,0.00279
2448.30219,0.00281
2447.33791,0.00281
2446.37363,0.00276
2445.40936,0.00269
2444.44508,0.00263
2443.48080,0.00256
2442.51652,0.00256
2441.55224,0.00261
2440.58796,0.00265
2439.62369,0.00272
2438.65941,0.00275
2437.69513,0.00276
2436.73085,0.00277
2435.76657,0.00274
2434.80230,0.00270
2433.83802,0.00272
2432.87374,0.00277
2431.90946,0.00278
2430.94518,0.00277
2429.98090,0.00279
2429.01663,0.00281
2428.05235,0.00281
2427.08807,0.00276
2426.12379,0.00268
2425.15951,0.00268
2424.19524,0.00274
2423.23096,0.00278
2422.26668,0.00282
2421.30240,0.00286
2420.33812,0.00285
2419.37385,0.00280
2418.40957,0.00273
2417.44529,0.00269
2416.48101,0.00272
2415.51673,0.00281
2414.55245,0.00284
2413.58818,0.00279
2412.62390,0.00277
2411.65962,0.00282
2410.69534,0.00287
2409.73106,0.00284
2408.76679,0.00278
2407.80251,0.00280
2406.83823,0.00287
2405.87395,0.00289
2404.90967,0.00290
2403.94540,0.00292
2402.98112,0.00291
2402.01684,0.00287
2401.05256,0.00285
2400.08828,0.00284
2399.12400,0.00282
2398.15973,0.00284
2397.19545,0.00289
2396.23117,0.00291
2395.26689,0.00290
2394.30261,0.00290
2393.33834,0.00295
2392.37406,0.00300
2391.40978,0.00302
2390.44550,0.00302
2389.48122,0.00301
2388.51694,0.00296
2387.55267,0.00289
2386.58839,0.00290
2385.62411,0.00298
2384.65983,0.00310
2383.69555,0.00320
2382.73128,0.00324
2381.76700,0.00323
2380.80272,0.00322
2379.83844,0.00326
2378.87416,0.00331
2377.90989,0.00333
2376.94561,0.00335
2375.98133,0.00338
2375.01705,0.00343
2374.05277,0.00348
2373.08849,0.00350
2372.12422,0.00353
2371.15994,0.00362
2370.19566,0.00372
2369.23138,0.00373
2368.26710,0.00371
2367.30283,0.00374
2366.33855,0.00380
2365.37427,0.00387
2364.40999,0.00391
2363.44571,0.00394
2362.48144,0.00396
2361.51716,0.00396
2360.55288,0.00397
2359.58860,0.00399
2358.62432,0.00399
2357.66004,0.00396
2356.69577,0.00393
2355.73149,0.00390
2354.76721,0.00388
2353.80293,0.00386
2352.83865,0.00382
2351.87438,0.00375
2350.91010,0.00365
2349.94582,0.00355
2348.98154,0.00350
2348.01726,0.00351
2347.05299,0.00359
2346.08871,0.00368
2345.12443,0.00371
2344.16015,0.00367
2343.19587,0.00358
2342.23159,0.00351
2341.26732,0.00349
2340.30304,0.00349
2339.33876,0.00353
2338.37448,0.00359
2337.41020,0.00357
2336.44593,0.00355
2335.48165,0.00357
2334.51737,0.00360
2333.55309,0.00360
2332.58881,0.00361
2331.62453,0.00358
2330.66026,0.00356
2329.69598,0.00362
2328.73170,0.00373
2327.76742,0.00383
2326.80314,0.00400
2325.83887,0.00419
2324.87459,0.00425
2323.91031,0.00412
2322.94603,0.00394
2321.98175,0.00385
2321.01748,0.00377
2320.05320,0.00365
2319.08892,0.00351
2318.12464,0.00346
2317.16036,0.00345
2316.19608,0.00339
2315.23181,0.00325
2314.26753,0.00312
2313.30325,0.00307
2312.33897,0.00310
2311.37469,0.00315
2310.41042,0.00310
2309.44614,0.00297
2308.48186,0.00287
2307.51758,0.00287
2306.55330,0.00295
2305.58903,0.00304
2304.62475,0.00309
2303.66047,0.00308
2302.69619,0.00303
2301.73191,0.00298
2300.76763,0.00294
2299.80336,0.00288
2298.83908,0.00286
2297.87480,0.00290
2296.91052,0.00293
2295.94624,0.00293
2294.98197,0.00296
2294.01769,0.00304
2293.05341,0.00310
2292.08913,0.00309
2291.12485,0.00307
2290.16057,0.00306
2289.19630,0.00301
2288.23202,0.00298
2287.26774,0.00300
2286.30346,0.00305
2285.33918,0.00312
2284.37491,0.00316
2283.41063,0.00309
2282.44635,0.00297
2281.48207,0.00291
2280.51779,0.00290
2279.55352,0.00287
2278.58924,0.00281
2277.62496,0.00273
2276.66068,0.00261
2275.69640,0.00248
2274.73212,0.00250
2273.76785,0.00269
2272.80357,0.00287
2271.83929,0.00287
2270.87501,0.00275
2269.91073,0.00257
2268.94646,0.00242
2267.98218,0.00235
2267.01790,0.00237
2266.05362,0.00246
2265.08934,0.00253
2264.12507,0.00256
2263.16079,0.00254
2262.19651,0.00250
2261.23223,0.00251
2260.26795,0.00258
2259.30367,0.00263
2258.33940,0.00262
2257.37512,0.00264
2256.41084,0.00276
2255.44656,0.00285
2254.48228,0.00278
2253.51801,0.00269
2252.55373,0.00272
2251.58945,0.00285
2250.62517,0.00294
2249.66089,0.00295
2248.69662,0.00304
2247.73234,0.00314
2246.76806,0.00310
2245.80378,0.00289
2244.83950,0.00278
2243.87522,0.00283
2242.91095,0.00288
2241.94667,0.00291
2240.98239,0.00303
2240.01811,0.00326
2239.05383,0.00349
2238.08956,0.00359
2237.12528,0.00348
2236.16100,0.00332
2235.19672,0.00321
2234.23244,0.00317
2233.26816,0.00327
2232.30389,0.00337
2231.33961,0.00330
2230.37533,0.00307
2229.41105,0.00283
2228.44677,0.00272
2227.48250,0.00285
2226.51822,0.00304
2225.55394,0.00314
2224.58966,0.00321
2223.62538,0.00330
2222.66111,0.00339
2221.69683,0.00338
2220.73255,0.00309
2219.76827,0.00260
2218.80399,0.00240
2217.83971,0.00256
2216.87544,0.00272
2215.91116,0.00274
2214.94688,0.00265
2213.98260,0.00252
2213.01832,0.00260
2212.05405,0.00294
2211.08977,0.00323
2210.12549,0.00333
2209.16121,0.00329
2208.19693,0.00315
2207.23266,0.00288
2206.26838,0.00246
2205.30410,0.00219
2204.33982,0.00234
2203.37554,0.00273
2202.41126,0.00307
2201.44699,0.00326
2200.48271,0.00333
2199.51843,0.00333
2198.55415,0.00327
2197.58987,0.00318
2196.62560,0.00309
2195.66132,0.00298
2194.69704,0.00281
2193.73276,0.00251
2192.76848,0.00214
2191.80421,0.00199
2190.83993,0.00204
2189.87565,0.00211
2188.91137,0.00227
2187.94709,0.00238
2186.98281,0.00232
2186.01854,0.00230
2185.05426,0.00246
2184.08998,0.00242
2183.12570,0.00194
2182.16142,0.00161
2181.19715,0.00181
2180.23287,0.00208
2179.26859,0.00208
2178.30431,0.00205
2177.34003,0.00200
2176.37575,0.00165
2175.41148,0.00122
2174.44720,0.00107
2173.48292,0.00119
2172.51864,0.00142
2171.55436,0.00175
2170.59009,0.00216
2169.62581,0.00258
2168.66153,0.00290
2167.69725,0.00300
2166.73297,0.00268
2165.76870,0.00218
2164.80442,0.00197
2163.84014,0.00205
2162.87586,0.00217
2161.91158,0.00237
2160.94730,0.00241
2159.98303,0.00162
2159.01875,0.00016
2158.05447,-0.00066
2157.09019,-0.00049
2156.12591,-0.00024
2155.16164,-0.00014
2154.19736,0.00014
2153.23308,0.00047
2152.26880,0.00065
2151.30452,0.00077
2150.34025,0.00084
2149.37597,0.00091
2148.41169,0.00095
2147.44741,0.00090
2146.48313,0.00091
2145.51885,0.00102
2144.55458,0.00110
2143.59030,0.00106
2142.62602,0.00092
2141.66174,0.00086
2140.69746,0.00090
2139.73319,0.00093
2138.76891,0.00112
2137.80463,0.00133
2136.84035,0.00132
2135.87607,0.00115
2134.91179,0.00089
2133.94752,0.00063
2132.98324,0.00068
2132.01896,0.00090
2131.05468,0.00092
2130.09040,0.00091
2129.12613,0.00105
2128.16185,0.00117
2127.19757,0.00129
2126.23329,0.00148
2125.26901,0.00158
2124.30474,0.00163
2123.34046,0.00172
2122.37618,0.00175
2121.41190,0.00163
2120.44762,0.00153
2119.48334,0.00158
2118.51907,0.00170
2117.55479,0.00177
2116.59051,0.00184
2115.62623,0.00201
2114.66195,0.00217
2113.69768,0.00214
2112.73340,0.00200
2111.76912,0.00191
2110.80484,0.00192
2109.84056,0.00208
2108.87629,0.00226
2107.91201,0.00224
2106.94773,0.00210
2105.98345,0.00200
2105.01917,0.00200
2104.05489,0.00208
2103.09062,0.00211
2102.12634,0.00203
2101.16206,0.00202
2100.19778,0.00214
2099.23350,0.00209
2098.26923,0.00198
2097.30495,0.00181
2096.34067,0.00162
2095.37639,0.00148
2094.41211,0.00152
2093.44784,0.00166
2092.48356,0.00173
2091.51928,0.00171
2090.55500,0.00171
2089.59072,0.00178
2088.62644,0.00189
2087.66217,0.00205
2086.69789,0.00227
2085.73361,0.00238
2084.76933,0.00224
2083.80505,0.00197
2082.84078,0.00180
2081.87650,0.00177
2080.91222,0.00184
2079.94794,0.00197
2078.98366,0.00207
2078.01938,0.00217
2077.05511,0.00225
2076.09083,0.00219
2075.12655,0.00202
2074.16227,0.00189
2073.19799,0.00185
2072.23372,0.00187
2071.26944,0.00191
2070.30516,0.00198
2069.34088,0.00204
2068.37660,0.00198
2067.41233,0.00181
2066.44805,0.00175
2065.48377,0.00185
2064.51949,0.00196
2063.55521,0.00197
2062.59093,0.00190
2061.62666,0.00179
2060.66238,0.00176
2059.69810,0.00183
2058.73382,0.00193
2057.76954,0.00204
2056.80527,0.00218
2055.84099,0.00229
2054.87671,0.00221
2053.91243,0.00204
2052.94815,0.00215
2051.98388,0.00250
2051.01960,0.00259
2050.05532,0.00229
2049.09104,0.00196
2048.12676,0.00177
2047.16248,0.00169
2046.19821,0.00181
2045.23393,0.00204
2044.26965,0.00202
2043.30537,0.00186
2042.34109,0.00189
2041.37682,0.00207
2040.41254,0.00227
2039.44826,0.00246
2038.48398,0.00252
2037.51970,0.00235
2036.55543,0.00196
2035.59115,0.00159
2034.62687,0.00158
2033.66259,0.00175
2032.69831,0.00163
2031.73403,0.00132
2030.76976,0.00117
2029.80548,0.00121
2028.84120,0.00137
2027.87692,0.00157
2026.91264,0.00159
2025.94837,0.00133
2024.98409,0.00094
2024.01981,0.00072
2023.05553,0.00086
2022.09125,0.00116
2021.12697,0.00131
2020.16270,0.00142
2019.19842,0.00149
2018.23414,0.00108
2017.26986,0.00042
2016.30558,0.00020
2015.34131,0.00045
2014.37703,0.00072
2013.41275,0.00091
2012.44847,0.00121
2011.48419,0.00151
2010.51992,0.00144
2009.55564,0.00108
2008.59136,0.00086
2007.62708,0.00085
2006.66280,0.00088
2005.69852,0.00091
2004.73425,0.00088
2003.76997,0.00069
2002.80569,0.00055
2001.84141,0.00083
2000.87713,0.00136
1999.91286,0.00164
1998.94858,0.00157
1997.98430,0.00152
1997.02002,0.00161
1996.05574,0.00158
1995.09147,0.00150
1994.12719,0.00168
1993.16291,0.00202
1992.19863,0.00216
1991.23435,0.00200
1990.27007,0.00183
1989.30580,0.00186
1988.34152,0.00204
1987.37724,0.00217
1986.41296,0.00215
1985.44868,0.00202
1984.48441,0.00186
1983.52013,0.00178
1982.55585,0.00190
1981.59157,0.00205
1980.62729,0.00192
1979.66301,0.00140
1978.69874,0.00075
1977.73446,0.00036
1976.77018,0.00040
1975.80590,0.00047
1974.84162,0.00036
1973.87735,0.00045
1972.91307,0.00086
1971.94879,0.00117
1970.98451,0.00115
1970.02023,0.00108
1969.05596,0.00127
1968.09168,0.00150
1967.12740,0.00147
1966.16312,0.00130
1965.19884,0.00133
1964.23456,0.00162
1963.27029,0.00201
1962.30601,0.00223
1961.34173,0.00212
1960.37745,0.00181
1959.41317,0.00162
1958.44890,0.00176
1957.48462,0.00210
1956.52034,0.00241
1955.55606,0.00252
1954.59178,0.00250
1953.62751,0.00256
1952.66323,0.00270
1951.69895,0.00274
1950.73467,0.00257
1949.77039,0.00237
1948.80611,0.00233
1947.84184,0.00230
1946.87756,0.00212
1945.91328,0.00202
1944.94900,0.00216
1943.98472,0.00241
1943.02045,0.00249
1942.05617,0.00222
1941.09189,0.00190
1940.12761,0.00189
1939.16333,0.00212
1938.19906,0.00228
1937.23478,0.00223
1936.27050,0.00210
1935.30622,0.00201
1934.34194,0.00202
1933.37766,0.00208
1932.41339,0.00215
1931.44911,0.00215
1930.48483,0.00201
1929.52055,0.00189
1928.55627,0.00197
1927.59200,0.00215
1926.62772,0.00219
1925.66344,0.00208
1924.69916,0.00196
1923.73488,0.00188
1922.77060,0.00187
1921.80633,0.00195
1920.84205,0.00212
1919.87777,0.00229
1918.91349,0.00236
1917.94921,0.00228
1916.98494,0.00213
1916.02066,0.00206
1915.05638,0.00210
1914.09210,0.00213
1913.12782,0.00208
1912.16355,0.00205
1911.19927,0.00207
1910.23499,0.00209
1909.27071,0.00205
1908.30643,0.00199
1907.34215,0.00198
1906.37788,0.00202
1905.41360,0.00208
1904.44932,0.00212
1903.48504,0.00207
1902.52076,0.00191
1901.55649,0.00179
1900.59221,0.00185
1899.62793,0.00203
1898.66365,0.00213
1897.69937,0.00213
1896.73510,0.00212
1895.77082,0.00210
1894.80654,0.00208
1893.84226,0.00204
1892.87798,0.00202
1891.91370,0.00196
1890.94943,0.00190
1889.98515,0.00188
1889.02087,0.00192
1888.05659,0.00195
1887.09231,0.00198
1886.12804,0.00207
1885.16376,0.00221
1884.19948,0.00231
1883.23520,0.00233
1882.27092,0.00229
1881.30664,0.00222
1880.34237,0.00211
1879.37809,0.00203
1878.41381,0.00205
1877.44953,0.00211
1876.48525,0.00209
1875.52098,0.00203
1874.55670,0.00205
1873.59242,0.00214
1872.62814,0.00222
1871.66386,0.00222
1870.69959,0.00212
1869.73531,0.00199
1868.77103,0.00197
1867.80675,0.00209
1866.84247,0.00223
1865.87819,0.00232
1864.91392,0.00232
1863.94964,0.00223
1862.98536,0.00212
1862.02108,0.00208
1861.05680,0.00210
1860.09253,0.00213
1859.12825,0.00214
1858.16397,0.00214
1857.19969,0.00214
1856.23541,0.00214
1855.27114,0.00221
1854.30686,0.00232
1853.34258,0.00241
1852.37830,0.00246
1851.41402,0.00249
1850.44974,0.00247
1849.48547,0.00239
1848.52119,0.00234
1847.55691,0.00239
1846.59263,0.00252
1845.62835,0.00264
1844.66408,0.00271
1843.69980,0.00271
1842.73552,0.00267
1841.77124,0.00265
1840.80696,0.00269
1839.84269,0.00275
1838.87841,0.00279
1837.91413,0.00280
1836.94985,0.00284
1835.98557,0.00294
1835.02129,0.00309
1834.05702,0.00325
1833.09274,0.00342
1832.12846,0.00356
1831.16418,0.00363
1830.19990,0.00359
1829.23563,0.00347
1828.27135,0.00339
1827.30707,0.00340
1826.34279,0.00345
1825.37851,0.00351
1824.41423,0.00357
1823.44996,0.00363
1822.48568,0.00370
1821.52140,0.00371
1820.55712,0.00365
1819.59284,0.00355
1818.62857,0.00347
1817.66429,0.00346
1816.70001,0.00350
1815.73573,0.00356
1814.77145,0.00362
1813.80718,0.00368
1812.84290,0.00373
1811.87862,0.00378
1810.91434,0.00380
1809.95006,0.00378
1808.98578,0.00375
1808.02151,0.00374
1807.05723,0.00376
1806.09295,0.00381
1805.12867,0.00388
1804.16439,0.00393
1803.20012,0.00396
1802.23584,0.00395
1801.27156,0.00391
1800.30728,0.00386
1799.34300,0.00386
1798.37873,0.00391
1797.41445,0.00397
1796.45017,0.00401
1795.48589,0.00403
1794.52161,0.00406
1793.55733,0.00414
1792.59306,0.00424
1791.62878,0.00432
1790.66450,0.00438
1789.70022,0.00440
1788.73594,0.00440
1787.77167,0.00440
1786.80739,0.00441
1785.84311,0.00444
1784.87883,0.00447
1783.91455,0.00450
1782.95028,0.00453
1781.98600,0.00459
1781.02172,0.00468
1780.05744,0.00477
1779.09316,0.00484
1778.12888,0.00489
1777.16461,0.00498
1776.20033,0.00507
1775.23605,0.00515
1774.27177,0.00517
1773.30749,0.00518
1772.34322,0.00524
1771.37894,0.00537
1770.41466,0.00553
1769.45038,0.00568
1768.48610,0.00580
1767.52182,0.00590
1766.55755,0.00600
1765.59327,0.00610
1764.62899,0.00622
1763.66471,0.00634
1762.70043,0.00649
1761.73616,0.00669
1760.77188,0.00691
1759.80760,0.00713
1758.84332,0.00736
1757.87904,0.00763
1756.91477,0.00797
1755.95049,0.00836
1754.98621,0.00876
1754.02193,0.00916
1753.05765,0.00960
1752.09337,0.01011
1751.12910,0.01068
1750.16482,0.01127
1749.20054,0.01185
1748.23626,0.01245
1747.27198,0.01303
1746.30771,0.01358
1745.34343,0.01416
1744.37915,0.01483
1743.41487,0.01563
1742.45059,0.01653
1741.48632,0.01755
1740.52204,0.01889
1739.55776,0.02063
1738.59348,0.02263
1737.62920,0.02470
1736.66492,0.02703
1735.70065,0.03026
1734.73637,0.03525
1733.77209,0.04194
1732.80781,0.04884
1731.84353,0.05525
1730.87926,0.06201
1729.91498,0.06980
1728.95070,0.07817
1727.98642,0.08642
1727.02214,0.09450
1726.05786,0.10257
1725.09359,0.11070
1724.12931,0.11893
1723.16503,0.12705
1722.20075,0.13448
1721.23647,0.14077
1720.27220,0.14600
1719.30792,0.15087
1718.34364,0.15593
1717.37936,0.16045
1716.41508,0.16288
1715.45081,0.16278
1714.48653,0.16054
1713.52225,0.15643
1712.55797,0.15056
1711.59369,0.14298
1710.62941,0.13384
1709.66514,0.12361
1708.70086,0.11293
1707.73658,0.10203
1706.77230,0.09083
1705.80802,0.07972
1704.84375,0.06948
1703.87947,0.06078
1702.91519,0.05375
1701.95091,0.04774
1700.98663,0.04174
1700.02236,0.03574
1699.05808,0.03102
1698.09380,0.02785
1697.12952,0.02543
1696.16524,0.02316
1695.20096,0.02111
1694.23669,0.01952
1693.27241,0.01831
1692.30813,0.01732
1691.34385,0.01648
1690.37957,0.01580
1689.41530,0.01524
1688.45102,0.01476
1687.48674,0.01433
1686.52246,0.01397
1685.55818,0.01370
1684.59391,0.01355
1683.62963,0.01348
1682.66535,0.01340
1681.70107,0.01328
1680.73679,0.01311
1679.77251,0.01291
1678.80824,0.01272
1677.84396,0.01254
1676.87968,0.01238
1675.91540,0.01223
1674.95112,0.01210
1673.98685,0.01199
1673.02257,0.01186
1672.05829,0.01165
1671.09401,0.01136
1670.12973,0.01101
1669.16545,0.01059
1668.20118,0.01013
1667.23690,0.00970
1666.27262,0.00932
1665.30834,0.00903
1664.34406,0.00877
1663.37979,0.00851
1662.41551,0.00825
1661.45123,0.00801
1660.48695,0.00782
1659.52267,0.00766
1658.55840,0.00756
1657.59412,0.00751
1656.62984,0.00747
1655.66556,0.00737
1654.70128,0.00719
1653.73700,0.00701
1652.77273,0.00701
1651.80845,0.00719
1650.84417,0.00738
1649.87989,0.00747
1648.91561,0.00746
1647.95134,0.00741
1646.98706,0.00737
1646.02278,0.00739
1645.05850,0.00748
1644.09422,0.00760
1643.12995,0.00774
1642.16567,0.00788
1641.20139,0.00803
1640.23711,0.00819
1639.27283,0.00833
1638.30855,0.00842
1637.34428,0.00841
1636.38000,0.00825
1635.41572,0.00800
1634.45144,0.00772
1633.48716,0.00747
1632.52289,0.00726
1631.55861,0.00713
1630.59433,0.00707
1629.63005,0.00705
1628.66577,0.00701
1627.70149,0.00693
1626.73722,0.00681
1625.77294,0.00670
1624.80866,0.00662
1623.84438,0.00660
1622.88010,0.00665
1621.91583,0.00674
1620.95155,0.00683
1619.98727,0.00688
1619.02299,0.00690
1618.05871,0.00691
1617.09444,0.00694
1616.13016,0.00703
1615.16588,0.00718
1614.20160,0.00732
1613.23732,0.00740
1612.27304,0.00740
1611.30877,0.00733
1610.34449,0.00723
1609.38021,0.00711
1608.41593,0.00699
1607.45165,0.00688
1606.48738,0.00681
1605.52310,0.00674
1604.55882,0.00666
1603.59454,0.00655
1602.63026,0.00643
1601.66599,0.00631
1600.70171,0.00620
1599.73743,0.00613
1598.77315,0.00609
1597.80887,0.00609
1596.84459,0.00608
1595.88032,0.00607
1594.91604,0.00608
1593.95176,0.00613
1592.98748,0.00617
1592.02320,0.00618
1591.05893,0.00615
1590.09465,0.00612
1589.13037,0.00612
1588.16609,0.00617
1587.20181,0.00627
1586.23754,0.00644
1585.27326,0.00668
1584.30898,0.00703
1583.34470,0.00753
1582.38042,0.00817
1581.41614,0.00891
1580.45187,0.00962
1579.48759,0.01021
1578.52331,0.01055
1577.55903,0.01061
1576.59475,0.01040
1575.63048,0.01005
1574.66620,0.00966
1573.70192,0.00926
1572.73764,0.00888
1571.77336,0.00855
1570.80908,0.00831
1569.84481,0.00816
1568.88053,0.00809
1567.91625,0.00806
1566.95197,0.00802
1565.98769,0.00796
1565.02342,0.00789
1564.05914,0.00782
1563.09486,0.00777
1562.13058,0.00774
1561.16630,0.00774
1560.20203,0.00776
1559.23775,0.00780
1558.27347,0.00781
1557.30919,0.00778
1556.34491,0.00770
1555.38063,0.00758
1554.41636,0.00745
1553.45208,0.00736
1552.48780,0.00732
1551.52352,0.00730
1550.55924,0.00726
1549.59497,0.00719
1548.63069,0.00713
1547.66641,0.00710
1546.70213,0.00711
1545.73785,0.00711
1544.77358,0.00710
1543.80930,0.00707
1542.84502,0.00701
1541.88074,0.00696
1540.91646,0.00697
1539.95218,0.00703
1538.98791,0.00709
1538.02363,0.00713
1537.05935,0.00713
1536.09507,0.00711
1535.13079,0.00710
1534.16652,0.00710
1533.20224,0.00709
1532.23796,0.00709
1531.27368,0.00710
1530.30940,0.00712
1529.34513,0.00715
1528.38085,0.00716
1527.41657,0.00712
1526.45229,0.00705
1525.48801,0.00696
1524.52373,0.00691
1523.55946,0.00690
1522.59518,0.00692
1521.63090,0.00696
1520.66662,0.00699
1519.70234,0.00700
1518.73807,0.00698
1517.77379,0.00695
1516.80951,0.00695
1515.84523,0.00698
1514.88095,0.00706
1513.91667,0.00718
1512.95240,0.00736
1511.98812,0.00760
1511.02384,0.00793
1510.05956,0.00840
1509.09528,0.00914
1508.13101,0.01031
1507.16673,0.01194
1506.20245,0.01360
1505.23817,0.01448
1504.27389,0.01427
1503.30962,0.01323
1502.34534,0.01180
1501.38106,0.01039
1500.41678,0.00930
1499.45250,0.00858
1498.48822,0.00813
1497.52395,0.00786
1496.55967,0.00769
1495.59539,0.00759
1494.63111,0.00756
1493.66683,0.00756
1492.70256,0.00761
1491.73828,0.00772
1490.77400,0.00789
1489.80972,0.00812
1488.84544,0.00833
1487.88117,0.00852
1486.91689,0.00874
1485.95261,0.00900
1484.98833,0.00932
1484.02405,0.00970
1483.05977,0.01020
1482.09550,0.01082
1481.13122,0.01155
1480.16694,0.01236
1479.20266,0.01323
1478.23838,0.01420
1477.27411,0.01530
1476.30983,0.01658
1475.34555,0.01796
1474.38127,0.01953
1473.41699,0.02160
1472.45271,0.02437
1471.48844,0.02759
1470.52416,0.03093
1469.55988,0.03429
1468.59560,0.03761
1467.63132,0.04065
1466.66705,0.04316
1465.70277,0.04512
1464.73849,0.04658
1463.77421,0.04750
1462.80993,0.04786
1461.84566,0.04775
1460.88138,0.04725
1459.91710,0.04640
1458.95282,0.04516
1457.98854,0.04351
1457.02426,0.04154
1456.05999,0.03952
1455.09571,0.03758
1454.13143,0.03568
1453.16715,0.03379
1452.20287,0.03198
1451.23860,0.03040
1450.27432,0.02917
1449.31004,0.02830
1448.34576,0.02772
1447.38148,0.02735
1446.41721,0.02714
1445.45293,0.02714
1444.48865,0.02741
1443.52437,0.02805
1442.56009,0.02918
1441.59581,0.03082
1440.63154,0.03297
1439.66726,0.03549
1438.70298,0.03828
1437.73870,0.04132
1436.77442,0.04441
1435.81015,0.04679
1434.84587,0.04779
1433.88159,0.04747
1432.91731,0.04638
1431.95303,0.04517
1430.98876,0.04458
1430.02448,0.04521
1429.06020,0.04732
1428.09592,0.05047
1427.13164,0.05354
1426.16736,0.05505
1425.20309,0.05395
1424.23881,0.05038
1423.27453,0.04560
1422.31025,0.04110
1421.34597,0.03756
1420.38170,0.03489
1419.41742,0.03287
1418.45314,0.03146
1417.48886,0.03062
1416.52458,0.03023
1415.56030,0.03025
1414.59603,0.03073
1413.63175,0.03187
1412.66747,0.03382
1411.70319,0.03650
1410.73891,0.03945
1409.77464,0.04187
1408.81036,0.04295
1407.84608,0.04228
1406.88180,0.03992
1405.91752,0.03634
1404.95325,0.03225
1403.98897,0.02847
1403.02469,0.02551
1402.06041,0.02340
1401.09613,0.02195
1400.13185,0.02102
1399.16758,0.02053
1398.20330,0.02038
1397.23902,0.02050
1396.27474,0.02090
1395.31046,0.02166
1394.34619,0.02278
1393.38191,0.02406
1392.41763,0.02534
1391.45335,0.02659
1390.48907,0.02783
1389.52480,0.02907
1388.56052,0.03045
1387.59624,0.03209
1386.63196,0.03392
1385.66768,0.03572
1384.70340,0.03743
1383.73913,0.03902
1382.77485,0.04041
1381.81057,0.04143
1380.84629,0.04204
1379.88201,0.04218
1378.91774,0.04178
1377.95346,0.04075
1376.98918,0.03921
1376.02490,0.03730
1375.06062,0.03513
1374.09634,0.03285
1373.13207,0.03071
1372.16779,0.02894
1371.20351,0.02755
1370.23923,0.02644
1369.27495,0.02557
1368.31068,0.02491
1367.34640,0.02446
1366.38212,0.02422
1365.41784,0.02416
1364.45356,0.02430
1363.48929,0.02465
1362.52501,0.02515
1361.56073,0.02566
1360.59645,0.02618
1359.63217,0.02671
1358.66789,0.02723
1357.70362,0.02769
1356.73934,0.02805
1355.77506,0.02829
1354.81078,0.02838
1353.84650,0.02831
1352.88223,0.02809
1351.91795,0.02772
1350.95367,0.02726
1349.98939,0.02680
1349.02511,0.02642
1348.06084,0.02623
1347.09656,0.02633
1346.13228,0.02676
1345.16800,0.02749
1344.20372,0.02853
1343.23944,0.02990
1342.27517,0.03156
1341.31089,0.03350
1340.34661,0.03584
1339.38233,0.03845
1338.41805,0.04092
1337.45378,0.04302
1336.48950,0.04464
1335.52522,0.04570
1334.56094,0.04617
1333.59666,0.04621
1332.63239,0.04598
1331.66811,0.04561
1330.70383,0.04528
1329.73955,0.04505
1328.77527,0.04490
1327.81099,0.04474
1326.84672,0.04456
1325.88244,0.04437
1324.91816,0.04418
1323.95388,0.04401
1322.98960,0.04383
1322.02533,0.04364
1321.06105,0.04349
1320.09677,0.04339
1319.13249,0.04333
1318.16821,0.04319
1317.20393,0.04296
1316.23966,0.04270
1315.27538,0.04245
1314.31110,0.04223
1313.34682,0.04202
1312.38254,0.04186
1311.41827,0.04177
1310.45399,0.04178
1309.48971,0.04195
1308.52543,0.04237
1307.56115,0.04303
1306.59688,0.04390
1305.63260,0.04487
1304.66832,0.04575
1303.70404,0.04629
1302.73976,0.04633
1301.77548,0.04593
1300.81121,0.04545
1299.84693,0.04533
1298.88265,0.04569
1297.91837,0.04645
1296.95409,0.04753
1295.98982,0.04895
1295.02554,0.05076
1294.06126,0.05295
1293.09698,0.05551
1292.13270,0.05847
1291.16843,0.06193
1290.20415,0.06589
1289.23987,0.07028
1288.27559,0.07512
1287.31131,0.08040
1286.34703,0.08595
1285.38276,0.09167
1284.41848,0.09758
1283.45420,0.10378
1282.48992,0.11028
1281.52564,0.11712
1280.56137,0.12434
1279.59709,0.13193
1278.63281,0.13981
1277.66853,0.14799
1276.70425,0.15650
1275.73998,0.16528
1274.77570,0.17417
1273.81142,0.18298
1272.84714,0.19161
1271.88286,0.19992
1270.91858,0.20752
1269.95431,0.21392
1268.99003,0.21876
1268.02575,0.22168
1267.06147,0.22237
1266.09719,0.22063
1265.13292,0.21649
1264.16864,0.21035
1263.20436,0.20286
1262.24008,0.19487
1261.27580,0.18723
1260.31152,0.18064
1259.34725,0.17571
1258.38297,0.17281
1257.41869,0.17192
1256.45441,0.17266
1255.49013,0.17438
1254.52586,0.17646
1253.56158,0.17850
1252.59730,0.18037
1251.63302,0.18209
1250.66874,0.18363
1249.70447,0.18482
1248.74019,0.18534
1247.77591,0.18478
1246.81163,0.18285
1245.84735,0.17952
1244.88307,0.17489
1243.91880,0.16912
1242.95452,0.16253
1241.99024,0.15543
1241.02596,0.14814
1240.06168,0.14087
1239.09741,0.13376
1238.13313,0.12693
1237.16885,0.12047
1236.20457,0.11438
1235.24029,0.10858
1234.27602,0.10310
1233.31174,0.09808
1232.34746,0.09357
1231.38318,0.08943
1230.41890,0.08545
1229.45462,0.08138
1228.49035,0.07699
1227.52607,0.07222
1226.56179,0.06718
1225.59751,0.06204
1224.63323,0.05706
1223.66896,0.05257
1222.70468,0.04875
1221.74040,0.04566
1220.77612,0.04328
1219.81184,0.04150
1218.84756,0.04014
1217.88329,0.03907
1216.91901,0.03822
1215.95473,0.03757
1214.99045,0.03716
1214.02617,0.03702
1213.06190,0.03710
1212.09762,0.03721
1211.13334,0.03719
1210.16906,0.03706
1209.20478,0.03693
1208.24051,0.03690
1207.27623,0.03696
1206.31195,0.03702
1205.34767,0.03706
1204.38339,0.03712
1203.41911,0.03725
1202.45484,0.03739
1201.49056,0.03747
1200.52628,0.03740
1199.56200,0.03719
1198.59772,0.03688
1197.63345,0.03648
1196.66917,0.03594
1195.70489,0.03523
1194.74061,0.03446
1193.77633,0.03372
1192.81206,0.03296
1191.84778,0.03213
1190.88350,0.03131
1189.91922,0.03052
1188.95494,0.02962
1187.99066,0.02867
1187.02639,0.02781
1186.06211,0.02695
1185.09783,0.02608
1184.13355,0.02535
1183.16927,0.02481
1182.20500,0.02443
1181.24072,0.02424
1180.27644,0.02423
1179.31216,0.02434
1178.34788,0.02460
1177.38361,0.02517
1176.41933,0.02608
1175.45505,0.02724
1174.49077,0.02845
1173.52649,0.02940
1172.56221,0.02991
1171.59794,0.02989
1170.63366,0.02936
1169.66938,0.02853
1168.70510,0.02767
1167.74082,0.02693
1166.77655,0.02646
1165.81227,0.02626
1164.84799,0.02615
1163.88371,0.02601
1162.91943,0.02587
1161.95515,0.02576
1160.99088,0.02571
1160.02660,0.02574
1159.06232,0.02584
1158.09804,0.02594
1157.13376,0.02605
1156.16949,0.02625
1155.20521,0.02647
1154.24093,0.02663
1153.27665,0.02677
1152.31237,0.02694
1151.34810,0.02707
1150.38382,0.02706
1149.41954,0.02697
1148.45526,0.02693
1147.49098,0.02693
1146.52670,0.02688
1145.56243,0.02677
1144.59815,0.02666
1143.63387,0.02660
1142.66959,0.02661
1141.70531,0.02672
1140.74104,0.02695
1139.77676,0.02737
1138.81248,0.02803
1137.84820,0.02900
1136.88392,0.03028
1135.91965,0.03180
1134.95537,0.03355
1133.99109,0.03569
1133.02681,0.03842
1132.06253,0.04180
1131.09825,0.04578
1130.13398,0.05041
1129.16970,0.05581
1128.20542,0.06208
1127.24114,0.06922
1126.27686,0.07717
1125.31259,0.08572
1124.34831,0.09463
1123.38403,0.10373
1122.41975,0.11274
1121.45547,0.12126
1120.49120,0.12894
1119.52692,0.13524
1118.56264,0.13972
1117.59836,0.14227
1116.63408,0.14292
1115.66980,0.14165
1114.70553,0.13858
1113.74125,0.13411
1112.77697,0.12886
1111.81269,0.12352
1110.84841,0.11866
1109.88414,0.11490
1108.91986,0.11320
1107.95558,0.11449
1106.99130,0.11929
1106.02702,0.12734
1105.06274,0.13728
1104.09847,0.14678
1103.13419,0.15352
1102.16991,0.15611
1101.20563,0.15411
1100.24135,0.14798
1099.27708,0.13887
1098.31280,0.12814
1097.34852,0.11710
1096.38424,0.10673
1095.41996,0.09753
1094.45569,0.08973
1093.49141,0.08345
1092.52713,0.07865
1091.56285,0.07498
1090.59857,0.07217
1089.63429,0.07008
1088.67002,0.06858
1087.70574,0.06739
1086.74146,0.06630
1085.77718,0.06511
1084.81290,0.06370
1083.84863,0.06197
1082.88435,0.05984
1081.92007,0.05738
1080.95579,0.05477
1079.99151,0.05211
1079.02724,0.04946
1078.06296,0.04706
1077.09868,0.04509
1076.13440,0.04346
1075.17012,0.04199
1074.20584,0.04057
1073.24157,0.03917
1072.27729,0.03786
1071.31301,0.03665
1070.34873,0.03564
1069.38445,0.03493
1068.42018,0.03442
1067.45590,0.03383
1066.49162,0.03313
1065.52734,0.03249
1064.56306,0.03206
1063.59878,0.03177
1062.63451,0.03146
1061.67023,0.03104
1060.70595,0.03054
1059.74167,0.03003
1058.77739,0.02951
1057.81312,0.02901
1056.84884,0.02856
1055.88456,0.02812
1054.92028,0.02773
1053.95600,0.02737
1052.99173,0.02703
1052.02745,0.02673
1051.06317,0.02650
1050.09889,0.02631
1049.13461,0.02607
1048.17033,0.02581
1047.20606,0.02565
1046.24178,0.02560
1045.27750,0.02554
1044.31322,0.02545
1043.34894,0.02540
1042.38467,0.02542
1041.42039,0.02548
1040.45611,0.02546
1039.49183,0.02540
1038.52755,0.02544
1037.56328,0.02556
1036.59900,0.02574
1035.63472,0.02594
1034.67044,0.02613
1033.70616,0.02637
1032.74188,0.02665
1031.77761,0.02698
1030.81333,0.02743
1029.84905,0.02792
1028.88477,0.02848
1027.92049,0.02912
1026.95622,0.02988
1025.99194,0.03106
1025.02766,0.03306
1024.06338,0.03644
1023.09910,0.04249
1022.13483,0.05279
1021.17055,0.06770
1020.20627,0.08424
1019.24199,0.09560
1018.27771,0.09543
1017.31343,0.08398
1016.34916,0.06794
1015.38488,0.05405
1014.42060,0.04492
1013.45632,0.03978
1012.49204,0.03695
1011.52777,0.03524
1010.56349,0.03400
1009.59921,0.03301
1008.63493,0.03228
1007.67065,0.03185
1006.70637,0.03171
1005.74210,0.03178
1004.77782,0.03196
1003.81354,0.03229
1002.84926,0.03277
1001.88498,0.03328
1000.92071,0.03372
999.95643,0.03419
998.99215,0.03478
998.02787,0.03547
997.06359,0.03615
996.09932,0.03676
995.13504,0.03734
994.17076,0.03794
993.20648,0.03851
992.24220,0.03895
991.27792,0.03929
990.31365,0.03960
989.34937,0.03993
988.38509,0.04037
987.42081,0.04105
986.45653,0.04199
985.49226,0.04310
984.52798,0.04436
983.56370,0.04574
982.59942,0.04711
981.63514,0.04840
980.67087,0.04970
979.70659,0.05107
978.74231,0.05243
977.77803,0.05372
976.81375,0.05494
975.84947,0.05611
974.88520,0.05732
973.92092,0.05858
972.95664,0.05968
971.99236,0.06052
971.02808,0.06135
970.06381,0.06233
969.09953,0.06338
968.13525,0.06441
967.17097,0.06552
966.20669,0.06683
965.24241,0.06831
964.27814,0.06975
963.31386,0.07112
962.34958,0.07249
961.38530,0.07382
960.42102,0.07495
959.45675,0.07579
958.49247,0.07625
957.52819,0.07622
956.56391,0.07576
955.59963,0.07503
954.63536,0.07394
953.67108,0.07239
952.70680,0.07056
951.74252,0.06868
950.77824,0.06680
949.81396,0.06509
948.84969,0.06358
947.88541,0.06211
946.92113,0.06062
945.95685,0.05917
944.99257,0.05772
944.02830,0.05630
943.06402,0.05499
942.09974,0.05376
941.13546,0.05254
940.17118,0.05136
939.20691,0.05025
938.24263,0.04913
937.27835,0.04809
936.31407,0.04723
935.34979,0.04643
934.38551,0.04566
933.42124,0.04502
932.45696,0.04446
931.49268,0.04392
930.52840,0.04341
929.56412,0.04298
928.59985,0.04264
927.63557,0.04233
926.67129,0.04209
925.70701,0.04207
924.74273,0.04215
923.77846,0.04208
922.81418,0.04181
921.84990,0.04136
920.88562,0.04074
919.92134,0.03992
918.95706,0.03892
917.99279,0.03786
917.02851,0.03690
916.06423,0.03604
915.09995,0.03532
914.13567,0.03476
913.17140,0.03430
912.20712,0.03398
911.24284,0.03380
910.27856,0.03362
909.31428,0.03337
908.35000,0.03310
907.38573,0.03285
906.42145,0.03255
905.45717,0.03210
904.49289,0.03153
903.52861,0.03097
902.56434,0.03049
901.60006,0.02998
900.63578,0.02944
899.67150,0.02896
898.70722,0.02852
897.74295,0.02814
896.77867,0.02782
895.81439,0.02747
894.85011,0.02709
893.88583,0.02672
892.92155,0.02632
891.95728,0.02587
890.99300,0.02541
890.02872,0.02504
889.06444,0.02484
888.10016,0.02477
887.13589,0.02472
886.17161,0.02467
885.20733,0.02485
884.24305,0.02543
883.27877,0.02637
882.31450,0.02772
881.35022,0.02963
880.38594,0.03218
879.42166,0.03540
878.45738,0.03932
877.49310,0.04363
876.52883,0.04756
875.56455,0.05034
874.60027,0.05139
873.63599,0.05056
872.67171,0.04820
871.70744,0.04491
870.74316,0.04120
869.77888,0.03768
868.81460,0.03483
867.85032,0.03275
866.88605,0.03121
865.92177,0.02999
864.95749,0.02907
863.99321,0.02851
863.02893,0.02820
862.06465,0.02789
861.10038,0.02743
860.13610,0.02696
859.17182,0.02667
858.20754,0.02660
857.24326,0.02666
856.27899,0.02673
855.31471,0.02678
854.35043,0.02686
853.38615,0.02690
852.42187,0.02691
851.45759,0.02691
850.49332,0.02686
849.52904,0.02679
848.56476,0.02681
847.60048,0.02696
846.63620,0.02706
845.67193,0.02694
844.70765,0.02675
843.74337,0.02667
842.77909,0.02664
841.81481,0.02668
840.85054,0.02679
839.88626,0.02695
838.92198,0.02726
837.95770,0.02782
836.99342,0.02837
836.02914,0.02875
835.06487,0.02914
834.10059,0.02942
833.13631,0.02939
832.17203,0.02919
831.20775,0.02891
830.24348,0.02842
829.27920,0.02771
828.31492,0.02689
827.35064,0.02588
826.38636,0.02461
825.42209,0.02321
824.45781,0.02195
823.49353,0.02090
822.52925,0.01995
821.56497,0.01919
820.60069,0.01869
819.63642,0.01828
818.67214,0.01790
817.70786,0.01758
816.74358,0.01736
815.77930,0.01720
814.81503,0.01698
813.85075,0.01666
812.88647,0.01651
811.92219,0.01672
810.95791,0.01695
809.99363,0.01688
809.02936,0.01669
808.06508,0.01660
807.10080,0.01654
806.13652,0.01643
805.17224,0.01624
804.20797,0.01601
803.24369,0.01586
802.27941,0.01572
801.31513,0.01549
800.35085,0.01541
799.38658,0.01584
798.42230,0.01686
797.45802,0.01832
796.49374,0.01973
795.52946,0.02043
794.56518,0.02007
793.60091,0.01906
792.63663,0.01810
791.67235,0.01751
790.70807,0.01725
789.74379,0.01723
788.77952,0.01742
787.81524,0.01795
786.85096,0.01865
785.88668,0.01907
784.92240,0.01918
783.95813,0.01931
782.99385,0.01953
782.02957,0.01972
781.06529,0.01988
780.10101,0.02005
779.13673,0.02023
778.17246,0.02040
777.20818,0.02047
776.24390,0.02054
775.27962,0.02085
774.31534,0.02152
773.35107,0.02230
772.38679,0.02283
771.42251,0.02308
770.45823,0.02328
769.49395,0.02343
768.52968,0.02340
767.56540,0.02321
766.60112,0.02292
765.63684,0.02261
764.67256,0.02217
763.70828,0.02141
762.74401,0.02029
761.77973,0.01905
760.81545,0.01797
759.85117,0.01696
758.88689,0.01602
757.92262,0.01544
756.95834,0.01529
755.99406,0.01541
755.02978,0.01566
754.06550,0.01583
753.10122,0.01579
752.13695,0.01556
751.17267,0.01526
750.20839,0.01540
749.24411,0.01592
748.27983,0.01594
747.31556,0.01599
746.35128,0.01689
745.38700,0.01788
744.42272,0.01908
743.45844,0.02114
742.49417,0.02347
741.52989,0.02627
740.56561,0.03069
739.60133,0.03712
738.63705,0.04576
737.67277,0.05735
736.70850,0.07232
735.74422,0.09063
734.77994,0.11164
733.81566,0.13350
732.85138,0.15355
731.88711,0.16887
730.92283,0.17637
729.95855,0.17357
728.99427,0.16045
728.02999,0.13979
727.06572,0.11626
726.10144,0.09482
725.13716,0.07817
724.17288,0.06617
723.20860,0.05740
722.24432,0.05048
721.28005,0.04499
720.31577,0.04098
719.35149,0.03816
718.38721,0.03624
717.42293,0.03515
716.45866,0.03476
715.49438,0.03478
714.53010,0.03509
713.56582,0.03572
712.60154,0.03654
711.63726,0.03752
710.67299,0.03873
709.70871,0.04026
708.74443,0.04204
707.78015,0.04390
706.81587,0.04571
705.85160,0.04747
704.88732,0.04934
703.92304,0.05124
702.95876,0.05281
701.99448,0.05387
701.03021,0.05469
700.06593,0.05552
699.10165,0.05632
698.13737,0.05700
697.17309,0.05756
696.20881,0.05794
695.24454,0.05817
694.28026,0.05834
693.31598,0.05844
692.35170,0.05848
691.38742,0.05854
690.42315,0.05852
689.45887,0.05832
688.49459,0.05805
687.53031,0.05790
686.56603,0.05789
685.60176,0.05780
684.63748,0.05755
683.67320,0.05731
682.70892,0.05707
681.74464,0.05676
680.78036,0.05633
679.81609,0.05578
678.85181,0.05519
677.88753,0.05462
676.92325,0.05391
675.95897,0.05288
674.99470,0.05166
674.03042,0.05032
673.06614,0.04883
672.10186,0.04732
671.13758,0.04582
670.17331,0.04423
669.20903,0.04262
668.24475,0.04104
667.28047,0.03957
666.31619,0.03846
665.35191,0.03763
664.38764,0.03677
663.42336,0.03602
662.45908,0.03590
661.49480,0.03659
660.53052,0.03772
659.56625,0.03885
658.60197,0.04002
657.63769,0.04146
656.67341,0.04328
655.70913,0.04550
654.74485,0.04811
653.78058,0.05092
652.81630,0.05375
651.85202,0.05654
650.88774,0.05916
649.92346,0.06153
648.95919,0.06389
647.99491,0.06646
647.03063,0.06917
646.06635,0.07192
645.10207,0.07473
644.13780,0.07765
643.17352,0.08071
642.20924,0.08405
641.24496,0.08755
640.28068,0.09112
639.31640,0.09474
638.35213,0.09803
637.38785,0.10046
636.42357,0.10181
635.45929,0.10222
634.49501,0.10189
633.53074,0.10114
632.56646,0.10006
631.60218,0.09837
630.63790,0.09617
629.67362,0.09425
628.70935,0.09332
627.74507,0.09324
626.78079,0.09350
625.81651,0.09341
624.85223,0.09292
623.88795,0.09301
622.92368,0.09431
621.95940,0.09654
620.99512,0.09880
620.03084,0.10036
619.06656,0.10162
618.10229,0.10293
617.13801,0.10410
616.17373,0.10536
615.20945,0.10678
614.24517,0.10794
613.28090,0.10859
612.31662,0.10888
611.35234,0.10925
610.38806,0.10962
609.42378,0.10955
608.45950,0.10882
607.49523,0.10736
606.53095,0.10544
605.56667,0.10360
604.60239,0.10174
603.63811,0.09914
602.67384,0.09535
601.70956,0.09046
600.74528,0.08440
599.78100,0.07728
