4498.35751,0.00137
4497.39323,0.00142
4496.42895,0.00147
4495.46467,0.00160
4494.50040,0.00175
4493.53612,0.00177
4492.57184,0.00165
4491.60756,0.00149
4490.64328,0.00137
4489.67901,0.00134
4488.71473,0.00137
4487.75045,0.00138
4486.78617,0.00142
4485.82189,0.00147
4484.85761,0.00154
4483.89334,0.00161
4482.92906,0.00162
4481.96478,0.00152
4481.00050,0.00144
4480.03622,0.00150
4479.07195,0.00158
4478.10767,0.00158
4477.14339,0.00152
4476.17911,0.00149
4475.21483,0.00150
4474.25055,0.00151
4473.28628,0.00145
4472.32200,0.00137
4471.35772,0.00139
4470.39344,0.00147
4469.42916,0.00150
4468.46489,0.00149
4467.50061,0.00150
4466.53633,0.00159
4465.57205,0.00167
4464.60777,0.00166
4463.64350,0.00163
4462.67922,0.00165
4461.71494,0.00163
4460.75066,0.00151
4459.78638,0.00135
4458.82210,0.00128
4457.85783,0.00141
4456.89355,0.00162
4455.92927,0.00170
4454.96499,0.00162
4454.00071,0.00152
4453.03644,0.00150
4452.07216,0.00161
4451.10788,0.00175
4450.14360,0.00178
4449.17932,0.00170
4448.21505,0.00160
4447.25077,0.00160
4446.28649,0.00171
4445.32221,0.00177
4444.35793,0.00165
4443.39365,0.00143
4442.42938,0.00130
4441.46510,0.00138
4440.50082,0.00155
4439.53654,0.00163
4438.57226,0.00161
4437.60799,0.00158
4436.64371,0.00161
4435.67943,0.00165
4434.71515,0.00160
4433.75087,0.00152
4432.78660,0.00152
4431.82232,0.00160
4430.85804,0.00163
4429.89376,0.00161
4428.92948,0.00167
4427.96520,0.00179
4427.00093,0.00189
4426.03665,0.00196
4425.07237,0.00196
4424.10809,0.00184
4423.14381,0.00168
4422.17954,0.00159
4421.21526,0.00160
4420.25098,0.00161
4419.28670,0.00159
4418.32242,0.00154
4417.35814,0.00151
4416.39387,0.00154
4415.42959,0.00161
4414.46531,0.00165
4413.50103,0.00163
4412.53675,0.00160
4411.57248,0.00161
4410.60820,0.00162
4409.64392,0.00161
4408.67964,0.00163
4407.71536,0.00165
4406.75109,0.00165
4405.78681,0.00165
4404.82253,0.00163
4403.85825,0.00156
4402.89397,0.00151
4401.92969,0.00153
4400.96542,0.00154
4400.00114,0.00148
4399.03686,0.00147
4398.07258,0.00158
4397.10830,0.00173
4396.14403,0.00179
4395.17975,0.00174
4394.21547,0.00170
4393.25119,0.00174
4392.28691,0.00175
4391.32264,0.00173
4390.35836,0.00177
4389.39408,0.00186
4388.42980,0.00191
4387.46552,0.00176
4386.50124,0.00153
4385.53697,0.00145
4384.57269,0.00153
4383.60841,0.00168
4382.64413,0.00178
4381.67985,0.00184
4380.71558,0.00190
4379.75130,0.00194
4378.78702,0.00189
4377.82274,0.00180
4376.85846,0.00174
4375.89418,0.00180
4374.92991,0.00199
4373.96563,0.00211
4373.00135,0.00201
4372.03707,0.00181
4371.07279,0.00168
4370.10852,0.00162
4369.14424,0.00156
4368.17996,0.00147
4367.21568,0.00144
4366.25140,0.00148
4365.28713,0.00154
4364.32285,0.00164
4363.35857,0.00172
4362.39429,0.00170
4361.43001,0.00164
4360.46573,0.00165
4359.50146,0.00168
4358.53718,0.00169
4357.57290,0.00174
4356.60862,0.00184
4355.64434,0.00185
4354.68007,0.00177
4353.71579,0.00174
4352.75151,0.00177
4351.78723,0.00179
4350.82295,0.00181
4349.85868,0.00180
4348.89440,0.00175
4347.93012,0.00170
4346.96584,0.00164
4346.00156,0.00160
4345.03728,0.00165
4344.07301,0.00173
4343.10873,0.00178
4342.14445,0.00177
4341.18017,0.00175
4340.21589,0.00175
4339.25162,0.00173
4338.28734,0.00172
4337.32306,0.00175
4336.35878,0.00185
4335.39450,0.00193
4334.43023,0.00194
4333.46595,0.00191
4332.50167,0.00188
4331.53739,0.00187
4330.57311,0.00188
4329.60883,0.00188
4328.64456,0.00190
4327.68028,0.00192
4326.71600,0.00194
4325.75172,0.00195
4324.78744,0.00192
4323.82317,0.00184
4322.85889,0.00179
4321.89461,0.00182
4320.93033,0.00190
4319.96605,0.00193
4319.00177,0.00185
4318.03750,0.00175
4317.07322,0.00171
4316.10894,0.00168
4315.14466,0.00163
4314.18038,0.00163
4313.21611,0.00166
4312.25183,0.00175
4311.28755,0.00185
4310.32327,0.00184
4309.35899,0.00173
4308.39472,0.00163
4307.43044,0.00155
4306.46616,0.00155
4305.50188,0.00161
4304.53760,0.00165
4303.57332,0.00168
4302.60905,0.00176
4301.64477,0.00186
4300.68049,0.00190
4299.71621,0.00189
4298.75193,0.00184
4297.78766,0.00179
4296.82338,0.00174
4295.85910,0.00172
4294.89482,0.00174
4293.93054,0.00173
4292.96627,0.00164
4292.00199,0.00152
4291.03771,0.00152
4290.07343,0.00165
4289.10915,0.00176
4288.14487,0.00180
4287.18060,0.00176
4286.21632,0.00174
4285.25204,0.00181
4284.28776,0.00186
4283.32348,0.00183
4282.35921,0.00181
4281.39493,0.00181
4280.43065,0.00177
4279.46637,0.00170
4278.50209,0.00169
4277.53782,0.00175
4276.57354,0.00181
4275.60926,0.00184
4274.64498,0.00183
4273.68070,0.00176
4272.71642,0.00168
4271.75215,0.00163
4270.78787,0.00166
4269.82359,0.00171
4268.85931,0.00178
4267.89503,0.00185
4266.93076,0.00185
4265.96648,0.00180
4265.00220,0.00177
4264.03792,0.00176
4263.07364,0.00175
4262.10936,0.00175
4261.14509,0.00173
4260.18081,0.00165
4259.21653,0.00160
4258.25225,0.00167
4257.28797,0.00181
4256.32370,0.00183
4255.35942,0.00176
4254.39514,0.00173
4253.43086,0.00180
4252.46658,0.00188
4251.50231,0.00186
4250.53803,0.00177
4249.57375,0.00167
4248.60947,0.00162
4247.64519,0.00168
4246.68091,0.00178
4245.71664,0.00183
4244.75236,0.00187
4243.78808,0.00191
4242.82380,0.00192
4241.85952,0.00186
4240.89525,0.00177
4239.93097,0.00174
4238.96669,0.00171
4238.00241,0.00166
4237.03813,0.00166
4236.07386,0.00172
4235.10958,0.00172
4234.14530,0.00167
4233.18102,0.00158
4232.21674,0.00150
4231.25246,0.00152
4230.28819,0.00158
4229.32391,0.00161
4228.35963,0.00163
4227.39535,0.00163
4226.43107,0.00165
4225.46680,0.00173
4224.50252,0.00180
4223.53824,0.00178
4222.57396,0.00175
4221.60968,0.00180
4220.64540,0.00180
4219.68113,0.00173
4218.71685,0.00170
4217.75257,0.00167
4216.78829,0.00166
4215.82401,0.00171
4214.85974,0.00172
4213.89546,0.00166
4212.93118,0.00168
4211.96690,0.00184
4211.00262,0.00196
4210.03835,0.00194
4209.07407,0.00180
4208.10979,0.00165
4207.14551,0.00159
4206.18123,0.00166
4205.21695,0.00171
4204.25268,0.00167
4203.28840,0.00162
4202.32412,0.00164
4201.35984,0.00169
4200.39556,0.00177
4199.43129,0.00184
4198.46701,0.00182
4197.50273,0.00173
4196.53845,0.00166
4195.57417,0.00166
4194.60990,0.00167
4193.64562,0.00166
4192.68134,0.00170
4191.71706,0.00174
4190.75278,0.00171
4189.78850,0.00161
4188.82423,0.00159
4187.85995,0.00167
4186.89567,0.00173
4185.93139,0.00171
4184.96711,0.00160
4184.00284,0.00154
4183.03856,0.00163
4182.07428,0.00176
4181.11000,0.00178
4180.14572,0.00176
4179.18145,0.00178
4178.21717,0.00175
4177.25289,0.00167
4176.28861,0.00166
4175.32433,0.00178
4174.36005,0.00189
4173.39578,0.00188
4172.43150,0.00181
4171.46722,0.00175
4170.50294,0.00171
4169.53866,0.00172
4168.57439,0.00173
4167.61011,0.00173
4166.64583,0.00175
4165.68155,0.00172
4164.71727,0.00168
4163.75299,0.00170
4162.78872,0.00177
4161.82444,0.00183
4160.86016,0.00186
4159.89588,0.00186
4158.93160,0.00178
4157.96733,0.00165
4157.00305,0.00165
4156.03877,0.00175
4155.07449,0.00179
4154.11021,0.00173
4153.14594,0.00167
4152.18166,0.00167
4151.21738,0.00174
4150.25310,0.00180
4149.28882,0.00179
4148.32454,0.00178
4147.36027,0.00182
4146.39599,0.00185
4145.43171,0.00183
4144.46743,0.00177
4143.50315,0.00167
4142.53888,0.00165
4141.57460,0.00177
4140.61032,0.00188
4139.64604,0.00181
4138.68176,0.00167
4137.71749,0.00162
4136.75321,0.00165
4135.78893,0.00166
4134.82465,0.00167
4133.86037,0.00167
4132.89609,0.00166
4131.93182,0.00168
4130.96754,0.00175
4130.00326,0.00179
4129.03898,0.00176
4128.07470,0.00179
4127.11043,0.00190
4126.14615,0.00196
4125.18187,0.00194
4124.21759,0.00189
4123.25331,0.00182
4122.28903,0.00173
4121.32476,0.00164
4120.36048,0.00159
4119.39620,0.00161
4118.43192,0.00163
4117.46764,0.00162
4116.50337,0.00159
4115.53909,0.00159
4114.57481,0.00161
4113.61053,0.00161
4112.64625,0.00159
4111.68198,0.00160
4110.71770,0.00164
4109.75342,0.00171
4108.78914,0.00178
4107.82486,0.00179
4106.86058,0.00177
4105.89631,0.00180
4104.93203,0.00181
4103.96775,0.00171
4103.00347,0.00162
4102.03919,0.00165
4101.07492,0.00177
4100.11064,0.00182
4099.14636,0.00177
4098.18208,0.00172
4097.21780,0.00174
4096.25353,0.00174
4095.28925,0.00167
4094.32497,0.00161
4093.36069,0.00161
4092.39641,0.00168
4091.43213,0.00176
4090.46786,0.00183
4089.50358,0.00184
4088.53930,0.00179
4087.57502,0.00171
4086.61074,0.00175
4085.64647,0.00189
4084.68219,0.00195
4083.71791,0.00188
4082.75363,0.00182
4081.78935,0.00183
4080.82508,0.00185
4079.86080,0.00184
4078.89652,0.00178
4077.93224,0.00173
4076.96796,0.00177
4076.00368,0.00186
4075.03941,0.00188
4074.07513,0.00177
4073.11085,0.00168
4072.14657,0.00174
4071.18229,0.00178
4070.21802,0.00172
4069.25374,0.00170
4068.28946,0.00175
4067.32518,0.00179
4066.36090,0.00179
4065.39662,0.00183
4064.43235,0.00187
4063.46807,0.00188
4062.50379,0.00184
4061.53951,0.00181
4060.57523,0.00178
4059.61096,0.00174
4058.64668,0.00170
4057.68240,0.00167
4056.71812,0.00164
4055.75384,0.00168
4054.78957,0.00174
4053.82529,0.00172
4052.86101,0.00166
4051.89673,0.00170
4050.93245,0.00177
4049.96817,0.00175
4049.00390,0.00170
4048.03962,0.00170
4047.07534,0.00171
4046.11106,0.00172
4045.14678,0.00171
4044.18251,0.00168
4043.21823,0.00163
4042.25395,0.00153
4041.28967,0.00145
4040.32539,0.00145
4039.36112,0.00148
4038.39684,0.00155
4037.43256,0.00164
4036.46828,0.00173
4035.50400,0.00180
4034.53972,0.00183
4033.57545,0.00181
4032.61117,0.00177
4031.64689,0.00176
4030.68261,0.00180
4029.71833,0.00183
4028.75406,0.00181
4027.78978,0.00175
4026.82550,0.00171
4025.86122,0.00170
4024.89694,0.00169
4023.93267,0.00170
4022.96839,0.00173
4022.00411,0.00171
4021.03983,0.00168
4020.07555,0.00166
4019.11127,0.00169
4018.14700,0.00171
4017.18272,0.00173
4016.21844,0.00174
4015.25416,0.00173
4014.28988,0.00167
4013.32561,0.00164
4012.36133,0.00164
4011.39705,0.00159
4010.43277,0.00154
4009.46849,0.00156
4008.50421,0.00161
4007.53994,0.00167
4006.57566,0.00170
4005.61138,0.00169
4004.64710,0.00170
4003.68282,0.00176
4002.71855,0.00181
4001.75427,0.00174
4000.78999,0.00159
3999.82571,0.00148
3998.86143,0.00151
3997.89716,0.00162
3996.93288,0.00171
3995.96860,0.00177
3995.00432,0.00181
3994.04004,0.00182
3993.07576,0.00176
3992.11149,0.00170
3991.14721,0.00174
3990.18293,0.00182
3989.21865,0.00181
3988.25437,0.00170
3987.29010,0.00160
3986.32582,0.00157
3985.36154,0.00161
3984.39726,0.00169
3983.43298,0.00174
3982.46871,0.00167
3981.50443,0.00155
3980.54015,0.00151
3979.57587,0.00157
3978.61159,0.00163
3977.64731,0.00163
3976.68304,0.00161
3975.71876,0.00160
3974.75448,0.00160
3973.79020,0.00156
3972.82592,0.00153
3971.86165,0.00159
3970.89737,0.00173
3969.93309,0.00183
3968.96881,0.00179
3968.00453,0.00166
3967.04025,0.00158
3966.07598,0.00156
3965.11170,0.00158
3964.14742,0.00160
3963.18314,0.00163
3962.21886,0.00166
3961.25459,0.00168
3960.29031,0.00163
3959.32603,0.00154
3958.36175,0.00150
3957.39747,0.00157
3956.43320,0.00164
3955.46892,0.00163
3954.50464,0.00153
3953.54036,0.00147
3952.57608,0.00149
3951.61180,0.00155
3950.64753,0.00157
3949.68325,0.00156
3948.71897,0.00154
3947.75469,0.00154
3946.79041,0.00157
3945.82614,0.00164
3944.86186,0.00169
3943.89758,0.00170
3942.93330,0.00166
3941.96902,0.00163
3941.00475,0.00163
3940.04047,0.00164
3939.07619,0.00166
3938.11191,0.00173
3937.14763,0.00182
3936.18335,0.00183
3935.21908,0.00174
3934.25480,0.00162
3933.29052,0.00157
3932.32624,0.00163
3931.36196,0.00175
3930.39769,0.00182
3929.43341,0.00178
3928.46913,0.00167
3927.50485,0.00158
3926.54057,0.00154
3925.57630,0.00155
3924.61202,0.00158
3923.64774,0.00161
3922.68346,0.00162
3921.71918,0.00160
3920.75490,0.00156
3919.79063,0.00150
3918.82635,0.00147
3917.86207,0.00149
3916.89779,0.00159
3915.93351,0.00172
3914.96924,0.00181
3914.00496,0.00182
3913.04068,0.00177
3912.07640,0.00173
3911.11212,0.00172
3910.14784,0.00172
3909.18357,0.00168
3908.21929,0.00160
3907.25501,0.00148
3906.29073,0.00138
3905.32645,0.00131
3904.36218,0.00131
3903.39790,0.00136
3902.43362,0.00143
3901.46934,0.00146
3900.50506,0.00146
3899.54079,0.00145
3898.57651,0.00148
3897.61223,0.00155
3896.64795,0.00162
3895.68367,0.00168
3894.71939,0.00174
3893.75512,0.00179
3892.79084,0.00178
3891.82656,0.00172
3890.86228,0.00165
3889.89800,0.00160
3888.93373,0.00158
3887.96945,0.00158
3887.00517,0.00159
3886.04089,0.00162
3885.07661,0.00165
3884.11234,0.00168
3883.14806,0.00170
3882.18378,0.00167
3881.21950,0.00160
3880.25522,0.00152
3879.29094,0.00150
3878.32667,0.00157
3877.36239,0.00167
3876.39811,0.00174
3875.43383,0.00176
3874.46955,0.00173
3873.50528,0.00167
3872.54100,0.00161
3871.57672,0.00155
3870.61244,0.00149
3869.64816,0.00146
3868.68389,0.00151
3867.71961,0.00162
3866.75533,0.00171
3865.79105,0.00174
3864.82677,0.00171
3863.86249,0.00165
3862.89822,0.00160
3861.93394,0.00158
3860.96966,0.00156
3860.00538,0.00153
3859.04110,0.00148
3858.07683,0.00147
3857.11255,0.00149
3856.14827,0.00150
3855.18399,0.00144
3854.21971,0.00132
3853.25543,0.00126
3852.29116,0.00132
3851.32688,0.00145
3850.36260,0.00158
3849.39832,0.00167
3848.43404,0.00170
3847.46977,0.00172
3846.50549,0.00176
3845.54121,0.00181
3844.57693,0.00182
3843.61265,0.00178
3842.64838,0.00173
3841.68410,0.00168
3840.71982,0.00163
3839.75554,0.00159
3838.79126,0.00157
3837.82698,0.00161
3836.86271,0.00169
3835.89843,0.00174
3834.93415,0.00169
3833.96987,0.00159
3833.00559,0.00152
3832.04132,0.00151
3831.07704,0.00157
3830.11276,0.00168
3829.14848,0.00175
3828.18420,0.00175
3827.21993,0.00168
3826.25565,0.00161
3825.29137,0.00157
3824.32709,0.00158
3823.36281,0.00163
3822.39853,0.00167
3821.43426,0.00168
3820.46998,0.00166
3819.50570,0.00163
3818.54142,0.00157
3817.57714,0.00148
3816.61287,0.00142
3815.64859,0.00144
3814.68431,0.00153
3813.72003,0.00160
3812.75575,0.00162
3811.79147,0.00161
3810.82720,0.00162
3809.86292,0.00162
3808.89864,0.00160
3807.93436,0.00158
3806.97008,0.00161
3806.00581,0.00171
3805.04153,0.00182
3804.07725,0.00183
3803.11297,0.00172
3802.14869,0.00154
3801.18442,0.00142
3800.22014,0.00139
3799.25586,0.00142
3798.29158,0.00149
3797.32730,0.00157
3796.36302,0.00166
3795.39875,0.00174
3794.43447,0.00179
3793.47019,0.00181
3792.50591,0.00179
3791.54163,0.00174
3790.57736,0.00169
3789.61308,0.00165
3788.64880,0.00164
3787.68452,0.00166
3786.72024,0.00168
3785.75597,0.00170
3784.79169,0.00174
3783.82741,0.00178
3782.86313,0.00183
3781.89885,0.00185
3780.93457,0.00183
3779.97030,0.00179
3779.00602,0.00174
3778.04174,0.00169
3777.07746,0.00165
3776.11318,0.00161
3775.14891,0.00158
3774.18463,0.00157
3773.22035,0.00159
3772.25607,0.00164
3771.29179,0.00167
3770.32752,0.00163
3769.36324,0.00156
3768.39896,0.00149
3767.43468,0.00148
3766.47040,0.00152
3765.50612,0.00162
3764.54185,0.00174
3763.57757,0.00180
3762.61329,0.00177
3761.64901,0.00167
3760.68473,0.00153
3759.72046,0.00141
3758.75618,0.00135
3757.79190,0.00139
3756.82762,0.00150
3755.86334,0.00163
3754.89906,0.00172
3753.93479,0.00174
3752.97051,0.00165
3752.00623,0.00150
3751.04195,0.00143
3750.07767,0.00149
3749.11340,0.00163
3748.14912,0.00177
3747.18484,0.00186
3746.22056,0.00185
3745.25628,0.00177
3744.29201,0.00165
3743.32773,0.00159
3742.36345,0.00161
3741.39917,0.00166
3740.43489,0.00168
3739.47061,0.00166
3738.50634,0.00165
3737.54206,0.00169
3736.57778,0.00174
3735.61350,0.00171
3734.64922,0.00161
3733.68495,0.00154
3732.72067,0.00154
3731.75639,0.00158
3730.79211,0.00162
3729.82783,0.00163
3728.86356,0.00161
3727.89928,0.00159
3726.93500,0.00156
3725.97072,0.00152
3725.00644,0.00149
3724.04216,0.00147
3723.07789,0.00146
3722.11361,0.00148
3721.14933,0.00155
3720.18505,0.00167
3719.22077,0.00179
3718.25650,0.00185
3717.29222,0.00182
3716.32794,0.00172
3715.36366,0.00161
3714.39938,0.00158
3713.43510,0.00164
3712.47083,0.00174
3711.50655,0.00182
3710.54227,0.00183
3709.57799,0.00177
3708.61371,0.00167
3707.64944,0.00157
3706.68516,0.00150
3705.72088,0.00150
3704.75660,0.00155
3703.79232,0.00163
3702.82805,0.00166
3701.86377,0.00165
3700.89949,0.00161
3699.93521,0.00159
3698.97093,0.00161
3698.00665,0.00164
3697.04238,0.00166
3696.07810,0.00165
3695.11382,0.00164
3694.14954,0.00166
3693.18526,0.00172
3692.22099,0.00181
3691.25671,0.00189
3690.29243,0.00193
3689.32815,0.00189
3688.36387,0.00180
3687.39960,0.00170
3686.43532,0.00163
3685.47104,0.00161
3684.50676,0.00162
3683.54248,0.00163
3682.57820,0.00163
3681.61393,0.00165
3680.64965,0.00167
3679.68537,0.00168
3678.72109,0.00169
3677.75681,0.00170
3676.79254,0.00172
3675.82826,0.00177
3674.86398,0.00183
3673.89970,0.00187
3672.93542,0.00188
3671.97115,0.00188
3671.00687,0.00188
3670.04259,0.00184
3669.07831,0.00178
3668.11403,0.00173
3667.14975,0.00170
3666.18548,0.00168
3665.22120,0.00164
3664.25692,0.00158
3663.29264,0.00155
3662.32836,0.00156
3661.36409,0.00162
3660.39981,0.00168
3659.43553,0.00170
3658.47125,0.00168
3657.50697,0.00163
3656.54269,0.00157
3655.57842,0.00153
3654.61414,0.00155
3653.64986,0.00163
3652.68558,0.00175
3651.72130,0.00182
3650.75703,0.00181
3649.79275,0.00173
3648.82847,0.00165
3647.86419,0.00161
3646.89991,0.00161
3645.93564,0.00160
3644.97136,0.00158
3644.00708,0.00158
3643.04280,0.00161
3642.07852,0.00168
3641.11424,0.00174
3640.14997,0.00177
3639.18569,0.00178
3638.22141,0.00177
3637.25713,0.00173
3636.29285,0.00166
3635.32858,0.00161
3634.36430,0.00162
3633.40002,0.00167
3632.43574,0.00169
3631.47146,0.00165
3630.50719,0.00155
3629.54291,0.00145
3628.57863,0.00138
3627.61435,0.00139
3626.65007,0.00149
3625.68579,0.00161
3624.72152,0.00169
3623.75724,0.00169
3622.79296,0.00164
3621.82868,0.00159
3620.86440,0.00157
3619.90013,0.00160
3618.93585,0.00167
3617.97157,0.00171
3617.00729,0.00172
3616.04301,0.00170
3615.07874,0.00166
3614.11446,0.00163
3613.15018,0.00161
3612.18590,0.00161
3611.22162,0.00161
3610.25734,0.00160
3609.29307,0.00158
3608.32879,0.00158
3607.36451,0.00162
3606.40023,0.00170
3605.43595,0.00177
3604.47168,0.00181
3603.50740,0.00179
3602.54312,0.00173
3601.57884,0.00166
3600.61456,0.00158
3599.65028,0.00155
3598.68601,0.00159
3597.72173,0.00169
3596.75745,0.00178
3595.79317,0.00181
3594.82889,0.00180
3593.86462,0.00180
3592.90034,0.00180
3591.93606,0.00177
3590.97178,0.00171
3590.00750,0.00166
3589.04323,0.00162
3588.07895,0.00158
3587.11467,0.00153
3586.15039,0.00148
3585.18611,0.00144
3584.22183,0.00142
3583.25756,0.00145
3582.29328,0.00155
3581.32900,0.00170
3580.36472,0.00182
3579.40044,0.00185
3578.43617,0.00181
3577.47189,0.00175
3576.50761,0.00171
3575.54333,0.00169
3574.57905,0.00168
3573.61478,0.00169
3572.65050,0.00177
3571.68622,0.00191
3570.72194,0.00201
3569.75766,0.00200
3568.79338,0.00191
3567.82911,0.00186
3566.86483,0.00187
3565.90055,0.00189
3564.93627,0.00188
3563.97199,0.00184
3563.00772,0.00182
3562.04344,0.00182
3561.07916,0.00181
3560.11488,0.00177
3559.15060,0.00175
3558.18632,0.00174
3557.22205,0.00177
3556.25777,0.00183
3555.29349,0.00189
3554.32921,0.00191
3553.36493,0.00189
3552.40066,0.00184
3551.43638,0.00180
3550.47210,0.00176
3549.50782,0.00174
3548.54354,0.00175
3547.57927,0.00175
3546.61499,0.00174
3545.65071,0.00174
3544.68643,0.00176
3543.72215,0.00178
3542.75787,0.00177
3541.79360,0.00172
3540.82932,0.00169
3539.86504,0.00170
3538.90076,0.00174
3537.93648,0.00175
3536.97221,0.00173
3536.00793,0.00177
3535.04365,0.00185
3534.07937,0.00189
3533.11509,0.00186
3532.15082,0.00184
3531.18654,0.00187
3530.22226,0.00191
3529.25798,0.00193
3528.29370,0.00192
3527.32942,0.00187
3526.36515,0.00179
3525.40087,0.00173
3524.43659,0.00175
3523.47231,0.00183
3522.50803,0.00189
3521.54376,0.00189
3520.57948,0.00187
3519.61520,0.00192
3518.65092,0.00198
3517.68664,0.00193
3516.72237,0.00181
3515.75809,0.00176
3514.79381,0.00184
3513.82953,0.00194
3512.86525,0.00197
3511.90097,0.00194
3510.93670,0.00187
3509.97242,0.00177
3509.00814,0.00167
3508.04386,0.00169
3507.07958,0.00182
3506.11531,0.00194
3505.15103,0.00197
3504.18675,0.00190
3503.22247,0.00183
3502.25819,0.00188
3501.29391,0.00198
3500.32964,0.00199
3499.36536,0.00189
3498.40108,0.00182
3497.43680,0.00185
3496.47252,0.00192
3495.50825,0.00195
3494.54397,0.00195
3493.57969,0.00195
3492.61541,0.00194
3491.65113,0.00192
3490.68686,0.00191
3489.72258,0.00196
3488.75830,0.00199
3487.79402,0.00195
3486.82974,0.00191
3485.86546,0.00192
3484.90119,0.00194
3483.93691,0.00195
3482.97263,0.00192
3482.00835,0.00186
3481.04407,0.00183
3480.07980,0.00183
3479.11552,0.00184
3478.15124,0.00188
3477.18696,0.00195
3476.22268,0.00200
3475.25841,0.00200
3474.29413,0.00198
3473.32985,0.00197
3472.36557,0.00201
3471.40129,0.00206
3470.43701,0.00204
3469.47274,0.00197
3468.50846,0.00191
3467.54418,0.00192
3466.57990,0.00197
3465.61562,0.00201
3464.65135,0.00202
3463.68707,0.00198
3462.72279,0.00192
3461.75851,0.00190
3460.79423,0.00191
3459.82995,0.00189
3458.86568,0.00188
3457.90140,0.00187
3456.93712,0.00188
3455.97284,0.00191
3455.00856,0.00189
3454.04429,0.00184
3453.08001,0.00180
3452.11573,0.00180
3451.15145,0.00185
3450.18717,0.00190
3449.22290,0.00191
3448.25862,0.00191
3447.29434,0.00194
3446.33006,0.00197
3445.36578,0.00199
3444.40150,0.00198
3443.43723,0.00196
3442.47295,0.00196
3441.50867,0.00192
3440.54439,0.00182
3439.58011,0.00172
3438.61584,0.00172
3437.65156,0.00179
3436.68728,0.00185
3435.72300,0.00193
3434.75872,0.00205
3433.79445,0.00214
3432.83017,0.00212
3431.86589,0.00205
3430.90161,0.00195
3429.93733,0.00190
3428.97305,0.00194
3428.00878,0.00207
3427.04450,0.00219
3426.08022,0.00226
3425.11594,0.00223
3424.15166,0.00216
3423.18739,0.00209
3422.22311,0.00205
3421.25883,0.00205
3420.29455,0.00211
3419.33027,0.00217
3418.36600,0.00212
3417.40172,0.00205
3416.43744,0.00207
3415.47316,0.00212
3414.50888,0.00210
3413.54460,0.00203
3412.58033,0.00197
3411.61605,0.00192
3410.65177,0.00191
3409.68749,0.00196
3408.72321,0.00203
3407.75894,0.00206
3406.79466,0.00208
3405.83038,0.00211
3404.86610,0.00212
3403.90182,0.00210
3402.93754,0.00206
3401.97327,0.00200
3401.00899,0.00192
3400.04471,0.00187
3399.08043,0.00184
3398.11615,0.00181
3397.15188,0.00179
3396.18760,0.00183
3395.22332,0.00191
3394.25904,0.00197
3393.29476,0.00195
3392.33049,0.00188
3391.36621,0.00186
3390.40193,0.00189
3389.43765,0.00192
3388.47337,0.00189
3387.50909,0.00183
3386.54482,0.00184
3385.58054,0.00194
3384.61626,0.00199
3383.65198,0.00193
3382.68770,0.00184
3381.72343,0.00180
3380.75915,0.00181
3379.79487,0.00184
3378.83059,0.00185
3377.86631,0.00180
3376.90204,0.00179
3375.93776,0.00182
3374.97348,0.00187
3374.00920,0.00187
3373.04492,0.00182
3372.08064,0.00183
3371.11637,0.00190
3370.15209,0.00196
3369.18781,0.00196
3368.22353,0.00190
3367.25925,0.00181
3366.29498,0.00176
3365.33070,0.00175
3364.36642,0.00174
3363.40214,0.00170
3362.43786,0.00170
3361.47359,0.00173
3360.50931,0.00177
3359.54503,0.00182
3358.58075,0.00184
3357.61647,0.00180
3356.65219,0.00174
3355.68792,0.00176
3354.72364,0.00185
3353.75936,0.00193
3352.79508,0.00195
3351.83080,0.00192
3350.86653,0.00187
3349.90225,0.00183
3348.93797,0.00178
3347.97369,0.00180
3347.00941,0.00190
3346.04513,0.00196
3345.08086,0.00197
3344.11658,0.00194
3343.15230,0.00189
3342.18802,0.00187
3341.22374,0.00189
3340.25947,0.00189
3339.29519,0.00187
3338.33091,0.00190
3337.36663,0.00196
3336.40235,0.00200
3335.43808,0.00201
3334.47380,0.00203
3333.50952,0.00204
3332.54524,0.00206
3331.58096,0.00206
3330.61668,0.00203
3329.65241,0.00201
3328.68813,0.00201
3327.72385,0.00203
3326.75957,0.00204
3325.79529,0.00206
3324.83102,0.00210
3323.86674,0.00211
3322.90246,0.00209
3321.93818,0.00211
3320.97390,0.00214
3320.00963,0.00211
3319.04535,0.00206
3318.08107,0.00202
3317.11679,0.00200
3316.15251,0.00199
3315.18823,0.00202
3314.22396,0.00209
3313.25968,0.00216
3312.29540,0.00225
3311.33112,0.00232
3310.36684,0.00232
3309.40257,0.00227
3308.43829,0.00222
3307.47401,0.00220
3306.50973,0.00224
3305.54545,0.00234
3304.58117,0.00243
3303.61690,0.00246
3302.65262,0.00243
3301.68834,0.00238
3300.72406,0.00237
3299.75978,0.00242
3298.79551,0.00247
3297.83123,0.00248
3296.86695,0.00249
3295.90267,0.00250
3294.93839,0.00249
3293.97412,0.00245
3293.00984,0.00241
3292.04556,0.00240
3291.08128,0.00240
3290.11700,0.00232
3289.15272,0.00219
3288.18845,0.00213
3287.22417,0.00215
3286.25989,0.00218
3285.29561,0.00216
3284.33133,0.00212
3283.36706,0.00208
3282.40278,0.00208
3281.43850,0.00207
3280.47422,0.00208
3279.50994,0.00212
3278.54567,0.00215
3277.58139,0.00213
3276.61711,0.00205
3275.65283,0.00198
3274.68855,0.00195
3273.72427,0.00196
3272.76000,0.00197
3271.79572,0.00196
3270.83144,0.00195
3269.86716,0.00191
3268.90288,0.00188
3267.93861,0.00188
3266.97433,0.00189
3266.01005,0.00187
3265.04577,0.00184
3264.08149,0.00182
3263.11722,0.00180
3262.15294,0.00177
3261.18866,0.00177
3260.22438,0.00179
3259.26010,0.00184
3258.29582,0.00191
3257.33155,0.00197
3256.36727,0.00197
3255.40299,0.00191
3254.43871,0.00185
3253.47443,0.00182
3252.51016,0.00178
3251.54588,0.00173
3250.58160,0.00175
3249.61732,0.00181
3248.65304,0.00182
3247.68876,0.00178
3246.72449,0.00172
3245.76021,0.00171
3244.79593,0.00175
3243.83165,0.00180
3242.86737,0.00177
3241.90310,0.00171
3240.93882,0.00175
3239.97454,0.00184
3239.01026,0.00187
3238.04598,0.00186
3237.08171,0.00186
3236.11743,0.00184
3235.15315,0.00181
3234.18887,0.00181
3233.22459,0.00178
3232.26031,0.00176
3231.29604,0.00183
3230.33176,0.00196
3229.36748,0.00200
3228.40320,0.00192
3227.43892,0.00182
3226.47465,0.00177
3225.51037,0.00176
3224.54609,0.00176
3223.58181,0.00176
3222.61753,0.00174
3221.65326,0.00171
3220.68898,0.00170
3219.72470,0.00168
3218.76042,0.00168
3217.79614,0.00175
3216.83186,0.00183
3215.86759,0.00188
3214.90331,0.00192
3213.93903,0.00190
3212.97475,0.00185
3212.01047,0.00180
3211.04620,0.00176
3210.08192,0.00176
3209.11764,0.00180
3208.15336,0.00187
3207.18908,0.00189
3206.22480,0.00187
3205.26053,0.00182
3204.29625,0.00177
3203.33197,0.00179
3202.36769,0.00185
3201.40341,0.00189
3200.43914,0.00191
3199.47486,0.00188
3198.51058,0.00181
3197.54630,0.00176
3196.58202,0.00173
3195.61775,0.00170
3194.65347,0.00169
3193.68919,0.00174
3192.72491,0.00179
3191.76063,0.00181
3190.79635,0.00179
3189.83208,0.00175
3188.86780,0.00172
3187.90352,0.00175
3186.93924,0.00181
3185.97496,0.00182
3185.01069,0.00177
3184.04641,0.00171
3183.08213,0.00167
3182.11785,0.00167
3181.15357,0.00165
3180.18930,0.00160
3179.22502,0.00157
3178.26074,0.00162
3177.29646,0.00170
3176.33218,0.00172
3175.36790,0.00172
3174.40363,0.00173
3173.43935,0.00172
3172.47507,0.00169
3171.51079,0.00165
3170.54651,0.00158
3169.58224,0.00156
3168.61796,0.00164
3167.65368,0.00177
3166.68940,0.00182
3165.72512,0.00175
3164.76085,0.00163
3163.79657,0.00154
3162.83229,0.00153
3161.86801,0.00155
3160.90373,0.00158
3159.93945,0.00159
3158.97518,0.00156
3158.01090,0.00153
3157.04662,0.00154
3156.08234,0.00158
3155.11806,0.00163
3154.15379,0.00162
3153.18951,0.00157
3152.22523,0.00155
3151.26095,0.00159
3150.29667,0.00162
3149.33239,0.00163
3148.36812,0.00167
3147.40384,0.00173
3146.43956,0.00175
3145.47528,0.00174
3144.51100,0.00171
3143.54673,0.00171
3142.58245,0.00175
3141.61817,0.00179
3140.65389,0.00181
3139.68961,0.00182
3138.72534,0.00181
3137.76106,0.00177
3136.79678,0.00176
3135.83250,0.00175
3134.86822,0.00167
3133.90394,0.00154
3132.93967,0.00150
3131.97539,0.00160
3131.01111,0.00171
3130.04683,0.00175
3129.08255,0.00177
3128.11828,0.00175
3127.15400,0.00173
3126.18972,0.00177
3125.22544,0.00184
3124.26116,0.00185
3123.29689,0.00180
3122.33261,0.00177
3121.36833,0.00178
3120.40405,0.00171
3119.43977,0.00162
3118.47549,0.00161
3117.51122,0.00166
3116.54694,0.00166
3115.58266,0.00161
3114.61838,0.00156
3113.65410,0.00156
3112.68983,0.00157
3111.72555,0.00163
3110.76127,0.00174
3109.79699,0.00179
3108.83271,0.00173
3107.86844,0.00169
3106.90416,0.00172
3105.93988,0.00174
3104.97560,0.00175
3104.01132,0.00180
3103.04704,0.00182
3102.08277,0.00179
3101.11849,0.00179
3100.15421,0.00181
3099.18993,0.00179
3098.22565,0.00179
3097.26138,0.00179
3096.29710,0.00174
3095.33282,0.00169
3094.36854,0.00169
3093.40426,0.00170
3092.43998,0.00173
3091.47571,0.00175
3090.51143,0.00178
3089.54715,0.00184
3088.58287,0.00189
3087.61859,0.00191
3086.65432,0.00187
3085.69004,0.00182
3084.72576,0.00181
3083.76148,0.00183
3082.79720,0.00183
3081.83293,0.00178
3080.86865,0.00177
3079.90437,0.00182
3078.94009,0.00184
3077.97581,0.00178
3077.01153,0.00171
3076.04726,0.00171
3075.08298,0.00171
3074.11870,0.00170
3073.15442,0.00169
3072.19014,0.00175
3071.22587,0.00181
3070.26159,0.00186
3069.29731,0.00191
3068.33303,0.00195
3067.36875,0.00196
3066.40448,0.00197
3065.44020,0.00200
3064.47592,0.00200
3063.51164,0.00196
3062.54736,0.00189
3061.58308,0.00186
3060.61881,0.00185
3059.65453,0.00187
3058.69025,0.00191
3057.72597,0.00191
3056.76169,0.00185
3055.79742,0.00182
3054.83314,0.00186
3053.86886,0.00191
3052.90458,0.00194
3051.94030,0.00191
3050.97602,0.00187
3050.01175,0.00186
3049.04747,0.00190
3048.08319,0.00191
3047.11891,0.00190
3046.15463,0.00192
3045.19036,0.00194
3044.22608,0.00196
3043.26180,0.00200
3042.29752,0.00200
3041.33324,0.00192
3040.36897,0.00183
3039.40469,0.00179
3038.44041,0.00179
3037.47613,0.00180
3036.51185,0.00181
3035.54757,0.00184
3034.58330,0.00189
3033.61902,0.00193
3032.65474,0.00194
3031.69046,0.00196
3030.72618,0.00202
3029.76191,0.00205
3028.79763,0.00203
3027.83335,0.00197
3026.86907,0.00193
3025.90479,0.00192
3024.94052,0.00196
3023.97624,0.00201
3023.01196,0.00202
3022.04768,0.00201
3021.08340,0.00204
3020.11912,0.00208
3019.15485,0.00207
3018.19057,0.00205
3017.22629,0.00203
3016.26201,0.00201
3015.29773,0.00204
3014.33346,0.00208
3013.36918,0.00207
3012.40490,0.00203
3011.44062,0.00199
3010.47634,0.00203
3009.51207,0.00212
3008.54779,0.00220
3007.58351,0.00227
3006.61923,0.00230
3005.65495,0.00230
3004.69067,0.00231
3003.72640,0.00231
3002.76212,0.00235
3001.79784,0.00242
3000.83356,0.00249
2999.86928,0.00257
2998.90501,0.00264
2997.94073,0.00271
2996.97645,0.00283
2996.01217,0.00298
2995.04789,0.00307
2994.08361,0.00310
2993.11934,0.00313
2992.15506,0.00322
2991.19078,0.00338
2990.22650,0.00355
2989.26222,0.00367
2988.29795,0.00379
2987.33367,0.00395
2986.36939,0.00418
2985.40511,0.00445
2984.44083,0.00470
2983.47656,0.00491
2982.51228,0.00511
2981.54800,0.00536
2980.58372,0.00565
2979.61944,0.00592
2978.65516,0.00621
2977.69089,0.00657
2976.72661,0.00698
2975.76233,0.00740
2974.79805,0.00782
2973.83377,0.00821
2972.86950,0.00858
2971.90522,0.00902
2970.94094,0.00952
2969.97666,0.01002
2969.01238,0.01054
2968.04811,0.01105
2967.08383,0.01154
2966.11955,0.01204
2965.15527,0.01256
2964.19099,0.01296
2963.22671,0.01326
2962.26244,0.01358
2961.29816,0.01384
2960.33388,0.01401
2959.36960,0.01411
2958.40532,0.01413
2957.44105,0.01399
2956.47677,0.01371
2955.51249,0.01339
2954.54821,0.01308
2953.58393,0.01276
2952.61966,0.01239
2951.65538,0.01201
2950.69110,0.01165
2949.72682,0.01131
2948.76254,0.01097
2947.79826,0.01066
2946.83399,0.01045
2945.86971,0.01039
2944.90543,0.01049
2943.94115,0.01071
2942.97687,0.01098
2942.01260,0.01125
2941.04832,0.01151
2940.08404,0.01178
2939.11976,0.01214
2938.15548,0.01258
2937.19120,0.01303
2936.22693,0.01341
2935.26265,0.01373
2934.29837,0.01401
2933.33409,0.01435
2932.36981,0.01475
2931.40554,0.01509
2930.44126,0.01527
2929.47698,0.01532
2928.51270,0.01536
2927.54842,0.01545
2926.58415,0.01556
2925.61987,0.01561
2924.65559,0.01566
2923.69131,0.01576
2922.72703,0.01588
2921.76275,0.01598
2920.79848,0.01609
2919.83420,0.01621
2918.86992,0.01631
2917.90564,0.01634
2916.94136,0.01628
2915.97709,0.01607
2915.01281,0.01568
2914.04853,0.01516
2913.08425,0.01461
2912.11997,0.01402
2911.15570,0.01346
2910.19142,0.01301
2909.22714,0.01262
2908.26286,0.01224
2907.29858,0.01188
2906.33430,0.01155
2905.37003,0.01123
2904.40575,0.01094
2903.44147,0.01064
2902.47719,0.01032
2901.51291,0.01000
2900.54864,0.00970
2899.58436,0.00940
2898.62008,0.00913
2897.65580,0.00890
2896.69152,0.00865
2895.72724,0.00836
2894.76297,0.00810
2893.79869,0.00787
2892.83441,0.00768
2891.87013,0.00749
2890.90585,0.00729
2889.94158,0.00709
2888.97730,0.00692
2888.01302,0.00679
2887.04874,0.00668
2886.08446,0.00662
2885.12019,0.00666
2884.15591,0.00677
2883.19163,0.00686
2882.22735,0.00696
2881.26307,0.00715
2880.29879,0.00741
2879.33452,0.00770
2878.37024,0.00797
2877.40596,0.00823
2876.44168,0.00851
2875.47740,0.00879
2874.51313,0.00899
2873.54885,0.00903
2872.58457,0.00901
2871.62029,0.00896
2870.65601,0.00885
2869.69174,0.00872
2868.72746,0.00862
2867.76318,0.00858
2866.79890,0.00860
2865.83462,0.00862
2864.87034,0.00871
2863.90607,0.00894
2862.94179,0.00922
2861.97751,0.00940
2861.01323,0.00951
2860.04895,0.00961
2859.08468,0.00966
2858.12040,0.00959
2857.15612,0.00942
2856.19184,0.00923
2855.22756,0.00907
2854.26329,0.00896
2853.29901,0.00889
2852.33473,0.00881
2851.37045,0.00876
2850.40617,0.00871
2849.44189,0.00855
2848.47762,0.00821
2847.51334,0.00767
2846.54906,0.00699
2845.58478,0.00633
2844.62050,0.00580
2843.65623,0.00532
2842.69195,0.00487
2841.72767,0.00449
2840.76339,0.00425
2839.79911,0.00412
2838.83483,0.00400
2837.87056,0.00387
2836.90628,0.00377
2835.94200,0.00368
2834.97772,0.00355
2834.01344,0.00338
2833.04917,0.00320
2832.08489,0.00308
2831.12061,0.00306
2830.15633,0.00308
2829.19205,0.00305
2828.22778,0.00297
2827.26350,0.00292
2826.29922,0.00293
2825.33494,0.00290
2824.37066,0.00281
2823.40638,0.00274
2822.44211,0.00276
2821.47783,0.00284
2820.51355,0.00290
2819.54927,0.00290
2818.58499,0.00288
2817.62072,0.00285
2816.65644,0.00283
2815.69216,0.00283
2814.72788,0.00282
2813.76360,0.00275
2812.79933,0.00265
2811.83505,0.00258
2810.87077,0.00252
2809.90649,0.00248
2808.94221,0.00245
2807.97793,0.00242
2807.01366,0.00238
2806.04938,0.00233
2805.08510,0.00231
2804.12082,0.00233
2803.15654,0.00231
2802.19227,0.00226
2801.22799,0.00221
2800.26371,0.00216
2799.29943,0.00215
2798.33515,0.00219
2797.37087,0.00221
2796.40660,0.00221
2795.44232,0.00220
2794.47804,0.00218
2793.51376,0.00216
2792.54948,0.00213
2791.58521,0.00206
2790.62093,0.00201
2789.65665,0.00201
2788.69237,0.00202
2787.72809,0.00204
2786.76382,0.00209
2785.79954,0.00211
2784.83526,0.00208
2783.87098,0.00207
2782.90670,0.00206
2781.94242,0.00203
2780.97815,0.00199
2780.01387,0.00196
2779.04959,0.00196
2778.08531,0.00197
2777.12103,0.00197
2776.15676,0.00197
2775.19248,0.00197
2774.22820,0.00197
2773.26392,0.00199
2772.29964,0.00199
2771.33537,0.00197
2770.37109,0.00195
2769.40681,0.00192
2768.44253,0.00190
2767.47825,0.00191
2766.51397,0.00194
2765.54970,0.00192
2764.58542,0.00190
2763.62114,0.00190
2762.65686,0.00193
2761.69258,0.00195
2760.72831,0.00193
2759.76403,0.00188
2758.79975,0.00190
2757.83547,0.00198
2756.87119,0.00202
2755.90692,0.00196
2754.94264,0.00188
2753.97836,0.00187
2753.01408,0.00191
2752.04980,0.00195
2751.08552,0.00197
2750.12125,0.00196
2749.15697,0.00196
2748.19269,0.00196
2747.22841,0.00196
2746.26413,0.00195
2745.29986,0.00194
2744.33558,0.00197
2743.37130,0.00200
2742.40702,0.00200
2741.44274,0.00194
2740.47846,0.00187
2739.51419,0.00184
2738.54991,0.00185
2737.58563,0.00188
2736.62135,0.00190
2735.65707,0.00188
2734.69280,0.00190
2733.72852,0.00194
2732.76424,0.00194
2731.79996,0.00192
2730.83568,0.00193
2729.87141,0.00193
2728.90713,0.00190
2727.94285,0.00188
2726.97857,0.00185
2726.01429,0.00186
2725.05001,0.00191
2724.08574,0.00193
2723.12146,0.00191
2722.15718,0.00185
2721.19290,0.00181
2720.22862,0.00180
2719.26435,0.00178
2718.30007,0.00178
2717.33579,0.00180
2716.37151,0.00183
2715.40723,0.00182
2714.44296,0.00176
2713.47868,0.00173
2712.51440,0.00178
2711.55012,0.00183
2710.58584,0.00183
2709.62156,0.00183
2708.65729,0.00185
2707.69301,0.00181
2706.72873,0.00176
2705.76445,0.00172
2704.80017,0.00172
2703.83590,0.00174
2702.87162,0.00176
2701.90734,0.00179
2700.94306,0.00182
2699.97878,0.00185
2699.01451,0.00184
2698.05023,0.00185
2697.08595,0.00186
2696.12167,0.00186
2695.15739,0.00183
2694.19311,0.00180
2693.22884,0.00179
2692.26456,0.00179
2691.30028,0.00179
2690.33600,0.00176
2689.37172,0.00171
2688.40745,0.00170
2687.44317,0.00171
2686.47889,0.00173
2685.51461,0.00177
2684.55033,0.00183
2683.58605,0.00184
2682.62178,0.00179
2681.65750,0.00174
2680.69322,0.00178
2679.72894,0.00185
2678.76466,0.00187
2677.80039,0.00184
2676.83611,0.00179
2675.87183,0.00176
2674.90755,0.00177
2673.94327,0.00179
2672.97900,0.00180
2672.01472,0.00181
2671.05044,0.00182
2670.08616,0.00184
2669.12188,0.00183
2668.15760,0.00179
2667.19333,0.00177
2666.22905,0.00179
2665.26477,0.00181
2664.30049,0.00180
2663.33621,0.00180
2662.37194,0.00183
2661.40766,0.00183
2660.44338,0.00179
2659.47910,0.00176
2658.51482,0.00179
2657.55055,0.00184
2656.58627,0.00188
2655.62199,0.00189
2654.65771,0.00191
2653.69343,0.00194
2652.72915,0.00195
2651.76488,0.00191
2650.80060,0.00189
2649.83632,0.00189
2648.87204,0.00190
2647.90776,0.00191
2646.94349,0.00189
2645.97921,0.00183
2645.01493,0.00181
2644.05065,0.00183
2643.08637,0.00184
2642.12209,0.00183
2641.15782,0.00183
2640.19354,0.00187
2639.22926,0.00192
2638.26498,0.00193
2637.30070,0.00192
2636.33643,0.00189
2635.37215,0.00185
2634.40787,0.00183
2633.44359,0.00182
2632.47931,0.00176
2631.51504,0.00169
2630.55076,0.00170
2629.58648,0.00177
2628.62220,0.00186
2627.65792,0.00191
2626.69364,0.00191
2625.72937,0.00193
2624.76509,0.00193
2623.80081,0.00186
2622.83653,0.00184
2621.87225,0.00189
2620.90798,0.00183
2619.94370,0.00170
2618.97942,0.00168
2618.01514,0.00178
2617.05086,0.00185
2616.08659,0.00182
2615.12231,0.00178
2614.15803,0.00179
2613.19375,0.00181
2612.22947,0.00176
2611.26519,0.00170
2610.30092,0.00171
2609.33664,0.00177
2608.37236,0.00179
2607.40808,0.00173
2606.44380,0.00167
2605.47953,0.00168
2604.51525,0.00168
2603.55097,0.00168
2602.58669,0.00171
2601.62241,0.00174
2600.65814,0.00178
2599.69386,0.00184
2598.72958,0.00190
2597.76530,0.00190
2596.80102,0.00186
2595.83674,0.00184
2594.87247,0.00181
2593.90819,0.00176
2592.94391,0.00174
2591.97963,0.00175
2591.01535,0.00173
2590.05108,0.00169
2589.08680,0.00169
2588.12252,0.00174
2587.15824,0.00177
2586.19396,0.00177
2585.22968,0.00173
2584.26541,0.00165
2583.30113,0.00162
2582.33685,0.00167
2581.37257,0.00172
2580.40829,0.00174
2579.44402,0.00176
2578.47974,0.00178
2577.51546,0.00176
2576.55118,0.00174
2575.58690,0.00177
2574.62263,0.00175
2573.65835,0.00168
2572.69407,0.00167
2571.72979,0.00174
2570.76551,0.00180
2569.80123,0.00183
2568.83696,0.00178
2567.87268,0.00169
2566.90840,0.00168
2565.94412,0.00174
2564.97984,0.00176
2564.01557,0.00175
2563.05129,0.00179
2562.08701,0.00187
2561.12273,0.00188
2560.15845,0.00179
2559.19418,0.00173
2558.22990,0.00177
2557.26562,0.00178
2556.30134,0.00171
2555.33706,0.00167
2554.37278,0.00171
2553.40851,0.00172
2552.44423,0.00168
2551.47995,0.00169
2550.51567,0.00177
2549.55139,0.00182
2548.58712,0.00179
2547.62284,0.00176
2546.65856,0.00176
2545.69428,0.00174
2544.73000,0.00174
2543.76572,0.00180
2542.80145,0.00187
2541.83717,0.00184
2540.87289,0.00178
2539.90861,0.00177
2538.94433,0.00176
2537.98006,0.00171
2537.01578,0.00165
2536.05150,0.00161
2535.08722,0.00163
2534.12294,0.00173
2533.15867,0.00182
2532.19439,0.00183
2531.23011,0.00177
2530.26583,0.00174
2529.30155,0.00180
2528.33727,0.00189
2527.37300,0.00186
2526.40872,0.00177
2525.44444,0.00172
2524.48016,0.00171
2523.51588,0.00177
2522.55161,0.00187
2521.58733,0.00186
2520.62305,0.00175
2519.65877,0.00163
2518.69449,0.00153
2517.73022,0.00152
2516.76594,0.00163
2515.80166,0.00173
2514.83738,0.00175
2513.87310,0.00171
2512.90882,0.00170
2511.94455,0.00172
2510.98027,0.00171
2510.01599,0.00163
2509.05171,0.00156
2508.08743,0.00156
2507.12316,0.00160
2506.15888,0.00159
2505.19460,0.00156
2504.23032,0.00156
2503.26604,0.00153
2502.30177,0.00156
2501.33749,0.00169
2500.37321,0.00181
2499.40893,0.00183
2498.44465,0.00175
2497.48037,0.00161
2496.51610,0.00157
2495.55182,0.00161
2494.58754,0.00165
2493.62326,0.00164
2492.65898,0.00166
2491.69471,0.00168
2490.73043,0.00164
2489.76615,0.00159
2488.80187,0.00159
2487.83759,0.00160
2486.87331,0.00159
2485.90904,0.00157
2484.94476,0.00158
2483.98048,0.00158
2483.01620,0.00156
2482.05192,0.00156
2481.08765,0.00156
2480.12337,0.00157
2479.15909,0.00161
2478.19481,0.00168
2477.23053,0.00174
2476.26626,0.00178
2475.30198,0.00175
2474.33770,0.00169
2473.37342,0.00166
2472.40914,0.00165
2471.44486,0.00161
2470.48059,0.00156
2469.51631,0.00158
2468.55203,0.00160
2467.58775,0.00157
2466.62347,0.00154
2465.65920,0.00159
2464.69492,0.00166
2463.73064,0.00167
2462.76636,0.00161
2461.80208,0.00156
2460.83781,0.00153
2459.87353,0.00153
2458.90925,0.00154
2457.94497,0.00150
2456.98069,0.00150
2456.01641,0.00157
2455.05214,0.00162
2454.08786,0.00161
2453.12358,0.00156
2452.15930,0.00154
2451.19502,0.00157
2450.23075,0.00155
2449.26647,0.00145
2448.30219,0.00142
2447.33791,0.00147
2446.37363,0.00151
2445.40936,0.00148
2444.44508,0.00144
2443.48080,0.00147
2442.51652,0.00152
2441.55224,0.00151
2440.58796,0.00146
2439.62369,0.00139
2438.65941,0.00140
2437.69513,0.00147
2436.73085,0.00155
2435.76657,0.00163
2434.80230,0.00164
2433.83802,0.00152
2432.87374,0.00142
2431.90946,0.00146
2430.94518,0.00155
2429.98090,0.00161
2429.01663,0.00166
2428.05235,0.00168
2427.08807,0.00170
2426.12379,0.00172
2425.15951,0.00164
2424.19524,0.00155
2423.23096,0.00159
2422.26668,0.00169
2421.30240,0.00170
2420.33812,0.00164
2419.37385,0.00160
2418.40957,0.00163
2417.44529,0.00166
2416.48101,0.00165
2415.51673,0.00164
2414.55245,0.00163
2413.58818,0.00158
2412.62390,0.00154
2411.65962,0.00153
2410.69534,0.00156
2409.73106,0.00159
2408.76679,0.00158
2407.80251,0.00155
2406.83823,0.00151
2405.87395,0.00151
2404.90967,0.00158
2403.94540,0.00167
2402.98112,0.00169
2402.01684,0.00169
2401.05256,0.00170
2400.08828,0.00172
2399.12400,0.00168
2398.15973,0.00159
2397.19545,0.00151
2396.23117,0.00150
2395.26689,0.00150
2394.30261,0.00147
2393.33834,0.00142
2392.37406,0.00142
2391.40978,0.00149
2390.44550,0.00157
2389.48122,0.00163
2388.51694,0.00162
2387.55267,0.00156
2386.58839,0.00151
2385.62411,0.00151
2384.65983,0.00155
2383.69555,0.00157
2382.73128,0.00157
2381.76700,0.00154
2380.80272,0.00151
2379.83844,0.00145
2378.87416,0.00137
2377.90989,0.00128
2376.94561,0.00121
2375.98133,0.00112
2375.01705,0.00103
2374.05277,0.00096
2373.08849,0.00094
2372.12422,0.00096
2371.15994,0.00097
2370.19566,0.00093
2369.23138,0.00083
2368.26710,0.00069
2367.30283,0.00061
2366.33855,0.00061
2365.37427,0.00061
2364.40999,0.00054
2363.44571,0.00049
2362.48144,0.00053
2361.51716,0.00061
2360.55288,0.00066
2359.58860,0.00070
2358.62432,0.00074
2357.66004,0.00078
2356.69577,0.00080
2355.73149,0.00079
2354.76721,0.00080
2353.80293,0.00089
2352.83865,0.00105
2351.87438,0.00119
2350.91010,0.00124
2349.94582,0.00124
2348.98154,0.00122
2348.01726,0.00119
2347.05299,0.00116
2346.08871,0.00116
2345.12443,0.00117
2344.16015,0.00114
2343.19587,0.00106
2342.23159,0.00100
2341.26732,0.00095
2340.30304,0.00089
2339.33876,0.00085
2338.37448,0.00084
2337.41020,0.00079
2336.44593,0.00073
2335.48165,0.00072
2334.51737,0.00079
2333.55309,0.00091
2332.58881,0.00100
2331.62453,0.00105
2330.66026,0.00102
2329.69598,0.00094
2328.73170,0.00089
2327.76742,0.00095
2326.80314,0.00112
2325.83887,0.00135
2324.87459,0.00155
2323.91031,0.00166
2322.94603,0.00168
2321.98175,0.00163
2321.01748,0.00161
2320.05320,0.00164
2319.08892,0.00166
2318.12464,0.00166
2317.16036,0.00165
2316.19608,0.00166
2315.23181,0.00165
2314.26753,0.00160
2313.30325,0.00153
2312.33897,0.00156
2311.37469,0.00165
2310.41042,0.00169
2309.44614,0.00166
2308.48186,0.00155
2307.51758,0.00145
2306.55330,0.00145
2305.58903,0.00153
2304.62475,0.00163
2303.66047,0.00176
2302.69619,0.00183
2301.73191,0.00181
2300.76763,0.00176
2299.80336,0.00173
2298.83908,0.00172
2297.87480,0.00175
2296.91052,0.00180
2295.94624,0.00183
2294.98197,0.00190
2294.01769,0.00200
2293.05341,0.00212
2292.08913,0.00219
2291.12485,0.00222
2290.16057,0.00222
2289.19630,0.00220
2288.23202,0.00217
2287.26774,0.00210
2286.30346,0.00208
2285.33918,0.00213
2284.37491,0.00219
2283.41063,0.00220
2282.44635,0.00215
2281.48207,0.00208
2280.51779,0.00204
2279.55352,0.00205
2278.58924,0.00212
2277.62496,0.00225
2276.66068,0.00235
2275.69640,0.00231
2274.73212,0.00219
2273.76785,0.00206
2272.80357,0.00199
2271.83929,0.00203
2270.87501,0.00219
2269.91073,0.00231
2268.94646,0.00231
2267.98218,0.00225
2267.01790,0.00225
2266.05362,0.00232
2265.08934,0.00233
2264.12507,0.00228
2263.16079,0.00229
2262.19651,0.00232
2261.23223,0.00222
2260.26795,0.00211
2259.30367,0.00220
2258.33940,0.00243
2257.37512,0.00254
2256.41084,0.00241
2255.44656,0.00210
2254.48228,0.00179
2253.51801,0.00166
2252.55373,0.00178
2251.58945,0.00198
2250.62517,0.00212
2249.66089,0.00223
2248.69662,0.00229
2247.73234,0.00228
2246.76806,0.00219
2245.80378,0.00214
2244.83950,0.00208
2243.87522,0.00203
2242.91095,0.00216
2241.94667,0.00241
2240.98239,0.00258
2240.01811,0.00263
2239.05383,0.00260
2238.08956,0.00256
2237.12528,0.00261
2236.16100,0.00266
2235.19672,0.00254
2234.23244,0.00236
2233.26816,0.00235
2232.30389,0.00243
2231.33961,0.00244
2230.37533,0.00237
2229.41105,0.00242
2228.44677,0.00259
2227.48250,0.00260
2226.51822,0.00244
2225.55394,0.00235
2224.58966,0.00233
2223.62538,0.00235
2222.66111,0.00252
2221.69683,0.00275
2220.73255,0.00277
2219.76827,0.00261
2218.80399,0.00249
2217.83971,0.00243
2216.87544,0.00253
2215.91116,0.00277
2214.94688,0.00270
2213.98260,0.00219
2213.01832,0.00174
2212.05405,0.00176
2211.08977,0.00214
2210.12549,0.00243
2209.16121,0.00239
2208.19693,0.00237
2207.23266,0.00255
2206.26838,0.00269
2205.30410,0.00275
2204.33982,0.00267
2203.37554,0.00238
2202.41126,0.00226
2201.44699,0.00252
2200.48271,0.00267
2199.51843,0.00252
2198.55415,0.00252
2197.58987,0.00258
2196.62560,0.00232
2195.66132,0.00220
2194.69704,0.00249
2193.73276,0.00264
2192.76848,0.00252
2191.80421,0.00251
2190.83993,0.00272
2189.87565,0.00294
2188.91137,0.00298
2187.94709,0.00292
2186.98281,0.00308
2186.01854,0.00326
2185.05426,0.00308
2184.08998,0.00291
2183.12570,0.00295
2182.16142,0.00268
2181.19715,0.00221
2180.23287,0.00223
2179.26859,0.00246
2178.30431,0.00239
2177.34003,0.00235
2176.37575,0.00251
2175.41148,0.00264
2174.44720,0.00273
2173.48292,0.00289
2172.51864,0.00308
2171.55436,0.00313
2170.59009,0.00302
2169.62581,0.00296
2168.66153,0.00315
2167.69725,0.00338
2166.73297,0.00321
2165.76870,0.00294
2164.80442,0.00307
2163.84014,0.00338
2162.87586,0.00339
2161.91158,0.00309
2160.94730,0.00273
2159.98303,0.00227
2159.01875,0.00177
2158.05447,0.00142
2157.09019,0.00130
2156.12591,0.00149
2155.16164,0.00184
2154.19736,0.00211
2153.23308,0.00223
2152.26880,0.00218
2151.30452,0.00215
2150.34025,0.00225
2149.37597,0.00230
2148.41169,0.00237
2147.44741,0.00257
2146.48313,0.00252
2145.51885,0.00204
2144.55458,0.00155
2143.59030,0.00138
2142.62602,0.00155
2141.66174,0.00181
2140.69746,0.00186
2139.73319,0.00165
2138.76891,0.00144
2137.80463,0.00142
2136.84035,0.00157
2135.87607,0.00175
2134.91179,0.00188
2133.94752,0.00183
2132.98324,0.00163
2132.01896,0.00141
2131.05468,0.00132
2130.09040,0.00137
2129.12613,0.00142
2128.16185,0.00145
2127.19757,0.00160
2126.23329,0.00179
2125.26901,0.00178
2124.30474,0.00170
2123.34046,0.00169
2122.37618,0.00168
2121.41190,0.00173
2120.44762,0.00187
2119.48334,0.00195
2118.51907,0.00190
2117.55479,0.00190
2116.59051,0.00198
2115.62623,0.00203
2114.66195,0.00200
2113.69768,0.00201
2112.73340,0.00212
2111.76912,0.00220
2110.80484,0.00219
2109.84056,0.00200
2108.87629,0.00168
2107.91201,0.00150
2106.94773,0.00157
2105.98345,0.00171
2105.01917,0.00180
2104.05489,0.00188
2103.09062,0.00188
2102.12634,0.00177
2101.16206,0.00179
2100.19778,0.00196
2099.23350,0.00199
2098.26923,0.00188
2097.30495,0.00174
2096.34067,0.00160
2095.37639,0.00151
2094.41211,0.00157
2093.44784,0.00163
2092.48356,0.00150
2091.51928,0.00139
2090.55500,0.00151
2089.59072,0.00175
2088.62644,0.00191
2087.66217,0.00187
2086.69789,0.00178
2085.73361,0.00178
2084.76933,0.00184
2083.80505,0.00195
2082.84078,0.00211
2081.87650,0.00229
2080.91222,0.00235
2079.94794,0.00234
2078.98366,0.00237
2078.01938,0.00236
2077.05511,0.00221
2076.09083,0.00197
2075.12655,0.00178
2074.16227,0.00179
2073.19799,0.00195
2072.23372,0.00217
2071.26944,0.00233
2070.30516,0.00232
2069.34088,0.00213
2068.37660,0.00194
2067.41233,0.00187
2066.44805,0.00190
2065.48377,0.00201
2064.51949,0.00215
2063.55521,0.00223
2062.59093,0.00219
2061.62666,0.00208
2060.66238,0.00200
2059.69810,0.00199
2058.73382,0.00202
2057.76954,0.00201
2056.80527,0.00198
2055.84099,0.00201
2054.87671,0.00208
2053.91243,0.00217
2052.94815,0.00233
2051.98388,0.00250
2051.01960,0.00256
2050.05532,0.00253
2049.09104,0.00260
2048.12676,0.00270
2047.16248,0.00254
2046.19821,0.00212
2045.23393,0.00179
2044.26965,0.00190
2043.30537,0.00242
2042.34109,0.00289
2041.37682,0.00306
2040.41254,0.00300
2039.44826,0.00272
2038.48398,0.00236
2037.51970,0.00227
2036.55543,0.00242
2035.59115,0.00236
2034.62687,0.00192
2033.66259,0.00169
2032.69831,0.00205
2031.73403,0.00256
2030.76976,0.00280
2029.80548,0.00276
2028.84120,0.00263
2027.87692,0.00267
2026.91264,0.00281
2025.94837,0.00280
2024.98409,0.00270
2024.01981,0.00269
2023.05553,0.00267
2022.09125,0.00246
2021.12697,0.00212
2020.16270,0.00187
2019.19842,0.00183
2018.23414,0.00188
2017.26986,0.00188
2016.30558,0.00193
2015.34131,0.00219
2014.37703,0.00251
2013.41275,0.00265
2012.44847,0.00262
2011.48419,0.00259
2010.51992,0.00271
2009.55564,0.00298
2008.59136,0.00321
2007.62708,0.00304
2006.66280,0.00249
2005.69852,0.00196
2004.73425,0.00178
2003.76997,0.00179
2002.80569,0.00168
2001.84141,0.00154
2000.87713,0.00160
1999.91286,0.00163
1998.94858,0.00151
1997.98430,0.00149
1997.02002,0.00171
1996.05574,0.00201
1995.09147,0.00221
1994.12719,0.00225
1993.16291,0.00225
1992.19863,0.00233
1991.23435,0.00252
1990.27007,0.00267
1989.30580,0.00265
1988.34152,0.00253
1987.37724,0.00239
1986.41296,0.00221
1985.44868,0.00203
1984.48441,0.00197
1983.52013,0.00212
1982.55585,0.00244
1981.59157,0.00285
1980.62729,0.00316
1979.66301,0.00312
1978.69874,0.00262
1977.73446,0.00201
1976.77018,0.00185
1975.80590,0.00206
1974.84162,0.00214
1973.87735,0.00193
1972.91307,0.00171
1971.94879,0.00172
1970.98451,0.00195
1970.02023,0.00223
1969.05596,0.00223
1968.09168,0.00182
1967.12740,0.00136
1966.16312,0.00117
1965.19884,0.00122
1964.23456,0.00147
1963.27029,0.00183
1962.30601,0.00220
1961.34173,0.00251
1960.37745,0.00264
1959.41317,0.00253
1958.44890,0.00235
1957.48462,0.00225
1956.52034,0.00224
1955.55606,0.00230
1954.59178,0.00241
1953.62751,0.00247
1952.66323,0.00239
1951.69895,0.00226
1950.73467,0.00212
1949.77039,0.00200
1948.80611,0.00198
1947.84184,0.00197
1946.87756,0.00178
1945.91328,0.00148
1944.94900,0.00139
1943.98472,0.00155
1943.02045,0.00174
1942.05617,0.00181
1941.09189,0.00180
1940.12761,0.00178
1939.16333,0.00177
1938.19906,0.00182
1937.23478,0.00190
1936.27050,0.00190
1935.30622,0.00184
1934.34194,0.00184
1933.37766,0.00191
1932.41339,0.00188
1931.44911,0.00167
1930.48483,0.00151
1929.52055,0.00158
1928.55627,0.00172
1927.59200,0.00173
1926.62772,0.00167
1925.66344,0.00163
1924.69916,0.00157
1923.73488,0.00157
1922.77060,0.00169
1921.80633,0.00183
1920.84205,0.00182
1919.87777,0.00170
1918.91349,0.00158
1917.94921,0.00146
1916.98494,0.00141
1916.02066,0.00145
1915.05638,0.00157
1914.09210,0.00174
1913.12782,0.00185
1912.16355,0.00181
1911.19927,0.00165
1910.23499,0.00153
1909.27071,0.00152
1908.30643,0.00154
1907.34215,0.00153
1906.37788,0.00152
1905.41360,0.00155
1904.44932,0.00156
1903.48504,0.00155
1902.52076,0.00155
1901.55649,0.00154
1900.59221,0.00152
1899.62793,0.00156
1898.66365,0.00166
1897.69937,0.00178
1896.73510,0.00180
1895.77082,0.00172
1894.80654,0.00158
1893.84226,0.00144
1892.87798,0.00136
1891.91370,0.00140
1890.94943,0.00148
1889.98515,0.00155
1889.02087,0.00159
1888.05659,0.00161
1887.09231,0.00159
1886.12804,0.00147
1885.16376,0.00134
1884.19948,0.00129
1883.23520,0.00131
1882.27092,0.00136
1881.30664,0.00143
1880.34237,0.00150
1879.37809,0.00152
1878.41381,0.00146
1877.44953,0.00141
1876.48525,0.00142
1875.52098,0.00147
1874.55670,0.00156
1873.59242,0.00165
1872.62814,0.00166
1871.66386,0.00158
1870.69959,0.00149
1869.73531,0.00142
1868.77103,0.00148
1867.80675,0.00163
1866.84247,0.00171
1865.87819,0.00163
1864.91392,0.00149
1863.94964,0.00138
1862.98536,0.00130
1862.02108,0.00127
1861.05680,0.00131
1860.09253,0.00140
1859.12825,0.00149
1858.16397,0.00155
1857.19969,0.00157
1856.23541,0.00158
1855.27114,0.00156
1854.30686,0.00146
1853.34258,0.00138
1852.37830,0.00140
1851.41402,0.00147
1850.44974,0.00152
1849.48547,0.00154
1848.52119,0.00152
1847.55691,0.00151
1846.59263,0.00152
1845.62835,0.00153
1844.66408,0.00147
1843.69980,0.00139
1842.73552,0.00139
1841.77124,0.00144
1840.80696,0.00147
1839.84269,0.00149
1838.87841,0.00153
1837.91413,0.00158
1836.94985,0.00163
1835.98557,0.00167
1835.02129,0.00171
1834.05702,0.00173
1833.09274,0.00173
1832.12846,0.00170
1831.16418,0.00160
1830.19990,0.00153
1829.23563,0.00159
1828.27135,0.00172
1827.30707,0.00181
1826.34279,0.00178
1825.37851,0.00171
1824.41423,0.00167
1823.44996,0.00167
1822.48568,0.00171
1821.52140,0.00177
1820.55712,0.00179
1819.59284,0.00174
1818.62857,0.00167
1817.66429,0.00166
1816.70001,0.00171
1815.73573,0.00178
1814.77145,0.00180
1813.80718,0.00178
1812.84290,0.00173
1811.87862,0.00169
1810.91434,0.00168
1809.95006,0.00170
1808.98578,0.00173
1808.02151,0.00172
1807.05723,0.00168
1806.09295,0.00164
1805.12867,0.00163
1804.16439,0.00169
1803.20012,0.00176
1802.23584,0.00182
1801.27156,0.00182
1800.30728,0.00179
1799.34300,0.00174
1798.37873,0.00171
1797.41445,0.00170
1796.45017,0.00169
1795.48589,0.00170
1794.52161,0.00173
1793.55733,0.00176
1792.59306,0.00178
1791.62878,0.00179
1790.66450,0.00179
1789.70022,0.00180
1788.73594,0.00179
1787.77167,0.00180
1786.80739,0.00183
1785.84311,0.00187
1784.87883,0.00192
1783.91455,0.00196
1782.95028,0.00199
1781.98600,0.00200
1781.02172,0.00198
1780.05744,0.00198
1779.09316,0.00199
1778.12888,0.00201
1777.16461,0.00202
1776.20033,0.00204
1775.23605,0.00207
1774.27177,0.00207
1773.30749,0.00203
1772.34322,0.00200
1771.37894,0.00201
1770.41466,0.00206
1769.45038,0.00210
1768.48610,0.00212
1767.52182,0.00213
1766.55755,0.00216
1765.59327,0.00221
1764.62899,0.00224
1763.66471,0.00224
1762.70043,0.00224
1761.73616,0.00227
1760.77188,0.00234
1759.80760,0.00239
1758.84332,0.00242
1757.87904,0.00246
1756.91477,0.00256
1755.95049,0.00268
1754.98621,0.00279
1754.02193,0.00288
1753.05765,0.00294
1752.09337,0.00299
1751.12910,0.00305
1750.16482,0.00316
1749.20054,0.00330
1748.23626,0.00345
1747.27198,0.00360
1746.30771,0.00374
1745.34343,0.00390
1744.37915,0.00409
1743.41487,0.00428
1742.45059,0.00449
1741.48632,0.00471
1740.52204,0.00501
1739.55776,0.00541
1738.59348,0.00589
1737.62920,0.00638
1736.66492,0.00690
1735.70065,0.00760
1734.73637,0.00870
1733.77209,0.01023
1732.80781,0.01187
1731.84353,0.01341
1730.87926,0.01497
1729.91498,0.01665
1728.95070,0.01839
1727.98642,0.02009
1727.02214,0.02173
1726.05786,0.02334
1725.09359,0.02494
1724.12931,0.02655
1723.16503,0.02812
1722.20075,0.02954
1721.23647,0.03069
1720.27220,0.03157
1719.30792,0.03231
1718.34364,0.03307
1717.37936,0.03379
1716.41508,0.03421
1715.45081,0.03422
1714.48653,0.03386
1713.52225,0.03316
1712.55797,0.03214
1711.59369,0.03078
1710.62941,0.02911
1709.66514,0.02717
1708.70086,0.02508
1707.73658,0.02287
1706.77230,0.02058
1705.80802,0.01828
1704.84375,0.01615
1703.87947,0.01429
1702.91519,0.01271
1701.95091,0.01130
1700.98663,0.00991
1700.02236,0.00858
1699.05808,0.00760
1698.09380,0.00698
1697.12952,0.00645
1696.16524,0.00589
1695.20096,0.00539
1694.23669,0.00505
1693.27241,0.00483
1692.30813,0.00466
1691.34385,0.00450
1690.37957,0.00435
1689.41530,0.00422
1688.45102,0.00411
1687.48674,0.00402
1686.52246,0.00393
1685.55818,0.00380
1684.59391,0.00367
1683.62963,0.00357
1682.66535,0.00354
1681.70107,0.00356
1680.73679,0.00358
1679.77251,0.00359
1678.80824,0.00360
1677.84396,0.00359
1676.87968,0.00356
1675.91540,0.00352
1674.95112,0.00349
1673.98685,0.00346
1673.02257,0.00343
1672.05829,0.00338
1671.09401,0.00328
1670.12973,0.00313
1669.16545,0.00297
1668.20118,0.00287
1667.23690,0.00286
1666.27262,0.00288
1665.30834,0.00286
1664.34406,0.00280
1663.37979,0.00273
1662.41551,0.00270
1661.45123,0.00272
1660.48695,0.00275
1659.52267,0.00276
1658.55840,0.00273
1657.59412,0.00267
1656.62984,0.00259
1655.66556,0.00251
1654.70128,0.00239
1653.73700,0.00225
1652.77273,0.00217
1651.80845,0.00223
1650.84417,0.00240
1649.87989,0.00256
1648.91561,0.00263
1647.95134,0.00265
1646.98706,0.00267
1646.02278,0.00274
1645.05850,0.00286
1644.09422,0.00301
1643.12995,0.00316
1642.16567,0.00327
1641.20139,0.00336
1640.23711,0.00343
1639.27283,0.00349
1638.30855,0.00350
1637.34428,0.00342
1636.38000,0.00324
1635.41572,0.00304
1634.45144,0.00292
1633.48716,0.00290
1632.52289,0.00290
1631.55861,0.00286
1630.59433,0.00278
1629.63005,0.00267
1628.66577,0.00258
1627.70149,0.00251
1626.73722,0.00249
1625.77294,0.00251
1624.80866,0.00253
1623.84438,0.00253
1622.88010,0.00252
1621.91583,0.00251
1620.95155,0.00251
1619.98727,0.00253
1619.02299,0.00255
1618.05871,0.00257
1617.09444,0.00258
1616.13016,0.00261
1615.16588,0.00267
1614.20160,0.00272
1613.23732,0.00273
1612.27304,0.00272
1611.30877,0.00268
1610.34449,0.00266
1609.38021,0.00264
1608.41593,0.00262
1607.45165,0.00259
1606.48738,0.00255
1605.52310,0.00250
1604.55882,0.00247
1603.59454,0.00245
1602.63026,0.00245
1601.66599,0.00245
1600.70171,0.00243
1599.73743,0.00240
1598.77315,0.00238
1597.80887,0.00238
1596.84459,0.00240
1595.88032,0.00243
1594.91604,0.00244
1593.95176,0.00243
1592.98748,0.00242
1592.02320,0.00242
1591.05893,0.00243
1590.09465,0.00244
1589.13037,0.00245
1588.16609,0.00247
1587.20181,0.00249
1586.23754,0.00254
1585.27326,0.00260
1584.30898,0.00269
1583.34470,0.00280
1582.38042,0.00295
1581.41614,0.00312
1580.45187,0.00327
1579.48759,0.00340
1578.52331,0.00346
1577.55903,0.00347
1576.59475,0.00342
1575.63048,0.00337
1574.66620,0.00332
1573.70192,0.00326
1572.73764,0.00320
1571.77336,0.00312
1570.80908,0.00304
1569.84481,0.00297
1568.88053,0.00296
1567.91625,0.00299
1566.95197,0.00302
1565.98769,0.00301
1565.02342,0.00298
1564.05914,0.00296
1563.09486,0.00296
1562.13058,0.00291
1561.16630,0.00279
1560.20203,0.00264
1559.23775,0.00255
1558.27347,0.00255
1557.30919,0.00265
1556.34491,0.00280
1555.38063,0.00294
1554.41636,0.00303
1553.45208,0.00305
1552.48780,0.00304
1551.52352,0.00300
1550.55924,0.00297
1549.59497,0.00296
1548.63069,0.00299
1547.66641,0.00304
1546.70213,0.00307
1545.73785,0.00308
1544.77358,0.00308
1543.80930,0.00309
1542.84502,0.00310
1541.88074,0.00308
1540.91646,0.00304
1539.95218,0.00299
1538.98791,0.00298
1538.02363,0.00303
1537.05935,0.00308
1536.09507,0.00307
1535.13079,0.00300
1534.16652,0.00289
1533.20224,0.00278
1532.23796,0.00272
1531.27368,0.00272
1530.30940,0.00274
1529.34513,0.00275
1528.38085,0.00275
1527.41657,0.00274
1526.45229,0.00271
1525.48801,0.00266
1524.52373,0.00259
1523.55946,0.00249
1522.59518,0.00239
1521.63090,0.00229
1520.66662,0.00224
1519.70234,0.00224
1518.73807,0.00227
1517.77379,0.00230
1516.80951,0.00234
1515.84523,0.00239
1514.88095,0.00247
1513.91667,0.00253
1512.95240,0.00257
1511.98812,0.00259
1511.02384,0.00262
1510.05956,0.00268
1509.09528,0.00280
1508.13101,0.00299
1507.16673,0.00330
1506.20245,0.00367
1505.23817,0.00396
1504.27389,0.00403
1503.30962,0.00387
1502.34534,0.00356
1501.38106,0.00324
1500.41678,0.00298
1499.45250,0.00280
1498.48822,0.00269
1497.52395,0.00262
1496.55967,0.00257
1495.59539,0.00255
1494.63111,0.00254
1493.66683,0.00254
1492.70256,0.00255
1491.73828,0.00257
1490.77400,0.00258
1489.80972,0.00258
1488.84544,0.00259
1487.88117,0.00265
1486.91689,0.00274
1485.95261,0.00285
1484.98833,0.00296
1484.02405,0.00308
1483.05977,0.00323
1482.09550,0.00340
1481.13122,0.00360
1480.16694,0.00384
1479.20266,0.00410
1478.23838,0.00432
1477.27411,0.00452
1476.30983,0.00473
1475.34555,0.00498
1474.38127,0.00532
1473.41699,0.00582
1472.45271,0.00652
1471.48844,0.00736
1470.52416,0.00825
1469.55988,0.00914
1468.59560,0.00996
1467.63132,0.01066
1466.66705,0.01118
1465.70277,0.01154
1464.73849,0.01181
1463.77421,0.01199
1462.80993,0.01205
1461.84566,0.01199
1460.88138,0.01183
1459.91710,0.01158
1458.95282,0.01126
1457.98854,0.01086
1457.02426,0.01043
1456.05999,0.01000
1455.09571,0.00956
1454.13143,0.00914
1453.16715,0.00872
1452.20287,0.00835
1451.23860,0.00804
1450.27432,0.00779
1449.31004,0.00760
1448.34576,0.00745
1447.38148,0.00737
1446.41721,0.00733
1445.45293,0.00732
1444.48865,0.00735
1443.52437,0.00746
1442.56009,0.00768
1441.59581,0.00806
1440.63154,0.00855
1439.66726,0.00911
1438.70298,0.00968
1437.73870,0.01030
1436.77442,0.01096
1435.81015,0.01155
1434.84587,0.01185
1433.88159,0.01182
1432.91731,0.01155
1431.95303,0.01124
1430.98876,0.01107
1430.02448,0.01122
1429.06020,0.01171
1428.09592,0.01244
1427.13164,0.01314
1426.16736,0.01349
1425.20309,0.01326
1424.23881,0.01247
1423.27453,0.01139
1422.31025,0.01036
1421.34597,0.00951
1420.38170,0.00885
1419.41742,0.00835
1418.45314,0.00804
1417.48886,0.00789
1416.52458,0.00788
1415.56030,0.00798
1414.59603,0.00818
1413.63175,0.00848
1412.66747,0.00893
1411.70319,0.00952
1410.73891,0.01018
1409.77464,0.01073
1408.81036,0.01097
1407.84608,0.01079
1406.88180,0.01021
1405.91752,0.00937
1404.95325,0.00845
1403.98897,0.00764
1403.02469,0.00702
1402.06041,0.00657
1401.09613,0.00623
1400.13185,0.00600
1399.16758,0.00587
1398.20330,0.00584
1397.23902,0.00588
1396.27474,0.00595
1395.31046,0.00611
1394.34619,0.00636
1393.38191,0.00666
1392.41763,0.00694
1391.45335,0.00721
1390.48907,0.00748
1389.52480,0.00778
1388.56052,0.00813
1387.59624,0.00852
1386.63196,0.00894
1385.66768,0.00935
1384.70340,0.00973
1383.73913,0.01006
1382.77485,0.01032
1381.81057,0.01050
1380.84629,0.01062
1379.88201,0.01066
1378.91774,0.01058
1377.95346,0.01038
1376.98918,0.01008
1376.02490,0.00967
1375.06062,0.00915
1374.09634,0.00861
1373.13207,0.00814
1372.16779,0.00772
1371.20351,0.00735
1370.23923,0.00706
1369.27495,0.00688
1368.31068,0.00675
1367.34640,0.00662
1366.38212,0.00655
1365.41784,0.00656
1364.45356,0.00662
1363.48929,0.00667
1362.52501,0.00675
1361.56073,0.00688
1360.59645,0.00705
1359.63217,0.00720
1358.66789,0.00731
1357.70362,0.00738
1356.73934,0.00745
1355.77506,0.00752
1354.81078,0.00755
1353.84650,0.00749
1352.88223,0.00738
1351.91795,0.00730
1350.95367,0.00725
1349.98939,0.00723
1349.02511,0.00721
1348.06084,0.00717
1347.09656,0.00715
1346.13228,0.00721
1345.16800,0.00738
1344.20372,0.00764
1343.23944,0.00796
1342.27517,0.00834
1341.31089,0.00874
1340.34661,0.00923
1339.38233,0.00984
1338.41805,0.01045
1337.45378,0.01090
1336.48950,0.01121
1335.52522,0.01144
1334.56094,0.01154
1333.59666,0.01155
1332.63239,0.01156
1331.66811,0.01154
1330.70383,0.01149
1329.73955,0.01143
1328.77527,0.01138
1327.81099,0.01131
1326.84672,0.01127
1325.88244,0.01124
1324.91816,0.01122
1323.95388,0.01119
1322.98960,0.01115
1322.02533,0.01107
1321.06105,0.01104
1320.09677,0.01105
1319.13249,0.01102
1318.16821,0.01095
1317.20393,0.01089
1316.23966,0.01082
1315.27538,0.01073
1314.31110,0.01065
1313.34682,0.01065
1312.38254,0.01070
1311.41827,0.01072
1310.45399,0.01071
1309.48971,0.01070
1308.52543,0.01075
1307.56115,0.01089
1306.59688,0.01113
1305.63260,0.01139
1304.66832,0.01159
1303.70404,0.01168
1302.73976,0.01167
1301.77548,0.01159
1300.81121,0.01151
1299.84693,0.01151
1298.88265,0.01161
1297.91837,0.01178
1296.95409,0.01200
1295.98982,0.01226
1295.02554,0.01261
1294.06126,0.01309
1293.09698,0.01369
1292.13270,0.01439
1291.16843,0.01517
1290.20415,0.01604
1289.23987,0.01698
1288.27559,0.01801
1287.31131,0.01914
1286.34703,0.02035
1285.38276,0.02155
1284.41848,0.02276
1283.45420,0.02404
1282.48992,0.02539
1281.52564,0.02677
1280.56137,0.02817
1279.59709,0.02962
1278.63281,0.03120
1277.66853,0.03284
1276.70425,0.03446
1275.73998,0.03603
1274.77570,0.03758
1273.81142,0.03915
1272.84714,0.04069
1271.88286,0.04215
1270.91858,0.04348
1269.95431,0.04459
1268.99003,0.04542
1268.02575,0.04591
1267.06147,0.04597
1266.09719,0.04562
1265.13292,0.04494
1264.16864,0.04397
1263.20436,0.04275
1262.24008,0.04138
1261.27580,0.04001
1260.31152,0.03880
1259.34725,0.03786
1258.38297,0.03728
1257.41869,0.03710
1256.45441,0.03725
1255.49013,0.03760
1254.52586,0.03799
1253.56158,0.03835
1252.59730,0.03870
1251.63302,0.03905
1250.66874,0.03934
1249.70447,0.03954
1248.74019,0.03965
1247.77591,0.03960
1246.81163,0.03930
1245.84735,0.03874
1244.88307,0.03797
1243.91880,0.03698
1242.95452,0.03576
1241.99024,0.03441
1241.02596,0.03302
1240.06168,0.03162
1239.09741,0.03024
1238.13313,0.02889
1237.16885,0.02755
1236.20457,0.02628
1235.24029,0.02512
1234.27602,0.02402
1233.31174,0.02297
1232.34746,0.02209
1231.38318,0.02132
1230.41890,0.02052
1229.45462,0.01962
1228.49035,0.01862
1227.52607,0.01753
1226.56179,0.01640
1225.59751,0.01527
1224.63323,0.01417
1223.66896,0.01315
1222.70468,0.01230
1221.74040,0.01164
1220.77612,0.01116
1219.81184,0.01073
1218.84756,0.01030
1217.88329,0.00996
1216.91901,0.00981
1215.95473,0.00981
1214.99045,0.00978
1214.02617,0.00971
1213.06190,0.00967
1212.09762,0.00971
1211.13334,0.00977
1210.16906,0.00977
1209.20478,0.00978
1208.24051,0.00983
1207.27623,0.00983
1206.31195,0.00974
1205.34767,0.00969
1204.38339,0.00971
1203.41911,0.00974
1202.45484,0.00977
1201.49056,0.00979
1200.52628,0.00979
1199.56200,0.00974
1198.59772,0.00960
1197.63345,0.00944
1196.66917,0.00942
1195.70489,0.00945
1194.74061,0.00933
1193.77633,0.00912
1192.81206,0.00894
1191.84778,0.00870
1190.88350,0.00839
1189.91922,0.00807
1188.95494,0.00777
1187.99066,0.00754
1187.02639,0.00736
1186.06211,0.00716
1185.09783,0.00700
1184.13355,0.00693
1183.16927,0.00690
1182.20500,0.00690
1181.24072,0.00692
1180.27644,0.00690
1179.31216,0.00685
1178.34788,0.00683
1177.38361,0.00697
1176.41933,0.00722
1175.45505,0.00744
1174.49077,0.00763
1173.52649,0.00780
1172.56221,0.00791
1171.59794,0.00790
1170.63366,0.00779
1169.66938,0.00765
1168.70510,0.00749
1167.74082,0.00732
1166.77655,0.00721
1165.81227,0.00717
1164.84799,0.00713
1163.88371,0.00708
1162.91943,0.00710
1161.95515,0.00715
1160.99088,0.00719
1160.02660,0.00722
1159.06232,0.00718
1158.09804,0.00712
1157.13376,0.00715
1156.16949,0.00722
1155.20521,0.00727
1154.24093,0.00735
1153.27665,0.00741
1152.31237,0.00739
1151.34810,0.00737
1150.38382,0.00738
1149.41954,0.00739
1148.45526,0.00743
1147.49098,0.00749
1146.52670,0.00747
1145.56243,0.00735
1144.59815,0.00723
1143.63387,0.00720
1142.66959,0.00730
1141.70531,0.00739
1140.74104,0.00737
1139.77676,0.00733
1138.81248,0.00743
1137.84820,0.00768
1136.88392,0.00801
1135.91965,0.00840
1134.95537,0.00889
1133.99109,0.00946
1133.02681,0.01011
1132.06253,0.01087
1131.09825,0.01181
1130.13398,0.01290
1129.16970,0.01413
1128.20542,0.01554
1127.24114,0.01713
1126.27686,0.01880
1125.31259,0.02050
1124.34831,0.02235
1123.38403,0.02434
1122.41975,0.02630
1121.45547,0.02804
1120.49120,0.02947
1119.52692,0.03060
1118.56264,0.03146
1117.59836,0.03204
1116.63408,0.03231
1115.66980,0.03218
1114.70553,0.03166
1113.74125,0.03080
1112.77697,0.02973
1111.81269,0.02864
1110.84841,0.02765
1109.88414,0.02685
1108.91986,0.02646
1107.95558,0.02664
1106.99130,0.02749
1106.02702,0.02903
1105.06274,0.03105
1104.09847,0.03303
1103.13419,0.03447
1102.16991,0.03509
1101.20563,0.03470
1100.24135,0.03339
1099.27708,0.03156
1098.31280,0.02954
1097.34852,0.02747
1096.38424,0.02538
1095.41996,0.02341
1094.45569,0.02173
1093.49141,0.02033
1092.52713,0.01920
1091.56285,0.01839
1090.59857,0.01776
1089.63429,0.01720
1088.67002,0.01689
1087.70574,0.01673
1086.74146,0.01651
1085.77718,0.01626
1084.81290,0.01602
1083.84863,0.01565
1082.88435,0.01510
1081.92007,0.01446
1080.95579,0.01386
1079.99151,0.01334
1079.02724,0.01282
1078.06296,0.01231
1077.09868,0.01184
1076.13440,0.01140
1075.17012,0.01107
1074.20584,0.01075
1073.24157,0.01042
1072.27729,0.01019
1071.31301,0.01004
1070.34873,0.00986
1069.38445,0.00962
1068.42018,0.00938
1067.45590,0.00917
1066.49162,0.00898
1065.52734,0.00882
1064.56306,0.00865
1063.59878,0.00846
1062.63451,0.00838
1061.67023,0.00837
1060.70595,0.00831
1059.74167,0.00825
1058.77739,0.00818
1057.81312,0.00799
1056.84884,0.00779
1055.88456,0.00762
1054.92028,0.00744
1053.95600,0.00735
1052.99173,0.00736
1052.02745,0.00734
1051.06317,0.00728
1050.09889,0.00723
1049.13461,0.00719
1048.17033,0.00717
1047.20606,0.00716
1046.24178,0.00709
1045.27750,0.00703
1044.31322,0.00706
1043.34894,0.00711
1042.38467,0.00715
1041.42039,0.00722
1040.45611,0.00728
1039.49183,0.00728
1038.52755,0.00730
1037.56328,0.00733
1036.59900,0.00733
1035.63472,0.00732
1034.67044,0.00736
1033.70616,0.00743
1032.74188,0.00746
1031.77761,0.00751
1030.81333,0.00765
1029.84905,0.00780
1028.88477,0.00788
1027.92049,0.00796
1026.95622,0.00815
1025.99194,0.00847
1025.02766,0.00897
1024.06338,0.00976
1023.09910,0.01115
1022.13483,0.01353
1021.17055,0.01697
1020.20627,0.02067
1019.24199,0.02306
1018.27771,0.02289
1017.31343,0.02037
1016.34916,0.01693
1015.38488,0.01390
1014.42060,0.01179
1013.45632,0.01062
1012.49204,0.01004
1011.52777,0.00966
1010.56349,0.00930
1009.59921,0.00896
1008.63493,0.00874
1007.67065,0.00862
1006.70637,0.00858
1005.74210,0.00864
1004.77782,0.00879
1003.81354,0.00895
1002.84926,0.00898
1001.88498,0.00892
1000.92071,0.00899
999.95643,0.00920
998.99215,0.00935
998.02787,0.00950
997.06359,0.00971
996.09932,0.00994
995.13504,0.01012
994.17076,0.01022
993.20648,0.01021
992.24220,0.01021
991.27792,0.01029
990.31365,0.01038
989.34937,0.01050
988.38509,0.01069
987.42081,0.01093
986.45653,0.01113
985.49226,0.01130
984.52798,0.01151
983.56370,0.01188
982.59942,0.01233
981.63514,0.01271
980.67087,0.01298
979.70659,0.01324
978.74231,0.01356
977.77803,0.01390
976.81375,0.01418
975.84947,0.01436
974.88520,0.01450
973.92092,0.01470
972.95664,0.01499
971.99236,0.01533
971.02808,0.01557
970.06381,0.01567
969.09953,0.01582
968.13525,0.01615
967.17097,0.01651
966.20669,0.01672
965.24241,0.01691
964.27814,0.01728
963.31386,0.01772
962.34958,0.01807
961.38530,0.01841
960.42102,0.01871
959.45675,0.01881
958.49247,0.01875
957.52819,0.01872
956.56391,0.01872
955.59963,0.01860
954.63536,0.01838
953.67108,0.01804
952.70680,0.01760
951.74252,0.01720
950.77824,0.01688
949.81396,0.01642
948.84969,0.01585
947.88541,0.01545
946.92113,0.01531
945.95685,0.01519
944.99257,0.01492
944.02830,0.01451
943.06402,0.01411
942.09974,0.01381
941.13546,0.01358
940.17118,0.01334
939.20691,0.01311
938.24263,0.01290
937.27835,0.01270
936.31407,0.01248
935.34979,0.01229
934.38551,0.01210
933.42124,0.01188
932.45696,0.01172
931.49268,0.01168
930.52840,0.01169
929.56412,0.01161
928.59985,0.01147
927.63557,0.01135
926.67129,0.01129
925.70701,0.01126
924.74273,0.01119
923.77846,0.01111
922.81418,0.01101
921.84990,0.01084
920.88562,0.01066
919.92134,0.01057
918.95706,0.01048
917.99279,0.01032
917.02851,0.01013
916.06423,0.00996
915.09995,0.00973
914.13567,0.00947
913.17140,0.00937
912.20712,0.00946
911.24284,0.00957
910.27856,0.00951
909.31428,0.00934
908.35000,0.00923
907.38573,0.00918
906.42145,0.00903
905.45717,0.00878
904.49289,0.00856
903.52861,0.00847
902.56434,0.00846
901.60006,0.00841
900.63578,0.00824
899.67150,0.00807
898.70722,0.00801
897.74295,0.00795
896.77867,0.00783
895.81439,0.00777
894.85011,0.00784
893.88583,0.00788
892.92155,0.00783
891.95728,0.00771
890.99300,0.00746
890.02872,0.00712
889.06444,0.00692
888.10016,0.00696
887.13589,0.00714
886.17161,0.00730
885.20733,0.00731
884.24305,0.00729
883.27877,0.00749
882.31450,0.00795
881.35022,0.00846
880.38594,0.00896
879.42166,0.00969
878.45738,0.01068
877.49310,0.01167
876.52883,0.01254
875.56455,0.01317
874.60027,0.01343
873.63599,0.01327
872.67171,0.01273
871.70744,0.01192
870.74316,0.01106
869.77888,0.01029
868.81460,0.00959
867.85032,0.00902
866.88605,0.00864
865.92177,0.00841
864.95749,0.00830
863.99321,0.00827
863.02893,0.00820
862.06465,0.00802
861.10038,0.00782
860.13610,0.00765
859.17182,0.00759
858.20754,0.00768
857.24326,0.00780
856.27899,0.00779
855.31471,0.00774
854.35043,0.00770
853.38615,0.00762
852.42187,0.00751
851.45759,0.00752
850.49332,0.00771
849.52904,0.00792
848.56476,0.00792
847.60048,0.00779
846.63620,0.00773
845.67193,0.00772
844.70765,0.00777
843.74337,0.00791
842.77909,0.00797
841.81481,0.00784
840.85054,0.00774
839.88626,0.00779
838.92198,0.00793
837.95770,0.00810
836.99342,0.00818
836.02914,0.00816
835.06487,0.00816
834.10059,0.00812
833.13631,0.00796
832.17203,0.00784
831.20775,0.00784
830.24348,0.00783
829.27920,0.00770
828.31492,0.00748
827.35064,0.00733
826.38636,0.00728
825.42209,0.00716
824.45781,0.00682
823.49353,0.00639
822.52925,0.00601
821.56497,0.00583
820.60069,0.00590
819.63642,0.00599
818.67214,0.00585
817.70786,0.00559
816.74358,0.00544
815.77930,0.00541
814.81503,0.00543
813.85075,0.00544
812.88647,0.00538
811.92219,0.00534
810.95791,0.00542
809.99363,0.00554
809.02936,0.00552
808.06508,0.00542
807.10080,0.00540
806.13652,0.00552
805.17224,0.00572
804.20797,0.00582
803.24369,0.00571
802.27941,0.00548
801.31513,0.00524
800.35085,0.00505
799.38658,0.00500
798.42230,0.00521
797.45802,0.00564
796.49374,0.00604
795.52946,0.00618
794.56518,0.00606
793.60091,0.00588
792.63663,0.00570
791.67235,0.00541
790.70807,0.00517
789.74379,0.00524
788.77952,0.00550
787.81524,0.00575
786.85096,0.00598
785.88668,0.00607
784.92240,0.00594
783.95813,0.00588
782.99385,0.00613
782.02957,0.00636
781.06529,0.00634
780.10101,0.00628
779.13673,0.00624
778.17246,0.00616
777.20818,0.00611
776.24390,0.00619
775.27962,0.00644
774.31534,0.00672
773.35107,0.00680
772.38679,0.00679
771.42251,0.00693
770.45823,0.00710
769.49395,0.00719
768.52968,0.00731
767.56540,0.00746
766.60112,0.00744
765.63684,0.00712
764.67256,0.00666
763.70828,0.00641
762.74401,0.00635
761.77973,0.00595
760.81545,0.00512
759.85117,0.00456
758.88689,0.00467
757.92262,0.00496
756.95834,0.00491
755.99406,0.00466
755.02978,0.00461
754.06550,0.00478
753.10122,0.00509
752.13695,0.00541
751.17267,0.00558
750.20839,0.00567
749.24411,0.00597
748.27983,0.00620
747.31556,0.00563
746.35128,0.00472
745.38700,0.00466
744.42272,0.00542
743.45844,0.00649
742.49417,0.00805
741.52989,0.00947
740.56561,0.01005
739.60133,0.01079
738.63705,0.01267
737.67277,0.01531
736.70850,0.01837
735.74422,0.02195
734.77994,0.02603
733.81566,0.03036
732.85138,0.03434
731.88711,0.03725
730.92283,0.03866
729.95855,0.03820
728.99427,0.03580
728.02999,0.03193
727.06572,0.02732
726.10144,0.02291
725.13716,0.01943
724.17288,0.01688
723.20860,0.01488
722.24432,0.01325
721.28005,0.01197
720.31577,0.01101
719.35149,0.01033
718.38721,0.00993
717.42293,0.00970
716.45866,0.00951
715.49438,0.00938
714.53010,0.00945
713.56582,0.00970
712.60154,0.00992
711.63726,0.00999
710.67299,0.01016
709.70871,0.01063
708.74443,0.01125
707.78015,0.01176
706.81587,0.01217
705.85160,0.01262
704.88732,0.01308
703.92304,0.01337
702.95876,0.01355
701.99448,0.01381
701.03021,0.01411
700.06593,0.01432
699.10165,0.01451
698.13737,0.01475
697.17309,0.01493
696.20881,0.01504
695.24454,0.01517
694.28026,0.01520
693.31598,0.01503
692.35170,0.01488
691.38742,0.01499
690.42315,0.01521
689.45887,0.01523
688.49459,0.01503
687.53031,0.01482
686.56603,0.01475
685.60176,0.01478
684.63748,0.01484
683.67320,0.01478
682.70892,0.01446
681.74464,0.01413
680.78036,0.01410
679.81609,0.01420
678.85181,0.01413
677.88753,0.01394
676.92325,0.01367
675.95897,0.01324
674.99470,0.01291
674.03042,0.01285
673.06614,0.01293
672.10186,0.01279
671.13758,0.01228
670.17331,0.01173
669.20903,0.01153
668.24475,0.01143
667.28047,0.01105
666.31619,0.01038
665.35191,0.00972
664.38764,0.00935
663.42336,0.00917
662.45908,0.00901
661.49480,0.00896
660.53052,0.00929
659.56625,0.01000
658.60197,0.01081
657.63769,0.01134
656.67341,0.01161
655.70913,0.01201
654.74485,0.01273
653.78058,0.01348
652.81630,0.01402
651.85202,0.01442
650.88774,0.01479
649.92346,0.01510
648.95919,0.01545
647.99491,0.01594
647.03063,0.01653
646.06635,0.01716
645.10207,0.01786
644.13780,0.01865
643.17352,0.01946
642.20924,0.02027
641.24496,0.02129
640.28068,0.02257
639.31640,0.02344
638.35213,0.02346
637.38785,0.02321
636.42357,0.02342
635.45929,0.02403
634.49501,0.02432
633.53074,0.02410
632.56646,0.02390
631.60218,0.02367
630.63790,0.02294
629.67362,0.02208
628.70935,0.02182
627.74507,0.02206
626.78079,0.02253
625.81651,0.02302
624.85223,0.02334
623.88795,0.02326
622.92368,0.02286
621.95940,0.02266
620.99512,0.02289
620.03084,0.02354
619.06656,0.02426
618.10229,0.02463
617.13801,0.02475
616.17373,0.02481
615.20945,0.02498
614.24517,0.02545
613.28090,0.02605
612.31662,0.02648
611.35234,0.02640
610.38806,0.02584
609.42378,0.02522
608.45950,0.02477
607.49523,0.02464
606.53095,0.02495
605.56667,0.02504
604.60239,0.02435
603.63811,0.02338
602.67384,0.02244
601.70956,0.02142
600.74528,0.02039
599.78100,0.01937
