4498.35751,0.00137
4497.39323,0.00131
4496.42895,0.00138
4495.46467,0.00144
4494.50040,0.00141
4493.53612,0.00138
4492.57184,0.00141
4491.60756,0.00149
4490.64328,0.00155
4489.67901,0.00156
4488.71473,0.00151
4487.75045,0.00142
4486.78617,0.00141
4485.82189,0.00148
4484.85761,0.00144
4483.89334,0.00129
4482.92906,0.00120
4481.96478,0.00128
4481.00050,0.00141
4480.03622,0.00147
4479.07195,0.00145
4478.10767,0.00138
4477.14339,0.00133
4476.17911,0.00140
4475.21483,0.00149
4474.25055,0.00145
4473.28628,0.00134
4472.32200,0.00129
4471.35772,0.00131
4470.39344,0.00127
4469.42916,0.00115
4468.46489,0.00108
4467.50061,0.00120
4466.53633,0.00139
4465.57205,0.00146
4464.60777,0.00144
4463.64350,0.00139
4462.67922,0.00132
4461.71494,0.00129
4460.75066,0.00135
4459.78638,0.00142
4458.82210,0.00144
4457.85783,0.00142
4456.89355,0.00139
4455.92927,0.00137
4454.96499,0.00133
4454.00071,0.00129
4453.03644,0.00128
4452.07216,0.00133
4451.10788,0.00140
4450.14360,0.00136
4449.17932,0.00125
4448.21505,0.00125
4447.25077,0.00135
4446.28649,0.00139
4445.32221,0.00137
4444.35793,0.00134
4443.39365,0.00132
4442.42938,0.00132
4441.46510,0.00133
4440.50082,0.00134
4439.53654,0.00134
4438.57226,0.00139
4437.60799,0.00159
4436.64371,0.00181
4435.67943,0.00184
4434.71515,0.00175
4433.75087,0.00173
4432.78660,0.00172
4431.82232,0.00164
4430.85804,0.00155
4429.89376,0.00152
4428.92948,0.00152
4427.96520,0.00153
4427.00093,0.00154
4426.03665,0.00153
4425.07237,0.00149
4424.10809,0.00142
4423.14381,0.00131
4422.17954,0.00129
4421.21526,0.00141
4420.25098,0.00150
4419.28670,0.00146
4418.32242,0.00143
4417.35814,0.00143
4416.39387,0.00141
4415.42959,0.00147
4414.46531,0.00166
4413.50103,0.00178
4412.53675,0.00175
4411.57248,0.00172
4410.60820,0.00173
4409.64392,0.00169
4408.67964,0.00163
4407.71536,0.00163
4406.75109,0.00162
4405.78681,0.00161
4404.82253,0.00162
4403.85825,0.00163
4402.89397,0.00157
4401.92969,0.00151
4400.96542,0.00154
4400.00114,0.00156
4399.03686,0.00147
4398.07258,0.00138
4397.10830,0.00147
4396.14403,0.00160
4395.17975,0.00157
4394.21547,0.00142
4393.25119,0.00137
4392.28691,0.00144
4391.32264,0.00146
4390.35836,0.00143
4389.39408,0.00144
4388.42980,0.00153
4387.46552,0.00160
4386.50124,0.00159
4385.53697,0.00160
4384.57269,0.00168
4383.60841,0.00168
4382.64413,0.00161
4381.67985,0.00157
4380.71558,0.00156
4379.75130,0.00158
4378.78702,0.00161
4377.82274,0.00163
4376.85846,0.00164
4375.89418,0.00163
4374.92991,0.00160
4373.96563,0.00163
4373.00135,0.00167
4372.03707,0.00160
4371.07279,0.00148
4370.10852,0.00150
4369.14424,0.00158
4368.17996,0.00163
4367.21568,0.00166
4366.25140,0.00160
4365.28713,0.00150
4364.32285,0.00150
4363.35857,0.00156
4362.39429,0.00158
4361.43001,0.00156
4360.46573,0.00152
4359.50146,0.00154
4358.53718,0.00159
4357.57290,0.00159
4356.60862,0.00159
4355.64434,0.00161
4354.68007,0.00163
4353.71579,0.00159
4352.75151,0.00151
4351.78723,0.00147
4350.82295,0.00154
4349.85868,0.00162
4348.89440,0.00164
4347.93012,0.00163
4346.96584,0.00160
4346.00156,0.00157
4345.03728,0.00159
4344.07301,0.00169
4343.10873,0.00174
4342.14445,0.00170
4341.18017,0.00166
4340.21589,0.00161
4339.25162,0.00151
4338.28734,0.00146
4337.32306,0.00151
4336.35878,0.00159
4335.39450,0.00156
4334.43023,0.00152
4333.46595,0.00153
4332.50167,0.00155
4331.53739,0.00154
4330.57311,0.00150
4329.60883,0.00151
4328.64456,0.00163
4327.68028,0.00174
4326.71600,0.00177
4325.75172,0.00176
4324.78744,0.00171
4323.82317,0.00164
4322.85889,0.00162
4321.89461,0.00165
4320.93033,0.00175
4319.96605,0.00188
4319.00177,0.00197
4318.03750,0.00195
4317.07322,0.00181
4316.10894,0.00160
4315.14466,0.00151
4314.18038,0.00157
4313.21611,0.00166
4312.25183,0.00172
4311.28755,0.00171
4310.32327,0.00163
4309.35899,0.00151
4308.39472,0.00140
4307.43044,0.00135
4306.46616,0.00140
4305.50188,0.00149
4304.53760,0.00157
4303.57332,0.00167
4302.60905,0.00173
4301.64477,0.00171
4300.68049,0.00169
4299.71621,0.00170
4298.75193,0.00168
4297.78766,0.00161
4296.82338,0.00158
4295.85910,0.00160
4294.89482,0.00164
4293.93054,0.00162
4292.96627,0.00152
4292.00199,0.00143
4291.03771,0.00143
4290.07343,0.00146
4289.10915,0.00145
4288.14487,0.00145
4287.18060,0.00147
4286.21632,0.00154
4285.25204,0.00158
4284.28776,0.00153
4283.32348,0.00149
4282.35921,0.00152
4281.39493,0.00155
4280.43065,0.00158
4279.46637,0.00156
4278.50209,0.00144
4277.53782,0.00133
4276.57354,0.00138
4275.60926,0.00149
4274.64498,0.00154
4273.68070,0.00155
4272.71642,0.00161
4271.75215,0.00168
4270.78787,0.00163
4269.82359,0.00144
4268.85931,0.00129
4267.89503,0.00130
4266.93076,0.00141
4265.96648,0.00149
4265.00220,0.00152
4264.03792,0.00150
4263.07364,0.00144
4262.10936,0.00143
4261.14509,0.00146
4260.18081,0.00144
4259.21653,0.00143
4258.25225,0.00153
4257.28797,0.00165
4256.32370,0.00165
4255.35942,0.00161
4254.39514,0.00163
4253.43086,0.00164
4252.46658,0.00154
4251.50231,0.00147
4250.53803,0.00152
4249.57375,0.00161
4248.60947,0.00167
4247.64519,0.00169
4246.68091,0.00161
4245.71664,0.00146
4244.75236,0.00139
4243.78808,0.00141
4242.82380,0.00149
4241.85952,0.00152
4240.89525,0.00147
4239.93097,0.00145
4238.96669,0.00147
4238.00241,0.00144
4237.03813,0.00145
4236.07386,0.00156
4235.10958,0.00166
4234.14530,0.00162
4233.18102,0.00154
4232.21674,0.00154
4231.25246,0.00158
4230.28819,0.00165
4229.32391,0.00173
4228.35963,0.00171
4227.39535,0.00164
4226.43107,0.00155
4225.46680,0.00143
4224.50252,0.00137
4223.53824,0.00141
4222.57396,0.00147
4221.60968,0.00150
4220.64540,0.00159
4219.68113,0.00172
4218.71685,0.00178
4217.75257,0.00174
4216.78829,0.00165
4215.82401,0.00157
4214.85974,0.00150
4213.89546,0.00142
4212.93118,0.00142
4211.96690,0.00152
4211.00262,0.00161
4210.03835,0.00162
4209.07407,0.00157
4208.10979,0.00154
4207.14551,0.00154
4206.18123,0.00156
4205.21695,0.00155
4204.25268,0.00152
4203.28840,0.00151
4202.32412,0.00159
4201.35984,0.00169
4200.39556,0.00170
4199.43129,0.00162
4198.46701,0.00151
4197.50273,0.00151
4196.53845,0.00162
4195.57417,0.00170
4194.60990,0.00166
4193.64562,0.00159
4192.68134,0.00156
4191.71706,0.00154
4190.75278,0.00153
4189.78850,0.00157
4188.82423,0.00157
4187.85995,0.00146
4186.89567,0.00144
4185.93139,0.00162
4184.96711,0.00177
4184.00284,0.00171
4183.03856,0.00158
4182.07428,0.00147
4181.11000,0.00141
4180.14572,0.00146
4179.18145,0.00155
4178.21717,0.00158
4177.25289,0.00155
4176.28861,0.00150
4175.32433,0.00149
4174.36005,0.00154
4173.39578,0.00159
4172.43150,0.00161
4171.46722,0.00161
4170.50294,0.00160
4169.53866,0.00158
4168.57439,0.00157
4167.61011,0.00156
4166.64583,0.00149
4165.68155,0.00141
4164.71727,0.00140
4163.75299,0.00144
4162.78872,0.00145
4161.82444,0.00146
4160.86016,0.00150
4159.89588,0.00153
4158.93160,0.00156
4157.96733,0.00164
4157.00305,0.00172
4156.03877,0.00168
4155.07449,0.00156
4154.11021,0.00148
4153.14594,0.00153
4152.18166,0.00153
4151.21738,0.00144
4150.25310,0.00139
4149.28882,0.00141
4148.32454,0.00140
4147.36027,0.00137
4146.39599,0.00138
4145.43171,0.00145
4144.46743,0.00151
4143.50315,0.00147
4142.53888,0.00142
4141.57460,0.00140
4140.61032,0.00141
4139.64604,0.00144
4138.68176,0.00148
4137.71749,0.00147
4136.75321,0.00148
4135.78893,0.00153
4134.82465,0.00158
4133.86037,0.00159
4132.89609,0.00158
4131.93182,0.00160
4130.96754,0.00162
4130.00326,0.00157
4129.03898,0.00152
4128.07470,0.00148
4127.11043,0.00150
4126.14615,0.00156
4125.18187,0.00160
4124.21759,0.00159
4123.25331,0.00154
4122.28903,0.00148
4121.32476,0.00149
4120.36048,0.00155
4119.39620,0.00157
4118.43192,0.00157
4117.46764,0.00150
4116.50337,0.00142
4115.53909,0.00144
4114.57481,0.00150
4113.61053,0.00153
4112.64625,0.00152
4111.68198,0.00153
4110.71770,0.00150
4109.75342,0.00145
4108.78914,0.00141
4107.82486,0.00141
4106.86058,0.00146
4105.89631,0.00153
4104.93203,0.00157
4103.96775,0.00153
4103.00347,0.00147
4102.03919,0.00143
4101.07492,0.00143
4100.11064,0.00145
4099.14636,0.00149
4098.18208,0.00153
4097.21780,0.00151
4096.25353,0.00146
4095.28925,0.00144
4094.32497,0.00145
4093.36069,0.00143
4092.39641,0.00140
4091.43213,0.00146
4090.46786,0.00159
4089.50358,0.00166
4088.53930,0.00164
4087.57502,0.00157
4086.61074,0.00148
4085.64647,0.00143
4084.68219,0.00149
4083.71791,0.00157
4082.75363,0.00161
4081.78935,0.00162
4080.82508,0.00160
4079.86080,0.00153
4078.89652,0.00146
4077.93224,0.00143
4076.96796,0.00144
4076.00368,0.00149
4075.03941,0.00157
4074.07513,0.00160
4073.11085,0.00156
4072.14657,0.00153
4071.18229,0.00155
4070.21802,0.00162
4069.25374,0.00164
4068.28946,0.00159
4067.32518,0.00157
4066.36090,0.00160
4065.39662,0.00162
4064.43235,0.00161
4063.46807,0.00160
4062.50379,0.00159
4061.53951,0.00153
4060.57523,0.00143
4059.61096,0.00137
4058.64668,0.00136
4057.68240,0.00137
4056.71812,0.00137
4055.75384,0.00136
4054.78957,0.00138
4053.82529,0.00139
4052.86101,0.00139
4051.89673,0.00144
4050.93245,0.00152
4049.96817,0.00162
4049.00390,0.00169
4048.03962,0.00172
4047.07534,0.00169
4046.11106,0.00160
4045.14678,0.00148
4044.18251,0.00139
4043.21823,0.00140
4042.25395,0.00145
4041.28967,0.00153
4040.32539,0.00159
4039.36112,0.00157
4038.39684,0.00151
4037.43256,0.00149
4036.46828,0.00152
4035.50400,0.00152
4034.53972,0.00148
4033.57545,0.00145
4032.61117,0.00141
4031.64689,0.00142
4030.68261,0.00151
4029.71833,0.00158
4028.75406,0.00158
4027.78978,0.00158
4026.82550,0.00158
4025.86122,0.00154
4024.89694,0.00148
4023.93267,0.00145
4022.96839,0.00146
4022.00411,0.00146
4021.03983,0.00147
4020.07555,0.00150
4019.11127,0.00153
4018.14700,0.00156
4017.18272,0.00156
4016.21844,0.00154
4015.25416,0.00154
4014.28988,0.00155
4013.32561,0.00153
4012.36133,0.00149
4011.39705,0.00149
4010.43277,0.00149
4009.46849,0.00144
4008.50421,0.00144
4007.53994,0.00149
4006.57566,0.00155
4005.61138,0.00155
4004.64710,0.00148
4003.68282,0.00144
4002.71855,0.00147
4001.75427,0.00149
4000.78999,0.00150
3999.82571,0.00146
3998.86143,0.00142
3997.89716,0.00146
3996.93288,0.00155
3995.96860,0.00157
3995.00432,0.00154
3994.04004,0.00155
3993.07576,0.00156
3992.11149,0.00151
3991.14721,0.00146
3990.18293,0.00140
3989.21865,0.00133
3988.25437,0.00131
3987.29010,0.00137
3986.32582,0.00143
3985.36154,0.00142
3984.39726,0.00135
3983.43298,0.00128
3982.46871,0.00130
3981.50443,0.00140
3980.54015,0.00145
3979.57587,0.00142
3978.61159,0.00139
3977.64731,0.00141
3976.68304,0.00148
3975.71876,0.00152
3974.75448,0.00148
3973.79020,0.00142
3972.82592,0.00140
3971.86165,0.00141
3970.89737,0.00139
3969.93309,0.00133
3968.96881,0.00131
3968.00453,0.00136
3967.04025,0.00142
3966.07598,0.00142
3965.11170,0.00141
3964.14742,0.00143
3963.18314,0.00146
3962.21886,0.00148
3961.25459,0.00152
3960.29031,0.00156
3959.32603,0.00158
3958.36175,0.00157
3957.39747,0.00157
3956.43320,0.00154
3955.46892,0.00148
3954.50464,0.00143
3953.54036,0.00145
3952.57608,0.00148
3951.61180,0.00146
3950.64753,0.00142
3949.68325,0.00140
3948.71897,0.00139
3947.75469,0.00139
3946.79041,0.00141
3945.82614,0.00145
3944.86186,0.00145
3943.89758,0.00144
3942.93330,0.00142
3941.96902,0.00140
3941.00475,0.00139
3940.04047,0.00140
3939.07619,0.00143
3938.11191,0.00144
3937.14763,0.00144
3936.18335,0.00147
3935.21908,0.00152
3934.25480,0.00153
3933.29052,0.00148
3932.32624,0.00140
3931.36196,0.00132
3930.39769,0.00128
3929.43341,0.00132
3928.46913,0.00141
3927.50485,0.00148
3926.54057,0.00150
3925.57630,0.00148
3924.61202,0.00146
3923.64774,0.00144
3922.68346,0.00143
3921.71918,0.00144
3920.75490,0.00146
3919.79063,0.00150
3918.82635,0.00154
3917.86207,0.00155
3916.89779,0.00153
3915.93351,0.00151
3914.96924,0.00151
3914.00496,0.00150
3913.04068,0.00147
3912.07640,0.00144
3911.11212,0.00143
3910.14784,0.00146
3909.18357,0.00150
3908.21929,0.00153
3907.25501,0.00153
3906.29073,0.00151
3905.32645,0.00149
3904.36218,0.00149
3903.39790,0.00149
3902.43362,0.00148
3901.46934,0.00147
3900.50506,0.00145
3899.54079,0.00143
3898.57651,0.00144
3897.61223,0.00148
3896.64795,0.00152
3895.68367,0.00154
3894.71939,0.00153
3893.75512,0.00151
3892.79084,0.00147
3891.82656,0.00142
3890.86228,0.00138
3889.89800,0.00137
3888.93373,0.00139
3887.96945,0.00141
3887.00517,0.00141
3886.04089,0.00138
3885.07661,0.00133
3884.11234,0.00131
3883.14806,0.00134
3882.18378,0.00139
3881.21950,0.00143
3880.25522,0.00146
3879.29094,0.00149
3878.32667,0.00152
3877.36239,0.00153
3876.39811,0.00153
3875.43383,0.00154
3874.46955,0.00152
3873.50528,0.00147
3872.54100,0.00144
3871.57672,0.00143
3870.61244,0.00142
3869.64816,0.00139
3868.68389,0.00138
3867.71961,0.00141
3866.75533,0.00143
3865.79105,0.00142
3864.82677,0.00139
3863.86249,0.00138
3862.89822,0.00140
3861.93394,0.00144
3860.96966,0.00146
3860.00538,0.00146
3859.04110,0.00149
3858.07683,0.00154
3857.11255,0.00163
3856.14827,0.00171
3855.18399,0.00173
3854.21971,0.00165
3853.25543,0.00152
3852.29116,0.00144
3851.32688,0.00141
3850.36260,0.00143
3849.39832,0.00146
3848.43404,0.00149
3847.46977,0.00150
3846.50549,0.00147
3845.54121,0.00142
3844.57693,0.00139
3843.61265,0.00140
3842.64838,0.00144
3841.68410,0.00146
3840.71982,0.00142
3839.75554,0.00133
3838.79126,0.00126
3837.82698,0.00126
3836.86271,0.00130
3835.89843,0.00135
3834.93415,0.00136
3833.96987,0.00135
3833.00559,0.00137
3832.04132,0.00142
3831.07704,0.00149
3830.11276,0.00154
3829.14848,0.00154
3828.18420,0.00150
3827.21993,0.00147
3826.25565,0.00147
3825.29137,0.00147
3824.32709,0.00148
3823.36281,0.00149
3822.39853,0.00152
3821.43426,0.00153
3820.46998,0.00151
3819.50570,0.00147
3818.54142,0.00144
3817.57714,0.00145
3816.61287,0.00148
3815.64859,0.00150
3814.68431,0.00151
3813.72003,0.00152
3812.75575,0.00155
3811.79147,0.00158
3810.82720,0.00159
3809.86292,0.00157
3808.89864,0.00152
3807.93436,0.00146
3806.97008,0.00142
3806.00581,0.00141
3805.04153,0.00143
3804.07725,0.00147
3803.11297,0.00152
3802.14869,0.00153
3801.18442,0.00148
3800.22014,0.00139
3799.25586,0.00130
3798.29158,0.00128
3797.32730,0.00133
3796.36302,0.00143
3795.39875,0.00150
3794.43447,0.00154
3793.47019,0.00153
3792.50591,0.00152
3791.54163,0.00153
3790.57736,0.00156
3789.61308,0.00160
3788.64880,0.00161
3787.68452,0.00158
3786.72024,0.00150
3785.75597,0.00141
3784.79169,0.00137
3783.82741,0.00139
3782.86313,0.00145
3781.89885,0.00148
3780.93457,0.00147
3779.97030,0.00143
3779.00602,0.00141
3778.04174,0.00143
3777.07746,0.00147
3776.11318,0.00151
3775.14891,0.00154
3774.18463,0.00156
3773.22035,0.00156
3772.25607,0.00154
3771.29179,0.00150
3770.32752,0.00146
3769.36324,0.00144
3768.39896,0.00143
3767.43468,0.00140
3766.47040,0.00136
3765.50612,0.00136
3764.54185,0.00139
3763.57757,0.00143
3762.61329,0.00144
3761.64901,0.00144
3760.68473,0.00147
3759.72046,0.00150
3758.75618,0.00151
3757.79190,0.00147
3756.82762,0.00142
3755.86334,0.00140
3754.89906,0.00142
3753.93479,0.00146
3752.97051,0.00145
3752.00623,0.00142
3751.04195,0.00141
3750.07767,0.00142
3749.11340,0.00139
3748.14912,0.00135
3747.18484,0.00137
3746.22056,0.00147
3745.25628,0.00157
3744.29201,0.00155
3743.32773,0.00141
3742.36345,0.00123
3741.39917,0.00111
3740.43489,0.00108
3739.47061,0.00110
3738.50634,0.00117
3737.54206,0.00126
3736.57778,0.00137
3735.61350,0.00144
3734.64922,0.00147
3733.68495,0.00149
3732.72067,0.00151
3731.75639,0.00151
3730.79211,0.00145
3729.82783,0.00136
3728.86356,0.00130
3727.89928,0.00128
3726.93500,0.00133
3725.97072,0.00144
3725.00644,0.00157
3724.04216,0.00166
3723.07789,0.00167
3722.11361,0.00162
3721.14933,0.00155
3720.18505,0.00148
3719.22077,0.00145
3718.25650,0.00146
3717.29222,0.00150
3716.32794,0.00154
3715.36366,0.00156
3714.39938,0.00156
3713.43510,0.00150
3712.47083,0.00138
3711.50655,0.00126
3710.54227,0.00121
3709.57799,0.00123
3708.61371,0.00131
3707.64944,0.00139
3706.68516,0.00146
3705.72088,0.00153
3704.75660,0.00159
3703.79232,0.00164
3702.82805,0.00163
3701.86377,0.00154
3700.89949,0.00143
3699.93521,0.00138
3698.97093,0.00138
3698.00665,0.00137
3697.04238,0.00136
3696.07810,0.00137
3695.11382,0.00140
3694.14954,0.00143
3693.18526,0.00143
3692.22099,0.00138
3691.25671,0.00129
3690.29243,0.00118
3689.32815,0.00110
3688.36387,0.00111
3687.39960,0.00122
3686.43532,0.00138
3685.47104,0.00152
3684.50676,0.00160
3683.54248,0.00163
3682.57820,0.00160
3681.61393,0.00155
3680.64965,0.00151
3679.68537,0.00150
3678.72109,0.00150
3677.75681,0.00149
3676.79254,0.00143
3675.82826,0.00136
3674.86398,0.00134
3673.89970,0.00141
3672.93542,0.00150
3671.97115,0.00152
3671.00687,0.00146
3670.04259,0.00137
3669.07831,0.00135
3668.11403,0.00144
3667.14975,0.00155
3666.18548,0.00160
3665.22120,0.00157
3664.25692,0.00151
3663.29264,0.00148
3662.32836,0.00147
3661.36409,0.00147
3660.39981,0.00147
3659.43553,0.00147
3658.47125,0.00147
3657.50697,0.00146
3656.54269,0.00144
3655.57842,0.00141
3654.61414,0.00140
3653.64986,0.00143
3652.68558,0.00148
3651.72130,0.00150
3650.75703,0.00151
3649.79275,0.00154
3648.82847,0.00155
3647.86419,0.00149
3646.89991,0.00142
3645.93564,0.00140
3644.97136,0.00146
3644.00708,0.00152
3643.04280,0.00158
3642.07852,0.00162
3641.11424,0.00167
3640.14997,0.00168
3639.18569,0.00167
3638.22141,0.00164
3637.25713,0.00162
3636.29285,0.00162
3635.32858,0.00160
3634.36430,0.00153
3633.40002,0.00145
3632.43574,0.00143
3631.47146,0.00150
3630.50719,0.00164
3629.54291,0.00177
3628.57863,0.00181
3627.61435,0.00175
3626.65007,0.00166
3625.68579,0.00163
3624.72152,0.00166
3623.75724,0.00171
3622.79296,0.00171
3621.82868,0.00165
3620.86440,0.00158
3619.90013,0.00151
3618.93585,0.00147
3617.97157,0.00148
3617.00729,0.00153
3616.04301,0.00159
3615.07874,0.00164
3614.11446,0.00166
3613.15018,0.00165
3612.18590,0.00163
3611.22162,0.00163
3610.25734,0.00163
3609.29307,0.00163
3608.32879,0.00161
3607.36451,0.00160
3606.40023,0.00160
3605.43595,0.00162
3604.47168,0.00165
3603.50740,0.00166
3602.54312,0.00166
3601.57884,0.00165
3600.61456,0.00163
3599.65028,0.00158
3598.68601,0.00151
3597.72173,0.00147
3596.75745,0.00149
3595.79317,0.00151
3594.82889,0.00154
3593.86462,0.00158
3592.90034,0.00163
3591.93606,0.00170
3590.97178,0.00176
3590.00750,0.00177
3589.04323,0.00172
3588.07895,0.00166
3587.11467,0.00165
3586.15039,0.00167
3585.18611,0.00168
3584.22183,0.00166
3583.25756,0.00166
3582.29328,0.00169
3581.32900,0.00173
3580.36472,0.00172
3579.40044,0.00165
3578.43617,0.00158
3577.47189,0.00151
3576.50761,0.00145
3575.54333,0.00142
3574.57905,0.00144
3573.61478,0.00150
3572.65050,0.00157
3571.68622,0.00159
3570.72194,0.00155
3569.75766,0.00151
3568.79338,0.00154
3567.82911,0.00162
3566.86483,0.00167
3565.90055,0.00165
3564.93627,0.00158
3563.97199,0.00151
3563.00772,0.00148
3562.04344,0.00149
3561.07916,0.00156
3560.11488,0.00163
3559.15060,0.00168
3558.18632,0.00168
3557.22205,0.00168
3556.25777,0.00169
3555.29349,0.00168
3554.32921,0.00163
3553.36493,0.00159
3552.40066,0.00162
3551.43638,0.00171
3550.47210,0.00176
3549.50782,0.00173
3548.54354,0.00167
3547.57927,0.00167
3546.61499,0.00168
3545.65071,0.00167
3544.68643,0.00165
3543.72215,0.00166
3542.75787,0.00170
3541.79360,0.00175
3540.82932,0.00178
3539.86504,0.00173
3538.90076,0.00164
3537.93648,0.00163
3536.97221,0.00172
3536.00793,0.00184
3535.04365,0.00191
3534.07937,0.00189
3533.11509,0.00183
3532.15082,0.00181
3531.18654,0.00183
3530.22226,0.00186
3529.25798,0.00184
3528.29370,0.00175
3527.32942,0.00170
3526.36515,0.00175
3525.40087,0.00185
3524.43659,0.00189
3523.47231,0.00185
3522.50803,0.00179
3521.54376,0.00174
3520.57948,0.00173
3519.61520,0.00178
3518.65092,0.00183
3517.68664,0.00183
3516.72237,0.00179
3515.75809,0.00175
3514.79381,0.00173
3513.82953,0.00176
3512.86525,0.00179
3511.90097,0.00172
3510.93670,0.00164
3509.97242,0.00163
3509.00814,0.00168
3508.04386,0.00174
3507.07958,0.00178
3506.11531,0.00176
3505.15103,0.00170
3504.18675,0.00166
3503.22247,0.00170
3502.25819,0.00181
3501.29391,0.00186
3500.32964,0.00182
3499.36536,0.00177
3498.40108,0.00175
3497.43680,0.00177
3496.47252,0.00185
3495.50825,0.00193
3494.54397,0.00195
3493.57969,0.00192
3492.61541,0.00184
3491.65113,0.00176
3490.68686,0.00173
3489.72258,0.00180
3488.75830,0.00191
3487.79402,0.00193
3486.82974,0.00189
3485.86546,0.00187
3484.90119,0.00188
3483.93691,0.00187
3482.97263,0.00183
3482.00835,0.00184
3481.04407,0.00189
3480.07980,0.00188
3479.11552,0.00184
3478.15124,0.00183
3477.18696,0.00186
3476.22268,0.00190
3475.25841,0.00193
3474.29413,0.00196
3473.32985,0.00200
3472.36557,0.00202
3471.40129,0.00201
3470.43701,0.00203
3469.47274,0.00207
3468.50846,0.00206
3467.54418,0.00200
3466.57990,0.00191
3465.61562,0.00185
3464.65135,0.00188
3463.68707,0.00195
3462.72279,0.00200
3461.75851,0.00206
3460.79423,0.00213
3459.82995,0.00217
3458.86568,0.00214
3457.90140,0.00205
3456.93712,0.00196
3455.97284,0.00191
3455.00856,0.00188
3454.04429,0.00189
3453.08001,0.00193
3452.11573,0.00198
3451.15145,0.00202
3450.18717,0.00205
3449.22290,0.00204
3448.25862,0.00199
3447.29434,0.00195
3446.33006,0.00196
3445.36578,0.00200
3444.40150,0.00201
3443.43723,0.00203
3442.47295,0.00208
3441.50867,0.00211
3440.54439,0.00205
3439.58011,0.00197
3438.61584,0.00194
3437.65156,0.00192
3436.68728,0.00192
3435.72300,0.00200
3434.75872,0.00208
3433.79445,0.00205
3432.83017,0.00201
3431.86589,0.00200
3430.90161,0.00199
3429.93733,0.00200
3428.97305,0.00204
3428.00878,0.00211
3427.04450,0.00217
3426.08022,0.00222
3425.11594,0.00222
3424.15166,0.00216
3423.18739,0.00206
3422.22311,0.00204
3421.25883,0.00210
3420.29455,0.00209
3419.33027,0.00204
3418.36600,0.00208
3417.40172,0.00215
3416.43744,0.00215
3415.47316,0.00212
3414.50888,0.00214
3413.54460,0.00218
3412.58033,0.00216
3411.61605,0.00208
3410.65177,0.00197
3409.68749,0.00191
3408.72321,0.00191
3407.75894,0.00193
3406.79466,0.00193
3405.83038,0.00195
3404.86610,0.00198
3403.90182,0.00201
3402.93754,0.00201
3401.97327,0.00202
3401.00899,0.00205
3400.04471,0.00202
3399.08043,0.00195
3398.11615,0.00193
3397.15188,0.00197
3396.18760,0.00204
3395.22332,0.00211
3394.25904,0.00213
3393.29476,0.00207
3392.33049,0.00201
3391.36621,0.00200
3390.40193,0.00201
3389.43765,0.00201
3388.47337,0.00205
3387.50909,0.00208
3386.54482,0.00206
3385.58054,0.00198
3384.61626,0.00190
3383.65198,0.00189
3382.68770,0.00191
3381.72343,0.00191
3380.75915,0.00193
3379.79487,0.00200
3378.83059,0.00206
3377.86631,0.00205
3376.90204,0.00204
3375.93776,0.00205
3374.97348,0.00203
3374.00920,0.00198
3373.04492,0.00194
3372.08064,0.00191
3371.11637,0.00188
3370.15209,0.00192
3369.18781,0.00201
3368.22353,0.00201
3367.25925,0.00196
3366.29498,0.00198
3365.33070,0.00202
3364.36642,0.00199
3363.40214,0.00191
3362.43786,0.00189
3361.47359,0.00198
3360.50931,0.00208
3359.54503,0.00207
3358.58075,0.00194
3357.61647,0.00182
3356.65219,0.00177
3355.68792,0.00182
3354.72364,0.00193
3353.75936,0.00202
3352.79508,0.00199
3351.83080,0.00188
3350.86653,0.00182
3349.90225,0.00184
3348.93797,0.00186
3347.97369,0.00188
3347.00941,0.00193
3346.04513,0.00196
3345.08086,0.00196
3344.11658,0.00197
3343.15230,0.00196
3342.18802,0.00194
3341.22374,0.00193
3340.25947,0.00191
3339.29519,0.00186
3338.33091,0.00186
3337.36663,0.00196
3336.40235,0.00205
3335.43808,0.00205
3334.47380,0.00201
3333.50952,0.00196
3332.54524,0.00191
3331.58096,0.00189
3330.61668,0.00194
3329.65241,0.00200
3328.68813,0.00204
3327.72385,0.00206
3326.75957,0.00208
3325.79529,0.00211
3324.83102,0.00209
3323.86674,0.00202
3322.90246,0.00200
3321.93818,0.00206
3320.97390,0.00213
3320.00963,0.00216
3319.04535,0.00213
3318.08107,0.00212
3317.11679,0.00212
3316.15251,0.00213
3315.18823,0.00213
3314.22396,0.00209
3313.25968,0.00211
3312.29540,0.00221
3311.33112,0.00231
3310.36684,0.00233
3309.40257,0.00233
3308.43829,0.00235
3307.47401,0.00237
3306.50973,0.00236
3305.54545,0.00237
3304.58117,0.00240
3303.61690,0.00246
3302.65262,0.00251
3301.68834,0.00251
3300.72406,0.00244
3299.75978,0.00236
3298.79551,0.00235
3297.83123,0.00241
3296.86695,0.00248
3295.90267,0.00250
3294.93839,0.00246
3293.97412,0.00244
3293.00984,0.00243
3292.04556,0.00240
3291.08128,0.00234
3290.11700,0.00229
3289.15272,0.00230
3288.18845,0.00236
3287.22417,0.00233
3286.25989,0.00222
3285.29561,0.00213
3284.33133,0.00208
3283.36706,0.00205
3282.40278,0.00212
3281.43850,0.00227
3280.47422,0.00236
3279.50994,0.00234
3278.54567,0.00225
3277.58139,0.00221
3276.61711,0.00224
3275.65283,0.00223
3274.68855,0.00215
3273.72427,0.00209
3272.76000,0.00205
3271.79572,0.00199
3270.83144,0.00191
3269.86716,0.00182
3268.90288,0.00176
3267.93861,0.00173
3266.97433,0.00178
3266.01005,0.00185
3265.04577,0.00186
3264.08149,0.00182
3263.11722,0.00181
3262.15294,0.00183
3261.18866,0.00187
3260.22438,0.00189
3259.26010,0.00184
3258.29582,0.00176
3257.33155,0.00175
3256.36727,0.00178
3255.40299,0.00178
3254.43871,0.00179
3253.47443,0.00180
3252.51016,0.00183
3251.54588,0.00185
3250.58160,0.00187
3249.61732,0.00192
3248.65304,0.00194
3247.68876,0.00188
3246.72449,0.00182
3245.76021,0.00184
3244.79593,0.00186
3243.83165,0.00184
3242.86737,0.00180
3241.90310,0.00178
3240.93882,0.00176
3239.97454,0.00174
3239.01026,0.00172
3238.04598,0.00170
3237.08171,0.00172
3236.11743,0.00174
3235.15315,0.00176
3234.18887,0.00180
3233.22459,0.00184
3232.26031,0.00181
3231.29604,0.00174
3230.33176,0.00170
3229.36748,0.00170
3228.40320,0.00170
3227.43892,0.00171
3226.47465,0.00171
3225.51037,0.00172
3224.54609,0.00174
3223.58181,0.00174
3222.61753,0.00172
3221.65326,0.00171
3220.68898,0.00172
3219.72470,0.00175
3218.76042,0.00176
3217.79614,0.00172
3216.83186,0.00167
3215.86759,0.00168
3214.90331,0.00171
3213.93903,0.00175
3212.97475,0.00183
3212.01047,0.00191
3211.04620,0.00191
3210.08192,0.00186
3209.11764,0.00180
3208.15336,0.00180
3207.18908,0.00185
3206.22480,0.00189
3205.26053,0.00187
3204.29625,0.00181
3203.33197,0.00174
3202.36769,0.00166
3201.40341,0.00161
3200.43914,0.00162
3199.47486,0.00164
3198.51058,0.00166
3197.54630,0.00166
3196.58202,0.00164
3195.61775,0.00163
3194.65347,0.00160
3193.68919,0.00160
3192.72491,0.00164
3191.76063,0.00170
3190.79635,0.00167
3189.83208,0.00162
3188.86780,0.00160
3187.90352,0.00164
3186.93924,0.00168
3185.97496,0.00169
3185.01069,0.00168
3184.04641,0.00168
3183.08213,0.00164
3182.11785,0.00158
3181.15357,0.00155
3180.18930,0.00157
3179.22502,0.00159
3178.26074,0.00163
3177.29646,0.00169
3176.33218,0.00175
3175.36790,0.00178
3174.40363,0.00172
3173.43935,0.00163
3172.47507,0.00161
3171.51079,0.00166
3170.54651,0.00175
3169.58224,0.00185
3168.61796,0.00190
3167.65368,0.00188
3166.68940,0.00180
3165.72512,0.00170
3164.76085,0.00166
3163.79657,0.00170
3162.83229,0.00172
3161.86801,0.00168
3160.90373,0.00166
3159.93945,0.00169
3158.97518,0.00170
3158.01090,0.00168
3157.04662,0.00167
3156.08234,0.00165
3155.11806,0.00160
3154.15379,0.00157
3153.18951,0.00157
3152.22523,0.00155
3151.26095,0.00151
3150.29667,0.00151
3149.33239,0.00160
3148.36812,0.00171
3147.40384,0.00177
3146.43956,0.00179
3145.47528,0.00182
3144.51100,0.00179
3143.54673,0.00167
3142.58245,0.00157
3141.61817,0.00155
3140.65389,0.00159
3139.68961,0.00163
3138.72534,0.00162
3137.76106,0.00159
3136.79678,0.00161
3135.83250,0.00164
3134.86822,0.00166
3133.90394,0.00167
3132.93967,0.00165
3131.97539,0.00163
3131.01111,0.00165
3130.04683,0.00165
3129.08255,0.00157
3128.11828,0.00150
3127.15400,0.00149
3126.18972,0.00156
3125.22544,0.00162
3124.26116,0.00167
3123.29689,0.00171
3122.33261,0.00175
3121.36833,0.00175
3120.40405,0.00170
3119.43977,0.00161
3118.47549,0.00155
3117.51122,0.00156
3116.54694,0.00161
3115.58266,0.00160
3114.61838,0.00154
3113.65410,0.00152
3112.68983,0.00157
3111.72555,0.00161
3110.76127,0.00161
3109.79699,0.00165
3108.83271,0.00172
3107.86844,0.00177
3106.90416,0.00177
3105.93988,0.00174
3104.97560,0.00169
3104.01132,0.00165
3103.04704,0.00170
3102.08277,0.00178
3101.11849,0.00182
3100.15421,0.00184
3099.18993,0.00184
3098.22565,0.00182
3097.26138,0.00178
3096.29710,0.00173
3095.33282,0.00167
3094.36854,0.00165
3093.40426,0.00168
3092.43998,0.00170
3091.47571,0.00170
3090.51143,0.00172
3089.54715,0.00175
3088.58287,0.00178
3087.61859,0.00181
3086.65432,0.00185
3085.69004,0.00183
3084.72576,0.00179
3083.76148,0.00178
3082.79720,0.00180
3081.83293,0.00183
3080.86865,0.00187
3079.90437,0.00187
3078.94009,0.00182
3077.97581,0.00174
3077.01153,0.00170
3076.04726,0.00169
3075.08298,0.00171
3074.11870,0.00173
3073.15442,0.00173
3072.19014,0.00173
3071.22587,0.00175
3070.26159,0.00178
3069.29731,0.00181
3068.33303,0.00180
3067.36875,0.00176
3066.40448,0.00171
3065.44020,0.00170
3064.47592,0.00169
3063.51164,0.00169
3062.54736,0.00172
3061.58308,0.00177
3060.61881,0.00180
3059.65453,0.00181
3058.69025,0.00183
3057.72597,0.00181
3056.76169,0.00176
3055.79742,0.00176
3054.83314,0.00177
3053.86886,0.00176
3052.90458,0.00174
3051.94030,0.00171
3050.97602,0.00169
3050.01175,0.00171
3049.04747,0.00174
3048.08319,0.00171
3047.11891,0.00169
3046.15463,0.00170
3045.19036,0.00169
3044.22608,0.00167
3043.26180,0.00169
3042.29752,0.00175
3041.33324,0.00181
3040.36897,0.00182
3039.40469,0.00178
3038.44041,0.00174
3037.47613,0.00179
3036.51185,0.00189
3035.54757,0.00199
3034.58330,0.00202
3033.61902,0.00194
3032.65474,0.00184
3031.69046,0.00180
3030.72618,0.00180
3029.76191,0.00180
3028.79763,0.00178
3027.83335,0.00178
3026.86907,0.00182
3025.90479,0.00183
3024.94052,0.00180
3023.97624,0.00179
3023.01196,0.00183
3022.04768,0.00187
3021.08340,0.00190
3020.11912,0.00193
3019.15485,0.00194
3018.19057,0.00189
3017.22629,0.00182
3016.26201,0.00181
3015.29773,0.00185
3014.33346,0.00189
3013.36918,0.00192
3012.40490,0.00195
3011.44062,0.00196
3010.47634,0.00198
3009.51207,0.00207
3008.54779,0.00215
3007.58351,0.00218
3006.61923,0.00220
3005.65495,0.00224
3004.69067,0.00224
3003.72640,0.00221
3002.76212,0.00220
3001.79784,0.00225
3000.83356,0.00232
2999.86928,0.00238
2998.90501,0.00247
2997.94073,0.00259
2996.97645,0.00264
2996.01217,0.00259
2995.04789,0.00261
2994.08361,0.00272
2993.11934,0.00279
2992.15506,0.00284
2991.19078,0.00291
2990.22650,0.00303
2989.26222,0.00317
2988.29795,0.00330
2987.33367,0.00342
2986.36939,0.00354
2985.40511,0.00371
2984.44083,0.00388
2983.47656,0.00404
2982.51228,0.00421
2981.54800,0.00442
2980.58372,0.00467
2979.61944,0.00493
2978.65516,0.00521
2977.69089,0.00549
2976.72661,0.00573
2975.76233,0.00599
2974.79805,0.00634
2973.83377,0.00674
2972.86950,0.00714
2971.90522,0.00756
2970.94094,0.00795
2969.97666,0.00830
2969.01238,0.00863
2968.04811,0.00899
2967.08383,0.00938
2966.11955,0.00980
2965.15527,0.01022
2964.19099,0.01057
2963.22671,0.01083
2962.26244,0.01101
2961.29816,0.01114
2960.33388,0.01121
2959.36960,0.01124
2958.40532,0.01126
2957.44105,0.01124
2956.47677,0.01114
2955.51249,0.01096
2954.54821,0.01072
2953.58393,0.01042
2952.61966,0.01005
2951.65538,0.00969
2950.69110,0.00939
2949.72682,0.00915
2948.76254,0.00894
2947.79826,0.00874
2946.83399,0.00860
2945.86971,0.00854
2944.90543,0.00854
2943.94115,0.00860
2942.97687,0.00873
2942.01260,0.00893
2941.04832,0.00920
2940.08404,0.00949
2939.11976,0.00979
2938.15548,0.01015
2937.19120,0.01053
2936.22693,0.01081
2935.26265,0.01098
2934.29837,0.01116
2933.33409,0.01141
2932.36981,0.01164
2931.40554,0.01183
2930.44126,0.01203
2929.47698,0.01219
2928.51270,0.01226
2927.54842,0.01232
2926.58415,0.01235
2925.61987,0.01236
2924.65559,0.01237
2923.69131,0.01239
2922.72703,0.01239
2921.76275,0.01241
2920.79848,0.01249
2919.83420,0.01256
2918.86992,0.01261
2917.90564,0.01264
2916.94136,0.01261
2915.97709,0.01245
2915.01281,0.01218
2914.04853,0.01183
2913.08425,0.01143
2912.11997,0.01100
2911.15570,0.01059
2910.19142,0.01027
2909.22714,0.01002
2908.26286,0.00979
2907.29858,0.00956
2906.33430,0.00932
2905.37003,0.00902
2904.40575,0.00873
2903.44147,0.00850
2902.47719,0.00826
2901.51291,0.00800
2900.54864,0.00777
2899.58436,0.00758
2898.62008,0.00736
2897.65580,0.00715
2896.69152,0.00694
2895.72724,0.00671
2894.76297,0.00651
2893.79869,0.00639
2892.83441,0.00627
2891.87013,0.00608
2890.90585,0.00588
2889.94158,0.00575
2888.97730,0.00568
2888.01302,0.00558
2887.04874,0.00548
2886.08446,0.00545
2885.12019,0.00549
2884.15591,0.00552
2883.19163,0.00553
2882.22735,0.00561
2881.26307,0.00579
2880.29879,0.00598
2879.33452,0.00617
2878.37024,0.00638
2877.40596,0.00662
2876.44168,0.00687
2875.47740,0.00706
2874.51313,0.00713
2873.54885,0.00714
2872.58457,0.00716
2871.62029,0.00717
2870.65601,0.00715
2869.69174,0.00704
2868.72746,0.00689
2867.76318,0.00681
2866.79890,0.00684
2865.83462,0.00695
2864.87034,0.00708
2863.90607,0.00727
2862.94179,0.00750
2861.97751,0.00766
2861.01323,0.00772
2860.04895,0.00773
2859.08468,0.00774
2858.12040,0.00767
2857.15612,0.00752
2856.19184,0.00734
2855.22756,0.00715
2854.26329,0.00697
2853.29901,0.00684
2852.33473,0.00680
2851.37045,0.00686
2850.40617,0.00688
2849.44189,0.00675
2848.47762,0.00648
2847.51334,0.00607
2846.54906,0.00554
2845.58478,0.00500
2844.62050,0.00458
2843.65623,0.00429
2842.69195,0.00407
2841.72767,0.00385
2840.76339,0.00362
2839.79911,0.00343
2838.83483,0.00330
2837.87056,0.00318
2836.90628,0.00308
2835.94200,0.00302
2834.97772,0.00298
2834.01344,0.00290
2833.04917,0.00278
2832.08489,0.00271
2831.12061,0.00269
2830.15633,0.00267
2829.19205,0.00260
2828.22778,0.00255
2827.26350,0.00256
2826.29922,0.00256
2825.33494,0.00252
2824.37066,0.00248
2823.40638,0.00241
2822.44211,0.00232
2821.47783,0.00228
2820.51355,0.00233
2819.54927,0.00243
2818.58499,0.00248
2817.62072,0.00247
2816.65644,0.00242
2815.69216,0.00238
2814.72788,0.00239
2813.76360,0.00240
2812.79933,0.00237
2811.83505,0.00229
2810.87077,0.00219
2809.90649,0.00214
2808.94221,0.00212
2807.97793,0.00208
2807.01366,0.00202
2806.04938,0.00200
2805.08510,0.00203
2804.12082,0.00206
2803.15654,0.00201
2802.19227,0.00196
2801.22799,0.00195
2800.26371,0.00193
2799.29943,0.00190
2798.33515,0.00186
2797.37087,0.00183
2796.40660,0.00180
2795.44232,0.00181
2794.47804,0.00186
2793.51376,0.00192
2792.54948,0.00194
2791.58521,0.00190
2790.62093,0.00187
2789.65665,0.00189
2788.69237,0.00191
2787.72809,0.00188
2786.76382,0.00182
2785.79954,0.00177
2784.83526,0.00178
2783.87098,0.00181
2782.90670,0.00181
2781.94242,0.00181
2780.97815,0.00185
2780.01387,0.00188
2779.04959,0.00186
2778.08531,0.00179
2777.12103,0.00173
2776.15676,0.00168
2775.19248,0.00163
2774.22820,0.00165
2773.26392,0.00173
2772.29964,0.00178
2771.33537,0.00179
2770.37109,0.00181
2769.40681,0.00186
2768.44253,0.00189
2767.47825,0.00186
2766.51397,0.00183
2765.54970,0.00183
2764.58542,0.00181
2763.62114,0.00180
2762.65686,0.00181
2761.69258,0.00183
2760.72831,0.00187
2759.76403,0.00190
2758.79975,0.00184
2757.83547,0.00174
2756.87119,0.00169
2755.90692,0.00171
2754.94264,0.00173
2753.97836,0.00175
2753.01408,0.00174
2752.04980,0.00173
2751.08552,0.00171
2750.12125,0.00170
2749.15697,0.00172
2748.19269,0.00175
2747.22841,0.00178
2746.26413,0.00181
2745.29986,0.00184
2744.33558,0.00185
2743.37130,0.00182
2742.40702,0.00179
2741.44274,0.00176
2740.47846,0.00172
2739.51419,0.00171
2738.54991,0.00173
2737.58563,0.00175
2736.62135,0.00175
2735.65707,0.00175
2734.69280,0.00177
2733.72852,0.00178
2732.76424,0.00178
2731.79996,0.00180
2730.83568,0.00183
2729.87141,0.00181
2728.90713,0.00176
2727.94285,0.00175
2726.97857,0.00179
2726.01429,0.00180
2725.05001,0.00177
2724.08574,0.00175
2723.12146,0.00174
2722.15718,0.00171
2721.19290,0.00171
2720.22862,0.00172
2719.26435,0.00174
2718.30007,0.00174
2717.33579,0.00172
2716.37151,0.00170
2715.40723,0.00172
2714.44296,0.00174
2713.47868,0.00172
2712.51440,0.00169
2711.55012,0.00166
2710.58584,0.00167
2709.62156,0.00170
2708.65729,0.00171
2707.69301,0.00167
2706.72873,0.00165
2705.76445,0.00169
2704.80017,0.00176
2703.83590,0.00178
2702.87162,0.00173
2701.90734,0.00164
2700.94306,0.00160
2699.97878,0.00166
2699.01451,0.00171
2698.05023,0.00169
2697.08595,0.00166
2696.12167,0.00165
2695.15739,0.00167
2694.19311,0.00168
2693.22884,0.00169
2692.26456,0.00168
2691.30028,0.00165
2690.33600,0.00164
2689.37172,0.00163
2688.40745,0.00163
2687.44317,0.00167
2686.47889,0.00171
2685.51461,0.00170
2684.55033,0.00167
2683.58605,0.00163
2682.62178,0.00158
2681.65750,0.00154
2680.69322,0.00155
2679.72894,0.00160
2678.76466,0.00162
2677.80039,0.00162
2676.83611,0.00163
2675.87183,0.00166
2674.90755,0.00168
2673.94327,0.00175
2672.97900,0.00185
2672.01472,0.00189
2671.05044,0.00185
2670.08616,0.00180
2669.12188,0.00174
2668.15760,0.00167
2667.19333,0.00162
2666.22905,0.00159
2665.26477,0.00158
2664.30049,0.00161
2663.33621,0.00165
2662.37194,0.00172
2661.40766,0.00176
2660.44338,0.00174
2659.47910,0.00173
2658.51482,0.00174
2657.55055,0.00173
2656.58627,0.00172
2655.62199,0.00173
2654.65771,0.00174
2653.69343,0.00172
2652.72915,0.00171
2651.76488,0.00173
2650.80060,0.00170
2649.83632,0.00163
2648.87204,0.00160
2647.90776,0.00165
2646.94349,0.00170
2645.97921,0.00170
2645.01493,0.00164
2644.05065,0.00156
2643.08637,0.00150
2642.12209,0.00151
2641.15782,0.00158
2640.19354,0.00170
2639.22926,0.00178
2638.26498,0.00177
2637.30070,0.00170
2636.33643,0.00163
2635.37215,0.00159
2634.40787,0.00160
2633.44359,0.00165
2632.47931,0.00170
2631.51504,0.00173
2630.55076,0.00174
2629.58648,0.00172
2628.62220,0.00167
2627.65792,0.00165
2626.69364,0.00168
2625.72937,0.00170
2624.76509,0.00169
2623.80081,0.00167
2622.83653,0.00168
2621.87225,0.00171
2620.90798,0.00172
2619.94370,0.00169
2618.97942,0.00162
2618.01514,0.00155
2617.05086,0.00151
2616.08659,0.00150
2615.12231,0.00153
2614.15803,0.00158
2613.19375,0.00158
2612.22947,0.00160
2611.26519,0.00170
2610.30092,0.00179
2609.33664,0.00179
2608.37236,0.00174
2607.40808,0.00171
2606.44380,0.00169
2605.47953,0.00166
2604.51525,0.00159
2603.55097,0.00158
2602.58669,0.00166
2601.62241,0.00170
2600.65814,0.00171
2599.69386,0.00176
2598.72958,0.00176
2597.76530,0.00166
2596.80102,0.00155
2595.83674,0.00152
2594.87247,0.00153
2593.90819,0.00156
2592.94391,0.00165
2591.97963,0.00176
2591.01535,0.00176
2590.05108,0.00164
2589.08680,0.00156
2588.12252,0.00158
2587.15824,0.00164
2586.19396,0.00170
2585.22968,0.00174
2584.26541,0.00178
2583.30113,0.00179
2582.33685,0.00179
2581.37257,0.00179
2580.40829,0.00176
2579.44402,0.00168
2578.47974,0.00162
2577.51546,0.00162
2576.55118,0.00166
2575.58690,0.00171
2574.62263,0.00172
2573.65835,0.00169
2572.69407,0.00160
2571.72979,0.00155
2570.76551,0.00156
2569.80123,0.00156
2568.83696,0.00157
2567.87268,0.00166
2566.90840,0.00178
2565.94412,0.00181
2564.97984,0.00177
2564.01557,0.00176
2563.05129,0.00173
2562.08701,0.00165
2561.12273,0.00163
2560.15845,0.00169
2559.19418,0.00171
2558.22990,0.00170
2557.26562,0.00173
2556.30134,0.00178
2555.33706,0.00178
2554.37278,0.00175
2553.40851,0.00170
2552.44423,0.00163
2551.47995,0.00158
2550.51567,0.00162
2549.55139,0.00166
2548.58712,0.00163
2547.62284,0.00157
2546.65856,0.00159
2545.69428,0.00173
2544.73000,0.00186
2543.76572,0.00186
2542.80145,0.00174
2541.83717,0.00157
2540.87289,0.00148
2539.90861,0.00155
2538.94433,0.00173
2537.98006,0.00179
2537.01578,0.00169
2536.05150,0.00158
2535.08722,0.00151
2534.12294,0.00155
2533.15867,0.00170
2532.19439,0.00182
2531.23011,0.00182
2530.26583,0.00172
2529.30155,0.00163
2528.33727,0.00160
2527.37300,0.00154
2526.40872,0.00142
2525.44444,0.00139
2524.48016,0.00147
2523.51588,0.00152
2522.55161,0.00152
2521.58733,0.00154
2520.62305,0.00162
2519.65877,0.00174
2518.69449,0.00178
2517.73022,0.00172
2516.76594,0.00159
2515.80166,0.00152
2514.83738,0.00154
2513.87310,0.00160
2512.90882,0.00162
2511.94455,0.00159
2510.98027,0.00157
2510.01599,0.00162
2509.05171,0.00169
2508.08743,0.00174
2507.12316,0.00175
2506.15888,0.00174
2505.19460,0.00170
2504.23032,0.00162
2503.26604,0.00160
2502.30177,0.00165
2501.33749,0.00164
2500.37321,0.00157
2499.40893,0.00155
2498.44465,0.00158
2497.48037,0.00160
2496.51610,0.00159
2495.55182,0.00158
2494.58754,0.00160
2493.62326,0.00163
2492.65898,0.00167
2491.69471,0.00164
2490.73043,0.00154
2489.76615,0.00143
2488.80187,0.00140
2487.83759,0.00151
2486.87331,0.00160
2485.90904,0.00156
2484.94476,0.00147
2483.98048,0.00143
2483.01620,0.00145
2482.05192,0.00156
2481.08765,0.00167
2480.12337,0.00168
2479.15909,0.00165
2478.19481,0.00166
2477.23053,0.00166
2476.26626,0.00162
2475.30198,0.00156
2474.33770,0.00153
2473.37342,0.00155
2472.40914,0.00156
2471.44486,0.00154
2470.48059,0.00154
2469.51631,0.00155
2468.55203,0.00157
2467.58775,0.00161
2466.62347,0.00162
2465.65920,0.00156
2464.69492,0.00148
2463.73064,0.00143
2462.76636,0.00144
2461.80208,0.00154
2460.83781,0.00164
2459.87353,0.00163
2458.90925,0.00155
2457.94497,0.00152
2456.98069,0.00158
2456.01641,0.00165
2455.05214,0.00169
2454.08786,0.00172
2453.12358,0.00173
2452.15930,0.00167
2451.19502,0.00158
2450.23075,0.00157
2449.26647,0.00167
2448.30219,0.00174
2447.33791,0.00169
2446.37363,0.00167
2445.40936,0.00176
2444.44508,0.00187
2443.48080,0.00188
2442.51652,0.00184
2441.55224,0.00184
2440.58796,0.00189
2439.62369,0.00196
2438.65941,0.00194
2437.69513,0.00177
2436.73085,0.00156
2435.76657,0.00151
2434.80230,0.00153
2433.83802,0.00156
2432.87374,0.00161
2431.90946,0.00168
2430.94518,0.00175
2429.98090,0.00180
2429.01663,0.00182
2428.05235,0.00181
2427.08807,0.00179
2426.12379,0.00177
2425.15951,0.00173
2424.19524,0.00169
2423.23096,0.00165
2422.26668,0.00159
2421.30240,0.00152
2420.33812,0.00149
2419.37385,0.00152
2418.40957,0.00160
2417.44529,0.00167
2416.48101,0.00168
2415.51673,0.00167
2414.55245,0.00166
2413.58818,0.00167
2412.62390,0.00171
2411.65962,0.00172
2410.69534,0.00168
2409.73106,0.00164
2408.76679,0.00163
2407.80251,0.00166
2406.83823,0.00171
2405.87395,0.00172
2404.90967,0.00171
2403.94540,0.00175
2402.98112,0.00181
2402.01684,0.00180
2401.05256,0.00170
2400.08828,0.00158
2399.12400,0.00154
2398.15973,0.00158
2397.19545,0.00163
2396.23117,0.00167
2395.26689,0.00168
2394.30261,0.00165
2393.33834,0.00159
2392.37406,0.00159
2391.40978,0.00166
2390.44550,0.00168
2389.48122,0.00161
2388.51694,0.00154
2387.55267,0.00155
2386.58839,0.00162
2385.62411,0.00166
2384.65983,0.00165
2383.69555,0.00161
2382.73128,0.00153
2381.76700,0.00140
2380.80272,0.00133
2379.83844,0.00132
2378.87416,0.00136
2377.90989,0.00141
2376.94561,0.00144
2375.98133,0.00142
2375.01705,0.00140
2374.05277,0.00137
2373.08849,0.00128
2372.12422,0.00122
2371.15994,0.00126
2370.19566,0.00129
2369.23138,0.00124
2368.26710,0.00112
2367.30283,0.00100
2366.33855,0.00100
2365.37427,0.00102
2364.40999,0.00103
2363.44571,0.00102
2362.48144,0.00101
2361.51716,0.00103
2360.55288,0.00100
2359.58860,0.00099
2358.62432,0.00107
2357.66004,0.00114
2356.69577,0.00114
2355.73149,0.00115
2354.76721,0.00120
2353.80293,0.00129
2352.83865,0.00131
2351.87438,0.00130
2350.91010,0.00129
2349.94582,0.00136
2348.98154,0.00149
2348.01726,0.00153
2347.05299,0.00151
2346.08871,0.00138
2345.12443,0.00131
2344.16015,0.00133
2343.19587,0.00131
2342.23159,0.00127
2341.26732,0.00123
2340.30304,0.00133
2339.33876,0.00121
2338.37448,0.00124
2337.41020,0.00121
2336.44593,0.00127
2335.48165,0.00123
2334.51737,0.00116
2333.55309,0.00124
2332.58881,0.00111
2331.62453,0.00124
2330.66026,0.00112
2329.69598,0.00135
2328.73170,0.00117
2327.76742,0.00133
2326.80314,0.00139
2325.83887,0.00176
2324.87459,0.00175
2323.91031,0.00186
2322.94603,0.00171
2321.98175,0.00183
2321.01748,0.00169
2320.05320,0.00177
2319.08892,0.00167
2318.12464,0.00174
2317.16036,0.00161
2316.19608,0.00172
2315.23181,0.00169
2314.26753,0.00175
2313.30325,0.00164
2312.33897,0.00168
2311.37469,0.00169
2310.41042,0.00178
2309.44614,0.00178
2308.48186,0.00176
2307.51758,0.00175
2306.55330,0.00175
2305.58903,0.00180
2304.62475,0.00181
2303.66047,0.00186
2302.69619,0.00185
2301.73191,0.00183
2300.76763,0.00181
2299.80336,0.00181
2298.83908,0.00176
2297.87480,0.00168
2296.91052,0.00164
2295.94624,0.00165
2294.98197,0.00174
2294.01769,0.00182
2293.05341,0.00186
2292.08913,0.00185
2291.12485,0.00184
2290.16057,0.00186
2289.19630,0.00192
2288.23202,0.00202
2287.26774,0.00211
2286.30346,0.00218
2285.33918,0.00223
2284.37491,0.00221
2283.41063,0.00214
2282.44635,0.00206
2281.48207,0.00205
2280.51779,0.00214
2279.55352,0.00225
2278.58924,0.00223
2277.62496,0.00218
2276.66068,0.00217
2275.69640,0.00213
2274.73212,0.00210
2273.76785,0.00214
2272.80357,0.00220
2271.83929,0.00225
2270.87501,0.00221
2269.91073,0.00209
2268.94646,0.00201
2267.98218,0.00196
2267.01790,0.00185
2266.05362,0.00177
2265.08934,0.00184
2264.12507,0.00198
2263.16079,0.00214
2262.19651,0.00224
2261.23223,0.00226
2260.26795,0.00229
2259.30367,0.00236
2258.33940,0.00244
2257.37512,0.00243
2256.41084,0.00229
2255.44656,0.00213
2254.48228,0.00214
2253.51801,0.00230
2252.55373,0.00248
2251.58945,0.00250
2250.62517,0.00235
2249.66089,0.00224
2248.69662,0.00222
2247.73234,0.00213
2246.76806,0.00203
2245.80378,0.00208
2244.83950,0.00213
2243.87522,0.00205
2242.91095,0.00207
2241.94667,0.00236
2240.98239,0.00265
2240.01811,0.00266
2239.05383,0.00246
2238.08956,0.00237
2237.12528,0.00246
2236.16100,0.00252
2235.19672,0.00257
2234.23244,0.00273
2233.26816,0.00280
2232.30389,0.00261
2231.33961,0.00240
2230.37533,0.00245
2229.41105,0.00260
2228.44677,0.00252
2227.48250,0.00238
2226.51822,0.00245
2225.55394,0.00252
2224.58966,0.00238
2223.62538,0.00224
2222.66111,0.00224
2221.69683,0.00232
2220.73255,0.00246
2219.76827,0.00257
2218.80399,0.00253
2217.83971,0.00251
2216.87544,0.00272
2215.91116,0.00301
2214.94688,0.00307
2213.98260,0.00286
2213.01832,0.00260
2212.05405,0.00241
2211.08977,0.00238
2210.12549,0.00239
2209.16121,0.00221
2208.19693,0.00200
2207.23266,0.00199
2206.26838,0.00227
2205.30410,0.00261
2204.33982,0.00274
2203.37554,0.00279
2202.41126,0.00289
2201.44699,0.00283
2200.48271,0.00272
2199.51843,0.00269
2198.55415,0.00268
2197.58987,0.00278
2196.62560,0.00296
2195.66132,0.00293
2194.69704,0.00259
2193.73276,0.00240
2192.76848,0.00255
2191.80421,0.00267
2190.83993,0.00266
2189.87565,0.00271
2188.91137,0.00262
2187.94709,0.00235
2186.98281,0.00237
2186.01854,0.00275
2185.05426,0.00284
2184.08998,0.00251
2183.12570,0.00228
2182.16142,0.00220
2181.19715,0.00201
2180.23287,0.00196
2179.26859,0.00213
2178.30431,0.00229
2177.34003,0.00242
2176.37575,0.00253
2175.41148,0.00255
2174.44720,0.00253
2173.48292,0.00242
2172.51864,0.00214
2171.55436,0.00200
2170.59009,0.00230
2169.62581,0.00289
2168.66153,0.00332
2167.69725,0.00321
2166.73297,0.00285
2165.76870,0.00278
2164.80442,0.00293
2163.84014,0.00303
2162.87586,0.00331
2161.91158,0.00381
2160.94730,0.00393
2159.98303,0.00338
2159.01875,0.00266
2158.05447,0.00218
2157.09019,0.00189
2156.12591,0.00164
2155.16164,0.00142
2154.19736,0.00142
2153.23308,0.00161
2152.26880,0.00181
2151.30452,0.00214
2150.34025,0.00263
2149.37597,0.00277
2148.41169,0.00238
2147.44741,0.00197
2146.48313,0.00187
2145.51885,0.00184
2144.55458,0.00161
2143.59030,0.00142
2142.62602,0.00148
2141.66174,0.00167
2140.69746,0.00188
2139.73319,0.00203
2138.76891,0.00202
2137.80463,0.00184
2136.84035,0.00157
2135.87607,0.00143
2134.91179,0.00155
2133.94752,0.00172
2132.98324,0.00174
2132.01896,0.00170
2131.05468,0.00167
2130.09040,0.00170
2129.12613,0.00183
2128.16185,0.00199
2127.19757,0.00200
2126.23329,0.00188
2125.26901,0.00181
2124.30474,0.00171
2123.34046,0.00148
2122.37618,0.00140
2121.41190,0.00154
2120.44762,0.00168
2119.48334,0.00169
2118.51907,0.00171
2117.55479,0.00183
2116.59051,0.00192
2115.62623,0.00199
2114.66195,0.00206
2113.69768,0.00202
2112.73340,0.00190
2111.76912,0.00185
2110.80484,0.00187
2109.84056,0.00194
2108.87629,0.00205
2107.91201,0.00204
2106.94773,0.00182
2105.98345,0.00160
2105.01917,0.00165
2104.05489,0.00191
2103.09062,0.00213
2102.12634,0.00221
2101.16206,0.00216
2100.19778,0.00201
2099.23350,0.00190
2098.26923,0.00190
2097.30495,0.00188
2096.34067,0.00182
2095.37639,0.00177
2094.41211,0.00177
2093.44784,0.00181
2092.48356,0.00181
2091.51928,0.00176
2090.55500,0.00181
2089.59072,0.00198
2088.62644,0.00209
2087.66217,0.00202
2086.69789,0.00193
2085.73361,0.00198
2084.76933,0.00208
2083.80505,0.00212
2082.84078,0.00220
2081.87650,0.00238
2080.91222,0.00256
2079.94794,0.00260
2078.98366,0.00247
2078.01938,0.00225
2077.05511,0.00204
2076.09083,0.00188
2075.12655,0.00182
2074.16227,0.00197
2073.19799,0.00229
2072.23372,0.00244
2071.26944,0.00232
2070.30516,0.00222
2069.34088,0.00228
2068.37660,0.00238
2067.41233,0.00252
2066.44805,0.00264
2065.48377,0.00260
2064.51949,0.00246
2063.55521,0.00227
2062.59093,0.00201
2061.62666,0.00183
2060.66238,0.00194
2059.69810,0.00224
2058.73382,0.00235
2057.76954,0.00225
2056.80527,0.00216
2055.84099,0.00220
2054.87671,0.00233
2053.91243,0.00245
2052.94815,0.00260
2051.98388,0.00278
2051.01960,0.00287
2050.05532,0.00277
2049.09104,0.00269
2048.12676,0.00282
2047.16248,0.00291
2046.19821,0.00266
2045.23393,0.00229
2044.26965,0.00220
2043.30537,0.00241
2042.34109,0.00263
2041.37682,0.00275
2040.41254,0.00312
2039.44826,0.00372
2038.48398,0.00394
2037.51970,0.00346
2036.55543,0.00279
2035.59115,0.00248
2034.62687,0.00245
2033.66259,0.00237
2032.69831,0.00226
2031.73403,0.00235
2030.76976,0.00267
2029.80548,0.00306
2028.84120,0.00331
2027.87692,0.00318
2026.91264,0.00271
2025.94837,0.00220
2024.98409,0.00195
2024.01981,0.00217
2023.05553,0.00265
2022.09125,0.00290
2021.12697,0.00283
2020.16270,0.00266
2019.19842,0.00248
2018.23414,0.00242
2017.26986,0.00246
2016.30558,0.00243
2015.34131,0.00238
2014.37703,0.00244
2013.41275,0.00243
2012.44847,0.00230
2011.48419,0.00241
2010.51992,0.00290
2009.55564,0.00326
2008.59136,0.00293
2007.62708,0.00220
2006.66280,0.00173
2005.69852,0.00165
2004.73425,0.00178
2003.76997,0.00213
2002.80569,0.00261
2001.84141,0.00287
2000.87713,0.00267
1999.91286,0.00226
1998.94858,0.00210
1997.98430,0.00232
1997.02002,0.00263
1996.05574,0.00266
1995.09147,0.00241
1994.12719,0.00207
1993.16291,0.00187
1992.19863,0.00185
1991.23435,0.00183
1990.27007,0.00171
1989.30580,0.00167
1988.34152,0.00191
1987.37724,0.00231
1986.41296,0.00256
1985.44868,0.00257
1984.48441,0.00262
1983.52013,0.00288
1982.55585,0.00321
1981.59157,0.00331
1980.62729,0.00319
1979.66301,0.00302
1978.69874,0.00277
1977.73446,0.00243
1976.77018,0.00215
1975.80590,0.00199
1974.84162,0.00201
1973.87735,0.00205
1972.91307,0.00189
1971.94879,0.00177
1970.98451,0.00194
1970.02023,0.00216
1969.05596,0.00208
1968.09168,0.00178
1967.12740,0.00161
1966.16312,0.00166
1965.19884,0.00180
1964.23456,0.00200
1963.27029,0.00227
1962.30601,0.00244
1961.34173,0.00246
1960.37745,0.00244
1959.41317,0.00237
1958.44890,0.00226
1957.48462,0.00217
1956.52034,0.00206
1955.55606,0.00195
1954.59178,0.00185
1953.62751,0.00179
1952.66323,0.00185
1951.69895,0.00197
1950.73467,0.00197
1949.77039,0.00186
1948.80611,0.00186
1947.84184,0.00194
1946.87756,0.00185
1945.91328,0.00159
1944.94900,0.00140
1943.98472,0.00135
1943.02045,0.00142
1942.05617,0.00155
1941.09189,0.00155
1940.12761,0.00142
1939.16333,0.00136
1938.19906,0.00148
1937.23478,0.00171
1936.27050,0.00188
1935.30622,0.00187
1934.34194,0.00174
1933.37766,0.00160
1932.41339,0.00149
1931.44911,0.00148
1930.48483,0.00157
1929.52055,0.00173
1928.55627,0.00186
1927.59200,0.00185
1926.62772,0.00170
1925.66344,0.00156
1924.69916,0.00150
1923.73488,0.00160
1922.77060,0.00182
1921.80633,0.00199
1920.84205,0.00197
1919.87777,0.00185
1918.91349,0.00177
1917.94921,0.00179
1916.98494,0.00184
1916.02066,0.00175
1915.05638,0.00159
1914.09210,0.00153
1913.12782,0.00160
1912.16355,0.00165
1911.19927,0.00157
1910.23499,0.00151
1909.27071,0.00157
1908.30643,0.00162
1907.34215,0.00156
1906.37788,0.00145
1905.41360,0.00138
1904.44932,0.00137
1903.48504,0.00139
1902.52076,0.00142
1901.55649,0.00146
1900.59221,0.00154
1899.62793,0.00164
1898.66365,0.00167
1897.69937,0.00162
1896.73510,0.00150
1895.77082,0.00140
1894.80654,0.00134
1893.84226,0.00134
1892.87798,0.00142
1891.91370,0.00157
1890.94943,0.00166
1889.98515,0.00165
1889.02087,0.00157
1888.05659,0.00153
1887.09231,0.00155
1886.12804,0.00152
1885.16376,0.00145
1884.19948,0.00141
1883.23520,0.00143
1882.27092,0.00143
1881.30664,0.00145
1880.34237,0.00154
1879.37809,0.00162
1878.41381,0.00163
1877.44953,0.00156
1876.48525,0.00150
1875.52098,0.00154
1874.55670,0.00165
1873.59242,0.00171
1872.62814,0.00168
1871.66386,0.00162
1870.69959,0.00155
1869.73531,0.00150
1868.77103,0.00148
1867.80675,0.00146
1866.84247,0.00146
1865.87819,0.00145
1864.91392,0.00140
1863.94964,0.00133
1862.98536,0.00128
1862.02108,0.00130
1861.05680,0.00137
1860.09253,0.00143
1859.12825,0.00142
1858.16397,0.00139
1857.19969,0.00137
1856.23541,0.00140
1855.27114,0.00147
1854.30686,0.00152
1853.34258,0.00150
1852.37830,0.00144
1851.41402,0.00141
1850.44974,0.00140
1849.48547,0.00141
1848.52119,0.00145
1847.55691,0.00151
1846.59263,0.00156
1845.62835,0.00162
1844.66408,0.00173
1843.69980,0.00177
1842.73552,0.00165
1841.77124,0.00151
1840.80696,0.00145
1839.84269,0.00149
1838.87841,0.00155
1837.91413,0.00159
1836.94985,0.00159
1835.98557,0.00156
1835.02129,0.00152
1834.05702,0.00147
1833.09274,0.00147
1832.12846,0.00152
1831.16418,0.00157
1830.19990,0.00160
1829.23563,0.00162
1828.27135,0.00160
1827.30707,0.00155
1826.34279,0.00149
1825.37851,0.00150
1824.41423,0.00156
1823.44996,0.00162
1822.48568,0.00165
1821.52140,0.00167
1820.55712,0.00167
1819.59284,0.00168
1818.62857,0.00170
1817.66429,0.00172
1816.70001,0.00171
1815.73573,0.00168
1814.77145,0.00166
1813.80718,0.00164
1812.84290,0.00159
1811.87862,0.00152
1810.91434,0.00150
1809.95006,0.00152
1808.98578,0.00154
1808.02151,0.00154
1807.05723,0.00157
1806.09295,0.00160
1805.12867,0.00159
1804.16439,0.00155
1803.20012,0.00154
1802.23584,0.00158
1801.27156,0.00163
1800.30728,0.00165
1799.34300,0.00165
1798.37873,0.00166
1797.41445,0.00168
1796.45017,0.00170
1795.48589,0.00174
1794.52161,0.00176
1793.55733,0.00176
1792.59306,0.00173
1791.62878,0.00171
1790.66450,0.00171
1789.70022,0.00174
1788.73594,0.00176
1787.77167,0.00177
1786.80739,0.00177
1785.84311,0.00179
1784.87883,0.00180
1783.91455,0.00182
1782.95028,0.00185
1781.98600,0.00186
1781.02172,0.00186
1780.05744,0.00184
1779.09316,0.00184
1778.12888,0.00184
1777.16461,0.00184
1776.20033,0.00181
1775.23605,0.00177
1774.27177,0.00172
1773.30749,0.00171
1772.34322,0.00176
1771.37894,0.00184
1770.41466,0.00192
1769.45038,0.00197
1768.48610,0.00199
1767.52182,0.00200
1766.55755,0.00201
1765.59327,0.00201
1764.62899,0.00202
1763.66471,0.00203
1762.70043,0.00206
1761.73616,0.00211
1760.77188,0.00217
1759.80760,0.00222
1758.84332,0.00226
1757.87904,0.00232
1756.91477,0.00240
1755.95049,0.00247
1754.98621,0.00252
1754.02193,0.00256
1753.05765,0.00262
1752.09337,0.00269
1751.12910,0.00274
1750.16482,0.00275
1749.20054,0.00277
1748.23626,0.00282
1747.27198,0.00290
1746.30771,0.00301
1745.34343,0.00314
1744.37915,0.00328
1743.41487,0.00345
1742.45059,0.00365
1741.48632,0.00385
1740.52204,0.00410
1739.55776,0.00445
1738.59348,0.00488
1737.62920,0.00532
1736.66492,0.00577
1735.70065,0.00634
1734.73637,0.00719
1733.77209,0.00835
1732.80781,0.00958
1731.84353,0.01076
1730.87926,0.01197
1729.91498,0.01332
1728.95070,0.01474
1727.98642,0.01613
1727.02214,0.01747
1726.05786,0.01878
1725.09359,0.02005
1724.12931,0.02131
1723.16503,0.02253
1722.20075,0.02364
1721.23647,0.02458
1720.27220,0.02531
1719.30792,0.02593
1718.34364,0.02653
1717.37936,0.02705
1716.41508,0.02733
1715.45081,0.02732
1714.48653,0.02705
1713.52225,0.02654
1712.55797,0.02572
1711.59369,0.02458
1710.62941,0.02317
1709.66514,0.02162
1708.70086,0.01999
1707.73658,0.01827
1706.77230,0.01642
1705.80802,0.01455
1704.84375,0.01287
1703.87947,0.01146
1702.91519,0.01032
1701.95091,0.00935
1700.98663,0.00839
1700.02236,0.00740
1699.05808,0.00655
1698.09380,0.00593
1697.12952,0.00545
1696.16524,0.00504
1695.20096,0.00471
1694.23669,0.00447
1693.27241,0.00430
1692.30813,0.00413
1691.34385,0.00395
1690.37957,0.00375
1689.41530,0.00359
1688.45102,0.00350
1687.48674,0.00347
1686.52246,0.00346
1685.55818,0.00340
1684.59391,0.00330
1683.62963,0.00324
1682.66535,0.00324
1681.70107,0.00324
1680.73679,0.00323
1679.77251,0.00324
1678.80824,0.00327
1677.84396,0.00331
1676.87968,0.00333
1675.91540,0.00332
1674.95112,0.00330
1673.98685,0.00326
1673.02257,0.00319
1672.05829,0.00310
1671.09401,0.00301
1670.12973,0.00292
1669.16545,0.00284
1668.20118,0.00279
1667.23690,0.00274
1666.27262,0.00269
1665.30834,0.00263
1664.34406,0.00257
1663.37979,0.00249
1662.41551,0.00244
1661.45123,0.00245
1660.48695,0.00252
1659.52267,0.00258
1658.55840,0.00261
1657.59412,0.00258
1656.62984,0.00251
1655.66556,0.00244
1654.70128,0.00240
1653.73700,0.00244
1652.77273,0.00254
1651.80845,0.00259
1650.84417,0.00259
1649.87989,0.00257
1648.91561,0.00255
1647.95134,0.00252
1646.98706,0.00254
1646.02278,0.00265
1645.05850,0.00282
1644.09422,0.00300
1643.12995,0.00315
1642.16567,0.00326
1641.20139,0.00333
1640.23711,0.00335
1639.27283,0.00335
1638.30855,0.00334
1637.34428,0.00328
1636.38000,0.00316
1635.41572,0.00304
1634.45144,0.00296
1633.48716,0.00295
1632.52289,0.00294
1631.55861,0.00290
1630.59433,0.00283
1629.63005,0.00273
1628.66577,0.00262
1627.70149,0.00253
1626.73722,0.00248
1625.77294,0.00245
1624.80866,0.00241
1623.84438,0.00237
1622.88010,0.00235
1621.91583,0.00237
1620.95155,0.00242
1619.98727,0.00249
1619.02299,0.00255
1618.05871,0.00259
1617.09444,0.00260
1616.13016,0.00259
1615.16588,0.00257
1614.20160,0.00257
1613.23732,0.00256
1612.27304,0.00253
1611.30877,0.00247
1610.34449,0.00241
1609.38021,0.00237
1608.41593,0.00238
1607.45165,0.00241
1606.48738,0.00246
1605.52310,0.00250
1604.55882,0.00248
1603.59454,0.00241
1602.63026,0.00235
1601.66599,0.00232
1600.70171,0.00233
1599.73743,0.00235
1598.77315,0.00236
1597.80887,0.00234
1596.84459,0.00231
1595.88032,0.00229
1594.91604,0.00231
1593.95176,0.00235
1592.98748,0.00236
1592.02320,0.00235
1591.05893,0.00233
1590.09465,0.00232
1589.13037,0.00233
1588.16609,0.00236
1587.20181,0.00240
1586.23754,0.00243
1585.27326,0.00247
1584.30898,0.00252
1583.34470,0.00260
1582.38042,0.00271
1581.41614,0.00283
1580.45187,0.00295
1579.48759,0.00305
1578.52331,0.00313
1577.55903,0.00317
1576.59475,0.00318
1575.63048,0.00314
1574.66620,0.00306
1573.70192,0.00296
1572.73764,0.00287
1571.77336,0.00281
1570.80908,0.00276
1569.84481,0.00272
1568.88053,0.00267
1567.91625,0.00266
1566.95197,0.00266
1565.98769,0.00267
1565.02342,0.00269
1564.05914,0.00273
1563.09486,0.00274
1562.13058,0.00269
1561.16630,0.00253
1560.20203,0.00231
1559.23775,0.00216
1558.27347,0.00221
1557.30919,0.00239
1556.34491,0.00254
1555.38063,0.00262
1554.41636,0.00263
1553.45208,0.00261
1552.48780,0.00255
1551.52352,0.00250
1550.55924,0.00248
1549.59497,0.00249
1548.63069,0.00253
1547.66641,0.00254
1546.70213,0.00249
1545.73785,0.00240
1544.77358,0.00232
1543.80930,0.00229
1542.84502,0.00229
1541.88074,0.00225
1540.91646,0.00214
1539.95218,0.00207
1538.98791,0.00215
1538.02363,0.00232
1537.05935,0.00242
1536.09507,0.00239
1535.13079,0.00229
1534.16652,0.00220
1533.20224,0.00219
1532.23796,0.00226
1531.27368,0.00234
1530.30940,0.00237
1529.34513,0.00236
1528.38085,0.00231
1527.41657,0.00226
1526.45229,0.00222
1525.48801,0.00220
1524.52373,0.00216
1523.55946,0.00212
1522.59518,0.00207
1521.63090,0.00204
1520.66662,0.00206
1519.70234,0.00208
1518.73807,0.00207
1517.77379,0.00202
1516.80951,0.00201
1515.84523,0.00208
1514.88095,0.00220
1513.91667,0.00229
1512.95240,0.00232
1511.98812,0.00233
1511.02384,0.00232
1510.05956,0.00231
1509.09528,0.00234
1508.13101,0.00245
1507.16673,0.00270
1506.20245,0.00308
1505.23817,0.00340
1504.27389,0.00352
1503.30962,0.00343
1502.34534,0.00320
1501.38106,0.00293
1500.41678,0.00267
1499.45250,0.00247
1498.48822,0.00235
1497.52395,0.00232
1496.55967,0.00234
1495.59539,0.00236
1494.63111,0.00237
1493.66683,0.00237
1492.70256,0.00234
1491.73828,0.00229
1490.77400,0.00223
1489.80972,0.00223
1488.84544,0.00230
1487.88117,0.00240
1486.91689,0.00250
1485.95261,0.00261
1484.98833,0.00273
1484.02405,0.00285
1483.05977,0.00297
1482.09550,0.00311
1481.13122,0.00326
1480.16694,0.00343
1479.20266,0.00360
1478.23838,0.00375
1477.27411,0.00392
1476.30983,0.00413
1475.34555,0.00440
1474.38127,0.00473
1473.41699,0.00516
1472.45271,0.00571
1471.48844,0.00634
1470.52416,0.00698
1469.55988,0.00761
1468.59560,0.00820
1467.63132,0.00874
1466.66705,0.00917
1465.70277,0.00950
1464.73849,0.00975
1463.77421,0.00990
1462.80993,0.00993
1461.84566,0.00987
1460.88138,0.00972
1459.91710,0.00950
1458.95282,0.00921
1457.98854,0.00887
1457.02426,0.00852
1456.05999,0.00818
1455.09571,0.00788
1454.13143,0.00760
1453.16715,0.00733
1452.20287,0.00703
1451.23860,0.00675
1450.27432,0.00652
1449.31004,0.00635
1448.34576,0.00624
1447.38148,0.00617
1446.41721,0.00612
1445.45293,0.00609
1444.48865,0.00611
1443.52437,0.00621
1442.56009,0.00640
1441.59581,0.00671
1440.63154,0.00713
1439.66726,0.00762
1438.70298,0.00815
1437.73870,0.00870
1436.77442,0.00920
1435.81015,0.00956
1434.84587,0.00970
1433.88159,0.00965
1432.91731,0.00949
1431.95303,0.00930
1430.98876,0.00919
1430.02448,0.00928
1429.06020,0.00963
1428.09592,0.01018
1427.13164,0.01073
1426.16736,0.01100
1425.20309,0.01079
1424.23881,0.01013
1423.27453,0.00928
1422.31025,0.00849
1421.34597,0.00788
1420.38170,0.00741
1419.41742,0.00705
1418.45314,0.00680
1417.48886,0.00667
1416.52458,0.00662
1415.56030,0.00662
1414.59603,0.00670
1413.63175,0.00690
1412.66747,0.00725
1411.70319,0.00775
1410.73891,0.00832
1409.77464,0.00882
1408.81036,0.00907
1407.84608,0.00896
1406.88180,0.00852
1405.91752,0.00784
1404.95325,0.00707
1403.98897,0.00637
1403.02469,0.00584
1402.06041,0.00546
1401.09613,0.00519
1400.13185,0.00501
1399.16758,0.00491
1398.20330,0.00490
1397.23902,0.00492
1396.27474,0.00495
1395.31046,0.00503
1394.34619,0.00521
1393.38191,0.00547
1392.41763,0.00576
1391.45335,0.00607
1390.48907,0.00637
1389.52480,0.00664
1388.56052,0.00687
1387.59624,0.00710
1386.63196,0.00740
1385.66768,0.00775
1384.70340,0.00809
1383.73913,0.00840
1382.77485,0.00865
1381.81057,0.00883
1380.84629,0.00894
1379.88201,0.00896
1378.91774,0.00887
1377.95346,0.00864
1376.98918,0.00829
1376.02490,0.00787
1375.06062,0.00744
1374.09634,0.00704
1373.13207,0.00673
1372.16779,0.00648
1371.20351,0.00627
1370.23923,0.00608
1369.27495,0.00592
1368.31068,0.00577
1367.34640,0.00564
1366.38212,0.00556
1365.41784,0.00554
1364.45356,0.00557
1363.48929,0.00562
1362.52501,0.00566
1361.56073,0.00574
1360.59645,0.00586
1359.63217,0.00600
1358.66789,0.00613
1357.70362,0.00623
1356.73934,0.00632
1355.77506,0.00639
1354.81078,0.00640
1353.84650,0.00637
1352.88223,0.00630
1351.91795,0.00620
1350.95367,0.00610
1349.98939,0.00599
1349.02511,0.00591
1348.06084,0.00591
1347.09656,0.00600
1346.13228,0.00612
1345.16800,0.00626
1344.20372,0.00644
1343.23944,0.00669
1342.27517,0.00695
1341.31089,0.00722
1340.34661,0.00754
1339.38233,0.00798
1338.41805,0.00844
1337.45378,0.00884
1336.48950,0.00912
1335.52522,0.00931
1334.56094,0.00940
1333.59666,0.00943
1332.63239,0.00945
1331.66811,0.00948
1330.70383,0.00948
1329.73955,0.00944
1328.77527,0.00941
1327.81099,0.00934
1326.84672,0.00926
1325.88244,0.00919
1324.91816,0.00917
1323.95388,0.00917
1322.98960,0.00914
1322.02533,0.00906
1321.06105,0.00897
1320.09677,0.00892
1319.13249,0.00891
1318.16821,0.00890
1317.20393,0.00889
1316.23966,0.00889
1315.27538,0.00887
1314.31110,0.00884
1313.34682,0.00880
1312.38254,0.00875
1311.41827,0.00872
1310.45399,0.00876
1309.48971,0.00888
1308.52543,0.00901
1307.56115,0.00912
1306.59688,0.00923
1305.63260,0.00939
1304.66832,0.00955
1303.70404,0.00963
1302.73976,0.00958
1301.77548,0.00946
1300.81121,0.00936
1299.84693,0.00933
1298.88265,0.00942
1297.91837,0.00963
1296.95409,0.00985
1295.98982,0.01006
1295.02554,0.01034
1294.06126,0.01073
1293.09698,0.01120
1292.13270,0.01171
1291.16843,0.01230
1290.20415,0.01301
1289.23987,0.01380
1288.27559,0.01464
1287.31131,0.01554
1286.34703,0.01648
1285.38276,0.01745
1284.41848,0.01845
1283.45420,0.01944
1282.48992,0.02047
1281.52564,0.02155
1280.56137,0.02270
1279.59709,0.02388
1278.63281,0.02508
1277.66853,0.02630
1276.70425,0.02757
1275.73998,0.02884
1274.77570,0.03011
1273.81142,0.03138
1272.84714,0.03261
1271.88286,0.03376
1270.91858,0.03483
1269.95431,0.03572
1268.99003,0.03636
1268.02575,0.03674
1267.06147,0.03687
1266.09719,0.03673
1265.13292,0.03629
1264.16864,0.03551
1263.20436,0.03448
1262.24008,0.03333
1261.27580,0.03222
1260.31152,0.03123
1259.34725,0.03045
1258.38297,0.02994
1257.41869,0.02974
1256.45441,0.02979
1255.49013,0.03002
1254.52586,0.03036
1253.56158,0.03072
1252.59730,0.03103
1251.63302,0.03130
1250.66874,0.03159
1249.70447,0.03183
1248.74019,0.03192
1247.77591,0.03183
1246.81163,0.03158
1245.84735,0.03117
1244.88307,0.03058
1243.91880,0.02979
1242.95452,0.02884
1241.99024,0.02779
1241.02596,0.02665
1240.06168,0.02546
1239.09741,0.02435
1238.13313,0.02333
1237.16885,0.02235
1236.20457,0.02135
1235.24029,0.02038
1234.27602,0.01945
1233.31174,0.01859
1232.34746,0.01783
1231.38318,0.01714
1230.41890,0.01643
1229.45462,0.01571
1228.49035,0.01499
1227.52607,0.01423
1226.56179,0.01338
1225.59751,0.01249
1224.63323,0.01160
1223.66896,0.01077
1222.70468,0.01005
1221.74040,0.00949
1220.77612,0.00910
1219.81184,0.00885
1218.84756,0.00864
1217.88329,0.00841
1216.91901,0.00819
1215.95473,0.00805
1214.99045,0.00802
1214.02617,0.00808
1213.06190,0.00819
1212.09762,0.00826
1211.13334,0.00825
1210.16906,0.00823
1209.20478,0.00824
1208.24051,0.00822
1207.27623,0.00814
1206.31195,0.00806
1205.34767,0.00807
1204.38339,0.00813
1203.41911,0.00814
1202.45484,0.00812
1201.49056,0.00817
1200.52628,0.00824
1199.56200,0.00827
1198.59772,0.00824
1197.63345,0.00811
1196.66917,0.00786
1195.70489,0.00759
1194.74061,0.00747
1193.77633,0.00745
1192.81206,0.00732
1191.84778,0.00708
1190.88350,0.00691
1189.91922,0.00678
1188.95494,0.00668
1187.99066,0.00661
1187.02639,0.00650
1186.06211,0.00631
1185.09783,0.00607
1184.13355,0.00591
1183.16927,0.00583
1182.20500,0.00576
1181.24072,0.00567
1180.27644,0.00562
1179.31216,0.00565
1178.34788,0.00572
1177.38361,0.00582
1176.41933,0.00600
1175.45505,0.00622
1174.49077,0.00646
1173.52649,0.00672
1172.56221,0.00687
1171.59794,0.00685
1170.63366,0.00673
1169.66938,0.00662
1168.70510,0.00649
1167.74082,0.00632
1166.77655,0.00618
1165.81227,0.00610
1164.84799,0.00605
1163.88371,0.00601
1162.91943,0.00601
1161.95515,0.00599
1160.99088,0.00594
1160.02660,0.00588
1159.06232,0.00585
1158.09804,0.00588
1157.13376,0.00602
1156.16949,0.00615
1155.20521,0.00614
1154.24093,0.00607
1153.27665,0.00606
1152.31237,0.00608
1151.34810,0.00608
1150.38382,0.00606
1149.41954,0.00607
1148.45526,0.00610
1147.49098,0.00610
1146.52670,0.00610
1145.56243,0.00613
1144.59815,0.00613
1143.63387,0.00608
1142.66959,0.00606
1141.70531,0.00615
1140.74104,0.00627
1139.77676,0.00635
1138.81248,0.00648
1137.84820,0.00665
1136.88392,0.00688
1135.91965,0.00722
1134.95537,0.00764
1133.99109,0.00802
1133.02681,0.00841
1132.06253,0.00892
1131.09825,0.00964
1130.13398,0.01055
1129.16970,0.01152
1128.20542,0.01257
1127.24114,0.01385
1126.27686,0.01529
1125.31259,0.01675
1124.34831,0.01823
1123.38403,0.01972
1122.41975,0.02116
1121.45547,0.02256
1120.49120,0.02385
1119.52692,0.02485
1118.56264,0.02554
1117.59836,0.02597
1116.63408,0.02610
1115.66980,0.02591
1114.70553,0.02544
1113.74125,0.02475
1112.77697,0.02395
1111.81269,0.02314
1110.84841,0.02230
1109.88414,0.02162
1108.91986,0.02134
1107.95558,0.02155
1106.99130,0.02231
1106.02702,0.02362
1105.06274,0.02522
1104.09847,0.02670
1103.13419,0.02773
1102.16991,0.02810
1101.20563,0.02780
1100.24135,0.02693
1099.27708,0.02558
1098.31280,0.02392
1097.34852,0.02218
1096.38424,0.02045
1095.41996,0.01881
1094.45569,0.01747
1093.49141,0.01649
1092.52713,0.01574
1091.56285,0.01516
1090.59857,0.01474
1089.63429,0.01437
1088.67002,0.01398
1087.70574,0.01372
1086.74146,0.01359
1085.77718,0.01344
1084.81290,0.01323
1083.84863,0.01295
1082.88435,0.01252
1081.92007,0.01202
1080.95579,0.01151
1079.99151,0.01097
1079.02724,0.01041
1078.06296,0.00995
1077.09868,0.00966
1076.13440,0.00945
1075.17012,0.00923
1074.20584,0.00903
1073.24157,0.00890
1072.27729,0.00875
1071.31301,0.00851
1070.34873,0.00819
1069.38445,0.00791
1068.42018,0.00775
1067.45590,0.00769
1066.49162,0.00760
1065.52734,0.00744
1064.56306,0.00728
1063.59878,0.00723
1062.63451,0.00730
1061.67023,0.00736
1060.70595,0.00728
1059.74167,0.00711
1058.77739,0.00689
1057.81312,0.00665
1056.84884,0.00653
1055.88456,0.00660
1054.92028,0.00674
1053.95600,0.00675
1052.99173,0.00664
1052.02745,0.00650
1051.06317,0.00636
1050.09889,0.00621
1049.13461,0.00617
1048.17033,0.00622
1047.20606,0.00627
1046.24178,0.00626
1045.27750,0.00624
1044.31322,0.00624
1043.34894,0.00618
1042.38467,0.00606
1041.42039,0.00603
1040.45611,0.00600
1039.49183,0.00593
1038.52755,0.00596
1037.56328,0.00607
1036.59900,0.00622
1035.63472,0.00633
1034.67044,0.00643
1033.70616,0.00652
1032.74188,0.00653
1031.77761,0.00640
1030.81333,0.00634
1029.84905,0.00642
1028.88477,0.00658
1027.92049,0.00674
1026.95622,0.00695
1025.99194,0.00719
1025.02766,0.00748
1024.06338,0.00796
1023.09910,0.00900
1022.13483,0.01093
1021.17055,0.01370
1020.20627,0.01669
1019.24199,0.01876
1018.27771,0.01876
1017.31343,0.01666
1016.34916,0.01371
1015.38488,0.01125
1014.42060,0.00977
1013.45632,0.00894
1012.49204,0.00837
1011.52777,0.00793
1010.56349,0.00763
1009.59921,0.00746
1008.63493,0.00746
1007.67065,0.00755
1006.70637,0.00757
1005.74210,0.00749
1004.77782,0.00736
1003.81354,0.00727
1002.84926,0.00737
1001.88498,0.00762
1000.92071,0.00781
999.95643,0.00791
998.99215,0.00798
998.02787,0.00800
997.06359,0.00798
996.09932,0.00806
995.13504,0.00830
994.17076,0.00862
993.20648,0.00883
992.24220,0.00882
991.27792,0.00877
990.31365,0.00883
989.34937,0.00888
988.38509,0.00884
987.42081,0.00884
986.45653,0.00900
985.49226,0.00925
984.52798,0.00951
983.56370,0.00978
982.59942,0.01011
981.63514,0.01041
980.67087,0.01061
979.70659,0.01084
978.74231,0.01116
977.77803,0.01149
976.81375,0.01168
975.84947,0.01179
974.88520,0.01197
973.92092,0.01223
972.95664,0.01246
971.99236,0.01268
971.02808,0.01285
970.06381,0.01294
969.09953,0.01301
968.13525,0.01318
967.17097,0.01344
966.20669,0.01366
965.24241,0.01391
964.27814,0.01422
963.31386,0.01447
962.34958,0.01469
961.38530,0.01494
960.42102,0.01511
959.45675,0.01519
958.49247,0.01520
957.52819,0.01516
956.56391,0.01512
955.59963,0.01508
954.63536,0.01499
953.67108,0.01486
952.70680,0.01463
951.74252,0.01429
950.77824,0.01385
949.81396,0.01342
948.84969,0.01315
947.88541,0.01303
946.92113,0.01291
945.95685,0.01267
944.99257,0.01229
944.02830,0.01185
943.06402,0.01151
942.09974,0.01134
941.13546,0.01118
940.17118,0.01085
939.20691,0.01045
938.24263,0.01024
937.27835,0.01026
936.31407,0.01025
935.34979,0.01013
934.38551,0.00998
933.42124,0.00986
932.45696,0.00969
931.49268,0.00951
930.52840,0.00938
929.56412,0.00935
928.59985,0.00936
927.63557,0.00933
926.67129,0.00932
925.70701,0.00939
924.74273,0.00944
923.77846,0.00940
922.81418,0.00929
921.84990,0.00919
920.88562,0.00908
919.92134,0.00886
918.95706,0.00857
917.99279,0.00837
917.02851,0.00836
916.06423,0.00838
915.09995,0.00831
914.13567,0.00812
913.17140,0.00789
912.20712,0.00772
911.24284,0.00768
910.27856,0.00768
909.31428,0.00763
908.35000,0.00755
907.38573,0.00749
906.42145,0.00746
905.45717,0.00740
904.49289,0.00728
903.52861,0.00712
902.56434,0.00693
901.60006,0.00676
900.63578,0.00670
899.67150,0.00670
898.70722,0.00671
897.74295,0.00676
896.77867,0.00678
895.81439,0.00677
894.85011,0.00681
893.88583,0.00680
892.92155,0.00659
891.95728,0.00627
890.99300,0.00602
890.02872,0.00594
889.06444,0.00603
888.10016,0.00620
887.13589,0.00626
886.17161,0.00620
885.20733,0.00626
884.24305,0.00650
883.27877,0.00673
882.31450,0.00684
881.35022,0.00694
880.38594,0.00723
879.42166,0.00782
878.45738,0.00873
877.49310,0.00967
876.52883,0.01035
875.56455,0.01074
874.60027,0.01099
873.63599,0.01102
872.67171,0.01056
871.70744,0.00973
870.74316,0.00896
869.77888,0.00845
868.81460,0.00817
867.85032,0.00788
866.88605,0.00746
865.92177,0.00712
864.95749,0.00705
863.99321,0.00709
863.02893,0.00703
862.06465,0.00688
861.10038,0.00669
860.13610,0.00660
859.17182,0.00667
858.20754,0.00676
857.24326,0.00679
856.27899,0.00676
855.31471,0.00672
854.35043,0.00667
853.38615,0.00660
852.42187,0.00655
851.45759,0.00653
850.49332,0.00653
849.52904,0.00662
848.56476,0.00673
847.60048,0.00672
846.63620,0.00667
845.67193,0.00666
844.70765,0.00666
843.74337,0.00665
842.77909,0.00664
841.81481,0.00665
840.85054,0.00664
839.88626,0.00659
838.92198,0.00665
837.95770,0.00693
836.99342,0.00713
836.02914,0.00704
835.06487,0.00691
834.10059,0.00698
833.13631,0.00707
832.17203,0.00699
831.20775,0.00686
830.24348,0.00676
829.27920,0.00662
828.31492,0.00639
827.35064,0.00612
826.38636,0.00594
825.42209,0.00592
824.45781,0.00586
823.49353,0.00560
822.52925,0.00529
821.56497,0.00505
820.60069,0.00489
819.63642,0.00485
818.67214,0.00490
817.70786,0.00495
816.74358,0.00503
815.77930,0.00512
814.81503,0.00507
813.85075,0.00493
812.88647,0.00479
811.92219,0.00469
810.95791,0.00466
809.99363,0.00466
809.02936,0.00467
808.06508,0.00480
807.10080,0.00501
806.13652,0.00509
805.17224,0.00503
804.20797,0.00502
803.24369,0.00507
802.27941,0.00502
801.31513,0.00479
800.35085,0.00456
799.38658,0.00452
798.42230,0.00469
797.45802,0.00502
796.49374,0.00540
795.52946,0.00561
794.56518,0.00557
793.60091,0.00538
792.63663,0.00513
791.67235,0.00490
790.70807,0.00485
789.74379,0.00495
788.77952,0.00504
787.81524,0.00507
786.85096,0.00508
785.88668,0.00514
784.92240,0.00526
783.95813,0.00531
782.99385,0.00544
782.02957,0.00570
781.06529,0.00582
780.10101,0.00571
779.13673,0.00557
778.17246,0.00542
777.20818,0.00528
776.24390,0.00522
775.27962,0.00531
774.31534,0.00548
773.35107,0.00574
772.38679,0.00606
771.42251,0.00632
770.45823,0.00641
769.49395,0.00631
768.52968,0.00612
767.56540,0.00584
766.60112,0.00560
765.63684,0.00560
764.67256,0.00565
763.70828,0.00544
762.74401,0.00516
761.77973,0.00515
760.81545,0.00522
759.85117,0.00506
758.88689,0.00480
757.92262,0.00468
756.95834,0.00461
755.99406,0.00447
755.02978,0.00434
754.06550,0.00445
753.10122,0.00471
752.13695,0.00481
751.17267,0.00496
750.20839,0.00515
749.24411,0.00517
748.27983,0.00535
747.31556,0.00576
746.35128,0.00603
745.38700,0.00621
744.42272,0.00616
743.45844,0.00543
742.49417,0.00471
741.52989,0.00527
740.56561,0.00683
739.60133,0.00843
738.63705,0.01002
737.67277,0.01209
736.70850,0.01481
735.74422,0.01799
734.77994,0.02146
733.81566,0.02510
732.85138,0.02842
731.88711,0.03074
730.92283,0.03168
729.95855,0.03129
728.99427,0.02947
728.02999,0.02626
727.06572,0.02238
726.10144,0.01873
725.13716,0.01591
724.17288,0.01394
723.20860,0.01253
722.24432,0.01140
721.28005,0.01039
720.31577,0.00948
719.35149,0.00887
718.38721,0.00854
717.42293,0.00833
716.45866,0.00819
715.49438,0.00815
714.53010,0.00822
713.56582,0.00839
712.60154,0.00865
711.63726,0.00897
710.67299,0.00922
709.70871,0.00932
708.74443,0.00947
707.78015,0.00978
706.81587,0.01012
705.85160,0.01041
704.88732,0.01085
703.92304,0.01142
702.95876,0.01188
701.99448,0.01212
701.03021,0.01219
700.06593,0.01208
699.10165,0.01194
698.13737,0.01202
697.17309,0.01229
696.20881,0.01255
695.24454,0.01271
694.28026,0.01275
693.31598,0.01261
692.35170,0.01238
691.38742,0.01232
690.42315,0.01243
689.45887,0.01246
688.49459,0.01235
687.53031,0.01227
686.56603,0.01224
685.60176,0.01217
684.63748,0.01207
683.67320,0.01195
682.70892,0.01179
681.74464,0.01166
680.78036,0.01161
679.81609,0.01154
678.85181,0.01140
677.88753,0.01143
676.92325,0.01166
675.95897,0.01168
674.99470,0.01130
674.03042,0.01065
673.06614,0.01007
672.10186,0.00994
671.13758,0.01027
670.17331,0.01061
669.20903,0.01033
668.24475,0.00890
667.28047,0.00784
666.31619,0.00773
665.35191,0.00784
664.38764,0.00819
663.42336,0.00849
662.45908,0.00869
661.49480,0.00890
660.53052,0.00917
659.56625,0.00945
658.60197,0.00973
657.63769,0.01000
656.67341,0.01018
655.70913,0.01026
654.74485,0.01043
653.78058,0.01085
652.81630,0.01140
651.85202,0.01202
650.88774,0.01280
649.92346,0.01359
648.95919,0.01415
647.99491,0.01445
647.03063,0.01456
646.06635,0.01475
645.10207,0.01528
644.13780,0.01602
643.17352,0.01666
642.20924,0.01710
641.24496,0.01739
640.28068,0.01746
639.31640,0.01757
638.35213,0.01824
637.38785,0.01927
636.42357,0.02005
635.45929,0.02044
634.49501,0.02031
633.53074,0.01960
632.56646,0.01894
631.60218,0.01877
630.63790,0.01893
629.67362,0.01933
628.70935,0.01938
627.74507,0.01828
626.78079,0.01727
625.81651,0.01781
624.85223,0.01909
623.88795,0.01980
622.92368,0.01991
621.95940,0.01965
620.99512,0.01923
620.03084,0.01917
619.06656,0.01989
618.10229,0.02079
617.13801,0.02104
616.17373,0.02072
615.20945,0.02034
614.24517,0.02035
613.28090,0.02071
612.31662,0.02086
611.35234,0.02090
610.38806,0.02128
609.42378,0.02185
608.45950,0.02186
607.49523,0.02120
606.53095,0.02082
605.56667,0.02106
604.60239,0.02084
603.63811,0.01974
602.67384,0.01862
601.70956,0.01784
600.74528,0.01710
599.78100,0.01645
