4498.35751,0.00139
4497.39323,0.00145
4496.42895,0.00145
4495.46467,0.00142
4494.50040,0.00141
4493.53612,0.00139
4492.57184,0.00137
4491.60756,0.00146
4490.64328,0.00156
4489.67901,0.00154
4488.71473,0.00143
4487.75045,0.00138
4486.78617,0.00135
4485.82189,0.00127
4484.85761,0.00118
4483.89334,0.00114
4482.92906,0.00122
4481.96478,0.00134
4481.00050,0.00141
4480.03622,0.00149
4479.07195,0.00158
4478.10767,0.00155
4477.14339,0.00141
4476.17911,0.00131
4475.21483,0.00130
4474.25055,0.00130
4473.28628,0.00127
4472.32200,0.00128
4471.35772,0.00132
4470.39344,0.00136
4469.42916,0.00132
4468.46489,0.00122
4467.50061,0.00116
4466.53633,0.00114
4465.57205,0.00120
4464.60777,0.00130
4463.64350,0.00133
4462.67922,0.00124
4461.71494,0.00119
4460.75066,0.00122
4459.78638,0.00129
4458.82210,0.00139
4457.85783,0.00140
4456.89355,0.00135
4455.92927,0.00143
4454.96499,0.00162
4454.00071,0.00165
4453.03644,0.00151
4452.07216,0.00137
4451.10788,0.00132
4450.14360,0.00129
4449.17932,0.00122
4448.21505,0.00114
4447.25077,0.00107
4446.28649,0.00111
4445.32221,0.00130
4444.35793,0.00146
4443.39365,0.00147
4442.42938,0.00148
4441.46510,0.00151
4440.50082,0.00154
4439.53654,0.00154
4438.57226,0.00147
4437.60799,0.00139
4436.64371,0.00133
4435.67943,0.00135
4434.71515,0.00146
4433.75087,0.00156
4432.78660,0.00158
4431.82232,0.00153
4430.85804,0.00142
4429.89376,0.00134
4428.92948,0.00138
4427.96520,0.00137
4427.00093,0.00134
4426.03665,0.00143
4425.07237,0.00162
4424.10809,0.00171
4423.14381,0.00161
4422.17954,0.00146
4421.21526,0.00147
4420.25098,0.00155
4419.28670,0.00156
4418.32242,0.00147
4417.35814,0.00143
4416.39387,0.00147
4415.42959,0.00153
4414.46531,0.00152
4413.50103,0.00145
4412.53675,0.00138
4411.57248,0.00132
4410.60820,0.00130
4409.64392,0.00133
4408.67964,0.00144
4407.71536,0.00164
4406.75109,0.00181
4405.78681,0.00182
4404.82253,0.00164
4403.85825,0.00143
4402.89397,0.00134
4401.92969,0.00135
4400.96542,0.00138
4400.00114,0.00140
4399.03686,0.00142
4398.07258,0.00139
4397.10830,0.00134
4396.14403,0.00135
4395.17975,0.00139
4394.21547,0.00139
4393.25119,0.00138
4392.28691,0.00141
4391.32264,0.00147
4390.35836,0.00155
4389.39408,0.00161
4388.42980,0.00161
4387.46552,0.00161
4386.50124,0.00164
4385.53697,0.00162
4384.57269,0.00155
4383.60841,0.00160
4382.64413,0.00172
4381.67985,0.00175
4380.71558,0.00171
4379.75130,0.00165
4378.78702,0.00158
4377.82274,0.00154
4376.85846,0.00160
4375.89418,0.00172
4374.92991,0.00169
4373.96563,0.00157
4373.00135,0.00157
4372.03707,0.00163
4371.07279,0.00167
4370.10852,0.00166
4369.14424,0.00161
4368.17996,0.00157
4367.21568,0.00156
4366.25140,0.00157
4365.28713,0.00159
4364.32285,0.00160
4363.35857,0.00159
4362.39429,0.00162
4361.43001,0.00169
4360.46573,0.00172
4359.50146,0.00166
4358.53718,0.00161
4357.57290,0.00164
4356.60862,0.00165
4355.64434,0.00168
4354.68007,0.00174
4353.71579,0.00172
4352.75151,0.00165
4351.78723,0.00163
4350.82295,0.00160
4349.85868,0.00153
4348.89440,0.00150
4347.93012,0.00157
4346.96584,0.00162
4346.00156,0.00168
4345.03728,0.00179
4344.07301,0.00185
4343.10873,0.00184
4342.14445,0.00183
4341.18017,0.00183
4340.21589,0.00178
4339.25162,0.00170
4338.28734,0.00172
4337.32306,0.00182
4336.35878,0.00188
4335.39450,0.00187
4334.43023,0.00188
4333.46595,0.00195
4332.50167,0.00201
4331.53739,0.00198
4330.57311,0.00189
4329.60883,0.00183
4328.64456,0.00179
4327.68028,0.00175
4326.71600,0.00172
4325.75172,0.00169
4324.78744,0.00165
4323.82317,0.00161
4322.85889,0.00163
4321.89461,0.00170
4320.93033,0.00174
4319.96605,0.00171
4319.00177,0.00171
4318.03750,0.00175
4317.07322,0.00175
4316.10894,0.00169
4315.14466,0.00163
4314.18038,0.00156
4313.21611,0.00150
4312.25183,0.00149
4311.28755,0.00154
4310.32327,0.00156
4309.35899,0.00150
4308.39472,0.00149
4307.43044,0.00159
4306.46616,0.00165
4305.50188,0.00165
4304.53760,0.00164
4303.57332,0.00160
4302.60905,0.00162
4301.64477,0.00169
4300.68049,0.00167
4299.71621,0.00154
4298.75193,0.00148
4297.78766,0.00153
4296.82338,0.00162
4295.85910,0.00168
4294.89482,0.00166
4293.93054,0.00165
4292.96627,0.00169
4292.00199,0.00177
4291.03771,0.00185
4290.07343,0.00188
4289.10915,0.00183
4288.14487,0.00179
4287.18060,0.00178
4286.21632,0.00172
4285.25204,0.00167
4284.28776,0.00166
4283.32348,0.00161
4282.35921,0.00161
4281.39493,0.00171
4280.43065,0.00176
4279.46637,0.00168
4278.50209,0.00162
4277.53782,0.00167
4276.57354,0.00173
4275.60926,0.00169
4274.64498,0.00163
4273.68070,0.00161
4272.71642,0.00161
4271.75215,0.00160
4270.78787,0.00165
4269.82359,0.00177
4268.85931,0.00182
4267.89503,0.00175
4266.93076,0.00168
4265.96648,0.00168
4265.00220,0.00173
4264.03792,0.00179
4263.07364,0.00183
4262.10936,0.00179
4261.14509,0.00171
4260.18081,0.00168
4259.21653,0.00170
4258.25225,0.00172
4257.28797,0.00174
4256.32370,0.00174
4255.35942,0.00168
4254.39514,0.00164
4253.43086,0.00165
4252.46658,0.00166
4251.50231,0.00163
4250.53803,0.00163
4249.57375,0.00173
4248.60947,0.00176
4247.64519,0.00164
4246.68091,0.00151
4245.71664,0.00141
4244.75236,0.00142
4243.78808,0.00156
4242.82380,0.00170
4241.85952,0.00173
4240.89525,0.00164
4239.93097,0.00155
4238.96669,0.00157
4238.00241,0.00166
4237.03813,0.00173
4236.07386,0.00175
4235.10958,0.00183
4234.14530,0.00187
4233.18102,0.00175
4232.21674,0.00161
4231.25246,0.00158
4230.28819,0.00156
4229.32391,0.00153
4228.35963,0.00158
4227.39535,0.00168
4226.43107,0.00179
4225.46680,0.00183
4224.50252,0.00177
4223.53824,0.00168
4222.57396,0.00165
4221.60968,0.00174
4220.64540,0.00183
4219.68113,0.00187
4218.71685,0.00190
4217.75257,0.00195
4216.78829,0.00191
4215.82401,0.00180
4214.85974,0.00174
4213.89546,0.00175
4212.93118,0.00174
4211.96690,0.00175
4211.00262,0.00177
4210.03835,0.00170
4209.07407,0.00164
4208.10979,0.00171
4207.14551,0.00185
4206.18123,0.00189
4205.21695,0.00185
4204.25268,0.00185
4203.28840,0.00190
4202.32412,0.00187
4201.35984,0.00178
4200.39556,0.00174
4199.43129,0.00179
4198.46701,0.00183
4197.50273,0.00175
4196.53845,0.00163
4195.57417,0.00164
4194.60990,0.00176
4193.64562,0.00179
4192.68134,0.00173
4191.71706,0.00170
4190.75278,0.00174
4189.78850,0.00174
4188.82423,0.00169
4187.85995,0.00168
4186.89567,0.00168
4185.93139,0.00163
4184.96711,0.00159
4184.00284,0.00159
4183.03856,0.00164
4182.07428,0.00175
4181.11000,0.00185
4180.14572,0.00185
4179.18145,0.00184
4178.21717,0.00185
4177.25289,0.00179
4176.28861,0.00168
4175.32433,0.00165
4174.36005,0.00168
4173.39578,0.00168
4172.43150,0.00166
4171.46722,0.00170
4170.50294,0.00181
4169.53866,0.00187
4168.57439,0.00179
4167.61011,0.00169
4166.64583,0.00170
4165.68155,0.00179
4164.71727,0.00186
4163.75299,0.00181
4162.78872,0.00171
4161.82444,0.00169
4160.86016,0.00173
4159.89588,0.00170
4158.93160,0.00161
4157.96733,0.00156
4157.00305,0.00163
4156.03877,0.00172
4155.07449,0.00176
4154.11021,0.00171
4153.14594,0.00159
4152.18166,0.00148
4151.21738,0.00144
4150.25310,0.00149
4149.28882,0.00162
4148.32454,0.00180
4147.36027,0.00189
4146.39599,0.00179
4145.43171,0.00159
4144.46743,0.00150
4143.50315,0.00155
4142.53888,0.00163
4141.57460,0.00166
4140.61032,0.00167
4139.64604,0.00168
4138.68176,0.00166
4137.71749,0.00161
4136.75321,0.00161
4135.78893,0.00163
4134.82465,0.00166
4133.86037,0.00173
4132.89609,0.00179
4131.93182,0.00176
4130.96754,0.00169
4130.00326,0.00168
4129.03898,0.00167
4128.07470,0.00166
4127.11043,0.00167
4126.14615,0.00168
4125.18187,0.00161
4124.21759,0.00153
4123.25331,0.00152
4122.28903,0.00155
4121.32476,0.00154
4120.36048,0.00154
4119.39620,0.00153
4118.43192,0.00148
4117.46764,0.00145
4116.50337,0.00146
4115.53909,0.00152
4114.57481,0.00161
4113.61053,0.00169
4112.64625,0.00173
4111.68198,0.00176
4110.71770,0.00173
4109.75342,0.00164
4108.78914,0.00165
4107.82486,0.00173
4106.86058,0.00173
4105.89631,0.00161
4104.93203,0.00149
4103.96775,0.00149
4103.00347,0.00154
4102.03919,0.00154
4101.07492,0.00152
4100.11064,0.00157
4099.14636,0.00163
4098.18208,0.00163
4097.21780,0.00165
4096.25353,0.00165
4095.28925,0.00152
4094.32497,0.00139
4093.36069,0.00138
4092.39641,0.00146
4091.43213,0.00157
4090.46786,0.00166
4089.50358,0.00169
4088.53930,0.00166
4087.57502,0.00163
4086.61074,0.00163
4085.64647,0.00171
4084.68219,0.00179
4083.71791,0.00176
4082.75363,0.00169
4081.78935,0.00171
4080.82508,0.00177
4079.86080,0.00178
4078.89652,0.00175
4077.93224,0.00170
4076.96796,0.00169
4076.00368,0.00176
4075.03941,0.00182
4074.07513,0.00180
4073.11085,0.00176
4072.14657,0.00170
4071.18229,0.00160
4070.21802,0.00157
4069.25374,0.00161
4068.28946,0.00168
4067.32518,0.00170
4066.36090,0.00167
4065.39662,0.00163
4064.43235,0.00161
4063.46807,0.00164
4062.50379,0.00169
4061.53951,0.00170
4060.57523,0.00164
4059.61096,0.00159
4058.64668,0.00160
4057.68240,0.00161
4056.71812,0.00162
4055.75384,0.00165
4054.78957,0.00168
4053.82529,0.00161
4052.86101,0.00152
4051.89673,0.00150
4050.93245,0.00160
4049.96817,0.00165
4049.00390,0.00155
4048.03962,0.00141
4047.07534,0.00139
4046.11106,0.00146
4045.14678,0.00148
4044.18251,0.00148
4043.21823,0.00154
4042.25395,0.00165
4041.28967,0.00168
4040.32539,0.00160
4039.36112,0.00151
4038.39684,0.00151
4037.43256,0.00153
4036.46828,0.00150
4035.50400,0.00150
4034.53972,0.00155
4033.57545,0.00163
4032.61117,0.00167
4031.64689,0.00165
4030.68261,0.00167
4029.71833,0.00172
4028.75406,0.00173
4027.78978,0.00169
4026.82550,0.00162
4025.86122,0.00158
4024.89694,0.00158
4023.93267,0.00160
4022.96839,0.00161
4022.00411,0.00162
4021.03983,0.00167
4020.07555,0.00169
4019.11127,0.00166
4018.14700,0.00159
4017.18272,0.00155
4016.21844,0.00162
4015.25416,0.00166
4014.28988,0.00162
4013.32561,0.00160
4012.36133,0.00164
4011.39705,0.00171
4010.43277,0.00174
4009.46849,0.00169
4008.50421,0.00163
4007.53994,0.00155
4006.57566,0.00150
4005.61138,0.00149
4004.64710,0.00146
4003.68282,0.00142
4002.71855,0.00148
4001.75427,0.00158
4000.78999,0.00162
3999.82571,0.00164
3998.86143,0.00165
3997.89716,0.00159
3996.93288,0.00148
3995.96860,0.00147
3995.00432,0.00150
3994.04004,0.00147
3993.07576,0.00140
3992.11149,0.00139
3991.14721,0.00139
3990.18293,0.00138
3989.21865,0.00140
3988.25437,0.00141
3987.29010,0.00142
3986.32582,0.00145
3985.36154,0.00149
3984.39726,0.00150
3983.43298,0.00150
3982.46871,0.00151
3981.50443,0.00154
3980.54015,0.00157
3979.57587,0.00160
3978.61159,0.00161
3977.64731,0.00160
3976.68304,0.00158
3975.71876,0.00156
3974.75448,0.00155
3973.79020,0.00154
3972.82592,0.00153
3971.86165,0.00153
3970.89737,0.00155
3969.93309,0.00155
3968.96881,0.00153
3968.00453,0.00152
3967.04025,0.00154
3966.07598,0.00153
3965.11170,0.00147
3964.14742,0.00142
3963.18314,0.00142
3962.21886,0.00146
3961.25459,0.00153
3960.29031,0.00159
3959.32603,0.00161
3958.36175,0.00160
3957.39747,0.00161
3956.43320,0.00161
3955.46892,0.00155
3954.50464,0.00143
3953.54036,0.00137
3952.57608,0.00142
3951.61180,0.00154
3950.64753,0.00162
3949.68325,0.00161
3948.71897,0.00159
3947.75469,0.00159
3946.79041,0.00161
3945.82614,0.00164
3944.86186,0.00166
3943.89758,0.00169
3942.93330,0.00171
3941.96902,0.00173
3941.00475,0.00171
3940.04047,0.00168
3939.07619,0.00165
3938.11191,0.00162
3937.14763,0.00163
3936.18335,0.00165
3935.21908,0.00166
3934.25480,0.00163
3933.29052,0.00157
3932.32624,0.00151
3931.36196,0.00143
3930.39769,0.00137
3929.43341,0.00135
3928.46913,0.00139
3927.50485,0.00145
3926.54057,0.00150
3925.57630,0.00153
3924.61202,0.00156
3923.64774,0.00160
3922.68346,0.00163
3921.71918,0.00165
3920.75490,0.00163
3919.79063,0.00157
3918.82635,0.00153
3917.86207,0.00152
3916.89779,0.00153
3915.93351,0.00154
3914.96924,0.00154
3914.00496,0.00156
3913.04068,0.00160
3912.07640,0.00165
3911.11212,0.00168
3910.14784,0.00166
3909.18357,0.00161
3908.21929,0.00158
3907.25501,0.00162
3906.29073,0.00172
3905.32645,0.00178
3904.36218,0.00176
3903.39790,0.00165
3902.43362,0.00151
3901.46934,0.00141
3900.50506,0.00140
3899.54079,0.00146
3898.57651,0.00153
3897.61223,0.00157
3896.64795,0.00158
3895.68367,0.00157
3894.71939,0.00156
3893.75512,0.00157
3892.79084,0.00162
3891.82656,0.00168
3890.86228,0.00173
3889.89800,0.00174
3888.93373,0.00171
3887.96945,0.00165
3887.00517,0.00158
3886.04089,0.00150
3885.07661,0.00143
3884.11234,0.00140
3883.14806,0.00141
3882.18378,0.00144
3881.21950,0.00147
3880.25522,0.00150
3879.29094,0.00155
3878.32667,0.00160
3877.36239,0.00162
3876.39811,0.00160
3875.43383,0.00158
3874.46955,0.00156
3873.50528,0.00156
3872.54100,0.00156
3871.57672,0.00157
3870.61244,0.00156
3869.64816,0.00152
3868.68389,0.00147
3867.71961,0.00146
3866.75533,0.00147
3865.79105,0.00145
3864.82677,0.00141
3863.86249,0.00140
3862.89822,0.00146
3861.93394,0.00152
3860.96966,0.00157
3860.00538,0.00161
3859.04110,0.00162
3858.07683,0.00160
3857.11255,0.00154
3856.14827,0.00147
3855.18399,0.00137
3854.21971,0.00122
3853.25543,0.00110
3852.29116,0.00113
3851.32688,0.00123
3850.36260,0.00133
3849.39832,0.00137
3848.43404,0.00139
3847.46977,0.00141
3846.50549,0.00145
3845.54121,0.00148
3844.57693,0.00149
3843.61265,0.00149
3842.64838,0.00150
3841.68410,0.00153
3840.71982,0.00153
3839.75554,0.00150
3838.79126,0.00144
3837.82698,0.00138
3836.86271,0.00137
3835.89843,0.00139
3834.93415,0.00142
3833.96987,0.00146
3833.00559,0.00148
3832.04132,0.00144
3831.07704,0.00140
3830.11276,0.00140
3829.14848,0.00146
3828.18420,0.00155
3827.21993,0.00161
3826.25565,0.00159
3825.29137,0.00154
3824.32709,0.00151
3823.36281,0.00153
3822.39853,0.00154
3821.43426,0.00150
3820.46998,0.00145
3819.50570,0.00141
3818.54142,0.00140
3817.57714,0.00142
3816.61287,0.00144
3815.64859,0.00146
3814.68431,0.00147
3813.72003,0.00149
3812.75575,0.00151
3811.79147,0.00153
3810.82720,0.00151
3809.86292,0.00146
3808.89864,0.00144
3807.93436,0.00144
3806.97008,0.00144
3806.00581,0.00142
3805.04153,0.00143
3804.07725,0.00150
3803.11297,0.00162
3802.14869,0.00170
3801.18442,0.00165
3800.22014,0.00149
3799.25586,0.00133
3798.29158,0.00126
3797.32730,0.00128
3796.36302,0.00138
3795.39875,0.00150
3794.43447,0.00159
3793.47019,0.00160
3792.50591,0.00153
3791.54163,0.00144
3790.57736,0.00138
3789.61308,0.00137
3788.64880,0.00141
3787.68452,0.00148
3786.72024,0.00155
3785.75597,0.00156
3784.79169,0.00152
3783.82741,0.00148
3782.86313,0.00147
3781.89885,0.00150
3780.93457,0.00154
3779.97030,0.00156
3779.00602,0.00153
3778.04174,0.00150
3777.07746,0.00147
3776.11318,0.00146
3775.14891,0.00147
3774.18463,0.00149
3773.22035,0.00151
3772.25607,0.00153
3771.29179,0.00155
3770.32752,0.00154
3769.36324,0.00153
3768.39896,0.00152
3767.43468,0.00154
3766.47040,0.00155
3765.50612,0.00151
3764.54185,0.00145
3763.57757,0.00142
3762.61329,0.00146
3761.64901,0.00154
3760.68473,0.00160
3759.72046,0.00157
3758.75618,0.00149
3757.79190,0.00144
3756.82762,0.00140
3755.86334,0.00136
3754.89906,0.00131
3753.93479,0.00125
3752.97051,0.00121
3752.00623,0.00120
3751.04195,0.00122
3750.07767,0.00128
3749.11340,0.00135
3748.14912,0.00142
3747.18484,0.00147
3746.22056,0.00150
3745.25628,0.00146
3744.29201,0.00139
3743.32773,0.00137
3742.36345,0.00142
3741.39917,0.00146
3740.43489,0.00141
3739.47061,0.00126
3738.50634,0.00112
3737.54206,0.00110
3736.57778,0.00121
3735.61350,0.00136
3734.64922,0.00147
3733.68495,0.00152
3732.72067,0.00151
3731.75639,0.00144
3730.79211,0.00135
3729.82783,0.00130
3728.86356,0.00130
3727.89928,0.00134
3726.93500,0.00140
3725.97072,0.00147
3725.00644,0.00151
3724.04216,0.00152
3723.07789,0.00148
3722.11361,0.00145
3721.14933,0.00143
3720.18505,0.00144
3719.22077,0.00146
3718.25650,0.00149
3717.29222,0.00148
3716.32794,0.00143
3715.36366,0.00138
3714.39938,0.00137
3713.43510,0.00139
3712.47083,0.00145
3711.50655,0.00154
3710.54227,0.00162
3709.57799,0.00163
3708.61371,0.00157
3707.64944,0.00148
3706.68516,0.00140
3705.72088,0.00138
3704.75660,0.00144
3703.79232,0.00153
3702.82805,0.00156
3701.86377,0.00148
3700.89949,0.00132
3699.93521,0.00121
3698.97093,0.00121
3698.00665,0.00131
3697.04238,0.00141
3696.07810,0.00144
3695.11382,0.00142
3694.14954,0.00138
3693.18526,0.00134
3692.22099,0.00131
3691.25671,0.00132
3690.29243,0.00140
3689.32815,0.00151
3688.36387,0.00160
3687.39960,0.00165
3686.43532,0.00166
3685.47104,0.00165
3684.50676,0.00162
3683.54248,0.00158
3682.57820,0.00156
3681.61393,0.00157
3680.64965,0.00157
3679.68537,0.00155
3678.72109,0.00155
3677.75681,0.00159
3676.79254,0.00163
3675.82826,0.00164
3674.86398,0.00161
3673.89970,0.00158
3672.93542,0.00156
3671.97115,0.00155
3671.00687,0.00152
3670.04259,0.00146
3669.07831,0.00142
3668.11403,0.00142
3667.14975,0.00146
3666.18548,0.00152
3665.22120,0.00155
3664.25692,0.00154
3663.29264,0.00151
3662.32836,0.00147
3661.36409,0.00144
3660.39981,0.00145
3659.43553,0.00149
3658.47125,0.00152
3657.50697,0.00152
3656.54269,0.00150
3655.57842,0.00149
3654.61414,0.00149
3653.64986,0.00148
3652.68558,0.00143
3651.72130,0.00137
3650.75703,0.00129
3649.79275,0.00125
3648.82847,0.00127
3647.86419,0.00133
3646.89991,0.00139
3645.93564,0.00146
3644.97136,0.00154
3644.00708,0.00159
3643.04280,0.00160
3642.07852,0.00156
3641.11424,0.00150
3640.14997,0.00146
3639.18569,0.00146
3638.22141,0.00149
3637.25713,0.00152
3636.29285,0.00153
3635.32858,0.00150
3634.36430,0.00146
3633.40002,0.00141
3632.43574,0.00138
3631.47146,0.00135
3630.50719,0.00131
3629.54291,0.00128
3628.57863,0.00128
3627.61435,0.00133
3626.65007,0.00139
3625.68579,0.00144
3624.72152,0.00147
3623.75724,0.00150
3622.79296,0.00152
3621.82868,0.00156
3620.86440,0.00159
3619.90013,0.00164
3618.93585,0.00168
3617.97157,0.00170
3617.00729,0.00169
3616.04301,0.00166
3615.07874,0.00166
3614.11446,0.00170
3613.15018,0.00174
3612.18590,0.00175
3611.22162,0.00169
3610.25734,0.00160
3609.29307,0.00148
3608.32879,0.00134
3607.36451,0.00126
3606.40023,0.00129
3605.43595,0.00140
3604.47168,0.00151
3603.50740,0.00156
3602.54312,0.00159
3601.57884,0.00159
3600.61456,0.00155
3599.65028,0.00149
3598.68601,0.00146
3597.72173,0.00148
3596.75745,0.00152
3595.79317,0.00156
3594.82889,0.00159
3593.86462,0.00160
3592.90034,0.00157
3591.93606,0.00153
3590.97178,0.00152
3590.00750,0.00157
3589.04323,0.00165
3588.07895,0.00173
3587.11467,0.00176
3586.15039,0.00175
3585.18611,0.00171
3584.22183,0.00166
3583.25756,0.00163
3582.29328,0.00163
3581.32900,0.00165
3580.36472,0.00165
3579.40044,0.00163
3578.43617,0.00158
3577.47189,0.00151
3576.50761,0.00145
3575.54333,0.00142
3574.57905,0.00145
3573.61478,0.00155
3572.65050,0.00169
3571.68622,0.00180
3570.72194,0.00185
3569.75766,0.00185
3568.79338,0.00181
3567.82911,0.00178
3566.86483,0.00180
3565.90055,0.00184
3564.93627,0.00185
3563.97199,0.00182
3563.00772,0.00175
3562.04344,0.00169
3561.07916,0.00165
3560.11488,0.00165
3559.15060,0.00166
3558.18632,0.00171
3557.22205,0.00178
3556.25777,0.00185
3555.29349,0.00189
3554.32921,0.00189
3553.36493,0.00185
3552.40066,0.00182
3551.43638,0.00184
3550.47210,0.00185
3549.50782,0.00182
3548.54354,0.00178
3547.57927,0.00177
3546.61499,0.00176
3545.65071,0.00176
3544.68643,0.00181
3543.72215,0.00188
3542.75787,0.00193
3541.79360,0.00192
3540.82932,0.00188
3539.86504,0.00187
3538.90076,0.00189
3537.93648,0.00191
3536.97221,0.00185
3536.00793,0.00176
3535.04365,0.00173
3534.07937,0.00176
3533.11509,0.00177
3532.15082,0.00176
3531.18654,0.00179
3530.22226,0.00182
3529.25798,0.00183
3528.29370,0.00184
3527.32942,0.00189
3526.36515,0.00192
3525.40087,0.00185
3524.43659,0.00171
3523.47231,0.00158
3522.50803,0.00158
3521.54376,0.00171
3520.57948,0.00186
3519.61520,0.00192
3518.65092,0.00191
3517.68664,0.00191
3516.72237,0.00195
3515.75809,0.00200
3514.79381,0.00204
3513.82953,0.00205
3512.86525,0.00206
3511.90097,0.00208
3510.93670,0.00210
3509.97242,0.00206
3509.00814,0.00195
3508.04386,0.00181
3507.07958,0.00171
3506.11531,0.00166
3505.15103,0.00166
3504.18675,0.00170
3503.22247,0.00176
3502.25819,0.00179
3501.29391,0.00180
3500.32964,0.00182
3499.36536,0.00184
3498.40108,0.00186
3497.43680,0.00190
3496.47252,0.00192
3495.50825,0.00194
3494.54397,0.00193
3493.57969,0.00188
3492.61541,0.00182
3491.65113,0.00179
3490.68686,0.00183
3489.72258,0.00192
3488.75830,0.00203
3487.79402,0.00211
3486.82974,0.00209
3485.86546,0.00196
3484.90119,0.00184
3483.93691,0.00184
3482.97263,0.00189
3482.00835,0.00193
3481.04407,0.00193
3480.07980,0.00190
3479.11552,0.00186
3478.15124,0.00187
3477.18696,0.00192
3476.22268,0.00200
3475.25841,0.00206
3474.29413,0.00205
3473.32985,0.00202
3472.36557,0.00200
3471.40129,0.00201
3470.43701,0.00204
3469.47274,0.00209
3468.50846,0.00216
3467.54418,0.00221
3466.57990,0.00220
3465.61562,0.00217
3464.65135,0.00218
3463.68707,0.00219
3462.72279,0.00213
3461.75851,0.00208
3460.79423,0.00208
3459.82995,0.00210
3458.86568,0.00212
3457.90140,0.00214
3456.93712,0.00217
3455.97284,0.00220
3455.00856,0.00218
3454.04429,0.00215
3453.08001,0.00213
3452.11573,0.00212
3451.15145,0.00211
3450.18717,0.00213
3449.22290,0.00215
3448.25862,0.00214
3447.29434,0.00215
3446.33006,0.00219
3445.36578,0.00220
3444.40150,0.00215
3443.43723,0.00209
3442.47295,0.00207
3441.50867,0.00213
3440.54439,0.00223
3439.58011,0.00232
3438.61584,0.00237
3437.65156,0.00241
3436.68728,0.00243
3435.72300,0.00241
3434.75872,0.00235
3433.79445,0.00229
3432.83017,0.00228
3431.86589,0.00233
3430.90161,0.00234
3429.93733,0.00227
3428.97305,0.00224
3428.00878,0.00228
3427.04450,0.00231
3426.08022,0.00232
3425.11594,0.00233
3424.15166,0.00232
3423.18739,0.00232
3422.22311,0.00236
3421.25883,0.00245
3420.29455,0.00250
3419.33027,0.00246
3418.36600,0.00241
3417.40172,0.00239
3416.43744,0.00237
3415.47316,0.00233
3414.50888,0.00226
3413.54460,0.00217
3412.58033,0.00209
3411.61605,0.00210
3410.65177,0.00212
3409.68749,0.00210
3408.72321,0.00209
3407.75894,0.00216
3406.79466,0.00228
3405.83038,0.00236
3404.86610,0.00234
3403.90182,0.00226
3402.93754,0.00221
3401.97327,0.00215
3401.00899,0.00207
3400.04471,0.00202
3399.08043,0.00203
3398.11615,0.00206
3397.15188,0.00208
3396.18760,0.00209
3395.22332,0.00209
3394.25904,0.00208
3393.29476,0.00211
3392.33049,0.00217
3391.36621,0.00222
3390.40193,0.00222
3389.43765,0.00216
3388.47337,0.00211
3387.50909,0.00214
3386.54482,0.00220
3385.58054,0.00217
3384.61626,0.00206
3383.65198,0.00201
3382.68770,0.00204
3381.72343,0.00206
3380.75915,0.00203
3379.79487,0.00197
3378.83059,0.00190
3377.86631,0.00185
3376.90204,0.00184
3375.93776,0.00187
3374.97348,0.00190
3374.00920,0.00193
3373.04492,0.00199
3372.08064,0.00207
3371.11637,0.00211
3370.15209,0.00209
3369.18781,0.00205
3368.22353,0.00205
3367.25925,0.00210
3366.29498,0.00214
3365.33070,0.00213
3364.36642,0.00209
3363.40214,0.00204
3362.43786,0.00204
3361.47359,0.00209
3360.50931,0.00209
3359.54503,0.00196
3358.58075,0.00183
3357.61647,0.00187
3356.65219,0.00198
3355.68792,0.00199
3354.72364,0.00194
3353.75936,0.00195
3352.79508,0.00198
3351.83080,0.00196
3350.86653,0.00193
3349.90225,0.00193
3348.93797,0.00191
3347.97369,0.00186
3347.00941,0.00184
3346.04513,0.00189
3345.08086,0.00197
3344.11658,0.00202
3343.15230,0.00200
3342.18802,0.00194
3341.22374,0.00191
3340.25947,0.00196
3339.29519,0.00199
3338.33091,0.00193
3337.36663,0.00188
3336.40235,0.00193
3335.43808,0.00207
3334.47380,0.00217
3333.50952,0.00219
3332.54524,0.00214
3331.58096,0.00205
3330.61668,0.00205
3329.65241,0.00214
3328.68813,0.00216
3327.72385,0.00205
3326.75957,0.00193
3325.79529,0.00187
3324.83102,0.00187
3323.86674,0.00194
3322.90246,0.00201
3321.93818,0.00202
3320.97390,0.00200
3320.00963,0.00205
3319.04535,0.00218
3318.08107,0.00224
3317.11679,0.00217
3316.15251,0.00209
3315.18823,0.00208
3314.22396,0.00214
3313.25968,0.00218
3312.29540,0.00216
3311.33112,0.00215
3310.36684,0.00212
3309.40257,0.00209
3308.43829,0.00213
3307.47401,0.00220
3306.50973,0.00220
3305.54545,0.00217
3304.58117,0.00219
3303.61690,0.00226
3302.65262,0.00228
3301.68834,0.00225
3300.72406,0.00224
3299.75978,0.00228
3298.79551,0.00230
3297.83123,0.00222
3296.86695,0.00208
3295.90267,0.00199
3294.93839,0.00200
3293.97412,0.00212
3293.00984,0.00223
3292.04556,0.00223
3291.08128,0.00223
3290.11700,0.00227
3289.15272,0.00231
3288.18845,0.00232
3287.22417,0.00230
3286.25989,0.00220
3285.29561,0.00209
3284.33133,0.00204
3283.36706,0.00202
3282.40278,0.00198
3281.43850,0.00197
3280.47422,0.00201
3279.50994,0.00206
3278.54567,0.00208
3277.58139,0.00211
3276.61711,0.00216
3275.65283,0.00218
3274.68855,0.00213
3273.72427,0.00207
3272.76000,0.00207
3271.79572,0.00208
3270.83144,0.00205
3269.86716,0.00201
3268.90288,0.00196
3267.93861,0.00191
3266.97433,0.00192
3266.01005,0.00195
3265.04577,0.00192
3264.08149,0.00186
3263.11722,0.00187
3262.15294,0.00190
3261.18866,0.00189
3260.22438,0.00184
3259.26010,0.00184
3258.29582,0.00190
3257.33155,0.00195
3256.36727,0.00196
3255.40299,0.00190
3254.43871,0.00183
3253.47443,0.00181
3252.51016,0.00183
3251.54588,0.00185
3250.58160,0.00185
3249.61732,0.00182
3248.65304,0.00180
3247.68876,0.00182
3246.72449,0.00184
3245.76021,0.00181
3244.79593,0.00179
3243.83165,0.00179
3242.86737,0.00180
3241.90310,0.00183
3240.93882,0.00183
3239.97454,0.00182
3239.01026,0.00185
3238.04598,0.00185
3237.08171,0.00182
3236.11743,0.00185
3235.15315,0.00191
3234.18887,0.00189
3233.22459,0.00184
3232.26031,0.00182
3231.29604,0.00178
3230.33176,0.00174
3229.36748,0.00176
3228.40320,0.00181
3227.43892,0.00187
3226.47465,0.00191
3225.51037,0.00194
3224.54609,0.00197
3223.58181,0.00198
3222.61753,0.00195
3221.65326,0.00193
3220.68898,0.00194
3219.72470,0.00195
3218.76042,0.00191
3217.79614,0.00190
3216.83186,0.00193
3215.86759,0.00188
3214.90331,0.00180
3213.93903,0.00180
3212.97475,0.00185
3212.01047,0.00186
3211.04620,0.00186
3210.08192,0.00192
3209.11764,0.00196
3208.15336,0.00192
3207.18908,0.00184
3206.22480,0.00180
3205.26053,0.00182
3204.29625,0.00185
3203.33197,0.00184
3202.36769,0.00178
3201.40341,0.00171
3200.43914,0.00166
3199.47486,0.00162
3198.51058,0.00160
3197.54630,0.00163
3196.58202,0.00169
3195.61775,0.00173
3194.65347,0.00177
3193.68919,0.00184
3192.72491,0.00187
3191.76063,0.00183
3190.79635,0.00177
3189.83208,0.00178
3188.86780,0.00184
3187.90352,0.00189
3186.93924,0.00188
3185.97496,0.00182
3185.01069,0.00177
3184.04641,0.00173
3183.08213,0.00170
3182.11785,0.00174
3181.15357,0.00187
3180.18930,0.00199
3179.22502,0.00198
3178.26074,0.00189
3177.29646,0.00184
3176.33218,0.00183
3175.36790,0.00184
3174.40363,0.00183
3173.43935,0.00179
3172.47507,0.00176
3171.51079,0.00178
3170.54651,0.00181
3169.58224,0.00182
3168.61796,0.00180
3167.65368,0.00178
3166.68940,0.00178
3165.72512,0.00176
3164.76085,0.00175
3163.79657,0.00177
3162.83229,0.00183
3161.86801,0.00190
3160.90373,0.00194
3159.93945,0.00195
3158.97518,0.00191
3158.01090,0.00186
3157.04662,0.00181
3156.08234,0.00177
3155.11806,0.00174
3154.15379,0.00176
3153.18951,0.00183
3152.22523,0.00188
3151.26095,0.00186
3150.29667,0.00179
3149.33239,0.00175
3148.36812,0.00176
3147.40384,0.00177
3146.43956,0.00177
3145.47528,0.00179
3144.51100,0.00186
3143.54673,0.00193
3142.58245,0.00197
3141.61817,0.00198
3140.65389,0.00190
3139.68961,0.00180
3138.72534,0.00180
3137.76106,0.00190
3136.79678,0.00198
3135.83250,0.00200
3134.86822,0.00196
3133.90394,0.00193
3132.93967,0.00194
3131.97539,0.00199
3131.01111,0.00198
3130.04683,0.00188
3129.08255,0.00178
3128.11828,0.00176
3127.15400,0.00181
3126.18972,0.00188
3125.22544,0.00192
3124.26116,0.00188
3123.29689,0.00182
3122.33261,0.00179
3121.36833,0.00179
3120.40405,0.00179
3119.43977,0.00181
3118.47549,0.00183
3117.51122,0.00182
3116.54694,0.00182
3115.58266,0.00187
3114.61838,0.00194
3113.65410,0.00195
3112.68983,0.00187
3111.72555,0.00178
3110.76127,0.00172
3109.79699,0.00171
3108.83271,0.00175
3107.86844,0.00181
3106.90416,0.00188
3105.93988,0.00194
3104.97560,0.00201
3104.01132,0.00204
3103.04704,0.00199
3102.08277,0.00190
3101.11849,0.00186
3100.15421,0.00188
3099.18993,0.00191
3098.22565,0.00196
3097.26138,0.00203
3096.29710,0.00208
3095.33282,0.00209
3094.36854,0.00208
3093.40426,0.00209
3092.43998,0.00209
3091.47571,0.00208
3090.51143,0.00207
3089.54715,0.00206
3088.58287,0.00204
3087.61859,0.00205
3086.65432,0.00207
3085.69004,0.00206
3084.72576,0.00207
3083.76148,0.00211
3082.79720,0.00214
3081.83293,0.00213
3080.86865,0.00213
3079.90437,0.00211
3078.94009,0.00210
3077.97581,0.00210
3077.01153,0.00207
3076.04726,0.00205
3075.08298,0.00207
3074.11870,0.00211
3073.15442,0.00214
3072.19014,0.00218
3071.22587,0.00221
3070.26159,0.00219
3069.29731,0.00216
3068.33303,0.00219
3067.36875,0.00223
3066.40448,0.00222
3065.44020,0.00220
3064.47592,0.00222
3063.51164,0.00229
3062.54736,0.00233
3061.58308,0.00232
3060.61881,0.00228
3059.65453,0.00227
3058.69025,0.00230
3057.72597,0.00231
3056.76169,0.00230
3055.79742,0.00231
3054.83314,0.00234
3053.86886,0.00232
3052.90458,0.00227
3051.94030,0.00224
3050.97602,0.00224
3050.01175,0.00227
3049.04747,0.00227
3048.08319,0.00223
3047.11891,0.00218
3046.15463,0.00215
3045.19036,0.00215
3044.22608,0.00215
3043.26180,0.00212
3042.29752,0.00209
3041.33324,0.00212
3040.36897,0.00218
3039.40469,0.00223
3038.44041,0.00225
3037.47613,0.00227
3036.51185,0.00226
3035.54757,0.00223
3034.58330,0.00221
3033.61902,0.00224
3032.65474,0.00230
3031.69046,0.00235
3030.72618,0.00235
3029.76191,0.00234
3028.79763,0.00233
3027.83335,0.00232
3026.86907,0.00232
3025.90479,0.00233
3024.94052,0.00235
3023.97624,0.00239
3023.01196,0.00247
3022.04768,0.00255
3021.08340,0.00257
3020.11912,0.00253
3019.15485,0.00251
3018.19057,0.00253
3017.22629,0.00255
3016.26201,0.00257
3015.29773,0.00259
3014.33346,0.00261
3013.36918,0.00267
3012.40490,0.00275
3011.44062,0.00276
3010.47634,0.00275
3009.51207,0.00279
3008.54779,0.00288
3007.58351,0.00296
3006.61923,0.00301
3005.65495,0.00303
3004.69067,0.00304
3003.72640,0.00310
3002.76212,0.00322
3001.79784,0.00336
3000.83356,0.00349
2999.86928,0.00360
2998.90501,0.00371
2997.94073,0.00383
2996.97645,0.00396
2996.01217,0.00408
2995.04789,0.00419
2994.08361,0.00434
2993.11934,0.00452
2992.15506,0.00476
2991.19078,0.00499
2990.22650,0.00520
2989.26222,0.00538
2988.29795,0.00560
2987.33367,0.00588
2986.36939,0.00619
2985.40511,0.00654
2984.44083,0.00694
2983.47656,0.00739
2982.51228,0.00784
2981.54800,0.00831
2980.58372,0.00885
2979.61944,0.00943
2978.65516,0.00999
2977.69089,0.01057
2976.72661,0.01121
2975.76233,0.01189
2974.79805,0.01260
2973.83377,0.01340
2972.86950,0.01427
2971.90522,0.01516
2970.94094,0.01601
2969.97666,0.01682
2969.01238,0.01766
2968.04811,0.01856
2967.08383,0.01946
2966.11955,0.02026
2965.15527,0.02103
2964.19099,0.02177
2963.22671,0.02239
2962.26244,0.02283
2961.29816,0.02322
2960.33388,0.02353
2959.36960,0.02364
2958.40532,0.02346
2957.44105,0.02312
2956.47677,0.02276
2955.51249,0.02238
2954.54821,0.02188
2953.58393,0.02122
2952.61966,0.02051
2951.65538,0.01984
2950.69110,0.01921
2949.72682,0.01860
2948.76254,0.01808
2947.79826,0.01769
2946.83399,0.01747
2945.86971,0.01739
2944.90543,0.01745
2943.94115,0.01765
2942.97687,0.01799
2942.01260,0.01849
2941.04832,0.01908
2940.08404,0.01963
2939.11976,0.02019
2938.15548,0.02087
2937.19120,0.02164
2936.22693,0.02238
2935.26265,0.02302
2934.29837,0.02357
2933.33409,0.02410
2932.36981,0.02460
2931.40554,0.02500
2930.44126,0.02527
2929.47698,0.02545
2928.51270,0.02554
2927.54842,0.02547
2926.58415,0.02524
2925.61987,0.02498
2924.65559,0.02470
2923.69131,0.02441
2922.72703,0.02410
2921.76275,0.02381
2920.79848,0.02350
2919.83420,0.02320
2918.86992,0.02296
2917.90564,0.02274
2916.94136,0.02246
2915.97709,0.02215
2915.01281,0.02180
2914.04853,0.02143
2913.08425,0.02108
2912.11997,0.02074
2911.15570,0.02039
2910.19142,0.01999
2909.22714,0.01958
2908.26286,0.01912
2907.29858,0.01863
2906.33430,0.01813
2905.37003,0.01767
2904.40575,0.01723
2903.44147,0.01675
2902.47719,0.01625
2901.51291,0.01577
2900.54864,0.01531
2899.58436,0.01483
2898.62008,0.01434
2897.65580,0.01385
2896.69152,0.01336
2895.72724,0.01286
2894.76297,0.01241
2893.79869,0.01205
2892.83441,0.01173
2891.87013,0.01138
2890.90585,0.01104
2889.94158,0.01077
2888.97730,0.01054
2888.01302,0.01037
2887.04874,0.01027
2886.08446,0.01020
2885.12019,0.01018
2884.15591,0.01026
2883.19163,0.01047
2882.22735,0.01072
2881.26307,0.01104
2880.29879,0.01150
2879.33452,0.01205
2878.37024,0.01259
2877.40596,0.01306
2876.44168,0.01350
2875.47740,0.01389
2874.51313,0.01418
2873.54885,0.01437
2872.58457,0.01445
2871.62029,0.01438
2870.65601,0.01418
2869.69174,0.01393
2868.72746,0.01371
2867.76318,0.01363
2866.79890,0.01366
2865.83462,0.01375
2864.87034,0.01396
2863.90607,0.01429
2862.94179,0.01463
2861.97751,0.01494
2861.01323,0.01526
2860.04895,0.01550
2859.08468,0.01548
2858.12040,0.01526
2857.15612,0.01494
2856.19184,0.01451
2855.22756,0.01394
2854.26329,0.01329
2853.29901,0.01265
2852.33473,0.01210
2851.37045,0.01160
2850.40617,0.01104
2849.44189,0.01043
2848.47762,0.00984
2847.51334,0.00929
2846.54906,0.00870
2845.58478,0.00809
2844.62050,0.00754
2843.65623,0.00709
2842.69195,0.00676
2841.72767,0.00647
2840.76339,0.00619
2839.79911,0.00595
2838.83483,0.00574
2837.87056,0.00549
2836.90628,0.00522
2835.94200,0.00503
2834.97772,0.00489
2834.01344,0.00472
2833.04917,0.00456
2832.08489,0.00444
2831.12061,0.00435
2830.15633,0.00428
2829.19205,0.00423
2828.22778,0.00417
2827.26350,0.00409
2826.29922,0.00402
2825.33494,0.00400
2824.37066,0.00401
2823.40638,0.00399
2822.44211,0.00394
2821.47783,0.00390
2820.51355,0.00384
2819.54927,0.00377
2818.58499,0.00375
2817.62072,0.00376
2816.65644,0.00375
2815.69216,0.00369
2814.72788,0.00365
2813.76360,0.00358
2812.79933,0.00346
2811.83505,0.00336
2810.87077,0.00331
2809.90649,0.00327
2808.94221,0.00322
2807.97793,0.00316
2807.01366,0.00306
2806.04938,0.00298
2805.08510,0.00301
2804.12082,0.00308
2803.15654,0.00309
2802.19227,0.00302
2801.22799,0.00293
2800.26371,0.00287
2799.29943,0.00282
2798.33515,0.00273
2797.37087,0.00263
2796.40660,0.00256
2795.44232,0.00255
2794.47804,0.00258
2793.51376,0.00265
2792.54948,0.00270
2791.58521,0.00270
2790.62093,0.00267
2789.65665,0.00264
2788.69237,0.00260
2787.72809,0.00257
2786.76382,0.00255
2785.79954,0.00253
2784.83526,0.00249
2783.87098,0.00246
2782.90670,0.00245
2781.94242,0.00243
2780.97815,0.00237
2780.01387,0.00232
2779.04959,0.00230
2778.08531,0.00230
2777.12103,0.00231
2776.15676,0.00232
2775.19248,0.00233
2774.22820,0.00235
2773.26392,0.00233
2772.29964,0.00229
2771.33537,0.00227
2770.37109,0.00227
2769.40681,0.00225
2768.44253,0.00225
2767.47825,0.00228
2766.51397,0.00232
2765.54970,0.00233
2764.58542,0.00233
2763.62114,0.00233
2762.65686,0.00232
2761.69258,0.00232
2760.72831,0.00228
2759.76403,0.00225
2758.79975,0.00227
2757.83547,0.00231
2756.87119,0.00233
2755.90692,0.00231
2754.94264,0.00228
2753.97836,0.00229
2753.01408,0.00237
2752.04980,0.00244
2751.08552,0.00249
2750.12125,0.00251
2749.15697,0.00249
2748.19269,0.00239
2747.22841,0.00226
2746.26413,0.00221
2745.29986,0.00226
2744.33558,0.00236
2743.37130,0.00241
2742.40702,0.00241
2741.44274,0.00239
2740.47846,0.00237
2739.51419,0.00237
2738.54991,0.00238
2737.58563,0.00239
2736.62135,0.00238
2735.65707,0.00238
2734.69280,0.00239
2733.72852,0.00240
2732.76424,0.00242
2731.79996,0.00243
2730.83568,0.00238
2729.87141,0.00232
2728.90713,0.00230
2727.94285,0.00229
2726.97857,0.00224
2726.01429,0.00223
2725.05001,0.00228
2724.08574,0.00230
2723.12146,0.00224
2722.15718,0.00219
2721.19290,0.00219
2720.22862,0.00222
2719.26435,0.00225
2718.30007,0.00224
2717.33579,0.00224
2716.37151,0.00226
2715.40723,0.00228
2714.44296,0.00227
2713.47868,0.00225
2712.51440,0.00224
2711.55012,0.00222
2710.58584,0.00220
2709.62156,0.00217
2708.65729,0.00215
2707.69301,0.00216
2706.72873,0.00218
2705.76445,0.00217
2704.80017,0.00211
2703.83590,0.00207
2702.87162,0.00208
2701.90734,0.00212
2700.94306,0.00213
2699.97878,0.00211
2699.01451,0.00210
2698.05023,0.00212
2697.08595,0.00215
2696.12167,0.00216
2695.15739,0.00216
2694.19311,0.00215
2693.22884,0.00212
2692.26456,0.00208
2691.30028,0.00210
2690.33600,0.00216
2689.37172,0.00219
2688.40745,0.00217
2687.44317,0.00211
2686.47889,0.00208
2685.51461,0.00207
2684.55033,0.00208
2683.58605,0.00211
2682.62178,0.00213
2681.65750,0.00212
2680.69322,0.00208
2679.72894,0.00205
2678.76466,0.00203
2677.80039,0.00205
2676.83611,0.00210
2675.87183,0.00213
2674.90755,0.00214
2673.94327,0.00214
2672.97900,0.00213
2672.01472,0.00212
2671.05044,0.00212
2670.08616,0.00211
2669.12188,0.00211
2668.15760,0.00213
2667.19333,0.00217
2666.22905,0.00219
2665.26477,0.00216
2664.30049,0.00212
2663.33621,0.00211
2662.37194,0.00212
2661.40766,0.00214
2660.44338,0.00221
2659.47910,0.00224
2658.51482,0.00221
2657.55055,0.00217
2656.58627,0.00218
2655.62199,0.00219
2654.65771,0.00217
2653.69343,0.00215
2652.72915,0.00212
2651.76488,0.00210
2650.80060,0.00212
2649.83632,0.00217
2648.87204,0.00222
2647.90776,0.00220
2646.94349,0.00215
2645.97921,0.00211
2645.01493,0.00211
2644.05065,0.00210
2643.08637,0.00212
2642.12209,0.00219
2641.15782,0.00225
2640.19354,0.00226
2639.22926,0.00223
2638.26498,0.00219
2637.30070,0.00213
2636.33643,0.00206
2635.37215,0.00202
2634.40787,0.00204
2633.44359,0.00209
2632.47931,0.00213
2631.51504,0.00216
2630.55076,0.00218
2629.58648,0.00216
2628.62220,0.00212
2627.65792,0.00209
2626.69364,0.00209
2625.72937,0.00214
2624.76509,0.00216
2623.80081,0.00216
2622.83653,0.00215
2621.87225,0.00213
2620.90798,0.00211
2619.94370,0.00210
2618.97942,0.00209
2618.01514,0.00209
2617.05086,0.00211
2616.08659,0.00214
2615.12231,0.00212
2614.15803,0.00204
2613.19375,0.00195
2612.22947,0.00197
2611.26519,0.00207
2610.30092,0.00216
2609.33664,0.00211
2608.37236,0.00199
2607.40808,0.00195
2606.44380,0.00204
2605.47953,0.00213
2604.51525,0.00212
2603.55097,0.00209
2602.58669,0.00207
2601.62241,0.00201
2600.65814,0.00193
2599.69386,0.00193
2598.72958,0.00199
2597.76530,0.00206
2596.80102,0.00206
2595.83674,0.00201
2594.87247,0.00196
2593.90819,0.00197
2592.94391,0.00205
2591.97963,0.00205
2591.01535,0.00195
2590.05108,0.00191
2589.08680,0.00196
2588.12252,0.00199
2587.15824,0.00197
2586.19396,0.00195
2585.22968,0.00196
2584.26541,0.00198
2583.30113,0.00196
2582.33685,0.00191
2581.37257,0.00190
2580.40829,0.00196
2579.44402,0.00202
2578.47974,0.00201
2577.51546,0.00199
2576.55118,0.00200
2575.58690,0.00203
2574.62263,0.00202
2573.65835,0.00196
2572.69407,0.00188
2571.72979,0.00183
2570.76551,0.00183
2569.80123,0.00185
2568.83696,0.00185
2567.87268,0.00185
2566.90840,0.00187
2565.94412,0.00193
2564.97984,0.00200
2564.01557,0.00206
2563.05129,0.00202
2562.08701,0.00189
2561.12273,0.00182
2560.15845,0.00183
2559.19418,0.00188
2558.22990,0.00193
2557.26562,0.00197
2556.30134,0.00200
2555.33706,0.00198
2554.37278,0.00192
2553.40851,0.00193
2552.44423,0.00193
2551.47995,0.00183
2550.51567,0.00176
2549.55139,0.00181
2548.58712,0.00187
2547.62284,0.00182
2546.65856,0.00177
2545.69428,0.00176
2544.73000,0.00175
2543.76572,0.00178
2542.80145,0.00184
2541.83717,0.00185
2540.87289,0.00186
2539.90861,0.00189
2538.94433,0.00193
2537.98006,0.00195
2537.01578,0.00193
2536.05150,0.00184
2535.08722,0.00174
2534.12294,0.00172
2533.15867,0.00174
2532.19439,0.00173
2531.23011,0.00173
2530.26583,0.00183
2529.30155,0.00197
2528.33727,0.00204
2527.37300,0.00200
2526.40872,0.00184
2525.44444,0.00165
2524.48016,0.00159
2523.51588,0.00170
2522.55161,0.00181
2521.58733,0.00187
2520.62305,0.00194
2519.65877,0.00197
2518.69449,0.00185
2517.73022,0.00170
2516.76594,0.00172
2515.80166,0.00181
2514.83738,0.00185
2513.87310,0.00186
2512.90882,0.00185
2511.94455,0.00180
2510.98027,0.00174
2510.01599,0.00167
2509.05171,0.00161
2508.08743,0.00162
2507.12316,0.00168
2506.15888,0.00179
2505.19460,0.00193
2504.23032,0.00198
2503.26604,0.00189
2502.30177,0.00181
2501.33749,0.00179
2500.37321,0.00172
2499.40893,0.00160
2498.44465,0.00154
2497.48037,0.00161
2496.51610,0.00173
2495.55182,0.00176
2494.58754,0.00173
2493.62326,0.00173
2492.65898,0.00171
2491.69471,0.00166
2490.73043,0.00165
2489.76615,0.00166
2488.80187,0.00162
2487.83759,0.00162
2486.87331,0.00171
2485.90904,0.00177
2484.94476,0.00173
2483.98048,0.00168
2483.01620,0.00170
2482.05192,0.00169
2481.08765,0.00167
2480.12337,0.00167
2479.15909,0.00167
2478.19481,0.00162
2477.23053,0.00160
2476.26626,0.00168
2475.30198,0.00180
2474.33770,0.00178
2473.37342,0.00163
2472.40914,0.00151
2471.44486,0.00152
2470.48059,0.00161
2469.51631,0.00167
2468.55203,0.00168
2467.58775,0.00164
2466.62347,0.00156
2465.65920,0.00155
2464.69492,0.00163
2463.73064,0.00168
2462.76636,0.00166
2461.80208,0.00166
2460.83781,0.00170
2459.87353,0.00170
2458.90925,0.00168
2457.94497,0.00171
2456.98069,0.00176
2456.01641,0.00176
2455.05214,0.00177
2454.08786,0.00184
2453.12358,0.00185
2452.15930,0.00176
2451.19502,0.00163
2450.23075,0.00158
2449.26647,0.00159
2448.30219,0.00159
2447.33791,0.00157
2446.37363,0.00159
2445.40936,0.00159
2444.44508,0.00156
2443.48080,0.00155
2442.51652,0.00158
2441.55224,0.00156
2440.58796,0.00151
2439.62369,0.00154
2438.65941,0.00156
2437.69513,0.00152
2436.73085,0.00155
2435.76657,0.00162
2434.80230,0.00160
2433.83802,0.00155
2432.87374,0.00155
2431.90946,0.00160
2430.94518,0.00163
2429.98090,0.00161
2429.01663,0.00159
2428.05235,0.00161
2427.08807,0.00158
2426.12379,0.00146
2425.15951,0.00137
2424.19524,0.00137
2423.23096,0.00141
2422.26668,0.00137
2421.30240,0.00132
2420.33812,0.00141
2419.37385,0.00153
2418.40957,0.00154
2417.44529,0.00155
2416.48101,0.00165
2415.51673,0.00176
2414.55245,0.00176
2413.58818,0.00171
2412.62390,0.00174
2411.65962,0.00178
2410.69534,0.00170
2409.73106,0.00157
2408.76679,0.00157
2407.80251,0.00165
2406.83823,0.00163
2405.87395,0.00155
2404.90967,0.00150
2403.94540,0.00154
2402.98112,0.00164
2402.01684,0.00171
2401.05256,0.00169
2400.08828,0.00166
2399.12400,0.00168
2398.15973,0.00170
2397.19545,0.00167
2396.23117,0.00161
2395.26689,0.00157
2394.30261,0.00158
2393.33834,0.00159
2392.37406,0.00156
2391.40978,0.00154
2390.44550,0.00158
2389.48122,0.00167
2388.51694,0.00173
2387.55267,0.00169
2386.58839,0.00159
2385.62411,0.00151
2384.65983,0.00150
2383.69555,0.00156
2382.73128,0.00162
2381.76700,0.00164
2380.80272,0.00164
2379.83844,0.00163
2378.87416,0.00158
2377.90989,0.00152
2376.94561,0.00148
2375.98133,0.00144
2375.01705,0.00139
2374.05277,0.00137
2373.08849,0.00143
2372.12422,0.00151
2371.15994,0.00151
2370.19566,0.00142
2369.23138,0.00133
2368.26710,0.00127
2367.30283,0.00117
2366.33855,0.00110
2365.37427,0.00112
2364.40999,0.00117
2363.44571,0.00117
2362.48144,0.00118
2361.51716,0.00122
2360.55288,0.00126
2359.58860,0.00125
2358.62432,0.00125
2357.66004,0.00127
2356.69577,0.00132
2355.73149,0.00138
2354.76721,0.00145
2353.80293,0.00147
2352.83865,0.00144
2351.87438,0.00146
2350.91010,0.00150
2349.94582,0.00152
2348.98154,0.00148
2348.01726,0.00142
2347.05299,0.00134
2346.08871,0.00127
2345.12443,0.00127
2344.16015,0.00133
2343.19587,0.00138
2342.23159,0.00133
2341.26732,0.00122
2340.30304,0.00113
2339.33876,0.00113
2338.37448,0.00116
2337.41020,0.00118
2336.44593,0.00125
2335.48165,0.00135
2334.51737,0.00140
2333.55309,0.00140
2332.58881,0.00136
2331.62453,0.00131
2330.66026,0.00127
2329.69598,0.00131
2328.73170,0.00135
2327.76742,0.00137
2326.80314,0.00147
2325.83887,0.00171
2324.87459,0.00194
2323.91031,0.00198
2322.94603,0.00189
2321.98175,0.00181
2321.01748,0.00174
2320.05320,0.00166
2319.08892,0.00161
2318.12464,0.00164
2317.16036,0.00168
2316.19608,0.00167
2315.23181,0.00159
2314.26753,0.00151
2313.30325,0.00148
2312.33897,0.00154
2311.37469,0.00167
2310.41042,0.00177
2309.44614,0.00178
2308.48186,0.00169
2307.51758,0.00159
2306.55330,0.00156
2305.58903,0.00159
2304.62475,0.00163
2303.66047,0.00166
2302.69619,0.00169
2301.73191,0.00168
2300.76763,0.00159
2299.80336,0.00148
2298.83908,0.00144
2297.87480,0.00147
2296.91052,0.00153
2295.94624,0.00161
2294.98197,0.00167
2294.01769,0.00174
2293.05341,0.00181
2292.08913,0.00186
2291.12485,0.00186
2290.16057,0.00184
2289.19630,0.00181
2288.23202,0.00178
2287.26774,0.00175
2286.30346,0.00176
2285.33918,0.00176
2284.37491,0.00172
2283.41063,0.00164
2282.44635,0.00153
2281.48207,0.00148
2280.51779,0.00153
2279.55352,0.00164
2278.58924,0.00174
2277.62496,0.00180
2276.66068,0.00182
2275.69640,0.00174
2274.73212,0.00158
2273.76785,0.00153
2272.80357,0.00163
2271.83929,0.00174
2270.87501,0.00177
2269.91073,0.00176
2268.94646,0.00165
2267.98218,0.00151
2267.01790,0.00151
2266.05362,0.00161
2265.08934,0.00160
2264.12507,0.00148
2263.16079,0.00143
2262.19651,0.00147
2261.23223,0.00142
2260.26795,0.00128
2259.30367,0.00131
2258.33940,0.00156
2257.37512,0.00171
2256.41084,0.00160
2255.44656,0.00146
2254.48228,0.00151
2253.51801,0.00165
2252.55373,0.00172
2251.58945,0.00163
2250.62517,0.00142
2249.66089,0.00130
2248.69662,0.00132
2247.73234,0.00129
2246.76806,0.00122
2245.80378,0.00130
2244.83950,0.00153
2243.87522,0.00179
2242.91095,0.00195
2241.94667,0.00196
2240.98239,0.00186
2240.01811,0.00166
2239.05383,0.00144
2238.08956,0.00145
2237.12528,0.00158
2236.16100,0.00166
2235.19672,0.00171
2234.23244,0.00170
2233.26816,0.00171
2232.30389,0.00180
2231.33961,0.00166
2230.37533,0.00124
2229.41105,0.00112
2228.44677,0.00143
2227.48250,0.00167
2226.51822,0.00175
2225.55394,0.00177
2224.58966,0.00173
2223.62538,0.00161
2222.66111,0.00149
2221.69683,0.00141
2220.73255,0.00136
2219.76827,0.00129
2218.80399,0.00115
2217.83971,0.00100
2216.87544,0.00089
2215.91116,0.00088
2214.94688,0.00110
2213.98260,0.00137
2213.01832,0.00140
2212.05405,0.00128
2211.08977,0.00131
2210.12549,0.00156
2209.16121,0.00179
2208.19693,0.00182
2207.23266,0.00168
2206.26838,0.00156
2205.30410,0.00146
2204.33982,0.00131
2203.37554,0.00120
2202.41126,0.00121
2201.44699,0.00121
2200.48271,0.00115
2199.51843,0.00112
2198.55415,0.00120
2197.58987,0.00124
2196.62560,0.00118
2195.66132,0.00125
2194.69704,0.00149
2193.73276,0.00154
2192.76848,0.00124
2191.80421,0.00092
2190.83993,0.00097
2189.87565,0.00131
2188.91137,0.00137
2187.94709,0.00087
2186.98281,0.00040
2186.01854,0.00067
2185.05426,0.00135
2184.08998,0.00167
2183.12570,0.00145
2182.16142,0.00105
2181.19715,0.00086
2180.23287,0.00101
2179.26859,0.00121
2178.30431,0.00107
2177.34003,0.00072
2176.37575,0.00058
2175.41148,0.00068
2174.44720,0.00072
2173.48292,0.00061
2172.51864,0.00060
2171.55436,0.00077
2170.59009,0.00091
2169.62581,0.00088
2168.66153,0.00069
2167.69725,0.00066
2166.73297,0.00088
2165.76870,0.00115
2164.80442,0.00129
2163.84014,0.00122
2162.87586,0.00103
2161.91158,0.00086
2160.94730,0.00073
2159.98303,0.00034
2159.01875,-0.00029
2158.05447,-0.00066
2157.09019,-0.00081
2156.12591,-0.00098
2155.16164,-0.00109
2154.19736,-0.00110
2153.23308,-0.00102
2152.26880,-0.00077
2151.30452,-0.00046
2150.34025,-0.00019
2149.37597,0.00016
2148.41169,0.00039
2147.44741,0.00028
2146.48313,0.00002
2145.51885,0.00001
2144.55458,0.00030
2143.59030,0.00045
2142.62602,0.00033
2141.66174,0.00034
2140.69746,0.00046
2139.73319,0.00032
2138.76891,0.00001
2137.80463,-0.00017
2136.84035,-0.00014
2135.87607,0.00001
2134.91179,0.00012
2133.94752,0.00013
2132.98324,0.00022
2132.01896,0.00040
2131.05468,0.00052
2130.09040,0.00076
2129.12613,0.00113
2128.16185,0.00123
2127.19757,0.00110
2126.23329,0.00101
2125.26901,0.00093
2124.30474,0.00075
2123.34046,0.00063
2122.37618,0.00083
2121.41190,0.00124
2120.44762,0.00147
2119.48334,0.00139
2118.51907,0.00118
2117.55479,0.00098
2116.59051,0.00097
2115.62623,0.00116
2114.66195,0.00136
2113.69768,0.00136
2112.73340,0.00112
2111.76912,0.00088
2110.80484,0.00089
2109.84056,0.00111
2108.87629,0.00139
2107.91201,0.00156
2106.94773,0.00146
2105.98345,0.00114
2105.01917,0.00092
2104.05489,0.00095
2103.09062,0.00096
2102.12634,0.00075
2101.16206,0.00061
2100.19778,0.00081
2099.23350,0.00111
2098.26923,0.00129
2097.30495,0.00138
2096.34067,0.00139
2095.37639,0.00130
2094.41211,0.00116
2093.44784,0.00112
2092.48356,0.00125
2091.51928,0.00139
2090.55500,0.00129
2089.59072,0.00107
2088.62644,0.00100
2087.66217,0.00108
2086.69789,0.00108
2085.73361,0.00100
2084.76933,0.00101
2083.80505,0.00108
2082.84078,0.00115
2081.87650,0.00125
2080.91222,0.00127
2079.94794,0.00115
2078.98366,0.00106
2078.01938,0.00111
2077.05511,0.00133
2076.09083,0.00158
2075.12655,0.00159
2074.16227,0.00127
2073.19799,0.00096
2072.23372,0.00101
2071.26944,0.00128
2070.30516,0.00133
2069.34088,0.00116
2068.37660,0.00115
2067.41233,0.00135
2066.44805,0.00142
2065.48377,0.00120
2064.51949,0.00094
2063.55521,0.00093
2062.59093,0.00112
2061.62666,0.00127
2060.66238,0.00129
2059.69810,0.00137
2058.73382,0.00152
2057.76954,0.00159
2056.80527,0.00156
2055.84099,0.00136
2054.87671,0.00104
2053.91243,0.00093
2052.94815,0.00121
2051.98388,0.00169
2051.01960,0.00199
2050.05532,0.00187
2049.09104,0.00144
2048.12676,0.00109
2047.16248,0.00088
2046.19821,0.00069
2045.23393,0.00060
2044.26965,0.00072
2043.30537,0.00096
2042.34109,0.00103
2041.37682,0.00109
2040.41254,0.00142
2039.44826,0.00186
2038.48398,0.00213
2037.51970,0.00200
2036.55543,0.00145
2035.59115,0.00096
2034.62687,0.00086
2033.66259,0.00084
2032.69831,0.00074
2031.73403,0.00083
2030.76976,0.00111
2029.80548,0.00132
2028.84120,0.00134
2027.87692,0.00129
2026.91264,0.00129
2025.94837,0.00125
2024.98409,0.00115
2024.01981,0.00111
2023.05553,0.00112
2022.09125,0.00109
2021.12697,0.00102
2020.16270,0.00082
2019.19842,0.00059
2018.23414,0.00067
2017.26986,0.00105
2016.30558,0.00140
2015.34131,0.00153
2014.37703,0.00150
2013.41275,0.00135
2012.44847,0.00101
2011.48419,0.00064
2010.51992,0.00069
2009.55564,0.00124
2008.59136,0.00179
2007.62708,0.00182
2006.66280,0.00131
2005.69852,0.00071
2004.73425,0.00044
2003.76997,0.00047
2002.80569,0.00051
2001.84141,0.00061
2000.87713,0.00079
1999.91286,0.00080
1998.94858,0.00064
1997.98430,0.00045
1997.02002,0.00034
1996.05574,0.00055
1995.09147,0.00110
1994.12719,0.00165
1993.16291,0.00185
1992.19863,0.00168
1991.23435,0.00137
1990.27007,0.00125
1989.30580,0.00146
1988.34152,0.00168
1987.37724,0.00157
1986.41296,0.00140
1985.44868,0.00140
1984.48441,0.00132
1983.52013,0.00106
1982.55585,0.00084
1981.59157,0.00082
1980.62729,0.00102
1979.66301,0.00117
1978.69874,0.00102
1977.73446,0.00077
1976.77018,0.00069
1975.80590,0.00079
1974.84162,0.00104
1973.87735,0.00141
1972.91307,0.00170
1971.94879,0.00155
1970.98451,0.00108
1970.02023,0.00083
1969.05596,0.00101
1968.09168,0.00129
1967.12740,0.00127
1966.16312,0.00089
1965.19884,0.00046
1964.23456,0.00036
1963.27029,0.00062
1962.30601,0.00091
1961.34173,0.00105
1960.37745,0.00109
1959.41317,0.00100
1958.44890,0.00074
1957.48462,0.00060
1956.52034,0.00075
1955.55606,0.00099
1954.59178,0.00111
1953.62751,0.00115
1952.66323,0.00120
1951.69895,0.00120
1950.73467,0.00114
1949.77039,0.00112
1948.80611,0.00118
1947.84184,0.00120
1946.87756,0.00106
1945.91328,0.00089
1944.94900,0.00077
1943.98472,0.00069
1943.02045,0.00069
1942.05617,0.00088
1941.09189,0.00124
1940.12761,0.00152
1939.16333,0.00152
1938.19906,0.00134
1937.23478,0.00126
1936.27050,0.00141
1935.30622,0.00165
1934.34194,0.00180
1933.37766,0.00172
1932.41339,0.00152
1931.44911,0.00137
1930.48483,0.00128
1929.52055,0.00123
1928.55627,0.00124
1927.59200,0.00132
1926.62772,0.00134
1925.66344,0.00120
1924.69916,0.00099
1923.73488,0.00097
1922.77060,0.00116
1921.80633,0.00135
1920.84205,0.00141
1919.87777,0.00146
1918.91349,0.00158
1917.94921,0.00168
1916.98494,0.00161
1916.02066,0.00146
1915.05638,0.00134
1914.09210,0.00129
1913.12782,0.00125
1912.16355,0.00125
1911.19927,0.00129
1910.23499,0.00134
1909.27071,0.00137
1908.30643,0.00136
1907.34215,0.00133
1906.37788,0.00134
1905.41360,0.00139
1904.44932,0.00141
1903.48504,0.00140
1902.52076,0.00142
1901.55649,0.00140
1900.59221,0.00130
1899.62793,0.00120
1898.66365,0.00119
1897.69937,0.00121
1896.73510,0.00114
1895.77082,0.00103
1894.80654,0.00104
1893.84226,0.00115
1892.87798,0.00129
1891.91370,0.00137
1890.94943,0.00138
1889.98515,0.00135
1889.02087,0.00131
1888.05659,0.00128
1887.09231,0.00128
1886.12804,0.00130
1885.16376,0.00131
1884.19948,0.00131
1883.23520,0.00128
1882.27092,0.00125
1881.30664,0.00124
1880.34237,0.00125
1879.37809,0.00126
1878.41381,0.00125
1877.44953,0.00123
1876.48525,0.00121
1875.52098,0.00126
1874.55670,0.00136
1873.59242,0.00144
1872.62814,0.00144
1871.66386,0.00138
1870.69959,0.00129
1869.73531,0.00124
1868.77103,0.00126
1867.80675,0.00132
1866.84247,0.00133
1865.87819,0.00129
1864.91392,0.00129
1863.94964,0.00136
1862.98536,0.00145
1862.02108,0.00151
1861.05680,0.00151
1860.09253,0.00151
1859.12825,0.00152
1858.16397,0.00150
1857.19969,0.00145
1856.23541,0.00141
1855.27114,0.00139
1854.30686,0.00138
1853.34258,0.00138
1852.37830,0.00138
1851.41402,0.00136
1850.44974,0.00137
1849.48547,0.00141
1848.52119,0.00148
1847.55691,0.00158
1846.59263,0.00172
1845.62835,0.00180
1844.66408,0.00173
1843.69980,0.00157
1842.73552,0.00146
1841.77124,0.00143
1840.80696,0.00143
1839.84269,0.00144
1838.87841,0.00147
1837.91413,0.00153
1836.94985,0.00161
1835.98557,0.00170
1835.02129,0.00173
1834.05702,0.00171
1833.09274,0.00171
1832.12846,0.00176
1831.16418,0.00181
1830.19990,0.00181
1829.23563,0.00178
1828.27135,0.00177
1827.30707,0.00178
1826.34279,0.00181
1825.37851,0.00187
1824.41423,0.00193
1823.44996,0.00196
1822.48568,0.00199
1821.52140,0.00204
1820.55712,0.00211
1819.59284,0.00215
1818.62857,0.00212
1817.66429,0.00203
1816.70001,0.00194
1815.73573,0.00187
1814.77145,0.00184
1813.80718,0.00184
1812.84290,0.00183
1811.87862,0.00183
1810.91434,0.00184
1809.95006,0.00187
1808.98578,0.00192
1808.02151,0.00198
1807.05723,0.00202
1806.09295,0.00204
1805.12867,0.00202
1804.16439,0.00199
1803.20012,0.00199
1802.23584,0.00203
1801.27156,0.00206
1800.30728,0.00206
1799.34300,0.00202
1798.37873,0.00198
1797.41445,0.00198
1796.45017,0.00203
1795.48589,0.00211
1794.52161,0.00218
1793.55733,0.00221
1792.59306,0.00220
1791.62878,0.00216
1790.66450,0.00212
1789.70022,0.00214
1788.73594,0.00219
1787.77167,0.00224
1786.80739,0.00227
1785.84311,0.00230
1784.87883,0.00232
1783.91455,0.00235
1782.95028,0.00237
1781.98600,0.00239
1781.02172,0.00241
1780.05744,0.00246
1779.09316,0.00251
1778.12888,0.00254
1777.16461,0.00256
1776.20033,0.00256
1775.23605,0.00259
1774.27177,0.00264
1773.30749,0.00269
1772.34322,0.00271
1771.37894,0.00270
1770.41466,0.00268
1769.45038,0.00269
1768.48610,0.00272
1767.52182,0.00279
1766.55755,0.00290
1765.59327,0.00301
1764.62899,0.00312
1763.66471,0.00321
1762.70043,0.00326
1761.73616,0.00326
1760.77188,0.00324
1759.80760,0.00326
1758.84332,0.00335
1757.87904,0.00351
1756.91477,0.00372
1755.95049,0.00394
1754.98621,0.00414
1754.02193,0.00432
1753.05765,0.00451
1752.09337,0.00469
1751.12910,0.00486
1750.16482,0.00501
1749.20054,0.00521
1748.23626,0.00549
1747.27198,0.00579
1746.30771,0.00607
1745.34343,0.00630
1744.37915,0.00652
1743.41487,0.00678
1742.45059,0.00715
1741.48632,0.00763
1740.52204,0.00826
1739.55776,0.00904
1738.59348,0.00986
1737.62920,0.01070
1736.66492,0.01167
1735.70065,0.01303
1734.73637,0.01507
1733.77209,0.01772
1732.80781,0.02042
1731.84353,0.02293
1730.87926,0.02557
1729.91498,0.02858
1728.95070,0.03175
1727.98642,0.03484
1727.02214,0.03782
1726.05786,0.04076
1725.09359,0.04369
1724.12931,0.04662
1723.16503,0.04947
1722.20075,0.05200
1721.23647,0.05406
1720.27220,0.05572
1719.30792,0.05727
1718.34364,0.05897
1717.37936,0.06056
1716.41508,0.06143
1715.45081,0.06140
1714.48653,0.06066
1713.52225,0.05930
1712.55797,0.05732
1711.59369,0.05472
1710.62941,0.05158
1709.66514,0.04802
1708.70086,0.04426
1707.73658,0.04036
1706.77230,0.03626
1705.80802,0.03210
1704.84375,0.02817
1703.87947,0.02479
1702.91519,0.02206
1701.95091,0.01980
1700.98663,0.01755
1700.02236,0.01522
1699.05808,0.01328
1698.09380,0.01194
1697.12952,0.01095
1696.16524,0.01002
1695.20096,0.00914
1694.23669,0.00843
1693.27241,0.00793
1692.30813,0.00755
1691.34385,0.00723
1690.37957,0.00695
1689.41530,0.00671
1688.45102,0.00654
1687.48674,0.00644
1686.52246,0.00638
1685.55818,0.00628
1684.59391,0.00612
1683.62963,0.00597
1682.66535,0.00588
1681.70107,0.00583
1680.73679,0.00577
1679.77251,0.00572
1678.80824,0.00569
1677.84396,0.00568
1676.87968,0.00566
1675.91540,0.00563
1674.95112,0.00556
1673.98685,0.00551
1673.02257,0.00547
1672.05829,0.00545
1671.09401,0.00539
1670.12973,0.00528
1669.16545,0.00510
1668.20118,0.00489
1667.23690,0.00470
1666.27262,0.00457
1665.30834,0.00448
1664.34406,0.00441
1663.37979,0.00436
1662.41551,0.00429
1661.45123,0.00421
1660.48695,0.00412
1659.52267,0.00404
1658.55840,0.00396
1657.59412,0.00389
1656.62984,0.00386
1655.66556,0.00388
1654.70128,0.00394
1653.73700,0.00399
1652.77273,0.00395
1651.80845,0.00387
1650.84417,0.00382
1649.87989,0.00382
1648.91561,0.00383
1647.95134,0.00382
1646.98706,0.00379
1646.02278,0.00378
1645.05850,0.00380
1644.09422,0.00382
1643.12995,0.00386
1642.16567,0.00394
1641.20139,0.00404
1640.23711,0.00412
1639.27283,0.00416
1638.30855,0.00417
1637.34428,0.00417
1636.38000,0.00414
1635.41572,0.00406
1634.45144,0.00393
1633.48716,0.00381
1632.52289,0.00372
1631.55861,0.00368
1630.59433,0.00368
1629.63005,0.00369
1628.66577,0.00370
1627.70149,0.00371
1626.73722,0.00370
1625.77294,0.00368
1624.80866,0.00363
1623.84438,0.00358
1622.88010,0.00354
1621.91583,0.00353
1620.95155,0.00355
1619.98727,0.00359
1619.02299,0.00366
1618.05871,0.00375
1617.09444,0.00383
1616.13016,0.00389
1615.16588,0.00393
1614.20160,0.00393
1613.23732,0.00391
1612.27304,0.00388
1611.30877,0.00385
1610.34449,0.00383
1609.38021,0.00381
1608.41593,0.00377
1607.45165,0.00371
1606.48738,0.00366
1605.52310,0.00361
1604.55882,0.00357
1603.59454,0.00352
1602.63026,0.00349
1601.66599,0.00347
1600.70171,0.00346
1599.73743,0.00344
1598.77315,0.00342
1597.80887,0.00339
1596.84459,0.00335
1595.88032,0.00330
1594.91604,0.00328
1593.95176,0.00331
1592.98748,0.00338
1592.02320,0.00343
1591.05893,0.00342
1590.09465,0.00337
1589.13037,0.00333
1588.16609,0.00331
1587.20181,0.00333
1586.23754,0.00338
1585.27326,0.00348
1584.30898,0.00363
1583.34470,0.00383
1582.38042,0.00408
1581.41614,0.00436
1580.45187,0.00466
1579.48759,0.00494
1578.52331,0.00516
1577.55903,0.00525
1576.59475,0.00519
1575.63048,0.00499
1574.66620,0.00473
1573.70192,0.00450
1572.73764,0.00432
1571.77336,0.00419
1570.80908,0.00410
1569.84481,0.00403
1568.88053,0.00398
1567.91625,0.00396
1566.95197,0.00394
1565.98769,0.00391
1565.02342,0.00385
1564.05914,0.00379
1563.09486,0.00375
1562.13058,0.00375
1561.16630,0.00380
1560.20203,0.00387
1559.23775,0.00392
1558.27347,0.00392
1557.30919,0.00387
1556.34491,0.00381
1555.38063,0.00378
1554.41636,0.00376
1553.45208,0.00373
1552.48780,0.00369
1551.52352,0.00365
1550.55924,0.00361
1549.59497,0.00356
1548.63069,0.00353
1547.66641,0.00354
1546.70213,0.00355
1545.73785,0.00355
1544.77358,0.00353
1543.80930,0.00348
1542.84502,0.00342
1541.88074,0.00334
1540.91646,0.00326
1539.95218,0.00323
1538.98791,0.00329
1538.02363,0.00340
1537.05935,0.00349
1536.09507,0.00352
1535.13079,0.00351
1534.16652,0.00352
1533.20224,0.00358
1532.23796,0.00367
1531.27368,0.00373
1530.30940,0.00374
1529.34513,0.00371
1528.38085,0.00368
1527.41657,0.00364
1526.45229,0.00358
1525.48801,0.00351
1524.52373,0.00346
1523.55946,0.00339
1522.59518,0.00332
1521.63090,0.00325
1520.66662,0.00326
1519.70234,0.00333
1518.73807,0.00342
1517.77379,0.00350
1516.80951,0.00358
1515.84523,0.00367
1514.88095,0.00376
1513.91667,0.00382
1512.95240,0.00385
1511.98812,0.00387
1511.02384,0.00392
1510.05956,0.00407
1509.09528,0.00437
1508.13101,0.00489
1507.16673,0.00562
1506.20245,0.00635
1505.23817,0.00674
1504.27389,0.00662
1503.30962,0.00615
1502.34534,0.00554
1501.38106,0.00498
1500.41678,0.00458
1499.45250,0.00432
1498.48822,0.00412
1497.52395,0.00400
1496.55967,0.00394
1495.59539,0.00391
1494.63111,0.00389
1493.66683,0.00387
1492.70256,0.00385
1491.73828,0.00385
1490.77400,0.00389
1489.80972,0.00398
1488.84544,0.00408
1487.88117,0.00418
1486.91689,0.00428
1485.95261,0.00442
1484.98833,0.00459
1484.02405,0.00478
1483.05977,0.00501
1482.09550,0.00527
1481.13122,0.00557
1480.16694,0.00589
1479.20266,0.00622
1478.23838,0.00657
1477.27411,0.00697
1476.30983,0.00743
1475.34555,0.00793
1474.38127,0.00853
1473.41699,0.00939
1472.45271,0.01058
1471.48844,0.01194
1470.52416,0.01333
1469.55988,0.01470
1468.59560,0.01606
1467.63132,0.01731
1466.66705,0.01834
1465.70277,0.01912
1464.73849,0.01966
1463.77421,0.02000
1462.80993,0.02013
1461.84566,0.02010
1460.88138,0.01993
1459.91710,0.01961
1458.95282,0.01915
1457.98854,0.01855
1457.02426,0.01780
1456.05999,0.01694
1455.09571,0.01608
1454.13143,0.01528
1453.16715,0.01452
1452.20287,0.01381
1451.23860,0.01321
1450.27432,0.01275
1449.31004,0.01241
1448.34576,0.01216
1447.38148,0.01199
1446.41721,0.01190
1445.45293,0.01191
1444.48865,0.01206
1443.52437,0.01235
1442.56009,0.01282
1441.59581,0.01346
1440.63154,0.01428
1439.66726,0.01526
1438.70298,0.01636
1437.73870,0.01758
1436.77442,0.01881
1435.81015,0.01973
1434.84587,0.02008
1433.88159,0.01994
1432.91731,0.01951
1431.95303,0.01905
1430.98876,0.01881
1430.02448,0.01906
1429.06020,0.01987
1428.09592,0.02107
1427.13164,0.02225
1426.16736,0.02283
1425.20309,0.02242
1424.23881,0.02103
1423.27453,0.01915
1422.31025,0.01735
1421.34597,0.01594
1420.38170,0.01487
1419.41742,0.01407
1418.45314,0.01351
1417.48886,0.01319
1416.52458,0.01304
1415.56030,0.01306
1414.59603,0.01329
1413.63175,0.01379
1412.66747,0.01464
1411.70319,0.01577
1410.73891,0.01700
1409.77464,0.01799
1408.81036,0.01845
1407.84608,0.01819
1406.88180,0.01724
1405.91752,0.01580
1404.95325,0.01414
1403.98897,0.01257
1403.02469,0.01130
1402.06041,0.01038
1401.09613,0.00979
1400.13185,0.00945
1399.16758,0.00927
1398.20330,0.00921
1397.23902,0.00924
1396.27474,0.00942
1395.31046,0.00978
1394.34619,0.01029
1393.38191,0.01080
1392.41763,0.01126
1391.45335,0.01173
1390.48907,0.01224
1389.52480,0.01276
1388.56052,0.01335
1387.59624,0.01406
1386.63196,0.01484
1385.66768,0.01560
1384.70340,0.01630
1383.73913,0.01695
1382.77485,0.01750
1381.81057,0.01789
1380.84629,0.01810
1379.88201,0.01809
1378.91774,0.01786
1377.95346,0.01742
1376.98918,0.01678
1376.02490,0.01597
1375.06062,0.01506
1374.09634,0.01412
1373.13207,0.01330
1372.16779,0.01266
1371.20351,0.01218
1370.23923,0.01176
1369.27495,0.01139
1368.31068,0.01106
1367.34640,0.01080
1366.38212,0.01066
1365.41784,0.01061
1364.45356,0.01068
1363.48929,0.01085
1362.52501,0.01109
1361.56073,0.01132
1360.59645,0.01154
1359.63217,0.01178
1358.66789,0.01200
1357.70362,0.01219
1356.73934,0.01231
1355.77506,0.01236
1354.81078,0.01235
1353.84650,0.01232
1352.88223,0.01225
1351.91795,0.01214
1350.95367,0.01200
1349.98939,0.01183
1349.02511,0.01167
1348.06084,0.01156
1347.09656,0.01158
1346.13228,0.01174
1345.16800,0.01203
1344.20372,0.01246
1343.23944,0.01302
1342.27517,0.01367
1341.31089,0.01442
1340.34661,0.01533
1339.38233,0.01638
1338.41805,0.01738
1337.45378,0.01818
1336.48950,0.01879
1335.52522,0.01925
1334.56094,0.01950
1333.59666,0.01952
1332.63239,0.01939
1331.66811,0.01923
1330.70383,0.01912
1329.73955,0.01905
1328.77527,0.01902
1327.81099,0.01899
1326.84672,0.01893
1325.88244,0.01883
1324.91816,0.01872
1323.95388,0.01865
1322.98960,0.01862
1322.02533,0.01855
1321.06105,0.01844
1320.09677,0.01833
1319.13249,0.01829
1318.16821,0.01828
1317.20393,0.01825
1316.23966,0.01818
1315.27538,0.01808
1314.31110,0.01796
1313.34682,0.01787
1312.38254,0.01784
1311.41827,0.01781
1310.45399,0.01778
1309.48971,0.01781
1308.52543,0.01799
1307.56115,0.01832
1306.59688,0.01871
1305.63260,0.01909
1304.66832,0.01942
1303.70404,0.01966
1302.73976,0.01972
1301.77548,0.01961
1300.81121,0.01946
1299.84693,0.01941
1298.88265,0.01953
1297.91837,0.01979
1296.95409,0.02020
1295.98982,0.02078
1295.02554,0.02149
1294.06126,0.02231
1293.09698,0.02329
1292.13270,0.02445
1291.16843,0.02578
1290.20415,0.02730
1289.23987,0.02903
1288.27559,0.03092
1287.31131,0.03293
1286.34703,0.03500
1285.38276,0.03713
1284.41848,0.03936
1283.45420,0.04173
1282.48992,0.04415
1281.52564,0.04659
1280.56137,0.04912
1279.59709,0.05178
1278.63281,0.05455
1277.66853,0.05737
1276.70425,0.06026
1275.73998,0.06318
1274.77570,0.06612
1273.81142,0.06904
1272.84714,0.07188
1271.88286,0.07459
1270.91858,0.07703
1269.95431,0.07909
1268.99003,0.08066
1268.02575,0.08158
1267.06147,0.08175
1266.09719,0.08115
1265.13292,0.07987
1264.16864,0.07800
1263.20436,0.07562
1262.24008,0.07300
1261.27580,0.07049
1260.31152,0.06834
1259.34725,0.06673
1258.38297,0.06580
1257.41869,0.06554
1256.45441,0.06578
1255.49013,0.06629
1254.52586,0.06689
1253.56158,0.06751
1252.59730,0.06817
1251.63302,0.06883
1250.66874,0.06936
1249.70447,0.06972
1248.74019,0.06989
1247.77591,0.06978
1246.81163,0.06925
1245.84735,0.06822
1244.88307,0.06668
1243.91880,0.06471
1242.95452,0.06250
1241.99024,0.06015
1241.02596,0.05766
1240.06168,0.05507
1239.09741,0.05250
1238.13313,0.05008
1237.16885,0.04782
1236.20457,0.04565
1235.24029,0.04353
1234.27602,0.04155
1233.31174,0.03974
1232.34746,0.03802
1231.38318,0.03634
1230.41890,0.03474
1229.45462,0.03319
1228.49035,0.03159
1227.52607,0.02981
1226.56179,0.02783
1225.59751,0.02580
1224.63323,0.02386
1223.66896,0.02212
1222.70468,0.02063
1221.74040,0.01940
1220.77612,0.01843
1219.81184,0.01767
1218.84756,0.01704
1217.88329,0.01656
1216.91901,0.01625
1215.95473,0.01605
1214.99045,0.01597
1214.02617,0.01596
1213.06190,0.01597
1212.09762,0.01591
1211.13334,0.01579
1210.16906,0.01574
1209.20478,0.01579
1208.24051,0.01584
1207.27623,0.01587
1206.31195,0.01596
1205.34767,0.01609
1204.38339,0.01607
1203.41911,0.01599
1202.45484,0.01603
1201.49056,0.01614
1200.52628,0.01614
1199.56200,0.01596
1198.59772,0.01574
1197.63345,0.01559
1196.66917,0.01542
1195.70489,0.01515
1194.74061,0.01481
1193.77633,0.01453
1192.81206,0.01426
1191.84778,0.01393
1190.88350,0.01357
1189.91922,0.01327
1188.95494,0.01298
1187.99066,0.01260
1187.02639,0.01221
1186.06211,0.01186
1185.09783,0.01159
1184.13355,0.01138
1183.16927,0.01114
1182.20500,0.01092
1181.24072,0.01078
1180.27644,0.01075
1179.31216,0.01074
1178.34788,0.01082
1177.38361,0.01109
1176.41933,0.01158
1175.45505,0.01214
1174.49077,0.01262
1173.52649,0.01294
1172.56221,0.01310
1171.59794,0.01303
1170.63366,0.01275
1169.66938,0.01242
1168.70510,0.01212
1167.74082,0.01184
1166.77655,0.01164
1165.81227,0.01162
1164.84799,0.01166
1163.88371,0.01163
1162.91943,0.01155
1161.95515,0.01150
1160.99088,0.01148
1160.02660,0.01151
1159.06232,0.01162
1158.09804,0.01172
1157.13376,0.01169
1156.16949,0.01160
1155.20521,0.01162
1154.24093,0.01174
1153.27665,0.01187
1152.31237,0.01193
1151.34810,0.01195
1150.38382,0.01193
1149.41954,0.01194
1148.45526,0.01199
1147.49098,0.01198
1146.52670,0.01192
1145.56243,0.01190
1144.59815,0.01192
1143.63387,0.01189
1142.66959,0.01181
1141.70531,0.01184
1140.74104,0.01204
1139.77676,0.01232
1138.81248,0.01260
1137.84820,0.01290
1136.88392,0.01324
1135.91965,0.01375
1134.95537,0.01456
1133.99109,0.01560
1133.02681,0.01676
1132.06253,0.01810
1131.09825,0.01975
1130.13398,0.02168
1129.16970,0.02385
1128.20542,0.02631
1127.24114,0.02911
1126.27686,0.03216
1125.31259,0.03543
1124.34831,0.03888
1123.38403,0.04232
1122.41975,0.04557
1121.45547,0.04855
1120.49120,0.05124
1119.52692,0.05357
1118.56264,0.05537
1117.59836,0.05643
1116.63408,0.05661
1115.66980,0.05596
1114.70553,0.05471
1113.74125,0.05308
1112.77697,0.05123
1111.81269,0.04932
1110.84841,0.04755
1109.88414,0.04619
1108.91986,0.04558
1107.95558,0.04602
1106.99130,0.04774
1106.02702,0.05065
1105.06274,0.05416
1104.09847,0.05749
1103.13419,0.05992
1102.16991,0.06092
1101.20563,0.06024
1100.24135,0.05803
1099.27708,0.05473
1098.31280,0.05087
1097.34852,0.04692
1096.38424,0.04317
1095.41996,0.03972
1094.45569,0.03671
1093.49141,0.03432
1092.52713,0.03254
1091.56285,0.03112
1090.59857,0.02990
1089.63429,0.02899
1088.67002,0.02848
1087.70574,0.02820
1086.74146,0.02793
1085.77718,0.02758
1084.81290,0.02709
1083.84863,0.02635
1082.88435,0.02537
1081.92007,0.02425
1080.95579,0.02313
1079.99151,0.02206
1079.02724,0.02107
1078.06296,0.02019
1077.09868,0.01945
1076.13440,0.01876
1075.17012,0.01806
1074.20584,0.01733
1073.24157,0.01671
1072.27729,0.01634
1071.31301,0.01606
1070.34873,0.01571
1069.38445,0.01536
1068.42018,0.01505
1067.45590,0.01473
1066.49162,0.01450
1065.52734,0.01435
1064.56306,0.01416
1063.59878,0.01394
1062.63451,0.01381
1061.67023,0.01369
1060.70595,0.01346
1059.74167,0.01316
1058.77739,0.01294
1057.81312,0.01282
1056.84884,0.01271
1055.88456,0.01258
1054.92028,0.01242
1053.95600,0.01219
1052.99173,0.01198
1052.02745,0.01185
1051.06317,0.01170
1050.09889,0.01154
1049.13461,0.01143
1048.17033,0.01142
1047.20606,0.01145
1046.24178,0.01144
1045.27750,0.01146
1044.31322,0.01154
1043.34894,0.01155
1042.38467,0.01143
1041.42039,0.01137
1040.45611,0.01142
1039.49183,0.01143
1038.52755,0.01138
1037.56328,0.01140
1036.59900,0.01147
1035.63472,0.01154
1034.67044,0.01166
1033.70616,0.01184
1032.74188,0.01200
1031.77761,0.01211
1030.81333,0.01223
1029.84905,0.01238
1028.88477,0.01262
1027.92049,0.01295
1026.95622,0.01332
1025.99194,0.01376
1025.02766,0.01453
1024.06338,0.01593
1023.09910,0.01840
1022.13483,0.02248
1021.17055,0.02831
1020.20627,0.03472
1019.24199,0.03907
1018.27771,0.03910
1017.31343,0.03486
1016.34916,0.02867
1015.38488,0.02312
1014.42060,0.01943
1013.45632,0.01740
1012.49204,0.01623
1011.52777,0.01540
1010.56349,0.01479
1009.59921,0.01440
1008.63493,0.01420
1007.67065,0.01404
1006.70637,0.01385
1005.74210,0.01380
1004.77782,0.01397
1003.81354,0.01419
1002.84926,0.01436
1001.88498,0.01449
1000.92071,0.01466
999.95643,0.01488
998.99215,0.01516
998.02787,0.01548
997.06359,0.01580
996.09932,0.01607
995.13504,0.01621
994.17076,0.01630
993.20648,0.01647
992.24220,0.01670
991.27792,0.01695
990.31365,0.01724
989.34937,0.01748
988.38509,0.01760
987.42081,0.01779
986.45653,0.01818
985.49226,0.01867
984.52798,0.01913
983.56370,0.01963
982.59942,0.02025
981.63514,0.02088
980.67087,0.02141
979.70659,0.02195
978.74231,0.02257
977.77803,0.02313
976.81375,0.02359
975.84947,0.02400
974.88520,0.02438
973.92092,0.02470
972.95664,0.02509
971.99236,0.02553
971.02808,0.02597
970.06381,0.02640
969.09953,0.02679
968.13525,0.02716
967.17097,0.02764
966.20669,0.02818
965.24241,0.02862
964.27814,0.02904
963.31386,0.02951
962.34958,0.03000
961.38530,0.03051
960.42102,0.03105
959.45675,0.03155
958.49247,0.03183
957.52819,0.03174
956.56391,0.03140
955.59963,0.03106
954.63536,0.03082
953.67108,0.03045
952.70680,0.02983
951.74252,0.02905
950.77824,0.02828
949.81396,0.02757
948.84969,0.02687
947.88541,0.02621
946.92113,0.02572
945.95685,0.02525
944.99257,0.02455
944.02830,0.02376
943.06402,0.02314
942.09974,0.02270
941.13546,0.02227
940.17118,0.02182
939.20691,0.02144
938.24263,0.02109
937.27835,0.02069
936.31407,0.02026
935.34979,0.01983
934.38551,0.01940
933.42124,0.01912
932.45696,0.01903
931.49268,0.01896
930.52840,0.01883
929.56412,0.01865
928.59985,0.01851
927.63557,0.01839
926.67129,0.01829
925.70701,0.01822
924.74273,0.01813
923.77846,0.01795
922.81418,0.01779
921.84990,0.01767
920.88562,0.01749
919.92134,0.01718
918.95706,0.01678
917.99279,0.01629
917.02851,0.01579
916.06423,0.01547
915.09995,0.01542
914.13567,0.01537
913.17140,0.01514
912.20712,0.01493
911.24284,0.01480
910.27856,0.01467
909.31428,0.01454
908.35000,0.01442
907.38573,0.01431
906.42145,0.01420
905.45717,0.01403
904.49289,0.01380
903.52861,0.01362
902.56434,0.01339
901.60006,0.01309
900.63578,0.01285
899.67150,0.01276
898.70722,0.01274
897.74295,0.01266
896.77867,0.01248
895.81439,0.01226
894.85011,0.01201
893.88583,0.01180
892.92155,0.01174
891.95728,0.01175
890.99300,0.01163
890.02872,0.01134
889.06444,0.01107
888.10016,0.01102
887.13589,0.01112
886.17161,0.01115
885.20733,0.01115
884.24305,0.01135
883.27877,0.01184
882.31450,0.01248
881.35022,0.01326
880.38594,0.01430
879.42166,0.01568
878.45738,0.01725
877.49310,0.01884
876.52883,0.02037
875.56455,0.02157
874.60027,0.02208
873.63599,0.02178
872.67171,0.02078
871.70744,0.01936
870.74316,0.01794
869.77888,0.01675
868.81460,0.01574
867.85032,0.01486
866.88605,0.01416
865.92177,0.01362
864.95749,0.01322
863.99321,0.01296
863.02893,0.01279
862.06465,0.01261
861.10038,0.01242
860.13610,0.01224
859.17182,0.01211
858.20754,0.01206
857.24326,0.01210
856.27899,0.01213
855.31471,0.01206
854.35043,0.01199
853.38615,0.01206
852.42187,0.01219
851.45759,0.01223
850.49332,0.01223
849.52904,0.01224
848.56476,0.01222
847.60048,0.01216
846.63620,0.01205
845.67193,0.01193
844.70765,0.01183
843.74337,0.01182
842.77909,0.01189
841.81481,0.01200
840.85054,0.01210
839.88626,0.01216
838.92198,0.01227
837.95770,0.01251
836.99342,0.01274
836.02914,0.01279
835.06487,0.01288
834.10059,0.01319
833.13631,0.01342
832.17203,0.01344
831.20775,0.01329
830.24348,0.01293
829.27920,0.01245
828.31492,0.01201
827.35064,0.01153
826.38636,0.01088
825.42209,0.01028
824.45781,0.00998
823.49353,0.00974
822.52925,0.00940
821.56497,0.00917
820.60069,0.00906
819.63642,0.00889
818.67214,0.00867
817.70786,0.00846
816.74358,0.00830
815.77930,0.00822
814.81503,0.00817
813.85075,0.00811
812.88647,0.00796
811.92219,0.00782
810.95791,0.00785
809.99363,0.00794
809.02936,0.00796
808.06508,0.00788
807.10080,0.00768
806.13652,0.00747
805.17224,0.00745
804.20797,0.00755
803.24369,0.00756
802.27941,0.00748
801.31513,0.00745
800.35085,0.00749
799.38658,0.00758
798.42230,0.00787
797.45802,0.00855
796.49374,0.00930
795.52946,0.00963
794.56518,0.00945
793.60091,0.00900
792.63663,0.00859
791.67235,0.00839
790.70807,0.00831
789.74379,0.00833
788.77952,0.00843
787.81524,0.00849
786.85096,0.00857
785.88668,0.00883
784.92240,0.00916
783.95813,0.00939
782.99385,0.00960
782.02957,0.00979
781.06529,0.00980
780.10101,0.00964
779.13673,0.00948
778.17246,0.00940
777.20818,0.00949
776.24390,0.00976
775.27962,0.01006
774.31534,0.01021
773.35107,0.01014
772.38679,0.00997
771.42251,0.01005
770.45823,0.01038
769.49395,0.01058
768.52968,0.01056
767.56540,0.01051
766.60112,0.01029
765.63684,0.00983
764.67256,0.00964
763.70828,0.00983
762.74401,0.00987
761.77973,0.00940
760.81545,0.00868
759.85117,0.00821
758.88689,0.00797
757.92262,0.00757
756.95834,0.00694
755.99406,0.00652
755.02978,0.00653
754.06550,0.00679
753.10122,0.00708
752.13695,0.00736
751.17267,0.00771
750.20839,0.00805
749.24411,0.00821
748.27983,0.00805
747.31556,0.00799
746.35128,0.00857
745.38700,0.00947
744.42272,0.01014
743.45844,0.01067
742.49417,0.01120
741.52989,0.01202
740.56561,0.01372
739.60133,0.01639
738.63705,0.01971
737.67277,0.02402
736.70850,0.02991
735.74422,0.03715
734.77994,0.04484
733.81566,0.05224
732.85138,0.05899
731.88711,0.06456
730.92283,0.06788
729.95855,0.06746
728.99427,0.06285
728.02999,0.05534
727.06572,0.04690
726.10144,0.03916
725.13716,0.03285
724.17288,0.02788
723.20860,0.02403
722.24432,0.02114
721.28005,0.01907
720.31577,0.01765
719.35149,0.01662
718.38721,0.01589
717.42293,0.01550
716.45866,0.01539
715.49438,0.01541
714.53010,0.01552
713.56582,0.01570
712.60154,0.01596
711.63726,0.01634
710.67299,0.01688
709.70871,0.01756
708.74443,0.01826
707.78015,0.01894
706.81587,0.01968
705.85160,0.02051
704.88732,0.02126
703.92304,0.02182
702.95876,0.02232
701.99448,0.02281
701.03021,0.02329
700.06593,0.02374
699.10165,0.02403
698.13737,0.02410
697.17309,0.02409
696.20881,0.02415
695.24454,0.02425
694.28026,0.02435
693.31598,0.02441
692.35170,0.02439
691.38742,0.02429
690.42315,0.02420
689.45887,0.02426
688.49459,0.02438
687.53031,0.02430
686.56603,0.02397
685.60176,0.02370
684.63748,0.02380
683.67320,0.02407
682.70892,0.02417
681.74464,0.02418
680.78036,0.02426
679.81609,0.02434
678.85181,0.02416
677.88753,0.02357
676.92325,0.02279
675.95897,0.02217
674.99470,0.02166
674.03042,0.02088
673.06614,0.01987
672.10186,0.01898
671.13758,0.01830
670.17331,0.01777
669.20903,0.01725
668.24475,0.01681
667.28047,0.01648
666.31619,0.01616
665.35191,0.01576
664.38764,0.01548
663.42336,0.01554
662.45908,0.01573
661.49480,0.01580
660.53052,0.01599
659.56625,0.01661
658.60197,0.01751
657.63769,0.01829
656.67341,0.01894
655.70913,0.01960
654.74485,0.02023
653.78058,0.02092
652.81630,0.02197
651.85202,0.02341
650.88774,0.02485
649.92346,0.02598
648.95919,0.02699
647.99491,0.02814
647.03063,0.02938
646.06635,0.03054
645.10207,0.03156
644.13780,0.03251
643.17352,0.03342
642.20924,0.03424
641.24496,0.03512
640.28068,0.03661
639.31640,0.03862
638.35213,0.04019
637.38785,0.04083
636.42357,0.04087
635.45929,0.04066
634.49501,0.04053
633.53074,0.04049
632.56646,0.04005
631.60218,0.03905
630.63790,0.03809
629.67362,0.03776
628.70935,0.03797
627.74507,0.03781
626.78079,0.03715
625.81651,0.03688
624.85223,0.03714
623.88795,0.03754
622.92368,0.03818
621.95940,0.03903
620.99512,0.03975
620.03084,0.04027
619.06656,0.04084
618.10229,0.04162
617.13801,0.04250
616.17373,0.04322
615.20945,0.04352
614.24517,0.04343
613.28090,0.04327
612.31662,0.04321
611.35234,0.04336
610.38806,0.04393
609.42378,0.04469
608.45950,0.04488
607.49523,0.04392
606.53095,0.04243
605.56667,0.04168
604.60239,0.04177
603.63811,0.04143
602.67384,0.03973
601.70956,0.03739
600.74528,0.03520
599.78100,0.03292
