7497.03301,0.49988
7495.10426,0.50324
7493.17552,0.50933
7491.24677,0.51355
7489.31803,0.51296
7487.38928,0.51016
7485.46054,0.50784
7483.53179,0.50679
7481.60305,0.50570
7479.67430,0.50240
7477.74556,0.50002
7475.81681,0.50126
7473.88807,0.50268
7471.95932,0.50181
7470.03057,0.49916
7468.10183,0.49839
7466.17308,0.50074
7464.24434,0.50045
7462.31559,0.49717
7460.38685,0.49708
7458.45810,0.49986
7456.52936,0.50075
7454.60061,0.49931
7452.67187,0.49904
7450.74312,0.50069
7448.81438,0.50164
7446.88563,0.50127
7444.95689,0.50105
7443.02814,0.50040
7441.09940,0.49790
7439.17065,0.49642
7437.24190,0.49905
7435.31316,0.50261
7433.38441,0.50316
7431.45567,0.49861
7429.52692,0.49000
7427.59818,0.48603
7425.66943,0.49132
7423.74069,0.49769
7421.81194,0.49787
7419.88320,0.49494
7417.95445,0.49412
7416.02571,0.49434
7414.09696,0.49248
7412.16822,0.48946
7410.23947,0.48789
7408.31073,0.48881
7406.38198,0.49111
7404.45323,0.49131
7402.52449,0.48750
7400.59574,0.48493
7398.66700,0.48790
7396.73825,0.48943
7394.80951,0.48475
7392.88076,0.48109
7390.95202,0.48107
7389.02327,0.47877
7387.09453,0.47614
7385.16578,0.47799
7383.23704,0.47989
7381.30829,0.48114
7379.37955,0.48722
7377.45080,0.49330
7375.52205,0.49070
7373.59331,0.48223
7371.66456,0.47633
7369.73582,0.47633
7367.80707,0.47959
7365.87833,0.48047
7363.94958,0.47669
7362.02084,0.47241
7360.09209,0.47108
7358.16335,0.47244
7356.23460,0.47586
7354.30586,0.47850
7352.37711,0.47724
7350.44837,0.47275
7348.51962,0.46826
7346.59088,0.46646
7344.66213,0.46645
7342.73338,0.46722
7340.80464,0.46990
7338.87589,0.47332
7336.94715,0.47373
7335.01840,0.47063
7333.08966,0.46910
7331.16091,0.46959
7329.23217,0.46577
7327.30342,0.45831
7325.37468,0.45464
7323.44593,0.45693
7321.51719,0.46021
7319.58844,0.45956
7317.65970,0.45734
7315.73095,0.45820
7313.80221,0.46060
7311.87346,0.46027
7309.94471,0.45709
7308.01597,0.45436
7306.08722,0.45458
7304.15848,0.45743
7302.22973,0.45918
7300.30099,0.45765
7298.37224,0.45514
7296.44350,0.45220
7294.51475,0.44897
7292.58601,0.44831
7290.65726,0.44931
7288.72852,0.44923
7286.79977,0.44887
7284.87103,0.44931
7282.94228,0.44956
7281.01353,0.44741
7279.08479,0.44346
7277.15604,0.44157
7275.22730,0.44184
7273.29855,0.44121
7271.36981,0.43970
7269.44106,0.43878
7267.51232,0.44000
7265.58357,0.44279
7263.65483,0.44269
7261.72608,0.43953
7259.79734,0.43646
7257.86859,0.43453
7255.93985,0.43466
7254.01110,0.43468
7252.08236,0.43334
7250.15361,0.43338
7248.22486,0.43319
7246.29612,0.43033
7244.36737,0.42734
7242.43863,0.42652
7240.50988,0.42813
7238.58114,0.43086
7236.65239,0.43033
7234.72365,0.42494
7232.79490,0.42105
7230.86616,0.42246
7228.93741,0.42479
7227.00867,0.42585
7225.07992,0.42707
7223.15118,0.42769
7221.22243,0.42737
7219.29369,0.42736
7217.36494,0.42810
7215.43619,0.42916
7213.50745,0.42829
7211.57870,0.42443
7209.64996,0.42076
7207.72121,0.41935
7205.79247,0.41906
7203.86372,0.41963
7201.93498,0.42142
7200.00623,0.42244
7198.07749,0.42030
7196.14874,0.41558
7194.22000,0.41196
7192.29125,0.41319
7190.36251,0.41725
7188.43376,0.41738
7186.50501,0.41264
7184.57627,0.40778
7182.64752,0.40562
7180.71878,0.40777
7178.79003,0.41315
7176.86129,0.41753
7174.93254,0.42029
7173.00380,0.42358
7171.07505,0.42694
7169.14631,0.42687
7167.21756,0.42187
7165.28882,0.41664
7163.36007,0.41577
7161.43133,0.41725
7159.50258,0.41801
7157.57384,0.41842
7155.64509,0.41727
7153.71634,0.41317
7151.78760,0.40971
7149.85885,0.41090
7147.93011,0.41682
7146.00136,0.42188
7144.07262,0.42051
7142.14387,0.41608
7140.21513,0.41408
7138.28638,0.41458
7136.35764,0.41674
7134.42889,0.41958
7132.50015,0.41996
7130.57140,0.41769
7128.64266,0.41695
7126.71391,0.41781
7124.78516,0.41725
7122.85642,0.41604
7120.92767,0.41493
7118.99893,0.41428
7117.07018,0.41521
7115.14144,0.41574
7113.21269,0.41655
7111.28395,0.41914
7109.35520,0.41890
7107.42646,0.41574
7105.49771,0.41532
7103.56897,0.41600
7101.64022,0.41372
7099.71148,0.41216
7097.78273,0.41370
7095.85399,0.41362
7093.92524,0.41181
7091.99649,0.41252
7090.06775,0.41420
7088.13900,0.41438
7086.21026,0.41563
7084.28151,0.41811
7082.35277,0.41690
7080.42402,0.41339
7078.49528,0.41282
7076.56653,0.41304
7074.63779,0.41214
7072.70904,0.41204
7070.78030,0.41141
7068.85155,0.41030
7066.92281,0.41146
7064.99406,0.41356
7063.06532,0.41452
7061.13657,0.41579
7059.20782,0.41720
7057.27908,0.41632
7055.35033,0.41488
7053.42159,0.41602
7051.49284,0.41738
7049.56410,0.41622
7047.63535,0.41487
7045.70661,0.41443
7043.77786,0.41364
7041.84912,0.41279
7039.92037,0.41255
7037.99163,0.41320
7036.06288,0.41452
7034.13414,0.41609
7032.20539,0.41828
7030.27664,0.41975
7028.34790,0.41841
7026.41915,0.41550
7024.49041,0.41308
7022.56166,0.41161
7020.63292,0.41154
7018.70417,0.41301
7016.77543,0.41559
7014.84668,0.41879
7012.91794,0.41982
7010.98919,0.41677
7009.06045,0.41444
7007.13170,0.41546
7005.20296,0.41534
7003.27421,0.41399
7001.34547,0.41590
6999.41672,0.42129
6997.48797,0.42641
6995.55923,0.42726
6993.63048,0.42370
6991.70174,0.42038
6989.77299,0.42005
6987.84425,0.42068
6985.91550,0.42173
6983.98676,0.42388
6982.05801,0.42451
6980.12927,0.42235
6978.20052,0.42053
6976.27178,0.42175
6974.34303,0.42409
6972.41429,0.42363
6970.48554,0.42108
6968.55680,0.42069
6966.62805,0.42424
6964.69930,0.43034
6962.77056,0.43594
6960.84181,0.43843
6958.91307,0.43748
6956.98432,0.43476
6955.05558,0.43323
6953.12683,0.43437
6951.19809,0.43601
6949.26934,0.43612
6947.34060,0.43485
6945.41185,0.43322
6943.48311,0.43300
6941.55436,0.43377
6939.62562,0.43326
6937.69687,0.43215
6935.76812,0.43248
6933.83938,0.43413
6931.91063,0.43616
6929.98189,0.43830
6928.05314,0.44056
6926.12440,0.44232
6924.19565,0.44229
6922.26691,0.44114
6920.33816,0.44153
6918.40942,0.44295
6916.48067,0.44301
6914.55193,0.44167
6912.62318,0.43959
6910.69444,0.43838
6908.76569,0.44063
6906.83695,0.44542
6904.90820,0.44852
6902.97945,0.44875
6901.05071,0.44766
6899.12196,0.44518
6897.19322,0.44238
6895.26447,0.44172
6893.33573,0.44252
6891.40698,0.44336
6889.47824,0.44405
6887.54949,0.44451
6885.62075,0.44600
6883.69200,0.44889
6881.76326,0.45223
6879.83451,0.45572
6877.90577,0.45754
6875.97702,0.45627
6874.04828,0.45329
6872.11953,0.45073
6870.19078,0.44982
6868.26204,0.45009
6866.33329,0.45157
6864.40455,0.45405
6862.47580,0.45549
6860.54706,0.45507
6858.61831,0.45425
6856.68957,0.45398
6854.76082,0.45348
6852.83208,0.45333
6850.90333,0.45456
6848.97459,0.45585
6847.04584,0.45666
6845.11710,0.45711
6843.18835,0.45721
6841.25960,0.45800
6839.33086,0.45901
6837.40211,0.45813
6835.47337,0.45638
6833.54462,0.45788
6831.61588,0.46243
6829.68713,0.46448
6827.75839,0.46272
6825.82964,0.46090
6823.90090,0.45927
6821.97215,0.45711
6820.04341,0.45740
6818.11466,0.45982
6816.18592,0.46002
6814.25717,0.45822
6812.32843,0.45771
6810.39968,0.45808
6808.47093,0.45800
6806.54219,0.45839
6804.61344,0.45922
6802.68470,0.45980
6800.75595,0.46023
6798.82721,0.46054
6796.89846,0.46093
6794.96972,0.46182
6793.04097,0.46350
6791.11223,0.46456
6789.18348,0.46347
6787.25474,0.46293
6785.32599,0.46451
6783.39725,0.46431
6781.46850,0.46205
6779.53975,0.46170
6777.61101,0.46343
6775.68226,0.46594
6773.75352,0.46814
6771.82477,0.46808
6769.89603,0.46671
6767.96728,0.46649
6766.03854,0.46708
6764.10979,0.46675
6762.18105,0.46579
6760.25230,0.46581
6758.32356,0.46750
6756.39481,0.46959
6754.46607,0.46953
6752.53732,0.46699
6750.60858,0.46375
6748.67983,0.46177
6746.75108,0.46342
6744.82234,0.46800
6742.89359,0.47054
6740.96485,0.46935
6739.03610,0.46933
6737.10736,0.47148
6735.17861,0.47087
6733.24987,0.46767
6731.32112,0.46617
6729.39238,0.46762
6727.46363,0.47086
6725.53489,0.47384
6723.60614,0.47458
6721.67740,0.47234
6719.74865,0.46867
6717.81991,0.46673
6715.89116,0.46765
6713.96241,0.46958
6712.03367,0.47132
6710.10492,0.47257
6708.17618,0.47214
6706.24743,0.47034
6704.31869,0.46926
6702.38994,0.46916
6700.46120,0.46953
6698.53245,0.47133
6696.60371,0.47335
6694.67496,0.47327
6692.74622,0.47176
6690.81747,0.46983
6688.88873,0.46866
6686.95998,0.47025
6685.03123,0.47333
6683.10249,0.47506
6681.17374,0.47481
6679.24500,0.47341
6677.31625,0.47289
6675.38751,0.47452
6673.45876,0.47647
6671.53002,0.47719
6669.60127,0.47677
6667.67253,0.47581
6665.74378,0.47620
6663.81504,0.47819
6661.88629,0.47927
6659.95755,0.47822
6658.02880,0.47657
6656.10006,0.47653
6654.17131,0.47810
6652.24256,0.47931
6650.31382,0.47887
6648.38507,0.47676
6646.45633,0.47478
6644.52758,0.47499
6642.59884,0.47637
6640.67009,0.47675
6638.74135,0.47663
6636.81260,0.47744
6634.88386,0.47781
6632.95511,0.47703
6631.02637,0.47737
6629.09762,0.47821
6627.16888,0.47732
6625.24013,0.47565
6623.31139,0.47470
6621.38264,0.47488
6619.45389,0.47582
6617.52515,0.47651
6615.59640,0.47653
6613.66766,0.47695
6611.73891,0.47822
6609.81017,0.47880
6607.88142,0.47857
6605.95268,0.47798
6604.02393,0.47714
6602.09519,0.47759
6600.16644,0.47912
6598.23770,0.48008
6596.30895,0.48089
6594.38021,0.48154
6592.45146,0.48111
6590.52271,0.48039
6588.59397,0.48013
6586.66522,0.48014
6584.73648,0.47992
6582.80773,0.47907
6580.87899,0.47865
6578.95024,0.47884
6577.02150,0.47865
6575.09275,0.47893
6573.16401,0.48095
6571.23526,0.48364
6569.30652,0.48502
6567.37777,0.48468
6565.44903,0.48298
6563.52028,0.48116
6561.59154,0.48034
6559.66279,0.47868
6557.73404,0.47613
6555.80530,0.47616
6553.87655,0.47925
6551.94781,0.48253
6550.01906,0.48419
6548.09032,0.48473
6546.16157,0.48528
6544.23283,0.48637
6542.30408,0.48713
6540.37534,0.48672
6538.44659,0.48596
6536.51785,0.48506
6534.58910,0.48351
6532.66036,0.48243
6530.73161,0.48351
6528.80287,0.48612
6526.87412,0.48726
6524.94537,0.48579
6523.01663,0.48399
6521.08788,0.48284
6519.15914,0.48230
6517.23039,0.48351
6515.30165,0.48564
6513.37290,0.48621
6511.44416,0.48478
6509.51541,0.48373
6507.58667,0.48459
6505.65792,0.48596
6503.72918,0.48732
6501.80043,0.48895
6499.87169,0.49010
6497.94294,0.48978
6496.01419,0.48752
6494.08545,0.48609
6492.15670,0.48719
6490.22796,0.48772
6488.29921,0.48682
6486.37047,0.48640
6484.44172,0.48623
6482.51298,0.48578
6480.58423,0.48601
6478.65549,0.48752
6476.72674,0.48913
6474.79800,0.48922
6472.86925,0.48822
6470.94051,0.48750
6469.01176,0.48743
6467.08302,0.48865
6465.15427,0.49013
6463.22552,0.48971
6461.29678,0.48932
6459.36803,0.49102
6457.43929,0.49232
6455.51054,0.49181
6453.58180,0.49046
6451.65305,0.48846
6449.72431,0.48663
6447.79556,0.48617
6445.86682,0.48640
6443.93807,0.48602
6442.00933,0.48573
6440.08058,0.48640
6438.15184,0.48763
6436.22309,0.48999
6434.29434,0.49235
6432.36560,0.49136
6430.43685,0.48808
6428.50811,0.48675
6426.57936,0.48788
6424.65062,0.48997
6422.72187,0.49188
6420.79313,0.49183
6418.86438,0.49094
6416.93564,0.49174
6415.00689,0.49240
6413.07815,0.49128
6411.14940,0.49064
6409.22066,0.49143
6407.29191,0.49175
6405.36317,0.49009
6403.43442,0.48702
6401.50567,0.48513
6399.57693,0.48602
6397.64818,0.48823
6395.71944,0.49001
6393.79069,0.49077
6391.86195,0.49120
6389.93320,0.49197
6388.00446,0.49214
6386.07571,0.49198
6384.14697,0.49269
6382.21822,0.49322
6380.28948,0.49183
6378.36073,0.48801
6376.43199,0.48420
6374.50324,0.48377
6372.57450,0.48601
6370.64575,0.48799
6368.71700,0.48901
6366.78826,0.49017
6364.85951,0.49123
6362.93077,0.49052
6361.00202,0.48878
6359.07328,0.48787
6357.14453,0.48752
6355.21579,0.48717
6353.28704,0.48568
6351.35830,0.48296
6349.42955,0.48292
6347.50081,0.48648
6345.57206,0.48893
6343.64332,0.48841
6341.71457,0.48699
6339.78582,0.48613
6337.85708,0.48648
6335.92833,0.48762
6333.99959,0.48857
6332.07084,0.48882
6330.14210,0.48850
6328.21335,0.48874
6326.28461,0.48953
6324.35586,0.48987
6322.42712,0.49020
6320.49837,0.49021
6318.56963,0.48892
6316.64088,0.48729
6314.71214,0.48619
6312.78339,0.48620
6310.85465,0.48789
6308.92590,0.48939
6306.99715,0.48955
6305.06841,0.48982
6303.13966,0.49009
6301.21092,0.48990
6299.28217,0.49031
6297.35343,0.49076
6295.42468,0.49097
6293.49594,0.49176
6291.56719,0.49167
6289.63845,0.49000
6287.70970,0.48862
6285.78096,0.48840
6283.85221,0.48892
6281.92347,0.48993
6279.99472,0.49016
6278.06598,0.48888
6276.13723,0.48839
6274.20848,0.48979
6272.27974,0.49080
6270.35099,0.49040
6268.42225,0.48975
6266.49350,0.49002
6264.56476,0.49080
6262.63601,0.49088
6260.70727,0.49108
6258.77852,0.49248
6256.84978,0.49407
6254.92103,0.49462
6252.99229,0.49400
6251.06354,0.49285
6249.13480,0.49176
6247.20605,0.49118
6245.27730,0.49177
6243.34856,0.49241
6241.41981,0.49161
6239.49107,0.49077
6237.56232,0.49051
6235.63358,0.48943
6233.70483,0.48779
6231.77609,0.48650
6229.84734,0.48642
6227.91860,0.48785
6225.98985,0.48961
6224.06111,0.49129
6222.13236,0.49259
6220.20362,0.49182
6218.27487,0.48934
6216.34613,0.48775
6214.41738,0.48738
6212.48863,0.48673
6210.55989,0.48568
6208.63114,0.48495
6206.70240,0.48511
6204.77365,0.48580
6202.84491,0.48521
6200.91616,0.48207
6198.98742,0.47849
6197.05867,0.47783
6195.12993,0.47922
6193.20118,0.47931
6191.27244,0.47796
6189.34369,0.47738
6187.41495,0.47816
6185.48620,0.47892
6183.55746,0.47888
6181.62871,0.47881
6179.69996,0.47885
6177.77122,0.47892
6175.84247,0.47977
6173.91373,0.48050
6171.98498,0.47986
6170.05624,0.47892
6168.12749,0.47862
6166.19875,0.47861
6164.27000,0.47903
6162.34126,0.47982
6160.41251,0.47948
6158.48377,0.47774
6156.55502,0.47632
6154.62628,0.47553
6152.69753,0.47491
6150.76878,0.47468
6148.84004,0.47444
6146.91129,0.47346
6144.98255,0.47234
6143.05380,0.47175
6141.12506,0.47120
6139.19631,0.47082
6137.26757,0.47091
6135.33882,0.47103
6133.41008,0.47122
6131.48133,0.47115
6129.55259,0.47127
6127.62384,0.47224
6125.69510,0.47176
6123.76635,0.46924
6121.83761,0.46727
6119.90886,0.46587
6117.98011,0.46398
6116.05137,0.46292
6114.12262,0.46277
6112.19388,0.46153
6110.26513,0.45905
6108.33639,0.45663
6106.40764,0.45398
6104.47890,0.45061
6102.55015,0.44711
6100.62141,0.44409
6098.69266,0.44243
6096.76392,0.44185
6094.83517,0.44009
6092.90643,0.43577
6090.97768,0.43042
6089.04893,0.42597
6087.12019,0.42261
6085.19144,0.41988
6083.26270,0.41719
6081.33395,0.41444
6079.40521,0.41246
6077.47646,0.41078
6075.54772,0.40829
6073.61897,0.40548
6071.69023,0.40241
6069.76148,0.39832
6067.83274,0.39464
6065.90399,0.39291
6063.97525,0.39105
6062.04650,0.38660
6060.11776,0.38118
6058.18901,0.37689
6056.26026,0.37304
6054.33152,0.36924
6052.40277,0.36596
6050.47403,0.36278
6048.54528,0.35912
6046.61654,0.35521
6044.68779,0.35203
6042.75905,0.35030
6040.83030,0.34937
6038.90156,0.34769
6036.97281,0.34462
6035.04407,0.34105
6033.11532,0.33788
6031.18658,0.33552
6029.25783,0.33400
6027.32909,0.33213
6025.40034,0.32968
6023.47159,0.32814
6021.54285,0.32664
6019.61410,0.32352
6017.68536,0.32020
6015.75661,0.31808
6013.82787,0.31721
6011.89912,0.31761
6009.97038,0.31920
6008.04163,0.32246
6006.11289,0.32694
6004.18414,0.33101
6002.25540,0.33425
6000.32665,0.33719
5998.39791,0.34062
5996.46916,0.34533
5994.54041,0.35021
5992.61167,0.35377
5990.68292,0.35695
5988.75418,0.36061
5986.82543,0.36392
5984.89669,0.36659
5982.96794,0.36910
5981.03920,0.37124
5979.11045,0.37247
5977.18171,0.37314
5975.25296,0.37388
5973.32422,0.37478
5971.39547,0.37600
5969.46673,0.37771
5967.53798,0.37872
5965.60924,0.37791
5963.68049,0.37600
5961.75174,0.37372
5959.82300,0.37137
5957.89425,0.36899
5955.96551,0.36619
5954.03676,0.36274
5952.10802,0.35834
5950.17927,0.35402
5948.25053,0.35140
5946.32178,0.34947
5944.39304,0.34615
5942.46429,0.34158
5940.53555,0.33710
5938.60680,0.33293
5936.67806,0.32876
5934.74931,0.32464
5932.82057,0.32056
5930.89182,0.31658
5928.96307,0.31247
5927.03433,0.30827
5925.10558,0.30501
5923.17684,0.30248
5921.24809,0.29953
5919.31935,0.29637
5917.39060,0.29340
5915.46186,0.29031
5913.53311,0.28696
5911.60437,0.28360
5909.67562,0.28041
5907.74688,0.27707
5905.81813,0.27365
5903.88939,0.27043
5901.96064,0.26724
5900.03189,0.26410
5898.10315,0.26104
5896.17440,0.25759
5894.24566,0.25319
5892.31691,0.24853
5890.38817,0.24420
5888.45942,0.23977
5886.53068,0.23599
5884.60193,0.23309
5882.67319,0.23020
5880.74444,0.22764
5878.81570,0.22514
5876.88695,0.22160
5874.95821,0.21797
5873.02946,0.21588
5871.10072,0.21466
5869.17197,0.21268
5867.24322,0.20968
5865.31448,0.20650
5863.38573,0.20393
5861.45699,0.20168
5859.52824,0.19884
5857.59950,0.19538
5855.67075,0.19219
5853.74201,0.18956
5851.81326,0.18690
5849.88452,0.18409
5847.95577,0.18165
5846.02703,0.17965
5844.09828,0.17686
5842.16954,0.17272
5840.24079,0.16888
5838.31205,0.16628
5836.38330,0.16426
5834.45455,0.16235
5832.52581,0.16015
5830.59706,0.15778
5828.66832,0.15589
5826.73957,0.15510
5824.81083,0.15607
5822.88208,0.15786
5820.95334,0.15920
5819.02459,0.16078
5817.09585,0.16314
5815.16710,0.16622
5813.23836,0.16966
5811.30961,0.17223
5809.38087,0.17439
5807.45212,0.17803
5805.52337,0.18314
5803.59463,0.18755
5801.66588,0.19027
5799.73714,0.19274
5797.80839,0.19587
5795.87965,0.19916
5793.95090,0.20236
5792.02216,0.20533
5790.09341,0.20769
5788.16467,0.21008
5786.23592,0.21344
5784.30718,0.21698
5782.37843,0.21984
5780.44969,0.22256
5778.52094,0.22515
5776.59220,0.22725
5774.66345,0.22935
5772.73470,0.23167
5770.80596,0.23297
5768.87721,0.23225
5766.94847,0.23111
5765.01972,0.23144
5763.09098,0.23243
5761.16223,0.23260
5759.23349,0.23230
5757.30474,0.23202
5755.37600,0.23131
5753.44725,0.22989
5751.51851,0.22814
5749.58976,0.22661
5747.66102,0.22591
5745.73227,0.22572
5743.80352,0.22501
5741.87478,0.22450
5739.94603,0.22504
5738.01729,0.22518
5736.08854,0.22425
5734.15980,0.22390
5732.23105,0.22465
5730.30231,0.22506
5728.37356,0.22501
5726.44482,0.22567
5724.51607,0.22717
5722.58733,0.22887
5720.65858,0.22969
5718.72984,0.22935
5716.80109,0.22901
5714.87235,0.22886
5712.94360,0.22800
5711.01485,0.22677
5709.08611,0.22591
5707.15736,0.22529
5705.22862,0.22520
5703.29987,0.22572
5701.37113,0.22619
5699.44238,0.22662
5697.51364,0.22736
5695.58489,0.22857
5693.65615,0.23028
5691.72740,0.23185
5689.79866,0.23299
5687.86991,0.23446
5685.94117,0.23677
5684.01242,0.23948
5682.08368,0.24187
5680.15493,0.24351
5678.22618,0.24478
5676.29744,0.24684
5674.36869,0.24968
5672.43995,0.25202
5670.51120,0.25364
5668.58246,0.25464
5666.65371,0.25519
5664.72497,0.25590
5662.79622,0.25648
5660.86748,0.25697
5658.93873,0.25812
5657.00999,0.25908
5655.08124,0.25956
5653.15250,0.26066
5651.22375,0.26201
5649.29500,0.26266
5647.36626,0.26296
5645.43751,0.26374
5643.50877,0.26489
5641.58002,0.26567
5639.65128,0.26658
5637.72253,0.26853
5635.79379,0.27084
5633.86504,0.27240
5631.93630,0.27317
5630.00755,0.27369
5628.07881,0.27467
5626.15006,0.27645
5624.22132,0.27820
5622.29257,0.27887
5620.36383,0.27889
5618.43508,0.27934
5616.50633,0.28024
5614.57759,0.28146
5612.64884,0.28314
5610.72010,0.28451
5608.79135,0.28510
5606.86261,0.28591
5604.93386,0.28734
5603.00512,0.28852
5601.07637,0.28941
5599.14763,0.29047
5597.21888,0.29111
5595.29014,0.29136
5593.36139,0.29205
5591.43265,0.29291
5589.50390,0.29349
5587.57516,0.29413
5585.64641,0.29485
5583.71766,0.29555
5581.78892,0.29653
5579.86017,0.29804
5577.93143,0.29961
5576.00268,0.30063
5574.07394,0.30099
5572.14519,0.30082
5570.21645,0.30060
5568.28770,0.30070
5566.35896,0.30107
5564.43021,0.30194
5562.50147,0.30326
5560.57272,0.30426
5558.64398,0.30478
5556.71523,0.30566
5554.78648,0.30701
5552.85774,0.30784
5550.92899,0.30796
5549.00025,0.30827
5547.07150,0.30920
5545.14276,0.30989
5543.21401,0.30998
5541.28527,0.31018
5539.35652,0.31049
5537.42778,0.31052
5535.49903,0.31059
5533.57029,0.31122
5531.64154,0.31223
5529.71280,0.31312
5527.78405,0.31327
5525.85531,0.31238
5523.92656,0.31141
5521.99781,0.31160
5520.06907,0.31257
5518.14032,0.31330
5516.21158,0.31364
5514.28283,0.31375
5512.35409,0.31393
5510.42534,0.31468
5508.49660,0.31560
5506.56785,0.31577
5504.63911,0.31517
5502.71036,0.31462
5500.78162,0.31461
5498.85287,0.31468
5496.92413,0.31444
5494.99538,0.31398
5493.06664,0.31369
5491.13789,0.31363
5489.20914,0.31321
5487.28040,0.31297
5485.35165,0.31346
5483.42291,0.31363
5481.49416,0.31284
5479.56542,0.31169
5477.63667,0.31098
5475.70793,0.31094
5473.77918,0.31113
5471.85044,0.31092
5469.92169,0.31037
5467.99295,0.31001
5466.06420,0.31030
5464.13546,0.31148
5462.20671,0.31314
5460.27796,0.31459
5458.34922,0.31543
5456.42047,0.31581
5454.49173,0.31624
5452.56298,0.31695
5450.63424,0.31787
5448.70549,0.31898
5446.77675,0.32034
5444.84800,0.32194
5442.91926,0.32342
5440.99051,0.32418
5439.06177,0.32482
5437.13302,0.32656
5435.20428,0.32849
5433.27553,0.32904
5431.34679,0.32868
5429.41804,0.32868
5427.48929,0.32938
5425.56055,0.33041
5423.63180,0.33192
5421.70306,0.33393
5419.77431,0.33541
5417.84557,0.33578
5415.91682,0.33568
5413.98808,0.33571
5412.05933,0.33583
5410.13059,0.33584
5408.20184,0.33581
5406.27310,0.33598
5404.34435,0.33672
5402.41561,0.33777
5400.48686,0.33787
5398.55811,0.33697
5396.62937,0.33666
5394.70062,0.33746
5392.77188,0.33854
5390.84313,0.33939
5388.91439,0.34013
5386.98564,0.34061
5385.05690,0.34051
5383.12815,0.34020
5381.19941,0.34040
5379.27066,0.34107
5377.34192,0.34173
5375.41317,0.34263
5373.48443,0.34416
5371.55568,0.34554
5369.62694,0.34607
5367.69819,0.34645
5365.76944,0.34739
5363.84070,0.34859
5361.91195,0.34956
5359.98321,0.35009
5358.05446,0.35030
5356.12572,0.35020
5354.19697,0.35004
5352.26823,0.35049
5350.33948,0.35118
5348.41074,0.35122
5346.48199,0.35085
5344.55325,0.35110
5342.62450,0.35242
5340.69576,0.35349
5338.76701,0.35353
5336.83827,0.35402
5334.90952,0.35534
5332.98077,0.35575
5331.05203,0.35494
5329.12328,0.35420
5327.19454,0.35445
5325.26579,0.35563
5323.33705,0.35654
5321.40830,0.35681
5319.47956,0.35720
5317.55081,0.35773
5315.62207,0.35866
5313.69332,0.36004
5311.76458,0.36050
5309.83583,0.36009
5307.90709,0.36006
5305.97834,0.36006
5304.04959,0.35975
5302.12085,0.35969
5300.19210,0.35980
5298.26336,0.35996
5296.33461,0.36019
5294.40587,0.36025
5292.47712,0.35988
5290.54838,0.35892
5288.61963,0.35765
5286.69089,0.35645
5284.76214,0.35560
5282.83340,0.35530
5280.90465,0.35494
5278.97591,0.35359
5277.04716,0.35188
5275.11842,0.35093
5273.18967,0.35031
5271.26092,0.34941
5269.33218,0.34847
5267.40343,0.34755
5265.47469,0.34633
5263.54594,0.34474
5261.61720,0.34363
5259.68845,0.34382
5257.75971,0.34473
5255.83096,0.34543
5253.90222,0.34567
5251.97347,0.34565
5250.04473,0.34578
5248.11598,0.34614
5246.18724,0.34648
5244.25849,0.34681
5242.32975,0.34703
5240.40100,0.34712
5238.47225,0.34766
5236.54351,0.34874
5234.61476,0.34957
5232.68602,0.34983
5230.75727,0.35006
5228.82853,0.35071
5226.89978,0.35144
5224.97104,0.35159
5223.04229,0.35100
5221.11355,0.35009
5219.18480,0.34952
5217.25606,0.34969
5215.32731,0.35062
5213.39857,0.35162
5211.46982,0.35135
5209.54107,0.34999
5207.61233,0.34937
5205.68358,0.35010
5203.75484,0.35081
5201.82609,0.35056
5199.89735,0.35015
5197.96860,0.34996
5196.03986,0.34932
5194.11111,0.34878
5192.18237,0.34915
5190.25362,0.34933
5188.32488,0.34846
5186.39613,0.34789
5184.46739,0.34856
5182.53864,0.34930
5180.60990,0.34906
5178.68115,0.34845
5176.75240,0.34845
5174.82366,0.34907
5172.89491,0.34960
5170.96617,0.34935
5169.03742,0.34849
5167.10868,0.34804
5165.17993,0.34837
5163.25119,0.34892
5161.32244,0.34933
5159.39370,0.34956
5157.46495,0.34957
5155.53621,0.34934
5153.60746,0.34908
5151.67872,0.34893
5149.74997,0.34869
5147.82123,0.34830
5145.89248,0.34794
5143.96373,0.34758
5142.03499,0.34727
5140.10624,0.34712
5138.17750,0.34699
5136.24875,0.34707
5134.32001,0.34716
5132.39126,0.34654
5130.46252,0.34564
5128.53377,0.34522
5126.60503,0.34519
5124.67628,0.34518
5122.74754,0.34476
5120.81879,0.34429
5118.89005,0.34443
5116.96130,0.34455
5115.03255,0.34403
5113.10381,0.34364
5111.17506,0.34381
5109.24632,0.34409
5107.31757,0.34463
5105.38883,0.34531
5103.46008,0.34544
5101.53134,0.34522
5099.60259,0.34511
5097.67385,0.34505
5095.74510,0.34533
5093.81636,0.34607
5091.88761,0.34654
5089.95887,0.34664
5088.03012,0.34720
5086.10138,0.34803
5084.17263,0.34830
5082.24388,0.34811
5080.31514,0.34816
5078.38639,0.34869
5076.45765,0.34945
5074.52890,0.34980
5072.60016,0.34968
5070.67141,0.35004
5068.74267,0.35106
5066.81392,0.35208
5064.88518,0.35293
5062.95643,0.35365
5061.02769,0.35399
5059.09894,0.35381
5057.17020,0.35348
5055.24145,0.35336
5053.31270,0.35322
5051.38396,0.35299
5049.45521,0.35302
5047.52647,0.35334
5045.59772,0.35372
5043.66898,0.35414
5041.74023,0.35450
5039.81149,0.35478
5037.88274,0.35498
5035.95400,0.35508
5034.02525,0.35521
5032.09651,0.35503
5030.16776,0.35428
5028.23902,0.35410
5026.31027,0.35506
5024.38153,0.35582
5022.45278,0.35572
5020.52403,0.35574
5018.59529,0.35613
5016.66654,0.35594
5014.73780,0.35513
5012.80905,0.35471
5010.88031,0.35499
5008.95156,0.35510
5007.02282,0.35437
5005.09407,0.35319
5003.16533,0.35240
5001.23658,0.35248
4999.30784,0.35299
4997.37909,0.35300
4995.45035,0.35251
4993.52160,0.35246
4991.59286,0.35297
4989.66411,0.35313
4987.73536,0.35321
4985.80662,0.35392
4983.87787,0.35436
4981.94913,0.35384
4980.02038,0.35339
4978.09164,0.35385
4976.16289,0.35464
4974.23415,0.35506
4972.30540,0.35505
4970.37666,0.35466
4968.44791,0.35408
4966.51917,0.35385
4964.59042,0.35434
4962.66168,0.35528
4960.73293,0.35593
4958.80418,0.35593
4956.87544,0.35572
4954.94669,0.35547
4953.01795,0.35479
4951.08920,0.35416
4949.16046,0.35434
4947.23171,0.35462
4945.30297,0.35416
4943.37422,0.35364
4941.44548,0.35358
4939.51673,0.35358
4937.58799,0.35366
4935.65924,0.35401
4933.73050,0.35417
4931.80175,0.35372
4929.87301,0.35297
4927.94426,0.35253
4926.01551,0.35262
4924.08677,0.35282
4922.15802,0.35277
4920.22928,0.35272
4918.30053,0.35282
4916.37179,0.35287
4914.44304,0.35309
4912.51430,0.35358
4910.58555,0.35396
4908.65681,0.35386
4906.72806,0.35319
4904.79932,0.35239
4902.87057,0.35230
4900.94183,0.35310
4899.01308,0.35370
4897.08434,0.35348
4895.15559,0.35321
4893.22684,0.35338
4891.29810,0.35369
4889.36935,0.35356
4887.44061,0.35304
4885.51186,0.35284
4883.58312,0.35295
4881.65437,0.35292
4879.72563,0.35296
4877.79688,0.35316
4875.86814,0.35325
4873.93939,0.35320
4872.01065,0.35304
4870.08190,0.35289
4868.15316,0.35309
4866.22441,0.35341
4864.29566,0.35342
4862.36692,0.35337
4860.43817,0.35363
4858.50943,0.35397
4856.58068,0.35421
4854.65194,0.35425
4852.72319,0.35413
4850.79445,0.35412
4848.86570,0.35408
4846.93696,0.35399
4845.00821,0.35423
4843.07947,0.35478
4841.15072,0.35550
4839.22198,0.35581
4837.29323,0.35530
4835.36449,0.35482
4833.43574,0.35475
4831.50699,0.35456
4829.57825,0.35416
4827.64950,0.35367
4825.72076,0.35298
4823.79201,0.35220
4821.86327,0.35174
4819.93452,0.35154
4818.00578,0.35128
4816.07703,0.35100
4814.14829,0.35065
4812.21954,0.35018
4810.29080,0.35009
4808.36205,0.35015
4806.43331,0.34967
4804.50456,0.34895
4802.57582,0.34843
4800.64707,0.34797
4798.71832,0.34749
4796.78958,0.34720
4794.86083,0.34737
4792.93209,0.34768
4791.00334,0.34747
4789.07460,0.34666
4787.14585,0.34579
4785.21711,0.34549
4783.28836,0.34580
4781.35962,0.34627
4779.43087,0.34643
4777.50213,0.34622
4775.57338,0.34633
4773.64464,0.34703
4771.71589,0.34773
4769.78714,0.34829
4767.85840,0.34892
4765.92965,0.34955
4764.00091,0.35009
4762.07216,0.35044
4760.14342,0.35035
4758.21467,0.34989
4756.28593,0.34941
4754.35718,0.34901
4752.42844,0.34840
4750.49969,0.34745
4748.57095,0.34639
4746.64220,0.34533
4744.71346,0.34401
4742.78471,0.34235
4740.85597,0.34084
4738.92722,0.33993
4736.99847,0.33910
4735.06973,0.33758
4733.14098,0.33523
4731.21224,0.33217
4729.28349,0.32883
4727.35475,0.32572
4725.42600,0.32260
4723.49726,0.31888
4721.56851,0.31468
4719.63977,0.31061
4717.71102,0.30737
4715.78228,0.30540
4713.85353,0.30433
4711.92479,0.30335
4709.99604,0.30233
4708.06729,0.30115
4706.13855,0.29949
4704.20980,0.29732
4702.28106,0.29429
4700.35231,0.28973
4698.42357,0.28396
4696.49482,0.27842
4694.56608,0.27369
4692.63733,0.26921
4690.70859,0.26516
4688.77984,0.26211
4686.85110,0.26006
4684.92235,0.25901
4682.99361,0.25901
4681.06486,0.26011
4679.13612,0.26240
4677.20737,0.26548
4675.27862,0.26881
4673.34988,0.27213
4671.42113,0.27516
4669.49239,0.27776
4667.56364,0.28007
4665.63490,0.28189
4663.70615,0.28284
4661.77741,0.28323
4659.84866,0.28371
4657.91992,0.28433
4655.99117,0.28480
4654.06243,0.28517
4652.13368,0.28517
4650.20494,0.28425
4648.27619,0.28269
4646.34745,0.28108
4644.41870,0.27907
4642.48995,0.27607
4640.56121,0.27206
4638.63246,0.26743
4636.70372,0.26292
4634.77497,0.25936
4632.84623,0.25723
4630.91748,0.25669
4628.98874,0.25789
4627.05999,0.26108
4625.13125,0.26587
4623.20250,0.27133
4621.27376,0.27666
4619.34501,0.28158
4617.41627,0.28616
4615.48752,0.29043
4613.55877,0.29428
4611.63003,0.29729
4609.70128,0.29928
4607.77254,0.30081
4605.84379,0.30225
4603.91505,0.30325
4601.98630,0.30346
4600.05756,0.30327
4598.12881,0.30291
4596.20007,0.30211
4594.27132,0.30106
4592.34258,0.29994
4590.41383,0.29861
4588.48509,0.29717
4586.55634,0.29608
4584.62760,0.29567
4582.69885,0.29562
4580.77010,0.29529
4578.84136,0.29435
4576.91261,0.29310
4574.98387,0.29227
4573.05512,0.29256
4571.12638,0.29413
4569.19763,0.29669
4567.26889,0.29986
4565.34014,0.30314
4563.41140,0.30604
4561.48265,0.30838
4559.55391,0.30985
4557.62516,0.31031
4555.69642,0.31014
4553.76767,0.30962
4551.83893,0.30879
4549.91018,0.30806
4547.98143,0.30773
4546.05269,0.30757
4544.12394,0.30746
4542.19520,0.30735
4540.26645,0.30708
4538.33771,0.30640
4536.40896,0.30535
4534.48022,0.30429
4532.55147,0.30318
4530.62273,0.30187
4528.69398,0.30071
4526.76524,0.29989
4524.83649,0.29885
4522.90775,0.29733
4520.97900,0.29578
4519.05025,0.29424
4517.12151,0.29238
4515.19276,0.29029
4513.26402,0.28833
4511.33527,0.28665
4509.40653,0.28497
4507.47778,0.28290
4505.54904,0.28033
4503.62029,0.27733
4501.69155,0.27418
4499.76280,0.27103
4497.83406,0.26744
4495.90531,0.26335
4493.97657,0.25932
4492.04782,0.25533
4490.11908,0.25122
4488.19033,0.24743
4486.26158,0.24461
4484.33284,0.24295
4482.40409,0.24195
4480.47535,0.24105
4478.54660,0.23952
4476.61786,0.23723
4474.68911,0.23520
4472.76037,0.23377
4470.83162,0.23210
4468.90288,0.22975
4466.97413,0.22718
4465.04539,0.22464
4463.11664,0.22176
4461.18790,0.21834
4459.25915,0.21457
4457.33041,0.21060
4455.40166,0.20649
4453.47291,0.20239
4451.54417,0.19831
4449.61542,0.19395
4447.68668,0.18902
4445.75793,0.18359
4443.82919,0.17827
4441.90044,0.17334
4439.97170,0.16842
4438.04295,0.16360
4436.11421,0.15920
4434.18546,0.15483
4432.25672,0.15000
4430.32797,0.14502
4428.39923,0.14061
4426.47048,0.13680
4424.54173,0.13301
4422.61299,0.12913
4420.68424,0.12548
4418.75550,0.12228
4416.82675,0.11943
4414.89801,0.11649
4412.96926,0.11312
4411.04052,0.10978
4409.11177,0.10712
4407.18303,0.10523
4405.25428,0.10367
4403.32554,0.10202
4401.39679,0.10043
4399.46805,0.09928
4397.53930,0.09866
4395.61056,0.09842
4393.68181,0.09830
4391.75306,0.09797
4389.82432,0.09709
4387.89557,0.09581
4385.96683,0.09465
4384.03808,0.09339
4382.10934,0.09142
4380.18059,0.08898
4378.25185,0.08692
4376.32310,0.08511
4374.39436,0.08288
4372.46561,0.08047
4370.53687,0.07856
4368.60812,0.07700
4366.67938,0.07513
4364.75063,0.07296
4362.82189,0.07108
4360.89314,0.06979
4358.96439,0.06894
4357.03565,0.06815
4355.10690,0.06701
4353.17816,0.06576
4351.24941,0.06482
4349.32067,0.06421
4347.39192,0.06360
4345.46318,0.06267
4343.53443,0.06157
4341.60569,0.06075
4339.67694,0.06020
4337.74820,0.05956
4335.81945,0.05888
4333.89071,0.05854
4331.96196,0.05859
4330.03321,0.05874
4328.10447,0.05921
4326.17572,0.06025
4324.24698,0.06145
4322.31823,0.06258
4320.38949,0.06369
4318.46074,0.06484
4316.53200,0.06633
4314.60325,0.06789
4312.67451,0.06891
4310.74576,0.06957
4308.81702,0.07039
4306.88827,0.07121
4304.95953,0.07158
4303.03078,0.07154
4301.10204,0.07140
4299.17329,0.07133
4297.24454,0.07124
4295.31580,0.07112
4293.38705,0.07128
4291.45831,0.07162
4289.52956,0.07155
4287.60082,0.07125
4285.67207,0.07109
4283.74333,0.07092
4281.81458,0.07072
4279.88584,0.07071
4277.95709,0.07069
4276.02835,0.07063
4274.09960,0.07096
4272.17086,0.07159
4270.24211,0.07196
4268.31336,0.07213
4266.38462,0.07253
4264.45587,0.07306
4262.52713,0.07342
4260.59838,0.07359
4258.66964,0.07382
4256.74089,0.07399
4254.81215,0.07383
4252.88340,0.07328
4250.95466,0.07263
4249.02591,0.07237
4247.09717,0.07255
4245.16842,0.07269
4243.23968,0.07265
4241.31093,0.07259
4239.38219,0.07242
4237.45344,0.07209
4235.52469,0.07175
4233.59595,0.07163
4231.66720,0.07163
4229.73846,0.07149
4227.80971,0.07119
4225.88097,0.07094
4223.95222,0.07078
4222.02348,0.07050
4220.09473,0.07016
4218.16599,0.07001
4216.23724,0.07011
4214.30850,0.07025
4212.37975,0.07020
4210.45101,0.07013
4208.52226,0.07035
4206.59352,0.07087
4204.66477,0.07148
4202.73602,0.07201
4200.80728,0.07250
4198.87853,0.07296
4196.94979,0.07332
4195.02104,0.07385
4193.09230,0.07462
4191.16355,0.07525
4189.23481,0.07562
4187.30606,0.07591
4185.37732,0.07608
4183.44857,0.07586
4181.51983,0.07539
4179.59108,0.07511
4177.66234,0.07474
4175.73359,0.07393
4173.80484,0.07326
4171.87610,0.07314
4169.94735,0.07329
4168.01861,0.07356
4166.08986,0.07405
4164.16112,0.07483
4162.23237,0.07589
4160.30363,0.07705
4158.37488,0.07812
4156.44614,0.07911
4154.51739,0.08009
4152.58865,0.08099
4150.65990,0.08174
4148.73116,0.08251
4146.80241,0.08336
4144.87367,0.08419
4142.94492,0.08508
4141.01617,0.08599
4139.08743,0.08687
4137.15868,0.08788
4135.22994,0.08896
4133.30119,0.08987
4131.37245,0.09059
4129.44370,0.09119
4127.51496,0.09164
4125.58621,0.09181
4123.65747,0.09157
4121.72872,0.09094
4119.79998,0.09030
4117.87123,0.08991
4115.94249,0.08956
4114.01374,0.08896
4112.08500,0.08808
4110.15625,0.08730
4108.22750,0.08677
4106.29876,0.08633
4104.37001,0.08592
4102.44127,0.08542
4100.51252,0.08464
4098.58378,0.08341
4096.65503,0.08181
4094.72629,0.08037
4092.79754,0.07924
4090.86880,0.07793
4088.94005,0.07626
4087.01131,0.07462
4085.08256,0.07346
4083.15382,0.07291
4081.22507,0.07296
4079.29632,0.07365
4077.36758,0.07492
4075.43883,0.07666
4073.51009,0.07857
4071.58134,0.08033
4069.65260,0.08171
4067.72385,0.08292
4065.79511,0.08438
4063.86636,0.08598
4061.93762,0.08747
4060.00887,0.08899
4058.08013,0.09032
4056.15138,0.09132
4054.22264,0.09238
4052.29389,0.09360
4050.36515,0.09451
4048.43640,0.09483
4046.50765,0.09504
4044.57891,0.09551
4042.65016,0.09589
4040.72142,0.09604
4038.79267,0.09631
4036.86393,0.09684
4034.93518,0.09740
4033.00644,0.09754
4031.07769,0.09714
4029.14895,0.09667
4027.22020,0.09643
4025.29146,0.09639
4023.36271,0.09658
4021.43397,0.09704
4019.50522,0.09761
4017.57648,0.09796
4015.64773,0.09817
4013.71898,0.09856
4011.79024,0.09923
4009.86149,0.10004
4007.93275,0.10081
4006.00400,0.10140
4004.07526,0.10196
4002.14651,0.10272
4000.21777,0.10377
3998.28902,0.10493
3996.36028,0.10611
3994.43153,0.10726
3992.50279,0.10830
3990.57404,0.10915
3988.64530,0.10998
3986.71655,0.11105
3984.78780,0.11219
3982.85906,0.11312
3980.93031,0.11390
3979.00157,0.11456
3977.07282,0.11512
3975.14408,0.11573
3973.21533,0.11638
3971.28659,0.11695
3969.35784,0.11732
3967.42910,0.11756
3965.50035,0.11784
3963.57161,0.11801
3961.64286,0.11802
3959.71412,0.11818
3957.78537,0.11848
3955.85663,0.11863
3953.92788,0.11848
3951.99913,0.11819
3950.07039,0.11807
3948.14164,0.11808
3946.21290,0.11809
3944.28415,0.11827
3942.35541,0.11860
3940.42666,0.11883
3938.49792,0.11880
3936.56917,0.11888
3934.64043,0.11929
3932.71168,0.11965
3930.78294,0.12003
3928.85419,0.12072
3926.92545,0.12133
3924.99670,0.12150
3923.06795,0.12149
3921.13921,0.12154
3919.21046,0.12165
3917.28172,0.12185
3915.35297,0.12225
3913.42423,0.12285
3911.49548,0.12371
3909.56674,0.12461
3907.63799,0.12523
3905.70925,0.12574
3903.78050,0.12632
3901.85176,0.12674
3899.92301,0.12695
3897.99427,0.12723
3896.06552,0.12778
3894.13678,0.12856
3892.20803,0.12945
3890.27928,0.13026
3888.35054,0.13089
3886.42179,0.13122
3884.49305,0.13143
3882.56430,0.13162
3880.63556,0.13168
3878.70681,0.13193
3876.77807,0.13256
3874.84932,0.13298
3872.92058,0.13303
3870.99183,0.13309
3869.06309,0.13326
3867.13434,0.13348
3865.20560,0.13374
3863.27685,0.13381
3861.34811,0.13357
3859.41936,0.13330
3857.49061,0.13327
3855.56187,0.13343
3853.63312,0.13350
3851.70438,0.13346
3849.77563,0.13362
3847.84689,0.13396
3845.91814,0.13440
3843.98940,0.13499
3842.06065,0.13565
3840.13191,0.13631
3838.20316,0.13704
3836.27442,0.13749
3834.34567,0.13755
3832.41693,0.13776
3830.48818,0.13824
3828.55943,0.13870
3826.63069,0.13903
3824.70194,0.13930
3822.77320,0.13984
3820.84445,0.14079
3818.91571,0.14155
3816.98696,0.14178
3815.05822,0.14207
3813.12947,0.14276
3811.20073,0.14344
3809.27198,0.14386
3807.34324,0.14416
3805.41449,0.14452
3803.48575,0.14484
3801.55700,0.14496
3799.62826,0.14531
3797.69951,0.14638
3795.77076,0.14790
3793.84202,0.14926
3791.91327,0.15021
3789.98453,0.15099
3788.05578,0.15179
3786.12704,0.15234
3784.19829,0.15249
3782.26955,0.15255
3780.34080,0.15303
3778.41206,0.15369
3776.48331,0.15382
3774.55457,0.15353
3772.62582,0.15330
3770.69708,0.15313
3768.76833,0.15294
3766.83959,0.15290
3764.91084,0.15290
3762.98209,0.15266
3761.05335,0.15212
3759.12460,0.15147
3757.19586,0.15117
3755.26711,0.15145
3753.33837,0.15208
3751.40962,0.15317
3749.48088,0.15476
3747.55213,0.15620
3745.62339,0.15720
3743.69464,0.15797
3741.76590,0.15862
3739.83715,0.15929
3737.90841,0.16002
3735.97966,0.16036
3734.05091,0.16032
3732.12217,0.16051
3730.19342,0.16118
3728.26468,0.16209
3726.33593,0.16308
3724.40719,0.16415
3722.47844,0.16515
3720.54970,0.16558
3718.62095,0.16511
3716.69221,0.16409
3714.76346,0.16287
3712.83472,0.16142
3710.90597,0.15943
3708.97723,0.15701
3707.04848,0.15460
3705.11974,0.15215
3703.19099,0.14918
3701.26224,0.14542
3699.33350,0.14125
3697.40475,0.13705
3695.47601,0.13281
3693.54726,0.12850
3691.61852,0.12398
3689.68977,0.11912
3687.76103,0.11449
3685.83228,0.11092
3683.90354,0.10839
3681.97479,0.10663
3680.04605,0.10552
3678.11730,0.10463
3676.18856,0.10354
3674.25981,0.10280
3672.33107,0.10307
3670.40232,0.10386
3668.47357,0.10441
3666.54483,0.10473
3664.61608,0.10507
3662.68734,0.10532
3660.75859,0.10554
3658.82985,0.10597
3656.90110,0.10664
3654.97236,0.10727
3653.04361,0.10780
3651.11487,0.10822
3649.18612,0.10841
3647.25738,0.10839
3645.32863,0.10816
3643.39989,0.10776
3641.47114,0.10745
3639.54239,0.10727
3637.61365,0.10688
3635.68490,0.10632
3633.75616,0.10589
3631.82741,0.10531
3629.89867,0.10424
3627.96992,0.10299
3626.04118,0.10191
3624.11243,0.10099
3622.18369,0.10010
3620.25494,0.09898
3618.32620,0.09775
3616.39745,0.09685
3614.46871,0.09625
3612.53996,0.09577
3610.61122,0.09537
3608.68247,0.09493
3606.75372,0.09427
3604.82498,0.09342
3602.89623,0.09254
3600.96749,0.09174
3599.03874,0.09110
3597.11000,0.09056
3595.18125,0.08997
3593.25251,0.08932
3591.32376,0.08874
3589.39502,0.08815
3587.46627,0.08735
3585.53753,0.08648
3583.60878,0.08584
3581.68004,0.08535
3579.75129,0.08491
3577.82254,0.08450
3575.89380,0.08392
3573.96505,0.08306
3572.03631,0.08217
3570.10756,0.08120
3568.17882,0.07989
3566.25007,0.07853
3564.32133,0.07763
3562.39258,0.07702
3560.46384,0.07630
3558.53509,0.07535
3556.60635,0.07423
3554.67760,0.07332
3552.74886,0.07298
3550.82011,0.07303
3548.89137,0.07302
3546.96262,0.07280
3545.03387,0.07251
3543.10513,0.07232
3541.17638,0.07211
3539.24764,0.07179
3537.31889,0.07150
3535.39015,0.07133
3533.46140,0.07126
3531.53266,0.07114
3529.60391,0.07083
3527.67517,0.07052
3525.74642,0.07052
3523.81768,0.07092
3521.88893,0.07115
3519.96019,0.07083
3518.03144,0.07038
3516.10270,0.07016
3514.17395,0.07003
3512.24520,0.06995
3510.31646,0.06999
3508.38771,0.06976
3506.45897,0.06919
3504.53022,0.06906
3502.60148,0.06958
3500.67273,0.06995
3498.74399,0.06981
3496.81524,0.06950
3494.88650,0.06924
3492.95775,0.06908
3491.02901,0.06907
3489.10026,0.06878
3487.17152,0.06812
3485.24277,0.06762
3483.31402,0.06731
3481.38528,0.06703
3479.45653,0.06690
3477.52779,0.06683
3475.59904,0.06655
3473.67030,0.06611
3471.74155,0.06569
3469.81281,0.06543
3467.88406,0.06526
3465.95532,0.06478
3464.02657,0.06393
3462.09783,0.06316
3460.16908,0.06262
3458.24034,0.06214
3456.31159,0.06159
3454.38285,0.06090
3452.45410,0.06003
3450.52535,0.05923
3448.59661,0.05874
3446.66786,0.05847
3444.73912,0.05816
3442.81037,0.05749
3440.88163,0.05648
3438.95288,0.05545
3437.02414,0.05446
3435.09539,0.05368
3433.16665,0.05322
3431.23790,0.05276
3429.30916,0.05205
3427.38041,0.05120
3425.45167,0.05059
3423.52292,0.05037
3421.59418,0.05032
3419.66543,0.05051
3417.73668,0.05077
3415.80794,0.05076
3413.87919,0.05061
3411.95045,0.05074
3410.02170,0.05107
3408.09296,0.05140
3406.16421,0.05166
3404.23547,0.05171
3402.30672,0.05171
3400.37798,0.05211
3398.44923,0.05286
3396.52049,0.05346
3394.59174,0.05364
3392.66300,0.05364
3390.73425,0.05394
3388.80550,0.05455
3386.87676,0.05507
3384.94801,0.05515
3383.01927,0.05510
3381.09052,0.05545
3379.16178,0.05613
3377.23303,0.05664
3375.30429,0.05678
3373.37554,0.05677
3371.44680,0.05695
3369.51805,0.05743
3367.58931,0.05777
3365.66056,0.05758
3363.73182,0.05720
3361.80307,0.05710
3359.87433,0.05736
3357.94558,0.05767
3356.01683,0.05771
3354.08809,0.05758
3352.15934,0.05780
3350.23060,0.05831
3348.30185,0.05842
3346.37311,0.05790
3344.44436,0.05740
3342.51562,0.05747
3340.58687,0.05764
3338.65813,0.05740
3336.72938,0.05690
3334.80064,0.05659
3332.87189,0.05664
3330.94315,0.05667
3329.01440,0.05638
3327.08566,0.05605
3325.15691,0.05604
3323.22816,0.05629
3321.29942,0.05628
3319.37067,0.05593
3317.44193,0.05594
3315.51318,0.05645
3313.58444,0.05689
3311.65569,0.05696
3309.72695,0.05682
3307.79820,0.05677
3305.86946,0.05685
3303.94071,0.05698
3302.01197,0.05710
3300.08322,0.05700
3298.15448,0.05672
3296.22573,0.05675
3294.29698,0.05714
3292.36824,0.05723
3290.43949,0.05714
3288.51075,0.05764
3286.58200,0.05824
3284.65326,0.05815
3282.72451,0.05811
3280.79577,0.05879
3278.86702,0.05937
3276.93828,0.05931
3275.00953,0.05915
3273.08079,0.05945
3271.15204,0.06008
3269.22330,0.06053
3267.29455,0.06069
3265.36581,0.06081
3263.43706,0.06100
3261.50831,0.06119
3259.57957,0.06121
3257.65082,0.06095
3255.72208,0.06062
3253.79333,0.06027
3251.86459,0.06012
3249.93584,0.06060
3248.00710,0.06123
3246.07835,0.06117
3244.14961,0.06044
3242.22086,0.05958
3240.29212,0.05914
3238.36337,0.05938
3236.43463,0.05954
3234.50588,0.05886
3232.57713,0.05809
3230.64839,0.05765
3228.71964,0.05695
3226.79090,0.05631
3224.86215,0.05625
3222.93341,0.05640
3221.00466,0.05646
3219.07592,0.05615
3217.14717,0.05531
3215.21843,0.05478
3213.28968,0.05519
3211.36094,0.05578
3209.43219,0.05580
3207.50345,0.05572
3205.57470,0.05592
3203.64596,0.05601
3201.71721,0.05585
3199.78846,0.05562
3197.85972,0.05543
3195.93097,0.05547
3194.00223,0.05579
3192.07348,0.05618
3190.14474,0.05635
3188.21599,0.05622
3186.28725,0.05614
3184.35850,0.05647
3182.42976,0.05704
3180.50101,0.05737
3178.57227,0.05738
3176.64352,0.05739
3174.71478,0.05754
3172.78603,0.05770
3170.85729,0.05776
3168.92854,0.05771
3166.99979,0.05766
3165.07105,0.05775
3163.14230,0.05795
3161.21356,0.05806
3159.28481,0.05814
3157.35607,0.05826
3155.42732,0.05828
3153.49858,0.05828
3151.56983,0.05827
3149.64109,0.05804
3147.71234,0.05774
3145.78360,0.05776
3143.85485,0.05790
3141.92611,0.05778
3139.99736,0.05755
3138.06861,0.05741
3136.13987,0.05732
3134.21112,0.05726
3132.28238,0.05705
3130.35363,0.05659
3128.42489,0.05626
3126.49614,0.05628
3124.56740,0.05628
3122.63865,0.05611
3120.70991,0.05606
3118.78116,0.05620
3116.85242,0.05637
3114.92367,0.05634
3112.99493,0.05618
3111.06618,0.05602
3109.13744,0.05555
3107.20869,0.05470
3105.27994,0.05400
3103.35120,0.05383
3101.42245,0.05378
3099.49371,0.05343
3097.56496,0.05291
3095.63622,0.05260
3093.70747,0.05258
3091.77873,0.05261
3089.84998,0.05252
3087.92124,0.05243
3085.99249,0.05219
3084.06375,0.05151
3082.13500,0.05065
3080.20626,0.05023
3078.27751,0.05047
3076.34877,0.05080
3074.42002,0.05065
3072.49127,0.05015
3070.56253,0.04958
3068.63378,0.04915
3066.70504,0.04897
3064.77629,0.04883
3062.84755,0.04857
3060.91880,0.04829
3058.99006,0.04818
3057.06131,0.04830
3055.13257,0.04854
3053.20382,0.04865
3051.27508,0.04867
3049.34633,0.04868
3047.41759,0.04860
3045.48884,0.04856
3043.56009,0.04866
3041.63135,0.04875
3039.70260,0.04874
3037.77386,0.04870
3035.84511,0.04867
3033.91637,0.04856
3031.98762,0.04833
3030.05888,0.04801
3028.13013,0.04761
3026.20139,0.04726
3024.27264,0.04705
3022.34390,0.04678
3020.41515,0.04636
3018.48641,0.04603
3016.55766,0.04603
3014.62892,0.04622
3012.70017,0.04624
3010.77142,0.04596
3008.84268,0.04553
3006.91393,0.04529
3004.98519,0.04524
3003.05644,0.04500
3001.12770,0.04460
2999.19895,0.04439
2997.27021,0.04435
2995.34146,0.04431
2993.41272,0.04433
2991.48397,0.04438
2989.55523,0.04437
2987.62648,0.04431
2985.69774,0.04414
2983.76899,0.04381
2981.84025,0.04359
2979.91150,0.04350
2977.98275,0.04345
2976.05401,0.04355
2974.12526,0.04375
2972.19652,0.04388
2970.26777,0.04385
2968.33903,0.04376
2966.41028,0.04393
2964.48154,0.04431
2962.55279,0.04442
2960.62405,0.04426
2958.69530,0.04422
2956.76656,0.04435
2954.83781,0.04445
2952.90907,0.04450
2950.98032,0.04457
2949.05157,0.04476
2947.12283,0.04500
2945.19408,0.04511
2943.26534,0.04507
2941.33659,0.04499
2939.40785,0.04493
2937.47910,0.04489
2935.55036,0.04503
2933.62161,0.04544
2931.69287,0.04596
2929.76412,0.04637
2927.83538,0.04656
2925.90663,0.04659
2923.97789,0.04677
2922.04914,0.04723
2920.12040,0.04779
2918.19165,0.04825
2916.26290,0.04833
2914.33416,0.04806
2912.40541,0.04800
2910.47667,0.04820
2908.54792,0.04818
2906.61918,0.04799
2904.69043,0.04800
2902.76169,0.04811
2900.83294,0.04807
2898.90420,0.04792
2896.97545,0.04780
2895.04671,0.04767
2893.11796,0.04758
2891.18922,0.04752
2889.26047,0.04746
2887.33172,0.04752
2885.40298,0.04763
2883.47423,0.04766
2881.54549,0.04759
2879.61674,0.04749
2877.68800,0.04748
2875.75925,0.04751
2873.83051,0.04755
2871.90176,0.04778
2869.97302,0.04811
2868.04427,0.04825
2866.11553,0.04828
2864.18678,0.04848
2862.25804,0.04880
2860.32929,0.04902
2858.40055,0.04914
2856.47180,0.04929
2854.54305,0.04948
2852.61431,0.04973
2850.68556,0.05008
2848.75682,0.05033
2846.82807,0.05030
2844.89933,0.05013
2842.97058,0.04997
2841.04184,0.04981
2839.11309,0.04965
2837.18435,0.04950
2835.25560,0.04941
2833.32686,0.04949
2831.39811,0.04974
2829.46937,0.04987
2827.54062,0.04966
2825.61188,0.04936
2823.68313,0.04926
2821.75438,0.04928
2819.82564,0.04920
2817.89689,0.04914
2815.96815,0.04932
2814.03940,0.04956
2812.11066,0.04971
2810.18191,0.04991
2808.25317,0.05003
2806.32442,0.04983
2804.39568,0.04958
2802.46693,0.04959
2800.53819,0.04981
2798.60944,0.05014
2796.68070,0.05038
2794.75195,0.05041
2792.82320,0.05051
2790.89446,0.05089
2788.96571,0.05128
2787.03697,0.05161
2785.10822,0.05194
2783.17948,0.05223
2781.25073,0.05253
2779.32199,0.05289
2777.39324,0.05318
2775.46450,0.05324
2773.53575,0.05319
2771.60701,0.05329
2769.67826,0.05350
2767.74952,0.05366
2765.82077,0.05391
2763.89203,0.05424
2761.96328,0.05432
2760.03453,0.05413
2758.10579,0.05396
2756.17704,0.05393
2754.24830,0.05391
2752.31955,0.05377
2750.39081,0.05363
2748.46206,0.05353
2746.53332,0.05338
2744.60457,0.05330
2742.67583,0.05318
2740.74708,0.05286
2738.81834,0.05255
2736.88959,0.05247
2734.96085,0.05255
2733.03210,0.05268
2731.10336,0.05290
2729.17461,0.05329
2727.24586,0.05375
2725.31712,0.05422
2723.38837,0.05478
2721.45963,0.05536
2719.53088,0.05585
2717.60214,0.05634
2715.67339,0.05687
2713.74465,0.05730
2711.81590,0.05764
2709.88716,0.05803
2707.95841,0.05833
2706.02967,0.05846
2704.10092,0.05849
2702.17218,0.05857
2700.24343,0.05885
2698.31468,0.05924
2696.38594,0.05950
2694.45719,0.05965
2692.52845,0.05977
2690.59970,0.05983
2688.67096,0.05981
2686.74221,0.05985
2684.81347,0.06002
2682.88472,0.06024
2680.95598,0.06024
2679.02723,0.05994
2677.09849,0.05957
2675.16974,0.05933
2673.24100,0.05922
2671.31225,0.05919
2669.38351,0.05928
2667.45476,0.05953
2665.52601,0.05993
2663.59727,0.06035
2661.66852,0.06077
2659.73978,0.06121
2657.81103,0.06164
2655.88229,0.06200
2653.95354,0.06229
2652.02480,0.06264
2650.09605,0.06292
2648.16731,0.06289
2646.23856,0.06278
2644.30982,0.06279
2642.38107,0.06272
2640.45233,0.06239
2638.52358,0.06179
2636.59484,0.06103
2634.66609,0.06024
2632.73734,0.05947
2630.80860,0.05876
2628.87985,0.05820
2626.95111,0.05784
2625.02236,0.05753
2623.09362,0.05719
2621.16487,0.05688
2619.23613,0.05665
2617.30738,0.05648
2615.37864,0.05622
2613.44989,0.05588
2611.52115,0.05561
2609.59240,0.05536
2607.66366,0.05497
2605.73491,0.05455
2603.80616,0.05422
2601.87742,0.05413
2599.94867,0.05426
2598.01993,0.05420
2596.09118,0.05396
2594.16244,0.05388
2592.23369,0.05381
2590.30495,0.05363
2588.37620,0.05353
2586.44746,0.05353
2584.51871,0.05358
2582.58997,0.05356
2580.66122,0.05335
2578.73248,0.05308
2576.80373,0.05297
2574.87499,0.05307
2572.94624,0.05331
2571.01749,0.05361
2569.08875,0.05372
2567.16000,0.05356
2565.23126,0.05331
2563.30251,0.05309
2561.37377,0.05302
2559.44502,0.05313
2557.51628,0.05318
2555.58753,0.05305
2553.65879,0.05294
2551.73004,0.05298
2549.80130,0.05310
2547.87255,0.05325
2545.94381,0.05326
2544.01506,0.05298
2542.08631,0.05264
2540.15757,0.05245
2538.22882,0.05233
2536.30008,0.05221
2534.37133,0.05202
2532.44259,0.05168
2530.51384,0.05130
2528.58510,0.05101
2526.65635,0.05094
2524.72761,0.05105
2522.79886,0.05106
2520.87012,0.05091
2518.94137,0.05081
2517.01263,0.05088
2515.08388,0.05099
2513.15514,0.05092
2511.22639,0.05075
2509.29764,0.05082
2507.36890,0.05124
2505.44015,0.05183
2503.51141,0.05227
2501.58266,0.05237
2499.65392,0.05249
2497.72517,0.05299
2495.79643,0.05367
2493.86768,0.05428
2491.93894,0.05476
2490.01019,0.05532
2488.08145,0.05613
2486.15270,0.05703
2484.22396,0.05782
2482.29521,0.05853
2480.36647,0.05935
2478.43772,0.06033
2476.50897,0.06138
2474.58023,0.06247
2472.65148,0.06356
2470.72274,0.06462
2468.79399,0.06551
2466.86525,0.06619
2464.93650,0.06678
2463.00776,0.06728
2461.07901,0.06780
2459.15027,0.06841
2457.22152,0.06885
2455.29278,0.06892
2453.36403,0.06880
2451.43529,0.06880
2449.50654,0.06901
2447.57779,0.06919
2445.64905,0.06920
2443.72030,0.06911
2441.79156,0.06903
2439.86281,0.06893
2437.93407,0.06873
2436.00532,0.06834
2434.07658,0.06795
2432.14783,0.06779
2430.21909,0.06772
2428.29034,0.06756
2426.36160,0.06721
2424.43285,0.06676
2422.50411,0.06622
2420.57536,0.06567
2418.64662,0.06532
2416.71787,0.06512
2414.78912,0.06487
2412.86038,0.06468
2410.93163,0.06458
2409.00289,0.06434
2407.07414,0.06399
2405.14540,0.06369
2403.21665,0.06340
2401.28791,0.06313
2399.35916,0.06295
2397.43042,0.06279
2395.50167,0.06248
2393.57293,0.06209
2391.64418,0.06180
2389.71544,0.06164
2387.78669,0.06152
2385.85795,0.06137
2383.92920,0.06119
2382.00045,0.06115
2380.07171,0.06126
2378.14296,0.06147
2376.21422,0.06178
2374.28547,0.06216
2372.35673,0.06255
2370.42798,0.06301
2368.49924,0.06354
2366.57049,0.06412
2364.64175,0.06483
2362.71300,0.06552
2360.78426,0.06595
2358.85551,0.06636
2356.92677,0.06704
2354.99802,0.06792
2353.06927,0.06872
2351.14053,0.06926
2349.21178,0.06958
2347.28304,0.06992
2345.35429,0.07053
2343.42555,0.07147
2341.49680,0.07251
2339.56806,0.07340
2337.63931,0.07416
2335.71057,0.07483
2333.78182,0.07543
2331.85308,0.07599
2329.92433,0.07635
2327.99559,0.07625
2326.06684,0.07582
2324.13810,0.07558
2322.20935,0.07583
2320.28060,0.07652
2318.35186,0.07724
2316.42311,0.07770
2314.49437,0.07796
2312.56562,0.07811
2310.63688,0.07819
2308.70813,0.07825
2306.77939,0.07818
2304.85064,0.07788
2302.92190,0.07745
2300.99315,0.07702
2299.06441,0.07645
2297.13566,0.07575
2295.20692,0.07513
2293.27817,0.07455
2291.34943,0.07383
2289.42068,0.07299
2287.49193,0.07208
2285.56319,0.07111
2283.63444,0.07018
2281.70570,0.06948
2279.77695,0.06901
2277.84821,0.06882
2275.91946,0.06902
2273.99072,0.06956
2272.06197,0.07029
2270.13323,0.07104
2268.20448,0.07155
2266.27574,0.07174
2264.34699,0.07188
2262.41825,0.07196
2260.48950,0.07187
2258.56075,0.07178
2256.63201,0.07171
2254.70326,0.07140
2252.77452,0.07071
2250.84577,0.06996
2248.91703,0.06941
2246.98828,0.06883
2245.05954,0.06796
2243.13079,0.06694
2241.20205,0.06611
2239.27330,0.06555
2237.34456,0.06501
2235.41581,0.06443
2233.48707,0.06406
2231.55832,0.06407
2229.62958,0.06438
2227.70083,0.06463
2225.77208,0.06470
2223.84334,0.06482
2221.91459,0.06500
2219.98585,0.06508
2218.05710,0.06510
2216.12836,0.06518
2214.19961,0.06529
2212.27087,0.06526
2210.34212,0.06514
2208.41338,0.06522
2206.48463,0.06582
2204.55589,0.06689
2202.62714,0.06809
2200.69840,0.06916
2198.76965,0.07019
2196.84090,0.07123
2194.91216,0.07214
2192.98341,0.07285
2191.05467,0.07359
2189.12592,0.07460
2187.19718,0.07574
2185.26843,0.07672
2183.33969,0.07743
2181.41094,0.07805
2179.48220,0.07866
2177.55345,0.07913
2175.62471,0.07933
2173.69596,0.07945
2171.76722,0.07963
2169.83847,0.07969
2167.90973,0.07952
2165.98098,0.07925
2164.05223,0.07893
2162.12349,0.07849
2160.19474,0.07791
2158.26600,0.07731
2156.33725,0.07678
2154.40851,0.07625
2152.47976,0.07562
2150.55102,0.07490
2148.62227,0.07422
2146.69353,0.07376
2144.76478,0.07350
2142.83604,0.07325
2140.90729,0.07296
2138.97855,0.07274
2137.04980,0.07267
2135.12106,0.07266
2133.19231,0.07277
2131.26356,0.07311
2129.33482,0.07348
2127.40607,0.07374
2125.47733,0.07404
2123.54858,0.07447
2121.61984,0.07490
2119.69109,0.07528
2117.76235,0.07559
2115.83360,0.07573
2113.90486,0.07575
2111.97611,0.07572
2110.04737,0.07581
2108.11862,0.07611
2106.18988,0.07641
2104.26113,0.07650
2102.33238,0.07640
2100.40364,0.07630
2098.47489,0.07635
2096.54615,0.07643
2094.61740,0.07632
2092.68866,0.07606
2090.75991,0.07586
2088.83117,0.07569
2086.90242,0.07547
2084.97368,0.07522
2083.04493,0.07493
2081.11619,0.07463
2079.18744,0.07440
2077.25870,0.07418
2075.32995,0.07393
2073.40121,0.07376
2071.47246,0.07369
2069.54371,0.07365
2067.61497,0.07368
2065.68622,0.07384
2063.75748,0.07399
2061.82873,0.07406
2059.89999,0.07419
2057.97124,0.07443
2056.04250,0.07474
2054.11375,0.07509
2052.18501,0.07546
2050.25626,0.07582
2048.32752,0.07609
2046.39877,0.07628
2044.47003,0.07650
2042.54128,0.07690
2040.61254,0.07746
2038.68379,0.07798
2036.75504,0.07829
2034.82630,0.07843
2032.89755,0.07863
2030.96881,0.07907
2029.04006,0.07960
2027.11132,0.08003
2025.18257,0.08042
2023.25383,0.08086
2021.32508,0.08126
2019.39634,0.08150
2017.46759,0.08160
2015.53885,0.08158
2013.61010,0.08151
2011.68136,0.08153
2009.75261,0.08161
2007.82386,0.08164
2005.89512,0.08155
2003.96637,0.08127
2002.03763,0.08075
2000.10888,0.08005
1998.18014,0.07933
1996.25139,0.07860
1994.32265,0.07763
1992.39390,0.07648
1990.46516,0.07550
1988.53641,0.07485
1986.60767,0.07446
1984.67892,0.07423
1982.75018,0.07391
1980.82143,0.07329
1978.89269,0.07248
1976.96394,0.07162
1975.03519,0.07073
1973.10645,0.06976
1971.17770,0.06866
1969.24896,0.06736
1967.32021,0.06587
1965.39147,0.06425
1963.46272,0.06258
1961.53398,0.06091
1959.60523,0.05934
1957.67649,0.05796
1955.74774,0.05663
1953.81900,0.05529
1951.89025,0.05423
1949.96151,0.05375
1948.03276,0.05391
1946.10402,0.05458
1944.17527,0.05550
1942.24652,0.05654
1940.31778,0.05772
1938.38903,0.05911
1936.46029,0.06065
1934.53154,0.06211
1932.60280,0.06341
1930.67405,0.06464
1928.74531,0.06582
1926.81656,0.06692
1924.88782,0.06778
1922.95907,0.06829
1921.03033,0.06864
1919.10158,0.06911
1917.17284,0.06950
1915.24409,0.06961
1913.31534,0.06962
1911.38660,0.06961
1909.45785,0.06953
1907.52911,0.06951
1905.60036,0.06962
1903.67162,0.06974
1901.74287,0.06976
1899.81413,0.06975
1897.88538,0.06976
1895.95664,0.06984
1894.02789,0.07001
1892.09915,0.07019
1890.17040,0.07025
1888.24166,0.07026
1886.31291,0.07035
1884.38417,0.07047
1882.45542,0.07048
1880.52667,0.07038
1878.59793,0.07025
1876.66918,0.07004
1874.74044,0.06974
1872.81169,0.06944
1870.88295,0.06913
1868.95420,0.06873
1867.02546,0.06807
1865.09671,0.06718
1863.16797,0.06637
1861.23922,0.06574
1859.31048,0.06503
1857.38173,0.06423
1855.45299,0.06342
1853.52424,0.06244
1851.59549,0.06122
1849.66675,0.05989
1847.73800,0.05871
1845.80926,0.05772
1843.88051,0.05668
1841.95177,0.05562
1840.02302,0.05461
1838.09428,0.05349
1836.16553,0.05227
1834.23679,0.05113
1832.30804,0.05007
1830.37930,0.04903
1828.45055,0.04802
1826.52181,0.04717
1824.59306,0.04658
1822.66432,0.04620
1820.73557,0.04584
1818.80682,0.04547
1816.87808,0.04526
1814.94933,0.04528
1813.02059,0.04540
1811.09184,0.04534
1809.16310,0.04487
1807.23435,0.04409
1805.30561,0.04321
1803.37686,0.04242
1801.44812,0.04187
1799.51937,0.04151
1797.59063,0.04120
1795.66188,0.04105
1793.73314,0.04099
1791.80439,0.04088
1789.87565,0.04078
1787.94690,0.04069
1786.01815,0.04057
1784.08941,0.04047
1782.16066,0.04035
1780.23192,0.04012
1778.30317,0.03990
1776.37443,0.03976
1774.44568,0.03963
1772.51694,0.03924
1770.58819,0.03858
1768.65945,0.03800
1766.73070,0.03766
1764.80196,0.03744
1762.87321,0.03715
1760.94447,0.03657
1759.01572,0.03582
1757.08697,0.03519
1755.15823,0.03475
1753.22948,0.03441
1751.30074,0.03406
1749.37199,0.03369
1747.44325,0.03328
1745.51450,0.03283
1743.58576,0.03247
1741.65701,0.03237
1739.72827,0.03273
1737.79952,0.03371
1735.87078,0.03514
1733.94203,0.03677
1732.01329,0.03853
1730.08454,0.04048
1728.15580,0.04261
1726.22705,0.04470
1724.29830,0.04669
1722.36956,0.04844
1720.44081,0.04981
1718.51207,0.05096
1716.58332,0.05198
1714.65458,0.05266
1712.72583,0.05297
1710.79709,0.05307
1708.86834,0.05312
1706.93960,0.05305
1705.01085,0.05273
1703.08211,0.05229
1701.15336,0.05180
1699.22462,0.05137
1697.29587,0.05121
1695.36713,0.05102
1693.43838,0.05063
1691.50963,0.05033
1689.58089,0.05028
1687.65214,0.05035
1685.72340,0.05030
1683.79465,0.05006
1681.86591,0.04981
1679.93716,0.04950
1678.00842,0.04911
1676.07967,0.04891
1674.15093,0.04898
1672.22218,0.04902
1670.29344,0.04892
1668.36469,0.04884
1666.43595,0.04885
1664.50720,0.04886
1662.57845,0.04886
1660.64971,0.04893
1658.72096,0.04916
1656.79222,0.04950
1654.86347,0.04979
1652.93473,0.04995
1651.00598,0.05017
1649.07724,0.05046
1647.14849,0.05059
1645.21975,0.05048
1643.29100,0.05038
1641.36226,0.05041
1639.43351,0.05049
1637.50477,0.05052
1635.57602,0.05044
1633.64728,0.05038
1631.71853,0.05033
1629.78978,0.05025
1627.86104,0.05020
1625.93229,0.05015
1624.00355,0.05010
1622.07480,0.05002
1620.14606,0.04982
1618.21731,0.04950
1616.28857,0.04905
1614.35982,0.04862
1612.43108,0.04842
1610.50233,0.04831
1608.57359,0.04832
1606.64484,0.04848
1604.71610,0.04853
1602.78735,0.04842
1600.85861,0.04841
1598.92986,0.04858
1597.00111,0.04877
1595.07237,0.04878
1593.14362,0.04871
1591.21488,0.04867
1589.28613,0.04852
1587.35739,0.04810
1585.42864,0.04745
1583.49990,0.04671
1581.57115,0.04596
1579.64241,0.04529
1577.71366,0.04486
1575.78492,0.04493
1573.85617,0.04554
1571.92743,0.04642
1569.99868,0.04746
1568.06993,0.04852
1566.14119,0.04944
1564.21244,0.05018
1562.28370,0.05071
1560.35495,0.05108
1558.42621,0.05143
1556.49746,0.05187
1554.56872,0.05232
1552.63997,0.05272
1550.71123,0.05291
1548.78248,0.05279
1546.85374,0.05252
1544.92499,0.05226
1542.99625,0.05204
1541.06750,0.05173
1539.13876,0.05110
1537.21001,0.05036
1535.28126,0.04959
1533.35252,0.04859
1531.42377,0.04759
1529.49503,0.04699
1527.56628,0.04681
1525.63754,0.04682
1523.70879,0.04689
1521.78005,0.04690
1519.85130,0.04672
1517.92256,0.04646
1515.99381,0.04611
1514.06507,0.04561
1512.13632,0.04522
1510.20758,0.04504
1508.27883,0.04482
1506.35008,0.04450
1504.42134,0.04445
1502.49259,0.04473
1500.56385,0.04517
1498.63510,0.04550
1496.70636,0.04560
1494.77761,0.04551
1492.84887,0.04524
1490.92012,0.04471
1488.99138,0.04406
1487.06263,0.04356
1485.13389,0.04319
1483.20514,0.04281
1481.27640,0.04248
1479.34765,0.04219
1477.41891,0.04195
1475.49016,0.04179
1473.56141,0.04159
1471.63267,0.04130
1469.70392,0.04133
1467.77518,0.04167
1465.84643,0.04179
1463.91769,0.04168
1461.98894,0.04178
1460.06020,0.04208
1458.13145,0.04239
1456.20271,0.04272
1454.27396,0.04309
1452.34522,0.04336
1450.41647,0.04348
1448.48773,0.04358
1446.55898,0.04371
1444.63024,0.04390
1442.70149,0.04415
1440.77274,0.04429
1438.84400,0.04425
1436.91525,0.04409
1434.98651,0.04392
1433.05776,0.04387
1431.12902,0.04386
1429.20027,0.04376
1427.27153,0.04365
1425.34278,0.04354
1423.41404,0.04336
1421.48529,0.04314
1419.55655,0.04292
1417.62780,0.04275
1415.69906,0.04266
1413.77031,0.04260
1411.84156,0.04252
1409.91282,0.04242
1407.98407,0.04232
1406.05533,0.04217
1404.12658,0.04196
1402.19784,0.04176
1400.26909,0.04149
1398.34035,0.04112
1396.41160,0.04080
1394.48286,0.04061
1392.55411,0.04053
1390.62537,0.04051
1388.69662,0.04049
1386.76788,0.04055
1384.83913,0.04063
1382.91039,0.04057
1380.98164,0.04053
1379.05289,0.04071
1377.12415,0.04103
1375.19540,0.04133
1373.26666,0.04152
1371.33791,0.04153
1369.40917,0.04137
1367.48042,0.04117
1365.55168,0.04102
1363.62293,0.04091
1361.69419,0.04073
1359.76544,0.04039
1357.83670,0.04009
1355.90795,0.04015
1353.97921,0.04038
1352.05046,0.04035
1350.12172,0.03997
1348.19297,0.03949
1346.26422,0.03912
1344.33548,0.03903
1342.40673,0.03908
1340.47799,0.03885
1338.54924,0.03836
1336.62050,0.03798
1334.69175,0.03787
1332.76301,0.03804
1330.83426,0.03824
1328.90552,0.03813
1326.97677,0.03778
1325.04803,0.03753
1323.11928,0.03743
1321.19054,0.03738
1319.26179,0.03731
1317.33304,0.03714
1315.40430,0.03685
1313.47555,0.03656
1311.54681,0.03639
1309.61806,0.03620
1307.68932,0.03585
1305.76057,0.03553
1303.83183,0.03541
1301.90308,0.03537
1299.97434,0.03525
1298.04559,0.03510
1296.11685,0.03507
1294.18810,0.03510
1292.25936,0.03511
1290.33061,0.03516
1288.40187,0.03533
1286.47312,0.03554
1284.54437,0.03567
1282.61563,0.03576
1280.68688,0.03595
1278.75814,0.03635
1276.82939,0.03708
1274.90065,0.03816
1272.97190,0.03930
1271.04316,0.04021
1269.11441,0.04085
1267.18567,0.04137
1265.25692,0.04173
1263.32818,0.04180
1261.39943,0.04167
1259.47069,0.04149
1257.54194,0.04137
1255.61320,0.04135
1253.68445,0.04148
1251.75570,0.04193
1249.82696,0.04262
1247.89821,0.04320
1245.96947,0.04366
1244.04072,0.04403
1242.11198,0.04404
1240.18323,0.04374
1238.25449,0.04355
1236.32574,0.04361
1234.39700,0.04373
1232.46825,0.04388
1230.53951,0.04403
1228.61076,0.04403
1226.68202,0.04393
1224.75327,0.04389
1222.82452,0.04392
1220.89578,0.04397
1218.96703,0.04388
1217.03829,0.04366
1215.10954,0.04356
1213.18080,0.04361
1211.25205,0.04361
1209.32331,0.04359
1207.39456,0.04358
1205.46582,0.04354
1203.53707,0.04347
1201.60833,0.04342
1199.67958,0.04321
1197.75084,0.04288
1195.82209,0.04283
1193.89335,0.04310
1191.96460,0.04337
1190.03585,0.04338
1188.10711,0.04306
1186.17836,0.04265
1184.24962,0.04257
1182.32087,0.04282
1180.39213,0.04296
1178.46338,0.04278
1176.53464,0.04238
1174.60589,0.04218
1172.67715,0.04245
1170.74840,0.04292
1168.81966,0.04331
1166.89091,0.04370
1164.96217,0.04414
1163.03342,0.04462
1161.10467,0.04506
1159.17593,0.04541
1157.24718,0.04585
1155.31844,0.04646
1153.38969,0.04712
1151.46095,0.04764
1149.53220,0.04801
1147.60346,0.04840
1145.67471,0.04876
1143.74597,0.04908
1141.81722,0.04956
1139.88848,0.05006
1137.95973,0.05033
1136.03099,0.05062
1134.10224,0.05107
1132.17350,0.05161
1130.24475,0.05224
1128.31600,0.05298
1126.38726,0.05381
1124.45851,0.05455
1122.52977,0.05531
1120.60102,0.05655
1118.67228,0.05812
1116.74353,0.05959
1114.81479,0.06096
1112.88604,0.06215
1110.95730,0.06291
1109.02855,0.06343
1107.09981,0.06433
1105.17106,0.06572
1103.24232,0.06721
1101.31357,0.06840
1099.38483,0.06933
1097.45608,0.07034
1095.52733,0.07113
1093.59859,0.07107
1091.66984,0.07053
1089.74110,0.07042
1087.81235,0.07089
1085.88361,0.07142
1083.95486,0.07168
1082.02612,0.07194
1080.09737,0.07235
1078.16863,0.07288
1076.23988,0.07362
1074.31114,0.07441
1072.38239,0.07504
1070.45365,0.07539
1068.52490,0.07545
1066.59615,0.07546
1064.66741,0.07556
1062.73866,0.07572
1060.80992,0.07581
1058.88117,0.07569
1056.95243,0.07545
1055.02368,0.07516
1053.09494,0.07498
1051.16619,0.07479
1049.23745,0.07424
1047.30870,0.07359
1045.37996,0.07337
1043.45121,0.07346
1041.52247,0.07351
1039.59372,0.07339
1037.66498,0.07309
1035.73623,0.07267
1033.80748,0.07215
1031.87874,0.07157
1029.94999,0.07112
1028.02125,0.07079
1026.09250,0.07019
1024.16376,0.06911
1022.23501,0.06810
1020.30627,0.06782
1018.37752,0.06788
1016.44878,0.06759
1014.52003,0.06691
1012.59129,0.06634
1010.66254,0.06613
1008.73380,0.06590
1006.80505,0.06530
1004.87631,0.06453
1002.94756,0.06384
1001.01881,0.06309
999.09007,0.06237
997.16132,0.06181
995.23258,0.06147
993.30383,0.06145
991.37509,0.06153
989.44634,0.06138
987.51760,0.06104
985.58885,0.06078
983.66011,0.06079
981.73136,0.06087
979.80262,0.06072
977.87387,0.06039
975.94513,0.06029
974.01638,0.06049
972.08763,0.06057
970.15889,0.06049
968.23014,0.06031
966.30140,0.05996
964.37265,0.05968
962.44391,0.05969
960.51516,0.05983
958.58642,0.05994
956.65767,0.06009
954.72893,0.06033
952.80018,0.06052
950.87144,0.06055
948.94269,0.06050
947.01395,0.06039
945.08520,0.06021
943.15646,0.06017
941.22771,0.06021
939.29896,0.06005
937.37022,0.05992
935.44147,0.06007
933.51273,0.06026
931.58398,0.06015
929.65524,0.05980
927.72649,0.05974
925.79775,0.05998
923.86900,0.06000
921.94026,0.05974
920.01151,0.05956
918.08277,0.05960
916.15402,0.05963
914.22528,0.05943
912.29653,0.05903
910.36779,0.05855
908.43904,0.05821
906.51029,0.05812
904.58155,0.05812
902.65280,0.05808
900.72406,0.05801
898.79531,0.05793
896.86657,0.05787
894.93782,0.05771
893.00908,0.05738
891.08033,0.05712
889.15159,0.05693
887.22284,0.05647
885.29410,0.05590
883.36535,0.05576
881.43661,0.05621
879.50786,0.05676
877.57911,0.05690
875.65037,0.05692
873.72162,0.05684
871.79288,0.05615
869.86413,0.05532
867.93539,0.05521
866.00664,0.05547
864.07790,0.05555
862.14915,0.05570
860.22041,0.05582
858.29166,0.05550
856.36292,0.05501
854.43417,0.05484
852.50543,0.05484
850.57668,0.05476
848.64794,0.05458
846.71919,0.05439
844.79044,0.05435
842.86170,0.05448
840.93295,0.05453
839.00421,0.05432
837.07546,0.05420
835.14672,0.05465
833.21797,0.05532
831.28923,0.05554
829.36048,0.05542
827.43174,0.05526
825.50299,0.05504
823.57425,0.05484
821.64550,0.05493
819.71676,0.05519
817.78801,0.05526
815.85926,0.05501
813.93052,0.05478
812.00177,0.05478
810.07303,0.05472
808.14428,0.05458
806.21554,0.05470
804.28679,0.05499
802.35805,0.05511
800.42930,0.05509
798.50056,0.05518
796.57181,0.05526
794.64307,0.05508
792.71432,0.05486
790.78558,0.05491
788.85683,0.05502
786.92809,0.05489
784.99934,0.05480
783.07059,0.05487
781.14185,0.05482
779.21310,0.05460
777.28436,0.05435
775.35561,0.05430
773.42687,0.05436
771.49812,0.05425
769.56938,0.05423
767.64063,0.05447
765.71189,0.05447
763.78314,0.05420
761.85440,0.05418
759.92565,0.05419
757.99691,0.05380
756.06816,0.05360
754.13942,0.05390
752.21067,0.05398
750.28192,0.05368
748.35318,0.05362
746.42443,0.05394
744.49569,0.05435
742.56694,0.05457
740.63820,0.05437
738.70945,0.05375
736.78071,0.05323
734.85196,0.05356
732.92322,0.05459
730.99447,0.05558
729.06573,0.05617
727.13698,0.05620
725.20824,0.05574
723.27949,0.05528
721.35074,0.05508
719.42200,0.05482
717.49325,0.05445
715.56451,0.05405
713.63576,0.05360
711.70702,0.05324
709.77827,0.05309
707.84953,0.05311
705.92078,0.05319
703.99204,0.05335
702.06329,0.05364
700.13455,0.05389
698.20580,0.05393
696.27706,0.05394
694.34831,0.05389
692.41957,0.05352
690.49082,0.05344
688.56207,0.05374
686.63333,0.05356
684.70458,0.05317
682.77584,0.05330
680.84709,0.05342
678.91835,0.05276
676.98960,0.05187
675.06086,0.05153
673.13211,0.05154
671.20337,0.05153
669.27462,0.05161
667.34588,0.05198
665.41713,0.05224
663.48839,0.05165
661.55964,0.05053
659.63090,0.05014
657.70215,0.05061
655.77340,0.05096
653.84466,0.05085
651.91591,0.05092
649.98717,0.05149
648.05842,0.05218
646.12968,0.05261
644.20093,0.05232
642.27219,0.05146
640.34344,0.05077
638.41470,0.05003
636.48595,0.04918
634.55721,0.04940
632.62846,0.05082
630.69972,0.05158
628.77097,0.05078
626.84222,0.04952
624.91348,0.04909
622.98473,0.04960
621.05599,0.04982
619.12724,0.04935
617.19850,0.04907
615.26975,0.04920
613.34101,0.04949
611.41226,0.04982
609.48352,0.04998
607.55477,0.04973
605.62603,0.04920
603.69728,0.04857
601.76854,0.04823
599.83979,0.04887
