7497.03301,0.49791
7495.10426,0.49540
7493.17552,0.49448
7491.24677,0.49893
7489.31803,0.50234
7487.38928,0.49876
7485.46054,0.49293
7483.53179,0.49135
7481.60305,0.49312
7479.67430,0.49218
7477.74556,0.48904
7475.81681,0.48906
7473.88807,0.49168
7471.95932,0.49449
7470.03057,0.49582
7468.10183,0.49665
7466.17308,0.50108
7464.24434,0.50486
7462.31559,0.50155
7460.38685,0.49488
7458.45810,0.48955
7456.52936,0.48725
7454.60061,0.48990
7452.67187,0.49625
7450.74312,0.50164
7448.81438,0.50341
7446.88563,0.50335
7444.95689,0.50367
7443.02814,0.50305
7441.09940,0.50047
7439.17065,0.49739
7437.24190,0.49417
7435.31316,0.49130
7433.38441,0.48947
7431.45567,0.48963
7429.52692,0.49436
7427.59818,0.50183
7425.66943,0.50524
7423.74069,0.50145
7421.81194,0.49465
7419.88320,0.48964
7417.95445,0.48645
7416.02571,0.48556
7414.09696,0.48836
7412.16822,0.49011
7410.23947,0.48701
7408.31073,0.48602
7406.38198,0.49174
7404.45323,0.49565
7402.52449,0.49035
7400.59574,0.48070
7398.66700,0.47470
7396.73825,0.47481
7394.80951,0.48123
7392.88076,0.48938
7390.95202,0.49014
7389.02327,0.48544
7387.09453,0.48497
7385.16578,0.48802
7383.23704,0.48868
7381.30829,0.48790
7379.37955,0.48672
7377.45080,0.48191
7375.52205,0.47423
7373.59331,0.46908
7371.66456,0.46985
7369.73582,0.47260
7367.80707,0.47043
7365.87833,0.46460
7363.94958,0.46255
7362.02084,0.46670
7360.09209,0.47314
7358.16335,0.47795
7356.23460,0.48052
7354.30586,0.48177
7352.37711,0.48083
7350.44837,0.47731
7348.51962,0.47465
7346.59088,0.47381
7344.66213,0.47199
7342.73338,0.47006
7340.80464,0.47056
7338.87589,0.47178
7336.94715,0.47106
7335.01840,0.46911
7333.08966,0.46752
7331.16091,0.46603
7329.23217,0.46470
7327.30342,0.46541
7325.37468,0.46771
7323.44593,0.46790
7321.51719,0.46575
7319.58844,0.46469
7317.65970,0.46520
7315.73095,0.46432
7313.80221,0.46144
7311.87346,0.45900
7309.94471,0.45737
7308.01597,0.45489
7306.08722,0.45273
7304.15848,0.45375
7302.22973,0.45569
7300.30099,0.45458
7298.37224,0.45223
7296.44350,0.45164
7294.51475,0.45240
7292.58601,0.45337
7290.65726,0.45464
7288.72852,0.45487
7286.79977,0.45158
7284.87103,0.44776
7282.94228,0.44788
7281.01353,0.44852
7279.08479,0.44578
7277.15604,0.44270
7275.22730,0.44182
7273.29855,0.44172
7271.36981,0.44113
7269.44106,0.43982
7267.51232,0.43891
7265.58357,0.43922
7263.65483,0.43811
7261.72608,0.43560
7259.79734,0.43593
7257.86859,0.43815
7255.93985,0.43645
7254.01110,0.42848
7252.08236,0.42185
7250.15361,0.42422
7248.22486,0.43033
7246.29612,0.43354
7244.36737,0.43339
7242.43863,0.43119
7240.50988,0.42922
7238.58114,0.42746
7236.65239,0.42503
7234.72365,0.42214
7232.79490,0.41988
7230.86616,0.41947
7228.93741,0.41901
7227.00867,0.41727
7225.07992,0.41536
7223.15118,0.41495
7221.22243,0.41860
7219.29369,0.42465
7217.36494,0.42554
7215.43619,0.41886
7213.50745,0.41300
7211.57870,0.41383
7209.64996,0.41695
7207.72121,0.41828
7205.79247,0.41828
7203.86372,0.41750
7201.93498,0.41695
7200.00623,0.41695
7198.07749,0.41673
7196.14874,0.41752
7194.22000,0.42053
7192.29125,0.42368
7190.36251,0.42493
7188.43376,0.42512
7186.50501,0.42394
7184.57627,0.41970
7182.64752,0.41458
7180.71878,0.41113
7178.79003,0.40814
7176.86129,0.40658
7174.93254,0.40988
7173.00380,0.41672
7171.07505,0.42134
7169.14631,0.42116
7167.21756,0.41851
7165.28882,0.41550
7163.36007,0.41291
7161.43133,0.41137
7159.50258,0.41155
7157.57384,0.41290
7155.64509,0.41390
7153.71634,0.41540
7151.78760,0.41714
7149.85885,0.41653
7147.93011,0.41557
7146.00136,0.41699
7144.07262,0.41811
7142.14387,0.41643
7140.21513,0.41350
7138.28638,0.41261
7136.35764,0.41530
7134.42889,0.41829
7132.50015,0.41871
7130.57140,0.41871
7128.64266,0.41795
7126.71391,0.41392
7124.78516,0.40977
7122.85642,0.40892
7120.92767,0.40971
7118.99893,0.41020
7117.07018,0.41159
7115.14144,0.41436
7113.21269,0.41626
7111.28395,0.41664
7109.35520,0.41635
7107.42646,0.41449
7105.49771,0.41165
7103.56897,0.41117
7101.64022,0.41276
7099.71148,0.41379
7097.78273,0.41538
7095.85399,0.41749
7093.92524,0.41677
7091.99649,0.41374
7090.06775,0.41212
7088.13900,0.41250
7086.21026,0.41204
7084.28151,0.41001
7082.35277,0.40988
7080.42402,0.41203
7078.49528,0.41300
7076.56653,0.41419
7074.63779,0.41626
7072.70904,0.41455
7070.78030,0.41090
7068.85155,0.41095
7066.92281,0.41337
7064.99406,0.41374
7063.06532,0.41196
7061.13657,0.41092
7059.20782,0.40982
7057.27908,0.40776
7055.35033,0.40825
7053.42159,0.41148
7051.49284,0.41385
7049.56410,0.41493
7047.63535,0.41608
7045.70661,0.41662
7043.77786,0.41603
7041.84912,0.41518
7039.92037,0.41467
7037.99163,0.41485
7036.06288,0.41541
7034.13414,0.41613
7032.20539,0.41727
7030.27664,0.41803
7028.34790,0.41707
7026.41915,0.41461
7024.49041,0.41325
7022.56166,0.41482
7020.63292,0.41830
7018.70417,0.42126
7016.77543,0.42065
7014.84668,0.41637
7012.91794,0.41226
7010.98919,0.41047
7009.06045,0.41008
7007.13170,0.41123
7005.20296,0.41394
7003.27421,0.41618
7001.34547,0.41659
6999.41672,0.41458
6997.48797,0.41137
6995.55923,0.41084
6993.63048,0.41418
6991.70174,0.41740
6989.77299,0.41722
6987.84425,0.41625
6985.91550,0.41725
6983.98676,0.41841
6982.05801,0.41872
6980.12927,0.41905
6978.20052,0.41969
6976.27178,0.42153
6974.34303,0.42423
6972.41429,0.42583
6970.48554,0.42673
6968.55680,0.42832
6966.62805,0.43008
6964.69930,0.43044
6962.77056,0.42938
6960.84181,0.42930
6958.91307,0.43087
6956.98432,0.43246
6955.05558,0.43254
6953.12683,0.42993
6951.19809,0.42705
6949.26934,0.42760
6947.34060,0.43028
6945.41185,0.43168
6943.48311,0.43252
6941.55436,0.43565
6939.62562,0.43982
6937.69687,0.44169
6935.76812,0.44011
6933.83938,0.43680
6931.91063,0.43540
6929.98189,0.43673
6928.05314,0.43927
6926.12440,0.44235
6924.19565,0.44461
6922.26691,0.44611
6920.33816,0.44725
6918.40942,0.44593
6916.48067,0.44324
6914.55193,0.44325
6912.62318,0.44560
6910.69444,0.44637
6908.76569,0.44474
6906.83695,0.44339
6904.90820,0.44310
6902.97945,0.44398
6901.05071,0.44742
6899.12196,0.45100
6897.19322,0.45125
6895.26447,0.44900
6893.33573,0.44641
6891.40698,0.44497
6889.47824,0.44454
6887.54949,0.44530
6885.62075,0.44805
6883.69200,0.44970
6881.76326,0.44894
6879.83451,0.45023
6877.90577,0.45381
6875.97702,0.45433
6874.04828,0.45142
6872.11953,0.44969
6870.19078,0.44962
6868.26204,0.44947
6866.33329,0.44959
6864.40455,0.45032
6862.47580,0.45219
6860.54706,0.45432
6858.61831,0.45469
6856.68957,0.45491
6854.76082,0.45594
6852.83208,0.45568
6850.90333,0.45447
6848.97459,0.45303
6847.04584,0.45154
6845.11710,0.45201
6843.18835,0.45401
6841.25960,0.45483
6839.33086,0.45407
6837.40211,0.45353
6835.47337,0.45484
6833.54462,0.45698
6831.61588,0.45651
6829.68713,0.45330
6827.75839,0.45320
6825.82964,0.45805
6823.90090,0.46210
6821.97215,0.46305
6820.04341,0.46230
6818.11466,0.45997
6816.18592,0.45791
6814.25717,0.45726
6812.32843,0.45692
6810.39968,0.45800
6808.47093,0.46150
6806.54219,0.46385
6804.61344,0.46185
6802.68470,0.45843
6800.75595,0.45767
6798.82721,0.45879
6796.89846,0.45914
6794.96972,0.45882
6793.04097,0.46006
6791.11223,0.46246
6789.18348,0.46279
6787.25474,0.46103
6785.32599,0.46077
6783.39725,0.46242
6781.46850,0.46263
6779.53975,0.46117
6777.61101,0.46047
6775.68226,0.46045
6773.75352,0.46126
6771.82477,0.46284
6769.89603,0.46303
6767.96728,0.46232
6766.03854,0.46279
6764.10979,0.46386
6762.18105,0.46385
6760.25230,0.46198
6758.32356,0.45987
6756.39481,0.45982
6754.46607,0.46170
6752.53732,0.46426
6750.60858,0.46664
6748.67983,0.46730
6746.75108,0.46616
6744.82234,0.46642
6742.89359,0.46944
6740.96485,0.47159
6739.03610,0.47016
6737.10736,0.46739
6735.17861,0.46639
6733.24987,0.46703
6731.32112,0.46808
6729.39238,0.47000
6727.46363,0.47254
6725.53489,0.47341
6723.60614,0.47250
6721.67740,0.47192
6719.74865,0.47185
6717.81991,0.47141
6715.89116,0.47064
6713.96241,0.46986
6712.03367,0.46915
6710.10492,0.46814
6708.17618,0.46754
6706.24743,0.46915
6704.31869,0.47130
6702.38994,0.47098
6700.46120,0.46938
6698.53245,0.46899
6696.60371,0.47020
6694.67496,0.47132
6692.74622,0.47072
6690.81747,0.46991
6688.88873,0.47171
6686.95998,0.47540
6685.03123,0.47566
6683.10249,0.47116
6681.17374,0.46866
6679.24500,0.47140
6677.31625,0.47394
6675.38751,0.47242
6673.45876,0.47047
6671.53002,0.47189
6669.60127,0.47515
6667.67253,0.47687
6665.74378,0.47638
6663.81504,0.47521
6661.88629,0.47428
6659.95755,0.47385
6658.02880,0.47344
6656.10006,0.47229
6654.17131,0.47192
6652.24256,0.47357
6650.31382,0.47553
6648.38507,0.47542
6646.45633,0.47376
6644.52758,0.47337
6642.59884,0.47403
6640.67009,0.47424
6638.74135,0.47424
6636.81260,0.47354
6634.88386,0.47304
6632.95511,0.47433
6631.02637,0.47622
6629.09762,0.47708
6627.16888,0.47684
6625.24013,0.47665
6623.31139,0.47723
6621.38264,0.47818
6619.45389,0.47865
6617.52515,0.47827
6615.59640,0.47858
6613.66766,0.47948
6611.73891,0.47815
6609.81017,0.47486
6607.88142,0.47324
6605.95268,0.47478
6604.02393,0.47767
6602.09519,0.47958
6600.16644,0.47900
6598.23770,0.47668
6596.30895,0.47570
6594.38021,0.47722
6592.45146,0.47820
6590.52271,0.47651
6588.59397,0.47538
6586.66522,0.47706
6584.73648,0.47946
6582.80773,0.48122
6580.87899,0.48245
6578.95024,0.48353
6577.02150,0.48459
6575.09275,0.48431
6573.16401,0.48313
6571.23526,0.48316
6569.30652,0.48331
6567.37777,0.48208
6565.44903,0.48036
6563.52028,0.47919
6561.59154,0.47927
6559.66279,0.47954
6557.73404,0.47857
6555.80530,0.47795
6553.87655,0.47877
6551.94781,0.47924
6550.01906,0.47858
6548.09032,0.47785
6546.16157,0.47763
6544.23283,0.47852
6542.30408,0.48065
6540.37534,0.48181
6538.44659,0.48112
6536.51785,0.48099
6534.58910,0.48205
6532.66036,0.48326
6530.73161,0.48436
6528.80287,0.48403
6526.87412,0.48128
6524.94537,0.47839
6523.01663,0.47851
6521.08788,0.48047
6519.15914,0.48156
6517.23039,0.48225
6515.30165,0.48187
6513.37290,0.47991
6511.44416,0.47905
6509.51541,0.48013
6507.58667,0.48166
6505.65792,0.48260
6503.72918,0.48317
6501.80043,0.48412
6499.87169,0.48551
6497.94294,0.48606
6496.01419,0.48416
6494.08545,0.48106
6492.15670,0.47936
6490.22796,0.48008
6488.29921,0.48328
6486.37047,0.48761
6484.44172,0.48958
6482.51298,0.48751
6480.58423,0.48526
6478.65549,0.48571
6476.72674,0.48761
6474.79800,0.48998
6472.86925,0.49118
6470.94051,0.49017
6469.01176,0.48858
6467.08302,0.48741
6465.15427,0.48637
6463.22552,0.48584
6461.29678,0.48663
6459.36803,0.48745
6457.43929,0.48612
6455.51054,0.48403
6453.58180,0.48394
6451.65305,0.48491
6449.72431,0.48546
6447.79556,0.48638
6445.86682,0.48759
6443.93807,0.48825
6442.00933,0.48814
6440.08058,0.48718
6438.15184,0.48641
6436.22309,0.48741
6434.29434,0.48943
6432.36560,0.49073
6430.43685,0.49174
6428.50811,0.49238
6426.57936,0.49115
6424.65062,0.48900
6422.72187,0.48796
6420.79313,0.48742
6418.86438,0.48651
6416.93564,0.48583
6415.00689,0.48540
6413.07815,0.48577
6411.14940,0.48729
6409.22066,0.48839
6407.29191,0.48948
6405.36317,0.49153
6403.43442,0.49278
6401.50567,0.49266
6399.57693,0.49188
6397.64818,0.49008
6395.71944,0.48770
6393.79069,0.48663
6391.86195,0.48728
6389.93320,0.48758
6388.00446,0.48671
6386.07571,0.48649
6384.14697,0.48787
6382.21822,0.48920
6380.28948,0.48858
6378.36073,0.48688
6376.43199,0.48623
6374.50324,0.48612
6372.57450,0.48552
6370.64575,0.48519
6368.71700,0.48516
6366.78826,0.48553
6364.85951,0.48630
6362.93077,0.48572
6361.00202,0.48442
6359.07328,0.48450
6357.14453,0.48541
6355.21579,0.48653
6353.28704,0.48828
6351.35830,0.48967
6349.42955,0.48915
6347.50081,0.48727
6345.57206,0.48524
6343.64332,0.48323
6341.71457,0.48235
6339.78582,0.48347
6337.85708,0.48513
6335.92833,0.48603
6333.99959,0.48608
6332.07084,0.48527
6330.14210,0.48493
6328.21335,0.48658
6326.28461,0.48879
6324.35586,0.48932
6322.42712,0.48827
6320.49837,0.48725
6318.56963,0.48697
6316.64088,0.48671
6314.71214,0.48653
6312.78339,0.48714
6310.85465,0.48803
6308.92590,0.48868
6306.99715,0.48928
6305.06841,0.48955
6303.13966,0.48895
6301.21092,0.48817
6299.28217,0.48828
6297.35343,0.48918
6295.42468,0.49016
6293.49594,0.49048
6291.56719,0.48960
6289.63845,0.48785
6287.70970,0.48632
6285.78096,0.48592
6283.85221,0.48666
6281.92347,0.48806
6279.99472,0.48977
6278.06598,0.49141
6276.13723,0.49239
6274.20848,0.49211
6272.27974,0.49074
6270.35099,0.48984
6268.42225,0.48977
6266.49350,0.48884
6264.56476,0.48761
6262.63601,0.48824
6260.70727,0.48965
6258.77852,0.48957
6256.84978,0.48804
6254.92103,0.48676
6252.99229,0.48746
6251.06354,0.48895
6249.13480,0.48897
6247.20605,0.48833
6245.27730,0.48857
6243.34856,0.48908
6241.41981,0.48862
6239.49107,0.48720
6237.56232,0.48595
6235.63358,0.48572
6233.70483,0.48641
6231.77609,0.48761
6229.84734,0.48897
6227.91860,0.48997
6225.98985,0.49030
6224.06111,0.48945
6222.13236,0.48778
6220.20362,0.48706
6218.27487,0.48714
6216.34613,0.48658
6214.41738,0.48535
6212.48863,0.48447
6210.55989,0.48441
6208.63114,0.48363
6206.70240,0.48153
6204.77365,0.48013
6202.84491,0.48038
6200.91616,0.48090
6198.98742,0.48019
6197.05867,0.47810
6195.12993,0.47637
6193.20118,0.47649
6191.27244,0.47722
6189.34369,0.47737
6187.41495,0.47801
6185.48620,0.47929
6183.55746,0.48006
6181.62871,0.47951
6179.69996,0.47759
6177.77122,0.47611
6175.84247,0.47664
6173.91373,0.47761
6171.98498,0.47770
6170.05624,0.47759
6168.12749,0.47731
6166.19875,0.47687
6164.27000,0.47714
6162.34126,0.47828
6160.41251,0.47939
6158.48377,0.47881
6156.55502,0.47616
6154.62628,0.47390
6152.69753,0.47305
6150.76878,0.47152
6148.84004,0.46925
6146.91129,0.46854
6144.98255,0.46922
6143.05380,0.46913
6141.12506,0.46824
6139.19631,0.46783
6137.26757,0.46790
6135.33882,0.46804
6133.41008,0.46824
6131.48133,0.46822
6129.55259,0.46831
6127.62384,0.46843
6125.69510,0.46770
6123.76635,0.46669
6121.83761,0.46620
6119.90886,0.46553
6117.98011,0.46386
6116.05137,0.46078
6114.12262,0.45729
6112.19388,0.45515
6110.26513,0.45444
6108.33639,0.45420
6106.40764,0.45358
6104.47890,0.45233
6102.55015,0.45073
6100.62141,0.44811
6098.69266,0.44422
6096.76392,0.44040
6094.83517,0.43752
6092.90643,0.43501
6090.97768,0.43174
6089.04893,0.42686
6087.12019,0.42139
6085.19144,0.41734
6083.26270,0.41482
6081.33395,0.41326
6079.40521,0.41236
6077.47646,0.41079
6075.54772,0.40803
6073.61897,0.40519
6071.69023,0.40244
6069.76148,0.39923
6067.83274,0.39632
6065.90399,0.39374
6063.97525,0.39014
6062.04650,0.38491
6060.11776,0.37830
6058.18901,0.37252
6056.26026,0.36936
6054.33152,0.36648
6052.40277,0.36246
6050.47403,0.35908
6048.54528,0.35650
6046.61654,0.35391
6044.68779,0.35130
6042.75905,0.34857
6040.83030,0.34605
6038.90156,0.34410
6036.97281,0.34243
6035.04407,0.34092
6033.11532,0.33889
6031.18658,0.33603
6029.25783,0.33324
6027.32909,0.33062
6025.40034,0.32740
6023.47159,0.32331
6021.54285,0.31923
6019.61410,0.31672
6017.68536,0.31577
6015.75661,0.31544
6013.82787,0.31632
6011.89912,0.31895
6009.97038,0.32203
6008.04163,0.32440
6006.11289,0.32669
6004.18414,0.32942
6002.25540,0.33247
6000.32665,0.33632
5998.39791,0.34073
5996.46916,0.34474
5994.54041,0.34853
5992.61167,0.35245
5990.68292,0.35634
5988.75418,0.36008
5986.82543,0.36297
5984.89669,0.36450
5982.96794,0.36548
5981.03920,0.36676
5979.11045,0.36849
5977.18171,0.37078
5975.25296,0.37275
5973.32422,0.37293
5971.39547,0.37256
5969.46673,0.37352
5967.53798,0.37441
5965.60924,0.37373
5963.68049,0.37235
5961.75174,0.37092
5959.82300,0.36913
5957.89425,0.36693
5955.96551,0.36421
5954.03676,0.36096
5952.10802,0.35719
5950.17927,0.35288
5948.25053,0.34922
5946.32178,0.34700
5944.39304,0.34500
5942.46429,0.34189
5940.53555,0.33722
5938.60680,0.33141
5936.67806,0.32629
5934.74931,0.32286
5932.82057,0.31978
5930.89182,0.31612
5928.96307,0.31248
5927.03433,0.30886
5925.10558,0.30495
5923.17684,0.30110
5921.24809,0.29770
5919.31935,0.29469
5917.39060,0.29208
5915.46186,0.29019
5913.53311,0.28803
5911.60437,0.28415
5909.67562,0.27941
5907.74688,0.27541
5905.81813,0.27189
5903.88939,0.26810
5901.96064,0.26446
5900.03189,0.26122
5898.10315,0.25772
5896.17440,0.25409
5894.24566,0.25064
5892.31691,0.24700
5890.38817,0.24323
5888.45942,0.23967
5886.53068,0.23644
5884.60193,0.23330
5882.67319,0.22978
5880.74444,0.22600
5878.81570,0.22315
5876.88695,0.22173
5874.95821,0.22044
5873.02946,0.21837
5871.10072,0.21571
5869.17197,0.21283
5867.24322,0.21038
5865.31448,0.20774
5863.38573,0.20378
5861.45699,0.19893
5859.52824,0.19448
5857.59950,0.19139
5855.67075,0.18938
5853.74201,0.18747
5851.81326,0.18527
5849.88452,0.18257
5847.95577,0.17952
5846.02703,0.17661
5844.09828,0.17397
5842.16954,0.17125
5840.24079,0.16797
5838.31205,0.16458
5836.38330,0.16179
5834.45455,0.15941
5832.52581,0.15748
5830.59706,0.15600
5828.66832,0.15490
5826.73957,0.15466
5824.81083,0.15533
5822.88208,0.15682
5820.95334,0.15885
5819.02459,0.16100
5817.09585,0.16345
5815.16710,0.16650
5813.23836,0.16971
5811.30961,0.17302
5809.38087,0.17667
5807.45212,0.17975
5805.52337,0.18155
5803.59463,0.18294
5801.66588,0.18510
5799.73714,0.18914
5797.80839,0.19444
5795.87965,0.19881
5793.95090,0.20211
5792.02216,0.20517
5790.09341,0.20787
5788.16467,0.21070
5786.23592,0.21398
5784.30718,0.21688
5782.37843,0.21910
5780.44969,0.22102
5778.52094,0.22286
5776.59220,0.22525
5774.66345,0.22852
5772.73470,0.23182
5770.80596,0.23349
5768.87721,0.23302
5766.94847,0.23224
5765.01972,0.23247
5763.09098,0.23261
5761.16223,0.23202
5759.23349,0.23142
5757.30474,0.23054
5755.37600,0.22927
5753.44725,0.22858
5751.51851,0.22827
5749.58976,0.22760
5747.66102,0.22666
5745.73227,0.22593
5743.80352,0.22547
5741.87478,0.22490
5739.94603,0.22431
5738.01729,0.22398
5736.08854,0.22332
5734.15980,0.22217
5732.23105,0.22173
5730.30231,0.22234
5728.37356,0.22348
5726.44482,0.22535
5724.51607,0.22711
5722.58733,0.22778
5720.65858,0.22835
5718.72984,0.22879
5716.80109,0.22781
5714.87235,0.22667
5712.94360,0.22681
5711.01485,0.22677
5709.08611,0.22581
5707.15736,0.22492
5705.22862,0.22461
5703.29987,0.22508
5701.37113,0.22587
5699.44238,0.22641
5697.51364,0.22688
5695.58489,0.22772
5693.65615,0.22915
5691.72740,0.23082
5689.79866,0.23241
5687.86991,0.23402
5685.94117,0.23592
5684.01242,0.23821
5682.08368,0.24099
5680.15493,0.24420
5678.22618,0.24697
5676.29744,0.24870
5674.36869,0.24950
5672.43995,0.24970
5670.51120,0.25043
5668.58246,0.25198
5666.65371,0.25263
5664.72497,0.25223
5662.79622,0.25240
5660.86748,0.25367
5658.93873,0.25568
5657.00999,0.25770
5655.08124,0.25902
5653.15250,0.25930
5651.22375,0.25900
5649.29500,0.25927
5647.36626,0.26064
5645.43751,0.26267
5643.50877,0.26462
5641.58002,0.26617
5639.65128,0.26742
5637.72253,0.26873
5635.79379,0.27008
5633.86504,0.27100
5631.93630,0.27223
5630.00755,0.27448
5628.07881,0.27612
5626.15006,0.27612
5624.22132,0.27607
5622.29257,0.27738
5620.36383,0.27967
5618.43508,0.28155
5616.50633,0.28218
5614.57759,0.28219
5612.64884,0.28238
5610.72010,0.28323
5608.79135,0.28484
5606.86261,0.28636
5604.93386,0.28708
5603.00512,0.28727
5601.07637,0.28781
5599.14763,0.28888
5597.21888,0.28988
5595.29014,0.29088
5593.36139,0.29222
5591.43265,0.29326
5589.50390,0.29333
5587.57516,0.29358
5585.64641,0.29521
5583.71766,0.29678
5581.78892,0.29699
5579.86017,0.29708
5577.93143,0.29790
5576.00268,0.29891
5574.07394,0.29991
5572.14519,0.30119
5570.21645,0.30250
5568.28770,0.30339
5566.35896,0.30393
5564.43021,0.30413
5562.50147,0.30412
5560.57272,0.30460
5558.64398,0.30557
5556.71523,0.30612
5554.78648,0.30582
5552.85774,0.30510
5550.92899,0.30518
5549.00025,0.30655
5547.07150,0.30816
5545.14276,0.30918
5543.21401,0.30933
5541.28527,0.30907
5539.35652,0.30936
5537.42778,0.30996
5535.49903,0.31034
5533.57029,0.31075
5531.64154,0.31091
5529.71280,0.31102
5527.78405,0.31145
5525.85531,0.31156
5523.92656,0.31167
5521.99781,0.31241
5520.06907,0.31315
5518.14032,0.31344
5516.21158,0.31291
5514.28283,0.31184
5512.35409,0.31161
5510.42534,0.31217
5508.49660,0.31259
5506.56785,0.31312
5504.63911,0.31393
5502.71036,0.31448
5500.78162,0.31463
5498.85287,0.31484
5496.92413,0.31534
5494.99538,0.31504
5493.06664,0.31353
5491.13789,0.31227
5489.20914,0.31192
5487.28040,0.31179
5485.35165,0.31162
5483.42291,0.31153
5481.49416,0.31120
5479.56542,0.31019
5477.63667,0.30900
5475.70793,0.30877
5473.77918,0.30935
5471.85044,0.30997
5469.92169,0.31067
5467.99295,0.31107
5466.06420,0.31074
5464.13546,0.31044
5462.20671,0.31081
5460.27796,0.31173
5458.34922,0.31284
5456.42047,0.31373
5454.49173,0.31421
5452.56298,0.31470
5450.63424,0.31564
5448.70549,0.31696
5446.77675,0.31832
5444.84800,0.31943
5442.91926,0.32056
5440.99051,0.32210
5439.06177,0.32332
5437.13302,0.32362
5435.20428,0.32387
5433.27553,0.32480
5431.34679,0.32611
5429.41804,0.32751
5427.48929,0.32904
5425.56055,0.33080
5423.63180,0.33207
5421.70306,0.33205
5419.77431,0.33184
5417.84557,0.33262
5415.91682,0.33379
5413.98808,0.33437
5412.05933,0.33439
5410.13059,0.33443
5408.20184,0.33473
5406.27310,0.33529
5404.34435,0.33570
5402.41561,0.33530
5400.48686,0.33459
5398.55811,0.33462
5396.62937,0.33567
5394.70062,0.33697
5392.77188,0.33780
5390.84313,0.33845
5388.91439,0.33907
5386.98564,0.33940
5385.05690,0.33979
5383.12815,0.34049
5381.19941,0.34126
5379.27066,0.34202
5377.34192,0.34232
5375.41317,0.34225
5373.48443,0.34288
5371.55568,0.34381
5369.62694,0.34380
5367.69819,0.34351
5365.76944,0.34456
5363.84070,0.34697
5361.91195,0.34884
5359.98321,0.34888
5358.05446,0.34811
5356.12572,0.34792
5354.19697,0.34877
5352.26823,0.34979
5350.33948,0.34964
5348.41074,0.34892
5346.48199,0.34911
5344.55325,0.35026
5342.62450,0.35150
5340.69576,0.35215
5338.76701,0.35217
5336.83827,0.35227
5334.90952,0.35275
5332.98077,0.35304
5331.05203,0.35354
5329.12328,0.35473
5327.19454,0.35536
5325.26579,0.35510
5323.33705,0.35503
5321.40830,0.35576
5319.47956,0.35734
5317.55081,0.35877
5315.62207,0.35901
5313.69332,0.35845
5311.76458,0.35798
5309.83583,0.35798
5307.90709,0.35821
5305.97834,0.35839
5304.04959,0.35840
5302.12085,0.35788
5300.19210,0.35689
5298.26336,0.35655
5296.33461,0.35724
5294.40587,0.35760
5292.47712,0.35727
5290.54838,0.35702
5288.61963,0.35652
5286.69089,0.35538
5284.76214,0.35379
5282.83340,0.35195
5280.90465,0.35043
5278.97591,0.34942
5277.04716,0.34842
5275.11842,0.34703
5273.18967,0.34554
5271.26092,0.34459
5269.33218,0.34400
5267.40343,0.34340
5265.47469,0.34320
5263.54594,0.34322
5261.61720,0.34232
5259.68845,0.34090
5257.75971,0.34062
5255.83096,0.34147
5253.90222,0.34206
5251.97347,0.34178
5250.04473,0.34118
5248.11598,0.34112
5246.18724,0.34184
5244.25849,0.34280
5242.32975,0.34357
5240.40100,0.34418
5238.47225,0.34467
5236.54351,0.34493
5234.61476,0.34511
5232.68602,0.34596
5230.75727,0.34776
5228.82853,0.34892
5226.89978,0.34833
5224.97104,0.34740
5223.04229,0.34729
5221.11355,0.34748
5219.18480,0.34766
5217.25606,0.34793
5215.32731,0.34817
5213.39857,0.34823
5211.46982,0.34823
5209.54107,0.34818
5207.61233,0.34813
5205.68358,0.34824
5203.75484,0.34851
5201.82609,0.34906
5199.89735,0.34947
5197.96860,0.34927
5196.03986,0.34879
5194.11111,0.34808
5192.18237,0.34751
5190.25362,0.34785
5188.32488,0.34832
5186.39613,0.34806
5184.46739,0.34754
5182.53864,0.34728
5180.60990,0.34746
5178.68115,0.34784
5176.75240,0.34768
5174.82366,0.34701
5172.89491,0.34683
5170.96617,0.34693
5169.03742,0.34637
5167.10868,0.34580
5165.17993,0.34594
5163.25119,0.34583
5161.32244,0.34524
5159.39370,0.34543
5157.46495,0.34622
5155.53621,0.34627
5153.60746,0.34590
5151.67872,0.34594
5149.74997,0.34589
5147.82123,0.34530
5145.89248,0.34457
5143.96373,0.34393
5142.03499,0.34356
5140.10624,0.34365
5138.17750,0.34398
5136.24875,0.34458
5134.32001,0.34523
5132.39126,0.34508
5130.46252,0.34415
5128.53377,0.34329
5126.60503,0.34303
5124.67628,0.34312
5122.74754,0.34290
5120.81879,0.34221
5118.89005,0.34162
5116.96130,0.34123
5115.03255,0.34094
5113.10381,0.34099
5111.17506,0.34133
5109.24632,0.34209
5107.31757,0.34279
5105.38883,0.34244
5103.46008,0.34215
5101.53134,0.34316
5099.60259,0.34427
5097.67385,0.34434
5095.74510,0.34393
5093.81636,0.34402
5091.88761,0.34474
5089.95887,0.34521
5088.03012,0.34516
5086.10138,0.34543
5084.17263,0.34630
5082.24388,0.34696
5080.31514,0.34703
5078.38639,0.34718
5076.45765,0.34796
5074.52890,0.34897
5072.60016,0.34965
5070.67141,0.35030
5068.74267,0.35134
5066.81392,0.35216
5064.88518,0.35221
5062.95643,0.35226
5061.02769,0.35266
5059.09894,0.35285
5057.17020,0.35298
5055.24145,0.35315
5053.31270,0.35286
5051.38396,0.35258
5049.45521,0.35293
5047.52647,0.35353
5045.59772,0.35395
5043.66898,0.35428
5041.74023,0.35450
5039.81149,0.35456
5037.88274,0.35457
5035.95400,0.35462
5034.02525,0.35456
5032.09651,0.35415
5030.16776,0.35349
5028.23902,0.35311
5026.31027,0.35310
5024.38153,0.35326
5022.45278,0.35337
5020.52403,0.35307
5018.59529,0.35269
5016.66654,0.35296
5014.73780,0.35352
5012.80905,0.35330
5010.88031,0.35247
5008.95156,0.35215
5007.02282,0.35254
5005.09407,0.35287
5003.16533,0.35269
5001.23658,0.35249
4999.30784,0.35295
4997.37909,0.35365
4995.45035,0.35356
4993.52160,0.35282
4991.59286,0.35235
4989.66411,0.35223
4987.73536,0.35218
4985.80662,0.35236
4983.87787,0.35266
4981.94913,0.35291
4980.02038,0.35324
4978.09164,0.35346
4976.16289,0.35321
4974.23415,0.35294
4972.30540,0.35298
4970.37666,0.35315
4968.44791,0.35362
4966.51917,0.35434
4964.59042,0.35465
4962.66168,0.35441
4960.73293,0.35416
4958.80418,0.35410
4956.87544,0.35428
4954.94669,0.35468
4953.01795,0.35485
4951.08920,0.35473
4949.16046,0.35473
4947.23171,0.35433
4945.30297,0.35327
4943.37422,0.35241
4941.44548,0.35177
4939.51673,0.35138
4937.58799,0.35193
4935.65924,0.35260
4933.73050,0.35249
4931.80175,0.35229
4929.87301,0.35258
4927.94426,0.35293
4926.01551,0.35277
4924.08677,0.35239
4922.15802,0.35239
4920.22928,0.35260
4918.30053,0.35242
4916.37179,0.35183
4914.44304,0.35140
4912.51430,0.35130
4910.58555,0.35139
4908.65681,0.35165
4906.72806,0.35188
4904.79932,0.35180
4902.87057,0.35155
4900.94183,0.35148
4899.01308,0.35163
4897.08434,0.35186
4895.15559,0.35213
4893.22684,0.35252
4891.29810,0.35288
4889.36935,0.35288
4887.44061,0.35271
4885.51186,0.35268
4883.58312,0.35272
4881.65437,0.35271
4879.72563,0.35259
4877.79688,0.35243
4875.86814,0.35222
4873.93939,0.35190
4872.01065,0.35194
4870.08190,0.35241
4868.15316,0.35257
4866.22441,0.35232
4864.29566,0.35238
4862.36692,0.35277
4860.43817,0.35269
4858.50943,0.35216
4856.58068,0.35190
4854.65194,0.35211
4852.72319,0.35249
4850.79445,0.35278
4848.86570,0.35333
4846.93696,0.35415
4845.00821,0.35434
4843.07947,0.35398
4841.15072,0.35408
4839.22198,0.35456
4837.29323,0.35476
4835.36449,0.35443
4833.43574,0.35358
4831.50699,0.35267
4829.57825,0.35214
4827.64950,0.35201
4825.72076,0.35203
4823.79201,0.35187
4821.86327,0.35147
4819.93452,0.35103
4818.00578,0.35070
4816.07703,0.35041
4814.14829,0.35008
4812.21954,0.34976
4810.29080,0.34945
4808.36205,0.34929
4806.43331,0.34925
4804.50456,0.34886
4802.57582,0.34812
4800.64707,0.34733
4798.71832,0.34640
4796.78958,0.34551
4794.86083,0.34497
4792.93209,0.34482
4791.00334,0.34497
4789.07460,0.34511
4787.14585,0.34488
4785.21711,0.34446
4783.28836,0.34424
4781.35962,0.34439
4779.43087,0.34474
4777.50213,0.34508
4775.57338,0.34567
4773.64464,0.34658
4771.71589,0.34719
4769.78714,0.34706
4767.85840,0.34660
4765.92965,0.34659
4764.00091,0.34703
4762.07216,0.34751
4760.14342,0.34781
4758.21467,0.34771
4756.28593,0.34722
4754.35718,0.34664
4752.42844,0.34609
4750.49969,0.34548
4748.57095,0.34471
4746.64220,0.34398
4744.71346,0.34327
4742.78471,0.34223
4740.85597,0.34094
4738.92722,0.33964
4736.99847,0.33805
4735.06973,0.33593
4733.14098,0.33361
4731.21224,0.33123
4729.28349,0.32834
4727.35475,0.32487
4725.42600,0.32105
4723.49726,0.31699
4721.56851,0.31308
4719.63977,0.30978
4717.71102,0.30704
4715.78228,0.30473
4713.85353,0.30322
4711.92479,0.30238
4709.99604,0.30132
4708.06729,0.29960
4706.13855,0.29755
4704.20980,0.29546
4702.28106,0.29283
4700.35231,0.28922
4698.42357,0.28466
4696.49482,0.27924
4694.56608,0.27357
4692.63733,0.26846
4690.70859,0.26418
4688.77984,0.26082
4686.85110,0.25841
4684.92235,0.25718
4682.99361,0.25751
4681.06486,0.25918
4679.13612,0.26163
4677.20737,0.26466
4675.27862,0.26812
4673.34988,0.27165
4671.42113,0.27492
4669.49239,0.27760
4667.56364,0.27958
4665.63490,0.28102
4663.70615,0.28212
4661.77741,0.28271
4659.84866,0.28280
4657.91992,0.28282
4655.99117,0.28267
4654.06243,0.28219
4652.13368,0.28185
4650.20494,0.28183
4648.27619,0.28135
4646.34745,0.27978
4644.41870,0.27728
4642.48995,0.27407
4640.56121,0.27017
4638.63246,0.26592
4636.70372,0.26203
4634.77497,0.25883
4632.84623,0.25649
4630.91748,0.25573
4628.98874,0.25724
4627.05999,0.26090
4625.13125,0.26559
4623.20250,0.27048
4621.27376,0.27566
4619.34501,0.28094
4617.41627,0.28573
4615.48752,0.28991
4613.55877,0.29352
4611.63003,0.29660
4609.70128,0.29895
4607.77254,0.30049
4605.84379,0.30171
4603.91505,0.30285
4601.98630,0.30349
4600.05756,0.30346
4598.12881,0.30285
4596.20007,0.30183
4594.27132,0.30057
4592.34258,0.29924
4590.41383,0.29757
4588.48509,0.29556
4586.55634,0.29426
4584.62760,0.29422
4582.69885,0.29458
4580.77010,0.29447
4578.84136,0.29372
4576.91261,0.29264
4574.98387,0.29165
4573.05512,0.29141
4571.12638,0.29281
4569.19763,0.29575
4567.26889,0.29925
4565.34014,0.30259
4563.41140,0.30536
4561.48265,0.30737
4559.55391,0.30873
4557.62516,0.30948
4555.69642,0.30966
4553.76767,0.30946
4551.83893,0.30896
4549.91018,0.30841
4547.98143,0.30806
4546.05269,0.30765
4544.12394,0.30702
4542.19520,0.30645
4540.26645,0.30568
4538.33771,0.30452
4536.40896,0.30362
4534.48022,0.30319
4532.55147,0.30260
4530.62273,0.30138
4528.69398,0.29957
4526.76524,0.29774
4524.83649,0.29644
4522.90775,0.29562
4520.97900,0.29471
4519.05025,0.29342
4517.12151,0.29190
4515.19276,0.29007
4513.26402,0.28795
4511.33527,0.28606
4509.40653,0.28439
4507.47778,0.28225
4505.54904,0.27955
4503.62029,0.27675
4501.69155,0.27400
4499.76280,0.27115
4497.83406,0.26773
4495.90531,0.26330
4493.97657,0.25827
4492.04782,0.25374
4490.11908,0.25014
4488.19033,0.24706
4486.26158,0.24442
4484.33284,0.24244
4482.40409,0.24091
4480.47535,0.23942
4478.54660,0.23794
4476.61786,0.23647
4474.68911,0.23484
4472.76037,0.23289
4470.83162,0.23082
4468.90288,0.22892
4466.97413,0.22692
4465.04539,0.22428
4463.11664,0.22107
4461.18790,0.21758
4459.25915,0.21400
4457.33041,0.21015
4455.40166,0.20570
4453.47291,0.20100
4451.54417,0.19648
4449.61542,0.19201
4447.68668,0.18750
4445.75793,0.18295
4443.82919,0.17807
4441.90044,0.17280
4439.97170,0.16759
4438.04295,0.16277
4436.11421,0.15810
4434.18546,0.15339
4432.25672,0.14898
4430.32797,0.14499
4428.39923,0.14103
4426.47048,0.13697
4424.54173,0.13301
4422.61299,0.12914
4420.68424,0.12541
4418.75550,0.12212
4416.82675,0.11920
4414.89801,0.11610
4412.96926,0.11278
4411.04052,0.10985
4409.11177,0.10762
4407.18303,0.10584
4405.25428,0.10424
4403.32554,0.10269
4401.39679,0.10117
4399.46805,0.09986
4397.53930,0.09884
4395.61056,0.09800
4393.68181,0.09730
4391.75306,0.09673
4389.82432,0.09612
4387.89557,0.09514
4385.96683,0.09352
4384.03808,0.09172
4382.10934,0.09019
4380.18059,0.08856
4378.25185,0.08659
4376.32310,0.08462
4374.39436,0.08270
4372.46561,0.08062
4370.53687,0.07855
4368.60812,0.07674
4366.67938,0.07487
4364.75063,0.07281
4362.82189,0.07097
4360.89314,0.06977
4358.96439,0.06898
4357.03565,0.06788
4355.10690,0.06638
4353.17816,0.06495
4351.24941,0.06389
4349.32067,0.06323
4347.39192,0.06268
4345.46318,0.06214
4343.53443,0.06159
4341.60569,0.06070
4339.67694,0.05965
4337.74820,0.05892
4335.81945,0.05844
4333.89071,0.05819
4331.96196,0.05852
4330.03321,0.05934
4328.10447,0.06013
4326.17572,0.06094
4324.24698,0.06203
4322.31823,0.06310
4320.38949,0.06391
4318.46074,0.06483
4316.53200,0.06595
4314.60325,0.06699
4312.67451,0.06781
4310.74576,0.06855
4308.81702,0.06936
4306.88827,0.07028
4304.95953,0.07101
4303.03078,0.07131
4301.10204,0.07135
4299.17329,0.07128
4297.24454,0.07120
4295.31580,0.07132
4293.38705,0.07156
4291.45831,0.07155
4289.52956,0.07124
4287.60082,0.07091
4285.67207,0.07070
4283.74333,0.07064
4281.81458,0.07070
4279.88584,0.07062
4277.95709,0.07049
4276.02835,0.07072
4274.09960,0.07124
4272.17086,0.07164
4270.24211,0.07185
4268.31336,0.07210
4266.38462,0.07267
4264.45587,0.07334
4262.52713,0.07374
4260.59838,0.07386
4258.66964,0.07386
4256.74089,0.07397
4254.81215,0.07420
4252.88340,0.07415
4250.95466,0.07377
4249.02591,0.07333
4247.09717,0.07287
4245.16842,0.07248
4243.23968,0.07224
4241.31093,0.07211
4239.38219,0.07208
4237.45344,0.07208
4235.52469,0.07192
4233.59595,0.07154
4231.66720,0.07117
4229.73846,0.07095
4227.80971,0.07070
4225.88097,0.07052
4223.95222,0.07050
4222.02348,0.07054
4220.09473,0.07063
4218.16599,0.07057
4216.23724,0.07034
4214.30850,0.07017
4212.37975,0.07014
4210.45101,0.07011
4208.52226,0.07015
4206.59352,0.07063
4204.66477,0.07143
4202.73602,0.07221
4200.80728,0.07283
4198.87853,0.07325
4196.94979,0.07369
4195.02104,0.07439
4193.09230,0.07515
4191.16355,0.07549
4189.23481,0.07548
4187.30606,0.07557
4185.37732,0.07566
4183.44857,0.07543
4181.51983,0.07495
4179.59108,0.07448
4177.66234,0.07415
4175.73359,0.07405
4173.80484,0.07394
4171.87610,0.07364
4169.94735,0.07352
4168.01861,0.07379
4166.08986,0.07432
4164.16112,0.07505
4162.23237,0.07586
4160.30363,0.07667
4158.37488,0.07766
4156.44614,0.07877
4154.51739,0.07963
4152.58865,0.08034
4150.65990,0.08107
4148.73116,0.08160
4146.80241,0.08213
4144.87367,0.08307
4142.94492,0.08420
4141.01617,0.08531
4139.08743,0.08651
4137.15868,0.08777
4135.22994,0.08899
4133.30119,0.09000
4131.37245,0.09060
4129.44370,0.09087
4127.51496,0.09099
4125.58621,0.09092
4123.65747,0.09073
4121.72872,0.09058
4119.79998,0.09048
4117.87123,0.09021
4115.94249,0.08960
4114.01374,0.08877
4112.08500,0.08803
4110.15625,0.08755
4108.22750,0.08716
4106.29876,0.08666
4104.37001,0.08596
4102.44127,0.08513
4100.51252,0.08413
4098.58378,0.08297
4096.65503,0.08183
4094.72629,0.08063
4092.79754,0.07931
4090.86880,0.07789
4088.94005,0.07626
4087.01131,0.07457
4085.08256,0.07335
4083.15382,0.07286
4081.22507,0.07305
4079.29632,0.07391
4077.36758,0.07519
4075.43883,0.07660
4073.51009,0.07816
4071.58134,0.07989
4069.65260,0.08164
4067.72385,0.08321
4065.79511,0.08458
4063.86636,0.08599
4061.93762,0.08746
4060.00887,0.08875
4058.08013,0.09002
4056.15138,0.09143
4054.22264,0.09268
4052.29389,0.09357
4050.36515,0.09417
4048.43640,0.09468
4046.50765,0.09528
4044.57891,0.09586
4042.65016,0.09624
4040.72142,0.09644
4038.79267,0.09656
4036.86393,0.09671
4034.93518,0.09691
4033.00644,0.09696
4031.07769,0.09676
4029.14895,0.09657
4027.22020,0.09647
4025.29146,0.09640
4023.36271,0.09652
4021.43397,0.09702
4019.50522,0.09750
4017.57648,0.09776
4015.64773,0.09810
4013.71898,0.09852
4011.79024,0.09892
4009.86149,0.09945
4007.93275,0.10008
4006.00400,0.10092
4004.07526,0.10225
4002.14651,0.10363
4000.21777,0.10446
3998.28902,0.10486
3996.36028,0.10532
3994.43153,0.10631
3992.50279,0.10771
3990.57404,0.10876
3988.64530,0.10930
3986.71655,0.10998
3984.78780,0.11103
3982.85906,0.11211
3980.93031,0.11302
3979.00157,0.11386
3977.07282,0.11469
3975.14408,0.11553
3973.21533,0.11640
3971.28659,0.11710
3969.35784,0.11743
3967.42910,0.11766
3965.50035,0.11793
3963.57161,0.11819
3961.64286,0.11853
3959.71412,0.11867
3957.78537,0.11832
3955.85663,0.11784
3953.92788,0.11766
3951.99913,0.11766
3950.07039,0.11763
3948.14164,0.11757
3946.21290,0.11755
3944.28415,0.11756
3942.35541,0.11762
3940.42666,0.11788
3938.49792,0.11832
3936.56917,0.11880
3934.64043,0.11922
3932.71168,0.11946
3930.78294,0.11947
3928.85419,0.11950
3926.92545,0.11980
3924.99670,0.12025
3923.06795,0.12059
3921.13921,0.12086
3919.21046,0.12102
3917.28172,0.12104
3915.35297,0.12128
3913.42423,0.12199
3911.49548,0.12292
3909.56674,0.12390
3907.63799,0.12500
3905.70925,0.12602
3903.78050,0.12655
3901.85176,0.12654
3899.92301,0.12649
3897.99427,0.12699
3896.06552,0.12798
3894.13678,0.12900
3892.20803,0.12972
3890.27928,0.13009
3888.35054,0.13027
3886.42179,0.13048
3884.49305,0.13089
3882.56430,0.13123
3880.63556,0.13127
3878.70681,0.13139
3876.77807,0.13173
3874.84932,0.13202
3872.92058,0.13232
3870.99183,0.13272
3869.06309,0.13300
3867.13434,0.13312
3865.20560,0.13312
3863.27685,0.13288
3861.34811,0.13267
3859.41936,0.13271
3857.49061,0.13281
3855.56187,0.13289
3853.63312,0.13307
3851.70438,0.13324
3849.77563,0.13332
3847.84689,0.13349
3845.91814,0.13397
3843.98940,0.13474
3842.06065,0.13545
3840.13191,0.13580
3838.20316,0.13605
3836.27442,0.13636
3834.34567,0.13656
3832.41693,0.13668
3830.48818,0.13691
3828.55943,0.13744
3826.63069,0.13828
3824.70194,0.13922
3822.77320,0.14000
3820.84445,0.14066
3818.91571,0.14147
3816.98696,0.14224
3815.05822,0.14258
3813.12947,0.14259
3811.20073,0.14273
3809.27198,0.14306
3807.34324,0.14327
3805.41449,0.14318
3803.48575,0.14312
3801.55700,0.14362
3799.62826,0.14465
3797.69951,0.14569
3795.77076,0.14669
3793.84202,0.14777
3791.91327,0.14888
3789.98453,0.14993
3788.05578,0.15084
3786.12704,0.15145
3784.19829,0.15179
3782.26955,0.15213
3780.34080,0.15245
3778.41206,0.15264
3776.48331,0.15278
3774.55457,0.15282
3772.62582,0.15273
3770.69708,0.15264
3768.76833,0.15247
3766.83959,0.15212
3764.91084,0.15172
3762.98209,0.15145
3761.05335,0.15102
3759.12460,0.15025
3757.19586,0.14974
3755.26711,0.15003
3753.33837,0.15116
3751.40962,0.15285
3749.48088,0.15442
3747.55213,0.15550
3745.62339,0.15644
3743.69464,0.15750
3741.76590,0.15824
3739.83715,0.15851
3737.90841,0.15865
3735.97966,0.15883
3734.05091,0.15896
3732.12217,0.15918
3730.19342,0.15984
3728.26468,0.16079
3726.33593,0.16172
3724.40719,0.16260
3722.47844,0.16329
3720.54970,0.16354
3718.62095,0.16327
3716.69221,0.16250
3714.76346,0.16128
3712.83472,0.15965
3710.90597,0.15758
3708.97723,0.15521
3707.04848,0.15279
3705.11974,0.15023
3703.19099,0.14715
3701.26224,0.14334
3699.33350,0.13892
3697.40475,0.13431
3695.47601,0.12989
3693.54726,0.12544
3691.61852,0.12068
3689.68977,0.11574
3687.76103,0.11120
3685.83228,0.10768
3683.90354,0.10508
3681.97479,0.10310
3680.04605,0.10155
3678.11730,0.10031
3676.18856,0.09945
3674.25981,0.09913
3672.33107,0.09908
3670.40232,0.09917
3668.47357,0.09938
3666.54483,0.09952
3664.61608,0.09981
3662.68734,0.10055
3660.75859,0.10142
3658.82985,0.10207
3656.90110,0.10245
3654.97236,0.10274
3653.04361,0.10306
3651.11487,0.10326
3649.18612,0.10332
3647.25738,0.10345
3645.32863,0.10368
3643.39989,0.10383
3641.47114,0.10379
3639.54239,0.10352
3637.61365,0.10310
3635.68490,0.10266
3633.75616,0.10233
3631.82741,0.10191
3629.89867,0.10088
3627.96992,0.09938
3626.04118,0.09826
3624.11243,0.09751
3622.18369,0.09664
3620.25494,0.09547
3618.32620,0.09423
3616.39745,0.09325
3614.46871,0.09256
3612.53996,0.09211
3610.61122,0.09189
3608.68247,0.09166
3606.75372,0.09120
3604.82498,0.09059
3602.89623,0.08982
3600.96749,0.08889
3599.03874,0.08817
3597.11000,0.08773
3595.18125,0.08717
3593.25251,0.08638
3591.32376,0.08580
3589.39502,0.08563
3587.46627,0.08525
3585.53753,0.08437
3583.60878,0.08355
3581.68004,0.08287
3579.75129,0.08209
3577.82254,0.08144
3575.89380,0.08078
3573.96505,0.07972
3572.03631,0.07864
3570.10756,0.07765
3568.17882,0.07653
3566.25007,0.07568
3564.32133,0.07513
3562.39258,0.07446
3560.46384,0.07365
3558.53509,0.07280
3556.60635,0.07208
3554.67760,0.07165
3552.74886,0.07126
3550.82011,0.07073
3548.89137,0.07035
3546.96262,0.07002
3545.03387,0.06945
3543.10513,0.06900
3541.17638,0.06901
3539.24764,0.06906
3537.31889,0.06888
3535.39015,0.06874
3533.46140,0.06872
3531.53266,0.06867
3529.60391,0.06865
3527.67517,0.06856
3525.74642,0.06835
3523.81768,0.06828
3521.88893,0.06838
3519.96019,0.06845
3518.03144,0.06855
3516.10270,0.06866
3514.17395,0.06869
3512.24520,0.06875
3510.31646,0.06878
3508.38771,0.06858
3506.45897,0.06836
3504.53022,0.06847
3502.60148,0.06853
3500.67273,0.06802
3498.74399,0.06744
3496.81524,0.06731
3494.88650,0.06732
3492.95775,0.06725
3491.02901,0.06691
3489.10026,0.06623
3487.17152,0.06577
3485.24277,0.06585
3483.31402,0.06591
3481.38528,0.06549
3479.45653,0.06494
3477.52779,0.06471
3475.59904,0.06480
3473.67030,0.06481
3471.74155,0.06446
3469.81281,0.06411
3467.88406,0.06398
3465.95532,0.06373
3464.02657,0.06315
3462.09783,0.06259
3460.16908,0.06227
3458.24034,0.06189
3456.31159,0.06117
3454.38285,0.06021
3452.45410,0.05944
3450.52535,0.05898
3448.59661,0.05844
3446.66786,0.05766
3444.73912,0.05692
3442.81037,0.05631
3440.88163,0.05562
3438.95288,0.05479
3437.02414,0.05409
3435.09539,0.05352
3433.16665,0.05275
3431.23790,0.05187
3429.30916,0.05123
3427.38041,0.05085
3425.45167,0.05077
3423.52292,0.05087
3421.59418,0.05088
3419.66543,0.05064
3417.73668,0.05021
3415.80794,0.04993
3413.87919,0.05016
3411.95045,0.05067
3410.02170,0.05093
3408.09296,0.05095
3406.16421,0.05121
3404.23547,0.05190
3402.30672,0.05254
3400.37798,0.05278
3398.44923,0.05294
3396.52049,0.05324
3394.59174,0.05357
3392.66300,0.05392
3390.73425,0.05412
3388.80550,0.05409
3386.87676,0.05420
3384.94801,0.05476
3383.01927,0.05540
3381.09052,0.05552
3379.16178,0.05535
3377.23303,0.05550
3375.30429,0.05590
3373.37554,0.05623
3371.44680,0.05661
3369.51805,0.05698
3367.58931,0.05727
3365.66056,0.05756
3363.73182,0.05755
3361.80307,0.05728
3359.87433,0.05729
3357.94558,0.05748
3356.01683,0.05747
3354.08809,0.05740
3352.15934,0.05747
3350.23060,0.05755
3348.30185,0.05746
3346.37311,0.05730
3344.44436,0.05727
3342.51562,0.05719
3340.58687,0.05676
3338.65813,0.05627
3336.72938,0.05607
3334.80064,0.05607
3332.87189,0.05601
3330.94315,0.05587
3329.01440,0.05580
3327.08566,0.05585
3325.15691,0.05605
3323.22816,0.05629
3321.29942,0.05628
3319.37067,0.05624
3317.44193,0.05646
3315.51318,0.05662
3313.58444,0.05668
3311.65569,0.05700
3309.72695,0.05709
3307.79820,0.05648
3305.86946,0.05608
3303.94071,0.05647
3302.01197,0.05679
3300.08322,0.05669
3298.15448,0.05660
3296.22573,0.05663
3294.29698,0.05659
3292.36824,0.05672
3290.43949,0.05711
3288.51075,0.05749
3286.58200,0.05783
3284.65326,0.05819
3282.72451,0.05862
3280.79577,0.05901
3278.86702,0.05905
3276.93828,0.05888
3275.00953,0.05886
3273.08079,0.05906
3271.15204,0.05947
3269.22330,0.05997
3267.29455,0.06046
3265.36581,0.06086
3263.43706,0.06103
3261.50831,0.06087
3259.57957,0.06048
3257.65082,0.06025
3255.72208,0.06043
3253.79333,0.06071
3251.86459,0.06069
3249.93584,0.06040
3248.00710,0.06022
3246.07835,0.06023
3244.14961,0.06004
3242.22086,0.05944
3240.29212,0.05860
3238.36337,0.05814
3236.43463,0.05822
3234.50588,0.05803
3232.57713,0.05741
3230.64839,0.05716
3228.71964,0.05730
3226.79090,0.05736
3224.86215,0.05727
3222.93341,0.05710
3221.00466,0.05693
3219.07592,0.05692
3217.14717,0.05693
3215.21843,0.05689
3213.28968,0.05668
3211.36094,0.05607
3209.43219,0.05545
3207.50345,0.05542
3205.57470,0.05563
3203.64596,0.05529
3201.71721,0.05471
3199.78846,0.05491
3197.85972,0.05580
3195.93097,0.05632
3194.00223,0.05616
3192.07348,0.05599
3190.14474,0.05618
3188.21599,0.05644
3186.28725,0.05660
3184.35850,0.05679
3182.42976,0.05698
3180.50101,0.05681
3178.57227,0.05638
3176.64352,0.05644
3174.71478,0.05698
3172.78603,0.05737
3170.85729,0.05759
3168.92854,0.05772
3166.99979,0.05760
3165.07105,0.05738
3163.14230,0.05730
3161.21356,0.05728
3159.28481,0.05732
3157.35607,0.05763
3155.42732,0.05803
3153.49858,0.05816
3151.56983,0.05798
3149.64109,0.05783
3147.71234,0.05787
3145.78360,0.05781
3143.85485,0.05761
3141.92611,0.05772
3139.99736,0.05816
3138.06861,0.05800
3136.13987,0.05696
3134.21112,0.05604
3132.28238,0.05581
3130.35363,0.05600
3128.42489,0.05641
3126.49614,0.05677
3124.56740,0.05686
3122.63865,0.05670
3120.70991,0.05635
3118.78116,0.05584
3116.85242,0.05552
3114.92367,0.05562
3112.99493,0.05590
3111.06618,0.05587
3109.13744,0.05545
3107.20869,0.05501
3105.27994,0.05457
3103.35120,0.05398
3101.42245,0.05356
3099.49371,0.05340
3097.56496,0.05318
3095.63622,0.05283
3093.70747,0.05253
3091.77873,0.05241
3089.84998,0.05249
3087.92124,0.05245
3085.99249,0.05192
3084.06375,0.05115
3082.13500,0.05054
3080.20626,0.05023
3078.27751,0.05027
3076.34877,0.05050
3074.42002,0.05059
3072.49127,0.05045
3070.56253,0.05011
3068.63378,0.04958
3066.70504,0.04904
3064.77629,0.04872
3062.84755,0.04853
3060.91880,0.04832
3058.99006,0.04820
3057.06131,0.04819
3055.13257,0.04820
3053.20382,0.04823
3051.27508,0.04837
3049.34633,0.04852
3047.41759,0.04861
3045.48884,0.04870
3043.56009,0.04877
3041.63135,0.04873
3039.70260,0.04858
3037.77386,0.04840
3035.84511,0.04817
3033.91637,0.04789
3031.98762,0.04770
3030.05888,0.04764
3028.13013,0.04748
3026.20139,0.04715
3024.27264,0.04692
3022.34390,0.04679
3020.41515,0.04648
3018.48641,0.04619
3016.55766,0.04609
3014.62892,0.04592
3012.70017,0.04565
3010.77142,0.04541
3008.84268,0.04514
3006.91393,0.04496
3004.98519,0.04500
3003.05644,0.04515
3001.12770,0.04523
2999.19895,0.04508
2997.27021,0.04483
2995.34146,0.04471
2993.41272,0.04463
2991.48397,0.04447
2989.55523,0.04426
2987.62648,0.04407
2985.69774,0.04404
2983.76899,0.04409
2981.84025,0.04396
2979.91150,0.04370
2977.98275,0.04360
2976.05401,0.04373
2974.12526,0.04393
2972.19652,0.04406
2970.26777,0.04413
2968.33903,0.04411
2966.41028,0.04409
2964.48154,0.04427
2962.55279,0.04458
2960.62405,0.04482
2958.69530,0.04492
2956.76656,0.04505
2954.83781,0.04527
2952.90907,0.04525
2950.98032,0.04495
2949.05157,0.04480
2947.12283,0.04492
2945.19408,0.04503
2943.26534,0.04509
2941.33659,0.04530
2939.40785,0.04551
2937.47910,0.04545
2935.55036,0.04538
2933.62161,0.04567
2931.69287,0.04610
2929.76412,0.04645
2927.83538,0.04680
2925.90663,0.04709
2923.97789,0.04734
2922.04914,0.04765
2920.12040,0.04794
2918.19165,0.04814
2916.26290,0.04837
2914.33416,0.04856
2912.40541,0.04851
2910.47667,0.04832
2908.54792,0.04820
2906.61918,0.04815
2904.69043,0.04821
2902.76169,0.04828
2900.83294,0.04827
2898.90420,0.04831
2896.97545,0.04827
2895.04671,0.04798
2893.11796,0.04777
2891.18922,0.04778
2889.26047,0.04775
2887.33172,0.04766
2885.40298,0.04772
2883.47423,0.04789
2881.54549,0.04787
2879.61674,0.04766
2877.68800,0.04760
2875.75925,0.04767
2873.83051,0.04771
2871.90176,0.04775
2869.97302,0.04792
2868.04427,0.04821
2866.11553,0.04848
2864.18678,0.04864
2862.25804,0.04879
2860.32929,0.04898
2858.40055,0.04921
2856.47180,0.04948
2854.54305,0.04963
2852.61431,0.04953
2850.68556,0.04948
2848.75682,0.04968
2846.82807,0.04988
2844.89933,0.04976
2842.97058,0.04946
2841.04184,0.04937
2839.11309,0.04958
2837.18435,0.04981
2835.25560,0.04976
2833.32686,0.04950
2831.39811,0.04933
2829.46937,0.04940
2827.54062,0.04953
2825.61188,0.04951
2823.68313,0.04942
2821.75438,0.04941
2819.82564,0.04935
2817.89689,0.04917
2815.96815,0.04903
2814.03940,0.04903
2812.11066,0.04904
2810.18191,0.04908
2808.25317,0.04929
2806.32442,0.04957
2804.39568,0.04984
2802.46693,0.05005
2800.53819,0.05013
2798.60944,0.05017
2796.68070,0.05040
2794.75195,0.05071
2792.82320,0.05094
2790.89446,0.05111
2788.96571,0.05126
2787.03697,0.05148
2785.10822,0.05172
2783.17948,0.05196
2781.25073,0.05249
2779.32199,0.05313
2777.39324,0.05339
2775.46450,0.05345
2773.53575,0.05365
2771.60701,0.05389
2769.67826,0.05395
2767.74952,0.05391
2765.82077,0.05393
2763.89203,0.05394
2761.96328,0.05381
2760.03453,0.05367
2758.10579,0.05379
2756.17704,0.05404
2754.24830,0.05403
2752.31955,0.05372
2750.39081,0.05337
2748.46206,0.05320
2746.53332,0.05318
2744.60457,0.05306
2742.67583,0.05284
2740.74708,0.05268
2738.81834,0.05255
2736.88959,0.05241
2734.96085,0.05230
2733.03210,0.05234
2731.10336,0.05272
2729.17461,0.05325
2727.24586,0.05375
2725.31712,0.05440
2723.38837,0.05511
2721.45963,0.05556
2719.53088,0.05582
2717.60214,0.05628
2715.67339,0.05703
2713.74465,0.05768
2711.81590,0.05806
2709.88716,0.05833
2707.95841,0.05855
2706.02967,0.05868
2704.10092,0.05887
2702.17218,0.05911
2700.24343,0.05928
2698.31468,0.05941
2696.38594,0.05951
2694.45719,0.05964
2692.52845,0.05992
2690.59970,0.06015
2688.67096,0.06024
2686.74221,0.06024
2684.81347,0.06010
2682.88472,0.05991
2680.95598,0.05985
2679.02723,0.05981
2677.09849,0.05967
2675.16974,0.05951
2673.24100,0.05945
2671.31225,0.05950
2669.38351,0.05968
2667.45476,0.05987
2665.52601,0.06010
2663.59727,0.06050
2661.66852,0.06097
2659.73978,0.06133
2657.81103,0.06158
2655.88229,0.06190
2653.95354,0.06232
2652.02480,0.06260
2650.09605,0.06271
2648.16731,0.06281
2646.23856,0.06288
2644.30982,0.06283
2642.38107,0.06261
2640.45233,0.06210
2638.52358,0.06133
2636.59484,0.06055
2634.66609,0.05989
2632.73734,0.05916
2630.80860,0.05838
2628.87985,0.05782
2626.95111,0.05746
2625.02236,0.05712
2623.09362,0.05685
2621.16487,0.05661
2619.23613,0.05626
2617.30738,0.05584
2615.37864,0.05544
2613.44989,0.05516
2611.52115,0.05505
2609.59240,0.05490
2607.66366,0.05448
2605.73491,0.05399
2603.80616,0.05375
2601.87742,0.05385
2599.94867,0.05411
2598.01993,0.05418
2596.09118,0.05401
2594.16244,0.05384
2592.23369,0.05375
2590.30495,0.05370
2588.37620,0.05364
2586.44746,0.05348
2584.51871,0.05336
2582.58997,0.05339
2580.66122,0.05338
2578.73248,0.05329
2576.80373,0.05324
2574.87499,0.05312
2572.94624,0.05295
2571.01749,0.05301
2569.08875,0.05328
2567.16000,0.05339
2565.23126,0.05335
2563.30251,0.05333
2561.37377,0.05326
2559.44502,0.05305
2557.51628,0.05281
2555.58753,0.05274
2553.65879,0.05275
2551.73004,0.05266
2549.80130,0.05260
2547.87255,0.05268
2545.94381,0.05288
2544.01506,0.05303
2542.08631,0.05285
2540.15757,0.05240
2538.22882,0.05205
2536.30008,0.05188
2534.37133,0.05171
2532.44259,0.05152
2530.51384,0.05134
2528.58510,0.05110
2526.65635,0.05085
2524.72761,0.05080
2522.79886,0.05092
2520.87012,0.05097
2518.94137,0.05085
2517.01263,0.05064
2515.08388,0.05047
2513.15514,0.05058
2511.22639,0.05090
2509.29764,0.05121
2507.36890,0.05150
2505.44015,0.05178
2503.51141,0.05196
2501.58266,0.05217
2499.65392,0.05259
2497.72517,0.05318
2495.79643,0.05376
2493.86768,0.05433
2491.93894,0.05493
2490.01019,0.05550
2488.08145,0.05604
2486.15270,0.05657
2484.22396,0.05726
2482.29521,0.05820
2480.36647,0.05924
2478.43772,0.06029
2476.50897,0.06129
2474.58023,0.06225
2472.65148,0.06321
2470.72274,0.06417
2468.79399,0.06513
2466.86525,0.06611
2464.93650,0.06696
2463.00776,0.06751
2461.07901,0.06773
2459.15027,0.06779
2457.22152,0.06796
2455.29278,0.06828
2453.36403,0.06858
2451.43529,0.06871
2449.50654,0.06871
2447.57779,0.06875
2445.64905,0.06895
2443.72030,0.06911
2441.79156,0.06908
2439.86281,0.06900
2437.93407,0.06889
2436.00532,0.06867
2434.07658,0.06834
2432.14783,0.06793
2430.21909,0.06764
2428.29034,0.06740
2426.36160,0.06705
2424.43285,0.06670
2422.50411,0.06635
2420.57536,0.06592
2418.64662,0.06543
2416.71787,0.06508
2414.78912,0.06493
2412.86038,0.06479
2410.93163,0.06447
2409.00289,0.06407
2407.07414,0.06379
2405.14540,0.06357
2403.21665,0.06330
2401.28791,0.06312
2399.35916,0.06306
2397.43042,0.06292
2395.50167,0.06253
2393.57293,0.06210
2391.64418,0.06186
2389.71544,0.06173
2387.78669,0.06156
2385.85795,0.06136
2383.92920,0.06125
2382.00045,0.06130
2380.07171,0.06139
2378.14296,0.06149
2376.21422,0.06178
2374.28547,0.06227
2372.35673,0.06279
2370.42798,0.06335
2368.49924,0.06394
2366.57049,0.06434
2364.64175,0.06461
2362.71300,0.06506
2360.78426,0.06575
2358.85551,0.06642
2356.92677,0.06699
2354.99802,0.06755
2353.06927,0.06811
2351.14053,0.06873
2349.21178,0.06944
2347.28304,0.07027
2345.35429,0.07123
2343.42555,0.07213
2341.49680,0.07276
2339.56806,0.07324
2337.63931,0.07384
2335.71057,0.07447
2333.78182,0.07508
2331.85308,0.07565
2329.92433,0.07601
2327.99559,0.07606
2326.06684,0.07584
2324.13810,0.07562
2322.20935,0.07584
2320.28060,0.07656
2318.35186,0.07747
2316.42311,0.07814
2314.49437,0.07837
2312.56562,0.07837
2310.63688,0.07836
2308.70813,0.07829
2306.77939,0.07799
2304.85064,0.07756
2302.92190,0.07719
2300.99315,0.07681
2299.06441,0.07630
2297.13566,0.07576
2295.20692,0.07515
2293.27817,0.07432
2291.34943,0.07348
2289.42068,0.07272
2287.49193,0.07192
2285.56319,0.07108
2283.63444,0.07024
2281.70570,0.06951
2279.77695,0.06902
2277.84821,0.06874
2275.91946,0.06877
2273.99072,0.06929
2272.06197,0.07011
2270.13323,0.07080
2268.20448,0.07123
2266.27574,0.07152
2264.34699,0.07174
2262.41825,0.07180
2260.48950,0.07169
2258.56075,0.07149
2256.63201,0.07120
2254.70326,0.07089
2252.77452,0.07061
2250.84577,0.07024
2248.91703,0.06963
2246.98828,0.06884
2245.05954,0.06795
2243.13079,0.06708
2241.20205,0.06628
2239.27330,0.06549
2237.34456,0.06487
2235.41581,0.06458
2233.48707,0.06447
2231.55832,0.06436
2229.62958,0.06432
2227.70083,0.06427
2225.77208,0.06419
2223.84334,0.06430
2221.91459,0.06465
2219.98585,0.06508
2218.05710,0.06538
2216.12836,0.06540
2214.19961,0.06528
2212.27087,0.06511
2210.34212,0.06492
2208.41338,0.06504
2206.48463,0.06566
2204.55589,0.06666
2202.62714,0.06787
2200.69840,0.06905
2198.76965,0.07008
2196.84090,0.07110
2194.91216,0.07219
2192.98341,0.07325
2191.05467,0.07414
2189.12592,0.07489
2187.19718,0.07570
2185.26843,0.07656
2183.33969,0.07736
2181.41094,0.07805
2179.48220,0.07859
2177.55345,0.07901
2175.62471,0.07922
2173.69596,0.07924
2171.76722,0.07927
2169.83847,0.07928
2167.90973,0.07914
2165.98098,0.07885
2164.05223,0.07848
2162.12349,0.07812
2160.19474,0.07777
2158.26600,0.07731
2156.33725,0.07673
2154.40851,0.07610
2152.47976,0.07551
2150.55102,0.07497
2148.62227,0.07436
2146.69353,0.07371
2144.76478,0.07319
2142.83604,0.07291
2140.90729,0.07280
2138.97855,0.07272
2137.04980,0.07264
2135.12106,0.07267
2133.19231,0.07283
2131.26356,0.07306
2129.33482,0.07333
2127.40607,0.07363
2125.47733,0.07387
2123.54858,0.07403
2121.61984,0.07428
2119.69109,0.07475
2117.76235,0.07522
2115.83360,0.07543
2113.90486,0.07547
2111.97611,0.07557
2110.04737,0.07580
2108.11862,0.07605
2106.18988,0.07625
2104.26113,0.07640
2102.33238,0.07641
2100.40364,0.07636
2098.47489,0.07640
2096.54615,0.07641
2094.61740,0.07618
2092.68866,0.07581
2090.75991,0.07561
2088.83117,0.07564
2086.90242,0.07570
2084.97368,0.07557
2083.04493,0.07520
2081.11619,0.07470
2079.18744,0.07432
2077.25870,0.07411
2075.32995,0.07387
2073.40121,0.07356
2071.47246,0.07341
2069.54371,0.07348
2067.61497,0.07363
2065.68622,0.07375
2063.75748,0.07384
2061.82873,0.07396
2059.89999,0.07424
2057.97124,0.07469
2056.04250,0.07508
2054.11375,0.07534
2052.18501,0.07560
2050.25626,0.07590
2048.32752,0.07620
2046.39877,0.07652
2044.47003,0.07689
2042.54128,0.07720
2040.61254,0.07738
2038.68379,0.07762
2036.75504,0.07796
2034.82630,0.07831
2032.89755,0.07858
2030.96881,0.07873
2029.04006,0.07896
2027.11132,0.07940
2025.18257,0.07990
2023.25383,0.08037
2021.32508,0.08079
2019.39634,0.08107
2017.46759,0.08127
2015.53885,0.08149
2013.61010,0.08157
2011.68136,0.08151
2009.75261,0.08151
2007.82386,0.08151
2005.89512,0.08135
2003.96637,0.08105
2002.03763,0.08062
2000.10888,0.08006
1998.18014,0.07935
1996.25139,0.07840
1994.32265,0.07724
1992.39390,0.07613
1990.46516,0.07529
1988.53641,0.07475
1986.60767,0.07436
1984.67892,0.07404
1982.75018,0.07372
1980.82143,0.07317
1978.89269,0.07235
1976.96394,0.07144
1975.03519,0.07048
1973.10645,0.06945
1971.17770,0.06834
1969.24896,0.06713
1967.32021,0.06580
1965.39147,0.06427
1963.46272,0.06253
1961.53398,0.06073
1959.60523,0.05899
1957.67649,0.05733
1955.74774,0.05590
1953.81900,0.05487
1951.89025,0.05423
1949.96151,0.05395
1948.03276,0.05405
1946.10402,0.05454
1944.17527,0.05540
1942.24652,0.05655
1940.31778,0.05778
1938.38903,0.05896
1936.46029,0.06020
1934.53154,0.06157
1932.60280,0.06303
1930.67405,0.06440
1928.74531,0.06561
1926.81656,0.06666
1924.88782,0.06749
1922.95907,0.06809
1921.03033,0.06848
1919.10158,0.06870
1917.17284,0.06886
1915.24409,0.06906
1913.31534,0.06927
1911.38660,0.06946
1909.45785,0.06961
1907.52911,0.06964
1905.60036,0.06950
1903.67162,0.06935
1901.74287,0.06940
1899.81413,0.06961
1897.88538,0.06976
1895.95664,0.06975
1894.02789,0.06979
1892.09915,0.07005
1890.17040,0.07029
1888.24166,0.07025
1886.31291,0.07012
1884.38417,0.07010
1882.45542,0.07023
1880.52667,0.07043
1878.59793,0.07041
1876.66918,0.07011
1874.74044,0.06975
1872.81169,0.06946
1870.88295,0.06920
1868.95420,0.06875
1867.02546,0.06810
1865.09671,0.06733
1863.16797,0.06646
1861.23922,0.06556
1859.31048,0.06469
1857.38173,0.06383
1855.45299,0.06293
1853.52424,0.06197
1851.59549,0.06096
1849.66675,0.05992
1847.73800,0.05885
1845.80926,0.05774
1843.88051,0.05661
1841.95177,0.05552
1840.02302,0.05443
1838.09428,0.05334
1836.16553,0.05220
1834.23679,0.05101
1832.30804,0.04987
1830.37930,0.04881
1828.45055,0.04785
1826.52181,0.04699
1824.59306,0.04620
1822.66432,0.04580
1820.73557,0.04583
1818.80682,0.04587
1816.87808,0.04571
1814.94933,0.04549
1813.02059,0.04532
1811.09184,0.04510
1809.16310,0.04474
1807.23435,0.04414
1805.30561,0.04335
1803.37686,0.04263
1801.44812,0.04207
1799.51937,0.04162
1797.59063,0.04126
1795.66188,0.04101
1793.73314,0.04084
1791.80439,0.04069
1789.87565,0.04065
1787.94690,0.04074
1786.01815,0.04072
1784.08941,0.04046
1782.16066,0.04016
1780.23192,0.03988
1778.30317,0.03956
1776.37443,0.03930
1774.44568,0.03915
1772.51694,0.03896
1770.58819,0.03861
1768.65945,0.03816
1766.73070,0.03774
1764.80196,0.03739
1762.87321,0.03694
1760.94447,0.03630
1759.01572,0.03577
1757.08697,0.03553
1755.15823,0.03532
1753.22948,0.03493
1751.30074,0.03444
1749.37199,0.03395
1747.44325,0.03353
1745.51450,0.03320
1743.58576,0.03292
1741.65701,0.03274
1739.72827,0.03288
1737.79952,0.03359
1735.87078,0.03490
1733.94203,0.03654
1732.01329,0.03827
1730.08454,0.04029
1728.15580,0.04254
1726.22705,0.04456
1724.29830,0.04634
1722.36956,0.04808
1720.44081,0.04967
1718.51207,0.05110
1716.58332,0.05226
1714.65458,0.05291
1712.72583,0.05309
1710.79709,0.05309
1708.86834,0.05301
1706.93960,0.05282
1705.01085,0.05262
1703.08211,0.05239
1701.15336,0.05196
1699.22462,0.05153
1697.29587,0.05129
1695.36713,0.05108
1693.43838,0.05092
1691.50963,0.05081
1689.58089,0.05063
1687.65214,0.05040
1685.72340,0.05011
1683.79465,0.04973
1681.86591,0.04947
1679.93716,0.04929
1678.00842,0.04905
1676.07967,0.04877
1674.15093,0.04865
1672.22218,0.04879
1670.29344,0.04889
1668.36469,0.04879
1666.43595,0.04873
1664.50720,0.04881
1662.57845,0.04889
1660.64971,0.04896
1658.72096,0.04917
1656.79222,0.04954
1654.86347,0.04985
1652.93473,0.05002
1651.00598,0.05011
1649.07724,0.05013
1647.14849,0.05010
1645.21975,0.05006
1643.29100,0.05000
1641.36226,0.04988
1639.43351,0.04991
1637.50477,0.05027
1635.57602,0.05064
1633.64728,0.05063
1631.71853,0.05048
1629.78978,0.05043
1627.86104,0.05029
1625.93229,0.05002
1624.00355,0.04991
1622.07480,0.04997
1620.14606,0.04998
1618.21731,0.04976
1616.28857,0.04924
1614.35982,0.04866
1612.43108,0.04828
1610.50233,0.04808
1608.57359,0.04798
1606.64484,0.04790
1604.71610,0.04789
1602.78735,0.04804
1600.85861,0.04822
1598.92986,0.04830
1597.00111,0.04829
1595.07237,0.04831
1593.14362,0.04842
1591.21488,0.04850
1589.28613,0.04838
1587.35739,0.04806
1585.42864,0.04749
1583.49990,0.04662
1581.57115,0.04570
1579.64241,0.04512
1577.71366,0.04495
1575.78492,0.04503
1573.85617,0.04539
1571.92743,0.04619
1569.99868,0.04734
1568.06993,0.04845
1566.14119,0.04931
1564.21244,0.05005
1562.28370,0.05079
1560.35495,0.05144
1558.42621,0.05177
1556.49746,0.05199
1554.56872,0.05229
1552.63997,0.05254
1550.71123,0.05273
1548.78248,0.05284
1546.85374,0.05274
1544.92499,0.05239
1542.99625,0.05195
1541.06750,0.05150
1539.13876,0.05099
1537.21001,0.05035
1535.28126,0.04952
1533.35252,0.04847
1531.42377,0.04749
1529.49503,0.04685
1527.56628,0.04658
1525.63754,0.04659
1523.70879,0.04673
1521.78005,0.04680
1519.85130,0.04661
1517.92256,0.04623
1515.99381,0.04597
1514.06507,0.04595
1512.13632,0.04588
1510.20758,0.04562
1508.27883,0.04515
1506.35008,0.04449
1504.42134,0.04417
1502.49259,0.04438
1500.56385,0.04476
1498.63510,0.04510
1496.70636,0.04532
1494.77761,0.04536
1492.84887,0.04525
1490.92012,0.04507
1488.99138,0.04463
1487.06263,0.04388
1485.13389,0.04309
1483.20514,0.04249
1481.27640,0.04213
1479.34765,0.04193
1477.41891,0.04175
1475.49016,0.04165
1473.56141,0.04155
1471.63267,0.04138
1469.70392,0.04125
1467.77518,0.04126
1465.84643,0.04133
1463.91769,0.04143
1461.98894,0.04163
1460.06020,0.04200
1458.13145,0.04243
1456.20271,0.04274
1454.27396,0.04294
1452.34522,0.04322
1450.41647,0.04357
1448.48773,0.04385
1446.55898,0.04401
1444.63024,0.04409
1442.70149,0.04417
1440.77274,0.04426
1438.84400,0.04436
1436.91525,0.04436
1434.98651,0.04419
1433.05776,0.04407
1431.12902,0.04401
1429.20027,0.04371
1427.27153,0.04328
1425.34278,0.04319
1423.41404,0.04336
1421.48529,0.04333
1419.55655,0.04299
1417.62780,0.04261
1415.69906,0.04239
1413.77031,0.04228
1411.84156,0.04221
1409.91282,0.04218
1407.98407,0.04212
1406.05533,0.04198
1404.12658,0.04178
1402.19784,0.04144
1400.26909,0.04101
1398.34035,0.04078
1396.41160,0.04069
1394.48286,0.04045
1392.55411,0.04022
1390.62537,0.04032
1388.69662,0.04060
1386.76788,0.04059
1384.83913,0.04033
1382.91039,0.04020
1380.98164,0.04033
1379.05289,0.04058
1377.12415,0.04084
1375.19540,0.04107
1373.26666,0.04122
1371.33791,0.04126
1369.40917,0.04121
1367.48042,0.04107
1365.55168,0.04089
1363.62293,0.04085
1361.69419,0.04084
1359.76544,0.04060
1357.83670,0.04029
1355.90795,0.04022
1353.97921,0.04029
1352.05046,0.04017
1350.12172,0.03976
1348.19297,0.03932
1346.26422,0.03911
1344.33548,0.03911
1342.40673,0.03907
1340.47799,0.03885
1338.54924,0.03858
1336.62050,0.03841
1334.69175,0.03827
1332.76301,0.03807
1330.83426,0.03788
1328.90552,0.03780
1326.97677,0.03769
1325.04803,0.03743
1323.11928,0.03725
1321.19054,0.03733
1319.26179,0.03741
1317.33304,0.03728
1315.40430,0.03698
1313.47555,0.03666
1311.54681,0.03641
1309.61806,0.03624
1307.68932,0.03604
1305.76057,0.03578
1303.83183,0.03553
1301.90308,0.03532
1299.97434,0.03514
1298.04559,0.03515
1296.11685,0.03537
1294.18810,0.03548
1292.25936,0.03534
1290.33061,0.03512
1288.40187,0.03504
1286.47312,0.03529
1284.54437,0.03569
1282.61563,0.03596
1280.68688,0.03622
1278.75814,0.03660
1276.82939,0.03706
1274.90065,0.03778
1272.97190,0.03882
1271.04316,0.03989
1269.11441,0.04074
1267.18567,0.04130
1265.25692,0.04144
1263.32818,0.04128
1261.39943,0.04113
1259.47069,0.04108
1257.54194,0.04114
1255.61320,0.04133
1253.68445,0.04158
1251.75570,0.04190
1249.82696,0.04241
1247.89821,0.04298
1245.96947,0.04343
1244.04072,0.04371
1242.11198,0.04387
1240.18323,0.04395
1238.25449,0.04394
1236.32574,0.04389
1234.39700,0.04391
1232.46825,0.04400
1230.53951,0.04398
1228.61076,0.04391
1226.68202,0.04388
1224.75327,0.04387
1222.82452,0.04394
1220.89578,0.04406
1218.96703,0.04413
1217.03829,0.04414
1215.10954,0.04407
1213.18080,0.04390
1211.25205,0.04369
1209.32331,0.04347
1207.39456,0.04332
1205.46582,0.04335
1203.53707,0.04354
1201.60833,0.04361
1199.67958,0.04354
1197.75084,0.04350
1195.82209,0.04342
1193.89335,0.04313
1191.96460,0.04283
1190.03585,0.04274
1188.10711,0.04278
1186.17836,0.04283
1184.24962,0.04290
1182.32087,0.04303
1180.39213,0.04314
1178.46338,0.04313
1176.53464,0.04304
1174.60589,0.04294
1172.67715,0.04283
1170.74840,0.04292
1168.81966,0.04329
1166.89091,0.04364
1164.96217,0.04388
1163.03342,0.04417
1161.10467,0.04472
1159.17593,0.04547
1157.24718,0.04595
1155.31844,0.04615
1153.38969,0.04654
1151.46095,0.04720
1149.53220,0.04786
1147.60346,0.04845
1145.67471,0.04898
1143.74597,0.04928
1141.81722,0.04930
1139.88848,0.04940
1137.95973,0.04980
1136.03099,0.05039
1134.10224,0.05100
1132.17350,0.05150
1130.24475,0.05199
1128.31600,0.05265
1126.38726,0.05343
1124.45851,0.05441
1122.52977,0.05567
1120.60102,0.05710
1118.67228,0.05855
1116.74353,0.05992
1114.81479,0.06110
1112.88604,0.06208
1110.95730,0.06307
1109.02855,0.06406
1107.09981,0.06492
1105.17106,0.06577
1103.24232,0.06689
1101.31357,0.06811
1099.38483,0.06894
1097.45608,0.06938
1095.52733,0.06974
1093.59859,0.07008
1091.66984,0.07042
1089.74110,0.07088
1087.81235,0.07111
1085.88361,0.07096
1083.95486,0.07098
1082.02612,0.07139
1080.09737,0.07187
1078.16863,0.07255
1076.23988,0.07349
1074.31114,0.07426
1072.38239,0.07473
1070.45365,0.07518
1068.52490,0.07563
1066.59615,0.07602
1064.66741,0.07627
1062.73866,0.07606
1060.80992,0.07546
1058.88117,0.07504
1056.95243,0.07502
1055.02368,0.07491
1053.09494,0.07443
1051.16619,0.07392
1049.23745,0.07362
1047.30870,0.07342
1045.37996,0.07329
1043.45121,0.07325
1041.52247,0.07319
1039.59372,0.07311
1037.66498,0.07308
1035.73623,0.07302
1033.80748,0.07270
1031.87874,0.07195
1029.94999,0.07089
1028.02125,0.06989
1026.09250,0.06922
1024.16376,0.06874
1022.23501,0.06819
1020.30627,0.06761
1018.37752,0.06725
1016.44878,0.06714
1014.52003,0.06712
1012.59129,0.06690
1010.66254,0.06638
1008.73380,0.06574
1006.80505,0.06507
1004.87631,0.06431
1002.94756,0.06362
1001.01881,0.06312
999.09007,0.06285
997.16132,0.06277
995.23258,0.06261
993.30383,0.06212
991.37509,0.06138
989.44634,0.06084
987.51760,0.06079
985.58885,0.06070
983.66011,0.06027
981.73136,0.06013
979.80262,0.06049
977.87387,0.06080
975.94513,0.06076
974.01638,0.06065
972.08763,0.06074
970.15889,0.06077
968.23014,0.06062
966.30140,0.06055
964.37265,0.06052
962.44391,0.06038
960.51516,0.06030
958.58642,0.06028
956.65767,0.06020
954.72893,0.06001
952.80018,0.05981
950.87144,0.05976
948.94269,0.05992
947.01395,0.06012
945.08520,0.06024
943.15646,0.06030
941.22771,0.06030
939.29896,0.06028
937.37022,0.06022
935.44147,0.06010
933.51273,0.06012
931.58398,0.06024
929.65524,0.06021
927.72649,0.06017
925.79775,0.06030
923.86900,0.06022
921.94026,0.05986
920.01151,0.05937
918.08277,0.05873
916.15402,0.05838
914.22528,0.05849
912.29653,0.05848
910.36779,0.05819
908.43904,0.05807
906.51029,0.05826
904.58155,0.05850
902.65280,0.05863
900.72406,0.05853
898.79531,0.05819
896.86657,0.05795
894.93782,0.05788
893.00908,0.05765
891.08033,0.05734
889.15159,0.05724
887.22284,0.05720
885.29410,0.05704
883.36535,0.05684
881.43661,0.05653
879.50786,0.05627
877.57911,0.05649
875.65037,0.05697
873.72162,0.05712
871.79288,0.05702
869.86413,0.05682
867.93539,0.05633
866.00664,0.05594
864.07790,0.05613
862.14915,0.05628
860.22041,0.05580
858.29166,0.05522
856.36292,0.05508
854.43417,0.05512
852.50543,0.05499
850.57668,0.05469
848.64794,0.05435
846.71919,0.05418
844.79044,0.05430
842.86170,0.05446
840.93295,0.05430
839.00421,0.05399
837.07546,0.05393
835.14672,0.05400
833.21797,0.05413
831.28923,0.05434
829.36048,0.05470
827.43174,0.05529
825.50299,0.05569
823.57425,0.05553
821.64550,0.05510
819.71676,0.05477
817.78801,0.05476
815.85926,0.05484
813.93052,0.05472
812.00177,0.05464
810.07303,0.05472
808.14428,0.05476
806.21554,0.05478
804.28679,0.05497
802.35805,0.05535
800.42930,0.05563
798.50056,0.05562
796.57181,0.05543
794.64307,0.05528
792.71432,0.05509
790.78558,0.05492
788.85683,0.05501
786.92809,0.05528
784.99934,0.05526
783.07059,0.05482
781.14185,0.05444
779.21310,0.05459
777.28436,0.05519
775.35561,0.05585
773.42687,0.05621
771.49812,0.05608
769.56938,0.05550
767.64063,0.05481
765.71189,0.05447
763.78314,0.05447
761.85440,0.05430
759.92565,0.05389
757.99691,0.05369
756.06816,0.05364
754.13942,0.05372
752.21067,0.05409
750.28192,0.05440
748.35318,0.05447
746.42443,0.05453
744.49569,0.05450
742.56694,0.05423
740.63820,0.05394
738.70945,0.05373
736.78071,0.05355
734.85196,0.05373
732.92322,0.05449
730.99447,0.05542
729.06573,0.05613
727.13698,0.05630
725.20824,0.05574
723.27949,0.05507
721.35074,0.05512
719.42200,0.05548
717.49325,0.05516
715.56451,0.05423
713.63576,0.05347
711.70702,0.05331
709.77827,0.05364
707.84953,0.05379
705.92078,0.05338
703.99204,0.05315
702.06329,0.05343
700.13455,0.05337
698.20580,0.05264
696.27706,0.05201
694.34831,0.05200
692.41957,0.05249
690.49082,0.05326
688.56207,0.05386
686.63333,0.05385
684.70458,0.05341
682.77584,0.05299
680.84709,0.05279
678.91835,0.05288
676.98960,0.05305
675.06086,0.05271
673.13211,0.05205
671.20337,0.05174
669.27462,0.05172
667.34588,0.05174
665.41713,0.05158
663.48839,0.05129
661.55964,0.05139
659.63090,0.05173
657.70215,0.05169
655.77340,0.05128
653.84466,0.05121
651.91591,0.05147
649.98717,0.05127
648.05842,0.05085
646.12968,0.05087
644.20093,0.05089
642.27219,0.05045
640.34344,0.04998
638.41470,0.04953
636.48595,0.04883
634.55721,0.04847
632.62846,0.04890
630.69972,0.04961
628.77097,0.05016
626.84222,0.05052
624.91348,0.05053
622.98473,0.05016
621.05599,0.05015
619.12724,0.05082
617.19850,0.05129
615.26975,0.05110
613.34101,0.05065
611.41226,0.05023
609.48352,0.04962
607.55477,0.04925
605.62603,0.05002
603.69728,0.05079
601.76854,0.05007
599.83979,0.04901
