7497.03301,0.50079
7495.10426,0.49876
7493.17552,0.49682
7491.24677,0.49723
7489.31803,0.49953
7487.38928,0.50058
7485.46054,0.50132
7483.53179,0.50499
7481.60305,0.50834
7479.67430,0.50684
7477.74556,0.50308
7475.81681,0.50063
7473.88807,0.49832
7471.95932,0.49598
7470.03057,0.49602
7468.10183,0.49817
7466.17308,0.49941
7464.24434,0.49871
7462.31559,0.49754
7460.38685,0.49731
7458.45810,0.49768
7456.52936,0.49621
7454.60061,0.49447
7452.67187,0.49639
7450.74312,0.49867
7448.81438,0.49675
7446.88563,0.49187
7444.95689,0.48901
7443.02814,0.49240
7441.09940,0.49895
7439.17065,0.50230
7437.24190,0.50042
7435.31316,0.49676
7433.38441,0.49602
7431.45567,0.49738
7429.52692,0.49898
7427.59818,0.50182
7425.66943,0.50401
7423.74069,0.50235
7421.81194,0.49866
7419.88320,0.49598
7417.95445,0.49188
7416.02571,0.48511
7414.09696,0.48151
7412.16822,0.48318
7410.23947,0.48520
7408.31073,0.48653
7406.38198,0.48806
7404.45323,0.48669
7402.52449,0.48339
7400.59574,0.48202
7398.66700,0.48155
7396.73825,0.48093
7394.80951,0.48185
7392.88076,0.48355
7390.95202,0.48337
7389.02327,0.48278
7387.09453,0.48446
7385.16578,0.48733
7383.23704,0.48853
7381.30829,0.48702
7379.37955,0.48546
7377.45080,0.48344
7375.52205,0.47941
7373.59331,0.47885
7371.66456,0.48312
7369.73582,0.48560
7367.80707,0.48510
7365.87833,0.48465
7363.94958,0.48274
7362.02084,0.47831
7360.09209,0.47431
7358.16335,0.47172
7356.23460,0.46946
7354.30586,0.46812
7352.37711,0.46844
7350.44837,0.46877
7348.51962,0.46803
7346.59088,0.46776
7344.66213,0.46913
7342.73338,0.47036
7340.80464,0.46737
7338.87589,0.46132
7336.94715,0.45828
7335.01840,0.45953
7333.08966,0.46294
7331.16091,0.46617
7329.23217,0.46701
7327.30342,0.46527
7325.37468,0.46315
7323.44593,0.46343
7321.51719,0.46487
7319.58844,0.46386
7317.65970,0.46065
7315.73095,0.45905
7313.80221,0.45972
7311.87346,0.45892
7309.94471,0.45697
7308.01597,0.45636
7306.08722,0.45607
7304.15848,0.45734
7302.22973,0.45989
7300.30099,0.45788
7298.37224,0.45271
7296.44350,0.45166
7294.51475,0.45407
7292.58601,0.45490
7290.65726,0.45227
7288.72852,0.44757
7286.79977,0.44515
7284.87103,0.44608
7282.94228,0.44650
7281.01353,0.44553
7279.08479,0.44495
7277.15604,0.44427
7275.22730,0.44359
7273.29855,0.44406
7271.36981,0.44343
7269.44106,0.43881
7267.51232,0.43271
7265.58357,0.42966
7263.65483,0.42977
7261.72608,0.43144
7259.79734,0.43449
7257.86859,0.43745
7255.93985,0.43820
7254.01110,0.43708
7252.08236,0.43561
7250.15361,0.43322
7248.22486,0.42901
7246.29612,0.42635
7244.36737,0.42760
7242.43863,0.42956
7240.50988,0.43097
7238.58114,0.43339
7236.65239,0.43452
7234.72365,0.43119
7232.79490,0.42467
7230.86616,0.42003
7228.93741,0.41987
7227.00867,0.42104
7225.07992,0.42134
7223.15118,0.42128
7221.22243,0.42058
7219.29369,0.41932
7217.36494,0.41930
7215.43619,0.42168
7213.50745,0.42314
7211.57870,0.41988
7209.64996,0.41561
7207.72121,0.41537
7205.79247,0.41644
7203.86372,0.41534
7201.93498,0.41461
7200.00623,0.41616
7198.07749,0.41799
7196.14874,0.41766
7194.22000,0.41564
7192.29125,0.41538
7190.36251,0.41791
7188.43376,0.41968
7186.50501,0.41765
7184.57627,0.41395
7182.64752,0.41146
7180.71878,0.40876
7178.79003,0.40687
7176.86129,0.40834
7174.93254,0.41081
7173.00380,0.41246
7171.07505,0.41438
7169.14631,0.41656
7167.21756,0.41794
7165.28882,0.41812
7163.36007,0.41775
7161.43133,0.41753
7159.50258,0.41635
7157.57384,0.41421
7155.64509,0.41507
7153.71634,0.41867
7151.78760,0.41909
7149.85885,0.41581
7147.93011,0.41295
7146.00136,0.41163
7144.07262,0.41064
7142.14387,0.40912
7140.21513,0.40856
7138.28638,0.41145
7136.35764,0.41543
7134.42889,0.41567
7132.50015,0.41447
7130.57140,0.41655
7128.64266,0.42002
7126.71391,0.42106
7124.78516,0.41968
7122.85642,0.41839
7120.92767,0.41833
7118.99893,0.41883
7117.07018,0.41947
7115.14144,0.41890
7113.21269,0.41768
7111.28395,0.41844
7109.35520,0.42001
7107.42646,0.41921
7105.49771,0.41595
7103.56897,0.41210
7101.64022,0.40928
7099.71148,0.40914
7097.78273,0.41036
7095.85399,0.40946
7093.92524,0.40851
7091.99649,0.41120
7090.06775,0.41467
7088.13900,0.41394
7086.21026,0.41000
7084.28151,0.40821
7082.35277,0.40921
7080.42402,0.41086
7078.49528,0.41315
7076.56653,0.41372
7074.63779,0.41063
7072.70904,0.40780
7070.78030,0.40890
7068.85155,0.41273
7066.92281,0.41648
7064.99406,0.41773
7063.06532,0.41547
7061.13657,0.41203
7059.20782,0.41004
7057.27908,0.40897
7055.35033,0.40802
7053.42159,0.40868
7051.49284,0.41051
7049.56410,0.41004
7047.63535,0.40862
7045.70661,0.41097
7043.77786,0.41581
7041.84912,0.41928
7039.92037,0.42101
7037.99163,0.42060
7036.06288,0.41817
7034.13414,0.41688
7032.20539,0.41831
7030.27664,0.42063
7028.34790,0.42194
7026.41915,0.42238
7024.49041,0.42223
7022.56166,0.42123
7020.63292,0.42048
7018.70417,0.41942
7016.77543,0.41733
7014.84668,0.41706
7012.91794,0.41825
7010.98919,0.41710
7009.06045,0.41456
7007.13170,0.41499
7005.20296,0.41782
7003.27421,0.41734
7001.34547,0.41380
6999.41672,0.41329
6997.48797,0.41516
6995.55923,0.41458
6993.63048,0.41256
6991.70174,0.41195
6989.77299,0.41260
6987.84425,0.41413
6985.91550,0.41597
6983.98676,0.41798
6982.05801,0.42049
6980.12927,0.42239
6978.20052,0.42356
6976.27178,0.42462
6974.34303,0.42561
6972.41429,0.42681
6970.48554,0.42708
6968.55680,0.42594
6966.62805,0.42637
6964.69930,0.42908
6962.77056,0.43083
6960.84181,0.43116
6958.91307,0.43184
6956.98432,0.43290
6955.05558,0.43403
6953.12683,0.43472
6951.19809,0.43443
6949.26934,0.43432
6947.34060,0.43555
6945.41185,0.43657
6943.48311,0.43545
6941.55436,0.43395
6939.62562,0.43440
6937.69687,0.43623
6935.76812,0.43777
6933.83938,0.43825
6931.91063,0.43789
6929.98189,0.43786
6928.05314,0.43901
6926.12440,0.43967
6924.19565,0.43856
6922.26691,0.43722
6920.33816,0.43637
6918.40942,0.43649
6916.48067,0.43840
6914.55193,0.43981
6912.62318,0.43937
6910.69444,0.43959
6908.76569,0.44144
6906.83695,0.44324
6904.90820,0.44441
6902.97945,0.44646
6901.05071,0.44920
6899.12196,0.45019
6897.19322,0.44922
6895.26447,0.44784
6893.33573,0.44658
6891.40698,0.44594
6889.47824,0.44706
6887.54949,0.44850
6885.62075,0.44702
6883.69200,0.44413
6881.76326,0.44470
6879.83451,0.44906
6877.90577,0.45231
6875.97702,0.45080
6874.04828,0.44752
6872.11953,0.44774
6870.19078,0.45036
6868.26204,0.45156
6866.33329,0.45113
6864.40455,0.44918
6862.47580,0.44700
6860.54706,0.44702
6858.61831,0.44872
6856.68957,0.45095
6854.76082,0.45301
6852.83208,0.45397
6850.90333,0.45471
6848.97459,0.45620
6847.04584,0.45704
6845.11710,0.45601
6843.18835,0.45476
6841.25960,0.45514
6839.33086,0.45670
6837.40211,0.45819
6835.47337,0.45832
6833.54462,0.45700
6831.61588,0.45667
6829.68713,0.45768
6827.75839,0.45685
6825.82964,0.45437
6823.90090,0.45364
6821.97215,0.45483
6820.04341,0.45498
6818.11466,0.45402
6816.18592,0.45524
6814.25717,0.45838
6812.32843,0.46070
6810.39968,0.46269
6808.47093,0.46487
6806.54219,0.46507
6804.61344,0.46203
6802.68470,0.45808
6800.75595,0.45723
6798.82721,0.46010
6796.89846,0.46277
6794.96972,0.46343
6793.04097,0.46390
6791.11223,0.46474
6789.18348,0.46508
6787.25474,0.46403
6785.32599,0.46211
6783.39725,0.46073
6781.46850,0.45953
6779.53975,0.45850
6777.61101,0.45847
6775.68226,0.45931
6773.75352,0.46081
6771.82477,0.46223
6769.89603,0.46277
6767.96728,0.46337
6766.03854,0.46538
6764.10979,0.46761
6762.18105,0.46717
6760.25230,0.46474
6758.32356,0.46398
6756.39481,0.46480
6754.46607,0.46419
6752.53732,0.46141
6750.60858,0.45946
6748.67983,0.46220
6746.75108,0.46728
6744.82234,0.46967
6742.89359,0.47011
6740.96485,0.47027
6739.03610,0.46949
6737.10736,0.46779
6735.17861,0.46607
6733.24987,0.46587
6731.32112,0.46739
6729.39238,0.46901
6727.46363,0.46837
6725.53489,0.46487
6723.60614,0.46232
6721.67740,0.46318
6719.74865,0.46551
6717.81991,0.46771
6715.89116,0.46943
6713.96241,0.47094
6712.03367,0.47147
6710.10492,0.46954
6708.17618,0.46755
6706.24743,0.46823
6704.31869,0.46993
6702.38994,0.47028
6700.46120,0.46950
6698.53245,0.46912
6696.60371,0.46957
6694.67496,0.47059
6692.74622,0.47204
6690.81747,0.47274
6688.88873,0.47116
6686.95998,0.46803
6685.03123,0.46594
6683.10249,0.46586
6681.17374,0.46688
6679.24500,0.46791
6677.31625,0.46820
6675.38751,0.46780
6673.45876,0.46797
6671.53002,0.47028
6669.60127,0.47426
6667.67253,0.47701
6665.74378,0.47708
6663.81504,0.47678
6661.88629,0.47671
6659.95755,0.47495
6658.02880,0.47339
6656.10006,0.47376
6654.17131,0.47374
6652.24256,0.47295
6650.31382,0.47243
6648.38507,0.47199
6646.45633,0.47159
6644.52758,0.47078
6642.59884,0.47047
6640.67009,0.47201
6638.74135,0.47397
6636.81260,0.47602
6634.88386,0.47881
6632.95511,0.48048
6631.02637,0.48038
6629.09762,0.47954
6627.16888,0.47728
6625.24013,0.47423
6623.31139,0.47286
6621.38264,0.47368
6619.45389,0.47577
6617.52515,0.47717
6615.59640,0.47647
6613.66766,0.47586
6611.73891,0.47730
6609.81017,0.47982
6607.88142,0.48081
6605.95268,0.47870
6604.02393,0.47660
6602.09519,0.47731
6600.16644,0.47946
6598.23770,0.48065
6596.30895,0.48014
6594.38021,0.47949
6592.45146,0.48021
6590.52271,0.48105
6588.59397,0.47973
6586.66522,0.47802
6584.73648,0.47903
6582.80773,0.48084
6580.87899,0.48089
6578.95024,0.48011
6577.02150,0.47993
6575.09275,0.47934
6573.16401,0.47699
6571.23526,0.47516
6569.30652,0.47582
6567.37777,0.47691
6565.44903,0.47644
6563.52028,0.47505
6561.59154,0.47408
6559.66279,0.47404
6557.73404,0.47492
6555.80530,0.47666
6553.87655,0.47942
6551.94781,0.48248
6550.01906,0.48366
6548.09032,0.48176
6546.16157,0.47889
6544.23283,0.47830
6542.30408,0.47934
6540.37534,0.47920
6538.44659,0.47844
6536.51785,0.47824
6534.58910,0.47728
6532.66036,0.47615
6530.73161,0.47734
6528.80287,0.47951
6526.87412,0.47983
6524.94537,0.47987
6523.01663,0.48155
6521.08788,0.48274
6519.15914,0.48231
6517.23039,0.48169
6515.30165,0.48114
6513.37290,0.48087
6511.44416,0.48142
6509.51541,0.48239
6507.58667,0.48278
6505.65792,0.48210
6503.72918,0.48213
6501.80043,0.48380
6499.87169,0.48499
6497.94294,0.48461
6496.01419,0.48384
6494.08545,0.48375
6492.15670,0.48415
6490.22796,0.48461
6488.29921,0.48498
6486.37047,0.48517
6484.44172,0.48541
6482.51298,0.48576
6480.58423,0.48660
6478.65549,0.48737
6476.72674,0.48697
6474.79800,0.48626
6472.86925,0.48571
6470.94051,0.48484
6469.01176,0.48452
6467.08302,0.48528
6465.15427,0.48609
6463.22552,0.48619
6461.29678,0.48646
6459.36803,0.48769
6457.43929,0.48990
6455.51054,0.49247
6453.58180,0.49343
6451.65305,0.49166
6449.72431,0.48904
6447.79556,0.48790
6445.86682,0.48838
6443.93807,0.48948
6442.00933,0.48991
6440.08058,0.48982
6438.15184,0.49097
6436.22309,0.49161
6434.29434,0.48917
6432.36560,0.48642
6430.43685,0.48639
6428.50811,0.48771
6426.57936,0.48832
6424.65062,0.48818
6422.72187,0.48775
6420.79313,0.48788
6418.86438,0.48939
6416.93564,0.49126
6415.00689,0.49148
6413.07815,0.49018
6411.14940,0.49024
6409.22066,0.49204
6407.29191,0.49243
6405.36317,0.49127
6403.43442,0.49083
6401.50567,0.49080
6399.57693,0.49006
6397.64818,0.48871
6395.71944,0.48729
6393.79069,0.48674
6391.86195,0.48731
6389.93320,0.48802
6388.00446,0.48820
6386.07571,0.48756
6384.14697,0.48675
6382.21822,0.48720
6380.28948,0.48801
6378.36073,0.48769
6376.43199,0.48757
6374.50324,0.48824
6372.57450,0.48840
6370.64575,0.48787
6368.71700,0.48653
6366.78826,0.48501
6364.85951,0.48541
6362.93077,0.48707
6361.00202,0.48721
6359.07328,0.48612
6357.14453,0.48582
6355.21579,0.48621
6353.28704,0.48604
6351.35830,0.48431
6349.42955,0.48241
6347.50081,0.48372
6345.57206,0.48652
6343.64332,0.48629
6341.71457,0.48382
6339.78582,0.48256
6337.85708,0.48357
6335.92833,0.48539
6333.99959,0.48611
6332.07084,0.48609
6330.14210,0.48672
6328.21335,0.48764
6326.28461,0.48741
6324.35586,0.48623
6322.42712,0.48603
6320.49837,0.48759
6318.56963,0.48917
6316.64088,0.48939
6314.71214,0.48862
6312.78339,0.48680
6310.85465,0.48512
6308.92590,0.48591
6306.99715,0.48727
6305.06841,0.48656
6303.13966,0.48580
6301.21092,0.48695
6299.28217,0.48824
6297.35343,0.48800
6295.42468,0.48712
6293.49594,0.48672
6291.56719,0.48734
6289.63845,0.48918
6287.70970,0.49121
6285.78096,0.49258
6283.85221,0.49295
6281.92347,0.49138
6279.99472,0.48875
6278.06598,0.48804
6276.13723,0.48984
6274.20848,0.49129
6272.27974,0.49094
6270.35099,0.49019
6268.42225,0.48975
6266.49350,0.48930
6264.56476,0.48916
6262.63601,0.48978
6260.70727,0.49043
6258.77852,0.49013
6256.84978,0.48962
6254.92103,0.48933
6252.99229,0.48825
6251.06354,0.48696
6249.13480,0.48729
6247.20605,0.48890
6245.27730,0.49023
6243.34856,0.49090
6241.41981,0.49111
6239.49107,0.49086
6237.56232,0.49024
6235.63358,0.48851
6233.70483,0.48577
6231.77609,0.48437
6229.84734,0.48543
6227.91860,0.48746
6225.98985,0.48851
6224.06111,0.48833
6222.13236,0.48831
6220.20362,0.48854
6218.27487,0.48822
6216.34613,0.48756
6214.41738,0.48658
6212.48863,0.48514
6210.55989,0.48428
6208.63114,0.48435
6206.70240,0.48445
6204.77365,0.48462
6202.84491,0.48454
6200.91616,0.48336
6198.98742,0.48178
6197.05867,0.48053
6195.12993,0.47920
6193.20118,0.47747
6191.27244,0.47545
6189.34369,0.47328
6187.41495,0.47205
6185.48620,0.47362
6183.55746,0.47741
6181.62871,0.47988
6179.69996,0.47961
6177.77122,0.47915
6175.84247,0.47894
6173.91373,0.47753
6171.98498,0.47638
6170.05624,0.47647
6168.12749,0.47634
6166.19875,0.47559
6164.27000,0.47542
6162.34126,0.47599
6160.41251,0.47591
6158.48377,0.47456
6156.55502,0.47208
6154.62628,0.46969
6152.69753,0.46932
6150.76878,0.47046
6148.84004,0.47112
6146.91129,0.47089
6144.98255,0.47079
6143.05380,0.47137
6141.12506,0.47219
6139.19631,0.47202
6137.26757,0.46950
6135.33882,0.46691
6133.41008,0.46758
6131.48133,0.46963
6129.55259,0.46965
6127.62384,0.46849
6125.69510,0.46851
6123.76635,0.46874
6121.83761,0.46728
6119.90886,0.46532
6117.98011,0.46437
6116.05137,0.46373
6114.12262,0.46239
6112.19388,0.45968
6110.26513,0.45578
6108.33639,0.45239
6106.40764,0.45074
6104.47890,0.45058
6102.55015,0.45019
6100.62141,0.44750
6098.69266,0.44302
6096.76392,0.43903
6094.83517,0.43601
6092.90643,0.43308
6090.97768,0.42973
6089.04893,0.42544
6087.12019,0.42059
6085.19144,0.41705
6083.26270,0.41512
6081.33395,0.41363
6079.40521,0.41248
6077.47646,0.41142
6075.54772,0.40918
6073.61897,0.40539
6071.69023,0.40091
6069.76148,0.39624
6067.83274,0.39169
6065.90399,0.38768
6063.97525,0.38410
6062.04650,0.38028
6060.11776,0.37605
6058.18901,0.37247
6056.26026,0.36950
6054.33152,0.36624
6052.40277,0.36309
6050.47403,0.36057
6048.54528,0.35805
6046.61654,0.35460
6044.68779,0.35130
6042.75905,0.34931
6040.83030,0.34753
6038.90156,0.34576
6036.97281,0.34397
6035.04407,0.34078
6033.11532,0.33660
6031.18658,0.33250
6029.25783,0.32893
6027.32909,0.32646
6025.40034,0.32499
6023.47159,0.32375
6021.54285,0.32167
6019.61410,0.31891
6017.68536,0.31756
6015.75661,0.31781
6013.82787,0.31801
6011.89912,0.31806
6009.97038,0.31863
6008.04163,0.31999
6006.11289,0.32260
6004.18414,0.32642
6002.25540,0.33083
6000.32665,0.33586
5998.39791,0.34153
5996.46916,0.34677
5994.54041,0.35128
5992.61167,0.35501
5990.68292,0.35728
5988.75418,0.35924
5986.82543,0.36246
5984.89669,0.36602
5982.96794,0.36873
5981.03920,0.37061
5979.11045,0.37153
5977.18171,0.37161
5975.25296,0.37164
5973.32422,0.37215
5971.39547,0.37276
5969.46673,0.37300
5967.53798,0.37343
5965.60924,0.37424
5963.68049,0.37427
5961.75174,0.37325
5959.82300,0.37176
5957.89425,0.36948
5955.96551,0.36687
5954.03676,0.36434
5952.10802,0.36058
5950.17927,0.35534
5948.25053,0.34991
5946.32178,0.34549
5944.39304,0.34223
5942.46429,0.33920
5940.53555,0.33563
5938.60680,0.33172
5936.67806,0.32826
5934.74931,0.32539
5932.82057,0.32227
5930.89182,0.31835
5928.96307,0.31390
5927.03433,0.30956
5925.10558,0.30588
5923.17684,0.30243
5921.24809,0.29815
5919.31935,0.29346
5917.39060,0.29016
5915.46186,0.28875
5913.53311,0.28701
5911.60437,0.28347
5909.67562,0.27956
5907.74688,0.27583
5905.81813,0.27194
5903.88939,0.26898
5901.96064,0.26674
5900.03189,0.26356
5898.10315,0.25948
5896.17440,0.25563
5894.24566,0.25235
5892.31691,0.24921
5890.38817,0.24552
5888.45942,0.24122
5886.53068,0.23678
5884.60193,0.23272
5882.67319,0.22980
5880.74444,0.22764
5878.81570,0.22509
5876.88695,0.22237
5874.95821,0.22007
5873.02946,0.21789
5871.10072,0.21521
5869.17197,0.21216
5867.24322,0.20944
5865.31448,0.20674
5863.38573,0.20365
5861.45699,0.20051
5859.52824,0.19733
5857.59950,0.19412
5855.67075,0.19079
5853.74201,0.18713
5851.81326,0.18396
5849.88452,0.18133
5847.95577,0.17811
5846.02703,0.17488
5844.09828,0.17239
5842.16954,0.17022
5840.24079,0.16825
5838.31205,0.16611
5836.38330,0.16336
5834.45455,0.16062
5832.52581,0.15846
5830.59706,0.15671
5828.66832,0.15547
5826.73957,0.15529
5824.81083,0.15630
5822.88208,0.15837
5820.95334,0.16089
5819.02459,0.16295
5817.09585,0.16479
5815.16710,0.16740
5813.23836,0.17064
5811.30961,0.17330
5809.38087,0.17512
5807.45212,0.17766
5805.52337,0.18153
5803.59463,0.18539
5801.66588,0.18844
5799.73714,0.19091
5797.80839,0.19348
5795.87965,0.19705
5793.95090,0.20162
5792.02216,0.20599
5790.09341,0.20877
5788.16467,0.21017
5786.23592,0.21190
5784.30718,0.21481
5782.37843,0.21844
5780.44969,0.22184
5778.52094,0.22430
5776.59220,0.22578
5774.66345,0.22648
5772.73470,0.22757
5770.80596,0.22968
5768.87721,0.23133
5766.94847,0.23209
5765.01972,0.23268
5763.09098,0.23259
5761.16223,0.23131
5759.23349,0.22968
5757.30474,0.22889
5755.37600,0.22896
5753.44725,0.22898
5751.51851,0.22852
5749.58976,0.22761
5747.66102,0.22626
5745.73227,0.22514
5743.80352,0.22501
5741.87478,0.22553
5739.94603,0.22570
5738.01729,0.22483
5736.08854,0.22376
5734.15980,0.22361
5732.23105,0.22387
5730.30231,0.22402
5728.37356,0.22423
5726.44482,0.22463
5724.51607,0.22496
5722.58733,0.22490
5720.65858,0.22511
5718.72984,0.22568
5716.80109,0.22576
5714.87235,0.22579
5712.94360,0.22632
5711.01485,0.22650
5709.08611,0.22594
5707.15736,0.22505
5705.22862,0.22401
5703.29987,0.22319
5701.37113,0.22288
5699.44238,0.22326
5697.51364,0.22461
5695.58489,0.22659
5693.65615,0.22856
5691.72740,0.23044
5689.79866,0.23217
5687.86991,0.23353
5685.94117,0.23505
5684.01242,0.23718
5682.08368,0.23973
5680.15493,0.24239
5678.22618,0.24446
5676.29744,0.24582
5674.36869,0.24767
5672.43995,0.25061
5670.51120,0.25287
5668.58246,0.25314
5666.65371,0.25320
5664.72497,0.25390
5662.79622,0.25430
5660.86748,0.25481
5658.93873,0.25608
5657.00999,0.25770
5655.08124,0.25870
5653.15250,0.25890
5651.22375,0.25954
5649.29500,0.26109
5647.36626,0.26237
5645.43751,0.26281
5643.50877,0.26326
5641.58002,0.26437
5639.65128,0.26572
5637.72253,0.26675
5635.79379,0.26770
5633.86504,0.26914
5631.93630,0.27100
5630.00755,0.27296
5628.07881,0.27447
5626.15006,0.27530
5624.22132,0.27650
5622.29257,0.27839
5620.36383,0.27976
5618.43508,0.28034
5616.50633,0.28091
5614.57759,0.28190
5612.64884,0.28316
5610.72010,0.28404
5608.79135,0.28435
5606.86261,0.28462
5604.93386,0.28534
5603.00512,0.28627
5601.07637,0.28693
5599.14763,0.28757
5597.21888,0.28854
5595.29014,0.28973
5593.36139,0.29096
5591.43265,0.29196
5589.50390,0.29266
5587.57516,0.29328
5585.64641,0.29396
5583.71766,0.29513
5581.78892,0.29699
5579.86017,0.29868
5577.93143,0.29958
5576.00268,0.29968
5574.07394,0.29912
5572.14519,0.29878
5570.21645,0.29940
5568.28770,0.30072
5566.35896,0.30238
5564.43021,0.30391
5562.50147,0.30473
5560.57272,0.30533
5558.64398,0.30596
5556.71523,0.30574
5554.78648,0.30499
5552.85774,0.30490
5550.92899,0.30584
5549.00025,0.30749
5547.07150,0.30862
5545.14276,0.30831
5543.21401,0.30747
5541.28527,0.30759
5539.35652,0.30898
5537.42778,0.31068
5535.49903,0.31139
5533.57029,0.31097
5531.64154,0.31079
5529.71280,0.31151
5527.78405,0.31200
5525.85531,0.31172
5523.92656,0.31132
5521.99781,0.31110
5520.06907,0.31152
5518.14032,0.31246
5516.21158,0.31256
5514.28283,0.31197
5512.35409,0.31228
5510.42534,0.31348
5508.49660,0.31402
5506.56785,0.31369
5504.63911,0.31369
5502.71036,0.31399
5500.78162,0.31364
5498.85287,0.31278
5496.92413,0.31241
5494.99538,0.31290
5493.06664,0.31346
5491.13789,0.31335
5489.20914,0.31263
5487.28040,0.31160
5485.35165,0.31075
5483.42291,0.31041
5481.49416,0.31027
5479.56542,0.31038
5477.63667,0.31098
5475.70793,0.31149
5473.77918,0.31139
5471.85044,0.31106
5469.92169,0.31099
5467.99295,0.31148
5466.06420,0.31240
5464.13546,0.31273
5462.20671,0.31200
5460.27796,0.31131
5458.34922,0.31172
5456.42047,0.31287
5454.49173,0.31399
5452.56298,0.31521
5450.63424,0.31663
5448.70549,0.31753
5446.77675,0.31799
5444.84800,0.31901
5442.91926,0.32078
5440.99051,0.32262
5439.06177,0.32412
5437.13302,0.32576
5435.20428,0.32731
5433.27553,0.32788
5431.34679,0.32796
5429.41804,0.32848
5427.48929,0.32920
5425.56055,0.32987
5423.63180,0.33080
5421.70306,0.33140
5419.77431,0.33128
5417.84557,0.33156
5415.91682,0.33248
5413.98808,0.33326
5412.05933,0.33412
5410.13059,0.33521
5408.20184,0.33560
5406.27310,0.33511
5404.34435,0.33459
5402.41561,0.33422
5400.48686,0.33427
5398.55811,0.33560
5396.62937,0.33749
5394.70062,0.33863
5392.77188,0.33918
5390.84313,0.33947
5388.91439,0.33966
5386.98564,0.34015
5385.05690,0.34051
5383.12815,0.34015
5381.19941,0.33964
5379.27066,0.33962
5377.34192,0.34010
5375.41317,0.34136
5373.48443,0.34299
5371.55568,0.34417
5369.62694,0.34526
5367.69819,0.34631
5365.76944,0.34655
5363.84070,0.34615
5361.91195,0.34597
5359.98321,0.34617
5358.05446,0.34690
5356.12572,0.34841
5354.19697,0.34981
5352.26823,0.35022
5350.33948,0.34974
5348.41074,0.34913
5346.48199,0.34944
5344.55325,0.35004
5342.62450,0.34946
5340.69576,0.34875
5338.76701,0.34986
5336.83827,0.35199
5334.90952,0.35286
5332.98077,0.35265
5331.05203,0.35287
5329.12328,0.35388
5327.19454,0.35499
5325.26579,0.35551
5323.33705,0.35564
5321.40830,0.35569
5319.47956,0.35573
5317.55081,0.35605
5315.62207,0.35630
5313.69332,0.35659
5311.76458,0.35751
5309.83583,0.35808
5307.90709,0.35742
5305.97834,0.35677
5304.04959,0.35726
5302.12085,0.35806
5300.19210,0.35814
5298.26336,0.35764
5296.33461,0.35723
5294.40587,0.35712
5292.47712,0.35703
5290.54838,0.35663
5288.61963,0.35575
5286.69089,0.35439
5284.76214,0.35306
5282.83340,0.35226
5280.90465,0.35138
5278.97591,0.34947
5277.04716,0.34724
5275.11842,0.34568
5273.18967,0.34442
5271.26092,0.34335
5269.33218,0.34292
5267.40343,0.34288
5265.47469,0.34256
5263.54594,0.34188
5261.61720,0.34108
5259.68845,0.34030
5257.75971,0.33967
5255.83096,0.33927
5253.90222,0.33918
5251.97347,0.33934
5250.04473,0.33942
5248.11598,0.33957
5246.18724,0.34029
5244.25849,0.34127
5242.32975,0.34229
5240.40100,0.34345
5238.47225,0.34436
5236.54351,0.34470
5234.61476,0.34455
5232.68602,0.34419
5230.75727,0.34414
5228.82853,0.34490
5226.89978,0.34623
5224.97104,0.34716
5223.04229,0.34732
5221.11355,0.34732
5219.18480,0.34732
5217.25606,0.34720
5215.32731,0.34728
5213.39857,0.34763
5211.46982,0.34804
5209.54107,0.34823
5207.61233,0.34790
5205.68358,0.34762
5203.75484,0.34780
5201.82609,0.34752
5199.89735,0.34656
5197.96860,0.34609
5196.03986,0.34632
5194.11111,0.34660
5192.18237,0.34716
5190.25362,0.34798
5188.32488,0.34808
5186.39613,0.34739
5184.46739,0.34645
5182.53864,0.34556
5180.60990,0.34554
5178.68115,0.34633
5176.75240,0.34691
5174.82366,0.34716
5172.89491,0.34706
5170.96617,0.34651
5169.03742,0.34625
5167.10868,0.34649
5165.17993,0.34655
5163.25119,0.34638
5161.32244,0.34642
5159.39370,0.34669
5157.46495,0.34665
5155.53621,0.34616
5153.60746,0.34571
5151.67872,0.34530
5149.74997,0.34488
5147.82123,0.34502
5145.89248,0.34559
5143.96373,0.34569
5142.03499,0.34532
5140.10624,0.34509
5138.17750,0.34492
5136.24875,0.34436
5134.32001,0.34368
5132.39126,0.34335
5130.46252,0.34311
5128.53377,0.34264
5126.60503,0.34209
5124.67628,0.34158
5122.74754,0.34107
5120.81879,0.34064
5118.89005,0.34042
5116.96130,0.34053
5115.03255,0.34118
5113.10381,0.34218
5111.17506,0.34282
5109.24632,0.34262
5107.31757,0.34216
5105.38883,0.34231
5103.46008,0.34291
5101.53134,0.34333
5099.60259,0.34346
5097.67385,0.34361
5095.74510,0.34370
5093.81636,0.34356
5091.88761,0.34370
5089.95887,0.34445
5088.03012,0.34528
5086.10138,0.34586
5084.17263,0.34631
5082.24388,0.34667
5080.31514,0.34674
5078.38639,0.34703
5076.45765,0.34802
5074.52890,0.34923
5072.60016,0.35042
5070.67141,0.35148
5068.74267,0.35174
5066.81392,0.35123
5064.88518,0.35078
5062.95643,0.35056
5061.02769,0.35041
5059.09894,0.35059
5057.17020,0.35110
5055.24145,0.35136
5053.31270,0.35122
5051.38396,0.35117
5049.45521,0.35152
5047.52647,0.35221
5045.59772,0.35291
5043.66898,0.35287
5041.74023,0.35215
5039.81149,0.35187
5037.88274,0.35237
5035.95400,0.35285
5034.02525,0.35313
5032.09651,0.35374
5030.16776,0.35428
5028.23902,0.35404
5026.31027,0.35342
5024.38153,0.35310
5022.45278,0.35301
5020.52403,0.35287
5018.59529,0.35283
5016.66654,0.35287
5014.73780,0.35254
5012.80905,0.35184
5010.88031,0.35144
5008.95156,0.35172
5007.02282,0.35233
5005.09407,0.35269
5003.16533,0.35252
5001.23658,0.35219
4999.30784,0.35219
4997.37909,0.35234
4995.45035,0.35211
4993.52160,0.35157
4991.59286,0.35132
4989.66411,0.35161
4987.73536,0.35214
4985.80662,0.35246
4983.87787,0.35250
4981.94913,0.35255
4980.02038,0.35276
4978.09164,0.35286
4976.16289,0.35258
4974.23415,0.35242
4972.30540,0.35285
4970.37666,0.35348
4968.44791,0.35382
4966.51917,0.35369
4964.59042,0.35324
4962.66168,0.35307
4960.73293,0.35345
4958.80418,0.35373
4956.87544,0.35358
4954.94669,0.35359
4953.01795,0.35391
4951.08920,0.35399
4949.16046,0.35379
4947.23171,0.35384
4945.30297,0.35412
4943.37422,0.35393
4941.44548,0.35306
4939.51673,0.35198
4937.58799,0.35110
4935.65924,0.35079
4933.73050,0.35114
4931.80175,0.35159
4929.87301,0.35185
4927.94426,0.35210
4926.01551,0.35221
4924.08677,0.35206
4922.15802,0.35178
4920.22928,0.35136
4918.30053,0.35095
4916.37179,0.35094
4914.44304,0.35122
4912.51430,0.35143
4910.58555,0.35153
4908.65681,0.35157
4906.72806,0.35176
4904.79932,0.35219
4902.87057,0.35240
4900.94183,0.35212
4899.01308,0.35179
4897.08434,0.35153
4895.15559,0.35093
4893.22684,0.35048
4891.29810,0.35083
4889.36935,0.35137
4887.44061,0.35144
4885.51186,0.35120
4883.58312,0.35111
4881.65437,0.35134
4879.72563,0.35154
4877.79688,0.35156
4875.86814,0.35190
4873.93939,0.35250
4872.01065,0.35263
4870.08190,0.35235
4868.15316,0.35228
4866.22441,0.35257
4864.29566,0.35291
4862.36692,0.35268
4860.43817,0.35209
4858.50943,0.35189
4856.58068,0.35209
4854.65194,0.35233
4852.72319,0.35258
4850.79445,0.35272
4848.86570,0.35269
4846.93696,0.35276
4845.00821,0.35306
4843.07947,0.35328
4841.15072,0.35330
4839.22198,0.35335
4837.29323,0.35349
4835.36449,0.35336
4833.43574,0.35291
4831.50699,0.35253
4829.57825,0.35229
4827.64950,0.35204
4825.72076,0.35198
4823.79201,0.35188
4821.86327,0.35105
4819.93452,0.34983
4818.00578,0.34917
4816.07703,0.34900
4814.14829,0.34895
4812.21954,0.34913
4810.29080,0.34928
4808.36205,0.34915
4806.43331,0.34895
4804.50456,0.34856
4802.57582,0.34768
4800.64707,0.34659
4798.71832,0.34598
4796.78958,0.34602
4794.86083,0.34592
4792.93209,0.34516
4791.00334,0.34427
4789.07460,0.34389
4787.14585,0.34399
4785.21711,0.34427
4783.28836,0.34420
4781.35962,0.34373
4779.43087,0.34372
4777.50213,0.34430
4775.57338,0.34477
4773.64464,0.34519
4771.71589,0.34596
4769.78714,0.34672
4767.85840,0.34725
4765.92965,0.34780
4764.00091,0.34829
4762.07216,0.34858
4760.14342,0.34861
4758.21467,0.34806
4756.28593,0.34724
4754.35718,0.34683
4752.42844,0.34670
4750.49969,0.34626
4748.57095,0.34544
4746.64220,0.34443
4744.71346,0.34324
4742.78471,0.34193
4740.85597,0.34073
4738.92722,0.33950
4736.99847,0.33787
4735.06973,0.33573
4733.14098,0.33327
4731.21224,0.33063
4729.28349,0.32780
4727.35475,0.32441
4725.42600,0.32025
4723.49726,0.31581
4721.56851,0.31190
4719.63977,0.30876
4717.71102,0.30614
4715.78228,0.30400
4713.85353,0.30273
4711.92479,0.30207
4709.99604,0.30113
4708.06729,0.29984
4706.13855,0.29839
4704.20980,0.29623
4702.28106,0.29288
4700.35231,0.28852
4698.42357,0.28354
4696.49482,0.27836
4694.56608,0.27322
4692.63733,0.26810
4690.70859,0.26348
4688.77984,0.26017
4686.85110,0.25819
4684.92235,0.25753
4682.99361,0.25828
4681.06486,0.25964
4679.13612,0.26141
4677.20737,0.26438
4675.27862,0.26819
4673.34988,0.27167
4671.42113,0.27446
4669.49239,0.27680
4667.56364,0.27883
4665.63490,0.28049
4663.70615,0.28170
4661.77741,0.28244
4659.84866,0.28263
4657.91992,0.28237
4655.99117,0.28198
4654.06243,0.28180
4652.13368,0.28209
4650.20494,0.28236
4648.27619,0.28152
4646.34745,0.27943
4644.41870,0.27688
4642.48995,0.27388
4640.56121,0.27020
4638.63246,0.26636
4636.70372,0.26259
4634.77497,0.25899
4632.84623,0.25650
4630.91748,0.25611
4628.98874,0.25774
4627.05999,0.26081
4625.13125,0.26515
4623.20250,0.27042
4621.27376,0.27577
4619.34501,0.28088
4617.41627,0.28572
4615.48752,0.28991
4613.55877,0.29326
4611.63003,0.29579
4609.70128,0.29773
4607.77254,0.29954
4605.84379,0.30115
4603.91505,0.30210
4601.98630,0.30251
4600.05756,0.30267
4598.12881,0.30245
4596.20007,0.30186
4594.27132,0.30077
4592.34258,0.29905
4590.41383,0.29719
4588.48509,0.29568
4586.55634,0.29476
4584.62760,0.29451
4582.69885,0.29455
4580.77010,0.29418
4578.84136,0.29323
4576.91261,0.29204
4574.98387,0.29111
4573.05512,0.29115
4571.12638,0.29275
4569.19763,0.29562
4567.26889,0.29887
4565.34014,0.30192
4563.41140,0.30477
4561.48265,0.30730
4559.55391,0.30885
4557.62516,0.30920
4555.69642,0.30893
4553.76767,0.30857
4551.83893,0.30818
4549.91018,0.30778
4547.98143,0.30724
4546.05269,0.30641
4544.12394,0.30545
4542.19520,0.30460
4540.26645,0.30394
4538.33771,0.30337
4536.40896,0.30291
4534.48022,0.30251
4532.55147,0.30183
4530.62273,0.30070
4528.69398,0.29938
4526.76524,0.29808
4524.83649,0.29681
4522.90775,0.29556
4520.97900,0.29421
4519.05025,0.29261
4517.12151,0.29082
4515.19276,0.28899
4513.26402,0.28728
4511.33527,0.28559
4509.40653,0.28339
4507.47778,0.28070
4505.54904,0.27826
4503.62029,0.27605
4501.69155,0.27324
4499.76280,0.26952
4497.83406,0.26552
4495.90531,0.26157
4493.97657,0.25749
4492.04782,0.25345
4490.11908,0.24994
4488.19033,0.24704
4486.26158,0.24456
4484.33284,0.24248
4482.40409,0.24076
4480.47535,0.23924
4478.54660,0.23782
4476.61786,0.23633
4474.68911,0.23461
4472.76037,0.23255
4470.83162,0.23040
4468.90288,0.22830
4466.97413,0.22605
4465.04539,0.22342
4463.11664,0.22030
4461.18790,0.21689
4459.25915,0.21346
4457.33041,0.20968
4455.40166,0.20530
4453.47291,0.20070
4451.54417,0.19625
4449.61542,0.19198
4447.68668,0.18772
4445.75793,0.18306
4443.82919,0.17798
4441.90044,0.17290
4439.97170,0.16791
4438.04295,0.16305
4436.11421,0.15854
4434.18546,0.15419
4432.25672,0.14969
4430.32797,0.14529
4428.39923,0.14113
4426.47048,0.13695
4424.54173,0.13286
4422.61299,0.12921
4420.68424,0.12572
4418.75550,0.12195
4416.82675,0.11833
4414.89801,0.11526
4412.96926,0.11242
4411.04052,0.10959
4409.11177,0.10694
4407.18303,0.10462
4405.25428,0.10286
4403.32554,0.10163
4401.39679,0.10050
4399.46805,0.09935
4397.53930,0.09853
4395.61056,0.09807
4393.68181,0.09754
4391.75306,0.09688
4389.82432,0.09635
4387.89557,0.09558
4385.96683,0.09400
4384.03808,0.09204
4382.10934,0.09024
4380.18059,0.08836
4378.25185,0.08617
4376.32310,0.08388
4374.39436,0.08186
4372.46561,0.08012
4370.53687,0.07839
4368.60812,0.07663
4366.67938,0.07506
4364.75063,0.07353
4362.82189,0.07174
4360.89314,0.06993
4358.96439,0.06849
4357.03565,0.06761
4355.10690,0.06705
4353.17816,0.06610
4351.24941,0.06470
4349.32067,0.06372
4347.39192,0.06322
4345.46318,0.06250
4343.53443,0.06163
4341.60569,0.06099
4339.67694,0.06032
4337.74820,0.05952
4335.81945,0.05900
4333.89071,0.05900
4331.96196,0.05927
4330.03321,0.05955
4328.10447,0.05986
4326.17572,0.06036
4324.24698,0.06127
4322.31823,0.06245
4320.38949,0.06353
4318.46074,0.06455
4316.53200,0.06589
4314.60325,0.06744
4312.67451,0.06868
4310.74576,0.06928
4308.81702,0.06956
4306.88827,0.07005
4304.95953,0.07069
4303.03078,0.07094
4301.10204,0.07083
4299.17329,0.07097
4297.24454,0.07154
4295.31580,0.07191
4293.38705,0.07167
4291.45831,0.07131
4289.52956,0.07114
4287.60082,0.07075
4285.67207,0.07017
4283.74333,0.06976
4281.81458,0.06971
4279.88584,0.07022
4277.95709,0.07100
4276.02835,0.07145
4274.09960,0.07144
4272.17086,0.07149
4270.24211,0.07184
4268.31336,0.07211
4266.38462,0.07242
4264.45587,0.07312
4262.52713,0.07367
4260.59838,0.07361
4258.66964,0.07329
4256.74089,0.07302
4254.81215,0.07290
4252.88340,0.07301
4250.95466,0.07316
4249.02591,0.07322
4247.09717,0.07324
4245.16842,0.07314
4243.23968,0.07297
4241.31093,0.07292
4239.38219,0.07272
4237.45344,0.07213
4235.52469,0.07147
4233.59595,0.07115
4231.66720,0.07111
4229.73846,0.07105
4227.80971,0.07074
4225.88097,0.07041
4223.95222,0.07029
4222.02348,0.07005
4220.09473,0.06941
4218.16599,0.06892
4216.23724,0.06906
4214.30850,0.06947
4212.37975,0.06970
4210.45101,0.06981
4208.52226,0.07008
4206.59352,0.07064
4204.66477,0.07147
4202.73602,0.07225
4200.80728,0.07281
4198.87853,0.07337
4196.94979,0.07398
4195.02104,0.07451
4193.09230,0.07498
4191.16355,0.07545
4189.23481,0.07581
4187.30606,0.07579
4185.37732,0.07556
4183.44857,0.07540
4181.51983,0.07520
4179.59108,0.07482
4177.66234,0.07426
4175.73359,0.07369
4173.80484,0.07332
4171.87610,0.07315
4169.94735,0.07306
4168.01861,0.07326
4166.08986,0.07389
4164.16112,0.07472
4162.23237,0.07568
4160.30363,0.07671
4158.37488,0.07767
4156.44614,0.07874
4154.51739,0.07986
4152.58865,0.08062
4150.65990,0.08123
4148.73116,0.08211
4146.80241,0.08316
4144.87367,0.08416
4142.94492,0.08510
4141.01617,0.08615
4139.08743,0.08729
4137.15868,0.08832
4135.22994,0.08933
4133.30119,0.09025
4131.37245,0.09064
4129.44370,0.09066
4127.51496,0.09096
4125.58621,0.09131
4123.65747,0.09105
4121.72872,0.09039
4119.79998,0.08987
4117.87123,0.08940
4115.94249,0.08871
4114.01374,0.08788
4112.08500,0.08721
4110.15625,0.08680
4108.22750,0.08658
4106.29876,0.08636
4104.37001,0.08583
4102.44127,0.08503
4100.51252,0.08435
4098.58378,0.08379
4096.65503,0.08297
4094.72629,0.08173
4092.79754,0.08011
4090.86880,0.07820
4088.94005,0.07625
4087.01131,0.07435
4085.08256,0.07270
4083.15382,0.07199
4081.22507,0.07253
4079.29632,0.07372
4077.36758,0.07513
4075.43883,0.07677
4073.51009,0.07849
4071.58134,0.08013
4069.65260,0.08162
4067.72385,0.08307
4065.79511,0.08449
4063.86636,0.08579
4061.93762,0.08710
4060.00887,0.08850
4058.08013,0.08980
4056.15138,0.09097
4054.22264,0.09219
4052.29389,0.09345
4050.36515,0.09438
4048.43640,0.09492
4046.50765,0.09538
4044.57891,0.09576
4042.65016,0.09596
4040.72142,0.09620
4038.79267,0.09649
4036.86393,0.09670
4034.93518,0.09681
4033.00644,0.09681
4031.07769,0.09675
4029.14895,0.09667
4027.22020,0.09670
4025.29146,0.09693
4023.36271,0.09697
4021.43397,0.09668
4019.50522,0.09665
4017.57648,0.09721
4015.64773,0.09783
4013.71898,0.09832
4011.79024,0.09901
4009.86149,0.09981
4007.93275,0.10043
4006.00400,0.10098
4004.07526,0.10176
4002.14651,0.10274
4000.21777,0.10369
3998.28902,0.10472
3996.36028,0.10587
3994.43153,0.10676
3992.50279,0.10742
3990.57404,0.10820
3988.64530,0.10918
3986.71655,0.11026
3984.78780,0.11132
3982.85906,0.11216
3980.93031,0.11276
3979.00157,0.11341
3977.07282,0.11434
3975.14408,0.11533
3973.21533,0.11610
3971.28659,0.11658
3969.35784,0.11687
3967.42910,0.11727
3965.50035,0.11774
3963.57161,0.11795
3961.64286,0.11785
3959.71412,0.11759
3957.78537,0.11746
3955.85663,0.11753
3953.92788,0.11752
3951.99913,0.11736
3950.07039,0.11733
3948.14164,0.11742
3946.21290,0.11743
3944.28415,0.11748
3942.35541,0.11761
3940.42666,0.11773
3938.49792,0.11791
3936.56917,0.11826
3934.64043,0.11862
3932.71168,0.11874
3930.78294,0.11881
3928.85419,0.11929
3926.92545,0.12004
3924.99670,0.12065
3923.06795,0.12114
3921.13921,0.12159
3919.21046,0.12187
3917.28172,0.12198
3915.35297,0.12214
3913.42423,0.12253
3911.49548,0.12317
3909.56674,0.12392
3907.63799,0.12468
3905.70925,0.12534
3903.78050,0.12578
3901.85176,0.12623
3899.92301,0.12685
3897.99427,0.12727
3896.06552,0.12755
3894.13678,0.12802
3892.20803,0.12866
3890.27928,0.12944
3888.35054,0.13018
3886.42179,0.13055
3884.49305,0.13078
3882.56430,0.13107
3880.63556,0.13120
3878.70681,0.13131
3876.77807,0.13162
3874.84932,0.13196
3872.92058,0.13213
3870.99183,0.13225
3869.06309,0.13246
3867.13434,0.13269
3865.20560,0.13284
3863.27685,0.13292
3861.34811,0.13286
3859.41936,0.13269
3857.49061,0.13279
3855.56187,0.13314
3853.63312,0.13315
3851.70438,0.13290
3849.77563,0.13297
3847.84689,0.13337
3845.91814,0.13380
3843.98940,0.13411
3842.06065,0.13460
3840.13191,0.13538
3838.20316,0.13603
3836.27442,0.13632
3834.34567,0.13654
3832.41693,0.13697
3830.48818,0.13744
3828.55943,0.13774
3826.63069,0.13803
3824.70194,0.13864
3822.77320,0.13958
3820.84445,0.14049
3818.91571,0.14113
3816.98696,0.14145
3815.05822,0.14149
3813.12947,0.14158
3811.20073,0.14191
3809.27198,0.14236
3807.34324,0.14270
3805.41449,0.14304
3803.48575,0.14358
3801.55700,0.14405
3799.62826,0.14444
3797.69951,0.14523
3795.77076,0.14631
3793.84202,0.14740
3791.91327,0.14851
3789.98453,0.14963
3788.05578,0.15057
3786.12704,0.15108
3784.19829,0.15136
3782.26955,0.15187
3780.34080,0.15234
3778.41206,0.15235
3776.48331,0.15218
3774.55457,0.15209
3772.62582,0.15192
3770.69708,0.15163
3768.76833,0.15135
3766.83959,0.15119
3764.91084,0.15105
3762.98209,0.15076
3761.05335,0.15017
3759.12460,0.14943
3757.19586,0.14909
3755.26711,0.14947
3753.33837,0.15044
3751.40962,0.15174
3749.48088,0.15321
3747.55213,0.15461
3745.62339,0.15582
3743.69464,0.15689
3741.76590,0.15771
3739.83715,0.15812
3737.90841,0.15822
3735.97966,0.15828
3734.05091,0.15846
3732.12217,0.15889
3730.19342,0.15971
3728.26468,0.16083
3726.33593,0.16194
3724.40719,0.16257
3722.47844,0.16276
3720.54970,0.16282
3718.62095,0.16246
3716.69221,0.16149
3714.76346,0.16025
3712.83472,0.15878
3710.90597,0.15675
3708.97723,0.15425
3707.04848,0.15145
3705.11974,0.14850
3703.19099,0.14526
3701.26224,0.14131
3699.33350,0.13697
3697.40475,0.13274
3695.47601,0.12843
3693.54726,0.12389
3691.61852,0.11919
3689.68977,0.11402
3687.76103,0.10879
3685.83228,0.10485
3683.90354,0.10245
3681.97479,0.10106
3680.04605,0.10016
3678.11730,0.09932
3676.18856,0.09828
3674.25981,0.09725
3672.33107,0.09669
3670.40232,0.09678
3668.47357,0.09717
3666.54483,0.09759
3664.61608,0.09820
3662.68734,0.09872
3660.75859,0.09889
3658.82985,0.09902
3656.90110,0.09938
3654.97236,0.10005
3653.04361,0.10085
3651.11487,0.10137
3649.18612,0.10158
3647.25738,0.10170
3645.32863,0.10180
3643.39989,0.10175
3641.47114,0.10156
3639.54239,0.10142
3637.61365,0.10133
3635.68490,0.10107
3633.75616,0.10054
3631.82741,0.09983
3629.89867,0.09885
3627.96992,0.09759
3626.04118,0.09641
3624.11243,0.09532
3622.18369,0.09424
3620.25494,0.09333
3618.32620,0.09278
3616.39745,0.09254
3614.46871,0.09224
3612.53996,0.09168
3610.61122,0.09093
3608.68247,0.09018
3606.75372,0.08957
3604.82498,0.08905
3602.89623,0.08852
3600.96749,0.08795
3599.03874,0.08718
3597.11000,0.08616
3595.18125,0.08505
3593.25251,0.08415
3591.32376,0.08366
3589.39502,0.08349
3587.46627,0.08321
3585.53753,0.08258
3583.60878,0.08184
3581.68004,0.08129
3579.75129,0.08095
3577.82254,0.08038
3575.89380,0.07932
3573.96505,0.07826
3572.03631,0.07756
3570.10756,0.07700
3568.17882,0.07610
3566.25007,0.07483
3564.32133,0.07379
3562.39258,0.07318
3560.46384,0.07256
3558.53509,0.07179
3556.60635,0.07111
3554.67760,0.07066
3552.74886,0.07031
3550.82011,0.06983
3548.89137,0.06919
3546.96262,0.06868
3545.03387,0.06849
3543.10513,0.06858
3541.17638,0.06865
3539.24764,0.06839
3537.31889,0.06777
3535.39015,0.06717
3533.46140,0.06706
3531.53266,0.06737
3529.60391,0.06770
3527.67517,0.06795
3525.74642,0.06810
3523.81768,0.06796
3521.88893,0.06758
3519.96019,0.06720
3518.03144,0.06686
3516.10270,0.06668
3514.17395,0.06665
3512.24520,0.06653
3510.31646,0.06639
3508.38771,0.06638
3506.45897,0.06640
3504.53022,0.06658
3502.60148,0.06690
3500.67273,0.06713
3498.74399,0.06720
3496.81524,0.06692
3494.88650,0.06630
3492.95775,0.06581
3491.02901,0.06575
3489.10026,0.06589
3487.17152,0.06586
3485.24277,0.06566
3483.31402,0.06549
3481.38528,0.06522
3479.45653,0.06473
3477.52779,0.06420
3475.59904,0.06389
3473.67030,0.06379
3471.74155,0.06365
3469.81281,0.06336
3467.88406,0.06304
3465.95532,0.06285
3464.02657,0.06271
3462.09783,0.06236
3460.16908,0.06180
3458.24034,0.06130
3456.31159,0.06078
3454.38285,0.06002
3452.45410,0.05912
3450.52535,0.05851
3448.59661,0.05808
3446.66786,0.05734
3444.73912,0.05643
3442.81037,0.05570
3440.88163,0.05502
3438.95288,0.05417
3437.02414,0.05333
3435.09539,0.05263
3433.16665,0.05206
3431.23790,0.05159
3429.30916,0.05122
3427.38041,0.05098
3425.45167,0.05062
3423.52292,0.05015
3421.59418,0.05007
3419.66543,0.05031
3417.73668,0.05045
3415.80794,0.05047
3413.87919,0.05055
3411.95045,0.05070
3410.02170,0.05081
3408.09296,0.05110
3406.16421,0.05162
3404.23547,0.05195
3402.30672,0.05209
3400.37798,0.05207
3398.44923,0.05174
3396.52049,0.05156
3394.59174,0.05186
3392.66300,0.05224
3390.73425,0.05254
3388.80550,0.05288
3386.87676,0.05320
3384.94801,0.05351
3383.01927,0.05402
3381.09052,0.05461
3379.16178,0.05502
3377.23303,0.05541
3375.30429,0.05582
3373.37554,0.05600
3371.44680,0.05609
3369.51805,0.05632
3367.58931,0.05649
3365.66056,0.05640
3363.73182,0.05649
3361.80307,0.05702
3359.87433,0.05756
3357.94558,0.05788
3356.01683,0.05813
3354.08809,0.05827
3352.15934,0.05810
3350.23060,0.05765
3348.30185,0.05711
3346.37311,0.05673
3344.44436,0.05663
3342.51562,0.05641
3340.58687,0.05581
3338.65813,0.05541
3336.72938,0.05549
3334.80064,0.05558
3332.87189,0.05529
3330.94315,0.05492
3329.01440,0.05495
3327.08566,0.05538
3325.15691,0.05574
3323.22816,0.05570
3321.29942,0.05559
3319.37067,0.05579
3317.44193,0.05598
3315.51318,0.05586
3313.58444,0.05580
3311.65569,0.05600
3309.72695,0.05618
3307.79820,0.05619
3305.86946,0.05612
3303.94071,0.05603
3302.01197,0.05607
3300.08322,0.05631
3298.15448,0.05664
3296.22573,0.05699
3294.29698,0.05726
3292.36824,0.05727
3290.43949,0.05710
3288.51075,0.05706
3286.58200,0.05734
3284.65326,0.05791
3282.72451,0.05842
3280.79577,0.05857
3278.86702,0.05840
3276.93828,0.05834
3275.00953,0.05883
3273.08079,0.05960
3271.15204,0.05990
3269.22330,0.05968
3267.29455,0.05944
3265.36581,0.05948
3263.43706,0.05976
3261.50831,0.06021
3259.57957,0.06065
3257.65082,0.06093
3255.72208,0.06108
3253.79333,0.06107
3251.86459,0.06099
3249.93584,0.06100
3248.00710,0.06066
3246.07835,0.05981
3244.14961,0.05915
3242.22086,0.05900
3240.29212,0.05888
3238.36337,0.05858
3236.43463,0.05822
3234.50588,0.05759
3232.57713,0.05689
3230.64839,0.05675
3228.71964,0.05689
3226.79090,0.05677
3224.86215,0.05644
3222.93341,0.05595
3221.00466,0.05540
3219.07592,0.05499
3217.14717,0.05492
3215.21843,0.05500
3213.28968,0.05520
3211.36094,0.05567
3209.43219,0.05579
3207.50345,0.05535
3205.57470,0.05494
3203.64596,0.05482
3201.71721,0.05504
3199.78846,0.05572
3197.85972,0.05637
3195.93097,0.05636
3194.00223,0.05594
3192.07348,0.05578
3190.14474,0.05596
3188.21599,0.05608
3186.28725,0.05589
3184.35850,0.05569
3182.42976,0.05590
3180.50101,0.05628
3178.57227,0.05633
3176.64352,0.05623
3174.71478,0.05639
3172.78603,0.05657
3170.85729,0.05651
3168.92854,0.05645
3166.99979,0.05665
3165.07105,0.05717
3163.14230,0.05775
3161.21356,0.05794
3159.28481,0.05769
3157.35607,0.05750
3155.42732,0.05762
3153.49858,0.05765
3151.56983,0.05753
3149.64109,0.05760
3147.71234,0.05768
3145.78360,0.05747
3143.85485,0.05716
3141.92611,0.05706
3139.99736,0.05725
3138.06861,0.05740
3136.13987,0.05722
3134.21112,0.05681
3132.28238,0.05638
3130.35363,0.05600
3128.42489,0.05566
3126.49614,0.05557
3124.56740,0.05586
3122.63865,0.05619
3120.70991,0.05631
3118.78116,0.05630
3116.85242,0.05618
3114.92367,0.05579
3112.99493,0.05526
3111.06618,0.05498
3109.13744,0.05493
3107.20869,0.05480
3105.27994,0.05454
3103.35120,0.05410
3101.42245,0.05348
3099.49371,0.05305
3097.56496,0.05296
3095.63622,0.05299
3093.70747,0.05290
3091.77873,0.05263
3089.84998,0.05223
3087.92124,0.05176
3085.99249,0.05139
3084.06375,0.05121
3082.13500,0.05102
3080.20626,0.05088
3078.27751,0.05084
3076.34877,0.05067
3074.42002,0.05032
3072.49127,0.04989
3070.56253,0.04947
3068.63378,0.04918
3066.70504,0.04907
3064.77629,0.04903
3062.84755,0.04885
3060.91880,0.04858
3058.99006,0.04846
3057.06131,0.04851
3055.13257,0.04857
3053.20382,0.04855
3051.27508,0.04842
3049.34633,0.04827
3047.41759,0.04825
3045.48884,0.04836
3043.56009,0.04844
3041.63135,0.04839
3039.70260,0.04832
3037.77386,0.04839
3035.84511,0.04851
3033.91637,0.04839
3031.98762,0.04807
3030.05888,0.04784
3028.13013,0.04761
3026.20139,0.04714
3024.27264,0.04674
3022.34390,0.04656
3020.41515,0.04622
3018.48641,0.04585
3016.55766,0.04576
3014.62892,0.04585
3012.70017,0.04593
3010.77142,0.04585
3008.84268,0.04562
3006.91393,0.04553
3004.98519,0.04558
3003.05644,0.04544
3001.12770,0.04522
2999.19895,0.04513
2997.27021,0.04492
2995.34146,0.04436
2993.41272,0.04373
2991.48397,0.04347
2989.55523,0.04351
2987.62648,0.04352
2985.69774,0.04349
2983.76899,0.04355
2981.84025,0.04369
2979.91150,0.04390
2977.98275,0.04407
2976.05401,0.04406
2974.12526,0.04390
2972.19652,0.04385
2970.26777,0.04392
2968.33903,0.04386
2966.41028,0.04369
2964.48154,0.04369
2962.55279,0.04397
2960.62405,0.04434
2958.69530,0.04461
2956.76656,0.04468
2954.83781,0.04478
2952.90907,0.04498
2950.98032,0.04501
2949.05157,0.04493
2947.12283,0.04484
2945.19408,0.04463
2943.26534,0.04444
2941.33659,0.04454
2939.40785,0.04486
2937.47910,0.04511
2935.55036,0.04530
2933.62161,0.04559
2931.69287,0.04590
2929.76412,0.04624
2927.83538,0.04672
2925.90663,0.04736
2923.97789,0.04788
2922.04914,0.04805
2920.12040,0.04802
2918.19165,0.04814
2916.26290,0.04838
2914.33416,0.04842
2912.40541,0.04824
2910.47667,0.04818
2908.54792,0.04826
2906.61918,0.04815
2904.69043,0.04798
2902.76169,0.04796
2900.83294,0.04801
2898.90420,0.04801
2896.97545,0.04793
2895.04671,0.04783
2893.11796,0.04776
2891.18922,0.04777
2889.26047,0.04774
2887.33172,0.04765
2885.40298,0.04764
2883.47423,0.04771
2881.54549,0.04782
2879.61674,0.04788
2877.68800,0.04776
2875.75925,0.04763
2873.83051,0.04766
2871.90176,0.04780
2869.97302,0.04786
2868.04427,0.04783
2866.11553,0.04789
2864.18678,0.04809
2862.25804,0.04832
2860.32929,0.04855
2858.40055,0.04881
2856.47180,0.04908
2854.54305,0.04925
2852.61431,0.04940
2850.68556,0.04964
2848.75682,0.04978
2846.82807,0.04964
2844.89933,0.04947
2842.97058,0.04942
2841.04184,0.04933
2839.11309,0.04931
2837.18435,0.04945
2835.25560,0.04950
2833.32686,0.04931
2831.39811,0.04910
2829.46937,0.04906
2827.54062,0.04905
2825.61188,0.04898
2823.68313,0.04904
2821.75438,0.04920
2819.82564,0.04924
2817.89689,0.04922
2815.96815,0.04917
2814.03940,0.04906
2812.11066,0.04893
2810.18191,0.04881
2808.25317,0.04890
2806.32442,0.04929
2804.39568,0.04966
2802.46693,0.04985
2800.53819,0.04997
2798.60944,0.05011
2796.68070,0.05027
2794.75195,0.05057
2792.82320,0.05101
2790.89446,0.05137
2788.96571,0.05161
2787.03697,0.05180
2785.10822,0.05194
2783.17948,0.05210
2781.25073,0.05234
2779.32199,0.05263
2777.39324,0.05296
2775.46450,0.05325
2773.53575,0.05344
2771.60701,0.05366
2769.67826,0.05390
2767.74952,0.05392
2765.82077,0.05384
2763.89203,0.05386
2761.96328,0.05386
2760.03453,0.05382
2758.10579,0.05386
2756.17704,0.05376
2754.24830,0.05358
2752.31955,0.05358
2750.39081,0.05357
2748.46206,0.05335
2746.53332,0.05314
2744.60457,0.05299
2742.67583,0.05279
2740.74708,0.05267
2738.81834,0.05270
2736.88959,0.05276
2734.96085,0.05277
2733.03210,0.05280
2731.10336,0.05292
2729.17461,0.05313
2727.24586,0.05350
2725.31712,0.05415
2723.38837,0.05497
2721.45963,0.05566
2719.53088,0.05604
2717.60214,0.05633
2715.67339,0.05673
2713.74465,0.05715
2711.81590,0.05749
2709.88716,0.05781
2707.95841,0.05820
2706.02967,0.05859
2704.10092,0.05891
2702.17218,0.05919
2700.24343,0.05948
2698.31468,0.05968
2696.38594,0.05966
2694.45719,0.05958
2692.52845,0.05964
2690.59970,0.05980
2688.67096,0.05997
2686.74221,0.06009
2684.81347,0.06013
2682.88472,0.06011
2680.95598,0.05998
2679.02723,0.05970
2677.09849,0.05941
2675.16974,0.05929
2673.24100,0.05929
2671.31225,0.05928
2669.38351,0.05928
2667.45476,0.05940
2665.52601,0.05961
2663.59727,0.05992
2661.66852,0.06037
2659.73978,0.06088
2657.81103,0.06138
2655.88229,0.06186
2653.95354,0.06219
2652.02480,0.06240
2650.09605,0.06264
2648.16731,0.06284
2646.23856,0.06287
2644.30982,0.06265
2642.38107,0.06226
2640.45233,0.06188
2638.52358,0.06145
2636.59484,0.06071
2634.66609,0.05973
2632.73734,0.05889
2630.80860,0.05835
2628.87985,0.05797
2626.95111,0.05758
2625.02236,0.05709
2623.09362,0.05664
2621.16487,0.05639
2619.23613,0.05625
2617.30738,0.05606
2615.37864,0.05582
2613.44989,0.05549
2611.52115,0.05504
2609.59240,0.05450
2607.66366,0.05411
2605.73491,0.05411
2603.80616,0.05439
2601.87742,0.05454
2599.94867,0.05428
2598.01993,0.05390
2596.09118,0.05369
2594.16244,0.05367
2592.23369,0.05368
2590.30495,0.05360
2588.37620,0.05338
2586.44746,0.05313
2584.51871,0.05305
2582.58997,0.05317
2580.66122,0.05327
2578.73248,0.05327
2576.80373,0.05332
2574.87499,0.05342
2572.94624,0.05340
2571.01749,0.05337
2569.08875,0.05333
2567.16000,0.05317
2565.23126,0.05306
2563.30251,0.05310
2561.37377,0.05322
2559.44502,0.05329
2557.51628,0.05320
2555.58753,0.05307
2553.65879,0.05305
2551.73004,0.05305
2549.80130,0.05298
2547.87255,0.05290
2545.94381,0.05290
2544.01506,0.05290
2542.08631,0.05273
2540.15757,0.05242
2538.22882,0.05213
2536.30008,0.05198
2534.37133,0.05190
2532.44259,0.05158
2530.51384,0.05103
2528.58510,0.05067
2526.65635,0.05067
2524.72761,0.05078
2522.79886,0.05080
2520.87012,0.05078
2518.94137,0.05074
2517.01263,0.05068
2515.08388,0.05070
2513.15514,0.05080
2511.22639,0.05092
2509.29764,0.05107
2507.36890,0.05126
2505.44015,0.05149
2503.51141,0.05181
2501.58266,0.05214
2499.65392,0.05241
2497.72517,0.05279
2495.79643,0.05341
2493.86768,0.05408
2491.93894,0.05466
2490.01019,0.05528
2488.08145,0.05603
2486.15270,0.05684
2484.22396,0.05760
2482.29521,0.05840
2480.36647,0.05930
2478.43772,0.06029
2476.50897,0.06135
2474.58023,0.06245
2472.65148,0.06351
2470.72274,0.06457
2468.79399,0.06552
2466.86525,0.06617
2464.93650,0.06662
2463.00776,0.06707
2461.07901,0.06752
2459.15027,0.06786
2457.22152,0.06813
2455.29278,0.06836
2453.36403,0.06852
2451.43529,0.06868
2449.50654,0.06888
2447.57779,0.06900
2445.64905,0.06900
2443.72030,0.06890
2441.79156,0.06870
2439.86281,0.06856
2437.93407,0.06848
2436.00532,0.06839
2434.07658,0.06823
2432.14783,0.06790
2430.21909,0.06742
2428.29034,0.06693
2426.36160,0.06660
2424.43285,0.06643
2422.50411,0.06619
2420.57536,0.06580
2418.64662,0.06534
2416.71787,0.06487
2414.78912,0.06448
2412.86038,0.06428
2410.93163,0.06418
2409.00289,0.06408
2407.07414,0.06397
2405.14540,0.06376
2403.21665,0.06342
2401.28791,0.06303
2399.35916,0.06267
2397.43042,0.06236
2395.50167,0.06202
2393.57293,0.06169
2391.64418,0.06146
2389.71544,0.06131
2387.78669,0.06126
2385.85795,0.06136
2383.92920,0.06149
2382.00045,0.06146
2380.07171,0.06137
2378.14296,0.06146
2376.21422,0.06169
2374.28547,0.06197
2372.35673,0.06234
2370.42798,0.06285
2368.49924,0.06344
2366.57049,0.06411
2364.64175,0.06478
2362.71300,0.06531
2360.78426,0.06574
2358.85551,0.06623
2356.92677,0.06689
2354.99802,0.06767
2353.06927,0.06838
2351.14053,0.06901
2349.21178,0.06962
2347.28304,0.07009
2345.35429,0.07055
2343.42555,0.07134
2341.49680,0.07240
2339.56806,0.07342
2337.63931,0.07425
2335.71057,0.07488
2333.78182,0.07539
2331.85308,0.07584
2329.92433,0.07615
2327.99559,0.07614
2326.06684,0.07576
2324.13810,0.07535
2322.20935,0.07546
2320.28060,0.07612
2318.35186,0.07683
2316.42311,0.07733
2314.49437,0.07777
2312.56562,0.07813
2310.63688,0.07826
2308.70813,0.07821
2306.77939,0.07806
2304.85064,0.07779
2302.92190,0.07741
2300.99315,0.07696
2299.06441,0.07649
2297.13566,0.07596
2295.20692,0.07521
2293.27817,0.07427
2291.34943,0.07332
2289.42068,0.07246
2287.49193,0.07174
2285.56319,0.07101
2283.63444,0.07014
2281.70570,0.06930
2279.77695,0.06885
2277.84821,0.06877
2275.91946,0.06883
2273.99072,0.06909
2272.06197,0.06966
2270.13323,0.07035
2268.20448,0.07086
2266.27574,0.07112
2264.34699,0.07129
2262.41825,0.07144
2260.48950,0.07144
2258.56075,0.07130
2256.63201,0.07112
2254.70326,0.07086
2252.77452,0.07047
2250.84577,0.06990
2248.91703,0.06915
2246.98828,0.06834
2245.05954,0.06759
2243.13079,0.06682
2241.20205,0.06603
2239.27330,0.06541
2237.34456,0.06511
2235.41581,0.06491
2233.48707,0.06459
2231.55832,0.06433
2229.62958,0.06433
2227.70083,0.06431
2225.77208,0.06419
2223.84334,0.06422
2221.91459,0.06452
2219.98585,0.06484
2218.05710,0.06491
2216.12836,0.06484
2214.19961,0.06489
2212.27087,0.06504
2210.34212,0.06515
2208.41338,0.06538
2206.48463,0.06598
2204.55589,0.06685
2202.62714,0.06783
2200.69840,0.06889
2198.76965,0.06996
2196.84090,0.07103
2194.91216,0.07201
2192.98341,0.07280
2191.05467,0.07351
2189.12592,0.07440
2187.19718,0.07549
2185.26843,0.07651
2183.33969,0.07723
2181.41094,0.07777
2179.48220,0.07832
2177.55345,0.07880
2175.62471,0.07911
2173.69596,0.07936
2171.76722,0.07947
2169.83847,0.07927
2167.90973,0.07879
2165.98098,0.07833
2164.05223,0.07810
2162.12349,0.07799
2160.19474,0.07779
2158.26600,0.07741
2156.33725,0.07678
2154.40851,0.07597
2152.47976,0.07515
2150.55102,0.07443
2148.62227,0.07393
2146.69353,0.07358
2144.76478,0.07317
2142.83604,0.07276
2140.90729,0.07245
2138.97855,0.07217
2137.04980,0.07203
2135.12106,0.07212
2133.19231,0.07233
2131.26356,0.07264
2129.33482,0.07307
2127.40607,0.07347
2125.47733,0.07383
2123.54858,0.07422
2121.61984,0.07454
2119.69109,0.07481
2117.76235,0.07510
2115.83360,0.07530
2113.90486,0.07548
2111.97611,0.07565
2110.04737,0.07573
2108.11862,0.07589
2106.18988,0.07617
2104.26113,0.07627
2102.33238,0.07615
2100.40364,0.07617
2098.47489,0.07638
2096.54615,0.07646
2094.61740,0.07629
2092.68866,0.07607
2090.75991,0.07587
2088.83117,0.07561
2086.90242,0.07532
2084.97368,0.07509
2083.04493,0.07495
2081.11619,0.07480
2079.18744,0.07452
2077.25870,0.07415
2075.32995,0.07374
2073.40121,0.07339
2071.47246,0.07331
2069.54371,0.07349
2067.61497,0.07364
2065.68622,0.07379
2063.75748,0.07403
2061.82873,0.07427
2059.89999,0.07444
2057.97124,0.07461
2056.04250,0.07479
2054.11375,0.07489
2052.18501,0.07496
2050.25626,0.07519
2048.32752,0.07566
2046.39877,0.07624
2044.47003,0.07675
2042.54128,0.07718
2040.61254,0.07751
2038.68379,0.07771
2036.75504,0.07787
2034.82630,0.07809
2032.89755,0.07835
2030.96881,0.07857
2029.04006,0.07885
2027.11132,0.07926
2025.18257,0.07964
2023.25383,0.08007
2021.32508,0.08058
2019.39634,0.08099
2017.46759,0.08122
2015.53885,0.08142
2013.61010,0.08158
2011.68136,0.08152
2009.75261,0.08129
2007.82386,0.08102
2005.89512,0.08081
2003.96637,0.08068
2002.03763,0.08050
2000.10888,0.08007
1998.18014,0.07929
1996.25139,0.07830
1994.32265,0.07727
1992.39390,0.07622
1990.46516,0.07516
1988.53641,0.07436
1986.60767,0.07391
1984.67892,0.07357
1982.75018,0.07318
1980.82143,0.07269
1978.89269,0.07208
1976.96394,0.07147
1975.03519,0.07071
1973.10645,0.06957
1971.17770,0.06825
1969.24896,0.06691
1967.32021,0.06547
1965.39147,0.06398
1963.46272,0.06243
1961.53398,0.06080
1959.60523,0.05907
1957.67649,0.05728
1955.74774,0.05582
1953.81900,0.05489
1951.89025,0.05420
1949.96151,0.05369
1948.03276,0.05364
1946.10402,0.05415
1944.17527,0.05512
1942.24652,0.05638
1940.31778,0.05780
1938.38903,0.05919
1936.46029,0.06048
1934.53154,0.06176
1932.60280,0.06309
1930.67405,0.06439
1928.74531,0.06556
1926.81656,0.06655
1924.88782,0.06726
1922.95907,0.06770
1921.03033,0.06809
1919.10158,0.06857
1917.17284,0.06909
1915.24409,0.06941
1913.31534,0.06951
1911.38660,0.06952
1909.45785,0.06948
1907.52911,0.06945
1905.60036,0.06951
1903.67162,0.06959
1901.74287,0.06959
1899.81413,0.06953
1897.88538,0.06948
1895.95664,0.06951
1894.02789,0.06961
1892.09915,0.06972
1890.17040,0.06980
1888.24166,0.06993
1886.31291,0.07001
1884.38417,0.07003
1882.45542,0.07011
1880.52667,0.07015
1878.59793,0.07005
1876.66918,0.06993
1874.74044,0.06974
1872.81169,0.06940
1870.88295,0.06901
1868.95420,0.06852
1867.02546,0.06781
1865.09671,0.06704
1863.16797,0.06625
1861.23922,0.06549
1859.31048,0.06475
1857.38173,0.06387
1855.45299,0.06291
1853.52424,0.06198
1851.59549,0.06097
1849.66675,0.05979
1847.73800,0.05857
1845.80926,0.05743
1843.88051,0.05634
1841.95177,0.05534
1840.02302,0.05437
1838.09428,0.05322
1836.16553,0.05191
1834.23679,0.05063
1832.30804,0.04952
1830.37930,0.04854
1828.45055,0.04767
1826.52181,0.04690
1824.59306,0.04628
1822.66432,0.04589
1820.73557,0.04568
1818.80682,0.04554
1816.87808,0.04547
1814.94933,0.04551
1813.02059,0.04551
1811.09184,0.04514
1809.16310,0.04441
1807.23435,0.04365
1805.30561,0.04309
1803.37686,0.04258
1801.44812,0.04199
1799.51937,0.04148
1797.59063,0.04113
1795.66188,0.04088
1793.73314,0.04071
1791.80439,0.04057
1789.87565,0.04050
1787.94690,0.04060
1786.01815,0.04068
1784.08941,0.04059
1782.16066,0.04035
1780.23192,0.04006
1778.30317,0.03985
1776.37443,0.03971
1774.44568,0.03942
1772.51694,0.03891
1770.58819,0.03836
1768.65945,0.03787
1766.73070,0.03745
1764.80196,0.03711
1762.87321,0.03675
1760.94447,0.03628
1759.01572,0.03580
1757.08697,0.03542
1755.15823,0.03508
1753.22948,0.03464
1751.30074,0.03406
1749.37199,0.03348
1747.44325,0.03307
1745.51450,0.03279
1743.58576,0.03256
1741.65701,0.03254
1739.72827,0.03302
1737.79952,0.03405
1735.87078,0.03551
1733.94203,0.03724
1732.01329,0.03899
1730.08454,0.04067
1728.15580,0.04245
1726.22705,0.04440
1724.29830,0.04645
1722.36956,0.04833
1720.44081,0.04982
1718.51207,0.05100
1716.58332,0.05190
1714.65458,0.05243
1712.72583,0.05268
1710.79709,0.05280
1708.86834,0.05285
1706.93960,0.05278
1705.01085,0.05255
1703.08211,0.05229
1701.15336,0.05207
1699.22462,0.05183
1697.29587,0.05159
1695.36713,0.05125
1693.43838,0.05088
1691.50963,0.05063
1689.58089,0.05048
1687.65214,0.05036
1685.72340,0.05021
1683.79465,0.04994
1681.86591,0.04959
1679.93716,0.04932
1678.00842,0.04916
1676.07967,0.04903
1674.15093,0.04883
1672.22218,0.04868
1670.29344,0.04869
1668.36469,0.04870
1666.43595,0.04863
1664.50720,0.04864
1662.57845,0.04865
1660.64971,0.04865
1658.72096,0.04880
1656.79222,0.04911
1654.86347,0.04945
1652.93473,0.04953
1651.00598,0.04939
1649.07724,0.04950
1647.14849,0.04974
1645.21975,0.04982
1643.29100,0.04986
1641.36226,0.05000
1639.43351,0.05020
1637.50477,0.05036
1635.57602,0.05034
1633.64728,0.05017
1631.71853,0.05004
1629.78978,0.05002
1627.86104,0.05000
1625.93229,0.04989
1624.00355,0.04973
1622.07480,0.04973
1620.14606,0.04970
1618.21731,0.04943
1616.28857,0.04906
1614.35982,0.04882
1612.43108,0.04866
1610.50233,0.04851
1608.57359,0.04834
1606.64484,0.04816
1604.71610,0.04809
1602.78735,0.04813
1600.85861,0.04817
1598.92986,0.04825
1597.00111,0.04839
1595.07237,0.04857
1593.14362,0.04871
1591.21488,0.04871
1589.28613,0.04851
1587.35739,0.04810
1585.42864,0.04742
1583.49990,0.04645
1581.57115,0.04554
1579.64241,0.04521
1577.71366,0.04538
1575.78492,0.04558
1573.85617,0.04577
1571.92743,0.04635
1569.99868,0.04732
1568.06993,0.04833
1566.14119,0.04914
1564.21244,0.04979
1562.28370,0.05040
1560.35495,0.05104
1558.42621,0.05152
1556.49746,0.05193
1554.56872,0.05241
1552.63997,0.05266
1550.71123,0.05262
1548.78248,0.05245
1546.85374,0.05230
1544.92499,0.05222
1542.99625,0.05202
1541.06750,0.05155
1539.13876,0.05096
1537.21001,0.05036
1535.28126,0.04958
1533.35252,0.04863
1531.42377,0.04777
1529.49503,0.04716
1527.56628,0.04679
1525.63754,0.04667
1523.70879,0.04666
1521.78005,0.04665
1519.85130,0.04661
1517.92256,0.04648
1515.99381,0.04615
1514.06507,0.04571
1512.13632,0.04542
1510.20758,0.04525
1508.27883,0.04497
1506.35008,0.04469
1504.42134,0.04467
1502.49259,0.04487
1500.56385,0.04524
1498.63510,0.04565
1496.70636,0.04580
1494.77761,0.04560
1492.84887,0.04532
1490.92012,0.04497
1488.99138,0.04438
1487.06263,0.04366
1485.13389,0.04300
1483.20514,0.04241
1481.27640,0.04194
1479.34765,0.04171
1477.41891,0.04175
1475.49016,0.04181
1473.56141,0.04159
1471.63267,0.04113
1469.70392,0.04077
1467.77518,0.04065
1465.84643,0.04079
1463.91769,0.04122
1461.98894,0.04173
1460.06020,0.04219
1458.13145,0.04263
1456.20271,0.04290
1454.27396,0.04294
1452.34522,0.04306
1450.41647,0.04346
1448.48773,0.04388
1446.55898,0.04405
1444.63024,0.04411
1442.70149,0.04415
1440.77274,0.04412
1438.84400,0.04412
1436.91525,0.04408
1434.98651,0.04394
1433.05776,0.04396
1431.12902,0.04411
1429.20027,0.04403
1427.27153,0.04370
1425.34278,0.04345
1423.41404,0.04334
1421.48529,0.04326
1419.55655,0.04305
1417.62780,0.04266
1415.69906,0.04230
1413.77031,0.04204
1411.84156,0.04181
1409.91282,0.04175
1407.98407,0.04191
1406.05533,0.04201
1404.12658,0.04187
1402.19784,0.04165
1400.26909,0.04151
1398.34035,0.04123
1396.41160,0.04075
1394.48286,0.04031
1392.55411,0.04008
1390.62537,0.04002
1388.69662,0.03992
1386.76788,0.03980
1384.83913,0.03993
1382.91039,0.04027
1380.98164,0.04054
1379.05289,0.04076
1377.12415,0.04103
1375.19540,0.04126
1373.26666,0.04138
1371.33791,0.04137
1369.40917,0.04118
1367.48042,0.04083
1365.55168,0.04052
1363.62293,0.04036
1361.69419,0.04034
1359.76544,0.04041
1357.83670,0.04038
1355.90795,0.04012
1353.97921,0.03993
1352.05046,0.04003
1350.12172,0.04005
1348.19297,0.03967
1346.26422,0.03918
1344.33548,0.03896
1342.40673,0.03892
1340.47799,0.03880
1338.54924,0.03870
1336.62050,0.03876
1334.69175,0.03873
1332.76301,0.03852
1330.83426,0.03828
1328.90552,0.03808
1326.97677,0.03797
1325.04803,0.03792
1323.11928,0.03778
1321.19054,0.03751
1319.26179,0.03732
1317.33304,0.03730
1315.40430,0.03714
1313.47555,0.03667
1311.54681,0.03618
1309.61806,0.03602
1307.68932,0.03598
1305.76057,0.03573
1303.83183,0.03541
1301.90308,0.03516
1299.97434,0.03497
1298.04559,0.03488
1296.11685,0.03486
1294.18810,0.03488
1292.25936,0.03502
1290.33061,0.03509
1288.40187,0.03502
1286.47312,0.03506
1284.54437,0.03535
1282.61563,0.03573
1280.68688,0.03612
1278.75814,0.03662
1276.82939,0.03726
1274.90065,0.03807
1272.97190,0.03906
1271.04316,0.03999
1269.11441,0.04063
1267.18567,0.04114
1265.25692,0.04157
1263.32818,0.04178
1261.39943,0.04172
1259.47069,0.04153
1257.54194,0.04138
1255.61320,0.04141
1253.68445,0.04168
1251.75570,0.04215
1249.82696,0.04265
1247.89821,0.04311
1245.96947,0.04344
1244.04072,0.04350
1242.11198,0.04348
1240.18323,0.04362
1238.25449,0.04372
1236.32574,0.04352
1234.39700,0.04334
1232.46825,0.04344
1230.53951,0.04370
1228.61076,0.04390
1226.68202,0.04388
1224.75327,0.04374
1222.82452,0.04378
1220.89578,0.04394
1218.96703,0.04394
1217.03829,0.04381
1215.10954,0.04365
1213.18080,0.04348
1211.25205,0.04339
1209.32331,0.04342
1207.39456,0.04333
1205.46582,0.04314
1203.53707,0.04311
1201.60833,0.04328
1199.67958,0.04342
1197.75084,0.04329
1195.82209,0.04301
1193.89335,0.04280
1191.96460,0.04264
1190.03585,0.04253
1188.10711,0.04263
1186.17836,0.04288
1184.24962,0.04295
1182.32087,0.04278
1180.39213,0.04271
1178.46338,0.04274
1176.53464,0.04268
1174.60589,0.04271
1172.67715,0.04280
1170.74840,0.04290
1168.81966,0.04326
1166.89091,0.04379
1164.96217,0.04417
1163.03342,0.04448
1161.10467,0.04492
1159.17593,0.04549
1157.24718,0.04610
1155.31844,0.04673
1153.38969,0.04733
1151.46095,0.04775
1149.53220,0.04790
1147.60346,0.04795
1145.67471,0.04825
1143.74597,0.04889
1141.81722,0.04962
1139.88848,0.05006
1137.95973,0.05013
1136.03099,0.05015
1134.10224,0.05044
1132.17350,0.05097
1130.24475,0.05155
1128.31600,0.05221
1126.38726,0.05320
1124.45851,0.05440
1122.52977,0.05550
1120.60102,0.05656
1118.67228,0.05784
1116.74353,0.05922
1114.81479,0.06039
1112.88604,0.06136
1110.95730,0.06242
1109.02855,0.06356
1107.09981,0.06457
1105.17106,0.06559
1103.24232,0.06685
1101.31357,0.06805
1099.38483,0.06900
1097.45608,0.06986
1095.52733,0.07036
1093.59859,0.07045
1091.66984,0.07063
1089.74110,0.07105
1087.81235,0.07150
1085.88361,0.07189
1083.95486,0.07219
1082.02612,0.07232
1080.09737,0.07215
1078.16863,0.07200
1076.23988,0.07245
1074.31114,0.07346
1072.38239,0.07432
1070.45365,0.07470
1068.52490,0.07487
1066.59615,0.07518
1064.66741,0.07576
1062.73866,0.07644
1060.80992,0.07675
1058.88117,0.07637
1056.95243,0.07562
1055.02368,0.07504
1053.09494,0.07466
1051.16619,0.07431
1049.23745,0.07409
1047.30870,0.07396
1045.37996,0.07384
1043.45121,0.07381
1041.52247,0.07373
1039.59372,0.07351
1037.66498,0.07327
1035.73623,0.07275
1033.80748,0.07189
1031.87874,0.07123
1029.94999,0.07083
1028.02125,0.07026
1026.09250,0.06946
1024.16376,0.06873
1022.23501,0.06834
1020.30627,0.06815
1018.37752,0.06782
1016.44878,0.06732
1014.52003,0.06678
1012.59129,0.06616
1010.66254,0.06541
1008.73380,0.06472
1006.80505,0.06442
1004.87631,0.06433
1002.94756,0.06400
1001.01881,0.06345
999.09007,0.06295
997.16132,0.06260
995.23258,0.06229
993.30383,0.06198
991.37509,0.06181
989.44634,0.06170
987.51760,0.06143
985.58885,0.06113
983.66011,0.06088
981.73136,0.06063
979.80262,0.06056
977.87387,0.06059
975.94513,0.06040
974.01638,0.06023
972.08763,0.06035
970.15889,0.06052
968.23014,0.06049
966.30140,0.06027
964.37265,0.05995
962.44391,0.05963
960.51516,0.05953
958.58642,0.05974
956.65767,0.06011
954.72893,0.06050
952.80018,0.06086
950.87144,0.06104
948.94269,0.06095
947.01395,0.06065
945.08520,0.06025
943.15646,0.05991
941.22771,0.05967
939.29896,0.05961
937.37022,0.05986
935.44147,0.06026
933.51273,0.06055
931.58398,0.06061
929.65524,0.06029
927.72649,0.05971
925.79775,0.05932
923.86900,0.05926
921.94026,0.05918
920.01151,0.05901
918.08277,0.05891
916.15402,0.05882
914.22528,0.05864
912.29653,0.05853
910.36779,0.05868
908.43904,0.05866
906.51029,0.05808
904.58155,0.05755
902.65280,0.05756
900.72406,0.05776
898.79531,0.05791
896.86657,0.05798
894.93782,0.05769
893.00908,0.05711
891.08033,0.05676
889.15159,0.05688
887.22284,0.05729
885.29410,0.05750
883.36535,0.05729
881.43661,0.05703
879.50786,0.05694
877.57911,0.05688
875.65037,0.05679
873.72162,0.05660
871.79288,0.05636
869.86413,0.05615
867.93539,0.05599
866.00664,0.05591
864.07790,0.05585
862.14915,0.05571
860.22041,0.05552
858.29166,0.05528
856.36292,0.05482
854.43417,0.05433
852.50543,0.05424
850.57668,0.05449
848.64794,0.05477
846.71919,0.05480
844.79044,0.05438
842.86170,0.05387
840.93295,0.05383
839.00421,0.05413
837.07546,0.05434
835.14672,0.05433
833.21797,0.05440
831.28923,0.05479
829.36048,0.05522
827.43174,0.05503
825.50299,0.05437
823.57425,0.05396
821.64550,0.05403
819.71676,0.05446
817.78801,0.05500
815.85926,0.05518
813.93052,0.05495
812.00177,0.05464
810.07303,0.05461
808.14428,0.05504
806.21554,0.05552
804.28679,0.05566
802.35805,0.05558
800.42930,0.05548
798.50056,0.05539
796.57181,0.05522
794.64307,0.05487
792.71432,0.05471
790.78558,0.05493
788.85683,0.05501
786.92809,0.05478
784.99934,0.05471
783.07059,0.05479
781.14185,0.05465
779.21310,0.05459
777.28436,0.05494
775.35561,0.05544
773.42687,0.05569
771.49812,0.05567
769.56938,0.05563
767.64063,0.05557
765.71189,0.05528
763.78314,0.05473
761.85440,0.05413
759.92565,0.05382
757.99691,0.05396
756.06816,0.05420
754.13942,0.05402
752.21067,0.05373
750.28192,0.05402
748.35318,0.05461
746.42443,0.05475
744.49569,0.05434
742.56694,0.05375
740.63820,0.05310
738.70945,0.05255
736.78071,0.05234
734.85196,0.05271
732.92322,0.05382
730.99447,0.05521
729.06573,0.05588
727.13698,0.05550
725.20824,0.05484
723.27949,0.05470
721.35074,0.05505
719.42200,0.05512
717.49325,0.05457
715.56451,0.05397
713.63576,0.05375
711.70702,0.05376
709.77827,0.05373
707.84953,0.05358
705.92078,0.05346
703.99204,0.05357
702.06329,0.05376
700.13455,0.05352
698.20580,0.05299
696.27706,0.05305
694.34831,0.05367
692.41957,0.05397
690.49082,0.05362
688.56207,0.05327
686.63333,0.05331
684.70458,0.05316
682.77584,0.05251
680.84709,0.05197
678.91835,0.05184
676.98960,0.05185
675.06086,0.05193
673.13211,0.05184
671.20337,0.05144
669.27462,0.05124
667.34588,0.05143
665.41713,0.05153
663.48839,0.05136
661.55964,0.05136
659.63090,0.05188
657.70215,0.05251
655.77340,0.05241
653.84466,0.05154
651.91591,0.05083
649.98717,0.05076
648.05842,0.05087
646.12968,0.05079
644.20093,0.05077
642.27219,0.05079
640.34344,0.05043
638.41470,0.05017
636.48595,0.05038
634.55721,0.05068
632.62846,0.05134
630.69972,0.05214
628.77097,0.05184
626.84222,0.05023
624.91348,0.04878
622.98473,0.04882
621.05599,0.05016
619.12724,0.05133
617.19850,0.05102
615.26975,0.04947
613.34101,0.04826
611.41226,0.04849
609.48352,0.04906
607.55477,0.04877
605.62603,0.04866
603.69728,0.04924
601.76854,0.04992
599.83979,0.05068
