7497.03301,0.50344
7495.10426,0.49820
7493.17552,0.49623
7491.24677,0.50183
7489.31803,0.50650
7487.38928,0.50228
7485.46054,0.49521
7483.53179,0.49276
7481.60305,0.49423
7479.67430,0.49633
7477.74556,0.49737
7475.81681,0.49845
7473.88807,0.50123
7471.95932,0.50420
7470.03057,0.50543
7468.10183,0.50650
7466.17308,0.50728
7464.24434,0.50567
7462.31559,0.50285
7460.38685,0.49965
7458.45810,0.49650
7456.52936,0.49652
7454.60061,0.50174
7452.67187,0.50871
7450.74312,0.51046
7448.81438,0.50733
7446.88563,0.50512
7444.95689,0.50224
7443.02814,0.49665
7441.09940,0.49323
7439.17065,0.49282
7437.24190,0.49193
7435.31316,0.49016
7433.38441,0.48897
7431.45567,0.49002
7429.52692,0.49275
7427.59818,0.49519
7425.66943,0.49653
7423.74069,0.49595
7421.81194,0.49455
7419.88320,0.49314
7417.95445,0.49171
7416.02571,0.49309
7414.09696,0.49526
7412.16822,0.49312
7410.23947,0.49011
7408.31073,0.48887
7406.38198,0.48758
7404.45323,0.48786
7402.52449,0.48969
7400.59574,0.49260
7398.66700,0.49560
7396.73825,0.49365
7394.80951,0.48900
7392.88076,0.48907
7390.95202,0.49301
7389.02327,0.49456
7387.09453,0.49329
7385.16578,0.49256
7383.23704,0.49147
7381.30829,0.48966
7379.37955,0.48717
7377.45080,0.48408
7375.52205,0.48368
7373.59331,0.48296
7371.66456,0.47710
7369.73582,0.47115
7367.80707,0.47059
7365.87833,0.47213
7363.94958,0.47207
7362.02084,0.47344
7360.09209,0.47765
7358.16335,0.47860
7356.23460,0.47445
7354.30586,0.47097
7352.37711,0.47085
7350.44837,0.47269
7348.51962,0.47334
7346.59088,0.47154
7344.66213,0.47184
7342.73338,0.47538
7340.80464,0.47606
7338.87589,0.47331
7336.94715,0.47452
7335.01840,0.47726
7333.08966,0.47336
7331.16091,0.46786
7329.23217,0.46750
7327.30342,0.46775
7325.37468,0.46340
7323.44593,0.45829
7321.51719,0.45763
7319.58844,0.45774
7317.65970,0.45567
7315.73095,0.45471
7313.80221,0.45504
7311.87346,0.45473
7309.94471,0.45378
7308.01597,0.45305
7306.08722,0.45462
7304.15848,0.45872
7302.22973,0.46084
7300.30099,0.45917
7298.37224,0.45711
7296.44350,0.45461
7294.51475,0.45062
7292.58601,0.44886
7290.65726,0.45039
7288.72852,0.45083
7286.79977,0.44866
7284.87103,0.44625
7282.94228,0.44515
7281.01353,0.44419
7279.08479,0.44087
7277.15604,0.43646
7275.22730,0.43519
7273.29855,0.43883
7271.36981,0.44213
7269.44106,0.43858
7267.51232,0.43410
7265.58357,0.43699
7263.65483,0.44337
7261.72608,0.44679
7259.79734,0.44581
7257.86859,0.44036
7255.93985,0.43306
7254.01110,0.42927
7252.08236,0.43024
7250.15361,0.43202
7248.22486,0.43131
7246.29612,0.42954
7244.36737,0.43017
7242.43863,0.43267
7240.50988,0.43378
7238.58114,0.43244
7236.65239,0.43081
7234.72365,0.43108
7232.79490,0.43052
7230.86616,0.42640
7228.93741,0.42239
7227.00867,0.42099
7225.07992,0.41935
7223.15118,0.41720
7221.22243,0.41798
7219.29369,0.42093
7217.36494,0.42272
7215.43619,0.42227
7213.50745,0.42015
7211.57870,0.41858
7209.64996,0.41892
7207.72121,0.41999
7205.79247,0.42007
7203.86372,0.41800
7201.93498,0.41485
7200.00623,0.41350
7198.07749,0.41574
7196.14874,0.41989
7194.22000,0.42172
7192.29125,0.41963
7190.36251,0.41776
7188.43376,0.41877
7186.50501,0.41872
7184.57627,0.41636
7182.64752,0.41597
7180.71878,0.41846
7178.79003,0.42039
7176.86129,0.41937
7174.93254,0.41747
7173.00380,0.41755
7171.07505,0.41892
7169.14631,0.42035
7167.21756,0.42064
7165.28882,0.41794
7163.36007,0.41420
7161.43133,0.41370
7159.50258,0.41610
7157.57384,0.41883
7155.64509,0.42076
7153.71634,0.41954
7151.78760,0.41518
7149.85885,0.41265
7147.93011,0.41472
7146.00136,0.41809
7144.07262,0.41809
7142.14387,0.41489
7140.21513,0.41234
7138.28638,0.41165
7136.35764,0.41220
7134.42889,0.41480
7132.50015,0.41814
7130.57140,0.41918
7128.64266,0.41787
7126.71391,0.41655
7124.78516,0.41735
7122.85642,0.42007
7120.92767,0.42197
7118.99893,0.42060
7117.07018,0.41681
7115.14144,0.41360
7113.21269,0.41360
7111.28395,0.41625
7109.35520,0.41765
7107.42646,0.41738
7105.49771,0.41786
7103.56897,0.41882
7101.64022,0.41920
7099.71148,0.41870
7097.78273,0.41800
7095.85399,0.41731
7093.92524,0.41516
7091.99649,0.41291
7090.06775,0.41331
7088.13900,0.41410
7086.21026,0.41313
7084.28151,0.41255
7082.35277,0.41343
7080.42402,0.41510
7078.49528,0.41625
7076.56653,0.41661
7074.63779,0.41674
7072.70904,0.41560
7070.78030,0.41489
7068.85155,0.41621
7066.92281,0.41686
7064.99406,0.41568
7063.06532,0.41361
7061.13657,0.41228
7059.20782,0.41430
7057.27908,0.41897
7055.35033,0.42198
7053.42159,0.42122
7051.49284,0.41858
7049.56410,0.41676
7047.63535,0.41716
7045.70661,0.41902
7043.77786,0.42097
7041.84912,0.42271
7039.92037,0.42371
7037.99163,0.42268
7036.06288,0.42051
7034.13414,0.41925
7032.20539,0.41818
7030.27664,0.41653
7028.34790,0.41618
7026.41915,0.41746
7024.49041,0.41803
7022.56166,0.41723
7020.63292,0.41624
7018.70417,0.41539
7016.77543,0.41536
7014.84668,0.41612
7012.91794,0.41678
7010.98919,0.41761
7009.06045,0.41796
7007.13170,0.41660
7005.20296,0.41545
7003.27421,0.41665
7001.34547,0.41823
6999.41672,0.41820
6997.48797,0.41739
6995.55923,0.41717
6993.63048,0.41833
6991.70174,0.41940
6989.77299,0.41923
6987.84425,0.41933
6985.91550,0.42025
6983.98676,0.42092
6982.05801,0.42113
6980.12927,0.42231
6978.20052,0.42542
6976.27178,0.42843
6974.34303,0.42764
6972.41429,0.42456
6970.48554,0.42527
6968.55680,0.42954
6966.62805,0.43179
6964.69930,0.43096
6962.77056,0.43007
6960.84181,0.43046
6958.91307,0.43074
6956.98432,0.43019
6955.05558,0.43129
6953.12683,0.43581
6951.19809,0.44104
6949.26934,0.44393
6947.34060,0.44297
6945.41185,0.43806
6943.48311,0.43401
6941.55436,0.43569
6939.62562,0.44081
6937.69687,0.44422
6935.76812,0.44435
6933.83938,0.44252
6931.91063,0.44129
6929.98189,0.44185
6928.05314,0.44242
6926.12440,0.44247
6924.19565,0.44232
6922.26691,0.44257
6920.33816,0.44481
6918.40942,0.44743
6916.48067,0.44802
6914.55193,0.44748
6912.62318,0.44726
6910.69444,0.44764
6908.76569,0.44790
6906.83695,0.44788
6904.90820,0.44814
6902.97945,0.44848
6901.05071,0.44880
6899.12196,0.44916
6897.19322,0.44894
6895.26447,0.44844
6893.33573,0.44849
6891.40698,0.44808
6889.47824,0.44714
6887.54949,0.44832
6885.62075,0.45219
6883.69200,0.45556
6881.76326,0.45501
6879.83451,0.45183
6877.90577,0.44984
6875.97702,0.44987
6874.04828,0.45226
6872.11953,0.45520
6870.19078,0.45426
6868.26204,0.45112
6866.33329,0.45050
6864.40455,0.45338
6862.47580,0.45684
6860.54706,0.45753
6858.61831,0.45730
6856.68957,0.45812
6854.76082,0.45710
6852.83208,0.45450
6850.90333,0.45407
6848.97459,0.45476
6847.04584,0.45403
6845.11710,0.45426
6843.18835,0.45739
6841.25960,0.46085
6839.33086,0.46159
6837.40211,0.45984
6835.47337,0.45850
6833.54462,0.45935
6831.61588,0.46104
6829.68713,0.46089
6827.75839,0.45879
6825.82964,0.45758
6823.90090,0.45896
6821.97215,0.46183
6820.04341,0.46440
6818.11466,0.46523
6816.18592,0.46332
6814.25717,0.45937
6812.32843,0.45661
6810.39968,0.45853
6808.47093,0.46346
6806.54219,0.46522
6804.61344,0.46239
6802.68470,0.45963
6800.75595,0.46011
6798.82721,0.46238
6796.89846,0.46414
6794.96972,0.46463
6793.04097,0.46349
6791.11223,0.46160
6789.18348,0.46076
6787.25474,0.46093
6785.32599,0.46084
6783.39725,0.46064
6781.46850,0.46115
6779.53975,0.46260
6777.61101,0.46535
6775.68226,0.46689
6773.75352,0.46474
6771.82477,0.46207
6769.89603,0.46132
6767.96728,0.46108
6766.03854,0.46090
6764.10979,0.46086
6762.18105,0.46155
6760.25230,0.46469
6758.32356,0.46863
6756.39481,0.47006
6754.46607,0.46963
6752.53732,0.46886
6750.60858,0.46739
6748.67983,0.46556
6746.75108,0.46488
6744.82234,0.46560
6742.89359,0.46617
6740.96485,0.46653
6739.03610,0.46779
6737.10736,0.46915
6735.17861,0.46935
6733.24987,0.46892
6731.32112,0.46823
6729.39238,0.46667
6727.46363,0.46496
6725.53489,0.46416
6723.60614,0.46404
6721.67740,0.46491
6719.74865,0.46724
6717.81991,0.46937
6715.89116,0.46980
6713.96241,0.47043
6712.03367,0.47299
6710.10492,0.47550
6708.17618,0.47481
6706.24743,0.47117
6704.31869,0.46890
6702.38994,0.47060
6700.46120,0.47348
6698.53245,0.47405
6696.60371,0.47323
6694.67496,0.47359
6692.74622,0.47515
6690.81747,0.47685
6688.88873,0.47831
6686.95998,0.47928
6685.03123,0.47828
6683.10249,0.47554
6681.17374,0.47477
6679.24500,0.47676
6677.31625,0.47763
6675.38751,0.47502
6673.45876,0.47143
6671.53002,0.47056
6669.60127,0.47201
6667.67253,0.47326
6665.74378,0.47483
6663.81504,0.47762
6661.88629,0.47905
6659.95755,0.47749
6658.02880,0.47531
6656.10006,0.47423
6654.17131,0.47381
6652.24256,0.47467
6650.31382,0.47757
6648.38507,0.48076
6646.45633,0.48180
6644.52758,0.48137
6642.59884,0.48160
6640.67009,0.48147
6638.74135,0.47972
6636.81260,0.47914
6634.88386,0.48128
6632.95511,0.48318
6631.02637,0.48280
6629.09762,0.48053
6627.16888,0.47789
6625.24013,0.47734
6623.31139,0.47868
6621.38264,0.47844
6619.45389,0.47608
6617.52515,0.47441
6615.59640,0.47489
6613.66766,0.47692
6611.73891,0.47881
6609.81017,0.47945
6607.88142,0.47927
6605.95268,0.47950
6604.02393,0.48064
6602.09519,0.48095
6600.16644,0.47961
6598.23770,0.47862
6596.30895,0.47990
6594.38021,0.48294
6592.45146,0.48473
6590.52271,0.48400
6588.59397,0.48188
6586.66522,0.47934
6584.73648,0.47835
6582.80773,0.47929
6580.87899,0.48021
6578.95024,0.48097
6577.02150,0.48177
6575.09275,0.48117
6573.16401,0.47965
6571.23526,0.47936
6569.30652,0.47975
6567.37777,0.47900
6565.44903,0.47838
6563.52028,0.47957
6561.59154,0.48075
6559.66279,0.48079
6557.73404,0.48211
6555.80530,0.48444
6553.87655,0.48472
6551.94781,0.48412
6550.01906,0.48478
6548.09032,0.48474
6546.16157,0.48379
6544.23283,0.48438
6542.30408,0.48463
6540.37534,0.48252
6538.44659,0.48102
6536.51785,0.48198
6534.58910,0.48354
6532.66036,0.48356
6530.73161,0.48249
6528.80287,0.48261
6526.87412,0.48391
6524.94537,0.48579
6523.01663,0.48860
6521.08788,0.49040
6519.15914,0.48911
6517.23039,0.48567
6515.30165,0.48359
6513.37290,0.48510
6511.44416,0.48723
6509.51541,0.48720
6507.58667,0.48693
6505.65792,0.48724
6503.72918,0.48632
6501.80043,0.48438
6499.87169,0.48352
6497.94294,0.48468
6496.01419,0.48665
6494.08545,0.48775
6492.15670,0.48826
6490.22796,0.48893
6488.29921,0.48866
6486.37047,0.48722
6484.44172,0.48708
6482.51298,0.48935
6480.58423,0.49114
6478.65549,0.49008
6476.72674,0.48850
6474.79800,0.48827
6472.86925,0.48728
6470.94051,0.48561
6469.01176,0.48596
6467.08302,0.48784
6465.15427,0.48865
6463.22552,0.48794
6461.29678,0.48763
6459.36803,0.48845
6457.43929,0.48881
6455.51054,0.48846
6453.58180,0.48876
6451.65305,0.48989
6449.72431,0.49098
6447.79556,0.49173
6445.86682,0.49199
6443.93807,0.49120
6442.00933,0.48961
6440.08058,0.48761
6438.15184,0.48553
6436.22309,0.48472
6434.29434,0.48575
6432.36560,0.48736
6430.43685,0.48919
6428.50811,0.49168
6426.57936,0.49395
6424.65062,0.49580
6422.72187,0.49714
6420.79313,0.49588
6418.86438,0.49208
6416.93564,0.48976
6415.00689,0.49098
6413.07815,0.49344
6411.14940,0.49465
6409.22066,0.49401
6407.29191,0.49144
6405.36317,0.48819
6403.43442,0.48722
6401.50567,0.48875
6399.57693,0.48969
6397.64818,0.48918
6395.71944,0.48859
6393.79069,0.48861
6391.86195,0.48955
6389.93320,0.49101
6388.00446,0.49222
6386.07571,0.49321
6384.14697,0.49354
6382.21822,0.49208
6380.28948,0.49019
6378.36073,0.49016
6376.43199,0.49106
6374.50324,0.49104
6372.57450,0.49007
6370.64575,0.48977
6368.71700,0.49147
6366.78826,0.49340
6364.85951,0.49306
6362.93077,0.49077
6361.00202,0.48841
6359.07328,0.48735
6357.14453,0.48814
6355.21579,0.48970
6353.28704,0.49058
6351.35830,0.49103
6349.42955,0.49085
6347.50081,0.49019
6345.57206,0.49072
6343.64332,0.49168
6341.71457,0.49064
6339.78582,0.48832
6337.85708,0.48858
6335.92833,0.49174
6333.99959,0.49346
6332.07084,0.49239
6330.14210,0.49043
6328.21335,0.48890
6326.28461,0.48865
6324.35586,0.48911
6322.42712,0.48987
6320.49837,0.49083
6318.56963,0.49079
6316.64088,0.49060
6314.71214,0.49120
6312.78339,0.49139
6310.85465,0.49178
6308.92590,0.49243
6306.99715,0.49126
6305.06841,0.48963
6303.13966,0.49010
6301.21092,0.49135
6299.28217,0.49171
6297.35343,0.49124
6295.42468,0.49039
6293.49594,0.48990
6291.56719,0.48974
6289.63845,0.48934
6287.70970,0.48929
6285.78096,0.49065
6283.85221,0.49198
6281.92347,0.49162
6279.99472,0.49167
6278.06598,0.49291
6276.13723,0.49293
6274.20848,0.49174
6272.27974,0.49075
6270.35099,0.49038
6268.42225,0.49068
6266.49350,0.49065
6264.56476,0.49011
6262.63601,0.49066
6260.70727,0.49167
6258.77852,0.49105
6256.84978,0.48934
6254.92103,0.48839
6252.99229,0.48934
6251.06354,0.49171
6249.13480,0.49312
6247.20605,0.49274
6245.27730,0.49207
6243.34856,0.49215
6241.41981,0.49297
6239.49107,0.49356
6237.56232,0.49310
6235.63358,0.49266
6233.70483,0.49288
6231.77609,0.49224
6229.84734,0.49042
6227.91860,0.48916
6225.98985,0.48904
6224.06111,0.48881
6222.13236,0.48856
6220.20362,0.48974
6218.27487,0.49136
6216.34613,0.49148
6214.41738,0.49032
6212.48863,0.48873
6210.55989,0.48742
6208.63114,0.48701
6206.70240,0.48685
6204.77365,0.48618
6202.84491,0.48569
6200.91616,0.48514
6198.98742,0.48343
6197.05867,0.48144
6195.12993,0.48017
6193.20118,0.47950
6191.27244,0.47935
6189.34369,0.47855
6187.41495,0.47686
6185.48620,0.47651
6183.55746,0.47835
6181.62871,0.48062
6179.69996,0.48176
6177.77122,0.48156
6175.84247,0.48022
6173.91373,0.47865
6171.98498,0.47861
6170.05624,0.48047
6168.12749,0.48227
6166.19875,0.48178
6164.27000,0.47918
6162.34126,0.47644
6160.41251,0.47535
6158.48377,0.47593
6156.55502,0.47651
6154.62628,0.47630
6152.69753,0.47605
6150.76878,0.47600
6148.84004,0.47559
6146.91129,0.47506
6144.98255,0.47546
6143.05380,0.47587
6141.12506,0.47458
6139.19631,0.47312
6137.26757,0.47346
6135.33882,0.47393
6133.41008,0.47239
6131.48133,0.47022
6129.55259,0.46943
6127.62384,0.46940
6125.69510,0.46911
6123.76635,0.46843
6121.83761,0.46736
6119.90886,0.46615
6117.98011,0.46498
6116.05137,0.46402
6114.12262,0.46337
6112.19388,0.46214
6110.26513,0.45993
6108.33639,0.45734
6106.40764,0.45473
6104.47890,0.45225
6102.55015,0.44976
6100.62141,0.44711
6098.69266,0.44430
6096.76392,0.44088
6094.83517,0.43693
6092.90643,0.43355
6090.97768,0.43117
6089.04893,0.42869
6087.12019,0.42517
6085.19144,0.42137
6083.26270,0.41838
6081.33395,0.41646
6079.40521,0.41518
6077.47646,0.41388
6075.54772,0.41190
6073.61897,0.40879
6071.69023,0.40524
6069.76148,0.40182
6067.83274,0.39776
6065.90399,0.39292
6063.97525,0.38820
6062.04650,0.38402
6060.11776,0.38004
6058.18901,0.37601
6056.26026,0.37211
6054.33152,0.36786
6052.40277,0.36369
6050.47403,0.36130
6048.54528,0.36023
6046.61654,0.35860
6044.68779,0.35615
6042.75905,0.35306
6040.83030,0.34931
6038.90156,0.34641
6036.97281,0.34475
6035.04407,0.34278
6033.11532,0.34107
6031.18658,0.33969
6029.25783,0.33657
6027.32909,0.33210
6025.40034,0.32784
6023.47159,0.32455
6021.54285,0.32236
6019.61410,0.32043
6017.68536,0.31851
6015.75661,0.31715
6013.82787,0.31652
6011.89912,0.31680
6009.97038,0.31906
6008.04163,0.32302
6006.11289,0.32663
6004.18414,0.32947
6002.25540,0.33241
6000.32665,0.33613
5998.39791,0.34108
5996.46916,0.34639
5994.54041,0.35050
5992.61167,0.35338
5990.68292,0.35679
5988.75418,0.36182
5986.82543,0.36687
5984.89669,0.36959
5982.96794,0.37021
5981.03920,0.37051
5979.11045,0.37097
5977.18171,0.37110
5975.25296,0.37156
5973.32422,0.37347
5971.39547,0.37547
5969.46673,0.37616
5967.53798,0.37638
5965.60924,0.37620
5963.68049,0.37517
5961.75174,0.37309
5959.82300,0.37048
5957.89425,0.36815
5955.96551,0.36529
5954.03676,0.36195
5952.10802,0.35950
5950.17927,0.35727
5948.25053,0.35400
5946.32178,0.35000
5944.39304,0.34598
5942.46429,0.34201
5940.53555,0.33774
5938.60680,0.33288
5936.67806,0.32833
5934.74931,0.32503
5932.82057,0.32247
5930.89182,0.31955
5928.96307,0.31539
5927.03433,0.31071
5925.10558,0.30686
5923.17684,0.30327
5921.24809,0.29974
5919.31935,0.29671
5917.39060,0.29286
5915.46186,0.28824
5913.53311,0.28451
5911.60437,0.28130
5909.67562,0.27811
5907.74688,0.27503
5905.81813,0.27161
5903.88939,0.26852
5901.96064,0.26618
5900.03189,0.26373
5898.10315,0.26120
5896.17440,0.25820
5894.24566,0.25381
5892.31691,0.24924
5890.38817,0.24578
5888.45942,0.24247
5886.53068,0.23858
5884.60193,0.23406
5882.67319,0.22928
5880.74444,0.22591
5878.81570,0.22432
5876.88695,0.22287
5874.95821,0.22049
5873.02946,0.21750
5871.10072,0.21477
5869.17197,0.21268
5867.24322,0.21091
5865.31448,0.20859
5863.38573,0.20533
5861.45699,0.20174
5859.52824,0.19827
5857.59950,0.19512
5855.67075,0.19240
5853.74201,0.19006
5851.81326,0.18785
5849.88452,0.18499
5847.95577,0.18094
5846.02703,0.17621
5844.09828,0.17206
5842.16954,0.16965
5840.24079,0.16818
5838.31205,0.16581
5836.38330,0.16284
5834.45455,0.16052
5832.52581,0.15871
5830.59706,0.15697
5828.66832,0.15577
5826.73957,0.15596
5824.81083,0.15701
5822.88208,0.15766
5820.95334,0.15874
5819.02459,0.16131
5817.09585,0.16472
5815.16710,0.16774
5813.23836,0.17016
5811.30961,0.17251
5809.38087,0.17474
5807.45212,0.17730
5805.52337,0.18116
5803.59463,0.18610
5801.66588,0.19107
5799.73714,0.19471
5797.80839,0.19751
5795.87965,0.20096
5793.95090,0.20400
5792.02216,0.20558
5790.09341,0.20780
5788.16467,0.21181
5786.23592,0.21576
5784.30718,0.21837
5782.37843,0.22015
5780.44969,0.22178
5778.52094,0.22357
5776.59220,0.22565
5774.66345,0.22802
5772.73470,0.22997
5770.80596,0.23096
5768.87721,0.23180
5766.94847,0.23292
5765.01972,0.23330
5763.09098,0.23240
5761.16223,0.23101
5759.23349,0.23025
5757.30474,0.23046
5755.37600,0.23096
5753.44725,0.23112
5751.51851,0.23067
5749.58976,0.22953
5747.66102,0.22841
5745.73227,0.22780
5743.80352,0.22698
5741.87478,0.22550
5739.94603,0.22424
5738.01729,0.22386
5736.08854,0.22376
5734.15980,0.22358
5732.23105,0.22346
5730.30231,0.22330
5728.37356,0.22368
5726.44482,0.22519
5724.51607,0.22667
5722.58733,0.22703
5720.65858,0.22722
5718.72984,0.22806
5716.80109,0.22909
5714.87235,0.22979
5712.94360,0.22964
5711.01485,0.22855
5709.08611,0.22734
5707.15736,0.22668
5705.22862,0.22640
5703.29987,0.22630
5701.37113,0.22649
5699.44238,0.22695
5697.51364,0.22732
5695.58489,0.22764
5693.65615,0.22878
5691.72740,0.23079
5689.79866,0.23282
5687.86991,0.23503
5685.94117,0.23781
5684.01242,0.24056
5682.08368,0.24290
5680.15493,0.24504
5678.22618,0.24682
5676.29744,0.24795
5674.36869,0.24914
5672.43995,0.25109
5670.51120,0.25256
5668.58246,0.25279
5666.65371,0.25348
5664.72497,0.25513
5662.79622,0.25631
5660.86748,0.25703
5658.93873,0.25771
5657.00999,0.25782
5655.08124,0.25771
5653.15250,0.25849
5651.22375,0.26028
5649.29500,0.26220
5647.36626,0.26354
5645.43751,0.26404
5643.50877,0.26408
5641.58002,0.26492
5639.65128,0.26701
5637.72253,0.26943
5635.79379,0.27158
5633.86504,0.27314
5631.93630,0.27386
5630.00755,0.27447
5628.07881,0.27567
5626.15006,0.27687
5624.22132,0.27766
5622.29257,0.27891
5620.36383,0.28112
5618.43508,0.28354
5616.50633,0.28486
5614.57759,0.28446
5612.64884,0.28367
5610.72010,0.28410
5608.79135,0.28568
5606.86261,0.28762
5604.93386,0.28933
5603.00512,0.29062
5601.07637,0.29114
5599.14763,0.29128
5597.21888,0.29218
5595.29014,0.29366
5593.36139,0.29483
5591.43265,0.29517
5589.50390,0.29481
5587.57516,0.29454
5585.64641,0.29524
5583.71766,0.29679
5581.78892,0.29801
5579.86017,0.29871
5577.93143,0.29943
5576.00268,0.29996
5574.07394,0.30046
5572.14519,0.30132
5570.21645,0.30233
5568.28770,0.30329
5566.35896,0.30426
5564.43021,0.30531
5562.50147,0.30644
5560.57272,0.30744
5558.64398,0.30801
5556.71523,0.30823
5554.78648,0.30859
5552.85774,0.30917
5550.92899,0.30966
5549.00025,0.31016
5547.07150,0.31063
5545.14276,0.31065
5543.21401,0.31056
5541.28527,0.31088
5539.35652,0.31140
5537.42778,0.31214
5535.49903,0.31300
5533.57029,0.31294
5531.64154,0.31224
5529.71280,0.31258
5527.78405,0.31358
5525.85531,0.31376
5523.92656,0.31370
5521.99781,0.31434
5520.06907,0.31489
5518.14032,0.31439
5516.21158,0.31376
5514.28283,0.31412
5512.35409,0.31508
5510.42534,0.31564
5508.49660,0.31543
5506.56785,0.31470
5504.63911,0.31365
5502.71036,0.31295
5500.78162,0.31346
5498.85287,0.31428
5496.92413,0.31432
5494.99538,0.31431
5493.06664,0.31430
5491.13789,0.31381
5489.20914,0.31361
5487.28040,0.31392
5485.35165,0.31434
5483.42291,0.31454
5481.49416,0.31396
5479.56542,0.31292
5477.63667,0.31221
5475.70793,0.31182
5473.77918,0.31128
5471.85044,0.31065
5469.92169,0.31040
5467.99295,0.31042
5466.06420,0.31061
5464.13546,0.31103
5462.20671,0.31151
5460.27796,0.31225
5458.34922,0.31331
5456.42047,0.31480
5454.49173,0.31683
5452.56298,0.31839
5450.63424,0.31895
5448.70549,0.31977
5446.77675,0.32163
5444.84800,0.32379
5442.91926,0.32551
5440.99051,0.32654
5439.06177,0.32698
5437.13302,0.32748
5435.20428,0.32838
5433.27553,0.32966
5431.34679,0.33119
5429.41804,0.33228
5427.48929,0.33219
5425.56055,0.33151
5423.63180,0.33164
5421.70306,0.33265
5419.77431,0.33373
5417.84557,0.33478
5415.91682,0.33583
5413.98808,0.33655
5412.05933,0.33694
5410.13059,0.33707
5408.20184,0.33705
5406.27310,0.33699
5404.34435,0.33701
5402.41561,0.33763
5400.48686,0.33885
5398.55811,0.33975
5396.62937,0.33994
5394.70062,0.33998
5392.77188,0.34022
5390.84313,0.34037
5388.91439,0.34046
5386.98564,0.34084
5385.05690,0.34152
5383.12815,0.34267
5381.19941,0.34399
5379.27066,0.34459
5377.34192,0.34464
5375.41317,0.34515
5373.48443,0.34608
5371.55568,0.34669
5369.62694,0.34711
5367.69819,0.34771
5365.76944,0.34850
5363.84070,0.34947
5361.91195,0.35011
5359.98321,0.35019
5358.05446,0.35040
5356.12572,0.35084
5354.19697,0.35130
5352.26823,0.35218
5350.33948,0.35330
5348.41074,0.35356
5346.48199,0.35268
5344.55325,0.35224
5342.62450,0.35329
5340.69576,0.35439
5338.76701,0.35468
5336.83827,0.35506
5334.90952,0.35575
5332.98077,0.35604
5331.05203,0.35567
5329.12328,0.35555
5327.19454,0.35633
5325.26579,0.35716
5323.33705,0.35760
5321.40830,0.35820
5319.47956,0.35902
5317.55081,0.35960
5315.62207,0.35976
5313.69332,0.35982
5311.76458,0.36004
5309.83583,0.36043
5307.90709,0.36108
5305.97834,0.36140
5304.04959,0.36125
5302.12085,0.36152
5300.19210,0.36184
5298.26336,0.36132
5296.33461,0.36090
5294.40587,0.36100
5292.47712,0.36077
5290.54838,0.36041
5288.61963,0.36039
5286.69089,0.35999
5284.76214,0.35873
5282.83340,0.35741
5280.90465,0.35654
5278.97591,0.35563
5277.04716,0.35427
5275.11842,0.35283
5273.18967,0.35178
5271.26092,0.35092
5269.33218,0.34998
5267.40343,0.34919
5265.47469,0.34870
5263.54594,0.34832
5261.61720,0.34832
5259.68845,0.34898
5257.75971,0.34916
5255.83096,0.34808
5253.90222,0.34687
5251.97347,0.34671
5250.04473,0.34768
5248.11598,0.34849
5246.18724,0.34817
5244.25849,0.34794
5242.32975,0.34844
5240.40100,0.34907
5238.47225,0.34994
5236.54351,0.35105
5234.61476,0.35158
5232.68602,0.35118
5230.75727,0.35076
5228.82853,0.35138
5226.89978,0.35250
5224.97104,0.35294
5223.04229,0.35289
5221.11355,0.35287
5219.18480,0.35251
5217.25606,0.35193
5215.32731,0.35208
5213.39857,0.35277
5211.46982,0.35291
5209.54107,0.35233
5207.61233,0.35180
5205.68358,0.35183
5203.75484,0.35231
5201.82609,0.35282
5199.89735,0.35289
5197.96860,0.35233
5196.03986,0.35152
5194.11111,0.35074
5192.18237,0.35006
5190.25362,0.35016
5188.32488,0.35120
5186.39613,0.35200
5184.46739,0.35184
5182.53864,0.35126
5180.60990,0.35083
5178.68115,0.35031
5176.75240,0.34952
5174.82366,0.34896
5172.89491,0.34900
5170.96617,0.34946
5169.03742,0.35008
5167.10868,0.35021
5165.17993,0.34977
5163.25119,0.35009
5161.32244,0.35149
5159.39370,0.35218
5157.46495,0.35151
5155.53621,0.35059
5153.60746,0.35002
5151.67872,0.34962
5149.74997,0.34933
5147.82123,0.34936
5145.89248,0.34964
5143.96373,0.34962
5142.03499,0.34897
5140.10624,0.34819
5138.17750,0.34785
5136.24875,0.34782
5134.32001,0.34774
5132.39126,0.34745
5130.46252,0.34691
5128.53377,0.34644
5126.60503,0.34638
5124.67628,0.34654
5122.74754,0.34639
5120.81879,0.34579
5118.89005,0.34529
5116.96130,0.34528
5115.03255,0.34523
5113.10381,0.34497
5111.17506,0.34531
5109.24632,0.34609
5107.31757,0.34615
5105.38883,0.34565
5103.46008,0.34550
5101.53134,0.34554
5099.60259,0.34544
5097.67385,0.34557
5095.74510,0.34627
5093.81636,0.34733
5091.88761,0.34820
5089.95887,0.34890
5088.03012,0.34976
5086.10138,0.35035
5084.17263,0.35002
5082.24388,0.34912
5080.31514,0.34907
5078.38639,0.35030
5076.45765,0.35136
5074.52890,0.35163
5072.60016,0.35187
5070.67141,0.35232
5068.74267,0.35298
5066.81392,0.35362
5064.88518,0.35377
5062.95643,0.35377
5061.02769,0.35418
5059.09894,0.35471
5057.17020,0.35489
5055.24145,0.35501
5053.31270,0.35534
5051.38396,0.35547
5049.45521,0.35555
5047.52647,0.35624
5045.59772,0.35721
5043.66898,0.35777
5041.74023,0.35777
5039.81149,0.35744
5037.88274,0.35729
5035.95400,0.35729
5034.02525,0.35701
5032.09651,0.35665
5030.16776,0.35662
5028.23902,0.35671
5026.31027,0.35668
5024.38153,0.35664
5022.45278,0.35683
5020.52403,0.35739
5018.59529,0.35782
5016.66654,0.35747
5014.73780,0.35663
5012.80905,0.35591
5010.88031,0.35528
5008.95156,0.35455
5007.02282,0.35402
5005.09407,0.35376
5003.16533,0.35355
5001.23658,0.35343
4999.30784,0.35355
4997.37909,0.35352
4995.45035,0.35315
4993.52160,0.35323
4991.59286,0.35409
4989.66411,0.35486
4987.73536,0.35513
4985.80662,0.35536
4983.87787,0.35552
4981.94913,0.35521
4980.02038,0.35492
4978.09164,0.35536
4976.16289,0.35617
4974.23415,0.35665
4972.30540,0.35664
4970.37666,0.35636
4968.44791,0.35622
4966.51917,0.35638
4964.59042,0.35659
4962.66168,0.35672
4960.73293,0.35683
4958.80418,0.35703
4956.87544,0.35716
4954.94669,0.35685
4953.01795,0.35639
4951.08920,0.35617
4949.16046,0.35589
4947.23171,0.35553
4945.30297,0.35546
4943.37422,0.35561
4941.44548,0.35576
4939.51673,0.35579
4937.58799,0.35547
4935.65924,0.35485
4933.73050,0.35404
4931.80175,0.35326
4929.87301,0.35294
4927.94426,0.35330
4926.01551,0.35382
4924.08677,0.35394
4922.15802,0.35409
4920.22928,0.35431
4918.30053,0.35407
4916.37179,0.35379
4914.44304,0.35391
4912.51430,0.35408
4910.58555,0.35410
4908.65681,0.35427
4906.72806,0.35453
4904.79932,0.35431
4902.87057,0.35396
4900.94183,0.35426
4899.01308,0.35494
4897.08434,0.35533
4895.15559,0.35518
4893.22684,0.35478
4891.29810,0.35455
4889.36935,0.35478
4887.44061,0.35568
4885.51186,0.35657
4883.58312,0.35643
4881.65437,0.35565
4879.72563,0.35495
4877.79688,0.35442
4875.86814,0.35445
4873.93939,0.35489
4872.01065,0.35518
4870.08190,0.35527
4868.15316,0.35507
4866.22441,0.35445
4864.29566,0.35391
4862.36692,0.35379
4860.43817,0.35378
4858.50943,0.35372
4856.58068,0.35412
4854.65194,0.35487
4852.72319,0.35511
4850.79445,0.35504
4848.86570,0.35543
4846.93696,0.35597
4845.00821,0.35624
4843.07947,0.35629
4841.15072,0.35615
4839.22198,0.35611
4837.29323,0.35639
4835.36449,0.35644
4833.43574,0.35564
4831.50699,0.35447
4829.57825,0.35370
4827.64950,0.35331
4825.72076,0.35321
4823.79201,0.35340
4821.86327,0.35347
4819.93452,0.35301
4818.00578,0.35217
4816.07703,0.35162
4814.14829,0.35160
4812.21954,0.35181
4810.29080,0.35222
4808.36205,0.35264
4806.43331,0.35235
4804.50456,0.35139
4802.57582,0.35055
4800.64707,0.35003
4798.71832,0.34930
4796.78958,0.34821
4794.86083,0.34746
4792.93209,0.34757
4791.00334,0.34814
4789.07460,0.34824
4787.14585,0.34763
4785.21711,0.34711
4783.28836,0.34698
4781.35962,0.34682
4779.43087,0.34657
4777.50213,0.34644
4775.57338,0.34647
4773.64464,0.34693
4771.71589,0.34814
4769.78714,0.34954
4767.85840,0.35023
4765.92965,0.35027
4764.00091,0.35036
4762.07216,0.35102
4760.14342,0.35170
4758.21467,0.35125
4756.28593,0.34994
4754.35718,0.34891
4752.42844,0.34847
4750.49969,0.34828
4748.57095,0.34778
4746.64220,0.34684
4744.71346,0.34597
4742.78471,0.34503
4740.85597,0.34350
4738.92722,0.34166
4736.99847,0.33991
4735.06973,0.33816
4733.14098,0.33623
4731.21224,0.33396
4729.28349,0.33126
4727.35475,0.32817
4725.42600,0.32469
4723.49726,0.32039
4721.56851,0.31545
4719.63977,0.31103
4717.71102,0.30791
4715.78228,0.30607
4713.85353,0.30498
4711.92479,0.30404
4709.99604,0.30295
4708.06729,0.30147
4706.13855,0.29945
4704.20980,0.29682
4702.28106,0.29367
4700.35231,0.29032
4698.42357,0.28642
4696.49482,0.28127
4694.56608,0.27562
4692.63733,0.27059
4690.70859,0.26638
4688.77984,0.26289
4686.85110,0.26042
4684.92235,0.25931
4682.99361,0.25962
4681.06486,0.26105
4679.13612,0.26319
4677.20737,0.26600
4675.27862,0.26950
4673.34988,0.27302
4671.42113,0.27601
4669.49239,0.27854
4667.56364,0.28055
4665.63490,0.28208
4663.70615,0.28343
4661.77741,0.28454
4659.84866,0.28537
4657.91992,0.28583
4655.99117,0.28568
4654.06243,0.28528
4652.13368,0.28526
4650.20494,0.28523
4648.27619,0.28413
4646.34745,0.28172
4644.41870,0.27873
4642.48995,0.27580
4640.56121,0.27258
4638.63246,0.26856
4636.70372,0.26418
4634.77497,0.26053
4632.84623,0.25853
4630.91748,0.25833
4628.98874,0.25973
4627.05999,0.26260
4625.13125,0.26685
4623.20250,0.27214
4621.27376,0.27767
4619.34501,0.28280
4617.41627,0.28736
4615.48752,0.29144
4613.55877,0.29506
4611.63003,0.29788
4609.70128,0.29978
4607.77254,0.30113
4605.84379,0.30252
4603.91505,0.30398
4601.98630,0.30494
4600.05756,0.30551
4598.12881,0.30586
4596.20007,0.30529
4594.27132,0.30366
4592.34258,0.30163
4590.41383,0.29981
4588.48509,0.29839
4586.55634,0.29732
4584.62760,0.29659
4582.69885,0.29627
4580.77010,0.29617
4578.84136,0.29558
4576.91261,0.29432
4574.98387,0.29351
4573.05512,0.29419
4571.12638,0.29607
4569.19763,0.29853
4567.26889,0.30130
4565.34014,0.30400
4563.41140,0.30645
4561.48265,0.30863
4559.55391,0.31041
4557.62516,0.31143
4555.69642,0.31167
4553.76767,0.31170
4551.83893,0.31166
4549.91018,0.31107
4547.98143,0.31012
4546.05269,0.30941
4544.12394,0.30886
4542.19520,0.30801
4540.26645,0.30688
4538.33771,0.30589
4536.40896,0.30532
4534.48022,0.30496
4532.55147,0.30428
4530.62273,0.30305
4528.69398,0.30171
4526.76524,0.30082
4524.83649,0.29980
4522.90775,0.29810
4520.97900,0.29639
4519.05025,0.29514
4517.12151,0.29401
4515.19276,0.29267
4513.26402,0.29073
4511.33527,0.28821
4509.40653,0.28576
4507.47778,0.28349
4505.54904,0.28104
4503.62029,0.27846
4501.69155,0.27560
4499.76280,0.27195
4497.83406,0.26761
4495.90531,0.26323
4493.97657,0.25924
4492.04782,0.25580
4490.11908,0.25268
4488.19033,0.24974
4486.26158,0.24724
4484.33284,0.24517
4482.40409,0.24334
4480.47535,0.24151
4478.54660,0.23943
4476.61786,0.23725
4474.68911,0.23521
4472.76037,0.23357
4470.83162,0.23223
4468.90288,0.23055
4466.97413,0.22821
4465.04539,0.22545
4463.11664,0.22241
4461.18790,0.21893
4459.25915,0.21503
4457.33041,0.21101
4455.40166,0.20700
4453.47291,0.20279
4451.54417,0.19814
4449.61542,0.19313
4447.68668,0.18827
4445.75793,0.18374
4443.82919,0.17906
4441.90044,0.17404
4439.97170,0.16898
4438.04295,0.16424
4436.11421,0.15971
4434.18546,0.15506
4432.25672,0.15038
4430.32797,0.14590
4428.39923,0.14157
4426.47048,0.13725
4424.54173,0.13308
4422.61299,0.12927
4420.68424,0.12577
4418.75550,0.12249
4416.82675,0.11935
4414.89801,0.11637
4412.96926,0.11356
4411.04052,0.11075
4409.11177,0.10815
4407.18303,0.10586
4405.25428,0.10371
4403.32554,0.10200
4401.39679,0.10085
4399.46805,0.09977
4397.53930,0.09885
4395.61056,0.09865
4393.68181,0.09887
4391.75306,0.09849
4389.82432,0.09722
4387.89557,0.09563
4385.96683,0.09411
4384.03808,0.09264
4382.10934,0.09113
4380.18059,0.08926
4378.25185,0.08674
4376.32310,0.08415
4374.39436,0.08212
4372.46561,0.08021
4370.53687,0.07830
4368.60812,0.07679
4366.67938,0.07544
4364.75063,0.07388
4362.82189,0.07211
4360.89314,0.07023
4358.96439,0.06878
4357.03565,0.06763
4355.10690,0.06631
4353.17816,0.06531
4351.24941,0.06494
4349.32067,0.06441
4347.39192,0.06329
4345.46318,0.06202
4343.53443,0.06114
4341.60569,0.06070
4339.67694,0.06046
4337.74820,0.06022
4335.81945,0.05984
4333.89071,0.05929
4331.96196,0.05887
4330.03321,0.05904
4328.10447,0.05973
4326.17572,0.06052
4324.24698,0.06126
4322.31823,0.06219
4320.38949,0.06344
4318.46074,0.06511
4316.53200,0.06698
4314.60325,0.06850
4312.67451,0.06944
4310.74576,0.06989
4308.81702,0.07014
4306.88827,0.07061
4304.95953,0.07110
4303.03078,0.07131
4301.10204,0.07141
4299.17329,0.07150
4297.24454,0.07158
4295.31580,0.07178
4293.38705,0.07181
4291.45831,0.07149
4289.52956,0.07107
4287.60082,0.07082
4285.67207,0.07065
4283.74333,0.07041
4281.81458,0.07031
4279.88584,0.07055
4277.95709,0.07097
4276.02835,0.07122
4274.09960,0.07123
4272.17086,0.07130
4270.24211,0.07160
4268.31336,0.07208
4266.38462,0.07260
4264.45587,0.07300
4262.52713,0.07313
4260.59838,0.07312
4258.66964,0.07317
4256.74089,0.07329
4254.81215,0.07348
4252.88340,0.07364
4250.95466,0.07347
4249.02591,0.07305
4247.09717,0.07282
4245.16842,0.07278
4243.23968,0.07268
4241.31093,0.07257
4239.38219,0.07250
4237.45344,0.07225
4235.52469,0.07180
4233.59595,0.07140
4231.66720,0.07109
4229.73846,0.07080
4227.80971,0.07056
4225.88097,0.07035
4223.95222,0.07022
4222.02348,0.07014
4220.09473,0.07002
4218.16599,0.07012
4216.23724,0.07034
4214.30850,0.07021
4212.37975,0.06988
4210.45101,0.06999
4208.52226,0.07051
4206.59352,0.07105
4204.66477,0.07169
4202.73602,0.07254
4200.80728,0.07338
4198.87853,0.07396
4196.94979,0.07430
4195.02104,0.07467
4193.09230,0.07531
4191.16355,0.07614
4189.23481,0.07668
4187.30606,0.07681
4185.37732,0.07687
4183.44857,0.07670
4181.51983,0.07607
4179.59108,0.07532
4177.66234,0.07472
4175.73359,0.07419
4173.80484,0.07373
4171.87610,0.07336
4169.94735,0.07316
4168.01861,0.07329
4166.08986,0.07373
4164.16112,0.07445
4162.23237,0.07554
4160.30363,0.07689
4158.37488,0.07824
4156.44614,0.07931
4154.51739,0.08011
4152.58865,0.08102
4150.65990,0.08196
4148.73116,0.08240
4146.80241,0.08282
4144.87367,0.08382
4142.94492,0.08498
4141.01617,0.08611
4139.08743,0.08725
4137.15868,0.08818
4135.22994,0.08906
4133.30119,0.09002
4131.37245,0.09077
4129.44370,0.09127
4127.51496,0.09166
4125.58621,0.09198
4123.65747,0.09207
4121.72872,0.09173
4119.79998,0.09103
4117.87123,0.09021
4115.94249,0.08947
4114.01374,0.08879
4112.08500,0.08798
4110.15625,0.08723
4108.22750,0.08682
4106.29876,0.08644
4104.37001,0.08589
4102.44127,0.08532
4100.51252,0.08475
4098.58378,0.08408
4096.65503,0.08323
4094.72629,0.08198
4092.79754,0.08024
4090.86880,0.07806
4088.94005,0.07574
4087.01131,0.07406
4085.08256,0.07344
4083.15382,0.07339
4081.22507,0.07350
4079.29632,0.07413
4077.36758,0.07550
4075.43883,0.07724
4073.51009,0.07889
4071.58134,0.08018
4069.65260,0.08123
4067.72385,0.08247
4065.79511,0.08406
4063.86636,0.08577
4061.93762,0.08734
4060.00887,0.08865
4058.08013,0.08988
4056.15138,0.09124
4054.22264,0.09254
4052.29389,0.09350
4050.36515,0.09415
4048.43640,0.09476
4046.50765,0.09550
4044.57891,0.09607
4042.65016,0.09619
4040.72142,0.09619
4038.79267,0.09644
4036.86393,0.09692
4034.93518,0.09756
4033.00644,0.09813
4031.07769,0.09822
4029.14895,0.09794
4027.22020,0.09766
4025.29146,0.09759
4023.36271,0.09779
4021.43397,0.09807
4019.50522,0.09818
4017.57648,0.09825
4015.64773,0.09862
4013.71898,0.09938
4011.79024,0.10021
4009.86149,0.10078
4007.93275,0.10133
4006.00400,0.10209
4004.07526,0.10300
4002.14651,0.10388
4000.21777,0.10467
3998.28902,0.10556
3996.36028,0.10640
3994.43153,0.10698
3992.50279,0.10783
3990.57404,0.10924
3988.64530,0.11062
3986.71655,0.11167
3984.78780,0.11263
3982.85906,0.11347
3980.93031,0.11412
3979.00157,0.11481
3977.07282,0.11565
3975.14408,0.11647
3973.21533,0.11720
3971.28659,0.11768
3969.35784,0.11781
3967.42910,0.11792
3965.50035,0.11816
3963.57161,0.11839
3961.64286,0.11873
3959.71412,0.11907
3957.78537,0.11913
3955.85663,0.11905
3953.92788,0.11906
3951.99913,0.11914
3950.07039,0.11916
3948.14164,0.11904
3946.21290,0.11883
3944.28415,0.11871
3942.35541,0.11867
3940.42666,0.11863
3938.49792,0.11886
3936.56917,0.11941
3934.64043,0.11997
3932.71168,0.12035
3930.78294,0.12061
3928.85419,0.12092
3926.92545,0.12121
3924.99670,0.12119
3923.06795,0.12105
3921.13921,0.12123
3919.21046,0.12174
3917.28172,0.12244
3915.35297,0.12322
3913.42423,0.12388
3911.49548,0.12445
3909.56674,0.12507
3907.63799,0.12575
3905.70925,0.12657
3903.78050,0.12744
3901.85176,0.12794
3899.92301,0.12804
3897.99427,0.12819
3896.06552,0.12860
3894.13678,0.12940
3892.20803,0.13051
3890.27928,0.13128
3888.35054,0.13164
3886.42179,0.13200
3884.49305,0.13235
3882.56430,0.13263
3880.63556,0.13294
3878.70681,0.13321
3876.77807,0.13339
3874.84932,0.13353
3872.92058,0.13362
3870.99183,0.13360
3869.06309,0.13356
3867.13434,0.13361
3865.20560,0.13372
3863.27685,0.13385
3861.34811,0.13398
3859.41936,0.13399
3857.49061,0.13398
3855.56187,0.13406
3853.63312,0.13402
3851.70438,0.13384
3849.77563,0.13405
3847.84689,0.13474
3845.91814,0.13543
3843.98940,0.13582
3842.06065,0.13609
3840.13191,0.13631
3838.20316,0.13666
3836.27442,0.13723
3834.34567,0.13764
3832.41693,0.13789
3830.48818,0.13838
3828.55943,0.13903
3826.63069,0.13965
3824.70194,0.14041
3822.77320,0.14127
3820.84445,0.14195
3818.91571,0.14245
3816.98696,0.14299
3815.05822,0.14364
3813.12947,0.14416
3811.20073,0.14447
3809.27198,0.14479
3807.34324,0.14516
3805.41449,0.14546
3803.48575,0.14571
3801.55700,0.14610
3799.62826,0.14692
3797.69951,0.14811
3795.77076,0.14922
3793.84202,0.15023
3791.91327,0.15130
3789.98453,0.15223
3788.05578,0.15292
3786.12704,0.15358
3784.19829,0.15419
3782.26955,0.15454
3780.34080,0.15471
3778.41206,0.15475
3776.48331,0.15468
3774.55457,0.15452
3772.62582,0.15426
3770.69708,0.15406
3768.76833,0.15403
3766.83959,0.15408
3764.91084,0.15399
3762.98209,0.15361
3761.05335,0.15299
3759.12460,0.15235
3757.19586,0.15209
3755.26711,0.15244
3753.33837,0.15327
3751.40962,0.15428
3749.48088,0.15543
3747.55213,0.15679
3745.62339,0.15812
3743.69464,0.15920
3741.76590,0.15989
3739.83715,0.16042
3737.90841,0.16101
3735.97966,0.16143
3734.05091,0.16157
3732.12217,0.16189
3730.19342,0.16272
3728.26468,0.16389
3726.33593,0.16503
3724.40719,0.16603
3722.47844,0.16679
3720.54970,0.16700
3718.62095,0.16663
3716.69221,0.16588
3714.76346,0.16484
3712.83472,0.16347
3710.90597,0.16146
3708.97723,0.15882
3707.04848,0.15609
3705.11974,0.15354
3703.19099,0.15076
3701.26224,0.14722
3699.33350,0.14330
3697.40475,0.13939
3695.47601,0.13526
3693.54726,0.13093
3691.61852,0.12654
3689.68977,0.12184
3687.76103,0.11702
3685.83228,0.11317
3683.90354,0.11082
3681.97479,0.10964
3680.04605,0.10907
3678.11730,0.10860
3676.18856,0.10783
3674.25981,0.10716
3672.33107,0.10733
3670.40232,0.10789
3668.47357,0.10824
3666.54483,0.10852
3664.61608,0.10895
3662.68734,0.10954
3660.75859,0.11017
3658.82985,0.11075
3656.90110,0.11123
3654.97236,0.11149
3653.04361,0.11174
3651.11487,0.11200
3649.18612,0.11193
3647.25738,0.11192
3645.32863,0.11220
3643.39989,0.11222
3641.47114,0.11180
3639.54239,0.11120
3637.61365,0.11049
3635.68490,0.10985
3633.75616,0.10953
3631.82741,0.10913
3629.89867,0.10806
3627.96992,0.10651
3626.04118,0.10524
3624.11243,0.10417
3622.18369,0.10276
3620.25494,0.10101
3618.32620,0.09963
3616.39745,0.09904
3614.46871,0.09864
3612.53996,0.09798
3610.61122,0.09730
3608.68247,0.09686
3606.75372,0.09642
3604.82498,0.09556
3602.89623,0.09450
3600.96749,0.09383
3599.03874,0.09357
3597.11000,0.09314
3595.18125,0.09246
3593.25251,0.09180
3591.32376,0.09095
3589.39502,0.08997
3587.46627,0.08920
3585.53753,0.08859
3583.60878,0.08800
3581.68004,0.08761
3579.75129,0.08744
3577.82254,0.08717
3575.89380,0.08634
3573.96505,0.08525
3572.03631,0.08446
3570.10756,0.08363
3568.17882,0.08240
3566.25007,0.08110
3564.32133,0.08011
3562.39258,0.07938
3560.46384,0.07854
3558.53509,0.07756
3556.60635,0.07679
3554.67760,0.07616
3552.74886,0.07546
3550.82011,0.07493
3548.89137,0.07458
3546.96262,0.07409
3545.03387,0.07352
3543.10513,0.07312
3541.17638,0.07302
3539.24764,0.07324
3537.31889,0.07348
3535.39015,0.07327
3533.46140,0.07270
3531.53266,0.07220
3529.60391,0.07196
3527.67517,0.07196
3525.74642,0.07215
3523.81768,0.07218
3521.88893,0.07190
3519.96019,0.07168
3518.03144,0.07169
3516.10270,0.07179
3514.17395,0.07194
3512.24520,0.07210
3510.31646,0.07218
3508.38771,0.07212
3506.45897,0.07179
3504.53022,0.07137
3502.60148,0.07112
3500.67273,0.07079
3498.74399,0.07021
3496.81524,0.06964
3494.88650,0.06950
3492.95775,0.06972
3491.02901,0.06961
3489.10026,0.06905
3487.17152,0.06868
3485.24277,0.06853
3483.31402,0.06819
3481.38528,0.06779
3479.45653,0.06754
3477.52779,0.06735
3475.59904,0.06727
3473.67030,0.06731
3471.74155,0.06717
3469.81281,0.06672
3467.88406,0.06604
3465.95532,0.06536
3464.02657,0.06495
3462.09783,0.06460
3460.16908,0.06384
3458.24034,0.06280
3456.31159,0.06199
3454.38285,0.06154
3452.45410,0.06113
3450.52535,0.06039
3448.59661,0.05954
3446.66786,0.05879
3444.73912,0.05782
3442.81037,0.05675
3440.88163,0.05602
3438.95288,0.05552
3437.02414,0.05490
3435.09539,0.05406
3433.16665,0.05328
3431.23790,0.05279
3429.30916,0.05257
3427.38041,0.05232
3425.45167,0.05184
3423.52292,0.05117
3421.59418,0.05035
3419.66543,0.04973
3417.73668,0.04974
3415.80794,0.05034
3413.87919,0.05100
3411.95045,0.05126
3410.02170,0.05136
3408.09296,0.05161
3406.16421,0.05195
3404.23547,0.05233
3402.30672,0.05269
3400.37798,0.05296
3398.44923,0.05295
3396.52049,0.05274
3394.59174,0.05290
3392.66300,0.05342
3390.73425,0.05384
3388.80550,0.05432
3386.87676,0.05488
3384.94801,0.05530
3383.01927,0.05572
3381.09052,0.05611
3379.16178,0.05623
3377.23303,0.05618
3375.30429,0.05624
3373.37554,0.05647
3371.44680,0.05698
3369.51805,0.05786
3367.58931,0.05852
3365.66056,0.05849
3363.73182,0.05821
3361.80307,0.05807
3359.87433,0.05794
3357.94558,0.05786
3356.01683,0.05793
3354.08809,0.05809
3352.15934,0.05830
3350.23060,0.05822
3348.30185,0.05792
3346.37311,0.05799
3344.44436,0.05833
3342.51562,0.05832
3340.58687,0.05783
3338.65813,0.05732
3336.72938,0.05724
3334.80064,0.05735
3332.87189,0.05711
3330.94315,0.05651
3329.01440,0.05617
3327.08566,0.05632
3325.15691,0.05665
3323.22816,0.05686
3321.29942,0.05664
3319.37067,0.05613
3317.44193,0.05590
3315.51318,0.05611
3313.58444,0.05646
3311.65569,0.05673
3309.72695,0.05711
3307.79820,0.05758
3305.86946,0.05757
3303.94071,0.05704
3302.01197,0.05658
3300.08322,0.05669
3298.15448,0.05707
3296.22573,0.05699
3294.29698,0.05659
3292.36824,0.05665
3290.43949,0.05716
3288.51075,0.05759
3286.58200,0.05795
3284.65326,0.05844
3282.72451,0.05903
3280.79577,0.05965
3278.86702,0.06002
3276.93828,0.05991
3275.00953,0.05964
3273.08079,0.05982
3271.15204,0.06038
3269.22330,0.06075
3267.29455,0.06085
3265.36581,0.06103
3263.43706,0.06115
3261.50831,0.06118
3259.57957,0.06139
3257.65082,0.06164
3255.72208,0.06180
3253.79333,0.06171
3251.86459,0.06120
3249.93584,0.06079
3248.00710,0.06081
3246.07835,0.06080
3244.14961,0.06053
3242.22086,0.06009
3240.29212,0.05958
3238.36337,0.05903
3236.43463,0.05844
3234.50588,0.05788
3232.57713,0.05740
3230.64839,0.05704
3228.71964,0.05718
3226.79090,0.05758
3224.86215,0.05755
3222.93341,0.05720
3221.00466,0.05710
3219.07592,0.05731
3217.14717,0.05710
3215.21843,0.05626
3213.28968,0.05590
3211.36094,0.05642
3209.43219,0.05686
3207.50345,0.05656
3205.57470,0.05593
3203.64596,0.05570
3201.71721,0.05576
3199.78846,0.05577
3197.85972,0.05591
3195.93097,0.05606
3194.00223,0.05601
3192.07348,0.05618
3190.14474,0.05659
3188.21599,0.05674
3186.28725,0.05666
3184.35850,0.05674
3182.42976,0.05697
3180.50101,0.05710
3178.57227,0.05703
3176.64352,0.05679
3174.71478,0.05664
3172.78603,0.05685
3170.85729,0.05735
3168.92854,0.05792
3166.99979,0.05836
3165.07105,0.05840
3163.14230,0.05811
3161.21356,0.05789
3159.28481,0.05774
3157.35607,0.05767
3155.42732,0.05788
3153.49858,0.05798
3151.56983,0.05757
3149.64109,0.05728
3147.71234,0.05773
3145.78360,0.05837
3143.85485,0.05867
3141.92611,0.05882
3139.99736,0.05878
3138.06861,0.05848
3136.13987,0.05807
3134.21112,0.05738
3132.28238,0.05666
3130.35363,0.05651
3128.42489,0.05656
3126.49614,0.05631
3124.56740,0.05610
3122.63865,0.05615
3120.70991,0.05615
3118.78116,0.05602
3116.85242,0.05583
3114.92367,0.05581
3112.99493,0.05609
3111.06618,0.05622
3109.13744,0.05580
3107.20869,0.05520
3105.27994,0.05477
3103.35120,0.05443
3101.42245,0.05409
3099.49371,0.05365
3097.56496,0.05315
3095.63622,0.05280
3093.70747,0.05274
3091.77873,0.05280
3089.84998,0.05269
3087.92124,0.05229
3085.99249,0.05172
3084.06375,0.05115
3082.13500,0.05072
3080.20626,0.05047
3078.27751,0.05040
3076.34877,0.05042
3074.42002,0.05037
3072.49127,0.05015
3070.56253,0.04974
3068.63378,0.04931
3066.70504,0.04904
3064.77629,0.04892
3062.84755,0.04889
3060.91880,0.04887
3058.99006,0.04887
3057.06131,0.04894
3055.13257,0.04888
3053.20382,0.04859
3051.27508,0.04830
3049.34633,0.04830
3047.41759,0.04854
3045.48884,0.04870
3043.56009,0.04859
3041.63135,0.04844
3039.70260,0.04842
3037.77386,0.04827
3035.84511,0.04790
3033.91637,0.04763
3031.98762,0.04756
3030.05888,0.04757
3028.13013,0.04751
3026.20139,0.04734
3024.27264,0.04710
3022.34390,0.04693
3020.41515,0.04681
3018.48641,0.04656
3016.55766,0.04630
3014.62892,0.04614
3012.70017,0.04594
3010.77142,0.04566
3008.84268,0.04538
3006.91393,0.04523
3004.98519,0.04519
3003.05644,0.04522
3001.12770,0.04525
2999.19895,0.04516
2997.27021,0.04494
2995.34146,0.04471
2993.41272,0.04453
2991.48397,0.04439
2989.55523,0.04417
2987.62648,0.04387
2985.69774,0.04368
2983.76899,0.04378
2981.84025,0.04401
2979.91150,0.04406
2977.98275,0.04394
2976.05401,0.04383
2974.12526,0.04382
2972.19652,0.04387
2970.26777,0.04388
2968.33903,0.04390
2966.41028,0.04404
2964.48154,0.04434
2962.55279,0.04458
2960.62405,0.04458
2958.69530,0.04455
2956.76656,0.04480
2954.83781,0.04507
2952.90907,0.04498
2950.98032,0.04481
2949.05157,0.04495
2947.12283,0.04518
2945.19408,0.04519
2943.26534,0.04497
2941.33659,0.04484
2939.40785,0.04501
2937.47910,0.04529
2935.55036,0.04544
2933.62161,0.04555
2931.69287,0.04578
2929.76412,0.04613
2927.83538,0.04658
2925.90663,0.04702
2923.97789,0.04737
2922.04914,0.04772
2920.12040,0.04810
2918.19165,0.04833
2916.26290,0.04831
2914.33416,0.04809
2912.40541,0.04784
2910.47667,0.04776
2908.54792,0.04795
2906.61918,0.04815
2904.69043,0.04806
2902.76169,0.04790
2900.83294,0.04792
2898.90420,0.04799
2896.97545,0.04801
2895.04671,0.04810
2893.11796,0.04826
2891.18922,0.04832
2889.26047,0.04818
2887.33172,0.04799
2885.40298,0.04785
2883.47423,0.04770
2881.54549,0.04761
2879.61674,0.04768
2877.68800,0.04788
2875.75925,0.04805
2873.83051,0.04816
2871.90176,0.04821
2869.97302,0.04819
2868.04427,0.04830
2866.11553,0.04847
2864.18678,0.04852
2862.25804,0.04859
2860.32929,0.04875
2858.40055,0.04883
2856.47180,0.04891
2854.54305,0.04913
2852.61431,0.04937
2850.68556,0.04956
2848.75682,0.04982
2846.82807,0.05011
2844.89933,0.05019
2842.97058,0.04999
2841.04184,0.04969
2839.11309,0.04956
2837.18435,0.04977
2835.25560,0.05020
2833.32686,0.05043
2831.39811,0.05025
2829.46937,0.04993
2827.54062,0.04971
2825.61188,0.04954
2823.68313,0.04932
2821.75438,0.04911
2819.82564,0.04907
2817.89689,0.04910
2815.96815,0.04897
2814.03940,0.04893
2812.11066,0.04924
2810.18191,0.04958
2808.25317,0.04968
2806.32442,0.04968
2804.39568,0.04973
2802.46693,0.04981
2800.53819,0.04987
2798.60944,0.04997
2796.68070,0.05015
2794.75195,0.05048
2792.82320,0.05099
2790.89446,0.05146
2788.96571,0.05170
2787.03697,0.05181
2785.10822,0.05209
2783.17948,0.05245
2781.25073,0.05266
2779.32199,0.05294
2777.39324,0.05336
2775.46450,0.05360
2773.53575,0.05364
2771.60701,0.05371
2769.67826,0.05383
2767.74952,0.05393
2765.82077,0.05399
2763.89203,0.05400
2761.96328,0.05413
2760.03453,0.05435
2758.10579,0.05445
2756.17704,0.05442
2754.24830,0.05436
2752.31955,0.05425
2750.39081,0.05394
2748.46206,0.05348
2746.53332,0.05324
2744.60457,0.05332
2742.67583,0.05335
2740.74708,0.05311
2738.81834,0.05285
2736.88959,0.05280
2734.96085,0.05285
2733.03210,0.05279
2731.10336,0.05273
2729.17461,0.05294
2727.24586,0.05346
2725.31712,0.05420
2723.38837,0.05489
2721.45963,0.05545
2719.53088,0.05597
2717.60214,0.05646
2715.67339,0.05685
2713.74465,0.05715
2711.81590,0.05747
2709.88716,0.05792
2707.95841,0.05845
2706.02967,0.05902
2704.10092,0.05944
2702.17218,0.05949
2700.24343,0.05935
2698.31468,0.05943
2696.38594,0.05969
2694.45719,0.05984
2692.52845,0.05990
2690.59970,0.06000
2688.67096,0.06010
2686.74221,0.06013
2684.81347,0.06017
2682.88472,0.06013
2680.95598,0.05980
2679.02723,0.05940
2677.09849,0.05935
2675.16974,0.05950
2673.24100,0.05944
2671.31225,0.05925
2669.38351,0.05931
2667.45476,0.05956
2665.52601,0.05980
2663.59727,0.06017
2661.66852,0.06078
2659.73978,0.06142
2657.81103,0.06180
2655.88229,0.06198
2653.95354,0.06224
2652.02480,0.06261
2650.09605,0.06286
2648.16731,0.06295
2646.23856,0.06290
2644.30982,0.06260
2642.38107,0.06205
2640.45233,0.06157
2638.52358,0.06125
2636.59484,0.06069
2634.66609,0.05980
2632.73734,0.05895
2630.80860,0.05840
2628.87985,0.05801
2626.95111,0.05757
2625.02236,0.05712
2623.09362,0.05682
2621.16487,0.05663
2619.23613,0.05639
2617.30738,0.05610
2615.37864,0.05590
2613.44989,0.05572
2611.52115,0.05538
2609.59240,0.05491
2607.66366,0.05455
2605.73491,0.05438
2603.80616,0.05419
2601.87742,0.05395
2599.94867,0.05391
2598.01993,0.05395
2596.09118,0.05378
2594.16244,0.05357
2592.23369,0.05350
2590.30495,0.05348
2588.37620,0.05356
2586.44746,0.05372
2584.51871,0.05372
2582.58997,0.05355
2580.66122,0.05335
2578.73248,0.05327
2576.80373,0.05328
2574.87499,0.05318
2572.94624,0.05307
2571.01749,0.05314
2569.08875,0.05326
2567.16000,0.05334
2565.23126,0.05339
2563.30251,0.05330
2561.37377,0.05321
2559.44502,0.05328
2557.51628,0.05326
2555.58753,0.05300
2553.65879,0.05276
2551.73004,0.05278
2549.80130,0.05297
2547.87255,0.05307
2545.94381,0.05294
2544.01506,0.05280
2542.08631,0.05278
2540.15757,0.05272
2538.22882,0.05254
2536.30008,0.05232
2534.37133,0.05206
2532.44259,0.05178
2530.51384,0.05157
2528.58510,0.05147
2526.65635,0.05134
2524.72761,0.05109
2522.79886,0.05099
2520.87012,0.05115
2518.94137,0.05116
2517.01263,0.05089
2515.08388,0.05076
2513.15514,0.05093
2511.22639,0.05123
2509.29764,0.05154
2507.36890,0.05177
2505.44015,0.05199
2503.51141,0.05229
2501.58266,0.05265
2499.65392,0.05295
2497.72517,0.05321
2495.79643,0.05364
2493.86768,0.05427
2491.93894,0.05489
2490.01019,0.05546
2488.08145,0.05606
2486.15270,0.05667
2484.22396,0.05732
2482.29521,0.05813
2480.36647,0.05917
2478.43772,0.06035
2476.50897,0.06148
2474.58023,0.06263
2472.65148,0.06390
2470.72274,0.06495
2468.79399,0.06561
2466.86525,0.06612
2464.93650,0.06672
2463.00776,0.06739
2461.07901,0.06797
2459.15027,0.06840
2457.22152,0.06878
2455.29278,0.06906
2453.36403,0.06914
2451.43529,0.06911
2449.50654,0.06906
2447.57779,0.06905
2445.64905,0.06906
2443.72030,0.06901
2441.79156,0.06901
2439.86281,0.06913
2437.93407,0.06914
2436.00532,0.06887
2434.07658,0.06851
2432.14783,0.06827
2430.21909,0.06801
2428.29034,0.06756
2426.36160,0.06703
2424.43285,0.06652
2422.50411,0.06606
2420.57536,0.06574
2418.64662,0.06560
2416.71787,0.06547
2414.78912,0.06521
2412.86038,0.06485
2410.93163,0.06447
2409.00289,0.06419
2407.07414,0.06405
2405.14540,0.06396
2403.21665,0.06379
2401.28791,0.06352
2399.35916,0.06324
2397.43042,0.06290
2395.50167,0.06250
2393.57293,0.06219
2391.64418,0.06201
2389.71544,0.06172
2387.78669,0.06133
2385.85795,0.06109
2383.92920,0.06116
2382.00045,0.06144
2380.07171,0.06169
2378.14296,0.06183
2376.21422,0.06204
2374.28547,0.06236
2372.35673,0.06275
2370.42798,0.06320
2368.49924,0.06363
2366.57049,0.06414
2364.64175,0.06482
2362.71300,0.06549
2360.78426,0.06604
2358.85551,0.06653
2356.92677,0.06704
2354.99802,0.06762
2353.06927,0.06835
2351.14053,0.06909
2349.21178,0.06974
2347.28304,0.07041
2345.35429,0.07123
2343.42555,0.07215
2341.49680,0.07303
2339.56806,0.07384
2337.63931,0.07457
2335.71057,0.07517
2333.78182,0.07559
2331.85308,0.07586
2329.92433,0.07604
2327.99559,0.07619
2326.06684,0.07623
2324.13810,0.07613
2322.20935,0.07617
2320.28060,0.07666
2318.35186,0.07742
2316.42311,0.07809
2314.49437,0.07855
2312.56562,0.07885
2310.63688,0.07885
2308.70813,0.07860
2306.77939,0.07831
2304.85064,0.07806
2302.92190,0.07772
2300.99315,0.07726
2299.06441,0.07681
2297.13566,0.07639
2295.20692,0.07583
2293.27817,0.07500
2291.34943,0.07408
2289.42068,0.07323
2287.49193,0.07235
2285.56319,0.07136
2283.63444,0.07036
2281.70570,0.06960
2279.77695,0.06920
2277.84821,0.06903
2275.91946,0.06910
2273.99072,0.06965
2272.06197,0.07048
2270.13323,0.07099
2268.20448,0.07116
2266.27574,0.07140
2264.34699,0.07178
2262.41825,0.07197
2260.48950,0.07181
2258.56075,0.07151
2256.63201,0.07131
2254.70326,0.07118
2252.77452,0.07098
2250.84577,0.07063
2248.91703,0.06999
2246.98828,0.06901
2245.05954,0.06798
2243.13079,0.06711
2241.20205,0.06633
2239.27330,0.06573
2237.34456,0.06552
2235.41581,0.06546
2233.48707,0.06518
2231.55832,0.06480
2229.62958,0.06462
2227.70083,0.06462
2225.77208,0.06464
2223.84334,0.06467
2221.91459,0.06470
2219.98585,0.06488
2218.05710,0.06525
2216.12836,0.06556
2214.19961,0.06562
2212.27087,0.06549
2210.34212,0.06539
2208.41338,0.06551
2206.48463,0.06595
2204.55589,0.06680
2202.62714,0.06801
2200.69840,0.06938
2198.76965,0.07071
2196.84090,0.07177
2194.91216,0.07250
2192.98341,0.07316
2191.05467,0.07390
2189.12592,0.07476
2187.19718,0.07569
2185.26843,0.07659
2183.33969,0.07745
2181.41094,0.07833
2179.48220,0.07911
2177.55345,0.07952
2175.62471,0.07949
2173.69596,0.07936
2171.76722,0.07943
2169.83847,0.07965
2167.90973,0.07974
2165.98098,0.07953
2164.05223,0.07901
2162.12349,0.07846
2160.19474,0.07808
2158.26600,0.07764
2156.33725,0.07701
2154.40851,0.07643
2152.47976,0.07588
2150.55102,0.07520
2148.62227,0.07456
2146.69353,0.07415
2144.76478,0.07388
2142.83604,0.07357
2140.90729,0.07322
2138.97855,0.07296
2137.04980,0.07289
2135.12106,0.07301
2133.19231,0.07328
2131.26356,0.07358
2129.33482,0.07378
2127.40607,0.07394
2125.47733,0.07425
2123.54858,0.07463
2121.61984,0.07492
2119.69109,0.07517
2117.76235,0.07542
2115.83360,0.07566
2113.90486,0.07585
2111.97611,0.07604
2110.04737,0.07626
2108.11862,0.07642
2106.18988,0.07652
2104.26113,0.07672
2102.33238,0.07692
2100.40364,0.07688
2098.47489,0.07667
2096.54615,0.07649
2094.61740,0.07642
2092.68866,0.07641
2090.75991,0.07638
2088.83117,0.07619
2086.90242,0.07581
2084.97368,0.07545
2083.04493,0.07526
2081.11619,0.07502
2079.18744,0.07471
2077.25870,0.07444
2075.32995,0.07417
2073.40121,0.07394
2071.47246,0.07380
2069.54371,0.07371
2067.61497,0.07374
2065.68622,0.07391
2063.75748,0.07410
2061.82873,0.07428
2059.89999,0.07455
2057.97124,0.07493
2056.04250,0.07527
2054.11375,0.07554
2052.18501,0.07582
2050.25626,0.07616
2048.32752,0.07649
2046.39877,0.07675
2044.47003,0.07710
2042.54128,0.07756
2040.61254,0.07788
2038.68379,0.07803
2036.75504,0.07829
2034.82630,0.07870
2032.89755,0.07903
2030.96881,0.07934
2029.04006,0.07972
2027.11132,0.08015
2025.18257,0.08062
2023.25383,0.08109
2021.32508,0.08145
2019.39634,0.08168
2017.46759,0.08187
2015.53885,0.08207
2013.61010,0.08219
2011.68136,0.08224
2009.75261,0.08229
2007.82386,0.08230
2005.89512,0.08210
2003.96637,0.08164
2002.03763,0.08110
2000.10888,0.08058
1998.18014,0.07989
1996.25139,0.07888
1994.32265,0.07769
1992.39390,0.07653
1990.46516,0.07558
1988.53641,0.07502
1986.60767,0.07466
1984.67892,0.07425
1982.75018,0.07376
1980.82143,0.07333
1978.89269,0.07287
1976.96394,0.07217
1975.03519,0.07128
1973.10645,0.07036
1971.17770,0.06941
1969.24896,0.06816
1967.32021,0.06655
1965.39147,0.06482
1963.46272,0.06307
1961.53398,0.06122
1959.60523,0.05930
1957.67649,0.05754
1955.74774,0.05618
1953.81900,0.05510
1951.89025,0.05426
1949.96151,0.05389
1948.03276,0.05396
1946.10402,0.05447
1944.17527,0.05548
1942.24652,0.05676
1940.31778,0.05804
1938.38903,0.05935
1936.46029,0.06073
1934.53154,0.06212
1932.60280,0.06358
1930.67405,0.06494
1928.74531,0.06606
1926.81656,0.06696
1924.88782,0.06769
1922.95907,0.06834
1921.03033,0.06888
1919.10158,0.06916
1917.17284,0.06926
1915.24409,0.06947
1913.31534,0.06979
1911.38660,0.06995
1909.45785,0.06990
1907.52911,0.06979
1905.60036,0.06981
1903.67162,0.06995
1901.74287,0.07000
1899.81413,0.06990
1897.88538,0.06988
1895.95664,0.07003
1894.02789,0.07026
1892.09915,0.07050
1890.17040,0.07066
1888.24166,0.07073
1886.31291,0.07075
1884.38417,0.07066
1882.45542,0.07054
1880.52667,0.07053
1878.59793,0.07049
1876.66918,0.07027
1874.74044,0.06996
1872.81169,0.06961
1870.88295,0.06923
1868.95420,0.06875
1867.02546,0.06814
1865.09671,0.06747
1863.16797,0.06674
1861.23922,0.06591
1859.31048,0.06506
1857.38173,0.06415
1855.45299,0.06318
1853.52424,0.06222
1851.59549,0.06116
1849.66675,0.06007
1847.73800,0.05910
1845.80926,0.05811
1843.88051,0.05695
1841.95177,0.05582
1840.02302,0.05477
1838.09428,0.05366
1836.16553,0.05244
1834.23679,0.05117
1832.30804,0.04996
1830.37930,0.04880
1828.45055,0.04774
1826.52181,0.04690
1824.59306,0.04642
1822.66432,0.04632
1820.73557,0.04625
1818.80682,0.04596
1816.87808,0.04566
1814.94933,0.04546
1813.02059,0.04521
1811.09184,0.04486
1809.16310,0.04447
1807.23435,0.04406
1805.30561,0.04357
1803.37686,0.04300
1801.44812,0.04240
1799.51937,0.04190
1797.59063,0.04151
1795.66188,0.04116
1793.73314,0.04078
1791.80439,0.04055
1789.87565,0.04061
1787.94690,0.04066
1786.01815,0.04052
1784.08941,0.04035
1782.16066,0.04031
1780.23192,0.04030
1778.30317,0.04015
1776.37443,0.03979
1774.44568,0.03934
1772.51694,0.03896
1770.58819,0.03862
1768.65945,0.03814
1766.73070,0.03752
1764.80196,0.03702
1762.87321,0.03673
1760.94447,0.03649
1759.01572,0.03613
1757.08697,0.03558
1755.15823,0.03495
1753.22948,0.03437
1751.30074,0.03383
1749.37199,0.03341
1747.44325,0.03319
1745.51450,0.03308
1743.58576,0.03301
1741.65701,0.03300
1739.72827,0.03328
1737.79952,0.03411
1735.87078,0.03556
1733.94203,0.03740
1732.01329,0.03911
1730.08454,0.04071
1728.15580,0.04260
1726.22705,0.04467
1724.29830,0.04663
1722.36956,0.04833
1720.44081,0.04973
1718.51207,0.05097
1716.58332,0.05211
1714.65458,0.05289
1712.72583,0.05324
1710.79709,0.05334
1708.86834,0.05327
1706.93960,0.05307
1705.01085,0.05280
1703.08211,0.05256
1701.15336,0.05228
1699.22462,0.05198
1697.29587,0.05178
1695.36713,0.05138
1693.43838,0.05082
1691.50963,0.05045
1689.58089,0.05021
1687.65214,0.05006
1685.72340,0.05003
1683.79465,0.04997
1681.86591,0.04981
1679.93716,0.04966
1678.00842,0.04943
1676.07967,0.04912
1674.15093,0.04900
1672.22218,0.04903
1670.29344,0.04883
1668.36469,0.04849
1666.43595,0.04841
1664.50720,0.04854
1662.57845,0.04866
1660.64971,0.04890
1658.72096,0.04934
1656.79222,0.04974
1654.86347,0.05007
1652.93473,0.05028
1651.00598,0.05021
1649.07724,0.05018
1647.14849,0.05028
1645.21975,0.05037
1643.29100,0.05046
1641.36226,0.05060
1639.43351,0.05063
1637.50477,0.05044
1635.57602,0.05017
1633.64728,0.05009
1631.71853,0.05021
1629.78978,0.05028
1627.86104,0.05032
1625.93229,0.05043
1624.00355,0.05037
1622.07480,0.05006
1620.14606,0.04987
1618.21731,0.04966
1616.28857,0.04914
1614.35982,0.04873
1612.43108,0.04861
1610.50233,0.04843
1608.57359,0.04823
1606.64484,0.04822
1604.71610,0.04830
1602.78735,0.04845
1600.85861,0.04867
1598.92986,0.04886
1597.00111,0.04895
1595.07237,0.04895
1593.14362,0.04887
1591.21488,0.04874
1589.28613,0.04854
1587.35739,0.04819
1585.42864,0.04752
1583.49990,0.04653
1581.57115,0.04556
1579.64241,0.04503
1577.71366,0.04505
1575.78492,0.04534
1573.85617,0.04569
1571.92743,0.04633
1569.99868,0.04730
1568.06993,0.04824
1566.14119,0.04900
1564.21244,0.04981
1562.28370,0.05079
1560.35495,0.05173
1558.42621,0.05234
1556.49746,0.05254
1554.56872,0.05262
1552.63997,0.05271
1550.71123,0.05276
1548.78248,0.05287
1546.85374,0.05303
1544.92499,0.05290
1542.99625,0.05248
1541.06750,0.05192
1539.13876,0.05119
1537.21001,0.05053
1535.28126,0.04981
1533.35252,0.04863
1531.42377,0.04754
1529.49503,0.04708
1527.56628,0.04691
1525.63754,0.04678
1523.70879,0.04677
1521.78005,0.04670
1519.85130,0.04651
1517.92256,0.04634
1515.99381,0.04613
1514.06507,0.04580
1512.13632,0.04559
1510.20758,0.04551
1508.27883,0.04521
1506.35008,0.04462
1504.42134,0.04434
1502.49259,0.04451
1500.56385,0.04480
1498.63510,0.04512
1496.70636,0.04538
1494.77761,0.04530
1492.84887,0.04494
1490.92012,0.04466
1488.99138,0.04445
1487.06263,0.04404
1485.13389,0.04348
1483.20514,0.04299
1481.27640,0.04265
1479.34765,0.04237
1477.41891,0.04205
1475.49016,0.04166
1473.56141,0.04134
1471.63267,0.04118
1469.70392,0.04103
1467.77518,0.04104
1465.84643,0.04128
1463.91769,0.04153
1461.98894,0.04170
1460.06020,0.04189
1458.13145,0.04219
1456.20271,0.04262
1454.27396,0.04299
1452.34522,0.04317
1450.41647,0.04333
1448.48773,0.04362
1446.55898,0.04395
1444.63024,0.04415
1442.70149,0.04425
1440.77274,0.04425
1438.84400,0.04422
1436.91525,0.04439
1434.98651,0.04458
1433.05776,0.04448
1431.12902,0.04421
1429.20027,0.04401
1427.27153,0.04386
1425.34278,0.04369
1423.41404,0.04350
1421.48529,0.04327
1419.55655,0.04300
1417.62780,0.04281
1415.69906,0.04264
1413.77031,0.04237
1411.84156,0.04209
1409.91282,0.04198
1407.98407,0.04194
1406.05533,0.04184
1404.12658,0.04166
1402.19784,0.04149
1400.26909,0.04134
1398.34035,0.04121
1396.41160,0.04107
1394.48286,0.04082
1392.55411,0.04049
1390.62537,0.04028
1388.69662,0.04021
1386.76788,0.04024
1384.83913,0.04034
1382.91039,0.04048
1380.98164,0.04068
1379.05289,0.04098
1377.12415,0.04117
1375.19540,0.04121
1373.26666,0.04127
1371.33791,0.04133
1369.40917,0.04128
1367.48042,0.04117
1365.55168,0.04102
1363.62293,0.04074
1361.69419,0.04041
1359.76544,0.04023
1357.83670,0.04018
1355.90795,0.04013
1353.97921,0.04007
1352.05046,0.04003
1350.12172,0.04006
1348.19297,0.03996
1346.26422,0.03961
1344.33548,0.03921
1342.40673,0.03895
1340.47799,0.03880
1338.54924,0.03865
1336.62050,0.03847
1334.69175,0.03834
1332.76301,0.03822
1330.83426,0.03804
1328.90552,0.03780
1326.97677,0.03759
1325.04803,0.03759
1323.11928,0.03770
1321.19054,0.03768
1319.26179,0.03745
1317.33304,0.03716
1315.40430,0.03691
1313.47555,0.03658
1311.54681,0.03617
1309.61806,0.03591
1307.68932,0.03584
1305.76057,0.03578
1303.83183,0.03562
1301.90308,0.03533
1299.97434,0.03502
1298.04559,0.03492
1296.11685,0.03506
1294.18810,0.03517
1292.25936,0.03509
1290.33061,0.03495
1288.40187,0.03503
1286.47312,0.03538
1284.54437,0.03568
1282.61563,0.03578
1280.68688,0.03610
1278.75814,0.03683
1276.82939,0.03762
1274.90065,0.03839
1272.97190,0.03928
1271.04316,0.04010
1269.11441,0.04076
1267.18567,0.04138
1265.25692,0.04177
1263.32818,0.04178
1261.39943,0.04158
1259.47069,0.04144
1257.54194,0.04144
1255.61320,0.04155
1253.68445,0.04182
1251.75570,0.04229
1249.82696,0.04278
1247.89821,0.04318
1245.96947,0.04363
1244.04072,0.04405
1242.11198,0.04410
1240.18323,0.04391
1238.25449,0.04384
1236.32574,0.04385
1234.39700,0.04380
1232.46825,0.04382
1230.53951,0.04391
1228.61076,0.04396
1226.68202,0.04398
1224.75327,0.04404
1222.82452,0.04397
1220.89578,0.04376
1218.96703,0.04360
1217.03829,0.04361
1215.10954,0.04364
1213.18080,0.04352
1211.25205,0.04345
1209.32331,0.04355
1207.39456,0.04369
1205.46582,0.04373
1203.53707,0.04371
1201.60833,0.04368
1199.67958,0.04354
1197.75084,0.04335
1195.82209,0.04322
1193.89335,0.04305
1191.96460,0.04290
1190.03585,0.04300
1188.10711,0.04320
1186.17836,0.04322
1184.24962,0.04308
1182.32087,0.04294
1180.39213,0.04285
1178.46338,0.04283
1176.53464,0.04283
1174.60589,0.04279
1172.67715,0.04278
1170.74840,0.04304
1168.81966,0.04341
1166.89091,0.04355
1164.96217,0.04374
1163.03342,0.04419
1161.10467,0.04462
1159.17593,0.04503
1157.24718,0.04568
1155.31844,0.04643
1153.38969,0.04694
1151.46095,0.04727
1149.53220,0.04761
1147.60346,0.04806
1145.67471,0.04866
1143.74597,0.04920
1141.81722,0.04945
1139.88848,0.04946
1137.95973,0.04958
1136.03099,0.05001
1134.10224,0.05059
1132.17350,0.05120
1130.24475,0.05176
1128.31600,0.05223
1126.38726,0.05293
1124.45851,0.05404
1122.52977,0.05533
1120.60102,0.05671
1118.67228,0.05834
1116.74353,0.06015
1114.81479,0.06164
1112.88604,0.06249
1110.95730,0.06298
1109.02855,0.06360
1107.09981,0.06465
1105.17106,0.06613
1103.24232,0.06760
1101.31357,0.06867
1099.38483,0.06944
1097.45608,0.07000
1095.52733,0.07023
1093.59859,0.07021
1091.66984,0.07031
1089.74110,0.07076
1087.81235,0.07117
1085.88361,0.07136
1083.95486,0.07178
1082.02612,0.07262
1080.09737,0.07342
1078.16863,0.07362
1076.23988,0.07358
1074.31114,0.07414
1072.38239,0.07499
1070.45365,0.07534
1068.52490,0.07526
1066.59615,0.07509
1064.66741,0.07504
1062.73866,0.07530
1060.80992,0.07560
1058.88117,0.07563
1056.95243,0.07534
1055.02368,0.07478
1053.09494,0.07420
1051.16619,0.07375
1049.23745,0.07334
1047.30870,0.07299
1045.37996,0.07278
1043.45121,0.07266
1041.52247,0.07267
1039.59372,0.07277
1037.66498,0.07268
1035.73623,0.07230
1033.80748,0.07188
1031.87874,0.07153
1029.94999,0.07111
1028.02125,0.07045
1026.09250,0.06974
1024.16376,0.06914
1022.23501,0.06860
1020.30627,0.06817
1018.37752,0.06800
1016.44878,0.06790
1014.52003,0.06744
1012.59129,0.06670
1010.66254,0.06598
1008.73380,0.06537
1006.80505,0.06494
1004.87631,0.06467
1002.94756,0.06448
1001.01881,0.06430
999.09007,0.06385
997.16132,0.06314
995.23258,0.06255
993.30383,0.06216
991.37509,0.06167
989.44634,0.06109
987.51760,0.06080
985.58885,0.06084
983.66011,0.06083
981.73136,0.06066
979.80262,0.06046
977.87387,0.06025
975.94513,0.06006
974.01638,0.05991
972.08763,0.05993
970.15889,0.06022
968.23014,0.06051
966.30140,0.06046
964.37265,0.06021
962.44391,0.06013
960.51516,0.06026
958.58642,0.06042
956.65767,0.06048
954.72893,0.06043
952.80018,0.06036
950.87144,0.06028
948.94269,0.06022
947.01395,0.06023
945.08520,0.06018
943.15646,0.06003
941.22771,0.05995
939.29896,0.06005
937.37022,0.06021
935.44147,0.06038
933.51273,0.06059
931.58398,0.06065
929.65524,0.06038
927.72649,0.06002
925.79775,0.05980
923.86900,0.05962
921.94026,0.05942
920.01151,0.05935
918.08277,0.05945
916.15402,0.05938
914.22528,0.05903
912.29653,0.05874
910.36779,0.05862
908.43904,0.05855
906.51029,0.05845
904.58155,0.05839
902.65280,0.05826
900.72406,0.05794
898.79531,0.05776
896.86657,0.05769
894.93782,0.05740
893.00908,0.05701
891.08033,0.05680
889.15159,0.05693
887.22284,0.05720
885.29410,0.05733
883.36535,0.05726
881.43661,0.05692
879.50786,0.05656
877.57911,0.05645
875.65037,0.05662
873.72162,0.05676
871.79288,0.05651
869.86413,0.05599
867.93539,0.05569
866.00664,0.05578
864.07790,0.05587
862.14915,0.05558
860.22041,0.05516
858.29166,0.05503
856.36292,0.05503
854.43417,0.05483
852.50543,0.05452
850.57668,0.05420
848.64794,0.05378
846.71919,0.05354
844.79044,0.05374
842.86170,0.05398
840.93295,0.05392
839.00421,0.05387
837.07546,0.05397
835.14672,0.05412
833.21797,0.05436
831.28923,0.05478
829.36048,0.05512
827.43174,0.05503
825.50299,0.05472
823.57425,0.05454
821.64550,0.05450
819.71676,0.05460
817.78801,0.05480
815.85926,0.05487
813.93052,0.05465
812.00177,0.05450
810.07303,0.05464
808.14428,0.05472
806.21554,0.05450
804.28679,0.05414
802.35805,0.05392
800.42930,0.05409
798.50056,0.05450
796.57181,0.05471
794.64307,0.05467
792.71432,0.05457
790.78558,0.05443
788.85683,0.05455
786.92809,0.05514
784.99934,0.05568
783.07059,0.05558
781.14185,0.05508
779.21310,0.05477
777.28436,0.05469
775.35561,0.05451
773.42687,0.05440
771.49812,0.05470
769.56938,0.05502
767.64063,0.05486
765.71189,0.05457
763.78314,0.05446
761.85440,0.05426
759.92565,0.05399
757.99691,0.05397
756.06816,0.05415
754.13942,0.05420
752.21067,0.05400
750.28192,0.05368
748.35318,0.05344
746.42443,0.05332
744.49569,0.05332
742.56694,0.05344
740.63820,0.05349
738.70945,0.05333
736.78071,0.05311
734.85196,0.05324
732.92322,0.05415
730.99447,0.05565
729.06573,0.05668
727.13698,0.05642
725.20824,0.05547
723.27949,0.05495
721.35074,0.05492
719.42200,0.05470
717.49325,0.05418
715.56451,0.05377
713.63576,0.05349
711.70702,0.05313
709.77827,0.05293
707.84953,0.05301
705.92078,0.05314
703.99204,0.05343
702.06329,0.05377
700.13455,0.05370
698.20580,0.05348
696.27706,0.05373
694.34831,0.05428
692.41957,0.05423
690.49082,0.05344
688.56207,0.05301
686.63333,0.05325
684.70458,0.05321
682.77584,0.05275
680.84709,0.05246
678.91835,0.05233
676.98960,0.05224
675.06086,0.05244
673.13211,0.05294
671.20337,0.05304
669.27462,0.05242
667.34588,0.05182
665.41713,0.05182
663.48839,0.05197
661.55964,0.05166
659.63090,0.05133
657.70215,0.05146
655.77340,0.05181
653.84466,0.05214
651.91591,0.05214
649.98717,0.05157
648.05842,0.05078
646.12968,0.05002
644.20093,0.04926
642.27219,0.04858
640.34344,0.04838
638.41470,0.04874
636.48595,0.04881
634.55721,0.04808
632.62846,0.04753
630.69972,0.04807
628.77097,0.04956
626.84222,0.05106
624.91348,0.05175
622.98473,0.05143
621.05599,0.05016
619.12724,0.04861
617.19850,0.04769
615.26975,0.04808
613.34101,0.04949
611.41226,0.04967
609.48352,0.04788
607.55477,0.04623
605.62603,0.04626
603.69728,0.04773
601.76854,0.04954
599.83979,0.04994
