7497.03301,0.50393
7495.10426,0.50798
7493.17552,0.50618
7491.24677,0.50586
7489.31803,0.50944
7487.38928,0.51034
7485.46054,0.50562
7483.53179,0.49986
7481.60305,0.49809
7479.67430,0.49982
7477.74556,0.49994
7475.81681,0.49861
7473.88807,0.49906
7471.95932,0.49977
7470.03057,0.49947
7468.10183,0.49946
7466.17308,0.49975
7464.24434,0.49904
7462.31559,0.49729
7460.38685,0.49664
7458.45810,0.49753
7456.52936,0.49697
7454.60061,0.49334
7452.67187,0.48911
7450.74312,0.48753
7448.81438,0.48951
7446.88563,0.49413
7444.95689,0.49963
7443.02814,0.50421
7441.09940,0.50465
7439.17065,0.49828
7437.24190,0.49060
7435.31316,0.48860
7433.38441,0.49033
7431.45567,0.49294
7429.52692,0.49641
7427.59818,0.49834
7425.66943,0.49743
7423.74069,0.49578
7421.81194,0.49485
7419.88320,0.49464
7417.95445,0.49402
7416.02571,0.49177
7414.09696,0.48952
7412.16822,0.48890
7410.23947,0.48810
7408.31073,0.48553
7406.38198,0.48347
7404.45323,0.48330
7402.52449,0.48207
7400.59574,0.47972
7398.66700,0.47846
7396.73825,0.47721
7394.80951,0.47793
7392.88076,0.48254
7390.95202,0.48636
7389.02327,0.48633
7387.09453,0.48427
7385.16578,0.48233
7383.23704,0.48159
7381.30829,0.48156
7379.37955,0.48058
7377.45080,0.47759
7375.52205,0.47433
7373.59331,0.47355
7371.66456,0.47399
7369.73582,0.47322
7367.80707,0.47274
7365.87833,0.47374
7363.94958,0.47488
7362.02084,0.47552
7360.09209,0.47529
7358.16335,0.47380
7356.23460,0.47183
7354.30586,0.47096
7352.37711,0.47149
7350.44837,0.47125
7348.51962,0.46953
7346.59088,0.46903
7344.66213,0.47162
7342.73338,0.47484
7340.80464,0.47447
7338.87589,0.47091
7336.94715,0.46813
7335.01840,0.46709
7333.08966,0.46791
7331.16091,0.47079
7329.23217,0.47305
7327.30342,0.47270
7325.37468,0.47004
7323.44593,0.46597
7321.51719,0.46271
7319.58844,0.46039
7317.65970,0.45635
7315.73095,0.45251
7313.80221,0.45327
7311.87346,0.45499
7309.94471,0.45218
7308.01597,0.44927
7306.08722,0.45165
7304.15848,0.45490
7302.22973,0.45508
7300.30099,0.45557
7298.37224,0.45662
7296.44350,0.45554
7294.51475,0.45335
7292.58601,0.45071
7290.65726,0.44737
7288.72852,0.44514
7286.79977,0.44528
7284.87103,0.44590
7282.94228,0.44485
7281.01353,0.44389
7279.08479,0.44538
7277.15604,0.44735
7275.22730,0.44705
7273.29855,0.44476
7271.36981,0.44082
7269.44106,0.43626
7267.51232,0.43360
7265.58357,0.43381
7263.65483,0.43488
7261.72608,0.43397
7259.79734,0.43183
7257.86859,0.43085
7255.93985,0.43152
7254.01110,0.43352
7252.08236,0.43589
7250.15361,0.43641
7248.22486,0.43337
7246.29612,0.42920
7244.36737,0.42637
7242.43863,0.42423
7240.50988,0.42355
7238.58114,0.42381
7236.65239,0.42281
7234.72365,0.42235
7232.79490,0.42388
7230.86616,0.42436
7228.93741,0.42282
7227.00867,0.42196
7225.07992,0.42183
7223.15118,0.42036
7221.22243,0.41842
7219.29369,0.41825
7217.36494,0.41912
7215.43619,0.41838
7213.50745,0.41643
7211.57870,0.41708
7209.64996,0.42067
7207.72121,0.42266
7205.79247,0.42085
7203.86372,0.41812
7201.93498,0.41822
7200.00623,0.41983
7198.07749,0.41866
7196.14874,0.41562
7194.22000,0.41399
7192.29125,0.41281
7190.36251,0.41082
7188.43376,0.41015
7186.50501,0.41081
7184.57627,0.41013
7182.64752,0.40987
7180.71878,0.41352
7178.79003,0.41770
7176.86129,0.41691
7174.93254,0.41321
7173.00380,0.41147
7171.07505,0.41252
7169.14631,0.41488
7167.21756,0.41597
7165.28882,0.41545
7163.36007,0.41648
7161.43133,0.41868
7159.50258,0.41814
7157.57384,0.41593
7155.64509,0.41525
7153.71634,0.41493
7151.78760,0.41407
7149.85885,0.41510
7147.93011,0.41761
7146.00136,0.41626
7144.07262,0.41134
7142.14387,0.40962
7140.21513,0.41159
7138.28638,0.41389
7136.35764,0.41497
7134.42889,0.41412
7132.50015,0.41417
7130.57140,0.41670
7128.64266,0.41808
7126.71391,0.41719
7124.78516,0.41573
7122.85642,0.41412
7120.92767,0.41375
7118.99893,0.41566
7117.07018,0.41790
7115.14144,0.41764
7113.21269,0.41567
7111.28395,0.41492
7109.35520,0.41445
7107.42646,0.41354
7105.49771,0.41411
7103.56897,0.41615
7101.64022,0.41843
7099.71148,0.41854
7097.78273,0.41511
7095.85399,0.41219
7093.92524,0.41444
7091.99649,0.41804
7090.06775,0.41630
7088.13900,0.41282
7086.21026,0.41402
7084.28151,0.41670
7082.35277,0.41563
7080.42402,0.41256
7078.49528,0.40972
7076.56653,0.40795
7074.63779,0.41007
7072.70904,0.41293
7070.78030,0.40988
7068.85155,0.40479
7066.92281,0.40546
7064.99406,0.40971
7063.06532,0.41065
7061.13657,0.40744
7059.20782,0.40423
7057.27908,0.40380
7055.35033,0.40511
7053.42159,0.40684
7051.49284,0.40942
7049.56410,0.41217
7047.63535,0.41363
7045.70661,0.41381
7043.77786,0.41382
7041.84912,0.41531
7039.92037,0.41767
7037.99163,0.41761
7036.06288,0.41506
7034.13414,0.41435
7032.20539,0.41689
7030.27664,0.41862
7028.34790,0.41726
7026.41915,0.41587
7024.49041,0.41636
7022.56166,0.41702
7020.63292,0.41682
7018.70417,0.41626
7016.77543,0.41523
7014.84668,0.41392
7012.91794,0.41367
7010.98919,0.41488
7009.06045,0.41709
7007.13170,0.41854
7005.20296,0.41730
7003.27421,0.41462
7001.34547,0.41328
6999.41672,0.41545
6997.48797,0.42023
6995.55923,0.42378
6993.63048,0.42465
6991.70174,0.42370
6989.77299,0.42184
6987.84425,0.42072
6985.91550,0.42152
6983.98676,0.42273
6982.05801,0.42260
6980.12927,0.42250
6978.20052,0.42379
6976.27178,0.42569
6974.34303,0.42715
6972.41429,0.42769
6970.48554,0.42736
6968.55680,0.42632
6966.62805,0.42559
6964.69930,0.42550
6962.77056,0.42485
6960.84181,0.42534
6958.91307,0.42886
6956.98432,0.43177
6955.05558,0.43166
6953.12683,0.43101
6951.19809,0.43136
6949.26934,0.43240
6947.34060,0.43385
6945.41185,0.43557
6943.48311,0.43622
6941.55436,0.43508
6939.62562,0.43394
6937.69687,0.43287
6935.76812,0.43212
6933.83938,0.43413
6931.91063,0.43811
6929.98189,0.44083
6928.05314,0.44109
6926.12440,0.44039
6924.19565,0.44021
6922.26691,0.44001
6920.33816,0.43990
6918.40942,0.44036
6916.48067,0.44083
6914.55193,0.44155
6912.62318,0.44220
6910.69444,0.44128
6908.76569,0.44035
6906.83695,0.44161
6904.90820,0.44294
6902.97945,0.44245
6901.05071,0.44252
6899.12196,0.44458
6897.19322,0.44673
6895.26447,0.44738
6893.33573,0.44625
6891.40698,0.44446
6889.47824,0.44413
6887.54949,0.44560
6885.62075,0.44685
6883.69200,0.44748
6881.76326,0.44917
6879.83451,0.45138
6877.90577,0.45280
6875.97702,0.45352
6874.04828,0.45267
6872.11953,0.44997
6870.19078,0.44816
6868.26204,0.44990
6866.33329,0.45335
6864.40455,0.45438
6862.47580,0.45297
6860.54706,0.45229
6858.61831,0.45324
6856.68957,0.45333
6854.76082,0.45143
6852.83208,0.45098
6850.90333,0.45460
6848.97459,0.45815
6847.04584,0.45786
6845.11710,0.45715
6843.18835,0.45817
6841.25960,0.45864
6839.33086,0.45923
6837.40211,0.46111
6835.47337,0.46171
6833.54462,0.45955
6831.61588,0.45656
6829.68713,0.45485
6827.75839,0.45570
6825.82964,0.45898
6823.90090,0.46127
6821.97215,0.46035
6820.04341,0.45833
6818.11466,0.45687
6816.18592,0.45675
6814.25717,0.45791
6812.32843,0.45868
6810.39968,0.45915
6808.47093,0.45958
6806.54219,0.45928
6804.61344,0.45864
6802.68470,0.45810
6800.75595,0.45853
6798.82721,0.45919
6796.89846,0.45802
6794.96972,0.45711
6793.04097,0.45816
6791.11223,0.45907
6789.18348,0.46063
6787.25474,0.46382
6785.32599,0.46622
6783.39725,0.46762
6781.46850,0.46871
6779.53975,0.46850
6777.61101,0.46757
6775.68226,0.46577
6773.75352,0.46222
6771.82477,0.45928
6769.89603,0.45953
6767.96728,0.46162
6766.03854,0.46223
6764.10979,0.46122
6762.18105,0.46177
6760.25230,0.46375
6758.32356,0.46464
6756.39481,0.46485
6754.46607,0.46442
6752.53732,0.46288
6750.60858,0.46251
6748.67983,0.46348
6746.75108,0.46364
6744.82234,0.46328
6742.89359,0.46351
6740.96485,0.46318
6739.03610,0.46225
6737.10736,0.46329
6735.17861,0.46533
6733.24987,0.46512
6731.32112,0.46385
6729.39238,0.46521
6727.46363,0.47038
6725.53489,0.47510
6723.60614,0.47478
6721.67740,0.47184
6719.74865,0.47102
6717.81991,0.47139
6715.89116,0.46990
6713.96241,0.46802
6712.03367,0.46754
6710.10492,0.46721
6708.17618,0.46684
6706.24743,0.46777
6704.31869,0.47024
6702.38994,0.47163
6700.46120,0.47040
6698.53245,0.46882
6696.60371,0.46830
6694.67496,0.46987
6692.74622,0.47332
6690.81747,0.47383
6688.88873,0.47112
6686.95998,0.47078
6685.03123,0.47281
6683.10249,0.47342
6681.17374,0.47256
6679.24500,0.47227
6677.31625,0.47309
6675.38751,0.47285
6673.45876,0.47013
6671.53002,0.46805
6669.60127,0.46859
6667.67253,0.46946
6665.74378,0.46996
6663.81504,0.47086
6661.88629,0.47200
6659.95755,0.47387
6658.02880,0.47513
6656.10006,0.47382
6654.17131,0.47253
6652.24256,0.47407
6650.31382,0.47627
6648.38507,0.47689
6646.45633,0.47668
6644.52758,0.47657
6642.59884,0.47617
6640.67009,0.47432
6638.74135,0.47222
6636.81260,0.47270
6634.88386,0.47504
6632.95511,0.47672
6631.02637,0.47775
6629.09762,0.47851
6627.16888,0.47698
6625.24013,0.47337
6623.31139,0.47172
6621.38264,0.47298
6619.45389,0.47457
6617.52515,0.47533
6615.59640,0.47571
6613.66766,0.47558
6611.73891,0.47515
6609.81017,0.47530
6607.88142,0.47550
6605.95268,0.47457
6604.02393,0.47327
6602.09519,0.47389
6600.16644,0.47573
6598.23770,0.47529
6596.30895,0.47371
6594.38021,0.47387
6592.45146,0.47474
6590.52271,0.47602
6588.59397,0.47831
6586.66522,0.47971
6584.73648,0.47950
6582.80773,0.47942
6580.87899,0.47983
6578.95024,0.48031
6577.02150,0.48075
6575.09275,0.48037
6573.16401,0.47921
6571.23526,0.47839
6569.30652,0.47845
6567.37777,0.47964
6565.44903,0.48216
6563.52028,0.48433
6561.59154,0.48381
6559.66279,0.48154
6557.73404,0.48059
6555.80530,0.48177
6553.87655,0.48310
6551.94781,0.48288
6550.01906,0.48152
6548.09032,0.48045
6546.16157,0.48063
6544.23283,0.48169
6542.30408,0.48266
6540.37534,0.48240
6538.44659,0.48037
6536.51785,0.47840
6534.58910,0.47841
6532.66036,0.48030
6530.73161,0.48251
6528.80287,0.48230
6526.87412,0.47927
6524.94537,0.47674
6523.01663,0.47677
6521.08788,0.47787
6519.15914,0.47869
6517.23039,0.47955
6515.30165,0.47978
6513.37290,0.47972
6511.44416,0.48161
6509.51541,0.48428
6507.58667,0.48547
6505.65792,0.48530
6503.72918,0.48421
6501.80043,0.48351
6499.87169,0.48424
6497.94294,0.48537
6496.01419,0.48626
6494.08545,0.48699
6492.15670,0.48697
6490.22796,0.48607
6488.29921,0.48508
6486.37047,0.48455
6484.44172,0.48466
6482.51298,0.48442
6480.58423,0.48317
6478.65549,0.48293
6476.72674,0.48528
6474.79800,0.48850
6472.86925,0.48949
6470.94051,0.48791
6469.01176,0.48589
6467.08302,0.48421
6465.15427,0.48323
6463.22552,0.48382
6461.29678,0.48510
6459.36803,0.48500
6457.43929,0.48363
6455.51054,0.48246
6453.58180,0.48197
6451.65305,0.48324
6449.72431,0.48607
6447.79556,0.48770
6445.86682,0.48823
6443.93807,0.48928
6442.00933,0.48998
6440.08058,0.49005
6438.15184,0.49028
6436.22309,0.49045
6434.29434,0.49007
6432.36560,0.48846
6430.43685,0.48604
6428.50811,0.48492
6426.57936,0.48563
6424.65062,0.48636
6422.72187,0.48603
6420.79313,0.48577
6418.86438,0.48634
6416.93564,0.48685
6415.00689,0.48738
6413.07815,0.48790
6411.14940,0.48797
6409.22066,0.48844
6407.29191,0.48859
6405.36317,0.48819
6403.43442,0.48909
6401.50567,0.48998
6399.57693,0.48973
6397.64818,0.49024
6395.71944,0.49089
6393.79069,0.49014
6391.86195,0.48847
6389.93320,0.48696
6388.00446,0.48689
6386.07571,0.48792
6384.14697,0.48879
6382.21822,0.48937
6380.28948,0.48892
6378.36073,0.48685
6376.43199,0.48490
6374.50324,0.48473
6372.57450,0.48553
6370.64575,0.48617
6368.71700,0.48666
6366.78826,0.48732
6364.85951,0.48821
6362.93077,0.48796
6361.00202,0.48629
6359.07328,0.48537
6357.14453,0.48553
6355.21579,0.48607
6353.28704,0.48660
6351.35830,0.48591
6349.42955,0.48395
6347.50081,0.48219
6345.57206,0.48233
6343.64332,0.48397
6341.71457,0.48483
6339.78582,0.48498
6337.85708,0.48570
6335.92833,0.48665
6333.99959,0.48650
6332.07084,0.48466
6330.14210,0.48286
6328.21335,0.48285
6326.28461,0.48431
6324.35586,0.48525
6322.42712,0.48438
6320.49837,0.48351
6318.56963,0.48456
6316.64088,0.48712
6314.71214,0.48960
6312.78339,0.49014
6310.85465,0.48865
6308.92590,0.48676
6306.99715,0.48583
6305.06841,0.48607
6303.13966,0.48615
6301.21092,0.48555
6299.28217,0.48570
6297.35343,0.48704
6295.42468,0.48823
6293.49594,0.48853
6291.56719,0.48858
6289.63845,0.48916
6287.70970,0.48963
6285.78096,0.48901
6283.85221,0.48864
6281.92347,0.48962
6279.99472,0.48984
6278.06598,0.48862
6276.13723,0.48845
6274.20848,0.48933
6272.27974,0.48890
6270.35099,0.48727
6268.42225,0.48649
6266.49350,0.48638
6264.56476,0.48580
6262.63601,0.48551
6260.70727,0.48623
6258.77852,0.48761
6256.84978,0.48817
6254.92103,0.48727
6252.99229,0.48708
6251.06354,0.48805
6249.13480,0.48827
6247.20605,0.48777
6245.27730,0.48733
6243.34856,0.48679
6241.41981,0.48594
6239.49107,0.48537
6237.56232,0.48601
6235.63358,0.48757
6233.70483,0.48831
6231.77609,0.48763
6229.84734,0.48668
6227.91860,0.48648
6225.98985,0.48691
6224.06111,0.48711
6222.13236,0.48717
6220.20362,0.48800
6218.27487,0.48893
6216.34613,0.48882
6214.41738,0.48793
6212.48863,0.48718
6210.55989,0.48643
6208.63114,0.48523
6206.70240,0.48411
6204.77365,0.48288
6202.84491,0.48148
6200.91616,0.48063
6198.98742,0.47987
6197.05867,0.47875
6195.12993,0.47774
6193.20118,0.47730
6191.27244,0.47734
6189.34369,0.47690
6187.41495,0.47579
6185.48620,0.47547
6183.55746,0.47657
6181.62871,0.47783
6179.69996,0.47832
6177.77122,0.47804
6175.84247,0.47722
6173.91373,0.47670
6171.98498,0.47616
6170.05624,0.47554
6168.12749,0.47613
6166.19875,0.47644
6164.27000,0.47450
6162.34126,0.47175
6160.41251,0.47049
6158.48377,0.47153
6156.55502,0.47330
6154.62628,0.47399
6152.69753,0.47395
6150.76878,0.47364
6148.84004,0.47227
6146.91129,0.46990
6144.98255,0.46841
6143.05380,0.46807
6141.12506,0.46748
6139.19631,0.46675
6137.26757,0.46652
6135.33882,0.46691
6133.41008,0.46742
6131.48133,0.46723
6129.55259,0.46661
6127.62384,0.46608
6125.69510,0.46605
6123.76635,0.46602
6121.83761,0.46464
6119.90886,0.46308
6117.98011,0.46275
6116.05137,0.46189
6114.12262,0.46012
6112.19388,0.45865
6110.26513,0.45692
6108.33639,0.45510
6106.40764,0.45375
6104.47890,0.45161
6102.55015,0.44861
6100.62141,0.44625
6098.69266,0.44417
6096.76392,0.44101
6094.83517,0.43754
6092.90643,0.43488
6090.97768,0.43203
6089.04893,0.42865
6087.12019,0.42575
6085.19144,0.42269
6083.26270,0.41876
6081.33395,0.41506
6079.40521,0.41215
6077.47646,0.40944
6075.54772,0.40634
6073.61897,0.40303
6071.69023,0.40010
6069.76148,0.39759
6067.83274,0.39541
6065.90399,0.39229
6063.97525,0.38710
6062.04650,0.38193
6060.11776,0.37857
6058.18901,0.37537
6056.26026,0.37104
6054.33152,0.36665
6052.40277,0.36308
6050.47403,0.36002
6048.54528,0.35708
6046.61654,0.35412
6044.68779,0.35106
6042.75905,0.34862
6040.83030,0.34757
6038.90156,0.34677
6036.97281,0.34457
6035.04407,0.34144
6033.11532,0.33856
6031.18658,0.33634
6029.25783,0.33432
6027.32909,0.33144
6025.40034,0.32823
6023.47159,0.32609
6021.54285,0.32366
6019.61410,0.31960
6017.68536,0.31611
6015.75661,0.31489
6013.82787,0.31529
6011.89912,0.31678
6009.97038,0.31923
6008.04163,0.32255
6006.11289,0.32650
6004.18414,0.33030
6002.25540,0.33343
6000.32665,0.33636
5998.39791,0.33967
5996.46916,0.34299
5994.54041,0.34604
5992.61167,0.34987
5990.68292,0.35464
5988.75418,0.35891
5986.82543,0.36226
5984.89669,0.36492
5982.96794,0.36689
5981.03920,0.36818
5979.11045,0.36840
5977.18171,0.36814
5975.25296,0.36873
5973.32422,0.37020
5971.39547,0.37118
5969.46673,0.37067
5967.53798,0.36958
5965.60924,0.36931
5963.68049,0.36955
5961.75174,0.36962
5959.82300,0.36961
5957.89425,0.36897
5955.96551,0.36668
5954.03676,0.36346
5952.10802,0.36056
5950.17927,0.35706
5948.25053,0.35174
5946.32178,0.34610
5944.39304,0.34235
5942.46429,0.33976
5940.53555,0.33615
5938.60680,0.33181
5936.67806,0.32848
5934.74931,0.32585
5932.82057,0.32270
5930.89182,0.31868
5928.96307,0.31383
5927.03433,0.30906
5925.10558,0.30510
5923.17684,0.30195
5921.24809,0.29912
5919.31935,0.29574
5917.39060,0.29192
5915.46186,0.28802
5913.53311,0.28370
5911.60437,0.27938
5909.67562,0.27580
5907.74688,0.27313
5905.81813,0.27106
5903.88939,0.26911
5901.96064,0.26653
5900.03189,0.26328
5898.10315,0.26040
5896.17440,0.25719
5894.24566,0.25246
5892.31691,0.24756
5890.38817,0.24393
5888.45942,0.24114
5886.53068,0.23755
5884.60193,0.23305
5882.67319,0.23010
5880.74444,0.22881
5878.81570,0.22652
5876.88695,0.22273
5874.95821,0.21894
5873.02946,0.21567
5871.10072,0.21263
5869.17197,0.20961
5867.24322,0.20698
5865.31448,0.20502
5863.38573,0.20285
5861.45699,0.20008
5859.52824,0.19745
5857.59950,0.19475
5855.67075,0.19144
5853.74201,0.18778
5851.81326,0.18399
5849.88452,0.18068
5847.95577,0.17837
5846.02703,0.17616
5844.09828,0.17365
5842.16954,0.17088
5840.24079,0.16771
5838.31205,0.16491
5836.38330,0.16266
5834.45455,0.16074
5832.52581,0.15955
5830.59706,0.15854
5828.66832,0.15734
5826.73957,0.15598
5824.81083,0.15460
5822.88208,0.15462
5820.95334,0.15684
5819.02459,0.15984
5817.09585,0.16256
5815.16710,0.16537
5813.23836,0.16773
5811.30961,0.16948
5809.38087,0.17248
5807.45212,0.17671
5805.52337,0.18061
5803.59463,0.18442
5801.66588,0.18847
5799.73714,0.19214
5797.80839,0.19528
5795.87965,0.19775
5793.95090,0.19986
5792.02216,0.20301
5790.09341,0.20756
5788.16467,0.21186
5786.23592,0.21455
5784.30718,0.21647
5782.37843,0.21869
5780.44969,0.22059
5778.52094,0.22226
5776.59220,0.22448
5774.66345,0.22637
5772.73470,0.22735
5770.80596,0.22846
5768.87721,0.23003
5766.94847,0.23122
5765.01972,0.23181
5763.09098,0.23232
5761.16223,0.23249
5759.23349,0.23174
5757.30474,0.23026
5755.37600,0.22849
5753.44725,0.22682
5751.51851,0.22593
5749.58976,0.22578
5747.66102,0.22566
5745.73227,0.22527
5743.80352,0.22479
5741.87478,0.22463
5739.94603,0.22475
5738.01729,0.22472
5736.08854,0.22436
5734.15980,0.22372
5732.23105,0.22325
5730.30231,0.22342
5728.37356,0.22383
5726.44482,0.22412
5724.51607,0.22498
5722.58733,0.22671
5720.65858,0.22830
5718.72984,0.22864
5716.80109,0.22811
5714.87235,0.22782
5712.94360,0.22739
5711.01485,0.22627
5709.08611,0.22522
5707.15736,0.22485
5705.22862,0.22485
5703.29987,0.22460
5701.37113,0.22437
5699.44238,0.22507
5697.51364,0.22695
5695.58489,0.22905
5693.65615,0.23054
5691.72740,0.23172
5689.79866,0.23291
5687.86991,0.23418
5685.94117,0.23612
5684.01242,0.23893
5682.08368,0.24197
5680.15493,0.24450
5678.22618,0.24584
5676.29744,0.24638
5674.36869,0.24777
5672.43995,0.25044
5670.51120,0.25290
5668.58246,0.25369
5666.65371,0.25343
5664.72497,0.25359
5662.79622,0.25449
5660.86748,0.25587
5658.93873,0.25683
5657.00999,0.25680
5655.08124,0.25707
5653.15250,0.25851
5651.22375,0.26007
5649.29500,0.26117
5647.36626,0.26227
5645.43751,0.26314
5643.50877,0.26319
5641.58002,0.26291
5639.65128,0.26360
5637.72253,0.26557
5635.79379,0.26800
5633.86504,0.26993
5631.93630,0.27091
5630.00755,0.27142
5628.07881,0.27257
5626.15006,0.27478
5624.22132,0.27702
5622.29257,0.27812
5620.36383,0.27855
5618.43508,0.27905
5616.50633,0.27965
5614.57759,0.28055
5612.64884,0.28197
5610.72010,0.28362
5608.79135,0.28477
5606.86261,0.28528
5604.93386,0.28584
5603.00512,0.28685
5601.07637,0.28755
5599.14763,0.28754
5597.21888,0.28792
5595.29014,0.28934
5593.36139,0.29096
5591.43265,0.29203
5589.50390,0.29321
5587.57516,0.29485
5585.64641,0.29562
5583.71766,0.29509
5581.78892,0.29493
5579.86017,0.29632
5577.93143,0.29810
5576.00268,0.29924
5574.07394,0.30029
5572.14519,0.30112
5570.21645,0.30119
5568.28770,0.30130
5566.35896,0.30208
5564.43021,0.30264
5562.50147,0.30255
5560.57272,0.30242
5558.64398,0.30282
5556.71523,0.30408
5554.78648,0.30553
5552.85774,0.30655
5550.92899,0.30748
5549.00025,0.30813
5547.07150,0.30837
5545.14276,0.30886
5543.21401,0.30933
5541.28527,0.30923
5539.35652,0.30913
5537.42778,0.30926
5535.49903,0.30953
5533.57029,0.31006
5531.64154,0.31042
5529.71280,0.31075
5527.78405,0.31149
5525.85531,0.31221
5523.92656,0.31265
5521.99781,0.31300
5520.06907,0.31309
5518.14032,0.31260
5516.21158,0.31193
5514.28283,0.31190
5512.35409,0.31212
5510.42534,0.31169
5508.49660,0.31154
5506.56785,0.31255
5504.63911,0.31334
5502.71036,0.31300
5500.78162,0.31251
5498.85287,0.31242
5496.92413,0.31227
5494.99538,0.31200
5493.06664,0.31207
5491.13789,0.31240
5489.20914,0.31278
5487.28040,0.31309
5485.35165,0.31325
5483.42291,0.31282
5481.49416,0.31131
5479.56542,0.30971
5477.63667,0.30941
5475.70793,0.30979
5473.77918,0.30969
5471.85044,0.30973
5469.92169,0.31041
5467.99295,0.31065
5466.06420,0.31037
5464.13546,0.31067
5462.20671,0.31141
5460.27796,0.31183
5458.34922,0.31262
5456.42047,0.31445
5454.49173,0.31617
5452.56298,0.31687
5450.63424,0.31707
5448.70549,0.31742
5446.77675,0.31835
5444.84800,0.31995
5442.91926,0.32173
5440.99051,0.32304
5439.06177,0.32424
5437.13302,0.32563
5435.20428,0.32634
5433.27553,0.32644
5431.34679,0.32699
5429.41804,0.32791
5427.48929,0.32861
5425.56055,0.32890
5423.63180,0.32907
5421.70306,0.32986
5419.77431,0.33124
5417.84557,0.33209
5415.91682,0.33228
5413.98808,0.33295
5412.05933,0.33441
5410.13059,0.33568
5408.20184,0.33594
5406.27310,0.33528
5404.34435,0.33472
5402.41561,0.33556
5400.48686,0.33737
5398.55811,0.33835
5396.62937,0.33805
5394.70062,0.33724
5392.77188,0.33628
5390.84313,0.33571
5388.91439,0.33643
5386.98564,0.33818
5385.05690,0.33948
5383.12815,0.33946
5381.19941,0.33903
5379.27066,0.33942
5377.34192,0.34042
5375.41317,0.34131
5373.48443,0.34204
5371.55568,0.34266
5369.62694,0.34304
5367.69819,0.34345
5365.76944,0.34402
5363.84070,0.34453
5361.91195,0.34521
5359.98321,0.34650
5358.05446,0.34812
5356.12572,0.34910
5354.19697,0.34932
5352.26823,0.34954
5350.33948,0.34988
5348.41074,0.35010
5346.48199,0.35005
5344.55325,0.34987
5342.62450,0.35014
5340.69576,0.35079
5338.76701,0.35108
5336.83827,0.35096
5334.90952,0.35114
5332.98077,0.35200
5331.05203,0.35290
5329.12328,0.35331
5327.19454,0.35390
5325.26579,0.35489
5323.33705,0.35526
5321.40830,0.35509
5319.47956,0.35546
5317.55081,0.35634
5315.62207,0.35693
5313.69332,0.35709
5311.76458,0.35716
5309.83583,0.35716
5307.90709,0.35722
5305.97834,0.35759
5304.04959,0.35779
5302.12085,0.35752
5300.19210,0.35724
5298.26336,0.35719
5296.33461,0.35730
5294.40587,0.35725
5292.47712,0.35655
5290.54838,0.35540
5288.61963,0.35447
5286.69089,0.35403
5284.76214,0.35374
5282.83340,0.35291
5280.90465,0.35153
5278.97591,0.35040
5277.04716,0.34971
5275.11842,0.34898
5273.18967,0.34799
5271.26092,0.34714
5269.33218,0.34663
5267.40343,0.34602
5265.47469,0.34480
5263.54594,0.34337
5261.61720,0.34244
5259.68845,0.34197
5257.75971,0.34164
5255.83096,0.34150
5253.90222,0.34160
5251.97347,0.34186
5250.04473,0.34250
5248.11598,0.34365
5246.18724,0.34461
5244.25849,0.34490
5242.32975,0.34506
5240.40100,0.34510
5238.47225,0.34478
5236.54351,0.34499
5234.61476,0.34644
5232.68602,0.34796
5230.75727,0.34851
5228.82853,0.34853
5226.89978,0.34850
5224.97104,0.34866
5223.04229,0.34900
5221.11355,0.34903
5219.18480,0.34874
5217.25606,0.34849
5215.32731,0.34809
5213.39857,0.34745
5211.46982,0.34708
5209.54107,0.34742
5207.61233,0.34806
5205.68358,0.34819
5203.75484,0.34785
5201.82609,0.34778
5199.89735,0.34779
5197.96860,0.34743
5196.03986,0.34728
5194.11111,0.34765
5192.18237,0.34770
5190.25362,0.34703
5188.32488,0.34648
5186.39613,0.34676
5184.46739,0.34690
5182.53864,0.34626
5180.60990,0.34604
5178.68115,0.34665
5176.75240,0.34693
5174.82366,0.34665
5172.89491,0.34638
5170.96617,0.34624
5169.03742,0.34634
5167.10868,0.34661
5165.17993,0.34678
5163.25119,0.34684
5161.32244,0.34651
5159.39370,0.34600
5157.46495,0.34608
5155.53621,0.34644
5153.60746,0.34614
5151.67872,0.34523
5149.74997,0.34463
5147.82123,0.34475
5145.89248,0.34508
5143.96373,0.34546
5142.03499,0.34579
5140.10624,0.34556
5138.17750,0.34493
5136.24875,0.34468
5134.32001,0.34482
5132.39126,0.34461
5130.46252,0.34383
5128.53377,0.34297
5126.60503,0.34254
5124.67628,0.34247
5122.74754,0.34255
5120.81879,0.34271
5118.89005,0.34250
5116.96130,0.34207
5115.03255,0.34214
5113.10381,0.34235
5111.17506,0.34213
5109.24632,0.34207
5107.31757,0.34263
5105.38883,0.34313
5103.46008,0.34300
5101.53134,0.34271
5099.60259,0.34279
5097.67385,0.34315
5095.74510,0.34359
5093.81636,0.34415
5091.88761,0.34473
5089.95887,0.34525
5088.03012,0.34567
5086.10138,0.34607
5084.17263,0.34650
5082.24388,0.34673
5080.31514,0.34681
5078.38639,0.34716
5076.45765,0.34800
5074.52890,0.34914
5072.60016,0.34994
5070.67141,0.35008
5068.74267,0.35026
5066.81392,0.35078
5064.88518,0.35121
5062.95643,0.35159
5061.02769,0.35209
5059.09894,0.35242
5057.17020,0.35237
5055.24145,0.35215
5053.31270,0.35182
5051.38396,0.35156
5049.45521,0.35195
5047.52647,0.35280
5045.59772,0.35335
5043.66898,0.35358
5041.74023,0.35362
5039.81149,0.35355
5037.88274,0.35357
5035.95400,0.35360
5034.02525,0.35354
5032.09651,0.35360
5030.16776,0.35411
5028.23902,0.35476
5026.31027,0.35488
5024.38153,0.35439
5022.45278,0.35378
5020.52403,0.35354
5018.59529,0.35380
5016.66654,0.35409
5014.73780,0.35386
5012.80905,0.35324
5010.88031,0.35280
5008.95156,0.35263
5007.02282,0.35234
5005.09407,0.35185
5003.16533,0.35153
5001.23658,0.35158
4999.30784,0.35160
4997.37909,0.35138
4995.45035,0.35136
4993.52160,0.35179
4991.59286,0.35194
4989.66411,0.35163
4987.73536,0.35173
4985.80662,0.35209
4983.87787,0.35204
4981.94913,0.35191
4980.02038,0.35219
4978.09164,0.35290
4976.16289,0.35358
4974.23415,0.35347
4972.30540,0.35267
4970.37666,0.35223
4968.44791,0.35252
4966.51917,0.35294
4964.59042,0.35309
4962.66168,0.35321
4960.73293,0.35379
4958.80418,0.35434
4956.87544,0.35400
4954.94669,0.35329
4953.01795,0.35307
4951.08920,0.35338
4949.16046,0.35415
4947.23171,0.35468
4945.30297,0.35380
4943.37422,0.35196
4941.44548,0.35089
4939.51673,0.35095
4937.58799,0.35135
4935.65924,0.35183
4933.73050,0.35213
4931.80175,0.35192
4929.87301,0.35142
4927.94426,0.35108
4926.01551,0.35090
4924.08677,0.35060
4922.15802,0.35067
4920.22928,0.35125
4918.30053,0.35140
4916.37179,0.35126
4914.44304,0.35170
4912.51430,0.35235
4910.58555,0.35267
4908.65681,0.35268
4906.72806,0.35240
4904.79932,0.35210
4902.87057,0.35195
4900.94183,0.35178
4899.01308,0.35180
4897.08434,0.35204
4895.15559,0.35215
4893.22684,0.35207
4891.29810,0.35208
4889.36935,0.35220
4887.44061,0.35215
4885.51186,0.35195
4883.58312,0.35189
4881.65437,0.35195
4879.72563,0.35169
4877.79688,0.35127
4875.86814,0.35117
4873.93939,0.35142
4872.01065,0.35174
4870.08190,0.35172
4868.15316,0.35124
4866.22441,0.35091
4864.29566,0.35132
4862.36692,0.35193
4860.43817,0.35174
4858.50943,0.35112
4856.58068,0.35118
4854.65194,0.35190
4852.72319,0.35260
4850.79445,0.35297
4848.86570,0.35307
4846.93696,0.35319
4845.00821,0.35350
4843.07947,0.35368
4841.15072,0.35347
4839.22198,0.35312
4837.29323,0.35289
4835.36449,0.35282
4833.43574,0.35269
4831.50699,0.35240
4829.57825,0.35197
4827.64950,0.35137
4825.72076,0.35089
4823.79201,0.35063
4821.86327,0.35019
4819.93452,0.34976
4818.00578,0.34964
4816.07703,0.34940
4814.14829,0.34881
4812.21954,0.34830
4810.29080,0.34825
4808.36205,0.34841
4806.43331,0.34838
4804.50456,0.34801
4802.57582,0.34715
4800.64707,0.34617
4798.71832,0.34564
4796.78958,0.34530
4794.86083,0.34483
4792.93209,0.34457
4791.00334,0.34476
4789.07460,0.34485
4787.14585,0.34448
4785.21711,0.34397
4783.28836,0.34375
4781.35962,0.34400
4779.43087,0.34440
4777.50213,0.34459
4775.57338,0.34486
4773.64464,0.34543
4771.71589,0.34604
4769.78714,0.34684
4767.85840,0.34769
4765.92965,0.34797
4764.00091,0.34804
4762.07216,0.34839
4760.14342,0.34850
4758.21467,0.34790
4756.28593,0.34698
4754.35718,0.34623
4752.42844,0.34565
4750.49969,0.34513
4748.57095,0.34469
4746.64220,0.34401
4744.71346,0.34300
4742.78471,0.34189
4740.85597,0.34065
4738.92722,0.33914
4736.99847,0.33738
4735.06973,0.33544
4733.14098,0.33329
4731.21224,0.33073
4729.28349,0.32763
4727.35475,0.32421
4725.42600,0.32060
4723.49726,0.31653
4721.56851,0.31225
4719.63977,0.30856
4717.71102,0.30570
4715.78228,0.30368
4713.85353,0.30265
4711.92479,0.30224
4709.99604,0.30163
4708.06729,0.30010
4706.13855,0.29756
4704.20980,0.29476
4702.28106,0.29184
4700.35231,0.28809
4698.42357,0.28339
4696.49482,0.27837
4694.56608,0.27328
4692.63733,0.26824
4690.70859,0.26378
4688.77984,0.26041
4686.85110,0.25821
4684.92235,0.25726
4682.99361,0.25773
4681.06486,0.25925
4679.13612,0.26113
4677.20737,0.26338
4675.27862,0.26653
4673.34988,0.27035
4671.42113,0.27377
4669.49239,0.27642
4667.56364,0.27874
4665.63490,0.28069
4663.70615,0.28198
4661.77741,0.28253
4659.84866,0.28258
4657.91992,0.28252
4655.99117,0.28261
4654.06243,0.28292
4652.13368,0.28318
4650.20494,0.28304
4648.27619,0.28229
4646.34745,0.28069
4644.41870,0.27813
4642.48995,0.27477
4640.56121,0.27062
4638.63246,0.26580
4636.70372,0.26113
4634.77497,0.25751
4632.84623,0.25545
4630.91748,0.25530
4628.98874,0.25709
4627.05999,0.26027
4625.13125,0.26466
4623.20250,0.27024
4621.27376,0.27593
4619.34501,0.28082
4617.41627,0.28515
4615.48752,0.28920
4613.55877,0.29291
4611.63003,0.29614
4609.70128,0.29841
4607.77254,0.29965
4605.84379,0.30066
4603.91505,0.30163
4601.98630,0.30225
4600.05756,0.30266
4598.12881,0.30279
4596.20007,0.30229
4594.27132,0.30098
4592.34258,0.29911
4590.41383,0.29736
4588.48509,0.29596
4586.55634,0.29479
4584.62760,0.29425
4582.69885,0.29430
4580.77010,0.29409
4578.84136,0.29307
4576.91261,0.29172
4574.98387,0.29088
4573.05512,0.29103
4571.12638,0.29235
4569.19763,0.29500
4567.26889,0.29867
4565.34014,0.30216
4563.41140,0.30459
4561.48265,0.30622
4559.55391,0.30736
4557.62516,0.30807
4555.69642,0.30857
4553.76767,0.30886
4551.83893,0.30882
4549.91018,0.30838
4547.98143,0.30768
4546.05269,0.30702
4544.12394,0.30626
4542.19520,0.30522
4540.26645,0.30431
4538.33771,0.30379
4536.40896,0.30337
4534.48022,0.30267
4532.55147,0.30155
4530.62273,0.30023
4528.69398,0.29897
4526.76524,0.29774
4524.83649,0.29669
4522.90775,0.29584
4520.97900,0.29463
4519.05025,0.29296
4517.12151,0.29119
4515.19276,0.28931
4513.26402,0.28716
4511.33527,0.28491
4509.40653,0.28301
4507.47778,0.28122
4505.54904,0.27885
4503.62029,0.27596
4501.69155,0.27280
4499.76280,0.26934
4497.83406,0.26590
4495.90531,0.26238
4493.97657,0.25811
4492.04782,0.25334
4490.11908,0.24940
4488.19033,0.24691
4486.26158,0.24503
4484.33284,0.24281
4482.40409,0.24046
4480.47535,0.23864
4478.54660,0.23734
4476.61786,0.23596
4474.68911,0.23420
4472.76037,0.23245
4470.83162,0.23077
4468.90288,0.22862
4466.97413,0.22577
4465.04539,0.22255
4463.11664,0.21936
4461.18790,0.21638
4459.25915,0.21336
4457.33041,0.20988
4455.40166,0.20577
4453.47291,0.20106
4451.54417,0.19615
4449.61542,0.19151
4447.68668,0.18718
4445.75793,0.18289
4443.82919,0.17828
4441.90044,0.17342
4439.97170,0.16862
4438.04295,0.16372
4436.11421,0.15868
4434.18546,0.15383
4432.25672,0.14919
4430.32797,0.14466
4428.39923,0.14035
4426.47048,0.13646
4424.54173,0.13284
4422.61299,0.12898
4420.68424,0.12482
4418.75550,0.12092
4416.82675,0.11759
4414.89801,0.11480
4412.96926,0.11247
4411.04052,0.11027
4409.11177,0.10766
4407.18303,0.10486
4405.25428,0.10281
4403.32554,0.10155
4401.39679,0.10038
4399.46805,0.09917
4397.53930,0.09832
4395.61056,0.09801
4393.68181,0.09784
4391.75306,0.09728
4389.82432,0.09634
4387.89557,0.09511
4385.96683,0.09338
4384.03808,0.09128
4382.10934,0.08924
4380.18059,0.08748
4378.25185,0.08579
4376.32310,0.08388
4374.39436,0.08199
4372.46561,0.08037
4370.53687,0.07876
4368.60812,0.07690
4366.67938,0.07494
4364.75063,0.07300
4362.82189,0.07123
4360.89314,0.06969
4358.96439,0.06831
4357.03565,0.06716
4355.10690,0.06630
4353.17816,0.06548
4351.24941,0.06436
4349.32067,0.06290
4347.39192,0.06167
4345.46318,0.06108
4343.53443,0.06076
4341.60569,0.06032
4339.67694,0.05955
4337.74820,0.05845
4335.81945,0.05769
4333.89071,0.05782
4331.96196,0.05845
4330.03321,0.05901
4328.10447,0.05956
4326.17572,0.06029
4324.24698,0.06118
4322.31823,0.06248
4320.38949,0.06412
4318.46074,0.06539
4316.53200,0.06622
4314.60325,0.06720
4312.67451,0.06838
4310.74576,0.06943
4308.81702,0.07011
4306.88827,0.07033
4304.95953,0.07033
4303.03078,0.07060
4301.10204,0.07109
4299.17329,0.07142
4297.24454,0.07142
4295.31580,0.07113
4293.38705,0.07101
4291.45831,0.07119
4289.52956,0.07106
4287.60082,0.07051
4285.67207,0.07021
4283.74333,0.07037
4281.81458,0.07057
4279.88584,0.07054
4277.95709,0.07057
4276.02835,0.07095
4274.09960,0.07139
4272.17086,0.07162
4270.24211,0.07177
4268.31336,0.07199
4266.38462,0.07241
4264.45587,0.07289
4262.52713,0.07313
4260.59838,0.07320
4258.66964,0.07342
4256.74089,0.07364
4254.81215,0.07341
4252.88340,0.07298
4250.95466,0.07296
4249.02591,0.07292
4247.09717,0.07245
4245.16842,0.07207
4243.23968,0.07207
4241.31093,0.07211
4239.38219,0.07207
4237.45344,0.07197
4235.52469,0.07173
4233.59595,0.07157
4231.66720,0.07175
4229.73846,0.07189
4227.80971,0.07150
4225.88097,0.07085
4223.95222,0.07032
4222.02348,0.06973
4220.09473,0.06902
4218.16599,0.06876
4216.23724,0.06916
4214.30850,0.06969
4212.37975,0.06999
4210.45101,0.07018
4208.52226,0.07047
4206.59352,0.07099
4204.66477,0.07163
4202.73602,0.07226
4200.80728,0.07285
4198.87853,0.07330
4196.94979,0.07375
4195.02104,0.07425
4193.09230,0.07470
4191.16355,0.07513
4189.23481,0.07552
4187.30606,0.07578
4185.37732,0.07589
4183.44857,0.07572
4181.51983,0.07512
4179.59108,0.07439
4177.66234,0.07388
4175.73359,0.07357
4173.80484,0.07336
4171.87610,0.07308
4169.94735,0.07264
4168.01861,0.07257
4166.08986,0.07328
4164.16112,0.07438
4162.23237,0.07549
4160.30363,0.07650
4158.37488,0.07738
4156.44614,0.07851
4154.51739,0.07978
4152.58865,0.08058
4150.65990,0.08102
4148.73116,0.08156
4146.80241,0.08243
4144.87367,0.08363
4142.94492,0.08481
4141.01617,0.08565
4139.08743,0.08637
4137.15868,0.08727
4135.22994,0.08823
4133.30119,0.08916
4131.37245,0.09002
4129.44370,0.09066
4127.51496,0.09106
4125.58621,0.09129
4123.65747,0.09138
4121.72872,0.09116
4119.79998,0.09041
4117.87123,0.08940
4115.94249,0.08888
4114.01374,0.08883
4112.08500,0.08848
4110.15625,0.08776
4108.22750,0.08704
4106.29876,0.08628
4104.37001,0.08557
4102.44127,0.08498
4100.51252,0.08418
4098.58378,0.08311
4096.65503,0.08197
4094.72629,0.08076
4092.79754,0.07929
4090.86880,0.07744
4088.94005,0.07549
4087.01131,0.07394
4085.08256,0.07284
4083.15382,0.07214
4081.22507,0.07230
4079.29632,0.07348
4077.36758,0.07520
4075.43883,0.07704
4073.51009,0.07868
4071.58134,0.07987
4069.65260,0.08087
4067.72385,0.08220
4065.79511,0.08382
4063.86636,0.08552
4061.93762,0.08724
4060.00887,0.08873
4058.08013,0.08992
4056.15138,0.09118
4054.22264,0.09241
4052.29389,0.09314
4050.36515,0.09345
4048.43640,0.09384
4046.50765,0.09436
4044.57891,0.09482
4042.65016,0.09529
4040.72142,0.09594
4038.79267,0.09656
4036.86393,0.09679
4034.93518,0.09669
4033.00644,0.09660
4031.07769,0.09662
4029.14895,0.09678
4027.22020,0.09711
4025.29146,0.09738
4023.36271,0.09732
4021.43397,0.09698
4019.50522,0.09677
4017.57648,0.09703
4015.64773,0.09775
4013.71898,0.09864
4011.79024,0.09951
4009.86149,0.10031
4007.93275,0.10102
4006.00400,0.10154
4004.07526,0.10200
4002.14651,0.10265
4000.21777,0.10367
3998.28902,0.10497
3996.36028,0.10607
3994.43153,0.10684
3992.50279,0.10759
3990.57404,0.10852
3988.64530,0.10960
3986.71655,0.11057
3984.78780,0.11140
3982.85906,0.11234
3980.93031,0.11326
3979.00157,0.11397
3977.07282,0.11465
3975.14408,0.11545
3973.21533,0.11617
3971.28659,0.11677
3969.35784,0.11737
3967.42910,0.11772
3965.50035,0.11770
3963.57161,0.11759
3961.64286,0.11758
3959.71412,0.11749
3957.78537,0.11747
3955.85663,0.11784
3953.92788,0.11828
3951.99913,0.11828
3950.07039,0.11801
3948.14164,0.11791
3946.21290,0.11787
3944.28415,0.11761
3942.35541,0.11758
3940.42666,0.11791
3938.49792,0.11818
3936.56917,0.11827
3934.64043,0.11847
3932.71168,0.11886
3930.78294,0.11917
3928.85419,0.11939
3926.92545,0.11970
3924.99670,0.12017
3923.06795,0.12066
3921.13921,0.12103
3919.21046,0.12139
3917.28172,0.12192
3915.35297,0.12239
3913.42423,0.12252
3911.49548,0.12273
3909.56674,0.12341
3907.63799,0.12422
3905.70925,0.12484
3903.78050,0.12546
3901.85176,0.12621
3899.92301,0.12695
3897.99427,0.12759
3896.06552,0.12813
3894.13678,0.12867
3892.20803,0.12925
3890.27928,0.12963
3888.35054,0.12989
3886.42179,0.13034
3884.49305,0.13087
3882.56430,0.13140
3880.63556,0.13211
3878.70681,0.13274
3876.77807,0.13283
3874.84932,0.13242
3872.92058,0.13222
3870.99183,0.13250
3869.06309,0.13273
3867.13434,0.13271
3865.20560,0.13260
3863.27685,0.13240
3861.34811,0.13219
3859.41936,0.13210
3857.49061,0.13221
3855.56187,0.13250
3853.63312,0.13284
3851.70438,0.13312
3849.77563,0.13339
3847.84689,0.13395
3845.91814,0.13475
3843.98940,0.13536
3842.06065,0.13563
3840.13191,0.13579
3838.20316,0.13601
3836.27442,0.13645
3834.34567,0.13712
3832.41693,0.13773
3830.48818,0.13804
3828.55943,0.13821
3826.63069,0.13857
3824.70194,0.13913
3822.77320,0.13968
3820.84445,0.14043
3818.91571,0.14134
3816.98696,0.14195
3815.05822,0.14214
3813.12947,0.14227
3811.20073,0.14264
3809.27198,0.14314
3807.34324,0.14346
3805.41449,0.14358
3803.48575,0.14376
3801.55700,0.14412
3799.62826,0.14476
3797.69951,0.14581
3795.77076,0.14704
3793.84202,0.14808
3791.91327,0.14891
3789.98453,0.14972
3788.05578,0.15070
3786.12704,0.15180
3784.19829,0.15269
3782.26955,0.15322
3780.34080,0.15344
3778.41206,0.15341
3776.48331,0.15329
3774.55457,0.15320
3772.62582,0.15298
3770.69708,0.15245
3768.76833,0.15188
3766.83959,0.15164
3764.91084,0.15160
3762.98209,0.15136
3761.05335,0.15083
3759.12460,0.15033
3757.19586,0.15019
3755.26711,0.15041
3753.33837,0.15121
3751.40962,0.15276
3749.48088,0.15436
3747.55213,0.15547
3745.62339,0.15640
3743.69464,0.15726
3741.76590,0.15784
3739.83715,0.15832
3737.90841,0.15886
3735.97966,0.15919
3734.05091,0.15933
3732.12217,0.15952
3730.19342,0.15994
3728.26468,0.16075
3726.33593,0.16199
3724.40719,0.16342
3722.47844,0.16447
3720.54970,0.16461
3718.62095,0.16407
3716.69221,0.16327
3714.76346,0.16205
3712.83472,0.16025
3710.90597,0.15811
3708.97723,0.15587
3707.04848,0.15351
3705.11974,0.15089
3703.19099,0.14777
3701.26224,0.14405
3699.33350,0.14003
3697.40475,0.13577
3695.47601,0.13135
3693.54726,0.12705
3691.61852,0.12279
3689.68977,0.11801
3687.76103,0.11290
3685.83228,0.10875
3683.90354,0.10601
3681.97479,0.10452
3680.04605,0.10394
3678.11730,0.10344
3676.18856,0.10257
3674.25981,0.10190
3672.33107,0.10204
3670.40232,0.10287
3668.47357,0.10356
3666.54483,0.10368
3664.61608,0.10370
3662.68734,0.10375
3660.75859,0.10375
3658.82985,0.10396
3656.90110,0.10448
3654.97236,0.10521
3653.04361,0.10603
3651.11487,0.10660
3649.18612,0.10668
3647.25738,0.10660
3645.32863,0.10664
3643.39989,0.10663
3641.47114,0.10634
3639.54239,0.10584
3637.61365,0.10543
3635.68490,0.10520
3633.75616,0.10492
3631.82741,0.10433
3629.89867,0.10335
3627.96992,0.10215
3626.04118,0.10113
3624.11243,0.10030
3622.18369,0.09931
3620.25494,0.09779
3618.32620,0.09610
3616.39745,0.09511
3614.46871,0.09478
3612.53996,0.09451
3610.61122,0.09408
3608.68247,0.09341
3606.75372,0.09260
3604.82498,0.09187
3602.89623,0.09134
3600.96749,0.09087
3599.03874,0.09033
3597.11000,0.08983
3595.18125,0.08932
3593.25251,0.08856
3591.32376,0.08777
3589.39502,0.08727
3587.46627,0.08674
3585.53753,0.08588
3583.60878,0.08511
3581.68004,0.08468
3579.75129,0.08421
3577.82254,0.08344
3575.89380,0.08242
3573.96505,0.08129
3572.03631,0.08039
3570.10756,0.07981
3568.17882,0.07911
3566.25007,0.07794
3564.32133,0.07672
3562.39258,0.07582
3560.46384,0.07520
3558.53509,0.07468
3556.60635,0.07400
3554.67760,0.07305
3552.74886,0.07220
3550.82011,0.07175
3548.89137,0.07148
3546.96262,0.07119
3545.03387,0.07104
3543.10513,0.07093
3541.17638,0.07072
3539.24764,0.07066
3537.31889,0.07075
3535.39015,0.07066
3533.46140,0.07050
3531.53266,0.07053
3529.60391,0.07065
3527.67517,0.07052
3525.74642,0.07015
3523.81768,0.06976
3521.88893,0.06954
3519.96019,0.06956
3518.03144,0.06958
3516.10270,0.06938
3514.17395,0.06907
3512.24520,0.06868
3510.31646,0.06836
3508.38771,0.06851
3506.45897,0.06900
3504.53022,0.06904
3502.60148,0.06850
3500.67273,0.06812
3498.74399,0.06815
3496.81524,0.06829
3494.88650,0.06829
3492.95775,0.06800
3491.02901,0.06749
3489.10026,0.06692
3487.17152,0.06642
3485.24277,0.06618
3483.31402,0.06618
3481.38528,0.06625
3479.45653,0.06624
3477.52779,0.06617
3475.59904,0.06604
3473.67030,0.06575
3471.74155,0.06525
3469.81281,0.06480
3467.88406,0.06458
3465.95532,0.06445
3464.02657,0.06414
3462.09783,0.06339
3460.16908,0.06247
3458.24034,0.06186
3456.31159,0.06125
3454.38285,0.06038
3452.45410,0.05967
3450.52535,0.05935
3448.59661,0.05903
3446.66786,0.05835
3444.73912,0.05739
3442.81037,0.05646
3440.88163,0.05552
3438.95288,0.05461
3437.02414,0.05406
3435.09539,0.05370
3433.16665,0.05303
3431.23790,0.05222
3429.30916,0.05163
3427.38041,0.05114
3425.45167,0.05074
3423.52292,0.05060
3421.59418,0.05051
3419.66543,0.05039
3417.73668,0.05049
3415.80794,0.05068
3413.87919,0.05078
3411.95045,0.05082
3410.02170,0.05096
3408.09296,0.05128
3406.16421,0.05154
3404.23547,0.05169
3402.30672,0.05193
3400.37798,0.05218
3398.44923,0.05218
3396.52049,0.05208
3394.59174,0.05236
3392.66300,0.05303
3390.73425,0.05359
3388.80550,0.05388
3386.87676,0.05410
3384.94801,0.05441
3383.01927,0.05482
3381.09052,0.05523
3379.16178,0.05571
3377.23303,0.05617
3375.30429,0.05651
3373.37554,0.05658
3371.44680,0.05631
3369.51805,0.05636
3367.58931,0.05707
3365.66056,0.05766
3363.73182,0.05768
3361.80307,0.05753
3359.87433,0.05745
3357.94558,0.05751
3356.01683,0.05769
3354.08809,0.05790
3352.15934,0.05800
3350.23060,0.05774
3348.30185,0.05722
3346.37311,0.05691
3344.44436,0.05707
3342.51562,0.05738
3340.58687,0.05743
3338.65813,0.05724
3336.72938,0.05705
3334.80064,0.05687
3332.87189,0.05670
3330.94315,0.05675
3329.01440,0.05669
3327.08566,0.05615
3325.15691,0.05557
3323.22816,0.05540
3321.29942,0.05562
3319.37067,0.05595
3317.44193,0.05600
3315.51318,0.05569
3313.58444,0.05555
3311.65569,0.05572
3309.72695,0.05569
3307.79820,0.05562
3305.86946,0.05607
3303.94071,0.05684
3302.01197,0.05747
3300.08322,0.05753
3298.15448,0.05704
3296.22573,0.05656
3294.29698,0.05635
3292.36824,0.05637
3290.43949,0.05679
3288.51075,0.05754
3286.58200,0.05801
3284.65326,0.05797
3282.72451,0.05785
3280.79577,0.05796
3278.86702,0.05838
3276.93828,0.05917
3275.00953,0.05983
3273.08079,0.05992
3271.15204,0.05990
3269.22330,0.06015
3267.29455,0.06052
3265.36581,0.06089
3263.43706,0.06121
3261.50831,0.06132
3259.57957,0.06095
3257.65082,0.06017
3255.72208,0.05954
3253.79333,0.05958
3251.86459,0.06010
3249.93584,0.06051
3248.00710,0.06047
3246.07835,0.06032
3244.14961,0.06029
3242.22086,0.06016
3240.29212,0.05999
3238.36337,0.05979
3236.43463,0.05940
3234.50588,0.05896
3232.57713,0.05867
3230.64839,0.05843
3228.71964,0.05810
3226.79090,0.05779
3224.86215,0.05766
3222.93341,0.05739
3221.00466,0.05706
3219.07592,0.05687
3217.14717,0.05645
3215.21843,0.05605
3213.28968,0.05625
3211.36094,0.05645
3209.43219,0.05607
3207.50345,0.05542
3205.57470,0.05482
3203.64596,0.05452
3201.71721,0.05469
3199.78846,0.05514
3197.85972,0.05547
3195.93097,0.05547
3194.00223,0.05538
3192.07348,0.05529
3190.14474,0.05514
3188.21599,0.05509
3186.28725,0.05529
3184.35850,0.05551
3182.42976,0.05564
3180.50101,0.05596
3178.57227,0.05646
3176.64352,0.05672
3174.71478,0.05663
3172.78603,0.05639
3170.85729,0.05641
3168.92854,0.05689
3166.99979,0.05746
3165.07105,0.05795
3163.14230,0.05835
3161.21356,0.05838
3159.28481,0.05802
3157.35607,0.05766
3155.42732,0.05764
3153.49858,0.05793
3151.56983,0.05819
3149.64109,0.05840
3147.71234,0.05856
3145.78360,0.05837
3143.85485,0.05789
3141.92611,0.05771
3139.99736,0.05781
3138.06861,0.05765
3136.13987,0.05707
3134.21112,0.05642
3132.28238,0.05603
3130.35363,0.05600
3128.42489,0.05629
3126.49614,0.05646
3124.56740,0.05627
3122.63865,0.05596
3120.70991,0.05564
3118.78116,0.05541
3116.85242,0.05544
3114.92367,0.05542
3112.99493,0.05512
3111.06618,0.05477
3109.13744,0.05450
3107.20869,0.05423
3105.27994,0.05388
3103.35120,0.05353
3101.42245,0.05348
3099.49371,0.05357
3097.56496,0.05336
3095.63622,0.05300
3093.70747,0.05295
3091.77873,0.05304
3089.84998,0.05272
3087.92124,0.05197
3085.99249,0.05115
3084.06375,0.05065
3082.13500,0.05059
3080.20626,0.05063
3078.27751,0.05036
3076.34877,0.04993
3074.42002,0.04965
3072.49127,0.04954
3070.56253,0.04949
3068.63378,0.04943
3066.70504,0.04925
3064.77629,0.04907
3062.84755,0.04889
3060.91880,0.04865
3058.99006,0.04843
3057.06131,0.04824
3055.13257,0.04807
3053.20382,0.04805
3051.27508,0.04817
3049.34633,0.04835
3047.41759,0.04861
3045.48884,0.04893
3043.56009,0.04897
3041.63135,0.04866
3039.70260,0.04840
3037.77386,0.04831
3035.84511,0.04811
3033.91637,0.04776
3031.98762,0.04751
3030.05888,0.04732
3028.13013,0.04705
3026.20139,0.04669
3024.27264,0.04624
3022.34390,0.04597
3020.41515,0.04606
3018.48641,0.04620
3016.55766,0.04611
3014.62892,0.04597
3012.70017,0.04589
3010.77142,0.04572
3008.84268,0.04543
3006.91393,0.04512
3004.98519,0.04487
3003.05644,0.04478
3001.12770,0.04476
2999.19895,0.04474
2997.27021,0.04472
2995.34146,0.04464
2993.41272,0.04460
2991.48397,0.04446
2989.55523,0.04406
2987.62648,0.04384
2985.69774,0.04400
2983.76899,0.04407
2981.84025,0.04388
2979.91150,0.04368
2977.98275,0.04363
2976.05401,0.04368
2974.12526,0.04372
2972.19652,0.04366
2970.26777,0.04361
2968.33903,0.04368
2966.41028,0.04378
2964.48154,0.04380
2962.55279,0.04392
2960.62405,0.04428
2958.69530,0.04454
2956.76656,0.04460
2954.83781,0.04471
2952.90907,0.04486
2950.98032,0.04486
2949.05157,0.04472
2947.12283,0.04462
2945.19408,0.04462
2943.26534,0.04463
2941.33659,0.04492
2939.40785,0.04550
2937.47910,0.04571
2935.55036,0.04553
2933.62161,0.04559
2931.69287,0.04603
2929.76412,0.04658
2927.83538,0.04697
2925.90663,0.04720
2923.97789,0.04753
2922.04914,0.04792
2920.12040,0.04795
2918.19165,0.04780
2916.26290,0.04797
2914.33416,0.04820
2912.40541,0.04818
2910.47667,0.04812
2908.54792,0.04813
2906.61918,0.04816
2904.69043,0.04827
2902.76169,0.04833
2900.83294,0.04824
2898.90420,0.04808
2896.97545,0.04788
2895.04671,0.04766
2893.11796,0.04743
2891.18922,0.04730
2889.26047,0.04745
2887.33172,0.04773
2885.40298,0.04765
2883.47423,0.04727
2881.54549,0.04714
2879.61674,0.04739
2877.68800,0.04765
2875.75925,0.04776
2873.83051,0.04785
2871.90176,0.04802
2869.97302,0.04814
2868.04427,0.04792
2866.11553,0.04764
2864.18678,0.04783
2862.25804,0.04827
2860.32929,0.04851
2858.40055,0.04879
2856.47180,0.04917
2854.54305,0.04932
2852.61431,0.04934
2850.68556,0.04965
2848.75682,0.05011
2846.82807,0.05025
2844.89933,0.05005
2842.97058,0.04984
2841.04184,0.04965
2839.11309,0.04946
2837.18435,0.04944
2835.25560,0.04956
2833.32686,0.04956
2831.39811,0.04940
2829.46937,0.04911
2827.54062,0.04883
2825.61188,0.04875
2823.68313,0.04885
2821.75438,0.04895
2819.82564,0.04899
2817.89689,0.04905
2815.96815,0.04914
2814.03940,0.04920
2812.11066,0.04921
2810.18191,0.04919
2808.25317,0.04928
2806.32442,0.04939
2804.39568,0.04948
2802.46693,0.04968
2800.53819,0.04988
2798.60944,0.05002
2796.68070,0.05034
2794.75195,0.05080
2792.82320,0.05119
2790.89446,0.05141
2788.96571,0.05149
2787.03697,0.05154
2785.10822,0.05173
2783.17948,0.05203
2781.25073,0.05227
2779.32199,0.05252
2777.39324,0.05287
2775.46450,0.05310
2773.53575,0.05324
2771.60701,0.05348
2769.67826,0.05373
2767.74952,0.05390
2765.82077,0.05405
2763.89203,0.05404
2761.96328,0.05384
2760.03453,0.05369
2758.10579,0.05369
2756.17704,0.05373
2754.24830,0.05372
2752.31955,0.05357
2750.39081,0.05329
2748.46206,0.05309
2746.53332,0.05310
2744.60457,0.05311
2742.67583,0.05291
2740.74708,0.05259
2738.81834,0.05222
2736.88959,0.05188
2734.96085,0.05186
2733.03210,0.05221
2731.10336,0.05257
2729.17461,0.05300
2727.24586,0.05371
2725.31712,0.05455
2723.38837,0.05513
2721.45963,0.05542
2719.53088,0.05579
2717.60214,0.05633
2715.67339,0.05682
2713.74465,0.05711
2711.81590,0.05716
2709.88716,0.05724
2707.95841,0.05755
2706.02967,0.05801
2704.10092,0.05857
2702.17218,0.05903
2700.24343,0.05926
2698.31468,0.05937
2696.38594,0.05943
2694.45719,0.05947
2692.52845,0.05957
2690.59970,0.05975
2688.67096,0.05989
2686.74221,0.05995
2684.81347,0.05998
2682.88472,0.05995
2680.95598,0.05976
2679.02723,0.05937
2677.09849,0.05904
2675.16974,0.05897
2673.24100,0.05897
2671.31225,0.05897
2669.38351,0.05910
2667.45476,0.05930
2665.52601,0.05949
2663.59727,0.05978
2661.66852,0.06015
2659.73978,0.06063
2657.81103,0.06123
2655.88229,0.06184
2653.95354,0.06226
2652.02480,0.06248
2650.09605,0.06265
2648.16731,0.06283
2646.23856,0.06285
2644.30982,0.06255
2642.38107,0.06205
2640.45233,0.06153
2638.52358,0.06107
2636.59484,0.06071
2634.66609,0.06022
2632.73734,0.05951
2630.80860,0.05880
2628.87985,0.05823
2626.95111,0.05774
2625.02236,0.05727
2623.09362,0.05686
2621.16487,0.05647
2619.23613,0.05611
2617.30738,0.05574
2615.37864,0.05541
2613.44989,0.05515
2611.52115,0.05499
2609.59240,0.05495
2607.66366,0.05484
2605.73491,0.05436
2603.80616,0.05385
2601.87742,0.05375
2599.94867,0.05383
2598.01993,0.05381
2596.09118,0.05387
2594.16244,0.05401
2592.23369,0.05403
2590.30495,0.05382
2588.37620,0.05355
2586.44746,0.05342
2584.51871,0.05336
2582.58997,0.05321
2580.66122,0.05305
2578.73248,0.05290
2576.80373,0.05282
2574.87499,0.05293
2572.94624,0.05309
2571.01749,0.05307
2569.08875,0.05292
2567.16000,0.05281
2565.23126,0.05281
2563.30251,0.05293
2561.37377,0.05305
2559.44502,0.05308
2557.51628,0.05302
2555.58753,0.05287
2553.65879,0.05280
2551.73004,0.05297
2549.80130,0.05321
2547.87255,0.05316
2545.94381,0.05280
2544.01506,0.05241
2542.08631,0.05222
2540.15757,0.05221
2538.22882,0.05209
2536.30008,0.05181
2534.37133,0.05156
2532.44259,0.05140
2530.51384,0.05124
2528.58510,0.05103
2526.65635,0.05089
2524.72761,0.05088
2522.79886,0.05074
2520.87012,0.05044
2518.94137,0.05037
2517.01263,0.05055
2515.08388,0.05073
2513.15514,0.05089
2511.22639,0.05103
2509.29764,0.05100
2507.36890,0.05102
2505.44015,0.05133
2503.51141,0.05179
2501.58266,0.05220
2499.65392,0.05264
2497.72517,0.05305
2495.79643,0.05345
2493.86768,0.05404
2491.93894,0.05473
2490.01019,0.05528
2488.08145,0.05588
2486.15270,0.05665
2484.22396,0.05742
2482.29521,0.05818
2480.36647,0.05903
2478.43772,0.05999
2476.50897,0.06106
2474.58023,0.06216
2472.65148,0.06319
2470.72274,0.06412
2468.79399,0.06498
2466.86525,0.06576
2464.93650,0.06643
2463.00776,0.06698
2461.07901,0.06742
2459.15027,0.06775
2457.22152,0.06791
2455.29278,0.06800
2453.36403,0.06819
2451.43529,0.06841
2449.50654,0.06852
2447.57779,0.06856
2445.64905,0.06851
2443.72030,0.06839
2441.79156,0.06841
2439.86281,0.06860
2437.93407,0.06865
2436.00532,0.06844
2434.07658,0.06818
2432.14783,0.06797
2430.21909,0.06768
2428.29034,0.06731
2426.36160,0.06692
2424.43285,0.06650
2422.50411,0.06605
2420.57536,0.06556
2418.64662,0.06512
2416.71787,0.06489
2414.78912,0.06472
2412.86038,0.06436
2410.93163,0.06395
2409.00289,0.06368
2407.07414,0.06356
2405.14540,0.06348
2403.21665,0.06326
2401.28791,0.06296
2399.35916,0.06273
2397.43042,0.06247
2395.50167,0.06217
2393.57293,0.06195
2391.64418,0.06180
2389.71544,0.06165
2387.78669,0.06151
2385.85795,0.06144
2383.92920,0.06143
2382.00045,0.06142
2380.07171,0.06140
2378.14296,0.06139
2376.21422,0.06155
2374.28547,0.06198
2372.35673,0.06256
2370.42798,0.06313
2368.49924,0.06357
2366.57049,0.06394
2364.64175,0.06443
2362.71300,0.06508
2360.78426,0.06575
2358.85551,0.06638
2356.92677,0.06694
2354.99802,0.06740
2353.06927,0.06778
2351.14053,0.06822
2349.21178,0.06891
2347.28304,0.06971
2345.35429,0.07039
2343.42555,0.07097
2341.49680,0.07156
2339.56806,0.07234
2337.63931,0.07344
2335.71057,0.07454
2333.78182,0.07537
2331.85308,0.07593
2329.92433,0.07612
2327.99559,0.07593
2326.06684,0.07557
2324.13810,0.07529
2322.20935,0.07539
2320.28060,0.07593
2318.35186,0.07667
2316.42311,0.07737
2314.49437,0.07782
2312.56562,0.07794
2310.63688,0.07791
2308.70813,0.07783
2306.77939,0.07764
2304.85064,0.07729
2302.92190,0.07683
2300.99315,0.07644
2299.06441,0.07610
2297.13566,0.07563
2295.20692,0.07504
2293.27817,0.07444
2291.34943,0.07373
2289.42068,0.07276
2287.49193,0.07164
2285.56319,0.07058
2283.63444,0.06971
2281.70570,0.06907
2279.77695,0.06878
2277.84821,0.06886
2275.91946,0.06909
2273.99072,0.06929
2272.06197,0.06960
2270.13323,0.07011
2268.20448,0.07067
2266.27574,0.07113
2264.34699,0.07138
2262.41825,0.07145
2260.48950,0.07143
2258.56075,0.07125
2256.63201,0.07093
2254.70326,0.07060
2252.77452,0.07020
2250.84577,0.06968
2248.91703,0.06900
2246.98828,0.06821
2245.05954,0.06749
2243.13079,0.06682
2241.20205,0.06604
2239.27330,0.06521
2237.34456,0.06456
2235.41581,0.06423
2233.48707,0.06407
2231.55832,0.06396
2229.62958,0.06399
2227.70083,0.06411
2225.77208,0.06422
2223.84334,0.06434
2221.91459,0.06451
2219.98585,0.06471
2218.05710,0.06489
2216.12836,0.06496
2214.19961,0.06490
2212.27087,0.06482
2210.34212,0.06487
2208.41338,0.06507
2206.48463,0.06556
2204.55589,0.06646
2202.62714,0.06764
2200.69840,0.06887
2198.76965,0.07003
2196.84090,0.07114
2194.91216,0.07213
2192.98341,0.07294
2191.05467,0.07362
2189.12592,0.07427
2187.19718,0.07498
2185.26843,0.07586
2183.33969,0.07670
2181.41094,0.07729
2179.48220,0.07780
2177.55345,0.07823
2175.62471,0.07843
2173.69596,0.07866
2171.76722,0.07899
2169.83847,0.07913
2167.90973,0.07899
2165.98098,0.07861
2164.05223,0.07809
2162.12349,0.07772
2160.19474,0.07741
2158.26600,0.07701
2156.33725,0.07660
2154.40851,0.07614
2152.47976,0.07560
2150.55102,0.07494
2148.62227,0.07412
2146.69353,0.07339
2144.76478,0.07285
2142.83604,0.07241
2140.90729,0.07224
2138.97855,0.07232
2137.04980,0.07240
2135.12106,0.07256
2133.19231,0.07283
2131.26356,0.07298
2129.33482,0.07303
2127.40607,0.07321
2125.47733,0.07352
2123.54858,0.07398
2121.61984,0.07451
2119.69109,0.07482
2117.76235,0.07489
2115.83360,0.07497
2113.90486,0.07517
2111.97611,0.07542
2110.04737,0.07557
2108.11862,0.07567
2106.18988,0.07584
2104.26113,0.07596
2102.33238,0.07587
2100.40364,0.07578
2098.47489,0.07583
2096.54615,0.07586
2094.61740,0.07583
2092.68866,0.07575
2090.75991,0.07561
2088.83117,0.07553
2086.90242,0.07546
2084.97368,0.07516
2083.04493,0.07475
2081.11619,0.07452
2079.18744,0.07445
2077.25870,0.07421
2075.32995,0.07378
2073.40121,0.07351
2071.47246,0.07350
2069.54371,0.07349
2067.61497,0.07340
2065.68622,0.07336
2063.75748,0.07349
2061.82873,0.07380
2059.89999,0.07431
2057.97124,0.07476
2056.04250,0.07500
2054.11375,0.07521
2052.18501,0.07550
2050.25626,0.07580
2048.32752,0.07615
2046.39877,0.07651
2044.47003,0.07674
2042.54128,0.07687
2040.61254,0.07702
2038.68379,0.07737
2036.75504,0.07791
2034.82630,0.07835
2032.89755,0.07851
2030.96881,0.07853
2029.04006,0.07867
2027.11132,0.07904
2025.18257,0.07958
2023.25383,0.08009
2021.32508,0.08049
2019.39634,0.08087
2017.46759,0.08121
2015.53885,0.08144
2013.61010,0.08150
2011.68136,0.08143
2009.75261,0.08132
2007.82386,0.08112
2005.89512,0.08088
2003.96637,0.08060
2002.03763,0.08026
2000.10888,0.07989
1998.18014,0.07933
1996.25139,0.07841
1994.32265,0.07734
1992.39390,0.07621
1990.46516,0.07513
1988.53641,0.07441
1986.60767,0.07402
1984.67892,0.07362
1982.75018,0.07319
1980.82143,0.07278
1978.89269,0.07230
1976.96394,0.07170
1975.03519,0.07095
1973.10645,0.06994
1971.17770,0.06871
1969.24896,0.06738
1967.32021,0.06584
1965.39147,0.06400
1963.46272,0.06211
1961.53398,0.06048
1959.60523,0.05913
1957.67649,0.05773
1955.74774,0.05616
1953.81900,0.05465
1951.89025,0.05355
1949.96151,0.05305
1948.03276,0.05318
1946.10402,0.05387
1944.17527,0.05493
1942.24652,0.05616
1940.31778,0.05745
1938.38903,0.05877
1936.46029,0.06014
1934.53154,0.06160
1932.60280,0.06307
1930.67405,0.06435
1928.74531,0.06542
1926.81656,0.06632
1924.88782,0.06709
1922.95907,0.06780
1921.03033,0.06848
1919.10158,0.06896
1917.17284,0.06915
1915.24409,0.06926
1913.31534,0.06948
1911.38660,0.06970
1909.45785,0.06975
1907.52911,0.06967
1905.60036,0.06966
1903.67162,0.06972
1901.74287,0.06975
1899.81413,0.06978
1897.88538,0.06981
1895.95664,0.06973
1894.02789,0.06960
1892.09915,0.06964
1890.17040,0.06986
1888.24166,0.07002
1886.31291,0.07005
1884.38417,0.07007
1882.45542,0.07013
1880.52667,0.07015
1878.59793,0.07011
1876.66918,0.07005
1874.74044,0.06988
1872.81169,0.06945
1870.88295,0.06882
1868.95420,0.06811
1867.02546,0.06742
1865.09671,0.06690
1863.16797,0.06651
1861.23922,0.06596
1859.31048,0.06511
1857.38173,0.06405
1855.45299,0.06288
1853.52424,0.06176
1851.59549,0.06080
1849.66675,0.05977
1847.73800,0.05854
1845.80926,0.05736
1843.88051,0.05639
1841.95177,0.05544
1840.02302,0.05433
1838.09428,0.05318
1836.16553,0.05212
1834.23679,0.05099
1832.30804,0.04977
1830.37930,0.04865
1828.45055,0.04771
1826.52181,0.04701
1824.59306,0.04655
1822.66432,0.04622
1820.73557,0.04592
1818.80682,0.04570
1816.87808,0.04559
1814.94933,0.04545
1813.02059,0.04520
1811.09184,0.04484
1809.16310,0.04435
1807.23435,0.04377
1805.30561,0.04317
1803.37686,0.04258
1801.44812,0.04198
1799.51937,0.04140
1797.59063,0.04087
1795.66188,0.04042
1793.73314,0.04018
1791.80439,0.04018
1789.87565,0.04033
1787.94690,0.04052
1786.01815,0.04054
1784.08941,0.04040
1782.16066,0.04022
1780.23192,0.03998
1778.30317,0.03973
1776.37443,0.03951
1774.44568,0.03921
1772.51694,0.03874
1770.58819,0.03826
1768.65945,0.03788
1766.73070,0.03749
1764.80196,0.03704
1762.87321,0.03656
1760.94447,0.03605
1759.01572,0.03552
1757.08697,0.03497
1755.15823,0.03449
1753.22948,0.03415
1751.30074,0.03377
1749.37199,0.03330
1747.44325,0.03283
1745.51450,0.03252
1743.58576,0.03246
1741.65701,0.03260
1739.72827,0.03307
1737.79952,0.03393
1735.87078,0.03513
1733.94203,0.03662
1732.01329,0.03831
1730.08454,0.04022
1728.15580,0.04236
1726.22705,0.04456
1724.29830,0.04669
1722.36956,0.04857
1720.44081,0.04998
1718.51207,0.05105
1716.58332,0.05190
1714.65458,0.05250
1712.72583,0.05280
1710.79709,0.05286
1708.86834,0.05281
1706.93960,0.05259
1705.01085,0.05220
1703.08211,0.05186
1701.15336,0.05156
1699.22462,0.05128
1697.29587,0.05106
1695.36713,0.05071
1693.43838,0.05043
1691.50963,0.05035
1689.58089,0.05022
1687.65214,0.05005
1685.72340,0.04989
1683.79465,0.04961
1681.86591,0.04932
1679.93716,0.04921
1678.00842,0.04915
1676.07967,0.04903
1674.15093,0.04893
1672.22218,0.04898
1670.29344,0.04900
1668.36469,0.04876
1666.43595,0.04852
1664.50720,0.04856
1662.57845,0.04874
1660.64971,0.04883
1658.72096,0.04894
1656.79222,0.04927
1654.86347,0.04976
1652.93473,0.05001
1651.00598,0.05005
1649.07724,0.05020
1647.14849,0.05028
1645.21975,0.05024
1643.29100,0.05023
1641.36226,0.05015
1639.43351,0.05006
1637.50477,0.04999
1635.57602,0.04983
1633.64728,0.04966
1631.71853,0.04961
1629.78978,0.04965
1627.86104,0.04974
1625.93229,0.04971
1624.00355,0.04949
1622.07480,0.04942
1620.14606,0.04951
1618.21731,0.04940
1616.28857,0.04893
1614.35982,0.04847
1612.43108,0.04826
1610.50233,0.04806
1608.57359,0.04791
1606.64484,0.04795
1604.71610,0.04801
1602.78735,0.04807
1600.85861,0.04816
1598.92986,0.04833
1597.00111,0.04860
1595.07237,0.04879
1593.14362,0.04883
1591.21488,0.04869
1589.28613,0.04835
1587.35739,0.04780
1585.42864,0.04705
1583.49990,0.04619
1581.57115,0.04551
1579.64241,0.04511
1577.71366,0.04488
1575.78492,0.04484
1573.85617,0.04526
1571.92743,0.04612
1569.99868,0.04725
1568.06993,0.04835
1566.14119,0.04914
1564.21244,0.04979
1562.28370,0.05052
1560.35495,0.05127
1558.42621,0.05176
1556.49746,0.05200
1554.56872,0.05226
1552.63997,0.05249
1550.71123,0.05254
1548.78248,0.05249
1546.85374,0.05245
1544.92499,0.05242
1542.99625,0.05228
1541.06750,0.05179
1539.13876,0.05080
1537.21001,0.04980
1535.28126,0.04906
1533.35252,0.04819
1531.42377,0.04723
1529.49503,0.04655
1527.56628,0.04628
1525.63754,0.04635
1523.70879,0.04655
1521.78005,0.04662
1519.85130,0.04650
1517.92256,0.04618
1515.99381,0.04569
1514.06507,0.04524
1512.13632,0.04501
1510.20758,0.04495
1508.27883,0.04477
1506.35008,0.04434
1504.42134,0.04415
1502.49259,0.04433
1500.56385,0.04462
1498.63510,0.04491
1496.70636,0.04514
1494.77761,0.04529
1492.84887,0.04526
1490.92012,0.04489
1488.99138,0.04413
1487.06263,0.04335
1485.13389,0.04288
1483.20514,0.04268
1481.27640,0.04250
1479.34765,0.04214
1477.41891,0.04170
1475.49016,0.04145
1473.56141,0.04142
1471.63267,0.04134
1469.70392,0.04117
1467.77518,0.04113
1465.84643,0.04132
1463.91769,0.04164
1461.98894,0.04196
1460.06020,0.04236
1458.13145,0.04290
1456.20271,0.04324
1454.27396,0.04337
1452.34522,0.04354
1450.41647,0.04370
1448.48773,0.04375
1446.55898,0.04368
1444.63024,0.04369
1442.70149,0.04394
1440.77274,0.04421
1438.84400,0.04431
1436.91525,0.04429
1434.98651,0.04416
1433.05776,0.04393
1431.12902,0.04377
1429.20027,0.04375
1427.27153,0.04363
1425.34278,0.04331
1423.41404,0.04306
1421.48529,0.04296
1419.55655,0.04285
1417.62780,0.04273
1415.69906,0.04260
1413.77031,0.04239
1411.84156,0.04219
1409.91282,0.04214
1407.98407,0.04204
1406.05533,0.04181
1404.12658,0.04153
1402.19784,0.04123
1400.26909,0.04100
1398.34035,0.04083
1396.41160,0.04064
1394.48286,0.04042
1392.55411,0.04030
1390.62537,0.04021
1388.69662,0.04008
1386.76788,0.04000
1384.83913,0.04003
1382.91039,0.04011
1380.98164,0.04025
1379.05289,0.04043
1377.12415,0.04069
1375.19540,0.04110
1373.26666,0.04139
1371.33791,0.04136
1369.40917,0.04119
1367.48042,0.04103
1365.55168,0.04083
1363.62293,0.04063
1361.69419,0.04043
1359.76544,0.04026
1357.83670,0.04022
1355.90795,0.04021
1353.97921,0.04008
1352.05046,0.03989
1350.12172,0.03968
1348.19297,0.03952
1346.26422,0.03941
1344.33548,0.03923
1342.40673,0.03891
1340.47799,0.03851
1338.54924,0.03814
1336.62050,0.03801
1334.69175,0.03810
1332.76301,0.03819
1330.83426,0.03818
1328.90552,0.03807
1326.97677,0.03782
1325.04803,0.03754
1323.11928,0.03743
1321.19054,0.03742
1319.26179,0.03722
1317.33304,0.03682
1315.40430,0.03655
1313.47555,0.03638
1311.54681,0.03606
1309.61806,0.03569
1307.68932,0.03545
1305.76057,0.03537
1303.83183,0.03540
1301.90308,0.03543
1299.97434,0.03546
1298.04559,0.03541
1296.11685,0.03519
1294.18810,0.03501
1292.25936,0.03501
1290.33061,0.03509
1288.40187,0.03521
1286.47312,0.03529
1284.54437,0.03526
1282.61563,0.03537
1280.68688,0.03582
1278.75814,0.03643
1276.82939,0.03711
1274.90065,0.03800
1272.97190,0.03903
1271.04316,0.03996
1269.11441,0.04070
1267.18567,0.04135
1265.25692,0.04185
1263.32818,0.04201
1261.39943,0.04176
1259.47069,0.04148
1257.54194,0.04152
1255.61320,0.04169
1253.68445,0.04185
1251.75570,0.04212
1249.82696,0.04252
1247.89821,0.04291
1245.96947,0.04317
1244.04072,0.04343
1242.11198,0.04373
1240.18323,0.04391
1238.25449,0.04379
1236.32574,0.04349
1234.39700,0.04339
1232.46825,0.04356
1230.53951,0.04375
1228.61076,0.04377
1226.68202,0.04359
1224.75327,0.04340
1222.82452,0.04336
1220.89578,0.04341
1218.96703,0.04347
1217.03829,0.04354
1215.10954,0.04360
1213.18080,0.04352
1211.25205,0.04332
1209.32331,0.04328
1207.39456,0.04344
1205.46582,0.04355
1203.53707,0.04349
1201.60833,0.04337
1199.67958,0.04327
1197.75084,0.04319
1195.82209,0.04318
1193.89335,0.04321
1191.96460,0.04303
1190.03585,0.04270
1188.10711,0.04258
1186.17836,0.04264
1184.24962,0.04257
1182.32087,0.04238
1180.39213,0.04231
1178.46338,0.04234
1176.53464,0.04247
1174.60589,0.04263
1172.67715,0.04274
1170.74840,0.04292
1168.81966,0.04313
1166.89091,0.04334
1164.96217,0.04363
1163.03342,0.04411
1161.10467,0.04480
1159.17593,0.04564
1157.24718,0.04651
1155.31844,0.04714
1153.38969,0.04726
1151.46095,0.04723
1149.53220,0.04754
1147.60346,0.04823
1145.67471,0.04900
1143.74597,0.04951
1141.81722,0.04977
1139.88848,0.05001
1137.95973,0.05013
1136.03099,0.05011
1134.10224,0.05044
1132.17350,0.05130
1130.24475,0.05209
1128.31600,0.05248
1126.38726,0.05292
1124.45851,0.05375
1122.52977,0.05480
1120.60102,0.05594
1118.67228,0.05732
1116.74353,0.05891
1114.81479,0.06049
1112.88604,0.06198
1110.95730,0.06327
1109.02855,0.06411
1107.09981,0.06471
1105.17106,0.06574
1103.24232,0.06732
1101.31357,0.06880
1099.38483,0.06961
1097.45608,0.06991
1095.52733,0.07013
1093.59859,0.07034
1091.66984,0.07049
1089.74110,0.07067
1087.81235,0.07100
1085.88361,0.07153
1083.95486,0.07194
1082.02612,0.07205
1080.09737,0.07237
1078.16863,0.07317
1076.23988,0.07396
1074.31114,0.07442
1072.38239,0.07484
1070.45365,0.07533
1068.52490,0.07563
1066.59615,0.07564
1064.66741,0.07545
1062.73866,0.07520
1060.80992,0.07512
1058.88117,0.07523
1056.95243,0.07520
1055.02368,0.07477
1053.09494,0.07414
1051.16619,0.07374
1049.23745,0.07358
1047.30870,0.07346
1045.37996,0.07329
1043.45121,0.07306
1041.52247,0.07292
1039.59372,0.07288
1037.66498,0.07281
1035.73623,0.07268
1033.80748,0.07235
1031.87874,0.07175
1029.94999,0.07109
1028.02125,0.07037
1026.09250,0.06955
1024.16376,0.06881
1022.23501,0.06834
1020.30627,0.06822
1018.37752,0.06821
1016.44878,0.06790
1014.52003,0.06729
1012.59129,0.06668
1010.66254,0.06618
1008.73380,0.06570
1006.80505,0.06519
1004.87631,0.06461
1002.94756,0.06398
1001.01881,0.06333
999.09007,0.06286
997.16132,0.06259
995.23258,0.06234
993.30383,0.06200
991.37509,0.06155
989.44634,0.06100
987.51760,0.06062
985.58885,0.06061
983.66011,0.06066
981.73136,0.06051
979.80262,0.06023
977.87387,0.06009
975.94513,0.06018
974.01638,0.06037
972.08763,0.06038
970.15889,0.06017
968.23014,0.06011
966.30140,0.06035
964.37265,0.06039
962.44391,0.06009
960.51516,0.05989
958.58642,0.06004
956.65767,0.06028
954.72893,0.06038
952.80018,0.06029
950.87144,0.06003
948.94269,0.05989
947.01395,0.06001
945.08520,0.06005
943.15646,0.05993
941.22771,0.05997
939.29896,0.06015
937.37022,0.06019
935.44147,0.06006
933.51273,0.05984
931.58398,0.05962
929.65524,0.05969
927.72649,0.05999
925.79775,0.06012
923.86900,0.06008
921.94026,0.05996
920.01151,0.05963
918.08277,0.05918
916.15402,0.05882
914.22528,0.05862
912.29653,0.05856
910.36779,0.05841
908.43904,0.05802
906.51029,0.05758
904.58155,0.05745
902.65280,0.05759
900.72406,0.05782
898.79531,0.05811
896.86657,0.05821
894.93782,0.05798
893.00908,0.05771
891.08033,0.05744
889.15159,0.05714
887.22284,0.05690
885.29410,0.05671
883.36535,0.05654
881.43661,0.05637
879.50786,0.05621
877.57911,0.05620
875.65037,0.05642
873.72162,0.05668
871.79288,0.05677
869.86413,0.05657
867.93539,0.05621
866.00664,0.05611
864.07790,0.05607
862.14915,0.05575
860.22041,0.05540
858.29166,0.05521
856.36292,0.05511
854.43417,0.05502
852.50543,0.05491
850.57668,0.05472
848.64794,0.05445
846.71919,0.05418
844.79044,0.05409
842.86170,0.05423
840.93295,0.05443
839.00421,0.05449
837.07546,0.05441
835.14672,0.05430
833.21797,0.05408
831.28923,0.05382
829.36048,0.05389
827.43174,0.05430
825.50299,0.05465
823.57425,0.05459
821.64550,0.05418
819.71676,0.05377
817.78801,0.05373
815.85926,0.05425
813.93052,0.05493
812.00177,0.05521
810.07303,0.05515
808.14428,0.05505
806.21554,0.05498
804.28679,0.05492
802.35805,0.05504
800.42930,0.05540
798.50056,0.05557
796.57181,0.05535
794.64307,0.05512
792.71432,0.05511
790.78558,0.05512
788.85683,0.05495
786.92809,0.05463
784.99934,0.05453
783.07059,0.05488
781.14185,0.05511
779.21310,0.05496
777.28436,0.05471
775.35561,0.05459
773.42687,0.05501
771.49812,0.05564
769.56938,0.05569
767.64063,0.05528
765.71189,0.05482
763.78314,0.05437
761.85440,0.05419
759.92565,0.05416
757.99691,0.05396
756.06816,0.05374
754.13942,0.05368
752.21067,0.05368
750.28192,0.05370
748.35318,0.05378
746.42443,0.05396
744.49569,0.05420
742.56694,0.05413
740.63820,0.05359
738.70945,0.05292
736.78071,0.05249
734.85196,0.05271
732.92322,0.05370
730.99447,0.05500
729.06573,0.05583
727.13698,0.05587
725.20824,0.05557
723.27949,0.05536
721.35074,0.05515
719.42200,0.05469
717.49325,0.05407
715.56451,0.05355
713.63576,0.05324
711.70702,0.05341
709.77827,0.05404
707.84953,0.05441
705.92078,0.05430
703.99204,0.05412
702.06329,0.05396
700.13455,0.05376
698.20580,0.05351
696.27706,0.05296
694.34831,0.05233
692.41957,0.05218
690.49082,0.05243
688.56207,0.05262
686.63333,0.05251
684.70458,0.05229
682.77584,0.05220
680.84709,0.05220
678.91835,0.05218
676.98960,0.05192
675.06086,0.05162
673.13211,0.05161
671.20337,0.05177
669.27462,0.05227
667.34588,0.05300
665.41713,0.05312
663.48839,0.05246
661.55964,0.05191
659.63090,0.05184
657.70215,0.05176
655.77340,0.05155
653.84466,0.05142
651.91591,0.05121
649.98717,0.05071
648.05842,0.05026
646.12968,0.05020
644.20093,0.05015
642.27219,0.04980
640.34344,0.04944
638.41470,0.04953
636.48595,0.04988
634.55721,0.05007
632.62846,0.05067
630.69972,0.05145
628.77097,0.05075
626.84222,0.04882
624.91348,0.04806
622.98473,0.04894
621.05599,0.04986
619.12724,0.05040
617.19850,0.05071
615.26975,0.05023
613.34101,0.04940
611.41226,0.04921
609.48352,0.04927
607.55477,0.04909
605.62603,0.04938
603.69728,0.04997
601.76854,0.04985
599.83979,0.04918
