7497.03301,0.17191
7495.10426,0.17162
7493.17552,0.16884
7491.24677,0.16673
7489.31803,0.16604
7487.38928,0.16684
7485.46054,0.16888
7483.53179,0.17073
7481.60305,0.17106
7479.67430,0.17015
7477.74556,0.16954
7475.81681,0.17075
7473.88807,0.17241
7471.95932,0.17215
7470.03057,0.17115
7468.10183,0.17155
7466.17308,0.17370
7464.24434,0.17708
7462.31559,0.17884
7460.38685,0.17656
7458.45810,0.17170
7456.52936,0.16842
7454.60061,0.16828
7452.67187,0.16780
7450.74312,0.16628
7448.81438,0.16748
7446.88563,0.16891
7444.95689,0.16630
7443.02814,0.16288
7441.09940,0.16232
7439.17065,0.16247
7437.24190,0.16040
7435.31316,0.15865
7433.38441,0.16321
7431.45567,0.17216
7429.52692,0.17504
7427.59818,0.17038
7425.66943,0.16845
7423.74069,0.17256
7421.81194,0.17678
7419.88320,0.17620
7417.95445,0.17161
7416.02571,0.16723
7414.09696,0.16539
7412.16822,0.16499
7410.23947,0.16311
7408.31073,0.16191
7406.38198,0.16691
7404.45323,0.17334
7402.52449,0.17499
7400.59574,0.17520
7398.66700,0.17469
7396.73825,0.17181
7394.80951,0.17148
7392.88076,0.17517
7390.95202,0.17662
7389.02327,0.17265
7387.09453,0.16724
7385.16578,0.16672
7383.23704,0.17363
7381.30829,0.18155
7379.37955,0.18110
7377.45080,0.17410
7375.52205,0.17136
7373.59331,0.17414
7371.66456,0.17368
7369.73582,0.16923
7367.80707,0.16809
7365.87833,0.16987
7363.94958,0.16964
7362.02084,0.16992
7360.09209,0.17379
7358.16335,0.17682
7356.23460,0.17663
7354.30586,0.17820
7352.37711,0.18193
7350.44837,0.18091
7348.51962,0.17588
7346.59088,0.17297
7344.66213,0.17288
7342.73338,0.17350
7340.80464,0.17358
7338.87589,0.17337
7336.94715,0.17410
7335.01840,0.17573
7333.08966,0.17697
7331.16091,0.17671
7329.23217,0.17569
7327.30342,0.17446
7325.37468,0.17388
7323.44593,0.17524
7321.51719,0.17714
7319.58844,0.17812
7317.65970,0.17941
7315.73095,0.18161
7313.80221,0.18201
7311.87346,0.17913
7309.94471,0.17692
7308.01597,0.17764
7306.08722,0.17810
7304.15848,0.17772
7302.22973,0.17820
7300.30099,0.17798
7298.37224,0.17617
7296.44350,0.17494
7294.51475,0.17628
7292.58601,0.17803
7290.65726,0.17662
7288.72852,0.17433
7286.79977,0.17418
7284.87103,0.17388
7282.94228,0.17249
7281.01353,0.17299
7279.08479,0.17609
7277.15604,0.17903
7275.22730,0.18026
7273.29855,0.17946
7271.36981,0.17761
7269.44106,0.17575
7267.51232,0.17378
7265.58357,0.17314
7263.65483,0.17554
7261.72608,0.18093
7259.79734,0.18591
7257.86859,0.18562
7255.93985,0.18133
7254.01110,0.17829
7252.08236,0.17921
7250.15361,0.18216
7248.22486,0.18218
7246.29612,0.17695
7244.36737,0.17096
7242.43863,0.16915
7240.50988,0.16971
7238.58114,0.17048
7236.65239,0.17228
7234.72365,0.17347
7232.79490,0.17359
7230.86616,0.17386
7228.93741,0.17267
7227.00867,0.16995
7225.07992,0.16796
7223.15118,0.16711
7221.22243,0.16834
7219.29369,0.17214
7217.36494,0.17571
7215.43619,0.17739
7213.50745,0.17839
7211.57870,0.17875
7209.64996,0.17765
7207.72121,0.17619
7205.79247,0.17675
7203.86372,0.18061
7201.93498,0.18404
7200.00623,0.18194
7198.07749,0.17791
7196.14874,0.17838
7194.22000,0.18093
7192.29125,0.18024
7190.36251,0.17697
7188.43376,0.17278
7186.50501,0.16891
7184.57627,0.16868
7182.64752,0.17147
7180.71878,0.17388
7178.79003,0.17603
7176.86129,0.17800
7174.93254,0.17831
7173.00380,0.17661
7171.07505,0.17366
7169.14631,0.17032
7167.21756,0.16901
7165.28882,0.17068
7163.36007,0.17155
7161.43133,0.17164
7159.50258,0.17400
7157.57384,0.17722
7155.64509,0.18174
7153.71634,0.18679
7151.78760,0.18706
7149.85885,0.18412
7147.93011,0.18204
7146.00136,0.17979
7144.07262,0.17700
7142.14387,0.17409
7140.21513,0.17306
7138.28638,0.17590
7136.35764,0.17903
7134.42889,0.18064
7132.50015,0.18268
7130.57140,0.18346
7128.64266,0.18120
7126.71391,0.17907
7124.78516,0.18001
7122.85642,0.18137
7120.92767,0.18174
7118.99893,0.18282
7117.07018,0.18299
7115.14144,0.18191
7113.21269,0.18128
7111.28395,0.17991
7109.35520,0.17921
7107.42646,0.18094
7105.49771,0.18170
7103.56897,0.18056
7101.64022,0.18075
7099.71148,0.18228
7097.78273,0.18207
7095.85399,0.17970
7093.92524,0.17846
7091.99649,0.17961
7090.06775,0.18055
7088.13900,0.18044
7086.21026,0.18099
7084.28151,0.18087
7082.35277,0.17807
7080.42402,0.17517
7078.49528,0.17571
7076.56653,0.17838
7074.63779,0.17930
7072.70904,0.17825
7070.78030,0.17791
7068.85155,0.17856
7066.92281,0.17890
7064.99406,0.17869
7063.06532,0.17897
7061.13657,0.18019
7059.20782,0.18066
7057.27908,0.17947
7055.35033,0.17860
7053.42159,0.17997
7051.49284,0.18363
7049.56410,0.18617
7047.63535,0.18394
7045.70661,0.17997
7043.77786,0.17873
7041.84912,0.17933
7039.92037,0.17962
7037.99163,0.17998
7036.06288,0.18134
7034.13414,0.18212
7032.20539,0.18074
7030.27664,0.17937
7028.34790,0.18040
7026.41915,0.18136
7024.49041,0.17892
7022.56166,0.17543
7020.63292,0.17404
7018.70417,0.17368
7016.77543,0.17284
7014.84668,0.17281
7012.91794,0.17452
7010.98919,0.17662
7009.06045,0.17902
7007.13170,0.18053
7005.20296,0.17891
7003.27421,0.17565
7001.34547,0.17382
6999.41672,0.17409
6997.48797,0.17461
6995.55923,0.17474
6993.63048,0.17589
6991.70174,0.17802
6989.77299,0.18072
6987.84425,0.18381
6985.91550,0.18554
6983.98676,0.18376
6982.05801,0.17993
6980.12927,0.17628
6978.20052,0.17319
6976.27178,0.17330
6974.34303,0.17808
6972.41429,0.18210
6970.48554,0.18110
6968.55680,0.17850
6966.62805,0.17760
6964.69930,0.17779
6962.77056,0.17913
6960.84181,0.18100
6958.91307,0.18083
6956.98432,0.17811
6955.05558,0.17586
6953.12683,0.17515
6951.19809,0.17504
6949.26934,0.17775
6947.34060,0.18234
6945.41185,0.18300
6943.48311,0.18098
6941.55436,0.18137
6939.62562,0.18266
6937.69687,0.18259
6935.76812,0.18159
6933.83938,0.17917
6931.91063,0.17758
6929.98189,0.17854
6928.05314,0.18009
6926.12440,0.18228
6924.19565,0.18458
6922.26691,0.18430
6920.33816,0.18180
6918.40942,0.18012
6916.48067,0.18011
6914.55193,0.17955
6912.62318,0.17831
6910.69444,0.17885
6908.76569,0.18138
6906.83695,0.18375
6904.90820,0.18400
6902.97945,0.18094
6901.05071,0.17737
6899.12196,0.17867
6897.19322,0.18297
6895.26447,0.18431
6893.33573,0.18356
6891.40698,0.18353
6889.47824,0.18318
6887.54949,0.18206
6885.62075,0.18112
6883.69200,0.18120
6881.76326,0.18289
6879.83451,0.18408
6877.90577,0.18354
6875.97702,0.18371
6874.04828,0.18442
6872.11953,0.18480
6870.19078,0.18616
6868.26204,0.18721
6866.33329,0.18668
6864.40455,0.18560
6862.47580,0.18461
6860.54706,0.18443
6858.61831,0.18412
6856.68957,0.18228
6854.76082,0.18131
6852.83208,0.18283
6850.90333,0.18408
6848.97459,0.18282
6847.04584,0.18124
6845.11710,0.18259
6843.18835,0.18598
6841.25960,0.18762
6839.33086,0.18630
6837.40211,0.18477
6835.47337,0.18533
6833.54462,0.18741
6831.61588,0.18990
6829.68713,0.19054
6827.75839,0.18792
6825.82964,0.18545
6823.90090,0.18554
6821.97215,0.18653
6820.04341,0.18799
6818.11466,0.18939
6816.18592,0.18893
6814.25717,0.18766
6812.32843,0.18741
6810.39968,0.18740
6808.47093,0.18721
6806.54219,0.18799
6804.61344,0.18982
6802.68470,0.19066
6800.75595,0.18923
6798.82721,0.18648
6796.89846,0.18384
6794.96972,0.18281
6793.04097,0.18354
6791.11223,0.18487
6789.18348,0.18742
6787.25474,0.19010
6785.32599,0.19000
6783.39725,0.18871
6781.46850,0.18877
6779.53975,0.18860
6777.61101,0.18719
6775.68226,0.18637
6773.75352,0.18680
6771.82477,0.18785
6769.89603,0.18977
6767.96728,0.19096
6766.03854,0.18907
6764.10979,0.18580
6762.18105,0.18480
6760.25230,0.18659
6758.32356,0.18925
6756.39481,0.19076
6754.46607,0.19060
6752.53732,0.19032
6750.60858,0.18942
6748.67983,0.18667
6746.75108,0.18491
6744.82234,0.18620
6742.89359,0.18846
6740.96485,0.18849
6739.03610,0.18702
6737.10736,0.18800
6735.17861,0.19063
6733.24987,0.19128
6731.32112,0.19025
6729.39238,0.18920
6727.46363,0.18875
6725.53489,0.18908
6723.60614,0.18929
6721.67740,0.18855
6719.74865,0.18785
6717.81991,0.18792
6715.89116,0.18708
6713.96241,0.18464
6712.03367,0.18309
6710.10492,0.18443
6708.17618,0.18718
6706.24743,0.18821
6704.31869,0.18748
6702.38994,0.18693
6700.46120,0.18655
6698.53245,0.18687
6696.60371,0.18926
6694.67496,0.19212
6692.74622,0.19267
6690.81747,0.19118
6688.88873,0.18974
6686.95998,0.18922
6685.03123,0.18988
6683.10249,0.19095
6681.17374,0.19067
6679.24500,0.19046
6677.31625,0.19248
6675.38751,0.19458
6673.45876,0.19419
6671.53002,0.19199
6669.60127,0.19066
6667.67253,0.19148
6665.74378,0.19224
6663.81504,0.19180
6661.88629,0.19223
6659.95755,0.19408
6658.02880,0.19572
6656.10006,0.19582
6654.17131,0.19439
6652.24256,0.19270
6650.31382,0.19217
6648.38507,0.19319
6646.45633,0.19429
6644.52758,0.19397
6642.59884,0.19282
6640.67009,0.19274
6638.74135,0.19426
6636.81260,0.19578
6634.88386,0.19667
6632.95511,0.19678
6631.02637,0.19533
6629.09762,0.19319
6627.16888,0.19235
6625.24013,0.19381
6623.31139,0.19702
6621.38264,0.19949
6619.45389,0.19913
6617.52515,0.19732
6615.59640,0.19689
6613.66766,0.19772
6611.73891,0.19793
6609.81017,0.19748
6607.88142,0.19686
6605.95268,0.19610
6604.02393,0.19646
6602.09519,0.19793
6600.16644,0.19858
6598.23770,0.19807
6596.30895,0.19727
6594.38021,0.19706
6592.45146,0.19789
6590.52271,0.19928
6588.59397,0.19970
6586.66522,0.19838
6584.73648,0.19715
6582.80773,0.19628
6580.87899,0.19452
6578.95024,0.19337
6577.02150,0.19373
6575.09275,0.19498
6573.16401,0.19663
6571.23526,0.19808
6569.30652,0.19962
6567.37777,0.20062
6565.44903,0.20048
6563.52028,0.20034
6561.59154,0.19991
6559.66279,0.19861
6557.73404,0.19838
6555.80530,0.20014
6553.87655,0.20155
6551.94781,0.20075
6550.01906,0.19897
6548.09032,0.19787
6546.16157,0.19662
6544.23283,0.19436
6542.30408,0.19339
6540.37534,0.19590
6538.44659,0.19996
6536.51785,0.20241
6534.58910,0.20297
6532.66036,0.20251
6530.73161,0.20145
6528.80287,0.20075
6526.87412,0.20074
6524.94537,0.20116
6523.01663,0.20226
6521.08788,0.20363
6519.15914,0.20436
6517.23039,0.20420
6515.30165,0.20257
6513.37290,0.19958
6511.44416,0.19780
6509.51541,0.19863
6507.58667,0.20034
6505.65792,0.20066
6503.72918,0.20026
6501.80043,0.20148
6499.87169,0.20277
6497.94294,0.20209
6496.01419,0.20121
6494.08545,0.20126
6492.15670,0.20128
6490.22796,0.20074
6488.29921,0.20076
6486.37047,0.20170
6484.44172,0.20253
6482.51298,0.20282
6480.58423,0.20258
6478.65549,0.20244
6476.72674,0.20310
6474.79800,0.20352
6472.86925,0.20306
6470.94051,0.20323
6469.01176,0.20492
6467.08302,0.20597
6465.15427,0.20465
6463.22552,0.20255
6461.29678,0.20162
6459.36803,0.20229
6457.43929,0.20337
6455.51054,0.20347
6453.58180,0.20293
6451.65305,0.20212
6449.72431,0.20110
6447.79556,0.20146
6445.86682,0.20397
6443.93807,0.20631
6442.00933,0.20610
6440.08058,0.20478
6438.15184,0.20511
6436.22309,0.20652
6434.29434,0.20717
6432.36560,0.20655
6430.43685,0.20465
6428.50811,0.20339
6426.57936,0.20482
6424.65062,0.20626
6422.72187,0.20461
6420.79313,0.20237
6418.86438,0.20321
6416.93564,0.20598
6415.00689,0.20740
6413.07815,0.20687
6411.14940,0.20564
6409.22066,0.20450
6407.29191,0.20429
6405.36317,0.20543
6403.43442,0.20688
6401.50567,0.20719
6399.57693,0.20724
6397.64818,0.20826
6395.71944,0.20848
6393.79069,0.20685
6391.86195,0.20537
6389.93320,0.20478
6388.00446,0.20519
6386.07571,0.20760
6384.14697,0.20978
6382.21822,0.20948
6380.28948,0.20885
6378.36073,0.20865
6376.43199,0.20803
6374.50324,0.20783
6372.57450,0.20838
6370.64575,0.20881
6368.71700,0.20909
6366.78826,0.21001
6364.85951,0.21096
6362.93077,0.21108
6361.00202,0.21049
6359.07328,0.20933
6357.14453,0.20867
6355.21579,0.20795
6353.28704,0.20623
6351.35830,0.20612
6349.42955,0.20819
6347.50081,0.20868
6345.57206,0.20695
6343.64332,0.20651
6341.71457,0.20796
6339.78582,0.20884
6337.85708,0.20898
6335.92833,0.20906
6333.99959,0.20865
6332.07084,0.20855
6330.14210,0.20944
6328.21335,0.21036
6326.28461,0.21039
6324.35586,0.20986
6322.42712,0.20990
6320.49837,0.21039
6318.56963,0.21063
6316.64088,0.21124
6314.71214,0.21202
6312.78339,0.21149
6310.85465,0.21049
6308.92590,0.21121
6306.99715,0.21296
6305.06841,0.21366
6303.13966,0.21356
6301.21092,0.21408
6299.28217,0.21492
6297.35343,0.21529
6295.42468,0.21546
6293.49594,0.21537
6291.56719,0.21527
6289.63845,0.21586
6287.70970,0.21583
6285.78096,0.21430
6283.85221,0.21310
6281.92347,0.21270
6279.99472,0.21191
6278.06598,0.21148
6276.13723,0.21294
6274.20848,0.21606
6272.27974,0.21826
6270.35099,0.21764
6268.42225,0.21621
6266.49350,0.21603
6264.56476,0.21631
6262.63601,0.21616
6260.70727,0.21590
6258.77852,0.21566
6256.84978,0.21521
6254.92103,0.21527
6252.99229,0.21624
6251.06354,0.21721
6249.13480,0.21781
6247.20605,0.21842
6245.27730,0.21897
6243.34856,0.21884
6241.41981,0.21750
6239.49107,0.21565
6237.56232,0.21506
6235.63358,0.21641
6233.70483,0.21827
6231.77609,0.21863
6229.84734,0.21787
6227.91860,0.21814
6225.98985,0.21927
6224.06111,0.21984
6222.13236,0.22034
6220.20362,0.22144
6218.27487,0.22228
6216.34613,0.22184
6214.41738,0.22066
6212.48863,0.21964
6210.55989,0.21939
6208.63114,0.22040
6206.70240,0.22151
6204.77365,0.22169
6202.84491,0.22143
6200.91616,0.22112
6198.98742,0.22143
6197.05867,0.22223
6195.12993,0.22211
6193.20118,0.22098
6191.27244,0.22007
6189.34369,0.22001
6187.41495,0.22044
6185.48620,0.22097
6183.55746,0.22147
6181.62871,0.22148
6179.69996,0.22098
6177.77122,0.22097
6175.84247,0.22165
6173.91373,0.22164
6171.98498,0.22115
6170.05624,0.22172
6168.12749,0.22281
6166.19875,0.22324
6164.27000,0.22334
6162.34126,0.22391
6160.41251,0.22466
6158.48377,0.22453
6156.55502,0.22385
6154.62628,0.22380
6152.69753,0.22421
6150.76878,0.22388
6148.84004,0.22322
6146.91129,0.22415
6144.98255,0.22613
6143.05380,0.22632
6141.12506,0.22418
6139.19631,0.22180
6137.26757,0.22157
6135.33882,0.22340
6133.41008,0.22451
6131.48133,0.22391
6129.55259,0.22345
6127.62384,0.22436
6125.69510,0.22562
6123.76635,0.22539
6121.83761,0.22417
6119.90886,0.22389
6117.98011,0.22411
6116.05137,0.22412
6114.12262,0.22505
6112.19388,0.22625
6110.26513,0.22587
6108.33639,0.22496
6106.40764,0.22556
6104.47890,0.22732
6102.55015,0.22821
6100.62141,0.22756
6098.69266,0.22653
6096.76392,0.22546
6094.83517,0.22459
6092.90643,0.22469
6090.97768,0.22569
6089.04893,0.22737
6087.12019,0.22875
6085.19144,0.22819
6083.26270,0.22653
6081.33395,0.22630
6079.40521,0.22736
6077.47646,0.22745
6075.54772,0.22664
6073.61897,0.22632
6071.69023,0.22612
6069.76148,0.22569
6067.83274,0.22556
6065.90399,0.22579
6063.97525,0.22596
6062.04650,0.22597
6060.11776,0.22658
6058.18901,0.22790
6056.26026,0.22861
6054.33152,0.22849
6052.40277,0.22846
6050.47403,0.22875
6048.54528,0.22919
6046.61654,0.22961
6044.68779,0.22932
6042.75905,0.22817
6040.83030,0.22750
6038.90156,0.22799
6036.97281,0.22896
6035.04407,0.22956
6033.11532,0.22924
6031.18658,0.22847
6029.25783,0.22829
6027.32909,0.22841
6025.40034,0.22753
6023.47159,0.22625
6021.54285,0.22650
6019.61410,0.22831
6017.68536,0.22997
6015.75661,0.23009
6013.82787,0.22945
6011.89912,0.22940
6009.97038,0.22908
6008.04163,0.22740
6006.11289,0.22489
6004.18414,0.22335
6002.25540,0.22412
6000.32665,0.22619
5998.39791,0.22792
5996.46916,0.22839
5994.54041,0.22772
5992.61167,0.22709
5990.68292,0.22671
5988.75418,0.22636
5986.82543,0.22732
5984.89669,0.22943
5982.96794,0.23011
5981.03920,0.22911
5979.11045,0.22834
5977.18171,0.22787
5975.25296,0.22693
5973.32422,0.22587
5971.39547,0.22508
5969.46673,0.22458
5967.53798,0.22441
5965.60924,0.22453
5963.68049,0.22500
5961.75174,0.22565
5959.82300,0.22597
5957.89425,0.22564
5955.96551,0.22513
5954.03676,0.22527
5952.10802,0.22596
5950.17927,0.22642
5948.25053,0.22600
5946.32178,0.22450
5944.39304,0.22328
5942.46429,0.22324
5940.53555,0.22338
5938.60680,0.22331
5936.67806,0.22326
5934.74931,0.22296
5932.82057,0.22283
5930.89182,0.22320
5928.96307,0.22312
5927.03433,0.22266
5925.10558,0.22234
5923.17684,0.22161
5921.24809,0.22128
5919.31935,0.22179
5917.39060,0.22161
5915.46186,0.22073
5913.53311,0.21971
5911.60437,0.21859
5909.67562,0.21803
5907.74688,0.21793
5905.81813,0.21771
5903.88939,0.21742
5901.96064,0.21739
5900.03189,0.21788
5898.10315,0.21859
5896.17440,0.21918
5894.24566,0.21915
5892.31691,0.21787
5890.38817,0.21592
5888.45942,0.21515
5886.53068,0.21632
5884.60193,0.21750
5882.67319,0.21714
5880.74444,0.21618
5878.81570,0.21547
5876.88695,0.21477
5874.95821,0.21432
5873.02946,0.21410
5871.10072,0.21306
5869.17197,0.21156
5867.24322,0.21132
5865.31448,0.21269
5863.38573,0.21422
5861.45699,0.21418
5859.52824,0.21303
5857.59950,0.21279
5855.67075,0.21387
5853.74201,0.21545
5851.81326,0.21678
5849.88452,0.21690
5847.95577,0.21534
5846.02703,0.21334
5844.09828,0.21247
5842.16954,0.21251
5840.24079,0.21265
5838.31205,0.21268
5836.38330,0.21222
5834.45455,0.21111
5832.52581,0.21031
5830.59706,0.21050
5828.66832,0.21137
5826.73957,0.21172
5824.81083,0.21102
5822.88208,0.21028
5820.95334,0.20990
5819.02459,0.20930
5817.09585,0.20851
5815.16710,0.20804
5813.23836,0.20826
5811.30961,0.20882
5809.38087,0.20858
5807.45212,0.20714
5805.52337,0.20616
5803.59463,0.20665
5801.66588,0.20740
5799.73714,0.20778
5797.80839,0.20812
5795.87965,0.20810
5793.95090,0.20716
5792.02216,0.20614
5790.09341,0.20644
5788.16467,0.20747
5786.23592,0.20781
5784.30718,0.20747
5782.37843,0.20745
5780.44969,0.20814
5778.52094,0.20938
5776.59220,0.21094
5774.66345,0.21194
5772.73470,0.21204
5770.80596,0.21194
5768.87721,0.21205
5766.94847,0.21222
5765.01972,0.21244
5763.09098,0.21341
5761.16223,0.21514
5759.23349,0.21637
5757.30474,0.21651
5755.37600,0.21619
5753.44725,0.21652
5751.51851,0.21806
5749.58976,0.21957
5747.66102,0.21947
5745.73227,0.21848
5743.80352,0.21816
5741.87478,0.21835
5739.94603,0.21870
5738.01729,0.21983
5736.08854,0.22108
5734.15980,0.22118
5732.23105,0.22095
5730.30231,0.22140
5728.37356,0.22170
5726.44482,0.22110
5724.51607,0.22051
5722.58733,0.22121
5720.65858,0.22231
5718.72984,0.22257
5716.80109,0.22224
5714.87235,0.22152
5712.94360,0.22115
5711.01485,0.22183
5709.08611,0.22279
5707.15736,0.22321
5705.22862,0.22296
5703.29987,0.22208
5701.37113,0.22059
5699.44238,0.21942
5697.51364,0.22014
5695.58489,0.22163
5693.65615,0.22162
5691.72740,0.22050
5689.79866,0.21971
5687.86991,0.21990
5685.94117,0.22111
5684.01242,0.22222
5682.08368,0.22197
5680.15493,0.22089
5678.22618,0.22035
5676.29744,0.22012
5674.36869,0.21932
5672.43995,0.21866
5670.51120,0.21918
5668.58246,0.22019
5666.65371,0.22053
5664.72497,0.22042
5662.79622,0.22107
5660.86748,0.22292
5658.93873,0.22454
5657.00999,0.22474
5655.08124,0.22393
5653.15250,0.22295
5651.22375,0.22255
5649.29500,0.22310
5647.36626,0.22411
5645.43751,0.22487
5643.50877,0.22547
5641.58002,0.22606
5639.65128,0.22638
5637.72253,0.22673
5635.79379,0.22724
5633.86504,0.22778
5631.93630,0.22847
5630.00755,0.22917
5628.07881,0.22996
5626.15006,0.23087
5624.22132,0.23124
5622.29257,0.23093
5620.36383,0.23073
5618.43508,0.23090
5616.50633,0.23081
5614.57759,0.23055
5612.64884,0.23095
5610.72010,0.23182
5608.79135,0.23252
5606.86261,0.23360
5604.93386,0.23495
5603.00512,0.23506
5601.07637,0.23377
5599.14763,0.23283
5597.21888,0.23320
5595.29014,0.23385
5593.36139,0.23398
5591.43265,0.23424
5589.50390,0.23505
5587.57516,0.23624
5585.64641,0.23756
5583.71766,0.23840
5581.78892,0.23861
5579.86017,0.23835
5577.93143,0.23782
5576.00268,0.23780
5574.07394,0.23804
5572.14519,0.23763
5570.21645,0.23757
5568.28770,0.23860
5566.35896,0.23951
5564.43021,0.23916
5562.50147,0.23827
5560.57272,0.23832
5558.64398,0.23927
5556.71523,0.24006
5554.78648,0.24043
5552.85774,0.24082
5550.92899,0.24095
5549.00025,0.24046
5547.07150,0.23980
5545.14276,0.23918
5543.21401,0.23917
5541.28527,0.24034
5539.35652,0.24180
5537.42778,0.24250
5535.49903,0.24230
5533.57029,0.24182
5531.64154,0.24145
5529.71280,0.24086
5527.78405,0.24053
5525.85531,0.24123
5523.92656,0.24232
5521.99781,0.24313
5520.06907,0.24361
5518.14032,0.24338
5516.21158,0.24235
5514.28283,0.24104
5512.35409,0.24041
5510.42534,0.24105
5508.49660,0.24215
5506.56785,0.24267
5504.63911,0.24240
5502.71036,0.24198
5500.78162,0.24246
5498.85287,0.24322
5496.92413,0.24264
5494.99538,0.24144
5493.06664,0.24124
5491.13789,0.24181
5489.20914,0.24260
5487.28040,0.24361
5485.35165,0.24453
5483.42291,0.24497
5481.49416,0.24475
5479.56542,0.24420
5477.63667,0.24400
5475.70793,0.24411
5473.77918,0.24425
5471.85044,0.24435
5469.92169,0.24421
5467.99295,0.24385
5466.06420,0.24360
5464.13546,0.24370
5462.20671,0.24432
5460.27796,0.24539
5458.34922,0.24626
5456.42047,0.24640
5454.49173,0.24598
5452.56298,0.24593
5450.63424,0.24690
5448.70549,0.24809
5446.77675,0.24871
5444.84800,0.24890
5442.91926,0.24863
5440.99051,0.24781
5439.06177,0.24708
5437.13302,0.24716
5435.20428,0.24783
5433.27553,0.24796
5431.34679,0.24745
5429.41804,0.24732
5427.48929,0.24756
5425.56055,0.24740
5423.63180,0.24725
5421.70306,0.24813
5419.77431,0.24997
5417.84557,0.25166
5415.91682,0.25232
5413.98808,0.25204
5412.05933,0.25165
5410.13059,0.25157
5408.20184,0.25158
5406.27310,0.25163
5404.34435,0.25220
5402.41561,0.25297
5400.48686,0.25296
5398.55811,0.25274
5396.62937,0.25292
5394.70062,0.25258
5392.77188,0.25199
5390.84313,0.25226
5388.91439,0.25278
5386.98564,0.25269
5385.05690,0.25261
5383.12815,0.25310
5381.19941,0.25365
5379.27066,0.25430
5377.34192,0.25519
5375.41317,0.25561
5373.48443,0.25552
5371.55568,0.25569
5369.62694,0.25612
5367.69819,0.25638
5365.76944,0.25667
5363.84070,0.25722
5361.91195,0.25745
5359.98321,0.25678
5358.05446,0.25588
5356.12572,0.25596
5354.19697,0.25675
5352.26823,0.25700
5350.33948,0.25650
5348.41074,0.25616
5346.48199,0.25650
5344.55325,0.25707
5342.62450,0.25731
5340.69576,0.25718
5338.76701,0.25670
5336.83827,0.25599
5334.90952,0.25554
5332.98077,0.25535
5331.05203,0.25528
5329.12328,0.25576
5327.19454,0.25655
5325.26579,0.25663
5323.33705,0.25564
5321.40830,0.25446
5319.47956,0.25418
5317.55081,0.25471
5315.62207,0.25509
5313.69332,0.25462
5311.76458,0.25362
5309.83583,0.25310
5307.90709,0.25364
5305.97834,0.25467
5304.04959,0.25500
5302.12085,0.25445
5300.19210,0.25364
5298.26336,0.25294
5296.33461,0.25267
5294.40587,0.25272
5292.47712,0.25210
5290.54838,0.25061
5288.61963,0.24986
5286.69089,0.25013
5284.76214,0.25010
5282.83340,0.24973
5280.90465,0.24944
5278.97591,0.24888
5277.04716,0.24778
5275.11842,0.24631
5273.18967,0.24512
5271.26092,0.24454
5269.33218,0.24405
5267.40343,0.24376
5265.47469,0.24385
5263.54594,0.24344
5261.61720,0.24215
5259.68845,0.24065
5257.75971,0.23946
5255.83096,0.23866
5253.90222,0.23790
5251.97347,0.23703
5250.04473,0.23632
5248.11598,0.23592
5246.18724,0.23561
5244.25849,0.23530
5242.32975,0.23502
5240.40100,0.23442
5238.47225,0.23358
5236.54351,0.23301
5234.61476,0.23273
5232.68602,0.23198
5230.75727,0.23057
5228.82853,0.22937
5226.89978,0.22867
5224.97104,0.22833
5223.04229,0.22836
5221.11355,0.22823
5219.18480,0.22783
5217.25606,0.22749
5215.32731,0.22699
5213.39857,0.22628
5211.46982,0.22568
5209.54107,0.22502
5207.61233,0.22438
5205.68358,0.22410
5203.75484,0.22418
5201.82609,0.22465
5199.89735,0.22547
5197.96860,0.22609
5196.03986,0.22601
5194.11111,0.22552
5192.18237,0.22512
5190.25362,0.22488
5188.32488,0.22508
5186.39613,0.22575
5184.46739,0.22630
5182.53864,0.22653
5180.60990,0.22669
5178.68115,0.22703
5176.75240,0.22793
5174.82366,0.22891
5172.89491,0.22874
5170.96617,0.22776
5169.03742,0.22714
5167.10868,0.22711
5165.17993,0.22768
5163.25119,0.22856
5161.32244,0.22919
5159.39370,0.22952
5157.46495,0.22964
5155.53621,0.22967
5153.60746,0.22996
5151.67872,0.23042
5149.74997,0.23058
5147.82123,0.23068
5145.89248,0.23114
5143.96373,0.23188
5142.03499,0.23274
5140.10624,0.23343
5138.17750,0.23369
5136.24875,0.23360
5134.32001,0.23338
5132.39126,0.23338
5130.46252,0.23377
5128.53377,0.23453
5126.60503,0.23550
5124.67628,0.23620
5122.74754,0.23645
5120.81879,0.23643
5118.89005,0.23649
5116.96130,0.23699
5115.03255,0.23747
5113.10381,0.23738
5111.17506,0.23716
5109.24632,0.23741
5107.31757,0.23812
5105.38883,0.23881
5103.46008,0.23913
5101.53134,0.23950
5099.60259,0.24028
5097.67385,0.24090
5095.74510,0.24107
5093.81636,0.24143
5091.88761,0.24221
5089.95887,0.24277
5088.03012,0.24294
5086.10138,0.24309
5084.17263,0.24301
5082.24388,0.24269
5080.31514,0.24274
5078.38639,0.24316
5076.45765,0.24361
5074.52890,0.24408
5072.60016,0.24444
5070.67141,0.24456
5068.74267,0.24454
5066.81392,0.24503
5064.88518,0.24633
5062.95643,0.24738
5061.02769,0.24752
5059.09894,0.24770
5057.17020,0.24831
5055.24145,0.24863
5053.31270,0.24858
5051.38396,0.24867
5049.45521,0.24885
5047.52647,0.24902
5045.59772,0.24938
5043.66898,0.24961
5041.74023,0.24934
5039.81149,0.24922
5037.88274,0.24972
5035.95400,0.25015
5034.02525,0.25011
5032.09651,0.25028
5030.16776,0.25086
5028.23902,0.25135
5026.31027,0.25175
5024.38153,0.25201
5022.45278,0.25205
5020.52403,0.25212
5018.59529,0.25241
5016.66654,0.25302
5014.73780,0.25350
5012.80905,0.25330
5010.88031,0.25284
5008.95156,0.25276
5007.02282,0.25329
5005.09407,0.25400
5003.16533,0.25438
5001.23658,0.25441
4999.30784,0.25435
4997.37909,0.25434
4995.45035,0.25416
4993.52160,0.25362
4991.59286,0.25309
4989.66411,0.25336
4987.73536,0.25438
4985.80662,0.25518
4983.87787,0.25539
4981.94913,0.25527
4980.02038,0.25471
4978.09164,0.25378
4976.16289,0.25321
4974.23415,0.25331
4972.30540,0.25361
4970.37666,0.25364
4968.44791,0.25325
4966.51917,0.25281
4964.59042,0.25266
4962.66168,0.25247
4960.73293,0.25213
4958.80418,0.25184
4956.87544,0.25156
4954.94669,0.25148
4953.01795,0.25145
4951.08920,0.25105
4949.16046,0.25065
4947.23171,0.25093
4945.30297,0.25163
4943.37422,0.25188
4941.44548,0.25127
4939.51673,0.25014
4937.58799,0.24921
4935.65924,0.24876
4933.73050,0.24844
4931.80175,0.24812
4929.87301,0.24784
4927.94426,0.24743
4926.01551,0.24694
4924.08677,0.24657
4922.15802,0.24621
4920.22928,0.24589
4918.30053,0.24569
4916.37179,0.24541
4914.44304,0.24488
4912.51430,0.24436
4910.58555,0.24380
4908.65681,0.24261
4906.72806,0.24105
4904.79932,0.24056
4902.87057,0.24136
4900.94183,0.24179
4899.01308,0.24106
4897.08434,0.24016
4895.15559,0.23970
4893.22684,0.23901
4891.29810,0.23780
4889.36935,0.23677
4887.44061,0.23633
4885.51186,0.23601
4883.58312,0.23527
4881.65437,0.23414
4879.72563,0.23321
4877.79688,0.23263
4875.86814,0.23224
4873.93939,0.23200
4872.01065,0.23187
4870.08190,0.23169
4868.15316,0.23118
4866.22441,0.23026
4864.29566,0.22905
4862.36692,0.22784
4860.43817,0.22700
4858.50943,0.22667
4856.58068,0.22665
4854.65194,0.22634
4852.72319,0.22541
4850.79445,0.22466
4848.86570,0.22456
4846.93696,0.22425
4845.00821,0.22326
4843.07947,0.22209
4841.15072,0.22134
4839.22198,0.22124
4837.29323,0.22139
4835.36449,0.22135
4833.43574,0.22109
4831.50699,0.22083
4829.57825,0.22048
4827.64950,0.21956
4825.72076,0.21831
4823.79201,0.21752
4821.86327,0.21724
4819.93452,0.21704
4818.00578,0.21679
4816.07703,0.21655
4814.14829,0.21616
4812.21954,0.21550
4810.29080,0.21463
4808.36205,0.21395
4806.43331,0.21396
4804.50456,0.21419
4802.57582,0.21397
4800.64707,0.21359
4798.71832,0.21341
4796.78958,0.21329
4794.86083,0.21306
4792.93209,0.21273
4791.00334,0.21252
4789.07460,0.21271
4787.14585,0.21291
4785.21711,0.21253
4783.28836,0.21169
4781.35962,0.21104
4779.43087,0.21103
4777.50213,0.21122
4775.57338,0.21116
4773.64464,0.21120
4771.71589,0.21123
4769.78714,0.21074
4767.85840,0.21011
4765.92965,0.21004
4764.00091,0.21034
4762.07216,0.21046
4760.14342,0.21022
4758.21467,0.20988
4756.28593,0.20992
4754.35718,0.21009
4752.42844,0.20992
4750.49969,0.20988
4748.57095,0.21015
4746.64220,0.21010
4744.71346,0.20981
4742.78471,0.20962
4740.85597,0.20942
4738.92722,0.20922
4736.99847,0.20939
4735.06973,0.21001
4733.14098,0.21060
4731.21224,0.21079
4729.28349,0.21084
4727.35475,0.21117
4725.42600,0.21160
4723.49726,0.21177
4721.56851,0.21183
4719.63977,0.21204
4717.71102,0.21238
4715.78228,0.21267
4713.85353,0.21271
4711.92479,0.21272
4709.99604,0.21290
4708.06729,0.21305
4706.13855,0.21318
4704.20980,0.21323
4702.28106,0.21319
4700.35231,0.21358
4698.42357,0.21439
4696.49482,0.21488
4694.56608,0.21491
4692.63733,0.21475
4690.70859,0.21463
4688.77984,0.21483
4686.85110,0.21521
4684.92235,0.21538
4682.99361,0.21567
4681.06486,0.21640
4679.13612,0.21702
4677.20737,0.21720
4675.27862,0.21725
4673.34988,0.21728
4671.42113,0.21726
4669.49239,0.21723
4667.56364,0.21708
4665.63490,0.21693
4663.70615,0.21715
4661.77741,0.21741
4659.84866,0.21732
4657.91992,0.21716
4655.99117,0.21704
4654.06243,0.21703
4652.13368,0.21740
4650.20494,0.21799
4648.27619,0.21845
4646.34745,0.21871
4644.41870,0.21883
4642.48995,0.21901
4640.56121,0.21953
4638.63246,0.21998
4636.70372,0.21994
4634.77497,0.22005
4632.84623,0.22055
4630.91748,0.22106
4628.98874,0.22151
4627.05999,0.22183
4625.13125,0.22199
4623.20250,0.22227
4621.27376,0.22280
4619.34501,0.22321
4617.41627,0.22315
4615.48752,0.22268
4613.55877,0.22224
4611.63003,0.22248
4609.70128,0.22322
4607.77254,0.22392
4605.84379,0.22460
4603.91505,0.22514
4601.98630,0.22516
4600.05756,0.22510
4598.12881,0.22574
4596.20007,0.22686
4594.27132,0.22764
4592.34258,0.22799
4590.41383,0.22835
4588.48509,0.22880
4586.55634,0.22912
4584.62760,0.22924
4582.69885,0.22925
4580.77010,0.22957
4578.84136,0.23038
4576.91261,0.23117
4574.98387,0.23175
4573.05512,0.23200
4571.12638,0.23180
4569.19763,0.23183
4567.26889,0.23246
4565.34014,0.23295
4563.41140,0.23320
4561.48265,0.23364
4559.55391,0.23404
4557.62516,0.23429
4555.69642,0.23466
4553.76767,0.23504
4551.83893,0.23525
4549.91018,0.23550
4547.98143,0.23605
4546.05269,0.23669
4544.12394,0.23694
4542.19520,0.23677
4540.26645,0.23652
4538.33771,0.23649
4536.40896,0.23669
4534.48022,0.23675
4532.55147,0.23633
4530.62273,0.23572
4528.69398,0.23546
4526.76524,0.23564
4524.83649,0.23610
4522.90775,0.23676
4520.97900,0.23730
4519.05025,0.23748
4517.12151,0.23747
4515.19276,0.23737
4513.26402,0.23718
4511.33527,0.23692
4509.40653,0.23678
4507.47778,0.23677
4505.54904,0.23654
4503.62029,0.23637
4501.69155,0.23663
4499.76280,0.23645
4497.83406,0.23554
4495.90531,0.23490
4493.97657,0.23463
4492.04782,0.23433
4490.11908,0.23420
4488.19033,0.23395
4486.26158,0.23319
4484.33284,0.23247
4482.40409,0.23212
4480.47535,0.23161
4478.54660,0.23073
4476.61786,0.22998
4474.68911,0.22926
4472.76037,0.22813
4470.83162,0.22716
4468.90288,0.22671
4466.97413,0.22598
4465.04539,0.22477
4463.11664,0.22365
4461.18790,0.22269
4459.25915,0.22172
4457.33041,0.22071
4455.40166,0.21951
4453.47291,0.21800
4451.54417,0.21621
4449.61542,0.21450
4447.68668,0.21295
4445.75793,0.21137
4443.82919,0.20989
4441.90044,0.20817
4439.97170,0.20574
4438.04295,0.20339
4436.11421,0.20171
4434.18546,0.20013
4432.25672,0.19826
4430.32797,0.19624
4428.39923,0.19440
4426.47048,0.19252
4424.54173,0.19009
4422.61299,0.18746
4420.68424,0.18515
4418.75550,0.18314
4416.82675,0.18123
4414.89801,0.17927
4412.96926,0.17730
4411.04052,0.17522
4409.11177,0.17286
4407.18303,0.17050
4405.25428,0.16861
4403.32554,0.16727
4401.39679,0.16600
4399.46805,0.16457
4397.53930,0.16323
4395.61056,0.16227
4393.68181,0.16189
4391.75306,0.16191
4389.82432,0.16187
4387.89557,0.16159
4385.96683,0.16124
4384.03808,0.16094
4382.10934,0.16063
4380.18059,0.16043
4378.25185,0.16049
4376.32310,0.16065
4374.39436,0.16068
4372.46561,0.16057
4370.53687,0.16060
4368.60812,0.16061
4366.67938,0.16016
4364.75063,0.15944
4362.82189,0.15892
4360.89314,0.15856
4358.96439,0.15801
4357.03565,0.15698
4355.10690,0.15555
4353.17816,0.15405
4351.24941,0.15253
4349.32067,0.15060
4347.39192,0.14844
4345.46318,0.14676
4343.53443,0.14558
4341.60569,0.14438
4339.67694,0.14297
4337.74820,0.14163
4335.81945,0.14051
4333.89071,0.13925
4331.96196,0.13812
4330.03321,0.13774
4328.10447,0.13787
4326.17572,0.13820
4324.24698,0.13870
4322.31823,0.13927
4320.38949,0.14012
4318.46074,0.14133
4316.53200,0.14245
4314.60325,0.14337
4312.67451,0.14453
4310.74576,0.14581
4308.81702,0.14675
4306.88827,0.14746
4304.95953,0.14820
4303.03078,0.14883
4301.10204,0.14933
4299.17329,0.14985
4297.24454,0.15037
4295.31580,0.15073
4293.38705,0.15084
4291.45831,0.15082
4289.52956,0.15091
4287.60082,0.15099
4285.67207,0.15068
4283.74333,0.15008
4281.81458,0.14951
4279.88584,0.14903
4277.95709,0.14857
4276.02835,0.14808
4274.09960,0.14747
4272.17086,0.14654
4270.24211,0.14533
4268.31336,0.14413
4266.38462,0.14323
4264.45587,0.14280
4262.52713,0.14249
4260.59838,0.14203
4258.66964,0.14175
4256.74089,0.14146
4254.81215,0.14088
4252.88340,0.14090
4250.95466,0.14204
4249.02591,0.14348
4247.09717,0.14444
4245.16842,0.14504
4243.23968,0.14569
4241.31093,0.14648
4239.38219,0.14734
4237.45344,0.14822
4235.52469,0.14911
4233.59595,0.15002
4231.66720,0.15073
4229.73846,0.15113
4227.80971,0.15127
4225.88097,0.15121
4223.95222,0.15131
4222.02348,0.15182
4220.09473,0.15242
4218.16599,0.15276
4216.23724,0.15286
4214.30850,0.15276
4212.37975,0.15282
4210.45101,0.15322
4208.52226,0.15340
4206.59352,0.15335
4204.66477,0.15365
4202.73602,0.15397
4200.80728,0.15376
4198.87853,0.15341
4196.94979,0.15336
4195.02104,0.15362
4193.09230,0.15414
4191.16355,0.15467
4189.23481,0.15481
4187.30606,0.15454
4185.37732,0.15423
4183.44857,0.15423
4181.51983,0.15443
4179.59108,0.15435
4177.66234,0.15405
4175.73359,0.15390
4173.80484,0.15396
4171.87610,0.15403
4169.94735,0.15401
4168.01861,0.15419
4166.08986,0.15454
4164.16112,0.15467
4162.23237,0.15475
4160.30363,0.15503
4158.37488,0.15530
4156.44614,0.15550
4154.51739,0.15572
4152.58865,0.15584
4150.65990,0.15599
4148.73116,0.15634
4146.80241,0.15654
4144.87367,0.15645
4142.94492,0.15627
4141.01617,0.15605
4139.08743,0.15582
4137.15868,0.15572
4135.22994,0.15578
4133.30119,0.15576
4131.37245,0.15548
4129.44370,0.15536
4127.51496,0.15563
4125.58621,0.15556
4123.65747,0.15496
4121.72872,0.15457
4119.79998,0.15454
4117.87123,0.15438
4115.94249,0.15405
4114.01374,0.15385
4112.08500,0.15387
4110.15625,0.15389
4108.22750,0.15355
4106.29876,0.15281
4104.37001,0.15213
4102.44127,0.15186
4100.51252,0.15181
4098.58378,0.15159
4096.65503,0.15110
4094.72629,0.15057
4092.79754,0.15004
4090.86880,0.14931
4088.94005,0.14869
4087.01131,0.14840
4085.08256,0.14805
4083.15382,0.14735
4081.22507,0.14652
4079.29632,0.14579
4077.36758,0.14501
4075.43883,0.14412
4073.51009,0.14329
4071.58134,0.14252
4069.65260,0.14183
4067.72385,0.14154
4065.79511,0.14158
4063.86636,0.14134
4061.93762,0.14068
4060.00887,0.14007
4058.08013,0.13950
4056.15138,0.13879
4054.22264,0.13820
4052.29389,0.13792
4050.36515,0.13775
4048.43640,0.13757
4046.50765,0.13750
4044.57891,0.13746
4042.65016,0.13741
4040.72142,0.13745
4038.79267,0.13738
4036.86393,0.13707
4034.93518,0.13686
4033.00644,0.13663
4031.07769,0.13615
4029.14895,0.13596
4027.22020,0.13616
4025.29146,0.13613
4023.36271,0.13604
4021.43397,0.13616
4019.50522,0.13616
4017.57648,0.13614
4015.64773,0.13636
4013.71898,0.13676
4011.79024,0.13717
4009.86149,0.13741
4007.93275,0.13748
4006.00400,0.13747
4004.07526,0.13754
4002.14651,0.13790
4000.21777,0.13833
3998.28902,0.13850
3996.36028,0.13874
3994.43153,0.13935
3992.50279,0.14015
3990.57404,0.14076
3988.64530,0.14111
3986.71655,0.14123
3984.78780,0.14122
3982.85906,0.14137
3980.93031,0.14167
3979.00157,0.14174
3977.07282,0.14180
3975.14408,0.14230
3973.21533,0.14296
3971.28659,0.14339
3969.35784,0.14361
3967.42910,0.14379
3965.50035,0.14408
3963.57161,0.14451
3961.64286,0.14493
3959.71412,0.14520
3957.78537,0.14548
3955.85663,0.14587
3953.92788,0.14623
3951.99913,0.14665
3950.07039,0.14733
3948.14164,0.14793
3946.21290,0.14820
3944.28415,0.14835
3942.35541,0.14871
3940.42666,0.14938
3938.49792,0.15005
3936.56917,0.15049
3934.64043,0.15081
3932.71168,0.15119
3930.78294,0.15173
3928.85419,0.15235
3926.92545,0.15283
3924.99670,0.15334
3923.06795,0.15414
3921.13921,0.15475
3919.21046,0.15492
3917.28172,0.15508
3915.35297,0.15526
3913.42423,0.15548
3911.49548,0.15590
3909.56674,0.15627
3907.63799,0.15650
3905.70925,0.15693
3903.78050,0.15757
3901.85176,0.15800
3899.92301,0.15815
3897.99427,0.15826
3896.06552,0.15841
3894.13678,0.15885
3892.20803,0.15967
3890.27928,0.16012
3888.35054,0.15988
3886.42179,0.15968
3884.49305,0.16007
3882.56430,0.16090
3880.63556,0.16165
3878.70681,0.16193
3876.77807,0.16200
3874.84932,0.16230
3872.92058,0.16286
3870.99183,0.16342
3869.06309,0.16391
3867.13434,0.16439
3865.20560,0.16491
3863.27685,0.16534
3861.34811,0.16566
3859.41936,0.16612
3857.49061,0.16679
3855.56187,0.16739
3853.63312,0.16786
3851.70438,0.16842
3849.77563,0.16904
3847.84689,0.16960
3845.91814,0.17008
3843.98940,0.17060
3842.06065,0.17110
3840.13191,0.17146
3838.20316,0.17159
3836.27442,0.17149
3834.34567,0.17152
3832.41693,0.17188
3830.48818,0.17224
3828.55943,0.17246
3826.63069,0.17276
3824.70194,0.17311
3822.77320,0.17330
3820.84445,0.17328
3818.91571,0.17310
3816.98696,0.17285
3815.05822,0.17288
3813.12947,0.17328
3811.20073,0.17355
3809.27198,0.17343
3807.34324,0.17335
3805.41449,0.17345
3803.48575,0.17348
3801.55700,0.17370
3799.62826,0.17424
3797.69951,0.17466
3795.77076,0.17478
3793.84202,0.17492
3791.91327,0.17520
3789.98453,0.17527
3788.05578,0.17519
3786.12704,0.17531
3784.19829,0.17546
3782.26955,0.17551
3780.34080,0.17561
3778.41206,0.17567
3776.48331,0.17552
3774.55457,0.17524
3772.62582,0.17509
3770.69708,0.17520
3768.76833,0.17533
3766.83959,0.17532
3764.91084,0.17528
3762.98209,0.17511
3761.05335,0.17484
3759.12460,0.17480
3757.19586,0.17486
3755.26711,0.17473
3753.33837,0.17465
3751.40962,0.17456
3749.48088,0.17409
3747.55213,0.17343
3745.62339,0.17283
3743.69464,0.17244
3741.76590,0.17228
3739.83715,0.17213
3737.90841,0.17174
3735.97966,0.17096
3734.05091,0.16994
3732.12217,0.16916
3730.19342,0.16868
3728.26468,0.16812
3726.33593,0.16730
3724.40719,0.16645
3722.47844,0.16563
3720.54970,0.16452
3718.62095,0.16312
3716.69221,0.16172
3714.76346,0.16021
3712.83472,0.15809
3710.90597,0.15541
3708.97723,0.15283
3707.04848,0.15043
3705.11974,0.14765
3703.19099,0.14409
3701.26224,0.13995
3699.33350,0.13602
3697.40475,0.13295
3695.47601,0.13092
3693.54726,0.12986
3691.61852,0.12963
3689.68977,0.12999
3687.76103,0.13054
3685.83228,0.13065
3683.90354,0.13010
3681.97479,0.12902
3680.04605,0.12750
3678.11730,0.12568
3676.18856,0.12354
3674.25981,0.12107
3672.33107,0.11849
3670.40232,0.11602
3668.47357,0.11387
3666.54483,0.11186
3664.61608,0.10976
3662.68734,0.10778
3660.75859,0.10591
3658.82985,0.10388
3656.90110,0.10151
3654.97236,0.09919
3653.04361,0.09746
3651.11487,0.09608
3649.18612,0.09471
3647.25738,0.09332
3645.32863,0.09201
3643.39989,0.09082
3641.47114,0.08964
3639.54239,0.08861
3637.61365,0.08781
3635.68490,0.08681
3633.75616,0.08532
3631.82741,0.08381
3629.89867,0.08258
3627.96992,0.08131
3626.04118,0.07985
3624.11243,0.07836
3622.18369,0.07705
3620.25494,0.07613
3618.32620,0.07549
3616.39745,0.07473
3614.46871,0.07359
3612.53996,0.07242
3610.61122,0.07180
3608.68247,0.07139
3606.75372,0.07067
3604.82498,0.06974
3602.89623,0.06877
3600.96749,0.06791
3599.03874,0.06728
3597.11000,0.06666
3595.18125,0.06583
3593.25251,0.06502
3591.32376,0.06445
3589.39502,0.06382
3587.46627,0.06307
3585.53753,0.06248
3583.60878,0.06194
3581.68004,0.06134
3579.75129,0.06090
3577.82254,0.06071
3575.89380,0.06041
3573.96505,0.05975
3572.03631,0.05905
3570.10756,0.05862
3568.17882,0.05825
3566.25007,0.05762
3564.32133,0.05684
3562.39258,0.05615
3560.46384,0.05573
3558.53509,0.05554
3556.60635,0.05540
3554.67760,0.05520
3552.74886,0.05497
3550.82011,0.05469
3548.89137,0.05420
3546.96262,0.05354
3545.03387,0.05312
3543.10513,0.05321
3541.17638,0.05340
3539.24764,0.05333
3537.31889,0.05310
3535.39015,0.05278
3533.46140,0.05249
3531.53266,0.05233
3529.60391,0.05211
3527.67517,0.05179
3525.74642,0.05158
3523.81768,0.05131
3521.88893,0.05085
3519.96019,0.05045
3518.03144,0.05023
3516.10270,0.05003
3514.17395,0.04977
3512.24520,0.04942
3510.31646,0.04924
3508.38771,0.04930
3506.45897,0.04923
3504.53022,0.04878
3502.60148,0.04825
3500.67273,0.04800
3498.74399,0.04813
3496.81524,0.04827
3494.88650,0.04810
3492.95775,0.04786
3491.02901,0.04763
3489.10026,0.04720
3487.17152,0.04677
3485.24277,0.04667
3483.31402,0.04669
3481.38528,0.04666
3479.45653,0.04676
3477.52779,0.04691
3475.59904,0.04665
3473.67030,0.04608
3471.74155,0.04573
3469.81281,0.04564
3467.88406,0.04569
3465.95532,0.04581
3464.02657,0.04594
3462.09783,0.04615
3460.16908,0.04629
3458.24034,0.04611
3456.31159,0.04573
3454.38285,0.04544
3452.45410,0.04533
3450.52535,0.04536
3448.59661,0.04545
3446.66786,0.04539
3444.73912,0.04506
3442.81037,0.04465
3440.88163,0.04450
3438.95288,0.04453
3437.02414,0.04433
3435.09539,0.04411
3433.16665,0.04439
3431.23790,0.04482
3429.30916,0.04488
3427.38041,0.04470
3425.45167,0.04462
3423.52292,0.04476
3421.59418,0.04495
3419.66543,0.04496
3417.73668,0.04467
3415.80794,0.04417
3413.87919,0.04388
3411.95045,0.04408
3410.02170,0.04436
3408.09296,0.04436
3406.16421,0.04431
3404.23547,0.04439
3402.30672,0.04453
3400.37798,0.04467
3398.44923,0.04473
3396.52049,0.04466
3394.59174,0.04456
3392.66300,0.04459
3390.73425,0.04475
3388.80550,0.04476
3386.87676,0.04459
3384.94801,0.04424
3383.01927,0.04375
3381.09052,0.04375
3379.16178,0.04420
3377.23303,0.04434
3375.30429,0.04424
3373.37554,0.04433
3371.44680,0.04432
3369.51805,0.04409
3367.58931,0.04391
3365.66056,0.04380
3363.73182,0.04376
3361.80307,0.04381
3359.87433,0.04393
3357.94558,0.04422
3356.01683,0.04436
3354.08809,0.04407
3352.15934,0.04381
3350.23060,0.04384
3348.30185,0.04391
3346.37311,0.04407
3344.44436,0.04421
3342.51562,0.04413
3340.58687,0.04410
3338.65813,0.04430
3336.72938,0.04461
3334.80064,0.04491
3332.87189,0.04498
3330.94315,0.04473
3329.01440,0.04468
3327.08566,0.04507
3325.15691,0.04545
3323.22816,0.04536
3321.29942,0.04489
3319.37067,0.04455
3317.44193,0.04463
3315.51318,0.04477
3313.58444,0.04475
3311.65569,0.04485
3309.72695,0.04523
3307.79820,0.04573
3305.86946,0.04609
3303.94071,0.04617
3302.01197,0.04618
3300.08322,0.04624
3298.15448,0.04631
3296.22573,0.04641
3294.29698,0.04651
3292.36824,0.04645
3290.43949,0.04597
3288.51075,0.04536
3286.58200,0.04528
3284.65326,0.04567
3282.72451,0.04609
3280.79577,0.04646
3278.86702,0.04673
3276.93828,0.04670
3275.00953,0.04670
3273.08079,0.04709
3271.15204,0.04746
3269.22330,0.04753
3267.29455,0.04769
3265.36581,0.04786
3263.43706,0.04777
3261.50831,0.04779
3259.57957,0.04812
3257.65082,0.04854
3255.72208,0.04903
3253.79333,0.04968
3251.86459,0.05015
3249.93584,0.04999
3248.00710,0.04942
3246.07835,0.04904
3244.14961,0.04887
3242.22086,0.04878
3240.29212,0.04904
3238.36337,0.04948
3236.43463,0.04951
3234.50588,0.04913
3232.57713,0.04893
3230.64839,0.04916
3228.71964,0.04962
3226.79090,0.05002
3224.86215,0.05022
3222.93341,0.05054
3221.00466,0.05103
3219.07592,0.05127
3217.14717,0.05125
3215.21843,0.05126
3213.28968,0.05136
3211.36094,0.05152
3209.43219,0.05180
3207.50345,0.05210
3205.57470,0.05213
3203.64596,0.05203
3201.71721,0.05188
3199.78846,0.05178
3197.85972,0.05215
3195.93097,0.05290
3194.00223,0.05332
3192.07348,0.05320
3190.14474,0.05299
3188.21599,0.05302
3186.28725,0.05339
3184.35850,0.05399
3182.42976,0.05448
3180.50101,0.05464
3178.57227,0.05449
3176.64352,0.05429
3174.71478,0.05447
3172.78603,0.05501
3170.85729,0.05541
3168.92854,0.05547
3166.99979,0.05533
3165.07105,0.05515
3163.14230,0.05493
3161.21356,0.05486
3159.28481,0.05537
3157.35607,0.05609
3155.42732,0.05625
3153.49858,0.05611
3151.56983,0.05637
3149.64109,0.05693
3147.71234,0.05727
3145.78360,0.05717
3143.85485,0.05696
3141.92611,0.05706
3139.99736,0.05747
3138.06861,0.05790
3136.13987,0.05808
3134.21112,0.05823
3132.28238,0.05849
3130.35363,0.05866
3128.42489,0.05880
3126.49614,0.05894
3124.56740,0.05903
3122.63865,0.05910
3120.70991,0.05907
3118.78116,0.05894
3116.85242,0.05883
3114.92367,0.05882
3112.99493,0.05896
3111.06618,0.05918
3109.13744,0.05940
3107.20869,0.05958
3105.27994,0.05976
3103.35120,0.06009
3101.42245,0.06051
3099.49371,0.06079
3097.56496,0.06083
3095.63622,0.06078
3093.70747,0.06086
3091.77873,0.06093
3089.84998,0.06080
3087.92124,0.06075
3085.99249,0.06095
3084.06375,0.06122
3082.13500,0.06147
3080.20626,0.06154
3078.27751,0.06143
3076.34877,0.06134
3074.42002,0.06120
3072.49127,0.06104
3070.56253,0.06106
3068.63378,0.06118
3066.70504,0.06120
3064.77629,0.06122
3062.84755,0.06132
3060.91880,0.06142
3058.99006,0.06148
3057.06131,0.06146
3055.13257,0.06151
3053.20382,0.06176
3051.27508,0.06193
3049.34633,0.06185
3047.41759,0.06169
3045.48884,0.06158
3043.56009,0.06163
3041.63135,0.06188
3039.70260,0.06217
3037.77386,0.06222
3035.84511,0.06191
3033.91637,0.06156
3031.98762,0.06146
3030.05888,0.06149
3028.13013,0.06156
3026.20139,0.06169
3024.27264,0.06169
3022.34390,0.06147
3020.41515,0.06122
3018.48641,0.06102
3016.55766,0.06087
3014.62892,0.06070
3012.70017,0.06032
3010.77142,0.05981
3008.84268,0.05954
3006.91393,0.05951
3004.98519,0.05933
3003.05644,0.05897
3001.12770,0.05876
2999.19895,0.05870
2997.27021,0.05843
2995.34146,0.05773
2993.41272,0.05692
2991.48397,0.05641
2989.55523,0.05614
2987.62648,0.05585
2985.69774,0.05532
2983.76899,0.05444
2981.84025,0.05332
2979.91150,0.05224
2977.98275,0.05142
2976.05401,0.05076
2974.12526,0.05010
2972.19652,0.04946
2970.26777,0.04893
2968.33903,0.04860
2966.41028,0.04828
2964.48154,0.04778
2962.55279,0.04746
2960.62405,0.04762
2958.69530,0.04785
2956.76656,0.04785
2954.83781,0.04791
2952.90907,0.04825
2950.98032,0.04859
2949.05157,0.04854
2947.12283,0.04823
2945.19408,0.04789
2943.26534,0.04757
2941.33659,0.04746
2939.40785,0.04762
2937.47910,0.04775
2935.55036,0.04780
2933.62161,0.04811
2931.69287,0.04863
2929.76412,0.04928
2927.83538,0.05016
2925.90663,0.05116
2923.97789,0.05191
2922.04914,0.05235
2920.12040,0.05280
2918.19165,0.05348
2916.26290,0.05404
2914.33416,0.05409
2912.40541,0.05375
2910.47667,0.05336
2908.54792,0.05301
2906.61918,0.05277
2904.69043,0.05278
2902.76169,0.05283
2900.83294,0.05281
2898.90420,0.05275
2896.97545,0.05267
2895.04671,0.05269
2893.11796,0.05290
2891.18922,0.05314
2889.26047,0.05322
2887.33172,0.05313
2885.40298,0.05288
2883.47423,0.05257
2881.54549,0.05234
2879.61674,0.05222
2877.68800,0.05208
2875.75925,0.05204
2873.83051,0.05227
2871.90176,0.05248
2869.97302,0.05237
2868.04427,0.05227
2866.11553,0.05233
2864.18678,0.05245
2862.25804,0.05264
2860.32929,0.05277
2858.40055,0.05271
2856.47180,0.05288
2854.54305,0.05357
2852.61431,0.05459
2850.68556,0.05568
2848.75682,0.05654
2846.82807,0.05702
2844.89933,0.05734
2842.97058,0.05773
2841.04184,0.05805
2839.11309,0.05822
2837.18435,0.05849
2835.25560,0.05912
2833.32686,0.05997
2831.39811,0.06068
2829.46937,0.06121
2827.54062,0.06170
2825.61188,0.06225
2823.68313,0.06286
2821.75438,0.06337
2819.82564,0.06380
2817.89689,0.06429
2815.96815,0.06483
2814.03940,0.06541
2812.11066,0.06588
2810.18191,0.06611
2808.25317,0.06638
2806.32442,0.06675
2804.39568,0.06711
2802.46693,0.06753
2800.53819,0.06793
2798.60944,0.06829
2796.68070,0.06869
2794.75195,0.06897
2792.82320,0.06906
2790.89446,0.06925
2788.96571,0.06960
2787.03697,0.06995
2785.10822,0.07026
2783.17948,0.07043
2781.25073,0.07056
2779.32199,0.07094
2777.39324,0.07140
2775.46450,0.07162
2773.53575,0.07174
2771.60701,0.07205
2769.67826,0.07235
2767.74952,0.07232
2765.82077,0.07208
2763.89203,0.07203
2761.96328,0.07228
2760.03453,0.07263
2758.10579,0.07289
2756.17704,0.07305
2754.24830,0.07314
2752.31955,0.07315
2750.39081,0.07309
2748.46206,0.07285
2746.53332,0.07254
2744.60457,0.07247
2742.67583,0.07261
2740.74708,0.07271
2738.81834,0.07272
2736.88959,0.07270
2734.96085,0.07270
2733.03210,0.07259
2731.10336,0.07235
2729.17461,0.07229
2727.24586,0.07254
2725.31712,0.07293
2723.38837,0.07327
2721.45963,0.07344
2719.53088,0.07347
2717.60214,0.07352
2715.67339,0.07376
2713.74465,0.07413
2711.81590,0.07454
2709.88716,0.07492
2707.95841,0.07513
2706.02967,0.07519
2704.10092,0.07541
2702.17218,0.07581
2700.24343,0.07607
2698.31468,0.07617
2696.38594,0.07638
2694.45719,0.07676
2692.52845,0.07716
2690.59970,0.07736
2688.67096,0.07738
2686.74221,0.07750
2684.81347,0.07781
2682.88472,0.07808
2680.95598,0.07822
2679.02723,0.07830
2677.09849,0.07839
2675.16974,0.07860
2673.24100,0.07894
2671.31225,0.07926
2669.38351,0.07941
2667.45476,0.07951
2665.52601,0.07982
2663.59727,0.08030
2661.66852,0.08061
2659.73978,0.08064
2657.81103,0.08068
2655.88229,0.08088
2653.95354,0.08107
2652.02480,0.08121
2650.09605,0.08133
2648.16731,0.08149
2646.23856,0.08159
2644.30982,0.08167
2642.38107,0.08203
2640.45233,0.08260
2638.52358,0.08303
2636.59484,0.08322
2634.66609,0.08332
2632.73734,0.08346
2630.80860,0.08368
2628.87985,0.08385
2626.95111,0.08401
2625.02236,0.08444
2623.09362,0.08496
2621.16487,0.08517
2619.23613,0.08519
2617.30738,0.08526
2615.37864,0.08543
2613.44989,0.08577
2611.52115,0.08627
2609.59240,0.08679
2607.66366,0.08721
2605.73491,0.08729
2603.80616,0.08714
2601.87742,0.08721
2599.94867,0.08755
2598.01993,0.08778
2596.09118,0.08781
2594.16244,0.08790
2592.23369,0.08821
2590.30495,0.08851
2588.37620,0.08868
2586.44746,0.08882
2584.51871,0.08916
2582.58997,0.08965
2580.66122,0.09003
2578.73248,0.09021
2576.80373,0.09024
2574.87499,0.09028
2572.94624,0.09046
2571.01749,0.09071
2569.08875,0.09084
2567.16000,0.09094
2565.23126,0.09117
2563.30251,0.09139
2561.37377,0.09139
2559.44502,0.09125
2557.51628,0.09131
2555.58753,0.09150
2553.65879,0.09157
2551.73004,0.09157
2549.80130,0.09163
2547.87255,0.09178
2545.94381,0.09201
2544.01506,0.09219
2542.08631,0.09222
2540.15757,0.09227
2538.22882,0.09245
2536.30008,0.09253
2534.37133,0.09248
2532.44259,0.09254
2530.51384,0.09278
2528.58510,0.09310
2526.65635,0.09333
2524.72761,0.09342
2522.79886,0.09347
2520.87012,0.09356
2518.94137,0.09367
2517.01263,0.09387
2515.08388,0.09418
2513.15514,0.09451
2511.22639,0.09493
2509.29764,0.09549
2507.36890,0.09607
2505.44015,0.09650
2503.51141,0.09683
2501.58266,0.09712
2499.65392,0.09748
2497.72517,0.09805
2495.79643,0.09865
2493.86768,0.09925
2491.93894,0.09994
2490.01019,0.10050
2488.08145,0.10083
2486.15270,0.10111
2484.22396,0.10124
2482.29521,0.10123
2480.36647,0.10140
2478.43772,0.10181
2476.50897,0.10228
2474.58023,0.10283
2472.65148,0.10337
2470.72274,0.10362
2468.79399,0.10371
2466.86525,0.10392
2464.93650,0.10418
2463.00776,0.10440
2461.07901,0.10470
2459.15027,0.10514
2457.22152,0.10559
2455.29278,0.10590
2453.36403,0.10601
2451.43529,0.10610
2449.50654,0.10641
2447.57779,0.10694
2445.64905,0.10744
2443.72030,0.10779
2441.79156,0.10803
2439.86281,0.10833
2437.93407,0.10879
2436.00532,0.10918
2434.07658,0.10945
2432.14783,0.10980
2430.21909,0.11014
2428.29034,0.11037
2426.36160,0.11066
2424.43285,0.11111
2422.50411,0.11162
2420.57536,0.11218
2418.64662,0.11269
2416.71787,0.11298
2414.78912,0.11317
2412.86038,0.11345
2410.93163,0.11383
2409.00289,0.11418
2407.07414,0.11447
2405.14540,0.11476
2403.21665,0.11501
2401.28791,0.11530
2399.35916,0.11571
2397.43042,0.11619
2395.50167,0.11659
2393.57293,0.11693
2391.64418,0.11732
2389.71544,0.11778
2387.78669,0.11817
2385.85795,0.11844
2383.92920,0.11867
2382.00045,0.11899
2380.07171,0.11938
2378.14296,0.11968
2376.21422,0.11994
2374.28547,0.12027
2372.35673,0.12062
2370.42798,0.12099
2368.49924,0.12131
2366.57049,0.12145
2364.64175,0.12153
2362.71300,0.12181
2360.78426,0.12220
2358.85551,0.12253
2356.92677,0.12279
2354.99802,0.12304
2353.06927,0.12337
2351.14053,0.12366
2349.21178,0.12384
2347.28304,0.12408
2345.35429,0.12441
2343.42555,0.12470
2341.49680,0.12503
2339.56806,0.12531
2337.63931,0.12539
2335.71057,0.12544
2333.78182,0.12550
2331.85308,0.12549
2329.92433,0.12564
2327.99559,0.12608
2326.06684,0.12656
2324.13810,0.12684
2322.20935,0.12685
2320.28060,0.12671
2318.35186,0.12675
2316.42311,0.12704
2314.49437,0.12729
2312.56562,0.12732
2310.63688,0.12731
2308.70813,0.12743
2306.77939,0.12755
2304.85064,0.12757
2302.92190,0.12757
2300.99315,0.12758
2299.06441,0.12759
2297.13566,0.12765
2295.20692,0.12773
2293.27817,0.12774
2291.34943,0.12777
2289.42068,0.12794
2287.49193,0.12821
2285.56319,0.12842
2283.63444,0.12847
2281.70570,0.12843
2279.77695,0.12848
2277.84821,0.12859
2275.91946,0.12857
2273.99072,0.12839
2272.06197,0.12809
2270.13323,0.12769
2268.20448,0.12738
2266.27574,0.12727
2264.34699,0.12706
2262.41825,0.12666
2260.48950,0.12628
2258.56075,0.12611
2256.63201,0.12610
2254.70326,0.12605
2252.77452,0.12584
2250.84577,0.12558
2248.91703,0.12554
2246.98828,0.12566
2245.05954,0.12567
2243.13079,0.12548
2241.20205,0.12520
2239.27330,0.12503
2237.34456,0.12509
2235.41581,0.12524
2233.48707,0.12526
2231.55832,0.12533
2229.62958,0.12561
2227.70083,0.12584
2225.77208,0.12589
2223.84334,0.12590
2221.91459,0.12604
2219.98585,0.12633
2218.05710,0.12655
2216.12836,0.12662
2214.19961,0.12672
2212.27087,0.12690
2210.34212,0.12696
2208.41338,0.12685
2206.48463,0.12681
2204.55589,0.12694
2202.62714,0.12704
2200.69840,0.12683
2198.76965,0.12639
2196.84090,0.12596
2194.91216,0.12562
2192.98341,0.12530
2191.05467,0.12492
2189.12592,0.12450
2187.19718,0.12409
2185.26843,0.12376
2183.33969,0.12337
2181.41094,0.12280
2179.48220,0.12221
2177.55345,0.12171
2175.62471,0.12112
2173.69596,0.12037
2171.76722,0.11976
2169.83847,0.11937
2167.90973,0.11903
2165.98098,0.11866
2164.05223,0.11833
2162.12349,0.11806
2160.19474,0.11778
2158.26600,0.11743
2156.33725,0.11705
2154.40851,0.11676
2152.47976,0.11653
2150.55102,0.11630
2148.62227,0.11611
2146.69353,0.11605
2144.76478,0.11601
2142.83604,0.11584
2140.90729,0.11565
2138.97855,0.11564
2137.04980,0.11568
2135.12106,0.11566
2133.19231,0.11565
2131.26356,0.11576
2129.33482,0.11602
2127.40607,0.11639
2125.47733,0.11679
2123.54858,0.11715
2121.61984,0.11742
2119.69109,0.11760
2117.76235,0.11787
2115.83360,0.11827
2113.90486,0.11862
2111.97611,0.11889
2110.04737,0.11923
2108.11862,0.11955
2106.18988,0.11974
2104.26113,0.11989
2102.33238,0.12004
2100.40364,0.12026
2098.47489,0.12064
2096.54615,0.12112
2094.61740,0.12150
2092.68866,0.12175
2090.75991,0.12203
2088.83117,0.12238
2086.90242,0.12254
2084.97368,0.12255
2083.04493,0.12255
2081.11619,0.12253
2079.18744,0.12249
2077.25870,0.12244
2075.32995,0.12238
2073.40121,0.12225
2071.47246,0.12202
2069.54371,0.12187
2067.61497,0.12179
2065.68622,0.12167
2063.75748,0.12160
2061.82873,0.12160
2059.89999,0.12161
2057.97124,0.12163
2056.04250,0.12160
2054.11375,0.12154
2052.18501,0.12161
2050.25626,0.12181
2048.32752,0.12197
2046.39877,0.12209
2044.47003,0.12225
2042.54128,0.12244
2040.61254,0.12267
2038.68379,0.12302
2036.75504,0.12353
2034.82630,0.12409
2032.89755,0.12459
2030.96881,0.12506
2029.04006,0.12555
2027.11132,0.12622
2025.18257,0.12703
2023.25383,0.12769
2021.32508,0.12830
2019.39634,0.12912
2017.46759,0.13001
2015.53885,0.13082
2013.61010,0.13157
2011.68136,0.13224
2009.75261,0.13288
2007.82386,0.13347
2005.89512,0.13384
2003.96637,0.13411
2002.03763,0.13455
2000.10888,0.13510
1998.18014,0.13565
1996.25139,0.13623
1994.32265,0.13674
1992.39390,0.13706
1990.46516,0.13732
1988.53641,0.13767
1986.60767,0.13809
1984.67892,0.13857
1982.75018,0.13899
1980.82143,0.13928
1978.89269,0.13956
1976.96394,0.13989
1975.03519,0.14005
1973.10645,0.14001
1971.17770,0.13991
1969.24896,0.13976
1967.32021,0.13972
1965.39147,0.13986
1963.46272,0.14002
1961.53398,0.14009
1959.60523,0.14004
1957.67649,0.13996
1955.74774,0.14001
1953.81900,0.14019
1951.89025,0.14041
1949.96151,0.14062
1948.03276,0.14075
1946.10402,0.14081
1944.17527,0.14090
1942.24652,0.14109
1940.31778,0.14125
1938.38903,0.14134
1936.46029,0.14153
1934.53154,0.14186
1932.60280,0.14224
1930.67405,0.14260
1928.74531,0.14278
1926.81656,0.14267
1924.88782,0.14244
1922.95907,0.14221
1921.03033,0.14187
1919.10158,0.14148
1917.17284,0.14123
1915.24409,0.14110
1913.31534,0.14096
1911.38660,0.14076
1909.45785,0.14053
1907.52911,0.14034
1905.60036,0.14028
1903.67162,0.14031
1901.74287,0.14040
1899.81413,0.14061
1897.88538,0.14078
1895.95664,0.14076
1894.02789,0.14066
1892.09915,0.14064
1890.17040,0.14069
1888.24166,0.14081
1886.31291,0.14094
1884.38417,0.14097
1882.45542,0.14095
1880.52667,0.14093
1878.59793,0.14087
1876.66918,0.14088
1874.74044,0.14098
1872.81169,0.14099
1870.88295,0.14085
1868.95420,0.14070
1867.02546,0.14065
1865.09671,0.14055
1863.16797,0.14035
1861.23922,0.14020
1859.31048,0.14006
1857.38173,0.13980
1855.45299,0.13951
1853.52424,0.13928
1851.59549,0.13907
1849.66675,0.13875
1847.73800,0.13830
1845.80926,0.13790
1843.88051,0.13765
1841.95177,0.13739
1840.02302,0.13704
1838.09428,0.13658
1836.16553,0.13617
1834.23679,0.13591
1832.30804,0.13559
1830.37930,0.13504
1828.45055,0.13449
1826.52181,0.13411
1824.59306,0.13368
1822.66432,0.13307
1820.73557,0.13242
1818.80682,0.13186
1816.87808,0.13131
1814.94933,0.13058
1813.02059,0.12968
1811.09184,0.12860
1809.16310,0.12733
1807.23435,0.12594
1805.30561,0.12460
1803.37686,0.12329
1801.44812,0.12177
1799.51937,0.12001
1797.59063,0.11830
1795.66188,0.11692
1793.73314,0.11579
1791.80439,0.11469
1789.87565,0.11357
1787.94690,0.11248
1786.01815,0.11124
1784.08941,0.10962
1782.16066,0.10777
1780.23192,0.10595
1778.30317,0.10402
1776.37443,0.10192
1774.44568,0.09965
1772.51694,0.09699
1770.58819,0.09402
1768.65945,0.09103
1766.73070,0.08809
1764.80196,0.08528
1762.87321,0.08254
1760.94447,0.08002
1759.01572,0.07788
1757.08697,0.07591
1755.15823,0.07413
1753.22948,0.07274
1751.30074,0.07148
1749.37199,0.07013
1747.44325,0.06886
1745.51450,0.06782
1743.58576,0.06704
1741.65701,0.06649
1739.72827,0.06602
1737.79952,0.06560
1735.87078,0.06540
1733.94203,0.06552
1732.01329,0.06575
1730.08454,0.06590
1728.15580,0.06610
1726.22705,0.06641
1724.29830,0.06667
1722.36956,0.06674
1720.44081,0.06681
1718.51207,0.06694
1716.58332,0.06699
1714.65458,0.06688
1712.72583,0.06679
1710.79709,0.06682
1708.86834,0.06686
1706.93960,0.06675
1705.01085,0.06635
1703.08211,0.06588
1701.15336,0.06554
1699.22462,0.06530
1697.29587,0.06514
1695.36713,0.06484
1693.43838,0.06428
1691.50963,0.06374
1689.58089,0.06334
1687.65214,0.06303
1685.72340,0.06261
1683.79465,0.06198
1681.86591,0.06142
1679.93716,0.06098
1678.00842,0.06054
1676.07967,0.06007
1674.15093,0.05961
1672.22218,0.05912
1670.29344,0.05858
1668.36469,0.05807
1666.43595,0.05772
1664.50720,0.05748
1662.57845,0.05720
1660.64971,0.05695
1658.72096,0.05686
1656.79222,0.05686
1654.86347,0.05683
1652.93473,0.05656
1651.00598,0.05631
1649.07724,0.05633
1647.14849,0.05625
1645.21975,0.05590
1643.29100,0.05558
1641.36226,0.05544
1639.43351,0.05538
1637.50477,0.05521
1635.57602,0.05486
1633.64728,0.05462
1631.71853,0.05456
1629.78978,0.05447
1627.86104,0.05423
1625.93229,0.05389
1624.00355,0.05350
1622.07480,0.05308
1620.14606,0.05271
1618.21731,0.05252
1616.28857,0.05236
1614.35982,0.05206
1612.43108,0.05170
1610.50233,0.05131
1608.57359,0.05097
1606.64484,0.05072
1604.71610,0.05046
1602.78735,0.05017
1600.85861,0.04990
1598.92986,0.04984
1597.00111,0.05000
1595.07237,0.05011
1593.14362,0.05013
1591.21488,0.05039
1589.28613,0.05099
1587.35739,0.05162
1585.42864,0.05202
1583.49990,0.05231
1581.57115,0.05263
1579.64241,0.05295
1577.71366,0.05329
1575.78492,0.05382
1573.85617,0.05439
1571.92743,0.05468
1569.99868,0.05482
1568.06993,0.05511
1566.14119,0.05553
1564.21244,0.05587
1562.28370,0.05606
1560.35495,0.05619
1558.42621,0.05641
1556.49746,0.05682
1554.56872,0.05721
1552.63997,0.05752
1550.71123,0.05783
1548.78248,0.05822
1546.85374,0.05873
1544.92499,0.05933
1542.99625,0.05982
1541.06750,0.06006
1539.13876,0.06019
1537.21001,0.06034
1535.28126,0.06052
1533.35252,0.06059
1531.42377,0.06039
1529.49503,0.06005
1527.56628,0.05967
1525.63754,0.05901
1523.70879,0.05802
1521.78005,0.05687
1519.85130,0.05581
1517.92256,0.05479
1515.99381,0.05367
1514.06507,0.05270
1512.13632,0.05214
1510.20758,0.05191
1508.27883,0.05185
1506.35008,0.05195
1504.42134,0.05221
1502.49259,0.05256
1500.56385,0.05296
1498.63510,0.05323
1496.70636,0.05331
1494.77761,0.05354
1492.84887,0.05384
1490.92012,0.05384
1488.99138,0.05339
1487.06263,0.05261
1485.13389,0.05180
1483.20514,0.05119
1481.27640,0.05067
1479.34765,0.04995
1477.41891,0.04905
1475.49016,0.04814
1473.56141,0.04717
1471.63267,0.04602
1469.70392,0.04511
1467.77518,0.04472
1465.84643,0.04476
1463.91769,0.04509
1461.98894,0.04537
1460.06020,0.04558
1458.13145,0.04586
1456.20271,0.04611
1454.27396,0.04622
1452.34522,0.04635
1450.41647,0.04651
1448.48773,0.04668
1446.55898,0.04692
1444.63024,0.04715
1442.70149,0.04722
1440.77274,0.04712
1438.84400,0.04697
1436.91525,0.04680
1434.98651,0.04660
1433.05776,0.04644
1431.12902,0.04630
1429.20027,0.04617
1427.27153,0.04619
1425.34278,0.04655
1423.41404,0.04715
1421.48529,0.04771
1419.55655,0.04808
1417.62780,0.04825
1415.69906,0.04838
1413.77031,0.04862
1411.84156,0.04889
1409.91282,0.04915
1407.98407,0.04946
1406.05533,0.04958
1404.12658,0.04927
1402.19784,0.04898
1400.26909,0.04900
1398.34035,0.04897
1396.41160,0.04876
1394.48286,0.04853
1392.55411,0.04825
1390.62537,0.04782
1388.69662,0.04727
1386.76788,0.04661
1384.83913,0.04591
1382.91039,0.04535
1380.98164,0.04490
1379.05289,0.04451
1377.12415,0.04440
1375.19540,0.04467
1373.26666,0.04503
1371.33791,0.04519
1369.40917,0.04523
1367.48042,0.04531
1365.55168,0.04555
1363.62293,0.04591
1361.69419,0.04611
1359.76544,0.04601
1357.83670,0.04586
1355.90795,0.04586
1353.97921,0.04598
1352.05046,0.04618
1350.12172,0.04635
1348.19297,0.04631
1346.26422,0.04603
1344.33548,0.04568
1342.40673,0.04543
1340.47799,0.04531
1338.54924,0.04523
1336.62050,0.04519
1334.69175,0.04511
1332.76301,0.04495
1330.83426,0.04485
1328.90552,0.04482
1326.97677,0.04481
1325.04803,0.04485
1323.11928,0.04488
1321.19054,0.04496
1319.26179,0.04518
1317.33304,0.04540
1315.40430,0.04556
1313.47555,0.04576
1311.54681,0.04609
1309.61806,0.04652
1307.68932,0.04699
1305.76057,0.04744
1303.83183,0.04782
1301.90308,0.04800
1299.97434,0.04796
1298.04559,0.04783
1296.11685,0.04777
1294.18810,0.04770
1292.25936,0.04744
1290.33061,0.04701
1288.40187,0.04664
1286.47312,0.04642
1284.54437,0.04630
1282.61563,0.04615
1280.68688,0.04591
1278.75814,0.04580
1276.82939,0.04601
1274.90065,0.04637
1272.97190,0.04660
1271.04316,0.04646
1269.11441,0.04617
1267.18567,0.04602
1265.25692,0.04597
1263.32818,0.04590
1261.39943,0.04595
1259.47069,0.04614
1257.54194,0.04627
1255.61320,0.04622
1253.68445,0.04609
1251.75570,0.04596
1249.82696,0.04585
1247.89821,0.04575
1245.96947,0.04576
1244.04072,0.04591
1242.11198,0.04607
1240.18323,0.04609
1238.25449,0.04601
1236.32574,0.04592
1234.39700,0.04590
1232.46825,0.04609
1230.53951,0.04640
1228.61076,0.04651
1226.68202,0.04646
1224.75327,0.04654
1222.82452,0.04689
1220.89578,0.04729
1218.96703,0.04751
1217.03829,0.04760
1215.10954,0.04759
1213.18080,0.04742
1211.25205,0.04729
1209.32331,0.04727
1207.39456,0.04735
1205.46582,0.04759
1203.53707,0.04782
1201.60833,0.04778
1199.67958,0.04780
1197.75084,0.04826
1195.82209,0.04876
1193.89335,0.04875
1191.96460,0.04841
1190.03585,0.04819
1188.10711,0.04833
1186.17836,0.04864
1184.24962,0.04870
1182.32087,0.04843
1180.39213,0.04803
1178.46338,0.04748
1176.53464,0.04670
1174.60589,0.04596
1172.67715,0.04554
1170.74840,0.04505
1168.81966,0.04423
1166.89091,0.04357
1164.96217,0.04339
1163.03342,0.04342
1161.10467,0.04335
1159.17593,0.04313
1157.24718,0.04301
1155.31844,0.04293
1153.38969,0.04266
1151.46095,0.04226
1149.53220,0.04186
1147.60346,0.04161
1145.67471,0.04144
1143.74597,0.04105
1141.81722,0.04038
1139.88848,0.03959
1137.95973,0.03888
1136.03099,0.03840
1134.10224,0.03801
1132.17350,0.03760
1130.24475,0.03743
1128.31600,0.03739
1126.38726,0.03721
1124.45851,0.03705
1122.52977,0.03706
1120.60102,0.03715
1118.67228,0.03729
1116.74353,0.03746
1114.81479,0.03784
1112.88604,0.03855
1110.95730,0.03928
1109.02855,0.03991
1107.09981,0.04037
1105.17106,0.04033
1103.24232,0.03993
1101.31357,0.03948
1099.38483,0.03904
1097.45608,0.03877
1095.52733,0.03885
1093.59859,0.03905
1091.66984,0.03927
1089.74110,0.03955
1087.81235,0.03967
1085.88361,0.03958
1083.95486,0.03968
1082.02612,0.04013
1080.09737,0.04081
1078.16863,0.04158
1076.23988,0.04234
1074.31114,0.04332
1072.38239,0.04466
1070.45365,0.04612
1068.52490,0.04775
1066.59615,0.04980
1064.66741,0.05231
1062.73866,0.05507
1060.80992,0.05749
1058.88117,0.05927
1056.95243,0.06068
1055.02368,0.06152
1053.09494,0.06144
1051.16619,0.06061
1049.23745,0.05955
1047.30870,0.05845
1045.37996,0.05753
1043.45121,0.05748
1041.52247,0.05840
1039.59372,0.05992
1037.66498,0.06174
1035.73623,0.06355
1033.80748,0.06519
1031.87874,0.06650
1029.94999,0.06719
1028.02125,0.06721
1026.09250,0.06693
1024.16376,0.06672
1022.23501,0.06660
1020.30627,0.06638
1018.37752,0.06613
1016.44878,0.06609
1014.52003,0.06633
1012.59129,0.06658
1010.66254,0.06655
1008.73380,0.06625
1006.80505,0.06605
1004.87631,0.06604
1002.94756,0.06592
1001.01881,0.06568
999.09007,0.06566
997.16132,0.06602
995.23258,0.06661
993.30383,0.06725
991.37509,0.06777
989.44634,0.06809
987.51760,0.06829
985.58885,0.06869
983.66011,0.06945
981.73136,0.07033
979.80262,0.07107
977.87387,0.07171
975.94513,0.07220
974.01638,0.07244
972.08763,0.07268
970.15889,0.07303
968.23014,0.07335
966.30140,0.07384
964.37265,0.07461
962.44391,0.07532
960.51516,0.07588
958.58642,0.07649
956.65767,0.07718
954.72893,0.07781
952.80018,0.07816
950.87144,0.07820
948.94269,0.07810
947.01395,0.07826
945.08520,0.07880
943.15646,0.07923
941.22771,0.07918
939.29896,0.07887
937.37022,0.07866
935.44147,0.07866
933.51273,0.07859
931.58398,0.07821
929.65524,0.07779
927.72649,0.07779
925.79775,0.07795
923.86900,0.07765
921.94026,0.07686
920.01151,0.07614
918.08277,0.07570
916.15402,0.07533
914.22528,0.07490
912.29653,0.07426
910.36779,0.07315
908.43904,0.07175
906.51029,0.07041
904.58155,0.06925
902.65280,0.06831
900.72406,0.06774
898.79531,0.06756
896.86657,0.06776
894.93782,0.06843
893.00908,0.06933
891.08033,0.07009
889.15159,0.07069
887.22284,0.07123
885.29410,0.07152
883.36535,0.07157
881.43661,0.07165
879.50786,0.07167
877.57911,0.07163
875.65037,0.07175
873.72162,0.07190
871.79288,0.07181
869.86413,0.07159
867.93539,0.07152
866.00664,0.07173
864.07790,0.07211
862.14915,0.07237
860.22041,0.07228
858.29166,0.07180
856.36292,0.07118
854.43417,0.07105
852.50543,0.07155
850.57668,0.07194
848.64794,0.07186
846.71919,0.07162
844.79044,0.07150
842.86170,0.07126
840.93295,0.07080
839.00421,0.07053
837.07546,0.07049
835.14672,0.07023
833.21797,0.06961
831.28923,0.06893
829.36048,0.06851
827.43174,0.06820
825.50299,0.06773
823.57425,0.06717
821.64550,0.06666
819.71676,0.06623
817.78801,0.06580
815.85926,0.06533
813.93052,0.06509
812.00177,0.06527
810.07303,0.06556
808.14428,0.06573
806.21554,0.06584
804.28679,0.06590
802.35805,0.06582
800.42930,0.06561
798.50056,0.06534
796.57181,0.06524
794.64307,0.06530
792.71432,0.06534
790.78558,0.06521
788.85683,0.06482
786.92809,0.06438
784.99934,0.06414
783.07059,0.06379
781.14185,0.06307
779.21310,0.06243
777.28436,0.06227
775.35561,0.06227
773.42687,0.06218
771.49812,0.06208
769.56938,0.06177
767.64063,0.06119
765.71189,0.06061
763.78314,0.06016
761.85440,0.05987
759.92565,0.05966
757.99691,0.05940
756.06816,0.05909
754.13942,0.05859
752.21067,0.05797
750.28192,0.05752
748.35318,0.05718
746.42443,0.05699
744.49569,0.05701
742.56694,0.05684
740.63820,0.05619
738.70945,0.05545
736.78071,0.05512
734.85196,0.05507
732.92322,0.05454
730.99447,0.05351
729.06573,0.05269
727.13698,0.05249
725.20824,0.05272
723.27949,0.05285
721.35074,0.05254
719.42200,0.05224
717.49325,0.05241
715.56451,0.05270
713.63576,0.05254
711.70702,0.05203
709.77827,0.05159
707.84953,0.05117
705.92078,0.05074
703.99204,0.05064
702.06329,0.05099
700.13455,0.05126
698.20580,0.05128
696.27706,0.05140
694.34831,0.05149
692.41957,0.05121
690.49082,0.05076
688.56207,0.05055
686.63333,0.05073
684.70458,0.05095
682.77584,0.05108
680.84709,0.05133
678.91835,0.05114
676.98960,0.05020
675.06086,0.04942
673.13211,0.04939
671.20337,0.04969
669.27462,0.04982
667.34588,0.04983
665.41713,0.05026
663.48839,0.05091
661.55964,0.05133
659.63090,0.05159
657.70215,0.05145
655.77340,0.05088
653.84466,0.05032
651.91591,0.04986
649.98717,0.04965
648.05842,0.04991
646.12968,0.05042
644.20093,0.05068
642.27219,0.05012
640.34344,0.04888
638.41470,0.04810
636.48595,0.04826
634.55721,0.04848
632.62846,0.04860
630.69972,0.04862
628.77097,0.04816
626.84222,0.04772
624.91348,0.04810
622.98473,0.04909
621.05599,0.05014
619.12724,0.05110
617.19850,0.05176
615.26975,0.05170
613.34101,0.05117
611.41226,0.05124
609.48352,0.05201
607.55477,0.05241
605.62603,0.05255
603.69728,0.05309
601.76854,0.05385
599.83979,0.05470
