7497.03301,0.17128
7495.10426,0.17060
7493.17552,0.17061
7491.24677,0.17284
7489.31803,0.17437
7487.38928,0.17355
7485.46054,0.17133
7483.53179,0.16714
7481.60305,0.16374
7479.67430,0.16493
7477.74556,0.16876
7475.81681,0.17043
7473.88807,0.17019
7471.95932,0.17088
7470.03057,0.17110
7468.10183,0.17039
7466.17308,0.17028
7464.24434,0.17074
7462.31559,0.17214
7460.38685,0.17478
7458.45810,0.17674
7456.52936,0.17450
7454.60061,0.16923
7452.67187,0.16703
7450.74312,0.16904
7448.81438,0.17027
7446.88563,0.16818
7444.95689,0.16663
7443.02814,0.16765
7441.09940,0.16938
7439.17065,0.17124
7437.24190,0.17184
7435.31316,0.17105
7433.38441,0.17295
7431.45567,0.17690
7429.52692,0.17854
7427.59818,0.17837
7425.66943,0.17657
7423.74069,0.17293
7421.81194,0.17188
7419.88320,0.17433
7417.95445,0.17700
7416.02571,0.17753
7414.09696,0.17636
7412.16822,0.17601
7410.23947,0.17583
7408.31073,0.17578
7406.38198,0.17729
7404.45323,0.17683
7402.52449,0.17438
7400.59574,0.17526
7398.66700,0.17836
7396.73825,0.17970
7394.80951,0.17884
7392.88076,0.17610
7390.95202,0.17327
7389.02327,0.17111
7387.09453,0.16862
7385.16578,0.16791
7383.23704,0.17015
7381.30829,0.17360
7379.37955,0.17640
7377.45080,0.17537
7375.52205,0.17047
7373.59331,0.16702
7371.66456,0.16826
7369.73582,0.17255
7367.80707,0.17727
7365.87833,0.17968
7363.94958,0.17805
7362.02084,0.17364
7360.09209,0.16967
7358.16335,0.16812
7356.23460,0.16851
7354.30586,0.17063
7352.37711,0.17296
7350.44837,0.17271
7348.51962,0.17184
7346.59088,0.17424
7344.66213,0.17838
7342.73338,0.17911
7340.80464,0.17480
7338.87589,0.17052
7336.94715,0.17155
7335.01840,0.17567
7333.08966,0.17807
7331.16091,0.17759
7329.23217,0.17470
7327.30342,0.17151
7325.37468,0.17090
7323.44593,0.17228
7321.51719,0.17407
7319.58844,0.17590
7317.65970,0.17656
7315.73095,0.17551
7313.80221,0.17512
7311.87346,0.17475
7309.94471,0.17208
7308.01597,0.17110
7306.08722,0.17428
7304.15848,0.17648
7302.22973,0.17589
7300.30099,0.17615
7298.37224,0.17736
7296.44350,0.17779
7294.51475,0.17836
7292.58601,0.17852
7290.65726,0.17803
7288.72852,0.17788
7286.79977,0.17643
7284.87103,0.17412
7282.94228,0.17475
7281.01353,0.17707
7279.08479,0.17590
7277.15604,0.17121
7275.22730,0.16756
7273.29855,0.16599
7271.36981,0.16596
7269.44106,0.16976
7267.51232,0.17629
7265.58357,0.17873
7263.65483,0.17579
7261.72608,0.17427
7259.79734,0.17674
7257.86859,0.17906
7255.93985,0.17795
7254.01110,0.17465
7252.08236,0.17356
7250.15361,0.17523
7248.22486,0.17780
7246.29612,0.18196
7244.36737,0.18652
7242.43863,0.18739
7240.50988,0.18295
7238.58114,0.17758
7236.65239,0.17656
7234.72365,0.17693
7232.79490,0.17536
7230.86616,0.17526
7228.93741,0.17606
7227.00867,0.17392
7225.07992,0.17293
7223.15118,0.17697
7221.22243,0.18101
7219.29369,0.18143
7217.36494,0.18069
7215.43619,0.18173
7213.50745,0.18450
7211.57870,0.18461
7209.64996,0.18071
7207.72121,0.17866
7205.79247,0.18020
7203.86372,0.17880
7201.93498,0.17519
7200.00623,0.17454
7198.07749,0.17493
7196.14874,0.17597
7194.22000,0.17956
7192.29125,0.18320
7190.36251,0.18348
7188.43376,0.18019
7186.50501,0.17759
7184.57627,0.17764
7182.64752,0.17590
7180.71878,0.17270
7178.79003,0.17548
7176.86129,0.18292
7174.93254,0.18695
7173.00380,0.18630
7171.07505,0.18315
7169.14631,0.17904
7167.21756,0.17654
7165.28882,0.17748
7163.36007,0.18131
7161.43133,0.18358
7159.50258,0.18095
7157.57384,0.17664
7155.64509,0.17539
7153.71634,0.17758
7151.78760,0.17978
7149.85885,0.18030
7147.93011,0.18107
7146.00136,0.18252
7144.07262,0.18305
7142.14387,0.18137
7140.21513,0.17756
7138.28638,0.17414
7136.35764,0.17367
7134.42889,0.17666
7132.50015,0.18010
7130.57140,0.18069
7128.64266,0.17976
7126.71391,0.17941
7124.78516,0.18042
7122.85642,0.18190
7120.92767,0.18200
7118.99893,0.18016
7117.07018,0.17708
7115.14144,0.17548
7113.21269,0.17684
7111.28395,0.17964
7109.35520,0.18270
7107.42646,0.18480
7105.49771,0.18402
7103.56897,0.18089
7101.64022,0.17940
7099.71148,0.18101
7097.78273,0.18311
7095.85399,0.18397
7093.92524,0.18395
7091.99649,0.18359
7090.06775,0.18227
7088.13900,0.18095
7086.21026,0.18079
7084.28151,0.17982
7082.35277,0.17759
7080.42402,0.17673
7078.49528,0.17824
7076.56653,0.17996
7074.63779,0.18005
7072.70904,0.17861
7070.78030,0.17716
7068.85155,0.17724
7066.92281,0.17890
7064.99406,0.18141
7063.06532,0.18269
7061.13657,0.18183
7059.20782,0.18068
7057.27908,0.17961
7055.35033,0.17926
7053.42159,0.18049
7051.49284,0.18199
7049.56410,0.18373
7047.63535,0.18594
7045.70661,0.18661
7043.77786,0.18460
7041.84912,0.18122
7039.92037,0.17894
7037.99163,0.17922
7036.06288,0.18179
7034.13414,0.18444
7032.20539,0.18412
7030.27664,0.18183
7028.34790,0.18171
7026.41915,0.18339
7024.49041,0.18400
7022.56166,0.18415
7020.63292,0.18409
7018.70417,0.18169
7016.77543,0.17848
7014.84668,0.17645
7012.91794,0.17429
7010.98919,0.17388
7009.06045,0.17632
7007.13170,0.17794
7005.20296,0.17927
7003.27421,0.18267
7001.34547,0.18547
6999.41672,0.18499
6997.48797,0.18201
6995.55923,0.17844
6993.63048,0.17635
6991.70174,0.17605
6989.77299,0.17597
6987.84425,0.17654
6985.91550,0.17911
6983.98676,0.18175
6982.05801,0.18183
6980.12927,0.17988
6978.20052,0.17836
6976.27178,0.17817
6974.34303,0.17809
6972.41429,0.17655
6970.48554,0.17436
6968.55680,0.17486
6966.62805,0.17870
6964.69930,0.18183
6962.77056,0.18205
6960.84181,0.18172
6958.91307,0.18246
6956.98432,0.18320
6955.05558,0.18280
6953.12683,0.18166
6951.19809,0.18180
6949.26934,0.18407
6947.34060,0.18623
6945.41185,0.18617
6943.48311,0.18449
6941.55436,0.18255
6939.62562,0.18178
6937.69687,0.18259
6935.76812,0.18208
6933.83938,0.17942
6931.91063,0.17795
6929.98189,0.17798
6928.05314,0.17874
6926.12440,0.18125
6924.19565,0.18290
6922.26691,0.18172
6920.33816,0.18106
6918.40942,0.18228
6916.48067,0.18430
6914.55193,0.18710
6912.62318,0.18806
6910.69444,0.18528
6908.76569,0.18235
6906.83695,0.18277
6904.90820,0.18510
6902.97945,0.18602
6901.05071,0.18472
6899.12196,0.18236
6897.19322,0.18093
6895.26447,0.18185
6893.33573,0.18381
6891.40698,0.18544
6889.47824,0.18746
6887.54949,0.18918
6885.62075,0.18782
6883.69200,0.18425
6881.76326,0.18267
6879.83451,0.18334
6877.90577,0.18376
6875.97702,0.18279
6874.04828,0.18116
6872.11953,0.18069
6870.19078,0.18097
6868.26204,0.18089
6866.33329,0.18231
6864.40455,0.18564
6862.47580,0.18742
6860.54706,0.18671
6858.61831,0.18713
6856.68957,0.18973
6854.76082,0.19060
6852.83208,0.18835
6850.90333,0.18562
6848.97459,0.18321
6847.04584,0.18129
6845.11710,0.18110
6843.18835,0.18187
6841.25960,0.18231
6839.33086,0.18255
6837.40211,0.18280
6835.47337,0.18344
6833.54462,0.18443
6831.61588,0.18589
6829.68713,0.18828
6827.75839,0.19095
6825.82964,0.19230
6823.90090,0.19117
6821.97215,0.18904
6820.04341,0.18850
6818.11466,0.18925
6816.18592,0.18938
6814.25717,0.18846
6812.32843,0.18784
6810.39968,0.18804
6808.47093,0.18740
6806.54219,0.18619
6804.61344,0.18649
6802.68470,0.18780
6800.75595,0.18915
6798.82721,0.19029
6796.89846,0.18976
6794.96972,0.18797
6793.04097,0.18771
6791.11223,0.18884
6789.18348,0.18914
6787.25474,0.18887
6785.32599,0.18871
6783.39725,0.18857
6781.46850,0.18840
6779.53975,0.18780
6777.61101,0.18842
6775.68226,0.18994
6773.75352,0.18905
6771.82477,0.18741
6769.89603,0.18722
6767.96728,0.18680
6766.03854,0.18603
6764.10979,0.18553
6762.18105,0.18482
6760.25230,0.18473
6758.32356,0.18697
6756.39481,0.19055
6754.46607,0.19330
6752.53732,0.19509
6750.60858,0.19559
6748.67983,0.19360
6746.75108,0.18980
6744.82234,0.18696
6742.89359,0.18746
6740.96485,0.18962
6739.03610,0.18961
6737.10736,0.18822
6735.17861,0.18864
6733.24987,0.18888
6731.32112,0.18649
6729.39238,0.18526
6727.46363,0.18759
6725.53489,0.18876
6723.60614,0.18666
6721.67740,0.18566
6719.74865,0.18774
6717.81991,0.18986
6715.89116,0.19028
6713.96241,0.18978
6712.03367,0.18825
6710.10492,0.18649
6708.17618,0.18611
6706.24743,0.18567
6704.31869,0.18426
6702.38994,0.18367
6700.46120,0.18438
6698.53245,0.18502
6696.60371,0.18501
6694.67496,0.18554
6692.74622,0.18823
6690.81747,0.19189
6688.88873,0.19278
6686.95998,0.19144
6685.03123,0.19162
6683.10249,0.19303
6681.17374,0.19362
6679.24500,0.19292
6677.31625,0.19230
6675.38751,0.19282
6673.45876,0.19234
6671.53002,0.19003
6669.60127,0.18823
6667.67253,0.18828
6665.74378,0.18963
6663.81504,0.19003
6661.88629,0.18877
6659.95755,0.18870
6658.02880,0.19074
6656.10006,0.19244
6654.17131,0.19270
6652.24256,0.19235
6650.31382,0.19158
6648.38507,0.19058
6646.45633,0.19060
6644.52758,0.19170
6642.59884,0.19290
6640.67009,0.19381
6638.74135,0.19369
6636.81260,0.19309
6634.88386,0.19255
6632.95511,0.19144
6631.02637,0.19152
6629.09762,0.19356
6627.16888,0.19439
6625.24013,0.19286
6623.31139,0.19199
6621.38264,0.19386
6619.45389,0.19621
6617.52515,0.19678
6615.59640,0.19627
6613.66766,0.19513
6611.73891,0.19382
6609.81017,0.19396
6607.88142,0.19542
6605.95268,0.19652
6604.02393,0.19719
6602.09519,0.19730
6600.16644,0.19579
6598.23770,0.19430
6596.30895,0.19463
6594.38021,0.19532
6592.45146,0.19538
6590.52271,0.19464
6588.59397,0.19390
6586.66522,0.19492
6584.73648,0.19641
6582.80773,0.19725
6580.87899,0.19809
6578.95024,0.19846
6577.02150,0.19831
6575.09275,0.19787
6573.16401,0.19669
6571.23526,0.19513
6569.30652,0.19468
6567.37777,0.19610
6565.44903,0.19776
6563.52028,0.19767
6561.59154,0.19596
6559.66279,0.19465
6557.73404,0.19531
6555.80530,0.19739
6553.87655,0.19826
6551.94781,0.19632
6550.01906,0.19477
6548.09032,0.19628
6546.16157,0.19762
6544.23283,0.19680
6542.30408,0.19654
6540.37534,0.19760
6538.44659,0.19850
6536.51785,0.19923
6534.58910,0.19909
6532.66036,0.19753
6530.73161,0.19647
6528.80287,0.19747
6526.87412,0.19974
6524.94537,0.20127
6523.01663,0.20232
6521.08788,0.20439
6519.15914,0.20492
6517.23039,0.20188
6515.30165,0.19907
6513.37290,0.19916
6511.44416,0.19965
6509.51541,0.19889
6507.58667,0.19895
6505.65792,0.20046
6503.72918,0.20220
6501.80043,0.20417
6499.87169,0.20506
6497.94294,0.20398
6496.01419,0.20296
6494.08545,0.20246
6492.15670,0.20228
6490.22796,0.20264
6488.29921,0.20168
6486.37047,0.19943
6484.44172,0.19868
6482.51298,0.19889
6480.58423,0.19795
6478.65549,0.19775
6476.72674,0.19988
6474.79800,0.20153
6472.86925,0.20107
6470.94051,0.20018
6469.01176,0.19986
6467.08302,0.20023
6465.15427,0.20188
6463.22552,0.20432
6461.29678,0.20612
6459.36803,0.20679
6457.43929,0.20678
6455.51054,0.20660
6453.58180,0.20634
6451.65305,0.20519
6449.72431,0.20286
6447.79556,0.20095
6445.86682,0.20076
6443.93807,0.20163
6442.00933,0.20213
6440.08058,0.20195
6438.15184,0.20156
6436.22309,0.20062
6434.29434,0.20027
6432.36560,0.20220
6430.43685,0.20465
6428.50811,0.20596
6426.57936,0.20620
6424.65062,0.20493
6422.72187,0.20341
6420.79313,0.20349
6418.86438,0.20413
6416.93564,0.20377
6415.00689,0.20355
6413.07815,0.20485
6411.14940,0.20607
6409.22066,0.20593
6407.29191,0.20554
6405.36317,0.20531
6403.43442,0.20515
6401.50567,0.20506
6399.57693,0.20400
6397.64818,0.20305
6395.71944,0.20454
6393.79069,0.20678
6391.86195,0.20696
6389.93320,0.20584
6388.00446,0.20572
6386.07571,0.20697
6384.14697,0.20780
6382.21822,0.20743
6380.28948,0.20682
6378.36073,0.20652
6376.43199,0.20659
6374.50324,0.20697
6372.57450,0.20718
6370.64575,0.20717
6368.71700,0.20734
6366.78826,0.20762
6364.85951,0.20769
6362.93077,0.20741
6361.00202,0.20675
6359.07328,0.20627
6357.14453,0.20725
6355.21579,0.20876
6353.28704,0.20847
6351.35830,0.20775
6349.42955,0.20923
6347.50081,0.21101
6345.57206,0.21091
6343.64332,0.21056
6341.71457,0.21104
6339.78582,0.21088
6337.85708,0.20952
6335.92833,0.20835
6333.99959,0.20879
6332.07084,0.21012
6330.14210,0.21045
6328.21335,0.20970
6326.28461,0.20944
6324.35586,0.20999
6322.42712,0.21069
6320.49837,0.21217
6318.56963,0.21428
6316.64088,0.21448
6314.71214,0.21250
6312.78339,0.21136
6310.85465,0.21172
6308.92590,0.21133
6306.99715,0.21077
6305.06841,0.21207
6303.13966,0.21393
6301.21092,0.21496
6299.28217,0.21538
6297.35343,0.21475
6295.42468,0.21342
6293.49594,0.21224
6291.56719,0.21150
6289.63845,0.21153
6287.70970,0.21171
6285.78096,0.21171
6283.85221,0.21272
6281.92347,0.21373
6279.99472,0.21300
6278.06598,0.21225
6276.13723,0.21228
6274.20848,0.21218
6272.27974,0.21277
6270.35099,0.21341
6268.42225,0.21314
6266.49350,0.21317
6264.56476,0.21354
6262.63601,0.21440
6260.70727,0.21619
6258.77852,0.21662
6256.84978,0.21489
6254.92103,0.21389
6252.99229,0.21485
6251.06354,0.21564
6249.13480,0.21557
6247.20605,0.21641
6245.27730,0.21795
6243.34856,0.21805
6241.41981,0.21602
6239.49107,0.21370
6237.56232,0.21317
6235.63358,0.21419
6233.70483,0.21615
6231.77609,0.21830
6229.84734,0.21918
6227.91860,0.21912
6225.98985,0.21948
6224.06111,0.22010
6222.13236,0.22006
6220.20362,0.21960
6218.27487,0.21906
6216.34613,0.21820
6214.41738,0.21750
6212.48863,0.21718
6210.55989,0.21747
6208.63114,0.21931
6206.70240,0.22183
6204.77365,0.22310
6202.84491,0.22299
6200.91616,0.22223
6198.98742,0.22109
6197.05867,0.22014
6195.12993,0.21983
6193.20118,0.21962
6191.27244,0.21857
6189.34369,0.21716
6187.41495,0.21695
6185.48620,0.21801
6183.55746,0.21926
6181.62871,0.22024
6179.69996,0.22068
6177.77122,0.22078
6175.84247,0.22115
6173.91373,0.22105
6171.98498,0.21968
6170.05624,0.21862
6168.12749,0.21986
6166.19875,0.22264
6164.27000,0.22396
6162.34126,0.22316
6160.41251,0.22271
6158.48377,0.22329
6156.55502,0.22339
6154.62628,0.22271
6152.69753,0.22235
6150.76878,0.22270
6148.84004,0.22307
6146.91129,0.22386
6144.98255,0.22579
6143.05380,0.22741
6141.12506,0.22696
6139.19631,0.22523
6137.26757,0.22459
6135.33882,0.22591
6133.41008,0.22758
6131.48133,0.22747
6129.55259,0.22571
6127.62384,0.22453
6125.69510,0.22528
6123.76635,0.22626
6121.83761,0.22518
6119.90886,0.22289
6117.98011,0.22216
6116.05137,0.22400
6114.12262,0.22654
6112.19388,0.22693
6110.26513,0.22486
6108.33639,0.22349
6106.40764,0.22455
6104.47890,0.22594
6102.55015,0.22632
6100.62141,0.22641
6098.69266,0.22681
6096.76392,0.22791
6094.83517,0.22905
6092.90643,0.22947
6090.97768,0.22960
6089.04893,0.22915
6087.12019,0.22801
6085.19144,0.22734
6083.26270,0.22750
6081.33395,0.22761
6079.40521,0.22735
6077.47646,0.22752
6075.54772,0.22804
6073.61897,0.22775
6071.69023,0.22670
6069.76148,0.22587
6067.83274,0.22565
6065.90399,0.22599
6063.97525,0.22655
6062.04650,0.22650
6060.11776,0.22605
6058.18901,0.22642
6056.26026,0.22743
6054.33152,0.22791
6052.40277,0.22721
6050.47403,0.22586
6048.54528,0.22520
6046.61654,0.22538
6044.68779,0.22549
6042.75905,0.22549
6040.83030,0.22654
6038.90156,0.22872
6036.97281,0.22993
6035.04407,0.22878
6033.11532,0.22717
6031.18658,0.22687
6029.25783,0.22661
6027.32909,0.22607
6025.40034,0.22667
6023.47159,0.22806
6021.54285,0.22864
6019.61410,0.22847
6017.68536,0.22912
6015.75661,0.23012
6013.82787,0.22966
6011.89912,0.22903
6009.97038,0.22987
6008.04163,0.23019
6006.11289,0.22867
6004.18414,0.22667
6002.25540,0.22505
6000.32665,0.22434
5998.39791,0.22481
5996.46916,0.22543
5994.54041,0.22554
5992.61167,0.22546
5990.68292,0.22539
5988.75418,0.22515
5986.82543,0.22470
5984.89669,0.22438
5982.96794,0.22456
5981.03920,0.22509
5979.11045,0.22520
5977.18171,0.22498
5975.25296,0.22449
5973.32422,0.22372
5971.39547,0.22392
5969.46673,0.22496
5967.53798,0.22552
5965.60924,0.22562
5963.68049,0.22543
5961.75174,0.22490
5959.82300,0.22460
5957.89425,0.22502
5955.96551,0.22571
5954.03676,0.22595
5952.10802,0.22596
5950.17927,0.22588
5948.25053,0.22450
5946.32178,0.22232
5944.39304,0.22217
5942.46429,0.22362
5940.53555,0.22336
5938.60680,0.22128
5936.67806,0.21963
5934.74931,0.21916
5932.82057,0.21955
5930.89182,0.22047
5928.96307,0.22106
5927.03433,0.22055
5925.10558,0.21935
5923.17684,0.21924
5921.24809,0.22087
5919.31935,0.22184
5917.39060,0.22082
5915.46186,0.21914
5913.53311,0.21777
5911.60437,0.21723
5909.67562,0.21737
5907.74688,0.21715
5905.81813,0.21653
5903.88939,0.21653
5901.96064,0.21768
5900.03189,0.21944
5898.10315,0.22054
5896.17440,0.21987
5894.24566,0.21780
5892.31691,0.21583
5890.38817,0.21493
5888.45942,0.21489
5886.53068,0.21489
5884.60193,0.21504
5882.67319,0.21532
5880.74444,0.21463
5878.81570,0.21336
5876.88695,0.21300
5874.95821,0.21369
5873.02946,0.21424
5871.10072,0.21352
5869.17197,0.21203
5867.24322,0.21128
5865.31448,0.21172
5863.38573,0.21279
5861.45699,0.21368
5859.52824,0.21379
5857.59950,0.21357
5855.67075,0.21345
5853.74201,0.21278
5851.81326,0.21136
5849.88452,0.21071
5847.95577,0.21150
5846.02703,0.21190
5844.09828,0.21124
5842.16954,0.21100
5840.24079,0.21131
5838.31205,0.21086
5836.38330,0.20978
5834.45455,0.20930
5832.52581,0.20982
5830.59706,0.21084
5828.66832,0.21146
5826.73957,0.21172
5824.81083,0.21240
5822.88208,0.21221
5820.95334,0.21041
5819.02459,0.20889
5817.09585,0.20835
5815.16710,0.20808
5813.23836,0.20793
5811.30961,0.20811
5809.38087,0.20832
5807.45212,0.20779
5805.52337,0.20663
5803.59463,0.20615
5801.66588,0.20687
5799.73714,0.20788
5797.80839,0.20860
5795.87965,0.20893
5793.95090,0.20878
5792.02216,0.20832
5790.09341,0.20800
5788.16467,0.20836
5786.23592,0.20890
5784.30718,0.20842
5782.37843,0.20742
5780.44969,0.20718
5778.52094,0.20757
5776.59220,0.20812
5774.66345,0.20932
5772.73470,0.21132
5770.80596,0.21317
5768.87721,0.21420
5766.94847,0.21431
5765.01972,0.21313
5763.09098,0.21162
5761.16223,0.21169
5759.23349,0.21336
5757.30474,0.21542
5755.37600,0.21694
5753.44725,0.21776
5751.51851,0.21822
5749.58976,0.21835
5747.66102,0.21850
5745.73227,0.21929
5743.80352,0.22038
5741.87478,0.22074
5739.94603,0.22045
5738.01729,0.22048
5736.08854,0.22047
5734.15980,0.21990
5732.23105,0.21952
5730.30231,0.21934
5728.37356,0.21897
5726.44482,0.21921
5724.51607,0.22017
5722.58733,0.22058
5720.65858,0.22031
5718.72984,0.21978
5716.80109,0.21862
5714.87235,0.21756
5712.94360,0.21807
5711.01485,0.21986
5709.08611,0.22123
5707.15736,0.22099
5705.22862,0.21979
5703.29987,0.21907
5701.37113,0.21931
5699.44238,0.22014
5697.51364,0.22033
5695.58489,0.21970
5693.65615,0.21940
5691.72740,0.21923
5689.79866,0.21855
5687.86991,0.21802
5685.94117,0.21790
5684.01242,0.21772
5682.08368,0.21751
5680.15493,0.21770
5678.22618,0.21837
5676.29744,0.21920
5674.36869,0.21980
5672.43995,0.22029
5670.51120,0.22080
5668.58246,0.22075
5666.65371,0.22043
5664.72497,0.22107
5662.79622,0.22237
5660.86748,0.22299
5658.93873,0.22278
5657.00999,0.22268
5655.08124,0.22299
5653.15250,0.22333
5651.22375,0.22340
5649.29500,0.22298
5647.36626,0.22263
5645.43751,0.22282
5643.50877,0.22290
5641.58002,0.22297
5639.65128,0.22391
5637.72253,0.22527
5635.79379,0.22619
5633.86504,0.22673
5631.93630,0.22707
5630.00755,0.22739
5628.07881,0.22789
5626.15006,0.22860
5624.22132,0.22961
5622.29257,0.23032
5620.36383,0.22988
5618.43508,0.22925
5616.50633,0.23014
5614.57759,0.23224
5612.64884,0.23347
5610.72010,0.23332
5608.79135,0.23325
5606.86261,0.23389
5604.93386,0.23426
5603.00512,0.23347
5601.07637,0.23226
5599.14763,0.23241
5597.21888,0.23377
5595.29014,0.23462
5593.36139,0.23480
5591.43265,0.23506
5589.50390,0.23496
5587.57516,0.23454
5585.64641,0.23475
5583.71766,0.23532
5581.78892,0.23591
5579.86017,0.23666
5577.93143,0.23708
5576.00268,0.23704
5574.07394,0.23678
5572.14519,0.23616
5570.21645,0.23612
5568.28770,0.23778
5566.35896,0.23945
5564.43021,0.23908
5562.50147,0.23789
5560.57272,0.23753
5558.64398,0.23771
5556.71523,0.23828
5554.78648,0.23943
5552.85774,0.24017
5550.92899,0.23981
5549.00025,0.23955
5547.07150,0.23962
5545.14276,0.23883
5543.21401,0.23778
5541.28527,0.23764
5539.35652,0.23778
5537.42778,0.23769
5535.49903,0.23806
5533.57029,0.23893
5531.64154,0.23958
5529.71280,0.24021
5527.78405,0.24095
5525.85531,0.24130
5523.92656,0.24149
5521.99781,0.24155
5520.06907,0.24117
5518.14032,0.24089
5516.21158,0.24123
5514.28283,0.24189
5512.35409,0.24193
5510.42534,0.24133
5508.49660,0.24128
5506.56785,0.24221
5504.63911,0.24342
5502.71036,0.24402
5500.78162,0.24358
5498.85287,0.24234
5496.92413,0.24127
5494.99538,0.24157
5493.06664,0.24239
5491.13789,0.24216
5489.20914,0.24148
5487.28040,0.24137
5485.35165,0.24175
5483.42291,0.24195
5481.49416,0.24158
5479.56542,0.24139
5477.63667,0.24193
5475.70793,0.24270
5473.77918,0.24350
5471.85044,0.24433
5469.92169,0.24472
5467.99295,0.24412
5466.06420,0.24307
5464.13546,0.24259
5462.20671,0.24268
5460.27796,0.24301
5458.34922,0.24371
5456.42047,0.24448
5454.49173,0.24480
5452.56298,0.24478
5450.63424,0.24491
5448.70549,0.24545
5446.77675,0.24618
5444.84800,0.24632
5442.91926,0.24575
5440.99051,0.24553
5439.06177,0.24608
5437.13302,0.24699
5435.20428,0.24779
5433.27553,0.24791
5431.34679,0.24731
5429.41804,0.24685
5427.48929,0.24719
5425.56055,0.24744
5423.63180,0.24649
5421.70306,0.24554
5419.77431,0.24600
5417.84557,0.24709
5415.91682,0.24817
5413.98808,0.24944
5412.05933,0.25010
5410.13059,0.24951
5408.20184,0.24887
5406.27310,0.24923
5404.34435,0.24977
5402.41561,0.24992
5400.48686,0.25044
5398.55811,0.25152
5396.62937,0.25218
5394.70062,0.25196
5392.77188,0.25163
5390.84313,0.25170
5388.91439,0.25211
5386.98564,0.25279
5385.05690,0.25328
5383.12815,0.25297
5381.19941,0.25237
5379.27066,0.25229
5377.34192,0.25246
5375.41317,0.25244
5373.48443,0.25304
5371.55568,0.25448
5369.62694,0.25520
5367.69819,0.25467
5365.76944,0.25416
5363.84070,0.25407
5361.91195,0.25422
5359.98321,0.25473
5358.05446,0.25526
5356.12572,0.25548
5354.19697,0.25576
5352.26823,0.25609
5350.33948,0.25589
5348.41074,0.25549
5346.48199,0.25569
5344.55325,0.25611
5342.62450,0.25595
5340.69576,0.25544
5338.76701,0.25506
5336.83827,0.25498
5334.90952,0.25486
5332.98077,0.25448
5331.05203,0.25405
5329.12328,0.25367
5327.19454,0.25382
5325.26579,0.25466
5323.33705,0.25549
5321.40830,0.25614
5319.47956,0.25637
5317.55081,0.25544
5315.62207,0.25394
5313.69332,0.25315
5311.76458,0.25293
5309.83583,0.25265
5307.90709,0.25261
5305.97834,0.25309
5304.04959,0.25340
5302.12085,0.25303
5300.19210,0.25255
5298.26336,0.25240
5296.33461,0.25228
5294.40587,0.25164
5292.47712,0.25071
5290.54838,0.25037
5288.61963,0.25027
5286.69089,0.24969
5284.76214,0.24916
5282.83340,0.24880
5280.90465,0.24805
5278.97591,0.24714
5277.04716,0.24683
5275.11842,0.24695
5273.18967,0.24650
5271.26092,0.24526
5269.33218,0.24378
5267.40343,0.24288
5265.47469,0.24254
5263.54594,0.24180
5261.61720,0.24066
5259.68845,0.23986
5257.75971,0.23916
5255.83096,0.23814
5253.90222,0.23720
5251.97347,0.23628
5250.04473,0.23514
5248.11598,0.23458
5246.18724,0.23475
5244.25849,0.23471
5242.32975,0.23412
5240.40100,0.23332
5238.47225,0.23240
5236.54351,0.23168
5234.61476,0.23139
5232.68602,0.23105
5230.75727,0.23050
5228.82853,0.22987
5226.89978,0.22954
5224.97104,0.22998
5223.04229,0.23006
5221.11355,0.22904
5219.18480,0.22812
5217.25606,0.22773
5215.32731,0.22717
5213.39857,0.22643
5211.46982,0.22592
5209.54107,0.22579
5207.61233,0.22625
5205.68358,0.22704
5203.75484,0.22725
5201.82609,0.22697
5199.89735,0.22670
5197.96860,0.22602
5196.03986,0.22535
5194.11111,0.22582
5192.18237,0.22653
5190.25362,0.22619
5188.32488,0.22571
5186.39613,0.22608
5184.46739,0.22676
5182.53864,0.22728
5180.60990,0.22769
5178.68115,0.22759
5176.75240,0.22689
5174.82366,0.22649
5172.89491,0.22665
5170.96617,0.22678
5169.03742,0.22726
5167.10868,0.22830
5165.17993,0.22885
5163.25119,0.22883
5161.32244,0.22921
5159.39370,0.22983
5157.46495,0.23035
5155.53621,0.23096
5153.60746,0.23138
5151.67872,0.23143
5149.74997,0.23167
5147.82123,0.23205
5145.89248,0.23194
5143.96373,0.23163
5142.03499,0.23171
5140.10624,0.23187
5138.17750,0.23186
5136.24875,0.23223
5134.32001,0.23326
5132.39126,0.23426
5130.46252,0.23483
5128.53377,0.23526
5126.60503,0.23542
5124.67628,0.23520
5122.74754,0.23535
5120.81879,0.23635
5118.89005,0.23749
5116.96130,0.23768
5115.03255,0.23695
5113.10381,0.23663
5111.17506,0.23727
5109.24632,0.23834
5107.31757,0.23926
5105.38883,0.23969
5103.46008,0.23935
5101.53134,0.23880
5099.60259,0.23917
5097.67385,0.24030
5095.74510,0.24118
5093.81636,0.24141
5091.88761,0.24120
5089.95887,0.24124
5088.03012,0.24170
5086.10138,0.24196
5084.17263,0.24202
5082.24388,0.24233
5080.31514,0.24282
5078.38639,0.24349
5076.45765,0.24437
5074.52890,0.24493
5072.60016,0.24485
5070.67141,0.24459
5068.74267,0.24486
5066.81392,0.24558
5064.88518,0.24639
5062.95643,0.24739
5061.02769,0.24810
5059.09894,0.24797
5057.17020,0.24741
5055.24145,0.24722
5053.31270,0.24744
5051.38396,0.24752
5049.45521,0.24769
5047.52647,0.24842
5045.59772,0.24943
5043.66898,0.24994
5041.74023,0.24974
5039.81149,0.24964
5037.88274,0.24982
5035.95400,0.24982
5034.02525,0.24999
5032.09651,0.25038
5030.16776,0.25055
5028.23902,0.25055
5026.31027,0.25057
5024.38153,0.25083
5022.45278,0.25142
5020.52403,0.25209
5018.59529,0.25272
5016.66654,0.25307
5014.73780,0.25289
5012.80905,0.25270
5010.88031,0.25287
5008.95156,0.25314
5007.02282,0.25338
5005.09407,0.25339
5003.16533,0.25321
5001.23658,0.25326
4999.30784,0.25353
4997.37909,0.25372
4995.45035,0.25376
4993.52160,0.25350
4991.59286,0.25331
4989.66411,0.25362
4987.73536,0.25422
4985.80662,0.25476
4983.87787,0.25500
4981.94913,0.25469
4980.02038,0.25409
4978.09164,0.25368
4976.16289,0.25341
4974.23415,0.25323
4972.30540,0.25327
4970.37666,0.25323
4968.44791,0.25264
4966.51917,0.25167
4964.59042,0.25117
4962.66168,0.25131
4960.73293,0.25143
4958.80418,0.25152
4956.87544,0.25171
4954.94669,0.25162
4953.01795,0.25127
4951.08920,0.25100
4949.16046,0.25076
4947.23171,0.25027
4945.30297,0.24971
4943.37422,0.24953
4941.44548,0.24940
4939.51673,0.24888
4937.58799,0.24835
4935.65924,0.24808
4933.73050,0.24789
4931.80175,0.24750
4929.87301,0.24694
4927.94426,0.24654
4926.01551,0.24620
4924.08677,0.24584
4922.15802,0.24545
4920.22928,0.24496
4918.30053,0.24450
4916.37179,0.24409
4914.44304,0.24370
4912.51430,0.24341
4910.58555,0.24306
4908.65681,0.24219
4906.72806,0.24093
4904.79932,0.23986
4902.87057,0.23887
4900.94183,0.23810
4899.01308,0.23785
4897.08434,0.23761
4895.15559,0.23719
4893.22684,0.23665
4891.29810,0.23595
4889.36935,0.23538
4887.44061,0.23501
4885.51186,0.23440
4883.58312,0.23340
4881.65437,0.23253
4879.72563,0.23215
4877.79688,0.23179
4875.86814,0.23121
4873.93939,0.23070
4872.01065,0.23026
4870.08190,0.22981
4868.15316,0.22932
4866.22441,0.22874
4864.29566,0.22829
4862.36692,0.22797
4860.43817,0.22761
4858.50943,0.22722
4856.58068,0.22660
4854.65194,0.22565
4852.72319,0.22477
4850.79445,0.22435
4848.86570,0.22424
4846.93696,0.22396
4845.00821,0.22311
4843.07947,0.22196
4841.15072,0.22131
4839.22198,0.22112
4837.29323,0.22060
4835.36449,0.21975
4833.43574,0.21916
4831.50699,0.21906
4829.57825,0.21917
4827.64950,0.21899
4825.72076,0.21834
4823.79201,0.21751
4821.86327,0.21686
4819.93452,0.21647
4818.00578,0.21608
4816.07703,0.21569
4814.14829,0.21544
4812.21954,0.21506
4810.29080,0.21438
4808.36205,0.21368
4806.43331,0.21321
4804.50456,0.21310
4802.57582,0.21308
4800.64707,0.21269
4798.71832,0.21203
4796.78958,0.21151
4794.86083,0.21110
4792.93209,0.21066
4791.00334,0.21058
4789.07460,0.21110
4787.14585,0.21180
4785.21711,0.21193
4783.28836,0.21135
4781.35962,0.21057
4779.43087,0.20990
4777.50213,0.20945
4775.57338,0.20941
4773.64464,0.20982
4771.71589,0.21039
4769.78714,0.21066
4767.85840,0.21030
4765.92965,0.20955
4764.00091,0.20892
4762.07216,0.20860
4760.14342,0.20857
4758.21467,0.20854
4756.28593,0.20820
4754.35718,0.20801
4752.42844,0.20825
4750.49969,0.20849
4748.57095,0.20848
4746.64220,0.20835
4744.71346,0.20817
4742.78471,0.20796
4740.85597,0.20811
4738.92722,0.20887
4736.99847,0.20975
4735.06973,0.20984
4733.14098,0.20898
4731.21224,0.20836
4729.28349,0.20880
4727.35475,0.20958
4725.42600,0.20977
4723.49726,0.20977
4721.56851,0.21012
4719.63977,0.21042
4717.71102,0.21054
4715.78228,0.21091
4713.85353,0.21151
4711.92479,0.21197
4709.99604,0.21221
4708.06729,0.21256
4706.13855,0.21282
4704.20980,0.21279
4702.28106,0.21289
4700.35231,0.21319
4698.42357,0.21352
4696.49482,0.21398
4694.56608,0.21426
4692.63733,0.21424
4690.70859,0.21438
4688.77984,0.21457
4686.85110,0.21464
4684.92235,0.21500
4682.99361,0.21550
4681.06486,0.21559
4679.13612,0.21552
4677.20737,0.21579
4675.27862,0.21638
4673.34988,0.21691
4671.42113,0.21712
4669.49239,0.21691
4667.56364,0.21639
4665.63490,0.21619
4663.70615,0.21664
4661.77741,0.21715
4659.84866,0.21725
4657.91992,0.21712
4655.99117,0.21694
4654.06243,0.21704
4652.13368,0.21756
4650.20494,0.21792
4648.27619,0.21791
4646.34745,0.21788
4644.41870,0.21815
4642.48995,0.21852
4640.56121,0.21849
4638.63246,0.21824
4636.70372,0.21827
4634.77497,0.21848
4632.84623,0.21862
4630.91748,0.21882
4628.98874,0.21922
4627.05999,0.21966
4625.13125,0.21993
4623.20250,0.22008
4621.27376,0.22036
4619.34501,0.22097
4617.41627,0.22187
4615.48752,0.22254
4613.55877,0.22265
4611.63003,0.22270
4609.70128,0.22303
4607.77254,0.22343
4605.84379,0.22390
4603.91505,0.22436
4601.98630,0.22459
4600.05756,0.22469
4598.12881,0.22506
4596.20007,0.22599
4594.27132,0.22681
4592.34258,0.22671
4590.41383,0.22636
4588.48509,0.22667
4586.55634,0.22733
4584.62760,0.22799
4582.69885,0.22877
4580.77010,0.22936
4578.84136,0.22957
4576.91261,0.22977
4574.98387,0.23009
4573.05512,0.23028
4571.12638,0.23039
4569.19763,0.23065
4567.26889,0.23123
4565.34014,0.23211
4563.41140,0.23290
4561.48265,0.23334
4559.55391,0.23339
4557.62516,0.23326
4555.69642,0.23337
4553.76767,0.23377
4551.83893,0.23415
4549.91018,0.23451
4547.98143,0.23494
4546.05269,0.23533
4544.12394,0.23552
4542.19520,0.23558
4540.26645,0.23567
4538.33771,0.23571
4536.40896,0.23556
4534.48022,0.23551
4532.55147,0.23568
4530.62273,0.23555
4528.69398,0.23518
4526.76524,0.23527
4524.83649,0.23575
4522.90775,0.23604
4520.97900,0.23590
4519.05025,0.23545
4517.12151,0.23520
4515.19276,0.23542
4513.26402,0.23595
4511.33527,0.23651
4509.40653,0.23657
4507.47778,0.23599
4505.54904,0.23545
4503.62029,0.23551
4501.69155,0.23581
4499.76280,0.23549
4497.83406,0.23464
4495.90531,0.23403
4493.97657,0.23371
4492.04782,0.23324
4490.11908,0.23259
4488.19033,0.23200
4486.26158,0.23178
4484.33284,0.23185
4482.40409,0.23162
4480.47535,0.23073
4478.54660,0.22959
4476.61786,0.22882
4474.68911,0.22833
4472.76037,0.22753
4470.83162,0.22649
4468.90288,0.22574
4466.97413,0.22519
4465.04539,0.22426
4463.11664,0.22278
4461.18790,0.22132
4459.25915,0.22005
4457.33041,0.21849
4455.40166,0.21674
4453.47291,0.21544
4451.54417,0.21444
4449.61542,0.21319
4447.68668,0.21158
4445.75793,0.20982
4443.82919,0.20813
4441.90044,0.20667
4439.97170,0.20532
4438.04295,0.20365
4436.11421,0.20157
4434.18546,0.19944
4432.25672,0.19742
4430.32797,0.19541
4428.39923,0.19344
4426.47048,0.19153
4424.54173,0.18947
4422.61299,0.18721
4420.68424,0.18482
4418.75550,0.18237
4416.82675,0.18007
4414.89801,0.17789
4412.96926,0.17558
4411.04052,0.17338
4409.11177,0.17155
4407.18303,0.16981
4405.25428,0.16797
4403.32554,0.16634
4401.39679,0.16524
4399.46805,0.16437
4397.53930,0.16331
4395.61056,0.16226
4393.68181,0.16155
4391.75306,0.16112
4389.82432,0.16066
4387.89557,0.16010
4385.96683,0.15975
4384.03808,0.15981
4382.10934,0.15996
4380.18059,0.15990
4378.25185,0.15972
4376.32310,0.15964
4374.39436,0.15958
4372.46561,0.15961
4370.53687,0.15983
4368.60812,0.15977
4366.67938,0.15920
4364.75063,0.15861
4362.82189,0.15831
4360.89314,0.15785
4358.96439,0.15680
4357.03565,0.15563
4355.10690,0.15461
4353.17816,0.15332
4351.24941,0.15164
4349.32067,0.14980
4347.39192,0.14799
4345.46318,0.14632
4343.53443,0.14477
4341.60569,0.14327
4339.67694,0.14202
4337.74820,0.14108
4335.81945,0.14003
4333.89071,0.13870
4331.96196,0.13759
4330.03321,0.13731
4328.10447,0.13760
4326.17572,0.13789
4324.24698,0.13807
4322.31823,0.13841
4320.38949,0.13936
4318.46074,0.14073
4316.53200,0.14188
4314.60325,0.14286
4312.67451,0.14400
4310.74576,0.14503
4308.81702,0.14575
4306.88827,0.14650
4304.95953,0.14745
4303.03078,0.14819
4301.10204,0.14860
4299.17329,0.14906
4297.24454,0.14942
4295.31580,0.14959
4293.38705,0.14978
4291.45831,0.14972
4289.52956,0.14939
4287.60082,0.14934
4285.67207,0.14951
4283.74333,0.14944
4281.81458,0.14910
4279.88584,0.14866
4277.95709,0.14805
4276.02835,0.14715
4274.09960,0.14621
4272.17086,0.14527
4270.24211,0.14416
4268.31336,0.14312
4266.38462,0.14253
4264.45587,0.14210
4262.52713,0.14153
4260.59838,0.14092
4258.66964,0.14033
4256.74089,0.13999
4254.81215,0.14003
4252.88340,0.14044
4250.95466,0.14146
4249.02591,0.14284
4247.09717,0.14414
4245.16842,0.14518
4243.23968,0.14575
4241.31093,0.14611
4239.38219,0.14673
4237.45344,0.14759
4235.52469,0.14849
4233.59595,0.14935
4231.66720,0.15009
4229.73846,0.15056
4227.80971,0.15085
4225.88097,0.15106
4223.95222,0.15108
4222.02348,0.15109
4220.09473,0.15125
4218.16599,0.15143
4216.23724,0.15151
4214.30850,0.15158
4212.37975,0.15190
4210.45101,0.15240
4208.52226,0.15248
4206.59352,0.15220
4204.66477,0.15228
4202.73602,0.15257
4200.80728,0.15246
4198.87853,0.15233
4196.94979,0.15267
4195.02104,0.15321
4193.09230,0.15357
4191.16355,0.15363
4189.23481,0.15361
4187.30606,0.15367
4185.37732,0.15364
4183.44857,0.15366
4181.51983,0.15386
4179.59108,0.15393
4177.66234,0.15386
4175.73359,0.15384
4173.80484,0.15381
4171.87610,0.15357
4169.94735,0.15318
4168.01861,0.15298
4166.08986,0.15322
4164.16112,0.15373
4162.23237,0.15425
4160.30363,0.15448
4158.37488,0.15429
4156.44614,0.15400
4154.51739,0.15407
4152.58865,0.15444
4150.65990,0.15478
4148.73116,0.15483
4146.80241,0.15467
4144.87367,0.15478
4142.94492,0.15521
4141.01617,0.15555
4139.08743,0.15581
4137.15868,0.15595
4135.22994,0.15572
4133.30119,0.15526
4131.37245,0.15480
4129.44370,0.15441
4127.51496,0.15406
4125.58621,0.15388
4123.65747,0.15395
4121.72872,0.15407
4119.79998,0.15382
4117.87123,0.15346
4115.94249,0.15347
4114.01374,0.15350
4112.08500,0.15327
4110.15625,0.15300
4108.22750,0.15275
4106.29876,0.15246
4104.37001,0.15205
4102.44127,0.15164
4100.51252,0.15144
4098.58378,0.15126
4096.65503,0.15093
4094.72629,0.15044
4092.79754,0.14992
4090.86880,0.14931
4088.94005,0.14854
4087.01131,0.14786
4085.08256,0.14746
4083.15382,0.14712
4081.22507,0.14662
4079.29632,0.14589
4077.36758,0.14491
4075.43883,0.14378
4073.51009,0.14283
4071.58134,0.14207
4069.65260,0.14138
4067.72385,0.14081
4065.79511,0.14025
4063.86636,0.13977
4061.93762,0.13959
4060.00887,0.13960
4058.08013,0.13936
4056.15138,0.13873
4054.22264,0.13812
4052.29389,0.13784
4050.36515,0.13769
4048.43640,0.13744
4046.50765,0.13724
4044.57891,0.13703
4042.65016,0.13659
4040.72142,0.13625
4038.79267,0.13620
4036.86393,0.13624
4034.93518,0.13626
4033.00644,0.13612
4031.07769,0.13578
4029.14895,0.13548
4027.22020,0.13534
4025.29146,0.13540
4023.36271,0.13567
4021.43397,0.13576
4019.50522,0.13547
4017.57648,0.13509
4015.64773,0.13496
4013.71898,0.13520
4011.79024,0.13550
4009.86149,0.13571
4007.93275,0.13611
4006.00400,0.13686
4004.07526,0.13767
4002.14651,0.13825
4000.21777,0.13849
3998.28902,0.13866
3996.36028,0.13899
3994.43153,0.13919
3992.50279,0.13924
3990.57404,0.13957
3988.64530,0.14006
3986.71655,0.14046
3984.78780,0.14084
3982.85906,0.14115
3980.93031,0.14132
3979.00157,0.14168
3977.07282,0.14216
3975.14408,0.14222
3973.21533,0.14210
3971.28659,0.14237
3969.35784,0.14288
3967.42910,0.14336
3965.50035,0.14384
3963.57161,0.14432
3961.64286,0.14480
3959.71412,0.14530
3957.78537,0.14575
3955.85663,0.14607
3953.92788,0.14627
3951.99913,0.14654
3950.07039,0.14706
3948.14164,0.14771
3946.21290,0.14821
3944.28415,0.14855
3942.35541,0.14877
3940.42666,0.14895
3938.49792,0.14921
3936.56917,0.14969
3934.64043,0.15037
3932.71168,0.15105
3930.78294,0.15154
3928.85419,0.15195
3926.92545,0.15241
3924.99670,0.15292
3923.06795,0.15330
3921.13921,0.15344
3919.21046,0.15362
3917.28172,0.15413
3915.35297,0.15464
3913.42423,0.15494
3911.49548,0.15537
3909.56674,0.15593
3907.63799,0.15634
3905.70925,0.15661
3903.78050,0.15676
3901.85176,0.15692
3899.92301,0.15728
3897.99427,0.15767
3896.06552,0.15798
3894.13678,0.15833
3892.20803,0.15883
3890.27928,0.15945
3888.35054,0.15987
3886.42179,0.15993
3884.49305,0.16014
3882.56430,0.16074
3880.63556,0.16120
3878.70681,0.16117
3876.77807,0.16120
3874.84932,0.16185
3872.92058,0.16274
3870.99183,0.16349
3869.06309,0.16409
3867.13434,0.16436
3865.20560,0.16449
3863.27685,0.16494
3861.34811,0.16558
3859.41936,0.16607
3857.49061,0.16644
3855.56187,0.16686
3853.63312,0.16732
3851.70438,0.16771
3849.77563,0.16807
3847.84689,0.16860
3845.91814,0.16918
3843.98940,0.16967
3842.06065,0.17010
3840.13191,0.17038
3838.20316,0.17054
3836.27442,0.17074
3834.34567,0.17107
3832.41693,0.17153
3830.48818,0.17190
3828.55943,0.17207
3826.63069,0.17224
3824.70194,0.17239
3822.77320,0.17236
3820.84445,0.17239
3818.91571,0.17268
3816.98696,0.17277
3815.05822,0.17257
3813.12947,0.17251
3811.20073,0.17278
3809.27198,0.17332
3807.34324,0.17384
3805.41449,0.17400
3803.48575,0.17393
3801.55700,0.17381
3799.62826,0.17384
3797.69951,0.17413
3795.77076,0.17442
3793.84202,0.17444
3791.91327,0.17439
3789.98453,0.17445
3788.05578,0.17461
3786.12704,0.17465
3784.19829,0.17449
3782.26955,0.17449
3780.34080,0.17484
3778.41206,0.17512
3776.48331,0.17515
3774.55457,0.17526
3772.62582,0.17545
3770.69708,0.17547
3768.76833,0.17520
3766.83959,0.17480
3764.91084,0.17462
3762.98209,0.17475
3761.05335,0.17484
3759.12460,0.17461
3757.19586,0.17422
3755.26711,0.17399
3753.33837,0.17385
3751.40962,0.17378
3749.48088,0.17362
3747.55213,0.17303
3745.62339,0.17214
3743.69464,0.17142
3741.76590,0.17125
3739.83715,0.17143
3737.90841,0.17155
3735.97966,0.17127
3734.05091,0.17053
3732.12217,0.16965
3730.19342,0.16900
3728.26468,0.16843
3726.33593,0.16749
3724.40719,0.16631
3722.47844,0.16514
3720.54970,0.16395
3718.62095,0.16273
3716.69221,0.16138
3714.76346,0.15980
3712.83472,0.15801
3710.90597,0.15609
3708.97723,0.15398
3707.04848,0.15115
3705.11974,0.14738
3703.19099,0.14314
3701.26224,0.13906
3699.33350,0.13546
3697.40475,0.13242
3695.47601,0.13036
3693.54726,0.12969
3691.61852,0.12995
3689.68977,0.13028
3687.76103,0.13039
3685.83228,0.13048
3683.90354,0.13029
3681.97479,0.12939
3680.04605,0.12799
3678.11730,0.12644
3676.18856,0.12444
3674.25981,0.12190
3672.33107,0.11932
3670.40232,0.11664
3668.47357,0.11413
3666.54483,0.11229
3664.61608,0.11082
3662.68734,0.10925
3660.75859,0.10744
3658.82985,0.10538
3656.90110,0.10309
3654.97236,0.10098
3653.04361,0.09943
3651.11487,0.09801
3649.18612,0.09622
3647.25738,0.09437
3645.32863,0.09292
3643.39989,0.09180
3641.47114,0.09067
3639.54239,0.08931
3637.61365,0.08780
3635.68490,0.08645
3633.75616,0.08550
3631.82741,0.08475
3629.89867,0.08353
3627.96992,0.08157
3626.04118,0.07968
3624.11243,0.07836
3622.18369,0.07744
3620.25494,0.07666
3618.32620,0.07585
3616.39745,0.07510
3614.46871,0.07447
3612.53996,0.07384
3610.61122,0.07312
3608.68247,0.07210
3606.75372,0.07089
3604.82498,0.07003
3602.89623,0.06943
3600.96749,0.06854
3599.03874,0.06755
3597.11000,0.06684
3595.18125,0.06624
3593.25251,0.06543
3591.32376,0.06445
3589.39502,0.06358
3587.46627,0.06308
3585.53753,0.06278
3583.60878,0.06221
3581.68004,0.06147
3579.75129,0.06091
3577.82254,0.06050
3575.89380,0.06021
3573.96505,0.06007
3572.03631,0.05970
3570.10756,0.05883
3568.17882,0.05785
3566.25007,0.05716
3564.32133,0.05678
3562.39258,0.05656
3560.46384,0.05635
3558.53509,0.05602
3556.60635,0.05547
3554.67760,0.05492
3552.74886,0.05467
3550.82011,0.05465
3548.89137,0.05465
3546.96262,0.05453
3545.03387,0.05425
3543.10513,0.05382
3541.17638,0.05333
3539.24764,0.05288
3537.31889,0.05243
3535.39015,0.05213
3533.46140,0.05211
3531.53266,0.05208
3529.60391,0.05185
3527.67517,0.05155
3525.74642,0.05117
3523.81768,0.05068
3521.88893,0.05033
3519.96019,0.05026
3518.03144,0.05032
3516.10270,0.05034
3514.17395,0.05029
3512.24520,0.05007
3510.31646,0.04971
3508.38771,0.04940
3506.45897,0.04916
3504.53022,0.04876
3502.60148,0.04820
3500.67273,0.04783
3498.74399,0.04783
3496.81524,0.04785
3494.88650,0.04771
3492.95775,0.04782
3491.02901,0.04826
3489.10026,0.04843
3487.17152,0.04807
3485.24277,0.04770
3483.31402,0.04756
3481.38528,0.04740
3479.45653,0.04718
3477.52779,0.04701
3475.59904,0.04674
3473.67030,0.04640
3471.74155,0.04624
3469.81281,0.04621
3467.88406,0.04609
3465.95532,0.04608
3464.02657,0.04632
3462.09783,0.04642
3460.16908,0.04623
3458.24034,0.04595
3456.31159,0.04566
3454.38285,0.04557
3452.45410,0.04559
3450.52535,0.04527
3448.59661,0.04477
3446.66786,0.04470
3444.73912,0.04498
3442.81037,0.04498
3440.88163,0.04462
3438.95288,0.04437
3437.02414,0.04446
3435.09539,0.04468
3433.16665,0.04495
3431.23790,0.04528
3429.30916,0.04536
3427.38041,0.04499
3425.45167,0.04455
3423.52292,0.04443
3421.59418,0.04479
3419.66543,0.04519
3417.73668,0.04499
3415.80794,0.04445
3413.87919,0.04432
3411.95045,0.04455
3410.02170,0.04460
3408.09296,0.04436
3406.16421,0.04416
3404.23547,0.04424
3402.30672,0.04444
3400.37798,0.04459
3398.44923,0.04446
3396.52049,0.04406
3394.59174,0.04376
3392.66300,0.04382
3390.73425,0.04413
3388.80550,0.04436
3386.87676,0.04420
3384.94801,0.04391
3383.01927,0.04395
3381.09052,0.04426
3379.16178,0.04460
3377.23303,0.04476
3375.30429,0.04454
3373.37554,0.04404
3371.44680,0.04371
3369.51805,0.04376
3367.58931,0.04387
3365.66056,0.04372
3363.73182,0.04336
3361.80307,0.04309
3359.87433,0.04317
3357.94558,0.04351
3356.01683,0.04388
3354.08809,0.04418
3352.15934,0.04438
3350.23060,0.04457
3348.30185,0.04471
3346.37311,0.04471
3344.44436,0.04458
3342.51562,0.04448
3340.58687,0.04453
3338.65813,0.04451
3336.72938,0.04430
3334.80064,0.04414
3332.87189,0.04430
3330.94315,0.04452
3329.01440,0.04448
3327.08566,0.04448
3325.15691,0.04475
3323.22816,0.04503
3321.29942,0.04522
3319.37067,0.04532
3317.44193,0.04516
3315.51318,0.04488
3313.58444,0.04496
3311.65569,0.04548
3309.72695,0.04582
3307.79820,0.04565
3305.86946,0.04543
3303.94071,0.04540
3302.01197,0.04526
3300.08322,0.04515
3298.15448,0.04536
3296.22573,0.04576
3294.29698,0.04607
3292.36824,0.04613
3290.43949,0.04601
3288.51075,0.04601
3286.58200,0.04623
3284.65326,0.04637
3282.72451,0.04640
3280.79577,0.04657
3278.86702,0.04685
3276.93828,0.04708
3275.00953,0.04715
3273.08079,0.04700
3271.15204,0.04694
3269.22330,0.04709
3267.29455,0.04719
3265.36581,0.04730
3263.43706,0.04769
3261.50831,0.04824
3259.57957,0.04873
3257.65082,0.04893
3255.72208,0.04864
3253.79333,0.04824
3251.86459,0.04828
3249.93584,0.04869
3248.00710,0.04882
3246.07835,0.04872
3244.14961,0.04898
3242.22086,0.04938
3240.29212,0.04951
3238.36337,0.04972
3236.43463,0.04999
3234.50588,0.05000
3232.57713,0.05007
3230.64839,0.05033
3228.71964,0.05049
3226.79090,0.05049
3224.86215,0.05059
3222.93341,0.05092
3221.00466,0.05115
3219.07592,0.05107
3217.14717,0.05102
3215.21843,0.05125
3213.28968,0.05136
3211.36094,0.05109
3209.43219,0.05092
3207.50345,0.05128
3205.57470,0.05203
3203.64596,0.05265
3201.71721,0.05291
3199.78846,0.05283
3197.85972,0.05267
3195.93097,0.05263
3194.00223,0.05264
3192.07348,0.05258
3190.14474,0.05250
3188.21599,0.05265
3186.28725,0.05294
3184.35850,0.05308
3182.42976,0.05338
3180.50101,0.05403
3178.57227,0.05445
3176.64352,0.05435
3174.71478,0.05421
3172.78603,0.05451
3170.85729,0.05500
3168.92854,0.05525
3166.99979,0.05526
3165.07105,0.05526
3163.14230,0.05537
3161.21356,0.05540
3159.28481,0.05531
3157.35607,0.05548
3155.42732,0.05608
3153.49858,0.05679
3151.56983,0.05729
3149.64109,0.05740
3147.71234,0.05719
3145.78360,0.05692
3143.85485,0.05682
3141.92611,0.05701
3139.99736,0.05748
3138.06861,0.05797
3136.13987,0.05836
3134.21112,0.05877
3132.28238,0.05898
3130.35363,0.05879
3128.42489,0.05863
3126.49614,0.05870
3124.56740,0.05885
3122.63865,0.05898
3120.70991,0.05902
3118.78116,0.05910
3116.85242,0.05928
3114.92367,0.05944
3112.99493,0.05976
3111.06618,0.06026
3109.13744,0.06047
3107.20869,0.06032
3105.27994,0.06023
3103.35120,0.06039
3101.42245,0.06060
3099.49371,0.06074
3097.56496,0.06097
3095.63622,0.06117
3093.70747,0.06097
3091.77873,0.06056
3089.84998,0.06050
3087.92124,0.06073
3085.99249,0.06091
3084.06375,0.06108
3082.13500,0.06132
3080.20626,0.06152
3078.27751,0.06153
3076.34877,0.06142
3074.42002,0.06137
3072.49127,0.06145
3070.56253,0.06144
3068.63378,0.06115
3066.70504,0.06082
3064.77629,0.06081
3062.84755,0.06098
3060.91880,0.06107
3058.99006,0.06114
3057.06131,0.06120
3055.13257,0.06127
3053.20382,0.06145
3051.27508,0.06174
3049.34633,0.06209
3047.41759,0.06236
3045.48884,0.06236
3043.56009,0.06229
3041.63135,0.06229
3039.70260,0.06223
3037.77386,0.06214
3035.84511,0.06199
3033.91637,0.06174
3031.98762,0.06161
3030.05888,0.06165
3028.13013,0.06162
3026.20139,0.06146
3024.27264,0.06122
3022.34390,0.06103
3020.41515,0.06106
3018.48641,0.06116
3016.55766,0.06113
3014.62892,0.06092
3012.70017,0.06049
3010.77142,0.05997
3008.84268,0.05966
3006.91393,0.05963
3004.98519,0.05953
3003.05644,0.05926
3001.12770,0.05893
2999.19895,0.05836
2997.27021,0.05768
2995.34146,0.05724
2993.41272,0.05688
2991.48397,0.05639
2989.55523,0.05581
2987.62648,0.05526
2985.69774,0.05468
2983.76899,0.05389
2981.84025,0.05292
2979.91150,0.05196
2977.98275,0.05108
2976.05401,0.05036
2974.12526,0.04983
2972.19652,0.04928
2970.26777,0.04866
2968.33903,0.04817
2966.41028,0.04782
2964.48154,0.04751
2962.55279,0.04732
2960.62405,0.04748
2958.69530,0.04785
2956.76656,0.04811
2954.83781,0.04812
2952.90907,0.04789
2950.98032,0.04776
2949.05157,0.04791
2947.12283,0.04809
2945.19408,0.04805
2943.26534,0.04777
2941.33659,0.04743
2939.40785,0.04738
2937.47910,0.04764
2935.55036,0.04800
2933.62161,0.04837
2931.69287,0.04874
2929.76412,0.04920
2927.83538,0.04996
2925.90663,0.05105
2923.97789,0.05209
2922.04914,0.05279
2920.12040,0.05329
2918.19165,0.05365
2916.26290,0.05375
2914.33416,0.05366
2912.40541,0.05353
2910.47667,0.05341
2908.54792,0.05331
2906.61918,0.05316
2904.69043,0.05302
2902.76169,0.05305
2900.83294,0.05312
2898.90420,0.05307
2896.97545,0.05300
2895.04671,0.05296
2893.11796,0.05288
2891.18922,0.05285
2889.26047,0.05290
2887.33172,0.05302
2885.40298,0.05309
2883.47423,0.05293
2881.54549,0.05254
2879.61674,0.05211
2877.68800,0.05186
2875.75925,0.05184
2873.83051,0.05188
2871.90176,0.05193
2869.97302,0.05212
2868.04427,0.05245
2866.11553,0.05272
2864.18678,0.05285
2862.25804,0.05293
2860.32929,0.05292
2858.40055,0.05287
2856.47180,0.05314
2854.54305,0.05379
2852.61431,0.05455
2850.68556,0.05535
2848.75682,0.05606
2846.82807,0.05654
2844.89933,0.05690
2842.97058,0.05737
2841.04184,0.05801
2839.11309,0.05864
2837.18435,0.05899
2835.25560,0.05917
2833.32686,0.05961
2831.39811,0.06033
2829.46937,0.06103
2827.54062,0.06161
2825.61188,0.06205
2823.68313,0.06243
2821.75438,0.06286
2819.82564,0.06342
2817.89689,0.06407
2815.96815,0.06470
2814.03940,0.06520
2812.11066,0.06562
2810.18191,0.06595
2808.25317,0.06620
2806.32442,0.06645
2804.39568,0.06677
2802.46693,0.06717
2800.53819,0.06762
2798.60944,0.06812
2796.68070,0.06860
2794.75195,0.06896
2792.82320,0.06932
2790.89446,0.06982
2788.96571,0.07025
2787.03697,0.07039
2785.10822,0.07033
2783.17948,0.07042
2781.25073,0.07077
2779.32199,0.07113
2777.39324,0.07145
2775.46450,0.07166
2773.53575,0.07161
2771.60701,0.07157
2769.67826,0.07180
2767.74952,0.07203
2765.82077,0.07210
2763.89203,0.07213
2761.96328,0.07222
2760.03453,0.07234
2758.10579,0.07231
2756.17704,0.07225
2754.24830,0.07232
2752.31955,0.07243
2750.39081,0.07254
2748.46206,0.07261
2746.53332,0.07253
2744.60457,0.07243
2742.67583,0.07223
2740.74708,0.07183
2738.81834,0.07158
2736.88959,0.07175
2734.96085,0.07216
2733.03210,0.07257
2731.10336,0.07286
2729.17461,0.07288
2727.24586,0.07261
2725.31712,0.07232
2723.38837,0.07237
2721.45963,0.07275
2719.53088,0.07316
2717.60214,0.07353
2715.67339,0.07399
2713.74465,0.07435
2711.81590,0.07447
2709.88716,0.07461
2707.95841,0.07500
2706.02967,0.07549
2704.10092,0.07590
2702.17218,0.07619
2700.24343,0.07628
2698.31468,0.07624
2696.38594,0.07623
2694.45719,0.07638
2692.52845,0.07676
2690.59970,0.07724
2688.67096,0.07751
2686.74221,0.07764
2684.81347,0.07781
2682.88472,0.07806
2680.95598,0.07836
2679.02723,0.07861
2677.09849,0.07878
2675.16974,0.07883
2673.24100,0.07878
2671.31225,0.07875
2669.38351,0.07869
2667.45476,0.07882
2665.52601,0.07937
2663.59727,0.07996
2661.66852,0.08024
2659.73978,0.08032
2657.81103,0.08039
2655.88229,0.08053
2653.95354,0.08077
2652.02480,0.08110
2650.09605,0.08147
2648.16731,0.08173
2646.23856,0.08184
2644.30982,0.08205
2642.38107,0.08238
2640.45233,0.08260
2638.52358,0.08272
2636.59484,0.08288
2634.66609,0.08307
2632.73734,0.08319
2630.80860,0.08320
2628.87985,0.08341
2626.95111,0.08390
2625.02236,0.08437
2623.09362,0.08463
2621.16487,0.08473
2619.23613,0.08477
2617.30738,0.08501
2615.37864,0.08556
2613.44989,0.08611
2611.52115,0.08627
2609.59240,0.08614
2607.66366,0.08607
2605.73491,0.08620
2603.80616,0.08648
2601.87742,0.08679
2599.94867,0.08703
2598.01993,0.08729
2596.09118,0.08761
2594.16244,0.08788
2592.23369,0.08802
2590.30495,0.08811
2588.37620,0.08836
2586.44746,0.08877
2584.51871,0.08915
2582.58997,0.08949
2580.66122,0.08972
2578.73248,0.08980
2576.80373,0.08994
2574.87499,0.09008
2572.94624,0.09015
2571.01749,0.09036
2569.08875,0.09078
2567.16000,0.09113
2565.23126,0.09118
2563.30251,0.09099
2561.37377,0.09086
2559.44502,0.09087
2557.51628,0.09092
2555.58753,0.09102
2553.65879,0.09109
2551.73004,0.09105
2549.80130,0.09113
2547.87255,0.09144
2545.94381,0.09167
2544.01506,0.09169
2542.08631,0.09170
2540.15757,0.09188
2538.22882,0.09206
2536.30008,0.09203
2534.37133,0.09202
2532.44259,0.09237
2530.51384,0.09286
2528.58510,0.09311
2526.65635,0.09318
2524.72761,0.09329
2522.79886,0.09337
2520.87012,0.09348
2518.94137,0.09379
2517.01263,0.09407
2515.08388,0.09419
2513.15514,0.09439
2511.22639,0.09484
2509.29764,0.09534
2507.36890,0.09572
2505.44015,0.09610
2503.51141,0.09652
2501.58266,0.09690
2499.65392,0.09737
2497.72517,0.09800
2495.79643,0.09853
2493.86768,0.09876
2491.93894,0.09888
2490.01019,0.09916
2488.08145,0.09967
2486.15270,0.10029
2484.22396,0.10083
2482.29521,0.10111
2480.36647,0.10125
2478.43772,0.10158
2476.50897,0.10200
2474.58023,0.10234
2472.65148,0.10265
2470.72274,0.10303
2468.79399,0.10342
2466.86525,0.10372
2464.93650,0.10390
2463.00776,0.10401
2461.07901,0.10423
2459.15027,0.10473
2457.22152,0.10523
2455.29278,0.10539
2453.36403,0.10547
2451.43529,0.10586
2449.50654,0.10647
2447.57779,0.10689
2445.64905,0.10715
2443.72030,0.10747
2441.79156,0.10779
2439.86281,0.10806
2437.93407,0.10838
2436.00532,0.10869
2434.07658,0.10884
2432.14783,0.10902
2430.21909,0.10945
2428.29034,0.10999
2426.36160,0.11051
2424.43285,0.11086
2422.50411,0.11108
2420.57536,0.11145
2418.64662,0.11194
2416.71787,0.11233
2414.78912,0.11275
2412.86038,0.11321
2410.93163,0.11346
2409.00289,0.11356
2407.07414,0.11389
2405.14540,0.11441
2403.21665,0.11486
2401.28791,0.11528
2399.35916,0.11567
2397.43042,0.11611
2395.50167,0.11660
2393.57293,0.11692
2391.64418,0.11696
2389.71544,0.11691
2387.78669,0.11707
2385.85795,0.11758
2383.92920,0.11816
2382.00045,0.11850
2380.07171,0.11867
2378.14296,0.11894
2376.21422,0.11931
2374.28547,0.11962
2372.35673,0.11994
2370.42798,0.12040
2368.49924,0.12076
2366.57049,0.12083
2364.64175,0.12095
2362.71300,0.12131
2360.78426,0.12179
2358.85551,0.12229
2356.92677,0.12265
2354.99802,0.12275
2353.06927,0.12280
2351.14053,0.12306
2349.21178,0.12351
2347.28304,0.12388
2345.35429,0.12416
2343.42555,0.12449
2341.49680,0.12476
2339.56806,0.12479
2337.63931,0.12477
2335.71057,0.12494
2333.78182,0.12525
2331.85308,0.12551
2329.92433,0.12565
2327.99559,0.12576
2326.06684,0.12594
2324.13810,0.12626
2322.20935,0.12663
2320.28060,0.12689
2318.35186,0.12707
2316.42311,0.12720
2314.49437,0.12722
2312.56562,0.12716
2310.63688,0.12709
2308.70813,0.12702
2306.77939,0.12704
2304.85064,0.12726
2302.92190,0.12756
2300.99315,0.12759
2299.06441,0.12745
2297.13566,0.12755
2295.20692,0.12777
2293.27817,0.12778
2291.34943,0.12770
2289.42068,0.12770
2287.49193,0.12785
2285.56319,0.12816
2283.63444,0.12846
2281.70570,0.12855
2279.77695,0.12842
2277.84821,0.12823
2275.91946,0.12807
2273.99072,0.12789
2272.06197,0.12772
2270.13323,0.12752
2268.20448,0.12715
2266.27574,0.12672
2264.34699,0.12641
2262.41825,0.12616
2260.48950,0.12597
2258.56075,0.12591
2256.63201,0.12589
2254.70326,0.12581
2252.77452,0.12577
2250.84577,0.12573
2248.91703,0.12546
2246.98828,0.12509
2245.05954,0.12493
2243.13079,0.12494
2241.20205,0.12504
2239.27330,0.12518
2237.34456,0.12516
2235.41581,0.12494
2233.48707,0.12481
2231.55832,0.12494
2229.62958,0.12517
2227.70083,0.12538
2225.77208,0.12553
2223.84334,0.12573
2221.91459,0.12597
2219.98585,0.12616
2218.05710,0.12640
2216.12836,0.12666
2214.19961,0.12670
2212.27087,0.12667
2210.34212,0.12679
2208.41338,0.12697
2206.48463,0.12699
2204.55589,0.12678
2202.62714,0.12651
2200.69840,0.12631
2198.76965,0.12618
2196.84090,0.12609
2194.91216,0.12588
2192.98341,0.12556
2191.05467,0.12518
2189.12592,0.12467
2187.19718,0.12420
2185.26843,0.12385
2183.33969,0.12338
2181.41094,0.12273
2179.48220,0.12204
2177.55345,0.12142
2175.62471,0.12089
2173.69596,0.12034
2171.76722,0.11981
2169.83847,0.11945
2167.90973,0.11919
2165.98098,0.11883
2164.05223,0.11838
2162.12349,0.11793
2160.19474,0.11753
2158.26600,0.11718
2156.33725,0.11682
2154.40851,0.11653
2152.47976,0.11636
2150.55102,0.11615
2148.62227,0.11590
2146.69353,0.11578
2144.76478,0.11571
2142.83604,0.11562
2140.90729,0.11557
2138.97855,0.11551
2137.04980,0.11538
2135.12106,0.11536
2133.19231,0.11556
2131.26356,0.11589
2129.33482,0.11621
2127.40607,0.11648
2125.47733,0.11678
2123.54858,0.11706
2121.61984,0.11722
2119.69109,0.11729
2117.76235,0.11747
2115.83360,0.11791
2113.90486,0.11848
2111.97611,0.11897
2110.04737,0.11943
2108.11862,0.11991
2106.18988,0.12017
2104.26113,0.12031
2102.33238,0.12059
2100.40364,0.12089
2098.47489,0.12103
2096.54615,0.12108
2094.61740,0.12118
2092.68866,0.12135
2090.75991,0.12163
2088.83117,0.12197
2086.90242,0.12225
2084.97368,0.12247
2083.04493,0.12264
2081.11619,0.12272
2079.18744,0.12263
2077.25870,0.12241
2075.32995,0.12223
2073.40121,0.12205
2071.47246,0.12190
2069.54371,0.12191
2067.61497,0.12185
2065.68622,0.12159
2063.75748,0.12155
2061.82873,0.12169
2059.89999,0.12162
2057.97124,0.12144
2056.04250,0.12146
2054.11375,0.12158
2052.18501,0.12163
2050.25626,0.12177
2048.32752,0.12204
2046.39877,0.12221
2044.47003,0.12223
2042.54128,0.12226
2040.61254,0.12248
2038.68379,0.12291
2036.75504,0.12347
2034.82630,0.12399
2032.89755,0.12440
2030.96881,0.12478
2029.04006,0.12521
2027.11132,0.12585
2025.18257,0.12666
2023.25383,0.12748
2021.32508,0.12828
2019.39634,0.12902
2017.46759,0.12977
2015.53885,0.13065
2013.61010,0.13155
2011.68136,0.13229
2009.75261,0.13290
2007.82386,0.13345
2005.89512,0.13397
2003.96637,0.13446
2002.03763,0.13490
2000.10888,0.13522
1998.18014,0.13551
1996.25139,0.13594
1994.32265,0.13644
1992.39390,0.13686
1990.46516,0.13718
1988.53641,0.13749
1986.60767,0.13795
1984.67892,0.13850
1982.75018,0.13888
1980.82143,0.13914
1978.89269,0.13935
1976.96394,0.13949
1975.03519,0.13956
1973.10645,0.13955
1971.17770,0.13952
1969.24896,0.13967
1967.32021,0.13992
1965.39147,0.14002
1963.46272,0.13992
1961.53398,0.13983
1959.60523,0.13986
1957.67649,0.13997
1955.74774,0.14014
1953.81900,0.14038
1951.89025,0.14051
1949.96151,0.14049
1948.03276,0.14050
1946.10402,0.14063
1944.17527,0.14083
1942.24652,0.14102
1940.31778,0.14121
1938.38903,0.14144
1936.46029,0.14179
1934.53154,0.14212
1932.60280,0.14222
1930.67405,0.14218
1928.74531,0.14218
1926.81656,0.14222
1924.88782,0.14223
1922.95907,0.14215
1921.03033,0.14202
1919.10158,0.14181
1917.17284,0.14142
1915.24409,0.14093
1913.31534,0.14053
1911.38660,0.14025
1909.45785,0.14017
1907.52911,0.14017
1905.60036,0.14005
1903.67162,0.13993
1901.74287,0.14004
1899.81413,0.14028
1897.88538,0.14048
1895.95664,0.14063
1894.02789,0.14078
1892.09915,0.14087
1890.17040,0.14082
1888.24166,0.14065
1886.31291,0.14054
1884.38417,0.14068
1882.45542,0.14092
1880.52667,0.14100
1878.59793,0.14090
1876.66918,0.14075
1874.74044,0.14060
1872.81169,0.14047
1870.88295,0.14043
1868.95420,0.14052
1867.02546,0.14058
1865.09671,0.14046
1863.16797,0.14024
1861.23922,0.14001
1859.31048,0.13982
1857.38173,0.13964
1855.45299,0.13936
1853.52424,0.13901
1851.59549,0.13865
1849.66675,0.13829
1847.73800,0.13798
1845.80926,0.13777
1843.88051,0.13743
1841.95177,0.13683
1840.02302,0.13639
1838.09428,0.13619
1836.16553,0.13587
1834.23679,0.13542
1832.30804,0.13504
1830.37930,0.13473
1828.45055,0.13442
1826.52181,0.13406
1824.59306,0.13363
1822.66432,0.13311
1820.73557,0.13249
1818.80682,0.13181
1816.87808,0.13107
1814.94933,0.13025
1813.02059,0.12941
1811.09184,0.12837
1809.16310,0.12709
1807.23435,0.12577
1805.30561,0.12440
1803.37686,0.12290
1801.44812,0.12123
1799.51937,0.11954
1797.59063,0.11809
1795.66188,0.11678
1793.73314,0.11554
1791.80439,0.11445
1789.87565,0.11338
1787.94690,0.11221
1786.01815,0.11095
1784.08941,0.10948
1782.16066,0.10771
1780.23192,0.10577
1778.30317,0.10375
1776.37443,0.10169
1774.44568,0.09946
1772.51694,0.09682
1770.58819,0.09381
1768.65945,0.09073
1766.73070,0.08775
1764.80196,0.08502
1762.87321,0.08236
1760.94447,0.07966
1759.01572,0.07734
1757.08697,0.07545
1755.15823,0.07380
1753.22948,0.07236
1751.30074,0.07089
1749.37199,0.06932
1747.44325,0.06802
1745.51450,0.06713
1743.58576,0.06652
1741.65701,0.06600
1739.72827,0.06548
1737.79952,0.06515
1735.87078,0.06509
1733.94203,0.06520
1732.01329,0.06534
1730.08454,0.06554
1728.15580,0.06580
1726.22705,0.06602
1724.29830,0.06616
1722.36956,0.06632
1720.44081,0.06649
1718.51207,0.06660
1716.58332,0.06664
1714.65458,0.06665
1712.72583,0.06659
1710.79709,0.06649
1708.86834,0.06656
1706.93960,0.06669
1705.01085,0.06657
1703.08211,0.06623
1701.15336,0.06582
1699.22462,0.06542
1697.29587,0.06508
1695.36713,0.06469
1693.43838,0.06430
1691.50963,0.06401
1689.58089,0.06366
1687.65214,0.06320
1685.72340,0.06271
1683.79465,0.06216
1681.86591,0.06163
1679.93716,0.06123
1678.00842,0.06086
1676.07967,0.06042
1674.15093,0.05995
1672.22218,0.05953
1670.29344,0.05895
1668.36469,0.05822
1666.43595,0.05776
1664.50720,0.05760
1662.57845,0.05738
1660.64971,0.05703
1658.72096,0.05673
1656.79222,0.05652
1654.86347,0.05635
1652.93473,0.05627
1651.00598,0.05623
1649.07724,0.05611
1647.14849,0.05590
1645.21975,0.05563
1643.29100,0.05545
1641.36226,0.05543
1639.43351,0.05540
1637.50477,0.05515
1635.57602,0.05476
1633.64728,0.05456
1631.71853,0.05447
1629.78978,0.05424
1627.86104,0.05387
1625.93229,0.05353
1624.00355,0.05322
1622.07480,0.05284
1620.14606,0.05253
1618.21731,0.05236
1616.28857,0.05205
1614.35982,0.05158
1612.43108,0.05116
1610.50233,0.05078
1608.57359,0.05040
1606.64484,0.05020
1604.71610,0.05017
1602.78735,0.05004
1600.85861,0.04982
1598.92986,0.04971
1597.00111,0.04968
1595.07237,0.04973
1593.14362,0.04990
1591.21488,0.05009
1589.28613,0.05029
1587.35739,0.05067
1585.42864,0.05124
1583.49990,0.05187
1581.57115,0.05244
1579.64241,0.05291
1577.71366,0.05342
1575.78492,0.05403
1573.85617,0.05448
1571.92743,0.05472
1569.99868,0.05489
1568.06993,0.05508
1566.14119,0.05534
1564.21244,0.05567
1562.28370,0.05605
1560.35495,0.05649
1558.42621,0.05691
1556.49746,0.05718
1554.56872,0.05733
1552.63997,0.05750
1550.71123,0.05783
1548.78248,0.05830
1546.85374,0.05880
1544.92499,0.05916
1542.99625,0.05935
1541.06750,0.05962
1539.13876,0.05987
1537.21001,0.05999
1535.28126,0.06019
1533.35252,0.06036
1531.42377,0.06023
1529.49503,0.05992
1527.56628,0.05946
1525.63754,0.05864
1523.70879,0.05761
1521.78005,0.05641
1519.85130,0.05515
1517.92256,0.05410
1515.99381,0.05320
1514.06507,0.05253
1512.13632,0.05220
1510.20758,0.05209
1508.27883,0.05206
1506.35008,0.05203
1504.42134,0.05195
1502.49259,0.05196
1500.56385,0.05226
1498.63510,0.05281
1496.70636,0.05327
1494.77761,0.05348
1492.84887,0.05356
1490.92012,0.05345
1488.99138,0.05304
1487.06263,0.05251
1485.13389,0.05200
1483.20514,0.05137
1481.27640,0.05048
1479.34765,0.04947
1477.41891,0.04853
1475.49016,0.04773
1473.56141,0.04686
1471.63267,0.04582
1469.70392,0.04502
1467.77518,0.04471
1465.84643,0.04469
1463.91769,0.04477
1461.98894,0.04487
1460.06020,0.04508
1458.13145,0.04553
1456.20271,0.04595
1454.27396,0.04610
1452.34522,0.04623
1450.41647,0.04642
1448.48773,0.04667
1446.55898,0.04701
1444.63024,0.04716
1442.70149,0.04699
1440.77274,0.04676
1438.84400,0.04658
1436.91525,0.04631
1434.98651,0.04598
1433.05776,0.04570
1431.12902,0.04560
1429.20027,0.04573
1427.27153,0.04593
1425.34278,0.04615
1423.41404,0.04642
1421.48529,0.04681
1419.55655,0.04727
1417.62780,0.04770
1415.69906,0.04812
1413.77031,0.04859
1411.84156,0.04905
1409.91282,0.04932
1407.98407,0.04923
1406.05533,0.04891
1404.12658,0.04869
1402.19784,0.04862
1400.26909,0.04848
1398.34035,0.04837
1396.41160,0.04834
1394.48286,0.04818
1392.55411,0.04773
1390.62537,0.04723
1388.69662,0.04681
1386.76788,0.04633
1384.83913,0.04573
1382.91039,0.04518
1380.98164,0.04486
1379.05289,0.04478
1377.12415,0.04485
1375.19540,0.04493
1373.26666,0.04496
1371.33791,0.04496
1369.40917,0.04496
1367.48042,0.04499
1365.55168,0.04506
1363.62293,0.04526
1361.69419,0.04561
1359.76544,0.04584
1357.83670,0.04592
1355.90795,0.04602
1353.97921,0.04613
1352.05046,0.04627
1350.12172,0.04639
1348.19297,0.04627
1346.26422,0.04596
1344.33548,0.04568
1342.40673,0.04541
1340.47799,0.04511
1338.54924,0.04493
1336.62050,0.04490
1334.69175,0.04495
1332.76301,0.04502
1330.83426,0.04499
1328.90552,0.04494
1326.97677,0.04497
1325.04803,0.04494
1323.11928,0.04490
1321.19054,0.04490
1319.26179,0.04493
1317.33304,0.04511
1315.40430,0.04545
1313.47555,0.04574
1311.54681,0.04604
1309.61806,0.04649
1307.68932,0.04684
1305.76057,0.04693
1303.83183,0.04698
1301.90308,0.04725
1299.97434,0.04762
1298.04559,0.04776
1296.11685,0.04761
1294.18810,0.04745
1292.25936,0.04739
1290.33061,0.04727
1288.40187,0.04702
1286.47312,0.04663
1284.54437,0.04614
1282.61563,0.04569
1280.68688,0.04544
1278.75814,0.04543
1276.82939,0.04553
1274.90065,0.04555
1272.97190,0.04567
1271.04316,0.04604
1269.11441,0.04634
1267.18567,0.04627
1265.25692,0.04611
1263.32818,0.04606
1261.39943,0.04605
1259.47069,0.04610
1257.54194,0.04615
1255.61320,0.04610
1253.68445,0.04596
1251.75570,0.04579
1249.82696,0.04564
1247.89821,0.04555
1245.96947,0.04542
1244.04072,0.04527
1242.11198,0.04531
1240.18323,0.04557
1238.25449,0.04575
1236.32574,0.04568
1234.39700,0.04561
1232.46825,0.04568
1230.53951,0.04577
1228.61076,0.04602
1226.68202,0.04647
1224.75327,0.04683
1222.82452,0.04698
1220.89578,0.04711
1218.96703,0.04727
1217.03829,0.04738
1215.10954,0.04744
1213.18080,0.04735
1211.25205,0.04721
1209.32331,0.04715
1207.39456,0.04704
1205.46582,0.04687
1203.53707,0.04698
1201.60833,0.04743
1199.67958,0.04784
1197.75084,0.04805
1195.82209,0.04827
1193.89335,0.04853
1191.96460,0.04864
1190.03585,0.04865
1188.10711,0.04872
1186.17836,0.04878
1184.24962,0.04858
1182.32087,0.04807
1180.39213,0.04749
1178.46338,0.04707
1176.53464,0.04665
1174.60589,0.04591
1172.67715,0.04487
1170.74840,0.04394
1168.81966,0.04341
1166.89091,0.04313
1164.96217,0.04303
1163.03342,0.04314
1161.10467,0.04317
1159.17593,0.04292
1157.24718,0.04265
1155.31844,0.04253
1153.38969,0.04240
1151.46095,0.04216
1149.53220,0.04176
1147.60346,0.04123
1145.67471,0.04065
1143.74597,0.04016
1141.81722,0.03984
1139.88848,0.03948
1137.95973,0.03882
1136.03099,0.03800
1134.10224,0.03749
1132.17350,0.03747
1130.24475,0.03747
1128.31600,0.03732
1126.38726,0.03724
1124.45851,0.03705
1122.52977,0.03671
1120.60102,0.03667
1118.67228,0.03696
1116.74353,0.03728
1114.81479,0.03772
1112.88604,0.03819
1110.95730,0.03862
1109.02855,0.03910
1107.09981,0.03939
1105.17106,0.03947
1103.24232,0.03957
1101.31357,0.03954
1099.38483,0.03934
1097.45608,0.03920
1095.52733,0.03919
1093.59859,0.03929
1091.66984,0.03955
1089.74110,0.03982
1087.81235,0.03972
1085.88361,0.03936
1083.95486,0.03939
1082.02612,0.04007
1080.09737,0.04099
1078.16863,0.04174
1076.23988,0.04238
1074.31114,0.04315
1072.38239,0.04397
1070.45365,0.04505
1068.52490,0.04700
1066.59615,0.04979
1064.66741,0.05267
1062.73866,0.05522
1060.80992,0.05743
1058.88117,0.05926
1056.95243,0.06038
1055.02368,0.06075
1053.09494,0.06045
1051.16619,0.05966
1049.23745,0.05882
1047.30870,0.05819
1045.37996,0.05778
1043.45121,0.05772
1041.52247,0.05837
1039.59372,0.05987
1037.66498,0.06197
1035.73623,0.06405
1033.80748,0.06561
1031.87874,0.06654
1029.94999,0.06688
1028.02125,0.06662
1026.09250,0.06598
1024.16376,0.06560
1022.23501,0.06578
1020.30627,0.06602
1018.37752,0.06594
1016.44878,0.06576
1014.52003,0.06570
1012.59129,0.06583
1010.66254,0.06615
1008.73380,0.06634
1006.80505,0.06611
1004.87631,0.06559
1002.94756,0.06525
1001.01881,0.06536
999.09007,0.06574
997.16132,0.06626
995.23258,0.06695
993.30383,0.06752
991.37509,0.06767
989.44634,0.06763
987.51760,0.06784
985.58885,0.06852
983.66011,0.06951
981.73136,0.07037
979.80262,0.07087
977.87387,0.07139
975.94513,0.07201
974.01638,0.07233
972.08763,0.07244
970.15889,0.07268
968.23014,0.07299
966.30140,0.07340
964.37265,0.07396
962.44391,0.07451
960.51516,0.07502
958.58642,0.07578
956.65767,0.07684
954.72893,0.07770
952.80018,0.07791
950.87144,0.07792
948.94269,0.07828
947.01395,0.07881
945.08520,0.07909
943.15646,0.07901
941.22771,0.07884
939.29896,0.07886
937.37022,0.07879
935.44147,0.07834
933.51273,0.07791
931.58398,0.07778
929.65524,0.07786
927.72649,0.07804
925.79775,0.07805
923.86900,0.07774
921.94026,0.07711
920.01151,0.07620
918.08277,0.07549
916.15402,0.07517
914.22528,0.07480
912.29653,0.07397
910.36779,0.07273
908.43904,0.07140
906.51029,0.07030
904.58155,0.06954
902.65280,0.06891
900.72406,0.06817
898.79531,0.06765
896.86657,0.06765
894.93782,0.06804
893.00908,0.06878
891.08033,0.06968
889.15159,0.07030
887.22284,0.07070
885.29410,0.07110
883.36535,0.07140
881.43661,0.07162
879.50786,0.07158
877.57911,0.07115
875.65037,0.07076
873.72162,0.07075
871.79288,0.07108
869.86413,0.07147
867.93539,0.07170
866.00664,0.07179
864.07790,0.07174
862.14915,0.07157
860.22041,0.07150
858.29166,0.07160
856.36292,0.07174
854.43417,0.07171
852.50543,0.07153
850.57668,0.07137
848.64794,0.07137
846.71919,0.07134
844.79044,0.07114
842.86170,0.07090
840.93295,0.07073
839.00421,0.07066
837.07546,0.07052
835.14672,0.07011
833.21797,0.06953
831.28923,0.06900
829.36048,0.06865
827.43174,0.06831
825.50299,0.06783
823.57425,0.06742
821.64550,0.06717
819.71676,0.06693
817.78801,0.06666
815.85926,0.06627
813.93052,0.06576
812.00177,0.06545
810.07303,0.06568
808.14428,0.06607
806.21554,0.06613
804.28679,0.06607
802.35805,0.06612
800.42930,0.06595
798.50056,0.06545
796.57181,0.06523
794.64307,0.06538
792.71432,0.06525
790.78558,0.06499
788.85683,0.06486
786.92809,0.06448
784.99934,0.06396
783.07059,0.06386
781.14185,0.06419
779.21310,0.06424
777.28436,0.06360
775.35561,0.06262
773.42687,0.06187
771.49812,0.06168
769.56938,0.06176
767.64063,0.06164
765.71189,0.06134
763.78314,0.06097
761.85440,0.06058
759.92565,0.06033
757.99691,0.06016
756.06816,0.05991
754.13942,0.05941
752.21067,0.05853
750.28192,0.05750
748.35318,0.05677
746.42443,0.05636
744.49569,0.05608
742.56694,0.05598
740.63820,0.05621
738.70945,0.05635
736.78071,0.05589
734.85196,0.05521
732.92322,0.05467
730.99447,0.05416
729.06573,0.05372
727.13698,0.05334
725.20824,0.05290
723.27949,0.05265
721.35074,0.05267
719.42200,0.05256
717.49325,0.05224
715.56451,0.05217
713.63576,0.05264
711.70702,0.05331
709.77827,0.05347
707.84953,0.05291
705.92078,0.05226
703.99204,0.05190
702.06329,0.05159
700.13455,0.05138
698.20580,0.05142
696.27706,0.05147
694.34831,0.05138
692.41957,0.05103
690.49082,0.05060
688.56207,0.05050
686.63333,0.05088
684.70458,0.05149
682.77584,0.05150
680.84709,0.05063
678.91835,0.04946
676.98960,0.04872
675.06086,0.04894
673.13211,0.04954
671.20337,0.04961
669.27462,0.04966
667.34588,0.05025
665.41713,0.05089
663.48839,0.05110
661.55964,0.05090
659.63090,0.05066
657.70215,0.05083
655.77340,0.05138
653.84466,0.05172
651.91591,0.05135
649.98717,0.05065
648.05842,0.05011
646.12968,0.04943
644.20093,0.04849
642.27219,0.04805
640.34344,0.04874
638.41470,0.04996
636.48595,0.05010
634.55721,0.04867
632.62846,0.04729
630.69972,0.04724
628.77097,0.04796
626.84222,0.04855
624.91348,0.04872
622.98473,0.04875
621.05599,0.04886
619.12724,0.04848
617.19850,0.04776
615.26975,0.04805
613.34101,0.04951
611.41226,0.05101
609.48352,0.05203
607.55477,0.05273
605.62603,0.05349
603.69728,0.05436
601.76854,0.05441
599.83979,0.05313
