7497.03301,0.17089
7495.10426,0.16822
7493.17552,0.16637
7491.24677,0.16650
7489.31803,0.17009
7487.38928,0.17533
7485.46054,0.17544
7483.53179,0.17029
7481.60305,0.16642
7479.67430,0.16590
7477.74556,0.16676
7475.81681,0.16775
7473.88807,0.16814
7471.95932,0.16846
7470.03057,0.17025
7468.10183,0.17107
7466.17308,0.16743
7464.24434,0.16465
7462.31559,0.16837
7460.38685,0.17332
7458.45810,0.17436
7456.52936,0.17449
7454.60061,0.17497
7452.67187,0.17352
7450.74312,0.17137
7448.81438,0.16896
7446.88563,0.16635
7444.95689,0.16976
7443.02814,0.17742
7441.09940,0.17950
7439.17065,0.17817
7437.24190,0.17950
7435.31316,0.18041
7433.38441,0.17799
7431.45567,0.17542
7429.52692,0.17630
7427.59818,0.17811
7425.66943,0.17582
7423.74069,0.17114
7421.81194,0.16909
7419.88320,0.16872
7417.95445,0.16859
7416.02571,0.17090
7414.09696,0.17397
7412.16822,0.17352
7410.23947,0.17139
7408.31073,0.17131
7406.38198,0.17242
7404.45323,0.17306
7402.52449,0.17365
7400.59574,0.17431
7398.66700,0.17412
7396.73825,0.17290
7394.80951,0.17299
7392.88076,0.17392
7390.95202,0.17274
7389.02327,0.17128
7387.09453,0.17154
7385.16578,0.17256
7383.23704,0.17458
7381.30829,0.17714
7379.37955,0.17838
7377.45080,0.17923
7375.52205,0.18126
7373.59331,0.18316
7371.66456,0.18400
7369.73582,0.18272
7367.80707,0.17919
7365.87833,0.17702
7363.94958,0.17699
7362.02084,0.17570
7360.09209,0.17333
7358.16335,0.17467
7356.23460,0.17904
7354.30586,0.17872
7352.37711,0.17479
7350.44837,0.17402
7348.51962,0.17651
7346.59088,0.17989
7344.66213,0.18260
7342.73338,0.18214
7340.80464,0.17780
7338.87589,0.17443
7336.94715,0.17365
7335.01840,0.17104
7333.08966,0.16982
7331.16091,0.17303
7329.23217,0.17502
7327.30342,0.17388
7325.37468,0.17258
7323.44593,0.17477
7321.51719,0.18124
7319.58844,0.18539
7317.65970,0.18270
7315.73095,0.17770
7313.80221,0.17587
7311.87346,0.17691
7309.94471,0.17769
7308.01597,0.17650
7306.08722,0.17483
7304.15848,0.17555
7302.22973,0.17811
7300.30099,0.17792
7298.37224,0.17464
7296.44350,0.17490
7294.51475,0.17918
7292.58601,0.18079
7290.65726,0.17851
7288.72852,0.17507
7286.79977,0.17347
7284.87103,0.17473
7282.94228,0.17660
7281.01353,0.17735
7279.08479,0.17632
7277.15604,0.17568
7275.22730,0.17750
7273.29855,0.17932
7271.36981,0.17913
7269.44106,0.17686
7267.51232,0.17557
7265.58357,0.17873
7263.65483,0.18238
7261.72608,0.18101
7259.79734,0.17741
7257.86859,0.17725
7255.93985,0.17928
7254.01110,0.17946
7252.08236,0.17825
7250.15361,0.17750
7248.22486,0.17820
7246.29612,0.18041
7244.36737,0.18164
7242.43863,0.18083
7240.50988,0.17942
7238.58114,0.17844
7236.65239,0.17891
7234.72365,0.18003
7232.79490,0.17958
7230.86616,0.17767
7228.93741,0.17643
7227.00867,0.17664
7225.07992,0.17652
7223.15118,0.17502
7221.22243,0.17369
7219.29369,0.17513
7217.36494,0.17890
7215.43619,0.18052
7213.50745,0.17861
7211.57870,0.17631
7209.64996,0.17540
7207.72121,0.17592
7205.79247,0.17757
7203.86372,0.17943
7201.93498,0.18165
7200.00623,0.18305
7198.07749,0.18177
7196.14874,0.18033
7194.22000,0.18036
7192.29125,0.18063
7190.36251,0.18088
7188.43376,0.18043
7186.50501,0.17918
7184.57627,0.17770
7182.64752,0.17688
7180.71878,0.17701
7178.79003,0.17757
7176.86129,0.17870
7174.93254,0.17866
7173.00380,0.17700
7171.07505,0.17531
7169.14631,0.17318
7167.21756,0.17112
7165.28882,0.17129
7163.36007,0.17427
7161.43133,0.17618
7159.50258,0.17516
7157.57384,0.17650
7155.64509,0.18127
7153.71634,0.18343
7151.78760,0.17954
7149.85885,0.17420
7147.93011,0.17466
7146.00136,0.17879
7144.07262,0.18011
7142.14387,0.17960
7140.21513,0.17988
7138.28638,0.18036
7136.35764,0.18035
7134.42889,0.17974
7132.50015,0.17918
7130.57140,0.17893
7128.64266,0.17908
7126.71391,0.17978
7124.78516,0.18016
7122.85642,0.18001
7120.92767,0.17882
7118.99893,0.17645
7117.07018,0.17501
7115.14144,0.17546
7113.21269,0.17796
7111.28395,0.18280
7109.35520,0.18661
7107.42646,0.18659
7105.49771,0.18526
7103.56897,0.18383
7101.64022,0.18144
7099.71148,0.18039
7097.78273,0.18200
7095.85399,0.18374
7093.92524,0.18356
7091.99649,0.18274
7090.06775,0.18328
7088.13900,0.18482
7086.21026,0.18556
7084.28151,0.18345
7082.35277,0.17879
7080.42402,0.17437
7078.49528,0.17236
7076.56653,0.17336
7074.63779,0.17618
7072.70904,0.17838
7070.78030,0.17896
7068.85155,0.17918
7066.92281,0.17955
7064.99406,0.17852
7063.06532,0.17689
7061.13657,0.17690
7059.20782,0.17763
7057.27908,0.17756
7055.35033,0.17700
7053.42159,0.17540
7051.49284,0.17334
7049.56410,0.17329
7047.63535,0.17507
7045.70661,0.17696
7043.77786,0.17832
7041.84912,0.17887
7039.92037,0.17970
7037.99163,0.18180
7036.06288,0.18413
7034.13414,0.18543
7032.20539,0.18625
7030.27664,0.18776
7028.34790,0.18814
7026.41915,0.18500
7024.49041,0.17990
7022.56166,0.17607
7020.63292,0.17557
7018.70417,0.17805
7016.77543,0.18183
7014.84668,0.18584
7012.91794,0.18849
7010.98919,0.18701
7009.06045,0.18131
7007.13170,0.17695
7005.20296,0.17769
7003.27421,0.17962
7001.34547,0.18021
6999.41672,0.18157
6997.48797,0.18305
6995.55923,0.18212
6993.63048,0.18082
6991.70174,0.18104
6989.77299,0.17982
6987.84425,0.17812
6985.91550,0.17957
6983.98676,0.18128
6982.05801,0.18103
6980.12927,0.18061
6978.20052,0.18029
6976.27178,0.18008
6974.34303,0.18088
6972.41429,0.18197
6970.48554,0.18223
6968.55680,0.18200
6966.62805,0.18228
6964.69930,0.18274
6962.77056,0.18147
6960.84181,0.17886
6958.91307,0.17891
6956.98432,0.18305
6955.05558,0.18719
6953.12683,0.18755
6951.19809,0.18519
6949.26934,0.18268
6947.34060,0.18124
6945.41185,0.18127
6943.48311,0.18227
6941.55436,0.18268
6939.62562,0.18095
6937.69687,0.17898
6935.76812,0.18066
6933.83938,0.18415
6931.91063,0.18491
6929.98189,0.18374
6928.05314,0.18386
6926.12440,0.18397
6924.19565,0.18165
6922.26691,0.17963
6920.33816,0.18017
6918.40942,0.18164
6916.48067,0.18287
6914.55193,0.18219
6912.62318,0.18012
6910.69444,0.18010
6908.76569,0.18174
6906.83695,0.18179
6904.90820,0.18023
6902.97945,0.18028
6901.05071,0.18281
6899.12196,0.18522
6897.19322,0.18701
6895.26447,0.18951
6893.33573,0.19118
6891.40698,0.18966
6889.47824,0.18659
6887.54949,0.18521
6885.62075,0.18590
6883.69200,0.18645
6881.76326,0.18494
6879.83451,0.18307
6877.90577,0.18354
6875.97702,0.18480
6874.04828,0.18497
6872.11953,0.18476
6870.19078,0.18523
6868.26204,0.18598
6866.33329,0.18522
6864.40455,0.18343
6862.47580,0.18197
6860.54706,0.18028
6858.61831,0.17832
6856.68957,0.17721
6854.76082,0.17790
6852.83208,0.17940
6850.90333,0.18089
6848.97459,0.18260
6847.04584,0.18346
6845.11710,0.18383
6843.18835,0.18420
6841.25960,0.18313
6839.33086,0.18265
6837.40211,0.18593
6835.47337,0.18990
6833.54462,0.18991
6831.61588,0.18740
6829.68713,0.18589
6827.75839,0.18588
6825.82964,0.18578
6823.90090,0.18505
6821.97215,0.18583
6820.04341,0.18816
6818.11466,0.18964
6816.18592,0.18949
6814.25717,0.18781
6812.32843,0.18644
6810.39968,0.18727
6808.47093,0.18877
6806.54219,0.18947
6804.61344,0.18998
6802.68470,0.19019
6800.75595,0.18950
6798.82721,0.18853
6796.89846,0.18849
6794.96972,0.18912
6793.04097,0.18879
6791.11223,0.18767
6789.18348,0.18641
6787.25474,0.18465
6785.32599,0.18400
6783.39725,0.18517
6781.46850,0.18597
6779.53975,0.18581
6777.61101,0.18602
6775.68226,0.18689
6773.75352,0.18776
6771.82477,0.18844
6769.89603,0.18856
6767.96728,0.18756
6766.03854,0.18662
6764.10979,0.18700
6762.18105,0.18792
6760.25230,0.18826
6758.32356,0.18805
6756.39481,0.18759
6754.46607,0.18634
6752.53732,0.18543
6750.60858,0.18643
6748.67983,0.18676
6746.75108,0.18556
6744.82234,0.18597
6742.89359,0.18811
6740.96485,0.18947
6739.03610,0.18972
6737.10736,0.19060
6735.17861,0.19262
6733.24987,0.19470
6731.32112,0.19524
6729.39238,0.19374
6727.46363,0.19230
6725.53489,0.19155
6723.60614,0.19070
6721.67740,0.19025
6719.74865,0.18975
6717.81991,0.18903
6715.89116,0.18906
6713.96241,0.18995
6712.03367,0.19058
6710.10492,0.19002
6708.17618,0.18945
6706.24743,0.19010
6704.31869,0.19137
6702.38994,0.19269
6700.46120,0.19308
6698.53245,0.19169
6696.60371,0.19029
6694.67496,0.19051
6692.74622,0.19018
6690.81747,0.18869
6688.88873,0.18895
6686.95998,0.19038
6685.03123,0.19159
6683.10249,0.19343
6681.17374,0.19406
6679.24500,0.19255
6677.31625,0.19162
6675.38751,0.19188
6673.45876,0.19257
6671.53002,0.19335
6669.60127,0.19388
6667.67253,0.19543
6665.74378,0.19769
6663.81504,0.19722
6661.88629,0.19308
6659.95755,0.18867
6658.02880,0.18747
6656.10006,0.18891
6654.17131,0.19006
6652.24256,0.19075
6650.31382,0.19177
6648.38507,0.19206
6646.45633,0.19259
6644.52758,0.19439
6642.59884,0.19379
6640.67009,0.18994
6638.74135,0.18801
6636.81260,0.18906
6634.88386,0.19090
6632.95511,0.19378
6631.02637,0.19569
6629.09762,0.19475
6627.16888,0.19461
6625.24013,0.19612
6623.31139,0.19581
6621.38264,0.19447
6619.45389,0.19394
6617.52515,0.19288
6615.59640,0.19158
6613.66766,0.19222
6611.73891,0.19521
6609.81017,0.19822
6607.88142,0.19897
6605.95268,0.19803
6604.02393,0.19752
6602.09519,0.19801
6600.16644,0.19791
6598.23770,0.19595
6596.30895,0.19382
6594.38021,0.19467
6592.45146,0.19749
6590.52271,0.19825
6588.59397,0.19665
6586.66522,0.19545
6584.73648,0.19626
6582.80773,0.19778
6580.87899,0.19772
6578.95024,0.19662
6577.02150,0.19669
6575.09275,0.19846
6573.16401,0.20013
6571.23526,0.20048
6569.30652,0.19988
6567.37777,0.19824
6565.44903,0.19648
6563.52028,0.19674
6561.59154,0.19806
6559.66279,0.19745
6557.73404,0.19492
6555.80530,0.19382
6553.87655,0.19631
6551.94781,0.20014
6550.01906,0.20155
6548.09032,0.19992
6546.16157,0.19855
6544.23283,0.19934
6542.30408,0.19989
6540.37534,0.19995
6538.44659,0.20166
6536.51785,0.20331
6534.58910,0.20236
6532.66036,0.20024
6530.73161,0.19958
6528.80287,0.20067
6526.87412,0.20259
6524.94537,0.20434
6523.01663,0.20383
6521.08788,0.20076
6519.15914,0.19729
6517.23039,0.19552
6515.30165,0.19650
6513.37290,0.19896
6511.44416,0.20117
6509.51541,0.20264
6507.58667,0.20309
6505.65792,0.20359
6503.72918,0.20424
6501.80043,0.20234
6499.87169,0.19873
6497.94294,0.19746
6496.01419,0.19866
6494.08545,0.19988
6492.15670,0.20037
6490.22796,0.20070
6488.29921,0.20141
6486.37047,0.20180
6484.44172,0.20108
6482.51298,0.19963
6480.58423,0.19882
6478.65549,0.19982
6476.72674,0.20090
6474.79800,0.20025
6472.86925,0.19959
6470.94051,0.19950
6469.01176,0.19891
6467.08302,0.19953
6465.15427,0.20232
6463.22552,0.20442
6461.29678,0.20382
6459.36803,0.20214
6457.43929,0.20172
6455.51054,0.20256
6453.58180,0.20324
6451.65305,0.20339
6449.72431,0.20349
6447.79556,0.20321
6445.86682,0.20170
6443.93807,0.20103
6442.00933,0.20334
6440.08058,0.20574
6438.15184,0.20547
6436.22309,0.20428
6434.29434,0.20460
6432.36560,0.20595
6430.43685,0.20651
6428.50811,0.20584
6426.57936,0.20500
6424.65062,0.20562
6422.72187,0.20663
6420.79313,0.20543
6418.86438,0.20324
6416.93564,0.20260
6415.00689,0.20369
6413.07815,0.20555
6411.14940,0.20695
6409.22066,0.20696
6407.29191,0.20632
6405.36317,0.20679
6403.43442,0.20776
6401.50567,0.20713
6399.57693,0.20536
6397.64818,0.20429
6395.71944,0.20474
6393.79069,0.20596
6391.86195,0.20595
6389.93320,0.20477
6388.00446,0.20491
6386.07571,0.20662
6384.14697,0.20787
6382.21822,0.20835
6380.28948,0.20921
6378.36073,0.20990
6376.43199,0.20889
6374.50324,0.20730
6372.57450,0.20710
6370.64575,0.20800
6368.71700,0.20952
6366.78826,0.21116
6364.85951,0.21116
6362.93077,0.20984
6361.00202,0.20953
6359.07328,0.21031
6357.14453,0.21109
6355.21579,0.21219
6353.28704,0.21337
6351.35830,0.21344
6349.42955,0.21283
6347.50081,0.21252
6345.57206,0.21166
6343.64332,0.20979
6341.71457,0.20852
6339.78582,0.20823
6337.85708,0.20787
6335.92833,0.20772
6333.99959,0.20839
6332.07084,0.20957
6330.14210,0.21124
6328.21335,0.21272
6326.28461,0.21269
6324.35586,0.21198
6322.42712,0.21240
6320.49837,0.21346
6318.56963,0.21352
6316.64088,0.21226
6314.71214,0.21070
6312.78339,0.20957
6310.85465,0.20866
6308.92590,0.20785
6306.99715,0.20776
6305.06841,0.20921
6303.13966,0.21137
6301.21092,0.21275
6299.28217,0.21399
6297.35343,0.21530
6295.42468,0.21527
6293.49594,0.21427
6291.56719,0.21355
6289.63845,0.21321
6287.70970,0.21333
6285.78096,0.21508
6283.85221,0.21766
6281.92347,0.21772
6279.99472,0.21562
6278.06598,0.21418
6276.13723,0.21325
6274.20848,0.21236
6272.27974,0.21263
6270.35099,0.21365
6268.42225,0.21433
6266.49350,0.21546
6264.56476,0.21655
6262.63601,0.21600
6260.70727,0.21476
6258.77852,0.21349
6256.84978,0.21224
6254.92103,0.21256
6252.99229,0.21465
6251.06354,0.21742
6249.13480,0.21973
6247.20605,0.21964
6245.27730,0.21746
6243.34856,0.21581
6241.41981,0.21535
6239.49107,0.21527
6237.56232,0.21536
6235.63358,0.21567
6233.70483,0.21627
6231.77609,0.21718
6229.84734,0.21794
6227.91860,0.21811
6225.98985,0.21823
6224.06111,0.21887
6222.13236,0.21956
6220.20362,0.22033
6218.27487,0.22127
6216.34613,0.22093
6214.41738,0.21933
6212.48863,0.21903
6210.55989,0.22045
6208.63114,0.22151
6206.70240,0.22116
6204.77365,0.21995
6202.84491,0.21931
6200.91616,0.21975
6198.98742,0.22031
6197.05867,0.22029
6195.12993,0.22000
6193.20118,0.21983
6191.27244,0.21948
6189.34369,0.21914
6187.41495,0.21925
6185.48620,0.21954
6183.55746,0.22060
6181.62871,0.22258
6179.69996,0.22351
6177.77122,0.22278
6175.84247,0.22229
6173.91373,0.22255
6171.98498,0.22245
6170.05624,0.22232
6168.12749,0.22258
6166.19875,0.22233
6164.27000,0.22170
6162.34126,0.22183
6160.41251,0.22223
6158.48377,0.22170
6156.55502,0.22105
6154.62628,0.22168
6152.69753,0.22261
6150.76878,0.22239
6148.84004,0.22230
6146.91129,0.22373
6144.98255,0.22489
6143.05380,0.22425
6141.12506,0.22326
6139.19631,0.22328
6137.26757,0.22381
6135.33882,0.22425
6133.41008,0.22479
6131.48133,0.22521
6129.55259,0.22509
6127.62384,0.22469
6125.69510,0.22433
6123.76635,0.22433
6121.83761,0.22473
6119.90886,0.22453
6117.98011,0.22372
6116.05137,0.22421
6114.12262,0.22613
6112.19388,0.22737
6110.26513,0.22738
6108.33639,0.22652
6106.40764,0.22550
6104.47890,0.22532
6102.55015,0.22514
6100.62141,0.22511
6098.69266,0.22634
6096.76392,0.22719
6094.83517,0.22698
6092.90643,0.22698
6090.97768,0.22712
6089.04893,0.22692
6087.12019,0.22707
6085.19144,0.22845
6083.26270,0.23007
6081.33395,0.23009
6079.40521,0.22957
6077.47646,0.23033
6075.54772,0.23120
6073.61897,0.23069
6071.69023,0.22952
6069.76148,0.22917
6067.83274,0.23009
6065.90399,0.23063
6063.97525,0.22993
6062.04650,0.22939
6060.11776,0.22939
6058.18901,0.22894
6056.26026,0.22837
6054.33152,0.22839
6052.40277,0.22819
6050.47403,0.22773
6048.54528,0.22838
6046.61654,0.23009
6044.68779,0.23168
6042.75905,0.23183
6040.83030,0.22987
6038.90156,0.22769
6036.97281,0.22685
6035.04407,0.22678
6033.11532,0.22770
6031.18658,0.22894
6029.25783,0.22866
6027.32909,0.22808
6025.40034,0.22934
6023.47159,0.23135
6021.54285,0.23167
6019.61410,0.23007
6017.68536,0.22847
6015.75661,0.22832
6013.82787,0.22908
6011.89912,0.22923
6009.97038,0.22830
6008.04163,0.22683
6006.11289,0.22593
6004.18414,0.22657
6002.25540,0.22721
6000.32665,0.22656
5998.39791,0.22644
5996.46916,0.22747
5994.54041,0.22852
5992.61167,0.22900
5990.68292,0.22846
5988.75418,0.22744
5986.82543,0.22693
5984.89669,0.22715
5982.96794,0.22781
5981.03920,0.22801
5979.11045,0.22779
5977.18171,0.22821
5975.25296,0.22819
5973.32422,0.22670
5971.39547,0.22554
5969.46673,0.22595
5967.53798,0.22674
5965.60924,0.22665
5963.68049,0.22562
5961.75174,0.22460
5959.82300,0.22432
5957.89425,0.22438
5955.96551,0.22406
5954.03676,0.22352
5952.10802,0.22334
5950.17927,0.22347
5948.25053,0.22389
5946.32178,0.22425
5944.39304,0.22353
5942.46429,0.22205
5940.53555,0.22104
5938.60680,0.22072
5936.67806,0.22069
5934.74931,0.22089
5932.82057,0.22146
5930.89182,0.22210
5928.96307,0.22242
5927.03433,0.22270
5925.10558,0.22298
5923.17684,0.22249
5921.24809,0.22189
5919.31935,0.22227
5917.39060,0.22269
5915.46186,0.22175
5913.53311,0.22023
5911.60437,0.21964
5909.67562,0.21875
5907.74688,0.21657
5905.81813,0.21517
5903.88939,0.21536
5901.96064,0.21589
5900.03189,0.21591
5898.10315,0.21595
5896.17440,0.21693
5894.24566,0.21767
5892.31691,0.21680
5890.38817,0.21502
5888.45942,0.21439
5886.53068,0.21599
5884.60193,0.21750
5882.67319,0.21654
5880.74444,0.21453
5878.81570,0.21348
5876.88695,0.21299
5874.95821,0.21304
5873.02946,0.21407
5871.10072,0.21471
5869.17197,0.21383
5867.24322,0.21232
5865.31448,0.21132
5863.38573,0.21099
5861.45699,0.21138
5859.52824,0.21252
5857.59950,0.21326
5855.67075,0.21282
5853.74201,0.21213
5851.81326,0.21175
5849.88452,0.21156
5847.95577,0.21182
5846.02703,0.21242
5844.09828,0.21283
5842.16954,0.21290
5840.24079,0.21254
5838.31205,0.21195
5836.38330,0.21168
5834.45455,0.21193
5832.52581,0.21220
5830.59706,0.21182
5828.66832,0.21102
5826.73957,0.21055
5824.81083,0.21041
5822.88208,0.21033
5820.95334,0.21063
5819.02459,0.21124
5817.09585,0.21180
5815.16710,0.21237
5813.23836,0.21245
5811.30961,0.21163
5809.38087,0.21058
5807.45212,0.20974
5805.52337,0.20880
5803.59463,0.20789
5801.66588,0.20769
5799.73714,0.20766
5797.80839,0.20727
5795.87965,0.20725
5793.95090,0.20744
5792.02216,0.20755
5790.09341,0.20799
5788.16467,0.20864
5786.23592,0.20950
5784.30718,0.21079
5782.37843,0.21176
5780.44969,0.21127
5778.52094,0.20940
5776.59220,0.20778
5774.66345,0.20804
5772.73470,0.20991
5770.80596,0.21159
5768.87721,0.21247
5766.94847,0.21333
5765.01972,0.21414
5763.09098,0.21431
5761.16223,0.21420
5759.23349,0.21425
5757.30474,0.21432
5755.37600,0.21430
5753.44725,0.21436
5751.51851,0.21490
5749.58976,0.21615
5747.66102,0.21761
5745.73227,0.21860
5743.80352,0.21909
5741.87478,0.21922
5739.94603,0.21911
5738.01729,0.21880
5736.08854,0.21796
5734.15980,0.21727
5732.23105,0.21799
5730.30231,0.21924
5728.37356,0.21985
5726.44482,0.22041
5724.51607,0.22101
5722.58733,0.22068
5720.65858,0.21968
5718.72984,0.21927
5716.80109,0.21936
5714.87235,0.21931
5712.94360,0.21942
5711.01485,0.21976
5709.08611,0.22000
5707.15736,0.22032
5705.22862,0.22053
5703.29987,0.22026
5701.37113,0.21997
5699.44238,0.21959
5697.51364,0.21911
5695.58489,0.21942
5693.65615,0.22048
5691.72740,0.22132
5689.79866,0.22126
5687.86991,0.22078
5685.94117,0.22093
5684.01242,0.22094
5682.08368,0.22032
5680.15493,0.22020
5678.22618,0.22060
5676.29744,0.22032
5674.36869,0.21918
5672.43995,0.21822
5670.51120,0.21856
5668.58246,0.21981
5666.65371,0.22040
5664.72497,0.22006
5662.79622,0.21989
5660.86748,0.22043
5658.93873,0.22098
5657.00999,0.22098
5655.08124,0.22129
5653.15250,0.22211
5651.22375,0.22261
5649.29500,0.22295
5647.36626,0.22362
5645.43751,0.22445
5643.50877,0.22473
5641.58002,0.22433
5639.65128,0.22455
5637.72253,0.22571
5635.79379,0.22606
5633.86504,0.22558
5631.93630,0.22637
5630.00755,0.22785
5628.07881,0.22810
5626.15006,0.22776
5624.22132,0.22781
5622.29257,0.22803
5620.36383,0.22844
5618.43508,0.22951
5616.50633,0.23094
5614.57759,0.23185
5612.64884,0.23235
5610.72010,0.23270
5608.79135,0.23287
5606.86261,0.23348
5604.93386,0.23411
5603.00512,0.23411
5601.07637,0.23436
5599.14763,0.23542
5597.21888,0.23622
5595.29014,0.23589
5593.36139,0.23521
5591.43265,0.23516
5589.50390,0.23560
5587.57516,0.23596
5585.64641,0.23607
5583.71766,0.23644
5581.78892,0.23697
5579.86017,0.23692
5577.93143,0.23634
5576.00268,0.23613
5574.07394,0.23668
5572.14519,0.23708
5570.21645,0.23715
5568.28770,0.23710
5566.35896,0.23672
5564.43021,0.23690
5562.50147,0.23828
5560.57272,0.23970
5558.64398,0.23993
5556.71523,0.23939
5554.78648,0.23900
5552.85774,0.23861
5550.92899,0.23805
5549.00025,0.23761
5547.07150,0.23748
5545.14276,0.23769
5543.21401,0.23808
5541.28527,0.23862
5539.35652,0.23925
5537.42778,0.23943
5535.49903,0.23911
5533.57029,0.23907
5531.64154,0.23957
5529.71280,0.24039
5527.78405,0.24104
5525.85531,0.24074
5523.92656,0.24038
5521.99781,0.24112
5520.06907,0.24197
5518.14032,0.24186
5516.21158,0.24110
5514.28283,0.24048
5512.35409,0.24059
5510.42534,0.24119
5508.49660,0.24140
5506.56785,0.24101
5504.63911,0.24064
5502.71036,0.24072
5500.78162,0.24125
5498.85287,0.24165
5496.92413,0.24145
5494.99538,0.24124
5493.06664,0.24153
5491.13789,0.24202
5489.20914,0.24256
5487.28040,0.24289
5485.35165,0.24250
5483.42291,0.24171
5481.49416,0.24163
5479.56542,0.24252
5477.63667,0.24356
5475.70793,0.24449
5473.77918,0.24529
5471.85044,0.24511
5469.92169,0.24412
5467.99295,0.24338
5466.06420,0.24334
5464.13546,0.24394
5462.20671,0.24441
5460.27796,0.24410
5458.34922,0.24384
5456.42047,0.24379
5454.49173,0.24345
5452.56298,0.24363
5450.63424,0.24428
5448.70549,0.24456
5446.77675,0.24493
5444.84800,0.24550
5442.91926,0.24578
5440.99051,0.24614
5439.06177,0.24688
5437.13302,0.24749
5435.20428,0.24762
5433.27553,0.24772
5431.34679,0.24817
5429.41804,0.24870
5427.48929,0.24880
5425.56055,0.24862
5423.63180,0.24886
5421.70306,0.24911
5419.77431,0.24872
5417.84557,0.24861
5415.91682,0.24935
5413.98808,0.24990
5412.05933,0.24988
5410.13059,0.25002
5408.20184,0.25066
5406.27310,0.25165
5404.34435,0.25245
5402.41561,0.25241
5400.48686,0.25201
5398.55811,0.25203
5396.62937,0.25225
5394.70062,0.25236
5392.77188,0.25212
5390.84313,0.25140
5388.91439,0.25079
5386.98564,0.25074
5385.05690,0.25135
5383.12815,0.25253
5381.19941,0.25378
5379.27066,0.25489
5377.34192,0.25544
5375.41317,0.25469
5373.48443,0.25335
5371.55568,0.25281
5369.62694,0.25333
5367.69819,0.25424
5365.76944,0.25479
5363.84070,0.25501
5361.91195,0.25539
5359.98321,0.25576
5358.05446,0.25566
5356.12572,0.25550
5354.19697,0.25588
5352.26823,0.25634
5350.33948,0.25613
5348.41074,0.25553
5346.48199,0.25502
5344.55325,0.25492
5342.62450,0.25560
5340.69576,0.25631
5338.76701,0.25574
5336.83827,0.25498
5334.90952,0.25572
5332.98077,0.25671
5331.05203,0.25677
5329.12328,0.25643
5327.19454,0.25589
5325.26579,0.25511
5323.33705,0.25454
5321.40830,0.25434
5319.47956,0.25424
5317.55081,0.25412
5315.62207,0.25376
5313.69332,0.25319
5311.76458,0.25306
5309.83583,0.25356
5307.90709,0.25428
5305.97834,0.25443
5304.04959,0.25385
5302.12085,0.25323
5300.19210,0.25276
5298.26336,0.25213
5296.33461,0.25121
5294.40587,0.25013
5292.47712,0.24923
5290.54838,0.24886
5288.61963,0.24872
5286.69089,0.24809
5284.76214,0.24718
5282.83340,0.24670
5280.90465,0.24658
5278.97591,0.24624
5277.04716,0.24557
5275.11842,0.24505
5273.18967,0.24446
5271.26092,0.24350
5269.33218,0.24305
5267.40343,0.24303
5265.47469,0.24235
5263.54594,0.24120
5261.61720,0.24046
5259.68845,0.24003
5257.75971,0.23924
5255.83096,0.23830
5253.90222,0.23746
5251.97347,0.23619
5250.04473,0.23491
5248.11598,0.23461
5246.18724,0.23451
5244.25849,0.23369
5242.32975,0.23252
5240.40100,0.23158
5238.47225,0.23124
5236.54351,0.23095
5234.61476,0.22972
5232.68602,0.22841
5230.75727,0.22816
5228.82853,0.22836
5226.89978,0.22799
5224.97104,0.22687
5223.04229,0.22597
5221.11355,0.22597
5219.18480,0.22609
5217.25606,0.22599
5215.32731,0.22605
5213.39857,0.22608
5211.46982,0.22574
5209.54107,0.22524
5207.61233,0.22490
5205.68358,0.22472
5203.75484,0.22467
5201.82609,0.22487
5199.89735,0.22475
5197.96860,0.22375
5196.03986,0.22284
5194.11111,0.22281
5192.18237,0.22298
5190.25362,0.22313
5188.32488,0.22354
5186.39613,0.22393
5184.46739,0.22430
5182.53864,0.22482
5180.60990,0.22511
5178.68115,0.22507
5176.75240,0.22487
5174.82366,0.22460
5172.89491,0.22439
5170.96617,0.22446
5169.03742,0.22458
5167.10868,0.22463
5165.17993,0.22495
5163.25119,0.22540
5161.32244,0.22587
5159.39370,0.22667
5157.46495,0.22765
5155.53621,0.22835
5153.60746,0.22869
5151.67872,0.22916
5149.74997,0.23003
5147.82123,0.23035
5145.89248,0.22969
5143.96373,0.22950
5142.03499,0.23075
5140.10624,0.23225
5138.17750,0.23258
5136.24875,0.23189
5134.32001,0.23117
5132.39126,0.23124
5130.46252,0.23196
5128.53377,0.23247
5126.60503,0.23256
5124.67628,0.23285
5122.74754,0.23348
5120.81879,0.23399
5118.89005,0.23442
5116.96130,0.23511
5115.03255,0.23586
5113.10381,0.23659
5111.17506,0.23751
5109.24632,0.23824
5107.31757,0.23820
5105.38883,0.23776
5103.46008,0.23779
5101.53134,0.23811
5099.60259,0.23809
5097.67385,0.23829
5095.74510,0.23894
5093.81636,0.23925
5091.88761,0.23920
5089.95887,0.23945
5088.03012,0.24010
5086.10138,0.24084
5084.17263,0.24141
5082.24388,0.24204
5080.31514,0.24284
5078.38639,0.24286
5076.45765,0.24205
5074.52890,0.24190
5072.60016,0.24276
5070.67141,0.24391
5068.74267,0.24491
5066.81392,0.24549
5064.88518,0.24575
5062.95643,0.24597
5061.02769,0.24626
5059.09894,0.24660
5057.17020,0.24683
5055.24145,0.24669
5053.31270,0.24647
5051.38396,0.24690
5049.45521,0.24764
5047.52647,0.24771
5045.59772,0.24739
5043.66898,0.24743
5041.74023,0.24800
5039.81149,0.24880
5037.88274,0.24936
5035.95400,0.24968
5034.02525,0.24988
5032.09651,0.24978
5030.16776,0.24957
5028.23902,0.24953
5026.31027,0.24942
5024.38153,0.24935
5022.45278,0.24966
5020.52403,0.25014
5018.59529,0.25057
5016.66654,0.25105
5014.73780,0.25172
5012.80905,0.25247
5010.88031,0.25291
5008.95156,0.25288
5007.02282,0.25261
5005.09407,0.25239
5003.16533,0.25230
5001.23658,0.25225
4999.30784,0.25242
4997.37909,0.25284
4995.45035,0.25300
4993.52160,0.25261
4991.59286,0.25201
4989.66411,0.25172
4987.73536,0.25196
4985.80662,0.25257
4983.87787,0.25286
4981.94913,0.25241
4980.02038,0.25199
4978.09164,0.25219
4976.16289,0.25269
4974.23415,0.25320
4972.30540,0.25340
4970.37666,0.25306
4968.44791,0.25263
4966.51917,0.25261
4964.59042,0.25269
4962.66168,0.25232
4960.73293,0.25186
4958.80418,0.25200
4956.87544,0.25223
4954.94669,0.25191
4953.01795,0.25133
4951.08920,0.25095
4949.16046,0.25077
4947.23171,0.25057
4945.30297,0.25050
4943.37422,0.25057
4941.44548,0.25020
4939.51673,0.24950
4937.58799,0.24885
4935.65924,0.24824
4933.73050,0.24791
4931.80175,0.24777
4929.87301,0.24729
4927.94426,0.24646
4926.01551,0.24575
4924.08677,0.24554
4922.15802,0.24569
4920.22928,0.24561
4918.30053,0.24520
4916.37179,0.24489
4914.44304,0.24463
4912.51430,0.24373
4910.58555,0.24227
4908.65681,0.24124
4906.72806,0.24092
4904.79932,0.24065
4902.87057,0.23988
4900.94183,0.23887
4899.01308,0.23821
4897.08434,0.23776
4895.15559,0.23736
4893.22684,0.23701
4891.29810,0.23636
4889.36935,0.23533
4887.44061,0.23440
4885.51186,0.23404
4883.58312,0.23421
4881.65437,0.23422
4879.72563,0.23364
4877.79688,0.23307
4875.86814,0.23274
4873.93939,0.23203
4872.01065,0.23109
4870.08190,0.23043
4868.15316,0.22975
4866.22441,0.22888
4864.29566,0.22821
4862.36692,0.22786
4860.43817,0.22746
4858.50943,0.22688
4856.58068,0.22655
4854.65194,0.22649
4852.72319,0.22599
4850.79445,0.22493
4848.86570,0.22385
4846.93696,0.22304
4845.00821,0.22265
4843.07947,0.22247
4841.15072,0.22191
4839.22198,0.22087
4837.29323,0.21992
4835.36449,0.21968
4833.43574,0.21993
4831.50699,0.21995
4829.57825,0.21958
4827.64950,0.21878
4825.72076,0.21756
4823.79201,0.21670
4821.86327,0.21647
4819.93452,0.21604
4818.00578,0.21536
4816.07703,0.21496
4814.14829,0.21464
4812.21954,0.21432
4810.29080,0.21413
4808.36205,0.21399
4806.43331,0.21396
4804.50456,0.21393
4802.57582,0.21362
4800.64707,0.21310
4798.71832,0.21270
4796.78958,0.21258
4794.86083,0.21239
4792.93209,0.21176
4791.00334,0.21098
4789.07460,0.21072
4787.14585,0.21106
4785.21711,0.21136
4783.28836,0.21133
4781.35962,0.21105
4779.43087,0.21070
4777.50213,0.21046
4775.57338,0.21010
4773.64464,0.20957
4771.71589,0.20933
4769.78714,0.20949
4767.85840,0.20970
4765.92965,0.21001
4764.00091,0.21050
4762.07216,0.21045
4760.14342,0.20947
4758.21467,0.20851
4756.28593,0.20836
4754.35718,0.20869
4752.42844,0.20909
4750.49969,0.20949
4748.57095,0.20973
4746.64220,0.20957
4744.71346,0.20915
4742.78471,0.20910
4740.85597,0.20947
4738.92722,0.20962
4736.99847,0.20940
4735.06973,0.20928
4733.14098,0.20939
4731.21224,0.20973
4729.28349,0.21027
4727.35475,0.21050
4725.42600,0.21011
4723.49726,0.20979
4721.56851,0.21007
4719.63977,0.21052
4717.71102,0.21077
4715.78228,0.21114
4713.85353,0.21163
4711.92479,0.21198
4709.99604,0.21224
4708.06729,0.21248
4706.13855,0.21271
4704.20980,0.21295
4702.28106,0.21307
4700.35231,0.21322
4698.42357,0.21365
4696.49482,0.21403
4694.56608,0.21403
4692.63733,0.21399
4690.70859,0.21423
4688.77984,0.21453
4686.85110,0.21461
4684.92235,0.21468
4682.99361,0.21487
4681.06486,0.21493
4679.13612,0.21486
4677.20737,0.21499
4675.27862,0.21533
4673.34988,0.21563
4671.42113,0.21588
4669.49239,0.21602
4667.56364,0.21595
4665.63490,0.21620
4663.70615,0.21692
4661.77741,0.21734
4659.84866,0.21730
4657.91992,0.21731
4655.99117,0.21756
4654.06243,0.21782
4652.13368,0.21807
4650.20494,0.21861
4648.27619,0.21916
4646.34745,0.21928
4644.41870,0.21913
4642.48995,0.21904
4640.56121,0.21924
4638.63246,0.21952
4636.70372,0.21949
4634.77497,0.21940
4632.84623,0.21965
4630.91748,0.22004
4628.98874,0.22030
4627.05999,0.22048
4625.13125,0.22081
4623.20250,0.22133
4621.27376,0.22159
4619.34501,0.22160
4617.41627,0.22179
4615.48752,0.22218
4613.55877,0.22286
4611.63003,0.22361
4609.70128,0.22384
4607.77254,0.22388
4605.84379,0.22429
4603.91505,0.22483
4601.98630,0.22523
4600.05756,0.22556
4598.12881,0.22587
4596.20007,0.22618
4594.27132,0.22658
4592.34258,0.22689
4590.41383,0.22715
4588.48509,0.22763
4586.55634,0.22820
4584.62760,0.22865
4582.69885,0.22903
4580.77010,0.22930
4578.84136,0.22954
4576.91261,0.23015
4574.98387,0.23110
4573.05512,0.23187
4571.12638,0.23227
4569.19763,0.23258
4567.26889,0.23314
4565.34014,0.23366
4563.41140,0.23370
4561.48265,0.23354
4559.55391,0.23338
4557.62516,0.23316
4555.69642,0.23329
4553.76767,0.23377
4551.83893,0.23426
4549.91018,0.23492
4547.98143,0.23570
4546.05269,0.23608
4544.12394,0.23591
4542.19520,0.23557
4540.26645,0.23545
4538.33771,0.23562
4536.40896,0.23581
4534.48022,0.23590
4532.55147,0.23588
4530.62273,0.23561
4528.69398,0.23540
4526.76524,0.23581
4524.83649,0.23653
4522.90775,0.23682
4520.97900,0.23677
4519.05025,0.23680
4517.12151,0.23687
4515.19276,0.23697
4513.26402,0.23705
4511.33527,0.23695
4509.40653,0.23680
4507.47778,0.23665
4505.54904,0.23650
4503.62029,0.23648
4501.69155,0.23648
4499.76280,0.23619
4497.83406,0.23536
4495.90531,0.23410
4493.97657,0.23325
4492.04782,0.23319
4490.11908,0.23329
4488.19033,0.23320
4486.26158,0.23289
4484.33284,0.23238
4482.40409,0.23186
4480.47535,0.23106
4478.54660,0.22985
4476.61786,0.22888
4474.68911,0.22841
4472.76037,0.22790
4470.83162,0.22690
4468.90288,0.22555
4466.97413,0.22423
4465.04539,0.22316
4463.11664,0.22245
4461.18790,0.22188
4459.25915,0.22093
4457.33041,0.21945
4455.40166,0.21780
4453.47291,0.21639
4451.54417,0.21526
4449.61542,0.21407
4447.68668,0.21264
4445.75793,0.21102
4443.82919,0.20917
4441.90044,0.20714
4439.97170,0.20527
4438.04295,0.20362
4436.11421,0.20184
4434.18546,0.19984
4432.25672,0.19787
4430.32797,0.19585
4428.39923,0.19364
4426.47048,0.19168
4424.54173,0.19004
4422.61299,0.18794
4420.68424,0.18536
4418.75550,0.18313
4416.82675,0.18113
4414.89801,0.17883
4412.96926,0.17637
4411.04052,0.17401
4409.11177,0.17188
4407.18303,0.16996
4405.25428,0.16825
4403.32554,0.16683
4401.39679,0.16546
4399.46805,0.16393
4397.53930,0.16266
4395.61056,0.16198
4393.68181,0.16153
4391.75306,0.16107
4389.82432,0.16077
4387.89557,0.16073
4385.96683,0.16082
4384.03808,0.16097
4382.10934,0.16117
4380.18059,0.16123
4378.25185,0.16096
4376.32310,0.16054
4374.39436,0.16033
4372.46561,0.16018
4370.53687,0.15982
4368.60812,0.15946
4366.67938,0.15931
4364.75063,0.15910
4362.82189,0.15870
4360.89314,0.15816
4358.96439,0.15742
4357.03565,0.15627
4355.10690,0.15475
4353.17816,0.15304
4351.24941,0.15136
4349.32067,0.14995
4347.39192,0.14872
4345.46318,0.14728
4343.53443,0.14558
4341.60569,0.14395
4339.67694,0.14231
4337.74820,0.14065
4335.81945,0.13929
4333.89071,0.13831
4331.96196,0.13751
4330.03321,0.13695
4328.10447,0.13679
4326.17572,0.13698
4324.24698,0.13746
4322.31823,0.13825
4320.38949,0.13937
4318.46074,0.14074
4316.53200,0.14220
4314.60325,0.14369
4312.67451,0.14516
4310.74576,0.14630
4308.81702,0.14709
4306.88827,0.14773
4304.95953,0.14816
4303.03078,0.14828
4301.10204,0.14847
4299.17329,0.14906
4297.24454,0.14984
4295.31580,0.15040
4293.38705,0.15051
4291.45831,0.15024
4289.52956,0.14996
4287.60082,0.15000
4285.67207,0.15013
4283.74333,0.14982
4281.81458,0.14909
4279.88584,0.14843
4277.95709,0.14817
4276.02835,0.14791
4274.09960,0.14707
4272.17086,0.14593
4270.24211,0.14489
4268.31336,0.14402
4266.38462,0.14327
4264.45587,0.14237
4262.52713,0.14139
4260.59838,0.14085
4258.66964,0.14070
4256.74089,0.14054
4254.81215,0.14044
4252.88340,0.14070
4250.95466,0.14123
4249.02591,0.14192
4247.09717,0.14291
4245.16842,0.14412
4243.23968,0.14522
4241.31093,0.14635
4239.38219,0.14767
4237.45344,0.14871
4235.52469,0.14942
4233.59595,0.15012
4231.66720,0.15057
4229.73846,0.15080
4227.80971,0.15125
4225.88097,0.15174
4223.95222,0.15187
4222.02348,0.15168
4220.09473,0.15145
4218.16599,0.15140
4216.23724,0.15177
4214.30850,0.15251
4212.37975,0.15317
4210.45101,0.15337
4208.52226,0.15323
4206.59352,0.15313
4204.66477,0.15322
4202.73602,0.15326
4200.80728,0.15324
4198.87853,0.15345
4196.94979,0.15386
4195.02104,0.15411
4193.09230,0.15406
4191.16355,0.15374
4189.23481,0.15325
4187.30606,0.15314
4185.37732,0.15362
4183.44857,0.15402
4181.51983,0.15405
4179.59108,0.15416
4177.66234,0.15419
4175.73359,0.15372
4173.80484,0.15327
4171.87610,0.15333
4169.94735,0.15365
4168.01861,0.15380
4166.08986,0.15377
4164.16112,0.15394
4162.23237,0.15435
4160.30363,0.15450
4158.37488,0.15433
4156.44614,0.15423
4154.51739,0.15434
4152.58865,0.15470
4150.65990,0.15521
4148.73116,0.15554
4146.80241,0.15563
4144.87367,0.15557
4142.94492,0.15525
4141.01617,0.15480
4139.08743,0.15473
4137.15868,0.15524
4135.22994,0.15572
4133.30119,0.15553
4131.37245,0.15512
4129.44370,0.15512
4127.51496,0.15523
4125.58621,0.15521
4123.65747,0.15517
4121.72872,0.15487
4119.79998,0.15434
4117.87123,0.15400
4115.94249,0.15388
4114.01374,0.15378
4112.08500,0.15361
4110.15625,0.15336
4108.22750,0.15307
4106.29876,0.15279
4104.37001,0.15252
4102.44127,0.15213
4100.51252,0.15168
4098.58378,0.15147
4096.65503,0.15138
4094.72629,0.15096
4092.79754,0.15023
4090.86880,0.14960
4088.94005,0.14914
4087.01131,0.14859
4085.08256,0.14788
4083.15382,0.14705
4081.22507,0.14617
4079.29632,0.14530
4077.36758,0.14438
4075.43883,0.14367
4073.51009,0.14323
4071.58134,0.14261
4069.65260,0.14171
4067.72385,0.14082
4065.79511,0.14011
4063.86636,0.13973
4061.93762,0.13963
4060.00887,0.13943
4058.08013,0.13891
4056.15138,0.13828
4054.22264,0.13781
4052.29389,0.13756
4050.36515,0.13755
4048.43640,0.13770
4046.50765,0.13776
4044.57891,0.13752
4042.65016,0.13714
4040.72142,0.13696
4038.79267,0.13684
4036.86393,0.13653
4034.93518,0.13614
4033.00644,0.13595
4031.07769,0.13591
4029.14895,0.13581
4027.22020,0.13568
4025.29146,0.13566
4023.36271,0.13566
4021.43397,0.13562
4019.50522,0.13561
4017.57648,0.13572
4015.64773,0.13596
4013.71898,0.13623
4011.79024,0.13658
4009.86149,0.13707
4007.93275,0.13747
4006.00400,0.13751
4004.07526,0.13739
4002.14651,0.13755
4000.21777,0.13803
3998.28902,0.13863
3996.36028,0.13917
3994.43153,0.13948
3992.50279,0.13947
3990.57404,0.13938
3988.64530,0.13956
3986.71655,0.13997
3984.78780,0.14038
3982.85906,0.14066
3980.93031,0.14096
3979.00157,0.14153
3977.07282,0.14211
3975.14408,0.14231
3973.21533,0.14256
3971.28659,0.14300
3969.35784,0.14309
3967.42910,0.14310
3965.50035,0.14353
3963.57161,0.14405
3961.64286,0.14429
3959.71412,0.14454
3957.78537,0.14508
3955.85663,0.14593
3953.92788,0.14671
3951.99913,0.14712
3950.07039,0.14723
3948.14164,0.14734
3946.21290,0.14776
3944.28415,0.14859
3942.35541,0.14944
3940.42666,0.14982
3938.49792,0.14982
3936.56917,0.15001
3934.64043,0.15036
3932.71168,0.15062
3930.78294,0.15102
3928.85419,0.15171
3926.92545,0.15236
3924.99670,0.15290
3923.06795,0.15336
3921.13921,0.15370
3919.21046,0.15389
3917.28172,0.15402
3915.35297,0.15422
3913.42423,0.15445
3911.49548,0.15480
3909.56674,0.15541
3907.63799,0.15605
3905.70925,0.15660
3903.78050,0.15713
3901.85176,0.15743
3899.92301,0.15749
3897.99427,0.15760
3896.06552,0.15791
3894.13678,0.15829
3892.20803,0.15853
3890.27928,0.15883
3888.35054,0.15952
3886.42179,0.16020
3884.49305,0.16027
3882.56430,0.16012
3880.63556,0.16043
3878.70681,0.16109
3876.77807,0.16160
3874.84932,0.16195
3872.92058,0.16237
3870.99183,0.16288
3869.06309,0.16346
3867.13434,0.16392
3865.20560,0.16416
3863.27685,0.16439
3861.34811,0.16479
3859.41936,0.16533
3857.49061,0.16582
3855.56187,0.16606
3853.63312,0.16637
3851.70438,0.16737
3849.77563,0.16868
3847.84689,0.16949
3845.91814,0.16970
3843.98940,0.16971
3842.06065,0.16996
3840.13191,0.17056
3838.20316,0.17107
3836.27442,0.17111
3834.34567,0.17105
3832.41693,0.17120
3830.48818,0.17137
3828.55943,0.17143
3826.63069,0.17155
3824.70194,0.17184
3822.77320,0.17232
3820.84445,0.17276
3818.91571,0.17290
3816.98696,0.17296
3815.05822,0.17314
3813.12947,0.17328
3811.20073,0.17320
3809.27198,0.17291
3807.34324,0.17256
3805.41449,0.17248
3803.48575,0.17282
3801.55700,0.17329
3799.62826,0.17361
3797.69951,0.17368
3795.77076,0.17347
3793.84202,0.17333
3791.91327,0.17363
3789.98453,0.17402
3788.05578,0.17422
3786.12704,0.17441
3784.19829,0.17466
3782.26955,0.17471
3780.34080,0.17459
3778.41206,0.17446
3776.48331,0.17428
3774.55457,0.17420
3772.62582,0.17431
3770.69708,0.17433
3768.76833,0.17418
3766.83959,0.17395
3764.91084,0.17364
3762.98209,0.17343
3761.05335,0.17347
3759.12460,0.17353
3757.19586,0.17347
3755.26711,0.17334
3753.33837,0.17303
3751.40962,0.17274
3749.48088,0.17277
3747.55213,0.17271
3745.62339,0.17217
3743.69464,0.17129
3741.76590,0.17070
3739.83715,0.17042
3737.90841,0.17013
3735.97966,0.16977
3734.05091,0.16934
3732.12217,0.16865
3730.19342,0.16771
3728.26468,0.16677
3726.33593,0.16595
3724.40719,0.16506
3722.47844,0.16402
3720.54970,0.16286
3718.62095,0.16155
3716.69221,0.16016
3714.76346,0.15872
3712.83472,0.15686
3710.90597,0.15443
3708.97723,0.15177
3707.04848,0.14902
3705.11974,0.14607
3703.19099,0.14255
3701.26224,0.13836
3699.33350,0.13437
3697.40475,0.13117
3695.47601,0.12892
3693.54726,0.12803
3691.61852,0.12837
3689.68977,0.12907
3687.76103,0.12938
3685.83228,0.12914
3683.90354,0.12853
3681.97479,0.12766
3680.04605,0.12651
3678.11730,0.12482
3676.18856,0.12229
3674.25981,0.11953
3672.33107,0.11707
3670.40232,0.11448
3668.47357,0.11203
3666.54483,0.11020
3664.61608,0.10856
3662.68734,0.10677
3660.75859,0.10474
3658.82985,0.10251
3656.90110,0.10008
3654.97236,0.09782
3653.04361,0.09621
3651.11487,0.09492
3649.18612,0.09339
3647.25738,0.09172
3645.32863,0.09037
3643.39989,0.08939
3641.47114,0.08840
3639.54239,0.08728
3637.61365,0.08601
3635.68490,0.08461
3633.75616,0.08346
3631.82741,0.08252
3629.89867,0.08147
3627.96992,0.08027
3626.04118,0.07889
3624.11243,0.07733
3622.18369,0.07594
3620.25494,0.07502
3618.32620,0.07436
3616.39745,0.07362
3614.46871,0.07284
3612.53996,0.07216
3610.61122,0.07146
3608.68247,0.07065
3606.75372,0.06988
3604.82498,0.06912
3602.89623,0.06827
3600.96749,0.06752
3599.03874,0.06687
3597.11000,0.06609
3595.18125,0.06518
3593.25251,0.06447
3591.32376,0.06405
3589.39502,0.06361
3587.46627,0.06311
3585.53753,0.06263
3583.60878,0.06190
3581.68004,0.06099
3579.75129,0.06032
3577.82254,0.05982
3575.89380,0.05930
3573.96505,0.05897
3572.03631,0.05888
3570.10756,0.05873
3568.17882,0.05832
3566.25007,0.05771
3564.32133,0.05721
3562.39258,0.05692
3560.46384,0.05652
3558.53509,0.05599
3556.60635,0.05558
3554.67760,0.05520
3552.74886,0.05479
3550.82011,0.05443
3548.89137,0.05421
3546.96262,0.05405
3545.03387,0.05369
3543.10513,0.05317
3541.17638,0.05294
3539.24764,0.05289
3537.31889,0.05259
3535.39015,0.05217
3533.46140,0.05199
3531.53266,0.05198
3529.60391,0.05186
3527.67517,0.05161
3525.74642,0.05143
3523.81768,0.05142
3521.88893,0.05123
3519.96019,0.05059
3518.03144,0.04994
3516.10270,0.04966
3514.17395,0.04940
3512.24520,0.04907
3510.31646,0.04898
3508.38771,0.04897
3506.45897,0.04878
3504.53022,0.04873
3502.60148,0.04888
3500.67273,0.04885
3498.74399,0.04855
3496.81524,0.04832
3494.88650,0.04829
3492.95775,0.04825
3491.02901,0.04818
3489.10026,0.04815
3487.17152,0.04789
3485.24277,0.04741
3483.31402,0.04705
3481.38528,0.04682
3479.45653,0.04665
3477.52779,0.04646
3475.59904,0.04616
3473.67030,0.04608
3471.74155,0.04640
3469.81281,0.04680
3467.88406,0.04689
3465.95532,0.04672
3464.02657,0.04643
3462.09783,0.04606
3460.16908,0.04580
3458.24034,0.04570
3456.31159,0.04582
3454.38285,0.04625
3452.45410,0.04646
3450.52535,0.04597
3448.59661,0.04546
3446.66786,0.04554
3444.73912,0.04563
3442.81037,0.04517
3440.88163,0.04452
3438.95288,0.04429
3437.02414,0.04448
3435.09539,0.04481
3433.16665,0.04509
3431.23790,0.04517
3429.30916,0.04506
3427.38041,0.04485
3425.45167,0.04473
3423.52292,0.04486
3421.59418,0.04511
3419.66543,0.04536
3417.73668,0.04546
3415.80794,0.04511
3413.87919,0.04452
3411.95045,0.04428
3410.02170,0.04440
3408.09296,0.04451
3406.16421,0.04442
3404.23547,0.04415
3402.30672,0.04399
3400.37798,0.04410
3398.44923,0.04432
3396.52049,0.04443
3394.59174,0.04429
3392.66300,0.04412
3390.73425,0.04418
3388.80550,0.04421
3386.87676,0.04412
3384.94801,0.04419
3383.01927,0.04428
3381.09052,0.04425
3379.16178,0.04423
3377.23303,0.04414
3375.30429,0.04392
3373.37554,0.04386
3371.44680,0.04405
3369.51805,0.04425
3367.58931,0.04433
3365.66056,0.04417
3363.73182,0.04393
3361.80307,0.04383
3359.87433,0.04354
3357.94558,0.04299
3356.01683,0.04285
3354.08809,0.04340
3352.15934,0.04396
3350.23060,0.04399
3348.30185,0.04393
3346.37311,0.04415
3344.44436,0.04437
3342.51562,0.04445
3340.58687,0.04455
3338.65813,0.04465
3336.72938,0.04450
3334.80064,0.04427
3332.87189,0.04439
3330.94315,0.04474
3329.01440,0.04487
3327.08566,0.04482
3325.15691,0.04487
3323.22816,0.04512
3321.29942,0.04548
3319.37067,0.04566
3317.44193,0.04550
3315.51318,0.04528
3313.58444,0.04531
3311.65569,0.04556
3309.72695,0.04568
3307.79820,0.04562
3305.86946,0.04562
3303.94071,0.04584
3302.01197,0.04620
3300.08322,0.04646
3298.15448,0.04640
3296.22573,0.04611
3294.29698,0.04589
3292.36824,0.04584
3290.43949,0.04590
3288.51075,0.04587
3286.58200,0.04565
3284.65326,0.04549
3282.72451,0.04567
3280.79577,0.04602
3278.86702,0.04629
3276.93828,0.04642
3275.00953,0.04654
3273.08079,0.04684
3271.15204,0.04725
3269.22330,0.04759
3267.29455,0.04782
3265.36581,0.04780
3263.43706,0.04760
3261.50831,0.04757
3259.57957,0.04780
3257.65082,0.04802
3255.72208,0.04810
3253.79333,0.04830
3251.86459,0.04856
3249.93584,0.04862
3248.00710,0.04871
3246.07835,0.04914
3244.14961,0.04961
3242.22086,0.04979
3240.29212,0.04976
3238.36337,0.04962
3236.43463,0.04963
3234.50588,0.05006
3232.57713,0.05039
3230.64839,0.05034
3228.71964,0.05034
3226.79090,0.05033
3224.86215,0.05015
3222.93341,0.05015
3221.00466,0.05046
3219.07592,0.05069
3217.14717,0.05090
3215.21843,0.05150
3213.28968,0.05207
3211.36094,0.05207
3209.43219,0.05183
3207.50345,0.05165
3205.57470,0.05140
3203.64596,0.05140
3201.71721,0.05178
3199.78846,0.05211
3197.85972,0.05220
3195.93097,0.05236
3194.00223,0.05268
3192.07348,0.05302
3190.14474,0.05335
3188.21599,0.05370
3186.28725,0.05399
3184.35850,0.05415
3182.42976,0.05417
3180.50101,0.05405
3178.57227,0.05399
3176.64352,0.05414
3174.71478,0.05429
3172.78603,0.05441
3170.85729,0.05466
3168.92854,0.05491
3166.99979,0.05505
3165.07105,0.05529
3163.14230,0.05573
3161.21356,0.05596
3159.28481,0.05574
3157.35607,0.05533
3155.42732,0.05504
3153.49858,0.05511
3151.56983,0.05558
3149.64109,0.05634
3147.71234,0.05710
3145.78360,0.05749
3143.85485,0.05750
3141.92611,0.05730
3139.99736,0.05711
3138.06861,0.05718
3136.13987,0.05740
3134.21112,0.05756
3132.28238,0.05777
3130.35363,0.05813
3128.42489,0.05849
3126.49614,0.05860
3124.56740,0.05844
3122.63865,0.05838
3120.70991,0.05869
3118.78116,0.05911
3116.85242,0.05935
3114.92367,0.05938
3112.99493,0.05921
3111.06618,0.05909
3109.13744,0.05932
3107.20869,0.05971
3105.27994,0.05992
3103.35120,0.06008
3101.42245,0.06044
3099.49371,0.06087
3097.56496,0.06106
3095.63622,0.06098
3093.70747,0.06091
3091.77873,0.06092
3089.84998,0.06084
3087.92124,0.06079
3085.99249,0.06092
3084.06375,0.06111
3082.13500,0.06116
3080.20626,0.06107
3078.27751,0.06095
3076.34877,0.06091
3074.42002,0.06105
3072.49127,0.06117
3070.56253,0.06106
3068.63378,0.06093
3066.70504,0.06098
3064.77629,0.06104
3062.84755,0.06102
3060.91880,0.06108
3058.99006,0.06116
3057.06131,0.06118
3055.13257,0.06124
3053.20382,0.06142
3051.27508,0.06154
3049.34633,0.06155
3047.41759,0.06171
3045.48884,0.06205
3043.56009,0.06220
3041.63135,0.06197
3039.70260,0.06166
3037.77386,0.06144
3035.84511,0.06113
3033.91637,0.06081
3031.98762,0.06081
3030.05888,0.06111
3028.13013,0.06137
3026.20139,0.06134
3024.27264,0.06123
3022.34390,0.06130
3020.41515,0.06142
3018.48641,0.06136
3016.55766,0.06100
3014.62892,0.06057
3012.70017,0.06038
3010.77142,0.06023
3008.84268,0.05991
3006.91393,0.05956
3004.98519,0.05937
3003.05644,0.05923
3001.12770,0.05889
2999.19895,0.05846
2997.27021,0.05820
2995.34146,0.05794
2993.41272,0.05746
2991.48397,0.05679
2989.55523,0.05613
2987.62648,0.05554
2985.69774,0.05489
2983.76899,0.05413
2981.84025,0.05328
2979.91150,0.05241
2977.98275,0.05148
2976.05401,0.05046
2974.12526,0.04960
2972.19652,0.04908
2970.26777,0.04872
2968.33903,0.04829
2966.41028,0.04788
2964.48154,0.04757
2962.55279,0.04732
2960.62405,0.04727
2958.69530,0.04760
2956.76656,0.04800
2954.83781,0.04817
2952.90907,0.04805
2950.98032,0.04788
2949.05157,0.04792
2947.12283,0.04811
2945.19408,0.04828
2943.26534,0.04827
2941.33659,0.04793
2939.40785,0.04746
2937.47910,0.04735
2935.55036,0.04775
2933.62161,0.04838
2931.69287,0.04894
2929.76412,0.04943
2927.83538,0.04999
2925.90663,0.05062
2923.97789,0.05134
2922.04914,0.05216
2920.12040,0.05294
2918.19165,0.05352
2916.26290,0.05390
2914.33416,0.05402
2912.40541,0.05382
2910.47667,0.05350
2908.54792,0.05324
2906.61918,0.05299
2904.69043,0.05296
2902.76169,0.05311
2900.83294,0.05296
2898.90420,0.05249
2896.97545,0.05231
2895.04671,0.05258
2893.11796,0.05292
2891.18922,0.05314
2889.26047,0.05324
2887.33172,0.05315
2885.40298,0.05300
2883.47423,0.05293
2881.54549,0.05293
2879.61674,0.05291
2877.68800,0.05272
2875.75925,0.05235
2873.83051,0.05212
2871.90176,0.05209
2869.97302,0.05214
2868.04427,0.05219
2866.11553,0.05213
2864.18678,0.05214
2862.25804,0.05243
2860.32929,0.05273
2858.40055,0.05297
2856.47180,0.05342
2854.54305,0.05399
2852.61431,0.05467
2850.68556,0.05554
2848.75682,0.05637
2846.82807,0.05698
2844.89933,0.05749
2842.97058,0.05796
2841.04184,0.05837
2839.11309,0.05874
2837.18435,0.05911
2835.25560,0.05950
2833.32686,0.05985
2831.39811,0.06015
2829.46937,0.06059
2827.54062,0.06122
2825.61188,0.06178
2823.68313,0.06224
2821.75438,0.06271
2819.82564,0.06327
2817.89689,0.06392
2815.96815,0.06448
2814.03940,0.06488
2812.11066,0.06536
2810.18191,0.06592
2808.25317,0.06636
2806.32442,0.06669
2804.39568,0.06700
2802.46693,0.06728
2800.53819,0.06758
2798.60944,0.06799
2796.68070,0.06853
2794.75195,0.06898
2792.82320,0.06910
2790.89446,0.06915
2788.96571,0.06946
2787.03697,0.06988
2785.10822,0.07016
2783.17948,0.07033
2781.25073,0.07059
2779.32199,0.07090
2777.39324,0.07112
2775.46450,0.07135
2773.53575,0.07148
2771.60701,0.07154
2769.67826,0.07170
2767.74952,0.07189
2765.82077,0.07191
2763.89203,0.07187
2761.96328,0.07196
2760.03453,0.07212
2758.10579,0.07223
2756.17704,0.07223
2754.24830,0.07213
2752.31955,0.07217
2750.39081,0.07254
2748.46206,0.07293
2746.53332,0.07302
2744.60457,0.07284
2742.67583,0.07251
2740.74708,0.07218
2738.81834,0.07204
2736.88959,0.07212
2734.96085,0.07220
2733.03210,0.07215
2731.10336,0.07200
2729.17461,0.07198
2727.24586,0.07225
2725.31712,0.07264
2723.38837,0.07290
2721.45963,0.07310
2719.53088,0.07335
2717.60214,0.07342
2715.67339,0.07343
2713.74465,0.07373
2711.81590,0.07424
2709.88716,0.07466
2707.95841,0.07489
2706.02967,0.07509
2704.10092,0.07551
2702.17218,0.07594
2700.24343,0.07613
2698.31468,0.07626
2696.38594,0.07643
2694.45719,0.07654
2692.52845,0.07668
2690.59970,0.07692
2688.67096,0.07718
2686.74221,0.07738
2684.81347,0.07750
2682.88472,0.07759
2680.95598,0.07774
2679.02723,0.07797
2677.09849,0.07820
2675.16974,0.07834
2673.24100,0.07852
2671.31225,0.07882
2669.38351,0.07923
2667.45476,0.07964
2665.52601,0.07982
2663.59727,0.07972
2661.66852,0.07963
2659.73978,0.07978
2657.81103,0.08019
2655.88229,0.08071
2653.95354,0.08105
2652.02480,0.08108
2650.09605,0.08122
2648.16731,0.08161
2646.23856,0.08196
2644.30982,0.08210
2642.38107,0.08216
2640.45233,0.08236
2638.52358,0.08282
2636.59484,0.08328
2634.66609,0.08347
2632.73734,0.08347
2630.80860,0.08361
2628.87985,0.08388
2626.95111,0.08405
2625.02236,0.08418
2623.09362,0.08445
2621.16487,0.08472
2619.23613,0.08484
2617.30738,0.08495
2615.37864,0.08522
2613.44989,0.08557
2611.52115,0.08586
2609.59240,0.08613
2607.66366,0.08639
2605.73491,0.08657
2603.80616,0.08666
2601.87742,0.08678
2599.94867,0.08704
2598.01993,0.08735
2596.09118,0.08760
2594.16244,0.08781
2592.23369,0.08803
2590.30495,0.08825
2588.37620,0.08849
2586.44746,0.08883
2584.51871,0.08925
2582.58997,0.08961
2580.66122,0.08978
2578.73248,0.08983
2576.80373,0.08985
2574.87499,0.08992
2572.94624,0.09017
2571.01749,0.09050
2569.08875,0.09065
2567.16000,0.09065
2565.23126,0.09068
2563.30251,0.09080
2561.37377,0.09079
2559.44502,0.09069
2557.51628,0.09077
2555.58753,0.09103
2553.65879,0.09124
2551.73004,0.09134
2549.80130,0.09132
2547.87255,0.09124
2545.94381,0.09129
2544.01506,0.09144
2542.08631,0.09153
2540.15757,0.09159
2538.22882,0.09175
2536.30008,0.09195
2534.37133,0.09208
2532.44259,0.09228
2530.51384,0.09259
2528.58510,0.09277
2526.65635,0.09281
2524.72761,0.09305
2522.79886,0.09353
2520.87012,0.09400
2518.94137,0.09424
2517.01263,0.09428
2515.08388,0.09435
2513.15514,0.09467
2511.22639,0.09515
2509.29764,0.09555
2507.36890,0.09597
2505.44015,0.09651
2503.51141,0.09691
2501.58266,0.09711
2499.65392,0.09746
2497.72517,0.09797
2495.79643,0.09832
2493.86768,0.09850
2491.93894,0.09884
2490.01019,0.09946
2488.08145,0.10004
2486.15270,0.10032
2484.22396,0.10054
2482.29521,0.10094
2480.36647,0.10128
2478.43772,0.10136
2476.50897,0.10154
2474.58023,0.10210
2472.65148,0.10269
2470.72274,0.10298
2468.79399,0.10321
2466.86525,0.10362
2464.93650,0.10411
2463.00776,0.10446
2461.07901,0.10463
2459.15027,0.10474
2457.22152,0.10488
2455.29278,0.10499
2453.36403,0.10510
2451.43529,0.10543
2449.50654,0.10587
2447.57779,0.10629
2445.64905,0.10680
2443.72030,0.10743
2441.79156,0.10794
2439.86281,0.10822
2437.93407,0.10837
2436.00532,0.10847
2434.07658,0.10857
2432.14783,0.10885
2430.21909,0.10932
2428.29034,0.10983
2426.36160,0.11032
2424.43285,0.11070
2422.50411,0.11096
2420.57536,0.11127
2418.64662,0.11166
2416.71787,0.11206
2414.78912,0.11246
2412.86038,0.11290
2410.93163,0.11337
2409.00289,0.11382
2407.07414,0.11419
2405.14540,0.11442
2403.21665,0.11455
2401.28791,0.11479
2399.35916,0.11516
2397.43042,0.11550
2395.50167,0.11581
2393.57293,0.11619
2391.64418,0.11664
2389.71544,0.11708
2387.78669,0.11744
2385.85795,0.11769
2383.92920,0.11792
2382.00045,0.11819
2380.07171,0.11850
2378.14296,0.11893
2376.21422,0.11943
2374.28547,0.11981
2372.35673,0.12006
2370.42798,0.12032
2368.49924,0.12069
2366.57049,0.12119
2364.64175,0.12163
2362.71300,0.12186
2360.78426,0.12215
2358.85551,0.12239
2356.92677,0.12236
2354.99802,0.12237
2353.06927,0.12271
2351.14053,0.12314
2349.21178,0.12356
2347.28304,0.12393
2345.35429,0.12415
2343.42555,0.12430
2341.49680,0.12456
2339.56806,0.12482
2337.63931,0.12497
2335.71057,0.12514
2333.78182,0.12540
2331.85308,0.12565
2329.92433,0.12577
2327.99559,0.12581
2326.06684,0.12584
2324.13810,0.12592
2322.20935,0.12606
2320.28060,0.12628
2318.35186,0.12651
2316.42311,0.12674
2314.49437,0.12694
2312.56562,0.12702
2310.63688,0.12699
2308.70813,0.12688
2306.77939,0.12678
2304.85064,0.12679
2302.92190,0.12689
2300.99315,0.12693
2299.06441,0.12684
2297.13566,0.12677
2295.20692,0.12692
2293.27817,0.12718
2291.34943,0.12732
2289.42068,0.12735
2287.49193,0.12735
2285.56319,0.12729
2283.63444,0.12714
2281.70570,0.12713
2279.77695,0.12730
2277.84821,0.12744
2275.91946,0.12743
2273.99072,0.12732
2272.06197,0.12724
2270.13323,0.12718
2268.20448,0.12691
2266.27574,0.12650
2264.34699,0.12627
2262.41825,0.12616
2260.48950,0.12597
2258.56075,0.12570
2256.63201,0.12544
2254.70326,0.12522
2252.77452,0.12500
2250.84577,0.12472
2248.91703,0.12450
2246.98828,0.12448
2245.05954,0.12459
2243.13079,0.12468
2241.20205,0.12463
2239.27330,0.12454
2237.34456,0.12447
2235.41581,0.12437
2233.48707,0.12434
2231.55832,0.12449
2229.62958,0.12466
2227.70083,0.12474
2225.77208,0.12488
2223.84334,0.12514
2221.91459,0.12531
2219.98585,0.12532
2218.05710,0.12533
2216.12836,0.12549
2214.19961,0.12574
2212.27087,0.12593
2210.34212,0.12595
2208.41338,0.12584
2206.48463,0.12575
2204.55589,0.12565
2202.62714,0.12551
2200.69840,0.12541
2198.76965,0.12524
2196.84090,0.12495
2194.91216,0.12474
2192.98341,0.12461
2191.05467,0.12430
2189.12592,0.12386
2187.19718,0.12355
2185.26843,0.12327
2183.33969,0.12277
2181.41094,0.12216
2179.48220,0.12169
2177.55345,0.12121
2175.62471,0.12061
2173.69596,0.12005
2171.76722,0.11965
2169.83847,0.11928
2167.90973,0.11874
2165.98098,0.11803
2164.05223,0.11743
2162.12349,0.11702
2160.19474,0.11669
2158.26600,0.11645
2156.33725,0.11621
2154.40851,0.11600
2152.47976,0.11586
2150.55102,0.11575
2148.62227,0.11569
2146.69353,0.11561
2144.76478,0.11529
2142.83604,0.11483
2140.90729,0.11452
2138.97855,0.11447
2137.04980,0.11461
2135.12106,0.11471
2133.19231,0.11476
2131.26356,0.11498
2129.33482,0.11539
2127.40607,0.11578
2125.47733,0.11599
2123.54858,0.11613
2121.61984,0.11644
2119.69109,0.11685
2117.76235,0.11714
2115.83360,0.11744
2113.90486,0.11778
2111.97611,0.11795
2110.04737,0.11813
2108.11862,0.11849
2106.18988,0.11890
2104.26113,0.11921
2102.33238,0.11942
2100.40364,0.11956
2098.47489,0.11966
2096.54615,0.11984
2094.61740,0.12019
2092.68866,0.12059
2090.75991,0.12088
2088.83117,0.12113
2086.90242,0.12141
2084.97368,0.12171
2083.04493,0.12194
2081.11619,0.12204
2079.18744,0.12189
2077.25870,0.12160
2075.32995,0.12136
2073.40121,0.12120
2071.47246,0.12114
2069.54371,0.12112
2067.61497,0.12097
2065.68622,0.12076
2063.75748,0.12073
2061.82873,0.12085
2059.89999,0.12092
2057.97124,0.12098
2056.04250,0.12112
2054.11375,0.12115
2052.18501,0.12102
2050.25626,0.12088
2048.32752,0.12085
2046.39877,0.12103
2044.47003,0.12145
2042.54128,0.12185
2040.61254,0.12213
2038.68379,0.12241
2036.75504,0.12291
2034.82630,0.12358
2032.89755,0.12403
2030.96881,0.12425
2029.04006,0.12477
2027.11132,0.12565
2025.18257,0.12638
2023.25383,0.12689
2021.32508,0.12757
2019.39634,0.12846
2017.46759,0.12929
2015.53885,0.12997
2013.61010,0.13064
2011.68136,0.13134
2009.75261,0.13194
2007.82386,0.13246
2005.89512,0.13302
2003.96637,0.13352
2002.03763,0.13381
2000.10888,0.13406
1998.18014,0.13440
1996.25139,0.13480
1994.32265,0.13527
1992.39390,0.13580
1990.46516,0.13630
1988.53641,0.13674
1986.60767,0.13715
1984.67892,0.13752
1982.75018,0.13789
1980.82143,0.13830
1978.89269,0.13855
1976.96394,0.13858
1975.03519,0.13863
1973.10645,0.13874
1971.17770,0.13879
1969.24896,0.13891
1967.32021,0.13912
1965.39147,0.13918
1963.46272,0.13914
1961.53398,0.13913
1959.60523,0.13909
1957.67649,0.13904
1955.74774,0.13916
1953.81900,0.13940
1951.89025,0.13957
1949.96151,0.13971
1948.03276,0.14003
1946.10402,0.14041
1944.17527,0.14059
1942.24652,0.14061
1940.31778,0.14062
1938.38903,0.14069
1936.46029,0.14090
1934.53154,0.14113
1932.60280,0.14124
1930.67405,0.14126
1928.74531,0.14127
1926.81656,0.14129
1924.88782,0.14126
1922.95907,0.14105
1921.03033,0.14074
1919.10158,0.14057
1917.17284,0.14045
1915.24409,0.14020
1913.31534,0.13993
1911.38660,0.13979
1909.45785,0.13965
1907.52911,0.13954
1905.60036,0.13956
1903.67162,0.13963
1901.74287,0.13967
1899.81413,0.13961
1897.88538,0.13954
1895.95664,0.13971
1894.02789,0.14001
1892.09915,0.14008
1890.17040,0.13992
1888.24166,0.13985
1886.31291,0.13986
1884.38417,0.13987
1882.45542,0.13995
1880.52667,0.14009
1878.59793,0.14011
1876.66918,0.14007
1874.74044,0.14013
1872.81169,0.14006
1870.88295,0.13980
1868.95420,0.13969
1867.02546,0.13982
1865.09671,0.13981
1863.16797,0.13950
1861.23922,0.13907
1859.31048,0.13870
1857.38173,0.13842
1855.45299,0.13816
1853.52424,0.13791
1851.59549,0.13783
1849.66675,0.13789
1847.73800,0.13771
1845.80926,0.13721
1843.88051,0.13670
1841.95177,0.13642
1840.02302,0.13628
1838.09428,0.13607
1836.16553,0.13559
1834.23679,0.13499
1832.30804,0.13459
1830.37930,0.13445
1828.45055,0.13420
1826.52181,0.13363
1824.59306,0.13291
1822.66432,0.13220
1820.73557,0.13150
1818.80682,0.13092
1816.87808,0.13039
1814.94933,0.12964
1813.02059,0.12873
1811.09184,0.12783
1809.16310,0.12684
1807.23435,0.12568
1805.30561,0.12438
1803.37686,0.12293
1801.44812,0.12128
1799.51937,0.11948
1797.59063,0.11775
1795.66188,0.11624
1793.73314,0.11494
1791.80439,0.11389
1789.87565,0.11307
1787.94690,0.11219
1786.01815,0.11098
1784.08941,0.10950
1782.16066,0.10778
1780.23192,0.10576
1778.30317,0.10362
1776.37443,0.10150
1774.44568,0.09926
1772.51694,0.09670
1770.58819,0.09398
1768.65945,0.09121
1766.73070,0.08830
1764.80196,0.08545
1762.87321,0.08269
1760.94447,0.08004
1759.01572,0.07764
1757.08697,0.07546
1755.15823,0.07364
1753.22948,0.07219
1751.30074,0.07092
1749.37199,0.06974
1747.44325,0.06865
1745.51450,0.06767
1743.58576,0.06690
1741.65701,0.06639
1739.72827,0.06599
1737.79952,0.06569
1735.87078,0.06555
1733.94203,0.06544
1732.01329,0.06536
1730.08454,0.06541
1728.15580,0.06556
1726.22705,0.06578
1724.29830,0.06598
1722.36956,0.06614
1720.44081,0.06630
1718.51207,0.06637
1716.58332,0.06635
1714.65458,0.06646
1712.72583,0.06663
1710.79709,0.06660
1708.86834,0.06634
1706.93960,0.06602
1705.01085,0.06580
1703.08211,0.06580
1701.15336,0.06578
1699.22462,0.06539
1697.29587,0.06479
1695.36713,0.06430
1693.43838,0.06400
1691.50963,0.06376
1689.58089,0.06347
1687.65214,0.06319
1685.72340,0.06298
1683.79465,0.06253
1681.86591,0.06176
1679.93716,0.06105
1678.00842,0.06063
1676.07967,0.06026
1674.15093,0.05966
1672.22218,0.05898
1670.29344,0.05838
1668.36469,0.05781
1666.43595,0.05744
1664.50720,0.05722
1662.57845,0.05691
1660.64971,0.05649
1658.72096,0.05613
1656.79222,0.05609
1654.86347,0.05637
1652.93473,0.05646
1651.00598,0.05620
1649.07724,0.05609
1647.14849,0.05605
1645.21975,0.05582
1643.29100,0.05552
1641.36226,0.05530
1639.43351,0.05514
1637.50477,0.05495
1635.57602,0.05472
1633.64728,0.05453
1631.71853,0.05419
1629.78978,0.05369
1627.86104,0.05337
1625.93229,0.05333
1624.00355,0.05330
1622.07480,0.05310
1620.14606,0.05273
1618.21731,0.05233
1616.28857,0.05203
1614.35982,0.05176
1612.43108,0.05142
1610.50233,0.05107
1608.57359,0.05082
1606.64484,0.05061
1604.71610,0.05038
1602.78735,0.05019
1600.85861,0.05012
1598.92986,0.05018
1597.00111,0.05025
1595.07237,0.05026
1593.14362,0.05026
1591.21488,0.05035
1589.28613,0.05057
1587.35739,0.05100
1585.42864,0.05162
1583.49990,0.05225
1581.57115,0.05274
1579.64241,0.05305
1577.71366,0.05332
1575.78492,0.05364
1573.85617,0.05395
1571.92743,0.05419
1569.99868,0.05442
1568.06993,0.05479
1566.14119,0.05523
1564.21244,0.05548
1562.28370,0.05565
1560.35495,0.05607
1558.42621,0.05664
1556.49746,0.05703
1554.56872,0.05736
1552.63997,0.05768
1550.71123,0.05797
1548.78248,0.05841
1546.85374,0.05899
1544.92499,0.05937
1542.99625,0.05954
1541.06750,0.05980
1539.13876,0.06012
1537.21001,0.06041
1535.28126,0.06061
1533.35252,0.06055
1531.42377,0.06038
1529.49503,0.06022
1527.56628,0.05978
1525.63754,0.05901
1523.70879,0.05811
1521.78005,0.05679
1519.85130,0.05517
1517.92256,0.05396
1515.99381,0.05319
1514.06507,0.05265
1512.13632,0.05224
1510.20758,0.05203
1508.27883,0.05213
1506.35008,0.05225
1504.42134,0.05219
1502.49259,0.05215
1500.56385,0.05229
1498.63510,0.05270
1496.70636,0.05324
1494.77761,0.05362
1492.84887,0.05374
1490.92012,0.05361
1488.99138,0.05329
1487.06263,0.05281
1485.13389,0.05225
1483.20514,0.05164
1481.27640,0.05085
1479.34765,0.04992
1477.41891,0.04905
1475.49016,0.04811
1473.56141,0.04682
1471.63267,0.04552
1469.70392,0.04476
1467.77518,0.04452
1465.84643,0.04455
1463.91769,0.04465
1461.98894,0.04478
1460.06020,0.04513
1458.13145,0.04576
1456.20271,0.04625
1454.27396,0.04633
1452.34522,0.04641
1450.41647,0.04656
1448.48773,0.04665
1446.55898,0.04681
1444.63024,0.04697
1442.70149,0.04701
1440.77274,0.04704
1438.84400,0.04703
1436.91525,0.04683
1434.98651,0.04652
1433.05776,0.04627
1431.12902,0.04609
1429.20027,0.04601
1427.27153,0.04607
1425.34278,0.04622
1423.41404,0.04648
1421.48529,0.04695
1419.55655,0.04765
1417.62780,0.04830
1415.69906,0.04862
1413.77031,0.04869
1411.84156,0.04873
1409.91282,0.04877
1407.98407,0.04889
1406.05533,0.04913
1404.12658,0.04929
1402.19784,0.04924
1400.26909,0.04899
1398.34035,0.04866
1396.41160,0.04842
1394.48286,0.04823
1392.55411,0.04795
1390.62537,0.04759
1388.69662,0.04716
1386.76788,0.04659
1384.83913,0.04593
1382.91039,0.04537
1380.98164,0.04475
1379.05289,0.04416
1377.12415,0.04411
1375.19540,0.04456
1373.26666,0.04489
1371.33791,0.04497
1369.40917,0.04513
1367.48042,0.04543
1365.55168,0.04567
1363.62293,0.04586
1361.69419,0.04604
1359.76544,0.04614
1357.83670,0.04618
1355.90795,0.04619
1353.97921,0.04616
1352.05046,0.04616
1350.12172,0.04617
1348.19297,0.04608
1346.26422,0.04594
1344.33548,0.04589
1342.40673,0.04587
1340.47799,0.04572
1338.54924,0.04542
1336.62050,0.04511
1334.69175,0.04492
1332.76301,0.04488
1330.83426,0.04498
1328.90552,0.04516
1326.97677,0.04523
1325.04803,0.04512
1323.11928,0.04491
1321.19054,0.04478
1319.26179,0.04489
1317.33304,0.04514
1315.40430,0.04544
1313.47555,0.04582
1311.54681,0.04624
1309.61806,0.04658
1307.68932,0.04674
1305.76057,0.04687
1303.83183,0.04721
1301.90308,0.04758
1299.97434,0.04772
1298.04559,0.04779
1296.11685,0.04786
1294.18810,0.04772
1292.25936,0.04733
1290.33061,0.04693
1288.40187,0.04675
1286.47312,0.04666
1284.54437,0.04638
1282.61563,0.04598
1280.68688,0.04585
1278.75814,0.04606
1276.82939,0.04617
1274.90065,0.04602
1272.97190,0.04596
1271.04316,0.04612
1269.11441,0.04622
1267.18567,0.04613
1265.25692,0.04600
1263.32818,0.04596
1261.39943,0.04606
1259.47069,0.04621
1257.54194,0.04624
1255.61320,0.04616
1253.68445,0.04610
1251.75570,0.04616
1249.82696,0.04626
1247.89821,0.04620
1245.96947,0.04602
1244.04072,0.04591
1242.11198,0.04589
1240.18323,0.04588
1238.25449,0.04585
1236.32574,0.04587
1234.39700,0.04599
1232.46825,0.04613
1230.53951,0.04617
1228.61076,0.04631
1226.68202,0.04653
1224.75327,0.04667
1222.82452,0.04700
1220.89578,0.04753
1218.96703,0.04795
1217.03829,0.04820
1215.10954,0.04828
1213.18080,0.04806
1211.25205,0.04771
1209.32331,0.04755
1207.39456,0.04746
1205.46582,0.04725
1203.53707,0.04709
1201.60833,0.04715
1199.67958,0.04747
1197.75084,0.04794
1195.82209,0.04839
1193.89335,0.04875
1191.96460,0.04894
1190.03585,0.04903
1188.10711,0.04910
1186.17836,0.04909
1184.24962,0.04884
1182.32087,0.04835
1180.39213,0.04778
1178.46338,0.04727
1176.53464,0.04664
1174.60589,0.04577
1172.67715,0.04483
1170.74840,0.04397
1168.81966,0.04338
1166.89091,0.04312
1164.96217,0.04313
1163.03342,0.04345
1161.10467,0.04381
1159.17593,0.04373
1157.24718,0.04315
1155.31844,0.04253
1153.38969,0.04227
1151.46095,0.04213
1149.53220,0.04178
1147.60346,0.04141
1145.67471,0.04108
1143.74597,0.04057
1141.81722,0.04003
1139.88848,0.03953
1137.95973,0.03884
1136.03099,0.03809
1134.10224,0.03748
1132.17350,0.03693
1130.24475,0.03649
1128.31600,0.03633
1126.38726,0.03635
1124.45851,0.03643
1122.52977,0.03664
1120.60102,0.03710
1118.67228,0.03759
1116.74353,0.03777
1114.81479,0.03786
1112.88604,0.03817
1110.95730,0.03862
1109.02855,0.03911
1107.09981,0.03952
1105.17106,0.03967
1103.24232,0.03958
1101.31357,0.03928
1099.38483,0.03892
1097.45608,0.03887
1095.52733,0.03917
1093.59859,0.03930
1091.66984,0.03906
1089.74110,0.03906
1087.81235,0.03953
1085.88361,0.03994
1083.95486,0.04005
1082.02612,0.04010
1080.09737,0.04046
1078.16863,0.04115
1076.23988,0.04195
1074.31114,0.04297
1072.38239,0.04411
1070.45365,0.04532
1068.52490,0.04703
1066.59615,0.04945
1064.66741,0.05246
1062.73866,0.05575
1060.80992,0.05852
1058.88117,0.06014
1056.95243,0.06081
1055.02368,0.06087
1053.09494,0.06051
1051.16619,0.05985
1049.23745,0.05909
1047.30870,0.05856
1045.37996,0.05818
1043.45121,0.05786
1041.52247,0.05821
1039.59372,0.05942
1037.66498,0.06122
1035.73623,0.06316
1033.80748,0.06477
1031.87874,0.06586
1029.94999,0.06642
1028.02125,0.06648
1026.09250,0.06631
1024.16376,0.06615
1022.23501,0.06587
1020.30627,0.06553
1018.37752,0.06539
1016.44878,0.06550
1014.52003,0.06586
1012.59129,0.06624
1010.66254,0.06625
1008.73380,0.06593
1006.80505,0.06577
1004.87631,0.06580
1002.94756,0.06573
1001.01881,0.06567
999.09007,0.06599
997.16132,0.06656
995.23258,0.06694
993.30383,0.06715
991.37509,0.06739
989.44634,0.06773
987.51760,0.06820
985.58885,0.06865
983.66011,0.06920
981.73136,0.07012
979.80262,0.07118
977.87387,0.07194
975.94513,0.07230
974.01638,0.07237
972.08763,0.07244
970.15889,0.07274
968.23014,0.07316
966.30140,0.07361
964.37265,0.07405
962.44391,0.07457
960.51516,0.07536
958.58642,0.07634
956.65767,0.07713
954.72893,0.07763
952.80018,0.07810
950.87144,0.07860
948.94269,0.07890
947.01395,0.07900
945.08520,0.07898
943.15646,0.07888
941.22771,0.07883
939.29896,0.07891
937.37022,0.07890
935.44147,0.07862
933.51273,0.07827
931.58398,0.07790
929.65524,0.07748
927.72649,0.07726
925.79775,0.07717
923.86900,0.07697
921.94026,0.07673
920.01151,0.07640
918.08277,0.07573
916.15402,0.07474
914.22528,0.07367
912.29653,0.07267
910.36779,0.07184
908.43904,0.07118
906.51029,0.07033
904.58155,0.06907
902.65280,0.06783
900.72406,0.06711
898.79531,0.06692
896.86657,0.06708
894.93782,0.06765
893.00908,0.06865
891.08033,0.06975
889.15159,0.07069
887.22284,0.07145
885.29410,0.07182
883.36535,0.07169
881.43661,0.07151
879.50786,0.07147
877.57911,0.07124
875.65037,0.07077
873.72162,0.07070
871.79288,0.07132
869.86413,0.07199
867.93539,0.07207
866.00664,0.07173
864.07790,0.07145
862.14915,0.07146
860.22041,0.07162
858.29166,0.07144
856.36292,0.07090
854.43417,0.07079
852.50543,0.07122
850.57668,0.07164
848.64794,0.07198
846.71919,0.07209
844.79044,0.07169
842.86170,0.07105
840.93295,0.07044
839.00421,0.07009
837.07546,0.07008
835.14672,0.07021
833.21797,0.07014
831.28923,0.06950
829.36048,0.06860
827.43174,0.06814
825.50299,0.06793
823.57425,0.06761
821.64550,0.06711
819.71676,0.06641
817.78801,0.06574
815.85926,0.06523
813.93052,0.06493
812.00177,0.06494
810.07303,0.06506
808.14428,0.06516
806.21554,0.06535
804.28679,0.06549
802.35805,0.06523
800.42930,0.06484
798.50056,0.06488
796.57181,0.06521
794.64307,0.06531
792.71432,0.06501
790.78558,0.06456
788.85683,0.06439
786.92809,0.06442
784.99934,0.06418
783.07059,0.06378
781.14185,0.06345
779.21310,0.06304
777.28436,0.06257
775.35561,0.06227
773.42687,0.06223
771.49812,0.06215
769.56938,0.06163
767.64063,0.06105
765.71189,0.06068
763.78314,0.06017
761.85440,0.05977
759.92565,0.05966
757.99691,0.05953
756.06816,0.05931
754.13942,0.05899
752.21067,0.05845
750.28192,0.05765
748.35318,0.05683
746.42443,0.05649
744.49569,0.05646
742.56694,0.05623
740.63820,0.05610
738.70945,0.05609
736.78071,0.05565
734.85196,0.05477
732.92322,0.05399
730.99447,0.05360
729.06573,0.05366
727.13698,0.05385
725.20824,0.05357
723.27949,0.05281
721.35074,0.05242
719.42200,0.05279
717.49325,0.05316
715.56451,0.05283
713.63576,0.05219
711.70702,0.05172
709.77827,0.05141
707.84953,0.05140
705.92078,0.05163
703.99204,0.05172
702.06329,0.05169
700.13455,0.05166
698.20580,0.05179
696.27706,0.05196
694.34831,0.05152
692.41957,0.05057
690.49082,0.05017
688.56207,0.05054
686.63333,0.05091
684.70458,0.05069
682.77584,0.05000
680.84709,0.04963
678.91835,0.04994
676.98960,0.05011
675.06086,0.04975
673.13211,0.04959
671.20337,0.04983
669.27462,0.04994
667.34588,0.05012
665.41713,0.05044
663.48839,0.05014
661.55964,0.04925
659.63090,0.04898
657.70215,0.04962
655.77340,0.05006
653.84466,0.04959
651.91591,0.04892
649.98717,0.04894
648.05842,0.04949
646.12968,0.04987
644.20093,0.04964
642.27219,0.04894
640.34344,0.04811
638.41470,0.04746
636.48595,0.04737
634.55721,0.04762
632.62846,0.04790
630.69972,0.04821
628.77097,0.04830
626.84222,0.04810
624.91348,0.04793
622.98473,0.04815
621.05599,0.04906
619.12724,0.05035
617.19850,0.05112
615.26975,0.05144
613.34101,0.05228
611.41226,0.05346
609.48352,0.05359
607.55477,0.05228
605.62603,0.05089
603.69728,0.05031
601.76854,0.05072
599.83979,0.05210
