7497.03301,0.17194
7495.10426,0.17161
7493.17552,0.16963
7491.24677,0.16444
7489.31803,0.16063
7487.38928,0.16172
7485.46054,0.16766
7483.53179,0.17445
7481.60305,0.17674
7479.67430,0.17576
7477.74556,0.17482
7475.81681,0.17384
7473.88807,0.17422
7471.95932,0.17448
7470.03057,0.16971
7468.10183,0.16361
7466.17308,0.16388
7464.24434,0.16914
7462.31559,0.17146
7460.38685,0.16763
7458.45810,0.16381
7456.52936,0.16590
7454.60061,0.17033
7452.67187,0.17195
7450.74312,0.17204
7448.81438,0.17377
7446.88563,0.17600
7444.95689,0.17573
7443.02814,0.17333
7441.09940,0.17010
7439.17065,0.16689
7437.24190,0.16750
7435.31316,0.17373
7433.38441,0.17933
7431.45567,0.17794
7429.52692,0.17192
7427.59818,0.16863
7425.66943,0.17205
7423.74069,0.17680
7421.81194,0.17657
7419.88320,0.17421
7417.95445,0.17355
7416.02571,0.17364
7414.09696,0.17226
7412.16822,0.16922
7410.23947,0.16849
7408.31073,0.17226
7406.38198,0.17668
7404.45323,0.17784
7402.52449,0.17549
7400.59574,0.17090
7398.66700,0.16681
7396.73825,0.16623
7394.80951,0.16793
7392.88076,0.16897
7390.95202,0.17032
7389.02327,0.17258
7387.09453,0.17392
7385.16578,0.17444
7383.23704,0.17577
7381.30829,0.17793
7379.37955,0.17796
7377.45080,0.17461
7375.52205,0.17240
7373.59331,0.17348
7371.66456,0.17381
7369.73582,0.17233
7367.80707,0.17299
7365.87833,0.17395
7363.94958,0.17049
7362.02084,0.16718
7360.09209,0.16964
7358.16335,0.17308
7356.23460,0.17315
7354.30586,0.17342
7352.37711,0.17660
7350.44837,0.18000
7348.51962,0.17845
7346.59088,0.17162
7344.66213,0.16724
7342.73338,0.16910
7340.80464,0.17300
7338.87589,0.17480
7336.94715,0.17432
7335.01840,0.17429
7333.08966,0.17600
7331.16091,0.17757
7329.23217,0.17805
7327.30342,0.17737
7325.37468,0.17495
7323.44593,0.17363
7321.51719,0.17526
7319.58844,0.17618
7317.65970,0.17625
7315.73095,0.17715
7313.80221,0.17772
7311.87346,0.17857
7309.94471,0.17988
7308.01597,0.17877
7306.08722,0.17553
7304.15848,0.17396
7302.22973,0.17411
7300.30099,0.17349
7298.37224,0.17225
7296.44350,0.17249
7294.51475,0.17535
7292.58601,0.17787
7290.65726,0.17876
7288.72852,0.17957
7286.79977,0.17785
7284.87103,0.17274
7282.94228,0.16836
7281.01353,0.16819
7279.08479,0.17183
7277.15604,0.17466
7275.22730,0.17425
7273.29855,0.17352
7271.36981,0.17416
7269.44106,0.17373
7267.51232,0.17097
7265.58357,0.16820
7263.65483,0.16772
7261.72608,0.16923
7259.79734,0.17057
7257.86859,0.16985
7255.93985,0.16720
7254.01110,0.16498
7252.08236,0.16633
7250.15361,0.17215
7248.22486,0.17885
7246.29612,0.18144
7244.36737,0.17925
7242.43863,0.17468
7240.50988,0.17066
7238.58114,0.17006
7236.65239,0.17223
7234.72365,0.17437
7232.79490,0.17684
7230.86616,0.18008
7228.93741,0.18129
7227.00867,0.18005
7225.07992,0.17885
7223.15118,0.17889
7221.22243,0.17929
7219.29369,0.17668
7217.36494,0.17198
7215.43619,0.17189
7213.50745,0.17667
7211.57870,0.18029
7209.64996,0.18025
7207.72121,0.17779
7205.79247,0.17587
7203.86372,0.17701
7201.93498,0.17942
7200.00623,0.17973
7198.07749,0.17929
7196.14874,0.18130
7194.22000,0.18354
7192.29125,0.18252
7190.36251,0.17952
7188.43376,0.17746
7186.50501,0.17857
7184.57627,0.18071
7182.64752,0.18031
7180.71878,0.17902
7178.79003,0.17872
7176.86129,0.17884
7174.93254,0.17927
7173.00380,0.18050
7171.07505,0.18216
7169.14631,0.18175
7167.21756,0.17861
7165.28882,0.17465
7163.36007,0.17185
7161.43133,0.17062
7159.50258,0.16957
7157.57384,0.16937
7155.64509,0.17245
7153.71634,0.17725
7151.78760,0.17994
7149.85885,0.18166
7147.93011,0.18538
7146.00136,0.18821
7144.07262,0.18730
7142.14387,0.18382
7140.21513,0.17967
7138.28638,0.17738
7136.35764,0.17689
7134.42889,0.17674
7132.50015,0.17851
7130.57140,0.18218
7128.64266,0.18476
7126.71391,0.18583
7124.78516,0.18780
7122.85642,0.18921
7120.92767,0.18670
7118.99893,0.18161
7117.07018,0.17784
7115.14144,0.17755
7113.21269,0.17867
7111.28395,0.17830
7109.35520,0.17827
7107.42646,0.17965
7105.49771,0.18044
7103.56897,0.18062
7101.64022,0.18097
7099.71148,0.18071
7097.78273,0.18124
7095.85399,0.18398
7093.92524,0.18530
7091.99649,0.18303
7090.06775,0.18026
7088.13900,0.17920
7086.21026,0.18019
7084.28151,0.18233
7082.35277,0.18207
7080.42402,0.17882
7078.49528,0.17743
7076.56653,0.17817
7074.63779,0.17717
7072.70904,0.17540
7070.78030,0.17588
7068.85155,0.17863
7066.92281,0.18183
7064.99406,0.18370
7063.06532,0.18416
7061.13657,0.18521
7059.20782,0.18594
7057.27908,0.18323
7055.35033,0.17952
7053.42159,0.17796
7051.49284,0.17891
7049.56410,0.18182
7047.63535,0.18234
7045.70661,0.17920
7043.77786,0.17812
7041.84912,0.18043
7039.92037,0.18138
7037.99163,0.18091
7036.06288,0.18225
7034.13414,0.18436
7032.20539,0.18497
7030.27664,0.18300
7028.34790,0.18057
7026.41915,0.18187
7024.49041,0.18440
7022.56166,0.18364
7020.63292,0.18237
7018.70417,0.18328
7016.77543,0.18450
7014.84668,0.18522
7012.91794,0.18626
7010.98919,0.18650
7009.06045,0.18474
7007.13170,0.18248
7005.20296,0.18101
7003.27421,0.17982
7001.34547,0.17928
6999.41672,0.18002
6997.48797,0.18159
6995.55923,0.18204
6993.63048,0.18058
6991.70174,0.18001
6989.77299,0.18218
6987.84425,0.18350
6985.91550,0.18125
6983.98676,0.17949
6982.05801,0.18107
6980.12927,0.18265
6978.20052,0.18234
6976.27178,0.18094
6974.34303,0.17880
6972.41429,0.17771
6970.48554,0.18010
6968.55680,0.18403
6966.62805,0.18457
6964.69930,0.18202
6962.77056,0.18117
6960.84181,0.18304
6958.91307,0.18417
6956.98432,0.18351
6955.05558,0.18299
6953.12683,0.18186
6951.19809,0.18042
6949.26934,0.18134
6947.34060,0.18353
6945.41185,0.18487
6943.48311,0.18471
6941.55436,0.18287
6939.62562,0.18138
6937.69687,0.18081
6935.76812,0.18020
6933.83938,0.18091
6931.91063,0.18212
6929.98189,0.18152
6928.05314,0.17992
6926.12440,0.17793
6924.19565,0.17653
6922.26691,0.17752
6920.33816,0.18033
6918.40942,0.18338
6916.48067,0.18513
6914.55193,0.18579
6912.62318,0.18710
6910.69444,0.18842
6908.76569,0.18801
6906.83695,0.18661
6904.90820,0.18584
6902.97945,0.18447
6901.05071,0.18113
6899.12196,0.17809
6897.19322,0.17767
6895.26447,0.17905
6893.33573,0.17991
6891.40698,0.17917
6889.47824,0.17830
6887.54949,0.17960
6885.62075,0.18257
6883.69200,0.18358
6881.76326,0.18266
6879.83451,0.18310
6877.90577,0.18413
6875.97702,0.18342
6874.04828,0.18168
6872.11953,0.18104
6870.19078,0.18192
6868.26204,0.18361
6866.33329,0.18545
6864.40455,0.18563
6862.47580,0.18493
6860.54706,0.18639
6858.61831,0.18876
6856.68957,0.18912
6854.76082,0.18754
6852.83208,0.18589
6850.90333,0.18556
6848.97459,0.18544
6847.04584,0.18361
6845.11710,0.18102
6843.18835,0.18045
6841.25960,0.18204
6839.33086,0.18341
6837.40211,0.18336
6835.47337,0.18276
6833.54462,0.18236
6831.61588,0.18254
6829.68713,0.18410
6827.75839,0.18636
6825.82964,0.18715
6823.90090,0.18607
6821.97215,0.18442
6820.04341,0.18343
6818.11466,0.18390
6816.18592,0.18609
6814.25717,0.18903
6812.32843,0.19076
6810.39968,0.19034
6808.47093,0.18864
6806.54219,0.18711
6804.61344,0.18753
6802.68470,0.18895
6800.75595,0.18845
6798.82721,0.18767
6796.89846,0.18850
6794.96972,0.18881
6793.04097,0.18857
6791.11223,0.18827
6789.18348,0.18792
6787.25474,0.18931
6785.32599,0.19140
6783.39725,0.19175
6781.46850,0.19101
6779.53975,0.18976
6777.61101,0.18789
6775.68226,0.18636
6773.75352,0.18595
6771.82477,0.18585
6769.89603,0.18511
6767.96728,0.18454
6766.03854,0.18473
6764.10979,0.18565
6762.18105,0.18716
6760.25230,0.18703
6758.32356,0.18511
6756.39481,0.18471
6754.46607,0.18617
6752.53732,0.18703
6750.60858,0.18656
6748.67983,0.18574
6746.75108,0.18628
6744.82234,0.18842
6742.89359,0.18929
6740.96485,0.18795
6739.03610,0.18807
6737.10736,0.19027
6735.17861,0.19104
6733.24987,0.18984
6731.32112,0.18928
6729.39238,0.18981
6727.46363,0.18924
6725.53489,0.18759
6723.60614,0.18718
6721.67740,0.18834
6719.74865,0.18985
6717.81991,0.19118
6715.89116,0.19248
6713.96241,0.19257
6712.03367,0.19051
6710.10492,0.18839
6708.17618,0.18878
6706.24743,0.19041
6704.31869,0.19055
6702.38994,0.19069
6700.46120,0.19182
6698.53245,0.19074
6696.60371,0.18776
6694.67496,0.18689
6692.74622,0.18866
6690.81747,0.18987
6688.88873,0.18907
6686.95998,0.18806
6685.03123,0.18865
6683.10249,0.18966
6681.17374,0.18829
6679.24500,0.18614
6677.31625,0.18737
6675.38751,0.19055
6673.45876,0.19083
6671.53002,0.18754
6669.60127,0.18485
6667.67253,0.18624
6665.74378,0.19071
6663.81504,0.19419
6661.88629,0.19355
6659.95755,0.19096
6658.02880,0.19128
6656.10006,0.19374
6654.17131,0.19359
6652.24256,0.19168
6650.31382,0.19212
6648.38507,0.19330
6646.45633,0.19203
6644.52758,0.19080
6642.59884,0.19274
6640.67009,0.19514
6638.74135,0.19473
6636.81260,0.19388
6634.88386,0.19482
6632.95511,0.19475
6631.02637,0.19250
6629.09762,0.19099
6627.16888,0.19188
6625.24013,0.19344
6623.31139,0.19320
6621.38264,0.19148
6619.45389,0.19114
6617.52515,0.19303
6615.59640,0.19513
6613.66766,0.19632
6611.73891,0.19683
6609.81017,0.19624
6607.88142,0.19522
6605.95268,0.19531
6604.02393,0.19646
6602.09519,0.19763
6600.16644,0.19752
6598.23770,0.19563
6596.30895,0.19418
6594.38021,0.19519
6592.45146,0.19734
6590.52271,0.19907
6588.59397,0.19989
6586.66522,0.19886
6584.73648,0.19704
6582.80773,0.19659
6580.87899,0.19708
6578.95024,0.19741
6577.02150,0.19747
6575.09275,0.19727
6573.16401,0.19774
6571.23526,0.19953
6569.30652,0.20033
6567.37777,0.19763
6565.44903,0.19460
6563.52028,0.19582
6561.59154,0.19912
6559.66279,0.20061
6557.73404,0.20065
6555.80530,0.19957
6553.87655,0.19795
6551.94781,0.19777
6550.01906,0.19824
6548.09032,0.19732
6546.16157,0.19575
6544.23283,0.19622
6542.30408,0.19901
6540.37534,0.20037
6538.44659,0.19906
6536.51785,0.19740
6534.58910,0.19676
6532.66036,0.19711
6530.73161,0.19702
6528.80287,0.19684
6526.87412,0.19821
6524.94537,0.19994
6523.01663,0.20088
6521.08788,0.20125
6519.15914,0.20103
6517.23039,0.19981
6515.30165,0.19809
6513.37290,0.19775
6511.44416,0.19830
6509.51541,0.19805
6507.58667,0.19768
6505.65792,0.19812
6503.72918,0.19957
6501.80043,0.20082
6499.87169,0.20105
6497.94294,0.20206
6496.01419,0.20389
6494.08545,0.20412
6492.15670,0.20252
6490.22796,0.20161
6488.29921,0.20292
6486.37047,0.20440
6484.44172,0.20363
6482.51298,0.20102
6480.58423,0.19896
6478.65549,0.19937
6476.72674,0.20091
6474.79800,0.20161
6472.86925,0.20264
6470.94051,0.20423
6469.01176,0.20438
6467.08302,0.20296
6465.15427,0.20141
6463.22552,0.20070
6461.29678,0.20116
6459.36803,0.20242
6457.43929,0.20345
6455.51054,0.20333
6453.58180,0.20253
6451.65305,0.20260
6449.72431,0.20389
6447.79556,0.20543
6445.86682,0.20661
6443.93807,0.20696
6442.00933,0.20668
6440.08058,0.20643
6438.15184,0.20580
6436.22309,0.20493
6434.29434,0.20528
6432.36560,0.20673
6430.43685,0.20747
6428.50811,0.20729
6426.57936,0.20727
6424.65062,0.20693
6422.72187,0.20656
6420.79313,0.20741
6418.86438,0.20787
6416.93564,0.20649
6415.00689,0.20458
6413.07815,0.20306
6411.14940,0.20300
6409.22066,0.20482
6407.29191,0.20623
6405.36317,0.20613
6403.43442,0.20602
6401.50567,0.20663
6399.57693,0.20768
6397.64818,0.20810
6395.71944,0.20678
6393.79069,0.20555
6391.86195,0.20635
6389.93320,0.20728
6388.00446,0.20653
6386.07571,0.20506
6384.14697,0.20460
6382.21822,0.20569
6380.28948,0.20733
6378.36073,0.20832
6376.43199,0.20810
6374.50324,0.20692
6372.57450,0.20592
6370.64575,0.20609
6368.71700,0.20702
6366.78826,0.20782
6364.85951,0.20840
6362.93077,0.20841
6361.00202,0.20768
6359.07328,0.20814
6357.14453,0.21055
6355.21579,0.21208
6353.28704,0.21105
6351.35830,0.20916
6349.42955,0.20799
6347.50081,0.20765
6345.57206,0.20870
6343.64332,0.21067
6341.71457,0.21144
6339.78582,0.21122
6337.85708,0.21140
6335.92833,0.21197
6333.99959,0.21234
6332.07084,0.21155
6330.14210,0.21010
6328.21335,0.20936
6326.28461,0.20962
6324.35586,0.21018
6322.42712,0.21055
6320.49837,0.21119
6318.56963,0.21176
6316.64088,0.21170
6314.71214,0.21084
6312.78339,0.20915
6310.85465,0.20786
6308.92590,0.20787
6306.99715,0.20923
6305.06841,0.21116
6303.13966,0.21185
6301.21092,0.21150
6299.28217,0.21172
6297.35343,0.21189
6295.42468,0.21156
6293.49594,0.21168
6291.56719,0.21206
6289.63845,0.21250
6287.70970,0.21262
6285.78096,0.21220
6283.85221,0.21319
6281.92347,0.21547
6279.99472,0.21598
6278.06598,0.21465
6276.13723,0.21389
6274.20848,0.21391
6272.27974,0.21393
6270.35099,0.21420
6268.42225,0.21496
6266.49350,0.21609
6264.56476,0.21584
6262.63601,0.21375
6260.70727,0.21348
6258.77852,0.21613
6256.84978,0.21853
6254.92103,0.21881
6252.99229,0.21787
6251.06354,0.21736
6249.13480,0.21706
6247.20605,0.21621
6245.27730,0.21605
6243.34856,0.21705
6241.41981,0.21781
6239.49107,0.21775
6237.56232,0.21738
6235.63358,0.21742
6233.70483,0.21740
6231.77609,0.21556
6229.84734,0.21363
6227.91860,0.21462
6225.98985,0.21743
6224.06111,0.21929
6222.13236,0.21961
6220.20362,0.21990
6218.27487,0.22072
6216.34613,0.22080
6214.41738,0.21982
6212.48863,0.21918
6210.55989,0.21999
6208.63114,0.22087
6206.70240,0.22063
6204.77365,0.22069
6202.84491,0.22189
6200.91616,0.22274
6198.98742,0.22148
6197.05867,0.21922
6195.12993,0.21920
6193.20118,0.22147
6191.27244,0.22264
6189.34369,0.22184
6187.41495,0.22080
6185.48620,0.22002
6183.55746,0.22048
6181.62871,0.22233
6179.69996,0.22280
6177.77122,0.22162
6175.84247,0.22123
6173.91373,0.22164
6171.98498,0.22154
6170.05624,0.22094
6168.12749,0.22077
6166.19875,0.22150
6164.27000,0.22267
6162.34126,0.22384
6160.41251,0.22423
6158.48377,0.22313
6156.55502,0.22230
6154.62628,0.22372
6152.69753,0.22614
6150.76878,0.22722
6148.84004,0.22626
6146.91129,0.22437
6144.98255,0.22377
6143.05380,0.22492
6141.12506,0.22608
6139.19631,0.22659
6137.26757,0.22677
6135.33882,0.22642
6133.41008,0.22572
6131.48133,0.22525
6129.55259,0.22503
6127.62384,0.22499
6125.69510,0.22536
6123.76635,0.22597
6121.83761,0.22621
6119.90886,0.22589
6117.98011,0.22546
6116.05137,0.22558
6114.12262,0.22550
6112.19388,0.22422
6110.26513,0.22303
6108.33639,0.22328
6106.40764,0.22434
6104.47890,0.22509
6102.55015,0.22500
6100.62141,0.22404
6098.69266,0.22335
6096.76392,0.22442
6094.83517,0.22627
6092.90643,0.22692
6090.97768,0.22675
6089.04893,0.22627
6087.12019,0.22581
6085.19144,0.22690
6083.26270,0.22889
6081.33395,0.22918
6079.40521,0.22816
6077.47646,0.22795
6075.54772,0.22821
6073.61897,0.22770
6071.69023,0.22702
6069.76148,0.22701
6067.83274,0.22707
6065.90399,0.22710
6063.97525,0.22780
6062.04650,0.22844
6060.11776,0.22874
6058.18901,0.22912
6056.26026,0.22874
6054.33152,0.22810
6052.40277,0.22856
6050.47403,0.22929
6048.54528,0.22968
6046.61654,0.22999
6044.68779,0.22980
6042.75905,0.22942
6040.83030,0.22942
6038.90156,0.22863
6036.97281,0.22677
6035.04407,0.22565
6033.11532,0.22613
6031.18658,0.22716
6029.25783,0.22772
6027.32909,0.22787
6025.40034,0.22748
6023.47159,0.22690
6021.54285,0.22712
6019.61410,0.22794
6017.68536,0.22887
6015.75661,0.22943
6013.82787,0.22905
6011.89912,0.22821
6009.97038,0.22730
6008.04163,0.22620
6006.11289,0.22527
6004.18414,0.22462
6002.25540,0.22454
6000.32665,0.22537
5998.39791,0.22607
5996.46916,0.22602
5994.54041,0.22573
5992.61167,0.22524
5990.68292,0.22581
5988.75418,0.22810
5986.82543,0.22978
5984.89669,0.22945
5982.96794,0.22807
5981.03920,0.22688
5979.11045,0.22645
5977.18171,0.22609
5975.25296,0.22547
5973.32422,0.22534
5971.39547,0.22556
5969.46673,0.22576
5967.53798,0.22620
5965.60924,0.22682
5963.68049,0.22727
5961.75174,0.22710
5959.82300,0.22649
5957.89425,0.22560
5955.96551,0.22457
5954.03676,0.22412
5952.10802,0.22343
5950.17927,0.22198
5948.25053,0.22187
5946.32178,0.22313
5944.39304,0.22316
5942.46429,0.22252
5940.53555,0.22345
5938.60680,0.22472
5936.67806,0.22419
5934.74931,0.22271
5932.82057,0.22214
5930.89182,0.22256
5928.96307,0.22276
5927.03433,0.22204
5925.10558,0.22048
5923.17684,0.21898
5921.24809,0.21873
5919.31935,0.21952
5917.39060,0.21987
5915.46186,0.21932
5913.53311,0.21904
5911.60437,0.21940
5909.67562,0.21911
5907.74688,0.21819
5905.81813,0.21790
5903.88939,0.21835
5901.96064,0.21928
5900.03189,0.21993
5898.10315,0.21921
5896.17440,0.21759
5894.24566,0.21649
5892.31691,0.21609
5890.38817,0.21583
5888.45942,0.21573
5886.53068,0.21599
5884.60193,0.21635
5882.67319,0.21601
5880.74444,0.21520
5878.81570,0.21511
5876.88695,0.21501
5874.95821,0.21361
5873.02946,0.21195
5871.10072,0.21125
5869.17197,0.21116
5867.24322,0.21124
5865.31448,0.21171
5863.38573,0.21207
5861.45699,0.21131
5859.52824,0.21016
5857.59950,0.21017
5855.67075,0.21076
5853.74201,0.21109
5851.81326,0.21170
5849.88452,0.21219
5847.95577,0.21210
5846.02703,0.21218
5844.09828,0.21297
5842.16954,0.21352
5840.24079,0.21291
5838.31205,0.21233
5836.38330,0.21245
5834.45455,0.21221
5832.52581,0.21145
5830.59706,0.21085
5828.66832,0.21101
5826.73957,0.21177
5824.81083,0.21178
5822.88208,0.21108
5820.95334,0.21060
5819.02459,0.21028
5817.09585,0.21070
5815.16710,0.21188
5813.23836,0.21202
5811.30961,0.21081
5809.38087,0.20948
5807.45212,0.20866
5805.52337,0.20836
5803.59463,0.20836
5801.66588,0.20850
5799.73714,0.20837
5797.80839,0.20797
5795.87965,0.20808
5793.95090,0.20850
5792.02216,0.20845
5790.09341,0.20832
5788.16467,0.20835
5786.23592,0.20802
5784.30718,0.20743
5782.37843,0.20741
5780.44969,0.20854
5778.52094,0.21017
5776.59220,0.21127
5774.66345,0.21185
5772.73470,0.21262
5770.80596,0.21350
5768.87721,0.21406
5766.94847,0.21437
5765.01972,0.21452
5763.09098,0.21455
5761.16223,0.21430
5759.23349,0.21443
5757.30474,0.21539
5755.37600,0.21562
5753.44725,0.21511
5751.51851,0.21572
5749.58976,0.21716
5747.66102,0.21786
5745.73227,0.21726
5743.80352,0.21653
5741.87478,0.21707
5739.94603,0.21860
5738.01729,0.21974
5736.08854,0.21967
5734.15980,0.21914
5732.23105,0.21919
5730.30231,0.21964
5728.37356,0.21996
5726.44482,0.22043
5724.51607,0.22135
5722.58733,0.22228
5720.65858,0.22247
5718.72984,0.22130
5716.80109,0.21946
5714.87235,0.21887
5712.94360,0.21940
5711.01485,0.21958
5709.08611,0.21965
5707.15736,0.22034
5705.22862,0.22087
5703.29987,0.22027
5701.37113,0.21945
5699.44238,0.21979
5697.51364,0.22080
5695.58489,0.22132
5693.65615,0.22104
5691.72740,0.21995
5689.79866,0.21847
5687.86991,0.21777
5685.94117,0.21806
5684.01242,0.21862
5682.08368,0.21948
5680.15493,0.22013
5678.22618,0.21994
5676.29744,0.21947
5674.36869,0.21932
5672.43995,0.21975
5670.51120,0.22022
5668.58246,0.21997
5666.65371,0.21942
5664.72497,0.21930
5662.79622,0.22013
5660.86748,0.22129
5658.93873,0.22136
5657.00999,0.22085
5655.08124,0.22100
5653.15250,0.22172
5651.22375,0.22303
5649.29500,0.22481
5647.36626,0.22572
5645.43751,0.22556
5643.50877,0.22533
5641.58002,0.22484
5639.65128,0.22434
5637.72253,0.22527
5635.79379,0.22749
5633.86504,0.22948
5631.93630,0.23040
5630.00755,0.23058
5628.07881,0.23036
5626.15006,0.22985
5624.22132,0.22964
5622.29257,0.22972
5620.36383,0.22962
5618.43508,0.22975
5616.50633,0.23013
5614.57759,0.23077
5612.64884,0.23206
5610.72010,0.23321
5608.79135,0.23324
5606.86261,0.23254
5604.93386,0.23225
5603.00512,0.23260
5601.07637,0.23297
5599.14763,0.23376
5597.21888,0.23521
5595.29014,0.23623
5593.36139,0.23677
5591.43265,0.23695
5589.50390,0.23635
5587.57516,0.23590
5585.64641,0.23600
5583.71766,0.23567
5581.78892,0.23520
5579.86017,0.23522
5577.93143,0.23577
5576.00268,0.23671
5574.07394,0.23747
5572.14519,0.23793
5570.21645,0.23839
5568.28770,0.23873
5566.35896,0.23885
5564.43021,0.23858
5562.50147,0.23800
5560.57272,0.23804
5558.64398,0.23904
5556.71523,0.23998
5554.78648,0.23983
5552.85774,0.23852
5550.92899,0.23767
5549.00025,0.23832
5547.07150,0.23932
5545.14276,0.24006
5543.21401,0.24058
5541.28527,0.24015
5539.35652,0.23908
5537.42778,0.23850
5535.49903,0.23893
5533.57029,0.24018
5531.64154,0.24123
5529.71280,0.24119
5527.78405,0.24043
5525.85531,0.23976
5523.92656,0.23982
5521.99781,0.24059
5520.06907,0.24120
5518.14032,0.24128
5516.21158,0.24108
5514.28283,0.24056
5512.35409,0.24022
5510.42534,0.24050
5508.49660,0.24059
5506.56785,0.24036
5504.63911,0.24088
5502.71036,0.24175
5500.78162,0.24161
5498.85287,0.24072
5496.92413,0.24062
5494.99538,0.24189
5493.06664,0.24329
5491.13789,0.24332
5489.20914,0.24269
5487.28040,0.24287
5485.35165,0.24348
5483.42291,0.24369
5481.49416,0.24361
5479.56542,0.24359
5477.63667,0.24384
5475.70793,0.24446
5473.77918,0.24497
5471.85044,0.24458
5469.92169,0.24374
5467.99295,0.24359
5466.06420,0.24414
5464.13546,0.24473
5462.20671,0.24487
5460.27796,0.24498
5458.34922,0.24540
5456.42047,0.24543
5454.49173,0.24494
5452.56298,0.24473
5450.63424,0.24543
5448.70549,0.24650
5446.77675,0.24704
5444.84800,0.24735
5442.91926,0.24774
5440.99051,0.24773
5439.06177,0.24709
5437.13302,0.24623
5435.20428,0.24589
5433.27553,0.24659
5431.34679,0.24786
5429.41804,0.24861
5427.48929,0.24842
5425.56055,0.24779
5423.63180,0.24756
5421.70306,0.24798
5419.77431,0.24839
5417.84557,0.24853
5415.91682,0.24885
5413.98808,0.24966
5412.05933,0.25041
5410.13059,0.25046
5408.20184,0.25010
5406.27310,0.24974
5404.34435,0.24948
5402.41561,0.24974
5400.48686,0.25081
5398.55811,0.25203
5396.62937,0.25226
5394.70062,0.25154
5392.77188,0.25090
5390.84313,0.25099
5388.91439,0.25170
5386.98564,0.25231
5385.05690,0.25280
5383.12815,0.25348
5381.19941,0.25350
5379.27066,0.25273
5377.34192,0.25230
5375.41317,0.25259
5373.48443,0.25301
5371.55568,0.25321
5369.62694,0.25349
5367.69819,0.25403
5365.76944,0.25438
5363.84070,0.25448
5361.91195,0.25515
5359.98321,0.25629
5358.05446,0.25657
5356.12572,0.25565
5354.19697,0.25478
5352.26823,0.25521
5350.33948,0.25581
5348.41074,0.25514
5346.48199,0.25459
5344.55325,0.25503
5342.62450,0.25528
5340.69576,0.25546
5338.76701,0.25618
5336.83827,0.25679
5334.90952,0.25660
5332.98077,0.25571
5331.05203,0.25492
5329.12328,0.25473
5327.19454,0.25469
5325.26579,0.25438
5323.33705,0.25392
5321.40830,0.25372
5319.47956,0.25389
5317.55081,0.25391
5315.62207,0.25365
5313.69332,0.25343
5311.76458,0.25316
5309.83583,0.25273
5307.90709,0.25256
5305.97834,0.25305
5304.04959,0.25393
5302.12085,0.25437
5300.19210,0.25394
5298.26336,0.25299
5296.33461,0.25223
5294.40587,0.25184
5292.47712,0.25144
5290.54838,0.25081
5288.61963,0.24990
5286.69089,0.24856
5284.76214,0.24711
5282.83340,0.24632
5280.90465,0.24606
5278.97591,0.24554
5277.04716,0.24466
5275.11842,0.24368
5273.18967,0.24265
5271.26092,0.24152
5269.33218,0.24014
5267.40343,0.23902
5265.47469,0.23882
5263.54594,0.23883
5261.61720,0.23832
5259.68845,0.23745
5257.75971,0.23629
5255.83096,0.23532
5253.90222,0.23477
5251.97347,0.23347
5250.04473,0.23120
5248.11598,0.22953
5246.18724,0.22927
5244.25849,0.22963
5242.32975,0.22959
5240.40100,0.22906
5238.47225,0.22839
5236.54351,0.22752
5234.61476,0.22636
5232.68602,0.22523
5230.75727,0.22443
5228.82853,0.22398
5226.89978,0.22405
5224.97104,0.22458
5223.04229,0.22470
5221.11355,0.22404
5219.18480,0.22313
5217.25606,0.22209
5215.32731,0.22102
5213.39857,0.22071
5211.46982,0.22119
5209.54107,0.22140
5207.61233,0.22103
5205.68358,0.22070
5203.75484,0.22059
5201.82609,0.22040
5199.89735,0.21983
5197.96860,0.21920
5196.03986,0.21907
5194.11111,0.21925
5192.18237,0.21929
5190.25362,0.21923
5188.32488,0.21933
5186.39613,0.21946
5184.46739,0.21935
5182.53864,0.21914
5180.60990,0.21917
5178.68115,0.21948
5176.75240,0.22002
5174.82366,0.22092
5172.89491,0.22171
5170.96617,0.22202
5169.03742,0.22229
5167.10868,0.22259
5165.17993,0.22259
5163.25119,0.22258
5161.32244,0.22283
5159.39370,0.22314
5157.46495,0.22364
5155.53621,0.22442
5153.60746,0.22490
5151.67872,0.22475
5149.74997,0.22446
5147.82123,0.22480
5145.89248,0.22594
5143.96373,0.22701
5142.03499,0.22735
5140.10624,0.22721
5138.17750,0.22735
5136.24875,0.22797
5134.32001,0.22843
5132.39126,0.22858
5130.46252,0.22908
5128.53377,0.22977
5126.60503,0.22998
5124.67628,0.23016
5122.74754,0.23099
5120.81879,0.23172
5118.89005,0.23143
5116.96130,0.23093
5115.03255,0.23118
5113.10381,0.23162
5111.17506,0.23185
5109.24632,0.23243
5107.31757,0.23350
5105.38883,0.23450
5103.46008,0.23500
5101.53134,0.23489
5099.60259,0.23437
5097.67385,0.23407
5095.74510,0.23428
5093.81636,0.23461
5091.88761,0.23495
5089.95887,0.23557
5088.03012,0.23642
5086.10138,0.23723
5084.17263,0.23800
5082.24388,0.23847
5080.31514,0.23847
5078.38639,0.23819
5076.45765,0.23787
5074.52890,0.23806
5072.60016,0.23873
5070.67141,0.23934
5068.74267,0.24021
5066.81392,0.24107
5064.88518,0.24151
5062.95643,0.24231
5061.02769,0.24319
5059.09894,0.24307
5057.17020,0.24277
5055.24145,0.24307
5053.31270,0.24329
5051.38396,0.24334
5049.45521,0.24353
5047.52647,0.24378
5045.59772,0.24429
5043.66898,0.24486
5041.74023,0.24505
5039.81149,0.24534
5037.88274,0.24575
5035.95400,0.24577
5034.02525,0.24599
5032.09651,0.24670
5030.16776,0.24715
5028.23902,0.24706
5026.31027,0.24705
5024.38153,0.24762
5022.45278,0.24832
5020.52403,0.24852
5018.59529,0.24832
5016.66654,0.24806
5014.73780,0.24787
5012.80905,0.24790
5010.88031,0.24804
5008.95156,0.24799
5007.02282,0.24829
5005.09407,0.24924
5003.16533,0.24992
5001.23658,0.25013
4999.30784,0.25043
4997.37909,0.25046
4995.45035,0.25013
4993.52160,0.25021
4991.59286,0.25092
4989.66411,0.25152
4987.73536,0.25144
4985.80662,0.25118
4983.87787,0.25116
4981.94913,0.25110
4980.02038,0.25101
4978.09164,0.25108
4976.16289,0.25126
4974.23415,0.25135
4972.30540,0.25089
4970.37666,0.24990
4968.44791,0.24932
4966.51917,0.24955
4964.59042,0.24980
4962.66168,0.24943
4960.73293,0.24905
4958.80418,0.24922
4956.87544,0.24950
4954.94669,0.24931
4953.01795,0.24862
4951.08920,0.24808
4949.16046,0.24816
4947.23171,0.24811
4945.30297,0.24771
4943.37422,0.24784
4941.44548,0.24831
4939.51673,0.24828
4937.58799,0.24767
4935.65924,0.24701
4933.73050,0.24702
4931.80175,0.24744
4929.87301,0.24728
4927.94426,0.24659
4926.01551,0.24634
4924.08677,0.24631
4922.15802,0.24555
4920.22928,0.24448
4918.30053,0.24384
4916.37179,0.24334
4914.44304,0.24278
4912.51430,0.24233
4910.58555,0.24185
4908.65681,0.24114
4906.72806,0.24054
4904.79932,0.24014
4902.87057,0.23942
4900.94183,0.23841
4899.01308,0.23772
4897.08434,0.23752
4895.15559,0.23743
4893.22684,0.23697
4891.29810,0.23625
4889.36935,0.23565
4887.44061,0.23495
4885.51186,0.23413
4883.58312,0.23372
4881.65437,0.23353
4879.72563,0.23305
4877.79688,0.23234
4875.86814,0.23152
4873.93939,0.23085
4872.01065,0.23039
4870.08190,0.22973
4868.15316,0.22889
4866.22441,0.22832
4864.29566,0.22809
4862.36692,0.22784
4860.43817,0.22708
4858.50943,0.22596
4856.58068,0.22514
4854.65194,0.22459
4852.72319,0.22423
4850.79445,0.22408
4848.86570,0.22373
4846.93696,0.22319
4845.00821,0.22263
4843.07947,0.22187
4841.15072,0.22127
4839.22198,0.22111
4837.29323,0.22091
4835.36449,0.22052
4833.43574,0.22003
4831.50699,0.21904
4829.57825,0.21782
4827.64950,0.21737
4825.72076,0.21761
4823.79201,0.21764
4821.86327,0.21708
4819.93452,0.21625
4818.00578,0.21568
4816.07703,0.21552
4814.14829,0.21539
4812.21954,0.21493
4810.29080,0.21430
4808.36205,0.21387
4806.43331,0.21368
4804.50456,0.21354
4802.57582,0.21326
4800.64707,0.21299
4798.71832,0.21294
4796.78958,0.21269
4794.86083,0.21201
4792.93209,0.21141
4791.00334,0.21123
4789.07460,0.21113
4787.14585,0.21096
4785.21711,0.21080
4783.28836,0.21065
4781.35962,0.21067
4779.43087,0.21074
4777.50213,0.21053
4775.57338,0.21006
4773.64464,0.20963
4771.71589,0.20934
4769.78714,0.20890
4767.85840,0.20855
4765.92965,0.20857
4764.00091,0.20847
4762.07216,0.20817
4760.14342,0.20835
4758.21467,0.20891
4756.28593,0.20912
4754.35718,0.20883
4752.42844,0.20868
4750.49969,0.20895
4748.57095,0.20904
4746.64220,0.20878
4744.71346,0.20859
4742.78471,0.20851
4740.85597,0.20864
4738.92722,0.20903
4736.99847,0.20928
4735.06973,0.20930
4733.14098,0.20935
4731.21224,0.20951
4729.28349,0.20963
4727.35475,0.20959
4725.42600,0.20968
4723.49726,0.21004
4721.56851,0.21039
4719.63977,0.21046
4717.71102,0.21037
4715.78228,0.21052
4713.85353,0.21088
4711.92479,0.21088
4709.99604,0.21072
4708.06729,0.21112
4706.13855,0.21160
4704.20980,0.21170
4702.28106,0.21192
4700.35231,0.21238
4698.42357,0.21285
4696.49482,0.21325
4694.56608,0.21335
4692.63733,0.21325
4690.70859,0.21352
4688.77984,0.21426
4686.85110,0.21505
4684.92235,0.21549
4682.99361,0.21543
4681.06486,0.21530
4679.13612,0.21545
4677.20737,0.21536
4675.27862,0.21503
4673.34988,0.21524
4671.42113,0.21569
4669.49239,0.21575
4667.56364,0.21567
4665.63490,0.21589
4663.70615,0.21618
4661.77741,0.21613
4659.84866,0.21607
4657.91992,0.21654
4655.99117,0.21716
4654.06243,0.21731
4652.13368,0.21712
4650.20494,0.21722
4648.27619,0.21773
4646.34745,0.21828
4644.41870,0.21884
4642.48995,0.21916
4640.56121,0.21892
4638.63246,0.21863
4636.70372,0.21861
4634.77497,0.21863
4632.84623,0.21914
4630.91748,0.22004
4628.98874,0.22040
4627.05999,0.22029
4625.13125,0.22059
4623.20250,0.22129
4621.27376,0.22176
4619.34501,0.22193
4617.41627,0.22214
4615.48752,0.22237
4613.55877,0.22256
4611.63003,0.22281
4609.70128,0.22335
4607.77254,0.22429
4605.84379,0.22513
4603.91505,0.22538
4601.98630,0.22500
4600.05756,0.22448
4598.12881,0.22443
4596.20007,0.22491
4594.27132,0.22548
4592.34258,0.22588
4590.41383,0.22650
4588.48509,0.22733
4586.55634,0.22780
4584.62760,0.22789
4582.69885,0.22803
4580.77010,0.22846
4578.84136,0.22920
4576.91261,0.22984
4574.98387,0.23026
4573.05512,0.23083
4571.12638,0.23131
4569.19763,0.23132
4567.26889,0.23127
4565.34014,0.23166
4563.41140,0.23242
4561.48265,0.23298
4559.55391,0.23307
4557.62516,0.23308
4555.69642,0.23328
4553.76767,0.23356
4551.83893,0.23395
4549.91018,0.23440
4547.98143,0.23450
4546.05269,0.23428
4544.12394,0.23419
4542.19520,0.23428
4540.26645,0.23445
4538.33771,0.23481
4536.40896,0.23519
4534.48022,0.23544
4532.55147,0.23563
4530.62273,0.23575
4528.69398,0.23577
4526.76524,0.23578
4524.83649,0.23569
4522.90775,0.23575
4520.97900,0.23615
4519.05025,0.23654
4517.12151,0.23673
4515.19276,0.23676
4513.26402,0.23656
4511.33527,0.23635
4509.40653,0.23627
4507.47778,0.23603
4505.54904,0.23564
4503.62029,0.23550
4501.69155,0.23561
4499.76280,0.23561
4497.83406,0.23518
4495.90531,0.23441
4493.97657,0.23395
4492.04782,0.23386
4490.11908,0.23350
4488.19033,0.23311
4486.26158,0.23294
4484.33284,0.23246
4482.40409,0.23175
4480.47535,0.23112
4478.54660,0.23032
4476.61786,0.22928
4474.68911,0.22806
4472.76037,0.22700
4470.83162,0.22648
4468.90288,0.22614
4466.97413,0.22540
4465.04539,0.22401
4463.11664,0.22232
4461.18790,0.22089
4459.25915,0.21992
4457.33041,0.21915
4455.40166,0.21810
4453.47291,0.21647
4451.54417,0.21454
4449.61542,0.21286
4447.68668,0.21158
4445.75793,0.21032
4443.82919,0.20876
4441.90044,0.20706
4439.97170,0.20531
4438.04295,0.20325
4436.11421,0.20091
4434.18546,0.19881
4432.25672,0.19719
4430.32797,0.19540
4428.39923,0.19290
4426.47048,0.19053
4424.54173,0.18876
4422.61299,0.18688
4420.68424,0.18467
4418.75550,0.18249
4416.82675,0.18041
4414.89801,0.17826
4412.96926,0.17604
4411.04052,0.17400
4409.11177,0.17227
4407.18303,0.17058
4405.25428,0.16861
4403.32554,0.16655
4401.39679,0.16506
4399.46805,0.16425
4397.53930,0.16341
4395.61056,0.16226
4393.68181,0.16140
4391.75306,0.16103
4389.82432,0.16082
4387.89557,0.16077
4385.96683,0.16088
4384.03808,0.16086
4382.10934,0.16063
4380.18059,0.16035
4378.25185,0.16020
4376.32310,0.16021
4374.39436,0.16039
4372.46561,0.16060
4370.53687,0.16045
4368.60812,0.15975
4366.67938,0.15907
4364.75063,0.15890
4362.82189,0.15876
4360.89314,0.15813
4358.96439,0.15725
4357.03565,0.15610
4355.10690,0.15452
4353.17816,0.15289
4351.24941,0.15156
4349.32067,0.15013
4347.39192,0.14831
4345.46318,0.14649
4343.53443,0.14495
4341.60569,0.14360
4339.67694,0.14260
4337.74820,0.14174
4335.81945,0.14052
4333.89071,0.13914
4331.96196,0.13817
4330.03321,0.13776
4328.10447,0.13776
4326.17572,0.13799
4324.24698,0.13855
4322.31823,0.13947
4320.38949,0.14049
4318.46074,0.14154
4316.53200,0.14283
4314.60325,0.14406
4312.67451,0.14491
4310.74576,0.14567
4308.81702,0.14653
4306.88827,0.14730
4304.95953,0.14799
4303.03078,0.14868
4301.10204,0.14917
4299.17329,0.14946
4297.24454,0.14986
4295.31580,0.15026
4293.38705,0.15040
4291.45831,0.15046
4289.52956,0.15054
4287.60082,0.15057
4285.67207,0.15051
4283.74333,0.15026
4281.81458,0.14973
4279.88584,0.14901
4277.95709,0.14833
4276.02835,0.14775
4274.09960,0.14710
4272.17086,0.14620
4270.24211,0.14499
4268.31336,0.14360
4266.38462,0.14263
4264.45587,0.14226
4262.52713,0.14199
4260.59838,0.14158
4258.66964,0.14112
4256.74089,0.14085
4254.81215,0.14079
4252.88340,0.14069
4250.95466,0.14089
4249.02591,0.14179
4247.09717,0.14291
4245.16842,0.14405
4243.23968,0.14543
4241.31093,0.14675
4239.38219,0.14776
4237.45344,0.14855
4235.52469,0.14919
4233.59595,0.14980
4231.66720,0.15053
4229.73846,0.15121
4227.80971,0.15167
4225.88097,0.15202
4223.95222,0.15206
4222.02348,0.15155
4220.09473,0.15102
4218.16599,0.15112
4216.23724,0.15180
4214.30850,0.15252
4212.37975,0.15279
4210.45101,0.15259
4208.52226,0.15227
4206.59352,0.15215
4204.66477,0.15229
4202.73602,0.15263
4200.80728,0.15296
4198.87853,0.15306
4196.94979,0.15312
4195.02104,0.15330
4193.09230,0.15339
4191.16355,0.15328
4189.23481,0.15317
4187.30606,0.15323
4185.37732,0.15349
4183.44857,0.15367
4181.51983,0.15366
4179.59108,0.15378
4177.66234,0.15401
4175.73359,0.15391
4173.80484,0.15361
4171.87610,0.15357
4169.94735,0.15387
4168.01861,0.15402
4166.08986,0.15391
4164.16112,0.15398
4162.23237,0.15411
4160.30363,0.15390
4158.37488,0.15369
4156.44614,0.15384
4154.51739,0.15418
4152.58865,0.15447
4150.65990,0.15446
4148.73116,0.15418
4146.80241,0.15410
4144.87367,0.15451
4142.94492,0.15523
4141.01617,0.15567
4139.08743,0.15537
4137.15868,0.15474
4135.22994,0.15455
4133.30119,0.15475
4131.37245,0.15469
4129.44370,0.15442
4127.51496,0.15437
4125.58621,0.15453
4123.65747,0.15465
4121.72872,0.15446
4119.79998,0.15395
4117.87123,0.15345
4115.94249,0.15317
4114.01374,0.15292
4112.08500,0.15252
4110.15625,0.15222
4108.22750,0.15222
4106.29876,0.15225
4104.37001,0.15216
4102.44127,0.15198
4100.51252,0.15167
4098.58378,0.15114
4096.65503,0.15049
4094.72629,0.14995
4092.79754,0.14953
4090.86880,0.14914
4088.94005,0.14871
4087.01131,0.14812
4085.08256,0.14742
4083.15382,0.14666
4081.22507,0.14589
4079.29632,0.14531
4077.36758,0.14472
4075.43883,0.14379
4073.51009,0.14281
4071.58134,0.14214
4069.65260,0.14168
4067.72385,0.14109
4065.79511,0.14015
4063.86636,0.13923
4061.93762,0.13877
4060.00887,0.13854
4058.08013,0.13821
4056.15138,0.13784
4054.22264,0.13758
4052.29389,0.13744
4050.36515,0.13724
4048.43640,0.13695
4046.50765,0.13674
4044.57891,0.13659
4042.65016,0.13631
4040.72142,0.13620
4038.79267,0.13642
4036.86393,0.13655
4034.93518,0.13619
4033.00644,0.13559
4031.07769,0.13531
4029.14895,0.13528
4027.22020,0.13518
4025.29146,0.13517
4023.36271,0.13558
4021.43397,0.13610
4019.50522,0.13613
4017.57648,0.13582
4015.64773,0.13571
4013.71898,0.13600
4011.79024,0.13648
4009.86149,0.13665
4007.93275,0.13638
4006.00400,0.13624
4004.07526,0.13660
4002.14651,0.13701
4000.21777,0.13711
3998.28902,0.13724
3996.36028,0.13769
3994.43153,0.13829
3992.50279,0.13890
3990.57404,0.13942
3988.64530,0.13960
3986.71655,0.13951
3984.78780,0.13974
3982.85906,0.14029
3980.93031,0.14058
3979.00157,0.14066
3977.07282,0.14088
3975.14408,0.14136
3973.21533,0.14186
3971.28659,0.14216
3969.35784,0.14260
3967.42910,0.14319
3965.50035,0.14335
3963.57161,0.14324
3961.64286,0.14342
3959.71412,0.14399
3957.78537,0.14470
3955.85663,0.14532
3953.92788,0.14590
3951.99913,0.14643
3950.07039,0.14670
3948.14164,0.14681
3946.21290,0.14698
3944.28415,0.14721
3942.35541,0.14759
3940.42666,0.14830
3938.49792,0.14919
3936.56917,0.14989
3934.64043,0.15018
3932.71168,0.15034
3930.78294,0.15070
3928.85419,0.15107
3926.92545,0.15117
3924.99670,0.15128
3923.06795,0.15179
3921.13921,0.15259
3919.21046,0.15335
3917.28172,0.15371
3915.35297,0.15375
3913.42423,0.15395
3911.49548,0.15440
3909.56674,0.15478
3907.63799,0.15491
3905.70925,0.15498
3903.78050,0.15543
3901.85176,0.15611
3899.92301,0.15640
3897.99427,0.15646
3896.06552,0.15684
3894.13678,0.15745
3892.20803,0.15779
3890.27928,0.15791
3888.35054,0.15828
3886.42179,0.15871
3884.49305,0.15896
3882.56430,0.15921
3880.63556,0.15951
3878.70681,0.15979
3876.77807,0.16014
3874.84932,0.16056
3872.92058,0.16101
3870.99183,0.16156
3869.06309,0.16234
3867.13434,0.16316
3865.20560,0.16368
3863.27685,0.16398
3861.34811,0.16438
3859.41936,0.16504
3857.49061,0.16580
3855.56187,0.16645
3853.63312,0.16701
3851.70438,0.16733
3849.77563,0.16724
3847.84689,0.16705
3845.91814,0.16708
3843.98940,0.16745
3842.06065,0.16827
3840.13191,0.16929
3838.20316,0.16989
3836.27442,0.17006
3834.34567,0.17012
3832.41693,0.16996
3830.48818,0.16977
3828.55943,0.16998
3826.63069,0.17041
3824.70194,0.17072
3822.77320,0.17085
3820.84445,0.17085
3818.91571,0.17092
3816.98696,0.17113
3815.05822,0.17134
3813.12947,0.17144
3811.20073,0.17142
3809.27198,0.17152
3807.34324,0.17182
3805.41449,0.17204
3803.48575,0.17203
3801.55700,0.17195
3799.62826,0.17219
3797.69951,0.17262
3795.77076,0.17273
3793.84202,0.17251
3791.91327,0.17228
3789.98453,0.17219
3788.05578,0.17226
3786.12704,0.17244
3784.19829,0.17267
3782.26955,0.17287
3780.34080,0.17280
3778.41206,0.17256
3776.48331,0.17255
3774.55457,0.17257
3772.62582,0.17225
3770.69708,0.17182
3768.76833,0.17160
3766.83959,0.17177
3764.91084,0.17223
3762.98209,0.17244
3761.05335,0.17228
3759.12460,0.17201
3757.19586,0.17167
3755.26711,0.17136
3753.33837,0.17124
3751.40962,0.17106
3749.48088,0.17049
3747.55213,0.16979
3745.62339,0.16933
3743.69464,0.16915
3741.76590,0.16884
3739.83715,0.16818
3737.90841,0.16747
3735.97966,0.16694
3734.05091,0.16646
3732.12217,0.16592
3730.19342,0.16521
3728.26468,0.16437
3726.33593,0.16357
3724.40719,0.16270
3722.47844,0.16157
3720.54970,0.16025
3718.62095,0.15879
3716.69221,0.15727
3714.76346,0.15573
3712.83472,0.15396
3710.90597,0.15180
3708.97723,0.14944
3707.04848,0.14699
3705.11974,0.14419
3703.19099,0.14070
3701.26224,0.13657
3699.33350,0.13261
3697.40475,0.12964
3695.47601,0.12791
3693.54726,0.12708
3691.61852,0.12655
3689.68977,0.12613
3687.76103,0.12598
3685.83228,0.12595
3683.90354,0.12564
3681.97479,0.12474
3680.04605,0.12317
3678.11730,0.12105
3676.18856,0.11843
3674.25981,0.11579
3672.33107,0.11346
3670.40232,0.11111
3668.47357,0.10890
3666.54483,0.10694
3664.61608,0.10497
3662.68734,0.10313
3660.75859,0.10148
3658.82985,0.09971
3656.90110,0.09758
3654.97236,0.09531
3653.04361,0.09332
3651.11487,0.09166
3649.18612,0.09028
3647.25738,0.08915
3645.32863,0.08795
3643.39989,0.08655
3641.47114,0.08516
3639.54239,0.08399
3637.61365,0.08299
3635.68490,0.08196
3633.75616,0.08100
3631.82741,0.08014
3629.89867,0.07900
3627.96992,0.07747
3626.04118,0.07601
3624.11243,0.07469
3622.18369,0.07349
3620.25494,0.07244
3618.32620,0.07159
3616.39745,0.07103
3614.46871,0.07049
3612.53996,0.06984
3610.61122,0.06923
3608.68247,0.06863
3606.75372,0.06813
3604.82498,0.06774
3602.89623,0.06715
3600.96749,0.06631
3599.03874,0.06554
3597.11000,0.06491
3595.18125,0.06434
3593.25251,0.06382
3591.32376,0.06329
3589.39502,0.06260
3587.46627,0.06177
3585.53753,0.06117
3583.60878,0.06101
3581.68004,0.06094
3579.75129,0.06046
3577.82254,0.05956
3575.89380,0.05877
3573.96505,0.05842
3572.03631,0.05814
3570.10756,0.05753
3568.17882,0.05675
3566.25007,0.05622
3564.32133,0.05599
3562.39258,0.05586
3560.46384,0.05574
3558.53509,0.05550
3556.60635,0.05503
3554.67760,0.05463
3552.74886,0.05444
3550.82011,0.05420
3548.89137,0.05391
3546.96262,0.05367
3545.03387,0.05344
3543.10513,0.05310
3541.17638,0.05271
3539.24764,0.05235
3537.31889,0.05199
3535.39015,0.05174
3533.46140,0.05183
3531.53266,0.05201
3529.60391,0.05184
3527.67517,0.05145
3525.74642,0.05117
3523.81768,0.05094
3521.88893,0.05067
3519.96019,0.05039
3518.03144,0.05003
3516.10270,0.04973
3514.17395,0.04959
3512.24520,0.04939
3510.31646,0.04925
3508.38771,0.04927
3506.45897,0.04910
3504.53022,0.04873
3502.60148,0.04860
3500.67273,0.04880
3498.74399,0.04896
3496.81524,0.04878
3494.88650,0.04843
3492.95775,0.04810
3491.02901,0.04800
3489.10026,0.04805
3487.17152,0.04779
3485.24277,0.04723
3483.31402,0.04684
3481.38528,0.04676
3479.45653,0.04680
3477.52779,0.04681
3475.59904,0.04686
3473.67030,0.04687
3471.74155,0.04675
3469.81281,0.04666
3467.88406,0.04670
3465.95532,0.04671
3464.02657,0.04662
3462.09783,0.04642
3460.16908,0.04603
3458.24034,0.04559
3456.31159,0.04544
3454.38285,0.04578
3452.45410,0.04622
3450.52535,0.04614
3448.59661,0.04561
3446.66786,0.04520
3444.73912,0.04518
3442.81037,0.04532
3440.88163,0.04532
3438.95288,0.04523
3437.02414,0.04511
3435.09539,0.04489
3433.16665,0.04458
3431.23790,0.04437
3429.30916,0.04442
3427.38041,0.04441
3425.45167,0.04411
3423.52292,0.04409
3421.59418,0.04443
3419.66543,0.04458
3417.73668,0.04447
3415.80794,0.04436
3413.87919,0.04431
3411.95045,0.04433
3410.02170,0.04420
3408.09296,0.04398
3406.16421,0.04398
3404.23547,0.04409
3402.30672,0.04397
3400.37798,0.04372
3398.44923,0.04376
3396.52049,0.04427
3394.59174,0.04474
3392.66300,0.04464
3390.73425,0.04440
3388.80550,0.04464
3386.87676,0.04493
3384.94801,0.04473
3383.01927,0.04445
3381.09052,0.04441
3379.16178,0.04441
3377.23303,0.04438
3375.30429,0.04436
3373.37554,0.04444
3371.44680,0.04450
3369.51805,0.04420
3367.58931,0.04374
3365.66056,0.04364
3363.73182,0.04363
3361.80307,0.04350
3359.87433,0.04370
3357.94558,0.04418
3356.01683,0.04426
3354.08809,0.04378
3352.15934,0.04340
3350.23060,0.04356
3348.30185,0.04401
3346.37311,0.04432
3344.44436,0.04428
3342.51562,0.04419
3340.58687,0.04434
3338.65813,0.04451
3336.72938,0.04437
3334.80064,0.04419
3332.87189,0.04433
3330.94315,0.04462
3329.01440,0.04487
3327.08566,0.04515
3325.15691,0.04538
3323.22816,0.04548
3321.29942,0.04547
3319.37067,0.04549
3317.44193,0.04537
3315.51318,0.04511
3313.58444,0.04510
3311.65569,0.04526
3309.72695,0.04531
3307.79820,0.04529
3305.86946,0.04526
3303.94071,0.04528
3302.01197,0.04536
3300.08322,0.04555
3298.15448,0.04578
3296.22573,0.04569
3294.29698,0.04535
3292.36824,0.04543
3290.43949,0.04603
3288.51075,0.04655
3286.58200,0.04672
3284.65326,0.04672
3282.72451,0.04666
3280.79577,0.04670
3278.86702,0.04685
3276.93828,0.04707
3275.00953,0.04721
3273.08079,0.04711
3271.15204,0.04714
3269.22330,0.04755
3267.29455,0.04788
3265.36581,0.04782
3263.43706,0.04778
3261.50831,0.04817
3259.57957,0.04859
3257.65082,0.04867
3255.72208,0.04871
3253.79333,0.04872
3251.86459,0.04859
3249.93584,0.04860
3248.00710,0.04892
3246.07835,0.04923
3244.14961,0.04921
3242.22086,0.04897
3240.29212,0.04881
3238.36337,0.04891
3236.43463,0.04907
3234.50588,0.04920
3232.57713,0.04944
3230.64839,0.04965
3228.71964,0.04984
3226.79090,0.05009
3224.86215,0.05034
3222.93341,0.05059
3221.00466,0.05068
3219.07592,0.05056
3217.14717,0.05067
3215.21843,0.05112
3213.28968,0.05140
3211.36094,0.05137
3209.43219,0.05160
3207.50345,0.05206
3205.57470,0.05214
3203.64596,0.05223
3201.71721,0.05272
3199.78846,0.05307
3197.85972,0.05297
3195.93097,0.05271
3194.00223,0.05264
3192.07348,0.05264
3190.14474,0.05258
3188.21599,0.05269
3186.28725,0.05310
3184.35850,0.05358
3182.42976,0.05382
3180.50101,0.05381
3178.57227,0.05391
3176.64352,0.05420
3174.71478,0.05438
3172.78603,0.05454
3170.85729,0.05481
3168.92854,0.05501
3166.99979,0.05496
3165.07105,0.05480
3163.14230,0.05474
3161.21356,0.05499
3159.28481,0.05538
3157.35607,0.05554
3155.42732,0.05556
3153.49858,0.05571
3151.56983,0.05596
3149.64109,0.05627
3147.71234,0.05659
3145.78360,0.05672
3143.85485,0.05684
3141.92611,0.05718
3139.99736,0.05756
3138.06861,0.05776
3136.13987,0.05786
3134.21112,0.05795
3132.28238,0.05789
3130.35363,0.05763
3128.42489,0.05748
3126.49614,0.05769
3124.56740,0.05806
3122.63865,0.05835
3120.70991,0.05855
3118.78116,0.05858
3116.85242,0.05843
3114.92367,0.05827
3112.99493,0.05821
3111.06618,0.05815
3109.13744,0.05830
3107.20869,0.05880
3105.27994,0.05914
3103.35120,0.05904
3101.42245,0.05897
3099.49371,0.05907
3097.56496,0.05919
3095.63622,0.05946
3093.70747,0.05989
3091.77873,0.06025
3089.84998,0.06039
3087.92124,0.06035
3085.99249,0.06024
3084.06375,0.06017
3082.13500,0.06008
3080.20626,0.05992
3078.27751,0.05985
3076.34877,0.05992
3074.42002,0.06002
3072.49127,0.06020
3070.56253,0.06056
3068.63378,0.06083
3066.70504,0.06068
3064.77629,0.06046
3062.84755,0.06057
3060.91880,0.06082
3058.99006,0.06106
3057.06131,0.06124
3055.13257,0.06114
3053.20382,0.06082
3051.27508,0.06056
3049.34633,0.06062
3047.41759,0.06098
3045.48884,0.06130
3043.56009,0.06141
3041.63135,0.06149
3039.70260,0.06155
3037.77386,0.06144
3035.84511,0.06116
3033.91637,0.06088
3031.98762,0.06084
3030.05888,0.06098
3028.13013,0.06109
3026.20139,0.06108
3024.27264,0.06099
3022.34390,0.06086
3020.41515,0.06071
3018.48641,0.06055
3016.55766,0.06038
3014.62892,0.05999
3012.70017,0.05948
3010.77142,0.05929
3008.84268,0.05943
3006.91393,0.05949
3004.98519,0.05919
3003.05644,0.05861
3001.12770,0.05817
2999.19895,0.05806
2997.27021,0.05790
2995.34146,0.05736
2993.41272,0.05669
2991.48397,0.05629
2989.55523,0.05599
2987.62648,0.05538
2985.69774,0.05441
2983.76899,0.05348
2981.84025,0.05285
2979.91150,0.05211
2977.98275,0.05107
2976.05401,0.05024
2974.12526,0.04977
2972.19652,0.04927
2970.26777,0.04861
2968.33903,0.04805
2966.41028,0.04764
2964.48154,0.04742
2962.55279,0.04763
2960.62405,0.04798
2958.69530,0.04807
2956.76656,0.04805
2954.83781,0.04809
2952.90907,0.04817
2950.98032,0.04828
2949.05157,0.04835
2947.12283,0.04824
2945.19408,0.04792
2943.26534,0.04759
2941.33659,0.04732
2939.40785,0.04708
2937.47910,0.04708
2935.55036,0.04747
2933.62161,0.04811
2931.69287,0.04887
2929.76412,0.04969
2927.83538,0.05033
2925.90663,0.05082
2923.97789,0.05147
2922.04914,0.05229
2920.12040,0.05310
2918.19165,0.05370
2916.26290,0.05399
2914.33416,0.05405
2912.40541,0.05402
2910.47667,0.05383
2908.54792,0.05348
2906.61918,0.05322
2904.69043,0.05311
2902.76169,0.05297
2900.83294,0.05277
2898.90420,0.05259
2896.97545,0.05242
2895.04671,0.05226
2893.11796,0.05216
2891.18922,0.05224
2889.26047,0.05244
2887.33172,0.05254
2885.40298,0.05260
2883.47423,0.05255
2881.54549,0.05218
2879.61674,0.05180
2877.68800,0.05167
2875.75925,0.05165
2873.83051,0.05174
2871.90176,0.05192
2869.97302,0.05208
2868.04427,0.05235
2866.11553,0.05269
2864.18678,0.05275
2862.25804,0.05260
2860.32929,0.05268
2858.40055,0.05306
2856.47180,0.05352
2854.54305,0.05405
2852.61431,0.05474
2850.68556,0.05550
2848.75682,0.05617
2846.82807,0.05663
2844.89933,0.05692
2842.97058,0.05738
2841.04184,0.05803
2839.11309,0.05858
2837.18435,0.05904
2835.25560,0.05956
2833.32686,0.06011
2831.39811,0.06067
2829.46937,0.06119
2827.54062,0.06165
2825.61188,0.06209
2823.68313,0.06256
2821.75438,0.06311
2819.82564,0.06370
2817.89689,0.06409
2815.96815,0.06437
2814.03940,0.06482
2812.11066,0.06535
2810.18191,0.06580
2808.25317,0.06620
2806.32442,0.06663
2804.39568,0.06718
2802.46693,0.06775
2800.53819,0.06816
2798.60944,0.06845
2796.68070,0.06877
2794.75195,0.06904
2792.82320,0.06922
2790.89446,0.06942
2788.96571,0.06955
2787.03697,0.06969
2785.10822,0.06996
2783.17948,0.07023
2781.25073,0.07048
2779.32199,0.07065
2777.39324,0.07073
2775.46450,0.07089
2773.53575,0.07114
2771.60701,0.07130
2769.67826,0.07140
2767.74952,0.07146
2765.82077,0.07150
2763.89203,0.07165
2761.96328,0.07189
2760.03453,0.07211
2758.10579,0.07224
2756.17704,0.07221
2754.24830,0.07216
2752.31955,0.07221
2750.39081,0.07228
2748.46206,0.07223
2746.53332,0.07210
2744.60457,0.07196
2742.67583,0.07184
2740.74708,0.07175
2738.81834,0.07183
2736.88959,0.07201
2734.96085,0.07199
2733.03210,0.07174
2731.10336,0.07155
2729.17461,0.07163
2727.24586,0.07199
2725.31712,0.07236
2723.38837,0.07261
2721.45963,0.07284
2719.53088,0.07320
2717.60214,0.07347
2715.67339,0.07354
2713.74465,0.07375
2711.81590,0.07416
2709.88716,0.07446
2707.95841,0.07459
2706.02967,0.07472
2704.10092,0.07501
2702.17218,0.07544
2700.24343,0.07586
2698.31468,0.07614
2696.38594,0.07620
2694.45719,0.07622
2692.52845,0.07640
2690.59970,0.07662
2688.67096,0.07670
2686.74221,0.07671
2684.81347,0.07684
2682.88472,0.07712
2680.95598,0.07746
2679.02723,0.07786
2677.09849,0.07834
2675.16974,0.07868
2673.24100,0.07865
2671.31225,0.07857
2669.38351,0.07880
2667.45476,0.07922
2665.52601,0.07950
2663.59727,0.07963
2661.66852,0.07982
2659.73978,0.08004
2657.81103,0.08010
2655.88229,0.08011
2653.95354,0.08032
2652.02480,0.08063
2650.09605,0.08083
2648.16731,0.08109
2646.23856,0.08159
2644.30982,0.08198
2642.38107,0.08209
2640.45233,0.08223
2638.52358,0.08245
2636.59484,0.08255
2634.66609,0.08268
2632.73734,0.08297
2630.80860,0.08327
2628.87985,0.08356
2626.95111,0.08385
2625.02236,0.08412
2623.09362,0.08435
2621.16487,0.08451
2619.23613,0.08469
2617.30738,0.08496
2615.37864,0.08525
2613.44989,0.08548
2611.52115,0.08564
2609.59240,0.08577
2607.66366,0.08592
2605.73491,0.08618
2603.80616,0.08653
2601.87742,0.08682
2599.94867,0.08699
2598.01993,0.08721
2596.09118,0.08749
2594.16244,0.08763
2592.23369,0.08767
2590.30495,0.08782
2588.37620,0.08809
2586.44746,0.08840
2584.51871,0.08870
2582.58997,0.08888
2580.66122,0.08903
2578.73248,0.08934
2576.80373,0.08967
2574.87499,0.08988
2572.94624,0.09000
2571.01749,0.09013
2569.08875,0.09031
2567.16000,0.09051
2565.23126,0.09076
2563.30251,0.09109
2561.37377,0.09133
2559.44502,0.09141
2557.51628,0.09141
2555.58753,0.09142
2553.65879,0.09143
2551.73004,0.09150
2549.80130,0.09156
2547.87255,0.09158
2545.94381,0.09159
2544.01506,0.09165
2542.08631,0.09166
2540.15757,0.09154
2538.22882,0.09152
2536.30008,0.09179
2534.37133,0.09220
2532.44259,0.09241
2530.51384,0.09240
2528.58510,0.09247
2526.65635,0.09275
2524.72761,0.09310
2522.79886,0.09334
2520.87012,0.09346
2518.94137,0.09366
2517.01263,0.09396
2515.08388,0.09412
2513.15514,0.09416
2511.22639,0.09435
2509.29764,0.09478
2507.36890,0.09534
2505.44015,0.09594
2503.51141,0.09646
2501.58266,0.09682
2499.65392,0.09717
2497.72517,0.09767
2495.79643,0.09827
2493.86768,0.09869
2491.93894,0.09889
2490.01019,0.09922
2488.08145,0.09982
2486.15270,0.10032
2484.22396,0.10049
2482.29521,0.10059
2480.36647,0.10084
2478.43772,0.10118
2476.50897,0.10149
2474.58023,0.10188
2472.65148,0.10238
2470.72274,0.10283
2468.79399,0.10313
2466.86525,0.10325
2464.93650,0.10342
2463.00776,0.10375
2461.07901,0.10410
2459.15027,0.10438
2457.22152,0.10468
2455.29278,0.10502
2453.36403,0.10529
2451.43529,0.10561
2449.50654,0.10609
2447.57779,0.10640
2445.64905,0.10640
2443.72030,0.10644
2441.79156,0.10663
2439.86281,0.10694
2437.93407,0.10740
2436.00532,0.10799
2434.07658,0.10861
2432.14783,0.10915
2430.21909,0.10955
2428.29034,0.10986
2426.36160,0.11020
2424.43285,0.11051
2422.50411,0.11079
2420.57536,0.11113
2418.64662,0.11142
2416.71787,0.11169
2414.78912,0.11204
2412.86038,0.11232
2410.93163,0.11249
2409.00289,0.11279
2407.07414,0.11329
2405.14540,0.11377
2403.21665,0.11404
2401.28791,0.11422
2399.35916,0.11467
2397.43042,0.11530
2395.50167,0.11569
2393.57293,0.11581
2391.64418,0.11594
2389.71544,0.11631
2387.78669,0.11681
2385.85795,0.11718
2383.92920,0.11738
2382.00045,0.11763
2380.07171,0.11799
2378.14296,0.11834
2376.21422,0.11866
2374.28547,0.11896
2372.35673,0.11928
2370.42798,0.11965
2368.49924,0.11999
2366.57049,0.12019
2364.64175,0.12034
2362.71300,0.12058
2360.78426,0.12090
2358.85551,0.12115
2356.92677,0.12138
2354.99802,0.12170
2353.06927,0.12209
2351.14053,0.12242
2349.21178,0.12260
2347.28304,0.12279
2345.35429,0.12318
2343.42555,0.12351
2341.49680,0.12352
2339.56806,0.12340
2337.63931,0.12346
2335.71057,0.12371
2333.78182,0.12407
2331.85308,0.12443
2329.92433,0.12458
2327.99559,0.12463
2326.06684,0.12482
2324.13810,0.12503
2322.20935,0.12508
2320.28060,0.12509
2318.35186,0.12516
2316.42311,0.12533
2314.49437,0.12562
2312.56562,0.12590
2310.63688,0.12604
2308.70813,0.12608
2306.77939,0.12600
2304.85064,0.12578
2302.92190,0.12557
2300.99315,0.12548
2299.06441,0.12557
2297.13566,0.12582
2295.20692,0.12601
2293.27817,0.12600
2291.34943,0.12594
2289.42068,0.12594
2287.49193,0.12601
2285.56319,0.12613
2283.63444,0.12629
2281.70570,0.12647
2279.77695,0.12650
2277.84821,0.12627
2275.91946,0.12595
2273.99072,0.12571
2272.06197,0.12558
2270.13323,0.12548
2268.20448,0.12529
2266.27574,0.12500
2264.34699,0.12474
2262.41825,0.12453
2260.48950,0.12431
2258.56075,0.12406
2256.63201,0.12379
2254.70326,0.12342
2252.77452,0.12306
2250.84577,0.12297
2248.91703,0.12311
2246.98828,0.12325
2245.05954,0.12327
2243.13079,0.12324
2241.20205,0.12328
2239.27330,0.12329
2237.34456,0.12317
2235.41581,0.12306
2233.48707,0.12306
2231.55832,0.12308
2229.62958,0.12304
2227.70083,0.12306
2225.77208,0.12317
2223.84334,0.12333
2221.91459,0.12354
2219.98585,0.12377
2218.05710,0.12401
2216.12836,0.12421
2214.19961,0.12431
2212.27087,0.12433
2210.34212,0.12433
2208.41338,0.12438
2206.48463,0.12445
2204.55589,0.12444
2202.62714,0.12433
2200.69840,0.12423
2198.76965,0.12410
2196.84090,0.12380
2194.91216,0.12340
2192.98341,0.12294
2191.05467,0.12240
2189.12592,0.12181
2187.19718,0.12136
2185.26843,0.12107
2183.33969,0.12083
2181.41094,0.12052
2179.48220,0.12005
2177.55345,0.11947
2175.62471,0.11892
2173.69596,0.11839
2171.76722,0.11779
2169.83847,0.11726
2167.90973,0.11685
2165.98098,0.11647
2164.05223,0.11608
2162.12349,0.11570
2160.19474,0.11528
2158.26600,0.11483
2156.33725,0.11446
2154.40851,0.11427
2152.47976,0.11415
2150.55102,0.11392
2148.62227,0.11355
2146.69353,0.11337
2144.76478,0.11343
2142.83604,0.11346
2140.90729,0.11333
2138.97855,0.11321
2137.04980,0.11318
2135.12106,0.11328
2133.19231,0.11354
2131.26356,0.11382
2129.33482,0.11397
2127.40607,0.11409
2125.47733,0.11427
2123.54858,0.11441
2121.61984,0.11450
2119.69109,0.11473
2117.76235,0.11516
2115.83360,0.11567
2113.90486,0.11607
2111.97611,0.11636
2110.04737,0.11671
2108.11862,0.11711
2106.18988,0.11734
2104.26113,0.11748
2102.33238,0.11774
2100.40364,0.11804
2098.47489,0.11829
2096.54615,0.11858
2094.61740,0.11892
2092.68866,0.11913
2090.75991,0.11928
2088.83117,0.11949
2086.90242,0.11963
2084.97368,0.11964
2083.04493,0.11969
2081.11619,0.11981
2079.18744,0.11986
2077.25870,0.11977
2075.32995,0.11961
2073.40121,0.11949
2071.47246,0.11937
2069.54371,0.11920
2067.61497,0.11904
2065.68622,0.11890
2063.75748,0.11877
2061.82873,0.11872
2059.89999,0.11880
2057.97124,0.11908
2056.04250,0.11942
2054.11375,0.11956
2052.18501,0.11952
2050.25626,0.11952
2048.32752,0.11959
2046.39877,0.11967
2044.47003,0.11969
2042.54128,0.11979
2040.61254,0.12020
2038.68379,0.12069
2036.75504,0.12106
2034.82630,0.12156
2032.89755,0.12230
2030.96881,0.12292
2029.04006,0.12336
2027.11132,0.12389
2025.18257,0.12445
2023.25383,0.12495
2021.32508,0.12561
2019.39634,0.12641
2017.46759,0.12718
2015.53885,0.12793
2013.61010,0.12869
2011.68136,0.12945
2009.75261,0.13014
2007.82386,0.13074
2005.89512,0.13128
2003.96637,0.13177
2002.03763,0.13227
2000.10888,0.13274
1998.18014,0.13309
1996.25139,0.13341
1994.32265,0.13383
1992.39390,0.13423
1990.46516,0.13458
1988.53641,0.13492
1986.60767,0.13524
1984.67892,0.13561
1982.75018,0.13602
1980.82143,0.13637
1978.89269,0.13659
1976.96394,0.13670
1975.03519,0.13682
1973.10645,0.13691
1971.17770,0.13684
1969.24896,0.13690
1967.32021,0.13715
1965.39147,0.13727
1963.46272,0.13726
1961.53398,0.13725
1959.60523,0.13724
1957.67649,0.13737
1955.74774,0.13763
1953.81900,0.13781
1951.89025,0.13795
1949.96151,0.13815
1948.03276,0.13828
1946.10402,0.13826
1944.17527,0.13820
1942.24652,0.13828
1940.31778,0.13847
1938.38903,0.13861
1936.46029,0.13884
1934.53154,0.13914
1932.60280,0.13937
1930.67405,0.13966
1928.74531,0.14004
1926.81656,0.14016
1924.88782,0.13993
1922.95907,0.13964
1921.03033,0.13944
1919.10158,0.13922
1917.17284,0.13892
1915.24409,0.13855
1913.31534,0.13819
1911.38660,0.13794
1909.45785,0.13790
1907.52911,0.13805
1905.60036,0.13816
1903.67162,0.13817
1901.74287,0.13827
1899.81413,0.13844
1897.88538,0.13847
1895.95664,0.13843
1894.02789,0.13849
1892.09915,0.13865
1890.17040,0.13871
1888.24166,0.13856
1886.31291,0.13836
1884.38417,0.13840
1882.45542,0.13858
1880.52667,0.13866
1878.59793,0.13862
1876.66918,0.13857
1874.74044,0.13856
1872.81169,0.13850
1870.88295,0.13835
1868.95420,0.13819
1867.02546,0.13803
1865.09671,0.13793
1863.16797,0.13787
1861.23922,0.13775
1859.31048,0.13751
1857.38173,0.13722
1855.45299,0.13704
1853.52424,0.13695
1851.59549,0.13673
1849.66675,0.13638
1847.73800,0.13602
1845.80926,0.13575
1843.88051,0.13549
1841.95177,0.13504
1840.02302,0.13451
1838.09428,0.13419
1836.16553,0.13401
1834.23679,0.13366
1832.30804,0.13319
1830.37930,0.13277
1828.45055,0.13239
1826.52181,0.13203
1824.59306,0.13164
1822.66432,0.13118
1820.73557,0.13055
1818.80682,0.12973
1816.87808,0.12888
1814.94933,0.12817
1813.02059,0.12750
1811.09184,0.12657
1809.16310,0.12539
1807.23435,0.12416
1805.30561,0.12276
1803.37686,0.12109
1801.44812,0.11940
1799.51937,0.11790
1797.59063,0.11654
1795.66188,0.11525
1793.73314,0.11402
1791.80439,0.11295
1789.87565,0.11206
1787.94690,0.11110
1786.01815,0.10992
1784.08941,0.10852
1782.16066,0.10696
1780.23192,0.10520
1778.30317,0.10329
1776.37443,0.10128
1774.44568,0.09907
1772.51694,0.09645
1770.58819,0.09358
1768.65945,0.09069
1766.73070,0.08783
1764.80196,0.08519
1762.87321,0.08264
1760.94447,0.08002
1759.01572,0.07769
1757.08697,0.07579
1755.15823,0.07417
1753.22948,0.07264
1751.30074,0.07110
1749.37199,0.06979
1747.44325,0.06888
1745.51450,0.06812
1743.58576,0.06727
1741.65701,0.06642
1739.72827,0.06572
1737.79952,0.06530
1735.87078,0.06527
1733.94203,0.06536
1732.01329,0.06531
1730.08454,0.06531
1728.15580,0.06545
1726.22705,0.06555
1724.29830,0.06558
1722.36956,0.06576
1720.44081,0.06608
1718.51207,0.06627
1716.58332,0.06622
1714.65458,0.06616
1712.72583,0.06619
1710.79709,0.06615
1708.86834,0.06592
1706.93960,0.06559
1705.01085,0.06536
1703.08211,0.06521
1701.15336,0.06489
1699.22462,0.06432
1697.29587,0.06381
1695.36713,0.06354
1693.43838,0.06343
1691.50963,0.06324
1689.58089,0.06280
1687.65214,0.06231
1685.72340,0.06179
1683.79465,0.06099
1681.86591,0.06022
1679.93716,0.05980
1678.00842,0.05960
1676.07967,0.05930
1674.15093,0.05882
1672.22218,0.05838
1670.29344,0.05791
1668.36469,0.05726
1666.43595,0.05679
1664.50720,0.05666
1662.57845,0.05656
1660.64971,0.05628
1658.72096,0.05588
1656.79222,0.05559
1654.86347,0.05545
1652.93473,0.05513
1651.00598,0.05473
1649.07724,0.05475
1647.14849,0.05506
1645.21975,0.05519
1643.29100,0.05503
1641.36226,0.05495
1639.43351,0.05492
1637.50477,0.05473
1635.57602,0.05441
1633.64728,0.05416
1631.71853,0.05397
1629.78978,0.05374
1627.86104,0.05333
1625.93229,0.05285
1624.00355,0.05264
1622.07480,0.05267
1620.14606,0.05266
1618.21731,0.05247
1616.28857,0.05194
1614.35982,0.05127
1612.43108,0.05089
1610.50233,0.05076
1608.57359,0.05054
1606.64484,0.05025
1604.71610,0.05021
1602.78735,0.05033
1600.85861,0.05033
1598.92986,0.05024
1597.00111,0.05017
1595.07237,0.05003
1593.14362,0.04991
1591.21488,0.05013
1589.28613,0.05068
1587.35739,0.05125
1585.42864,0.05169
1583.49990,0.05198
1581.57115,0.05221
1579.64241,0.05254
1577.71366,0.05297
1575.78492,0.05343
1573.85617,0.05395
1571.92743,0.05440
1569.99868,0.05463
1568.06993,0.05475
1566.14119,0.05502
1564.21244,0.05546
1562.28370,0.05587
1560.35495,0.05607
1558.42621,0.05605
1556.49746,0.05616
1554.56872,0.05647
1552.63997,0.05680
1550.71123,0.05719
1548.78248,0.05771
1546.85374,0.05828
1544.92499,0.05880
1542.99625,0.05925
1541.06750,0.05957
1539.13876,0.05979
1537.21001,0.06006
1535.28126,0.06033
1533.35252,0.06040
1531.42377,0.06019
1529.49503,0.05981
1527.56628,0.05930
1525.63754,0.05857
1523.70879,0.05762
1521.78005,0.05640
1519.85130,0.05509
1517.92256,0.05404
1515.99381,0.05319
1514.06507,0.05254
1512.13632,0.05214
1510.20758,0.05189
1508.27883,0.05163
1506.35008,0.05147
1504.42134,0.05155
1502.49259,0.05174
1500.56385,0.05208
1498.63510,0.05258
1496.70636,0.05301
1494.77761,0.05327
1492.84887,0.05345
1490.92012,0.05342
1488.99138,0.05308
1487.06263,0.05259
1485.13389,0.05201
1483.20514,0.05132
1481.27640,0.05065
1479.34765,0.05003
1477.41891,0.04923
1475.49016,0.04813
1473.56141,0.04688
1471.63267,0.04571
1469.70392,0.04490
1467.77518,0.04452
1465.84643,0.04443
1463.91769,0.04451
1461.98894,0.04471
1460.06020,0.04497
1458.13145,0.04528
1456.20271,0.04571
1454.27396,0.04607
1452.34522,0.04626
1450.41647,0.04644
1448.48773,0.04674
1446.55898,0.04706
1444.63024,0.04710
1442.70149,0.04677
1440.77274,0.04646
1438.84400,0.04658
1436.91525,0.04684
1434.98651,0.04672
1433.05776,0.04643
1431.12902,0.04622
1429.20027,0.04607
1427.27153,0.04605
1425.34278,0.04630
1423.41404,0.04680
1421.48529,0.04738
1419.55655,0.04789
1417.62780,0.04821
1415.69906,0.04846
1413.77031,0.04875
1411.84156,0.04901
1409.91282,0.04913
1407.98407,0.04915
1406.05533,0.04918
1404.12658,0.04924
1402.19784,0.04934
1400.26909,0.04936
1398.34035,0.04908
1396.41160,0.04870
1394.48286,0.04846
1392.55411,0.04820
1390.62537,0.04776
1388.69662,0.04714
1386.76788,0.04640
1384.83913,0.04572
1382.91039,0.04514
1380.98164,0.04461
1379.05289,0.04424
1377.12415,0.04428
1375.19540,0.04460
1373.26666,0.04480
1371.33791,0.04485
1369.40917,0.04501
1367.48042,0.04527
1365.55168,0.04545
1363.62293,0.04552
1361.69419,0.04566
1359.76544,0.04582
1357.83670,0.04580
1355.90795,0.04565
1353.97921,0.04572
1352.05046,0.04607
1350.12172,0.04633
1348.19297,0.04629
1346.26422,0.04615
1344.33548,0.04606
1342.40673,0.04591
1340.47799,0.04565
1338.54924,0.04530
1336.62050,0.04501
1334.69175,0.04488
1332.76301,0.04494
1330.83426,0.04508
1328.90552,0.04518
1326.97677,0.04524
1325.04803,0.04524
1323.11928,0.04510
1321.19054,0.04496
1319.26179,0.04486
1317.33304,0.04477
1315.40430,0.04487
1313.47555,0.04530
1311.54681,0.04582
1309.61806,0.04624
1307.68932,0.04663
1305.76057,0.04706
1303.83183,0.04738
1301.90308,0.04748
1299.97434,0.04744
1298.04559,0.04741
1296.11685,0.04751
1294.18810,0.04759
1292.25936,0.04745
1290.33061,0.04722
1288.40187,0.04696
1286.47312,0.04659
1284.54437,0.04619
1282.61563,0.04588
1280.68688,0.04566
1278.75814,0.04560
1276.82939,0.04566
1274.90065,0.04576
1272.97190,0.04580
1271.04316,0.04582
1269.11441,0.04590
1267.18567,0.04600
1265.25692,0.04600
1263.32818,0.04605
1261.39943,0.04621
1259.47069,0.04636
1257.54194,0.04646
1255.61320,0.04652
1253.68445,0.04642
1251.75570,0.04615
1249.82696,0.04585
1247.89821,0.04557
1245.96947,0.04533
1244.04072,0.04527
1242.11198,0.04544
1240.18323,0.04558
1238.25449,0.04559
1236.32574,0.04575
1234.39700,0.04608
1232.46825,0.04627
1230.53951,0.04625
1228.61076,0.04636
1226.68202,0.04678
1224.75327,0.04728
1222.82452,0.04751
1220.89578,0.04745
1218.96703,0.04744
1217.03829,0.04767
1215.10954,0.04790
1213.18080,0.04785
1211.25205,0.04769
1209.32331,0.04753
1207.39456,0.04734
1205.46582,0.04721
1203.53707,0.04730
1201.60833,0.04757
1199.67958,0.04794
1197.75084,0.04831
1195.82209,0.04857
1193.89335,0.04868
1191.96460,0.04879
1190.03585,0.04902
1188.10711,0.04919
1186.17836,0.04911
1184.24962,0.04880
1182.32087,0.04824
1180.39213,0.04763
1178.46338,0.04708
1176.53464,0.04647
1174.60589,0.04585
1172.67715,0.04514
1170.74840,0.04430
1168.81966,0.04357
1166.89091,0.04317
1164.96217,0.04314
1163.03342,0.04327
1161.10467,0.04326
1159.17593,0.04312
1157.24718,0.04292
1155.31844,0.04271
1153.38969,0.04244
1151.46095,0.04206
1149.53220,0.04158
1147.60346,0.04109
1145.67471,0.04069
1143.74597,0.04029
1141.81722,0.03987
1139.88848,0.03955
1137.95973,0.03919
1136.03099,0.03863
1134.10224,0.03795
1132.17350,0.03736
1130.24475,0.03698
1128.31600,0.03674
1126.38726,0.03653
1124.45851,0.03644
1122.52977,0.03652
1120.60102,0.03666
1118.67228,0.03675
1116.74353,0.03694
1114.81479,0.03747
1112.88604,0.03827
1110.95730,0.03912
1109.02855,0.03972
1107.09981,0.03986
1105.17106,0.03984
1103.24232,0.03989
1101.31357,0.03985
1099.38483,0.03952
1097.45608,0.03923
1095.52733,0.03940
1093.59859,0.03960
1091.66984,0.03953
1089.74110,0.03930
1087.81235,0.03909
1085.88361,0.03909
1083.95486,0.03927
1082.02612,0.03958
1080.09737,0.04006
1078.16863,0.04061
1076.23988,0.04126
1074.31114,0.04231
1072.38239,0.04376
1070.45365,0.04544
1068.52490,0.04735
1066.59615,0.04975
1064.66741,0.05284
1062.73866,0.05611
1060.80992,0.05857
1058.88117,0.05992
1056.95243,0.06030
1055.02368,0.06011
1053.09494,0.06001
1051.16619,0.05995
1049.23745,0.05936
1047.30870,0.05847
1045.37996,0.05786
1043.45121,0.05760
1041.52247,0.05795
1039.59372,0.05937
1037.66498,0.06147
1035.73623,0.06354
1033.80748,0.06517
1031.87874,0.06625
1029.94999,0.06673
1028.02125,0.06677
1026.09250,0.06676
1024.16376,0.06672
1022.23501,0.06637
1020.30627,0.06583
1018.37752,0.06557
1016.44878,0.06574
1014.52003,0.06604
1012.59129,0.06618
1010.66254,0.06603
1008.73380,0.06592
1006.80505,0.06612
1004.87631,0.06621
1002.94756,0.06588
1001.01881,0.06570
999.09007,0.06603
997.16132,0.06649
995.23258,0.06680
993.30383,0.06700
991.37509,0.06712
989.44634,0.06736
987.51760,0.06804
985.58885,0.06900
983.66011,0.06977
981.73136,0.07026
979.80262,0.07065
977.87387,0.07107
975.94513,0.07156
974.01638,0.07192
972.08763,0.07203
970.15889,0.07214
968.23014,0.07245
966.30140,0.07296
964.37265,0.07367
962.44391,0.07441
960.51516,0.07503
958.58642,0.07568
956.65767,0.07644
954.72893,0.07710
952.80018,0.07763
950.87144,0.07823
948.94269,0.07887
947.01395,0.07901
945.08520,0.07856
943.15646,0.07817
941.22771,0.07821
939.29896,0.07832
937.37022,0.07819
935.44147,0.07776
933.51273,0.07728
931.58398,0.07713
929.65524,0.07724
927.72649,0.07736
925.79775,0.07731
923.86900,0.07690
921.94026,0.07626
920.01151,0.07562
918.08277,0.07499
916.15402,0.07423
914.22528,0.07341
912.29653,0.07272
910.36779,0.07201
908.43904,0.07099
906.51029,0.06984
904.58155,0.06884
902.65280,0.06805
900.72406,0.06764
898.79531,0.06773
896.86657,0.06799
894.93782,0.06841
893.00908,0.06912
891.08033,0.06998
889.15159,0.07071
887.22284,0.07109
885.29410,0.07127
883.36535,0.07143
881.43661,0.07162
879.50786,0.07168
877.57911,0.07137
875.65037,0.07097
873.72162,0.07086
871.79288,0.07095
869.86413,0.07097
867.93539,0.07073
866.00664,0.07041
864.07790,0.07042
862.14915,0.07079
860.22041,0.07101
858.29166,0.07089
856.36292,0.07077
854.43417,0.07078
852.50543,0.07093
850.57668,0.07113
848.64794,0.07120
846.71919,0.07106
844.79044,0.07065
842.86170,0.07020
840.93295,0.06999
839.00421,0.06987
837.07546,0.06960
835.14672,0.06900
833.21797,0.06835
831.28923,0.06787
829.36048,0.06746
827.43174,0.06712
825.50299,0.06677
823.57425,0.06626
821.64550,0.06557
819.71676,0.06494
817.78801,0.06488
815.85926,0.06535
813.93052,0.06565
812.00177,0.06537
810.07303,0.06482
808.14428,0.06462
806.21554,0.06490
804.28679,0.06509
802.35805,0.06484
800.42930,0.06478
798.50056,0.06519
796.57181,0.06551
794.64307,0.06540
792.71432,0.06509
790.78558,0.06485
788.85683,0.06439
786.92809,0.06343
784.99934,0.06263
783.07059,0.06249
781.14185,0.06269
779.21310,0.06271
777.28436,0.06230
775.35561,0.06182
773.42687,0.06155
771.49812,0.06112
769.56938,0.06038
767.64063,0.05976
765.71189,0.05930
763.78314,0.05877
761.85440,0.05833
759.92565,0.05817
757.99691,0.05814
756.06816,0.05815
754.13942,0.05822
752.21067,0.05812
750.28192,0.05776
748.35318,0.05722
746.42443,0.05648
744.49569,0.05594
742.56694,0.05595
740.63820,0.05590
738.70945,0.05537
736.78071,0.05474
734.85196,0.05417
732.92322,0.05371
730.99447,0.05332
729.06573,0.05287
727.13698,0.05255
725.20824,0.05224
723.27949,0.05167
721.35074,0.05124
719.42200,0.05125
717.49325,0.05148
715.56451,0.05173
713.63576,0.05193
711.70702,0.05195
709.77827,0.05173
707.84953,0.05139
705.92078,0.05111
703.99204,0.05102
702.06329,0.05108
700.13455,0.05131
698.20580,0.05158
696.27706,0.05145
694.34831,0.05100
692.41957,0.05088
690.49082,0.05092
688.56207,0.05033
686.63333,0.04961
684.70458,0.04978
682.77584,0.05050
680.84709,0.05086
678.91835,0.05049
676.98960,0.04966
675.06086,0.04928
673.13211,0.04968
671.20337,0.05005
669.27462,0.05009
667.34588,0.05018
665.41713,0.05030
663.48839,0.05007
661.55964,0.04962
659.63090,0.04963
657.70215,0.05008
655.77340,0.05031
653.84466,0.04998
651.91591,0.04942
649.98717,0.04900
648.05842,0.04859
646.12968,0.04850
644.20093,0.04905
642.27219,0.04950
640.34344,0.04928
638.41470,0.04829
636.48595,0.04698
634.55721,0.04632
632.62846,0.04654
630.69972,0.04741
628.77097,0.04822
626.84222,0.04828
624.91348,0.04820
622.98473,0.04843
621.05599,0.04853
619.12724,0.04876
617.19850,0.04962
615.26975,0.05062
613.34101,0.05121
611.41226,0.05139
609.48352,0.05191
607.55477,0.05340
605.62603,0.05469
603.69728,0.05411
601.76854,0.05249
599.83979,0.05184
