7497.03301,0.15986
7495.10426,0.16086
7493.17552,0.16438
7491.24677,0.16595
7489.31803,0.16287
7487.38928,0.15915
7485.46054,0.15782
7483.53179,0.16190
7481.60305,0.17126
7479.67430,0.17590
7477.74556,0.17035
7475.81681,0.16401
7473.88807,0.16584
7471.95932,0.17258
7470.03057,0.17556
7468.10183,0.17250
7466.17308,0.16805
7464.24434,0.16820
7462.31559,0.17354
7460.38685,0.17593
7458.45810,0.17115
7456.52936,0.16803
7454.60061,0.17260
7452.67187,0.17783
7450.74312,0.17648
7448.81438,0.17230
7446.88563,0.17201
7444.95689,0.17465
7443.02814,0.17702
7441.09940,0.17945
7439.17065,0.17881
7437.24190,0.17248
7435.31316,0.16695
7433.38441,0.16539
7431.45567,0.16377
7429.52692,0.16543
7427.59818,0.17016
7425.66943,0.17043
7423.74069,0.16905
7421.81194,0.17137
7419.88320,0.17457
7417.95445,0.17582
7416.02571,0.17497
7414.09696,0.17279
7412.16822,0.17090
7410.23947,0.17191
7408.31073,0.17597
7406.38198,0.17953
7404.45323,0.18006
7402.52449,0.17873
7400.59574,0.17720
7398.66700,0.17413
7396.73825,0.16890
7394.80951,0.16555
7392.88076,0.16745
7390.95202,0.17308
7389.02327,0.17932
7387.09453,0.18345
7385.16578,0.18300
7383.23704,0.17997
7381.30829,0.17889
7379.37955,0.17924
7377.45080,0.17863
7375.52205,0.17672
7373.59331,0.17330
7371.66456,0.17154
7369.73582,0.17466
7367.80707,0.17889
7365.87833,0.17960
7363.94958,0.17668
7362.02084,0.17380
7360.09209,0.17570
7358.16335,0.17888
7356.23460,0.17744
7354.30586,0.17539
7352.37711,0.17658
7350.44837,0.17813
7348.51962,0.18009
7346.59088,0.18222
7344.66213,0.17939
7342.73338,0.17278
7340.80464,0.17130
7338.87589,0.17455
7336.94715,0.17490
7335.01840,0.17247
7333.08966,0.17318
7331.16091,0.17779
7329.23217,0.18005
7327.30342,0.17767
7325.37468,0.17477
7323.44593,0.17281
7321.51719,0.17184
7319.58844,0.17282
7317.65970,0.17528
7315.73095,0.17757
7313.80221,0.17851
7311.87346,0.17922
7309.94471,0.18054
7308.01597,0.18173
7306.08722,0.18234
7304.15848,0.18145
7302.22973,0.18086
7300.30099,0.18200
7298.37224,0.18109
7296.44350,0.17789
7294.51475,0.17767
7292.58601,0.18053
7290.65726,0.18100
7288.72852,0.17773
7286.79977,0.17507
7284.87103,0.17503
7282.94228,0.17568
7281.01353,0.17613
7279.08479,0.17591
7277.15604,0.17342
7275.22730,0.17006
7273.29855,0.16918
7271.36981,0.17050
7269.44106,0.17173
7267.51232,0.17362
7265.58357,0.17554
7263.65483,0.17526
7261.72608,0.17443
7259.79734,0.17394
7257.86859,0.17346
7255.93985,0.17433
7254.01110,0.17572
7252.08236,0.17614
7250.15361,0.17491
7248.22486,0.17310
7246.29612,0.17300
7244.36737,0.17436
7242.43863,0.17641
7240.50988,0.17902
7238.58114,0.18132
7236.65239,0.18290
7234.72365,0.18241
7232.79490,0.17987
7230.86616,0.17773
7228.93741,0.17597
7227.00867,0.17313
7225.07992,0.17192
7223.15118,0.17617
7221.22243,0.18264
7219.29369,0.18401
7217.36494,0.18005
7215.43619,0.17526
7213.50745,0.17231
7211.57870,0.17252
7209.64996,0.17418
7207.72121,0.17483
7205.79247,0.17496
7203.86372,0.17576
7201.93498,0.17654
7200.00623,0.17564
7198.07749,0.17447
7196.14874,0.17564
7194.22000,0.17814
7192.29125,0.17853
7190.36251,0.17562
7188.43376,0.17265
7186.50501,0.17274
7184.57627,0.17461
7182.64752,0.17638
7180.71878,0.17851
7178.79003,0.18000
7176.86129,0.18004
7174.93254,0.18111
7173.00380,0.18343
7171.07505,0.18325
7169.14631,0.17955
7167.21756,0.17741
7165.28882,0.18005
7163.36007,0.18368
7161.43133,0.18426
7159.50258,0.18163
7157.57384,0.17778
7155.64509,0.17543
7153.71634,0.17629
7151.78760,0.17845
7149.85885,0.17919
7147.93011,0.17941
7146.00136,0.17956
7144.07262,0.17972
7142.14387,0.18056
7140.21513,0.17996
7138.28638,0.17729
7136.35764,0.17501
7134.42889,0.17508
7132.50015,0.17870
7130.57140,0.18344
7128.64266,0.18434
7126.71391,0.18168
7124.78516,0.17952
7122.85642,0.17941
7120.92767,0.18044
7118.99893,0.18002
7117.07018,0.17737
7115.14144,0.17550
7113.21269,0.17617
7111.28395,0.17659
7109.35520,0.17484
7107.42646,0.17404
7105.49771,0.17516
7103.56897,0.17713
7101.64022,0.18121
7099.71148,0.18430
7097.78273,0.18383
7095.85399,0.18297
7093.92524,0.18206
7091.99649,0.18027
7090.06775,0.18035
7088.13900,0.18241
7086.21026,0.18276
7084.28151,0.18119
7082.35277,0.18022
7080.42402,0.17930
7078.49528,0.17929
7076.56653,0.18277
7074.63779,0.18646
7072.70904,0.18547
7070.78030,0.18138
7068.85155,0.17915
7066.92281,0.18088
7064.99406,0.18348
7063.06532,0.18335
7061.13657,0.18241
7059.20782,0.18284
7057.27908,0.18161
7055.35033,0.17851
7053.42159,0.17765
7051.49284,0.17897
7049.56410,0.17998
7047.63535,0.18098
7045.70661,0.18270
7043.77786,0.18376
7041.84912,0.18294
7039.92037,0.18206
7037.99163,0.18311
7036.06288,0.18386
7034.13414,0.18106
7032.20539,0.17629
7030.27664,0.17441
7028.34790,0.17707
7026.41915,0.17953
7024.49041,0.17804
7022.56166,0.17660
7020.63292,0.17865
7018.70417,0.18191
7016.77543,0.18376
7014.84668,0.18363
7012.91794,0.18231
7010.98919,0.18042
7009.06045,0.17887
7007.13170,0.17820
7005.20296,0.17751
7003.27421,0.17817
7001.34547,0.18152
6999.41672,0.18355
6997.48797,0.18185
6995.55923,0.18150
6993.63048,0.18544
6991.70174,0.18908
6989.77299,0.18883
6987.84425,0.18621
6985.91550,0.18322
6983.98676,0.18059
6982.05801,0.18024
6980.12927,0.18271
6978.20052,0.18424
6976.27178,0.18228
6974.34303,0.17854
6972.41429,0.17708
6970.48554,0.17954
6968.55680,0.18176
6966.62805,0.18121
6964.69930,0.18026
6962.77056,0.18027
6960.84181,0.17961
6958.91307,0.17763
6956.98432,0.17705
6955.05558,0.17911
6953.12683,0.18107
6951.19809,0.18102
6949.26934,0.17922
6947.34060,0.17758
6945.41185,0.17859
6943.48311,0.18202
6941.55436,0.18463
6939.62562,0.18503
6937.69687,0.18489
6935.76812,0.18424
6933.83938,0.18245
6931.91063,0.18091
6929.98189,0.17960
6928.05314,0.17889
6926.12440,0.18060
6924.19565,0.18299
6922.26691,0.18429
6920.33816,0.18567
6918.40942,0.18601
6916.48067,0.18496
6914.55193,0.18484
6912.62318,0.18587
6910.69444,0.18640
6908.76569,0.18516
6906.83695,0.18328
6904.90820,0.18295
6902.97945,0.18354
6901.05071,0.18318
6899.12196,0.18228
6897.19322,0.18298
6895.26447,0.18479
6893.33573,0.18537
6891.40698,0.18453
6889.47824,0.18328
6887.54949,0.18256
6885.62075,0.18283
6883.69200,0.18320
6881.76326,0.18363
6879.83451,0.18503
6877.90577,0.18685
6875.97702,0.18796
6874.04828,0.18750
6872.11953,0.18630
6870.19078,0.18668
6868.26204,0.18706
6866.33329,0.18535
6864.40455,0.18397
6862.47580,0.18453
6860.54706,0.18560
6858.61831,0.18609
6856.68957,0.18604
6854.76082,0.18585
6852.83208,0.18602
6850.90333,0.18581
6848.97459,0.18527
6847.04584,0.18646
6845.11710,0.18736
6843.18835,0.18652
6841.25960,0.18691
6839.33086,0.18744
6837.40211,0.18689
6835.47337,0.18798
6833.54462,0.19059
6831.61588,0.19202
6829.68713,0.19084
6827.75839,0.18811
6825.82964,0.18574
6823.90090,0.18492
6821.97215,0.18618
6820.04341,0.18737
6818.11466,0.18604
6816.18592,0.18490
6814.25717,0.18626
6812.32843,0.18767
6810.39968,0.18832
6808.47093,0.18889
6806.54219,0.18881
6804.61344,0.18900
6802.68470,0.19084
6800.75595,0.19220
6798.82721,0.18936
6796.89846,0.18353
6794.96972,0.18046
6793.04097,0.18333
6791.11223,0.18886
6789.18348,0.19112
6787.25474,0.19016
6785.32599,0.18986
6783.39725,0.18978
6781.46850,0.18838
6779.53975,0.18699
6777.61101,0.18617
6775.68226,0.18538
6773.75352,0.18528
6771.82477,0.18606
6769.89603,0.18751
6767.96728,0.18957
6766.03854,0.19051
6764.10979,0.18961
6762.18105,0.18919
6760.25230,0.18948
6758.32356,0.18716
6756.39481,0.18358
6754.46607,0.18396
6752.53732,0.18720
6750.60858,0.18950
6748.67983,0.19083
6746.75108,0.19151
6744.82234,0.19156
6742.89359,0.19167
6740.96485,0.19174
6739.03610,0.19167
6737.10736,0.19205
6735.17861,0.19269
6733.24987,0.19286
6731.32112,0.19219
6729.39238,0.19086
6727.46363,0.19041
6725.53489,0.19071
6723.60614,0.19000
6721.67740,0.18910
6719.74865,0.18867
6717.81991,0.18855
6715.89116,0.19000
6713.96241,0.19192
6712.03367,0.19146
6710.10492,0.18969
6708.17618,0.18968
6706.24743,0.19151
6704.31869,0.19329
6702.38994,0.19337
6700.46120,0.19210
6698.53245,0.19150
6696.60371,0.19139
6694.67496,0.19090
6692.74622,0.19120
6690.81747,0.19120
6688.88873,0.18993
6686.95998,0.18940
6685.03123,0.18950
6683.10249,0.19011
6681.17374,0.19079
6679.24500,0.18871
6677.31625,0.18633
6675.38751,0.18790
6673.45876,0.19215
6671.53002,0.19532
6669.60127,0.19486
6667.67253,0.19319
6665.74378,0.19293
6663.81504,0.19226
6661.88629,0.19157
6659.95755,0.19292
6658.02880,0.19552
6656.10006,0.19741
6654.17131,0.19692
6652.24256,0.19399
6650.31382,0.19091
6648.38507,0.18947
6646.45633,0.18975
6644.52758,0.19159
6642.59884,0.19364
6640.67009,0.19486
6638.74135,0.19657
6636.81260,0.19876
6634.88386,0.19907
6632.95511,0.19681
6631.02637,0.19420
6629.09762,0.19223
6627.16888,0.19057
6625.24013,0.19090
6623.31139,0.19327
6621.38264,0.19489
6619.45389,0.19491
6617.52515,0.19490
6615.59640,0.19533
6613.66766,0.19523
6611.73891,0.19518
6609.81017,0.19559
6607.88142,0.19592
6605.95268,0.19713
6604.02393,0.19816
6602.09519,0.19663
6600.16644,0.19427
6598.23770,0.19339
6596.30895,0.19343
6594.38021,0.19390
6592.45146,0.19506
6590.52271,0.19642
6588.59397,0.19657
6586.66522,0.19599
6584.73648,0.19686
6582.80773,0.19775
6580.87899,0.19603
6578.95024,0.19424
6577.02150,0.19532
6575.09275,0.19645
6573.16401,0.19548
6571.23526,0.19531
6569.30652,0.19679
6567.37777,0.19693
6565.44903,0.19617
6563.52028,0.19689
6561.59154,0.19739
6559.66279,0.19580
6557.73404,0.19443
6555.80530,0.19495
6553.87655,0.19665
6551.94781,0.19890
6550.01906,0.20005
6548.09032,0.19869
6546.16157,0.19644
6544.23283,0.19599
6542.30408,0.19789
6540.37534,0.19985
6538.44659,0.20029
6536.51785,0.20006
6534.58910,0.19952
6532.66036,0.19879
6530.73161,0.19872
6528.80287,0.19858
6526.87412,0.19791
6524.94537,0.19844
6523.01663,0.19999
6521.08788,0.20072
6519.15914,0.20094
6517.23039,0.20159
6515.30165,0.20148
6513.37290,0.19944
6511.44416,0.19865
6509.51541,0.20093
6507.58667,0.20227
6505.65792,0.20179
6503.72918,0.20161
6501.80043,0.20120
6499.87169,0.20065
6497.94294,0.20092
6496.01419,0.20187
6494.08545,0.20294
6492.15670,0.20287
6490.22796,0.20111
6488.29921,0.19953
6486.37047,0.19967
6484.44172,0.20115
6482.51298,0.20241
6480.58423,0.20143
6478.65549,0.19978
6476.72674,0.20024
6474.79800,0.20104
6472.86925,0.20036
6470.94051,0.19955
6469.01176,0.20003
6467.08302,0.20158
6465.15427,0.20263
6463.22552,0.20241
6461.29678,0.20231
6459.36803,0.20362
6457.43929,0.20559
6455.51054,0.20698
6453.58180,0.20614
6451.65305,0.20216
6449.72431,0.19885
6447.79556,0.19924
6445.86682,0.20061
6443.93807,0.20179
6442.00933,0.20366
6440.08058,0.20458
6438.15184,0.20486
6436.22309,0.20581
6434.29434,0.20576
6432.36560,0.20466
6430.43685,0.20375
6428.50811,0.20300
6426.57936,0.20350
6424.65062,0.20503
6422.72187,0.20546
6420.79313,0.20530
6418.86438,0.20576
6416.93564,0.20641
6415.00689,0.20645
6413.07815,0.20532
6411.14940,0.20501
6409.22066,0.20719
6407.29191,0.20846
6405.36317,0.20646
6403.43442,0.20482
6401.50567,0.20630
6399.57693,0.20899
6397.64818,0.20992
6395.71944,0.20789
6393.79069,0.20542
6391.86195,0.20527
6389.93320,0.20616
6388.00446,0.20671
6386.07571,0.20725
6384.14697,0.20707
6382.21822,0.20638
6380.28948,0.20685
6378.36073,0.20796
6376.43199,0.20871
6374.50324,0.21017
6372.57450,0.21166
6370.64575,0.21060
6368.71700,0.20751
6366.78826,0.20537
6364.85951,0.20528
6362.93077,0.20605
6361.00202,0.20643
6359.07328,0.20588
6357.14453,0.20582
6355.21579,0.20801
6353.28704,0.21041
6351.35830,0.21057
6349.42955,0.21058
6347.50081,0.21192
6345.57206,0.21249
6343.64332,0.21129
6341.71457,0.20970
6339.78582,0.20959
6337.85708,0.21174
6335.92833,0.21395
6333.99959,0.21329
6332.07084,0.21045
6330.14210,0.20875
6328.21335,0.20940
6326.28461,0.21058
6324.35586,0.21083
6322.42712,0.21034
6320.49837,0.20936
6318.56963,0.20853
6316.64088,0.20828
6314.71214,0.20785
6312.78339,0.20725
6310.85465,0.20735
6308.92590,0.20848
6306.99715,0.20994
6305.06841,0.21063
6303.13966,0.21073
6301.21092,0.21047
6299.28217,0.20964
6297.35343,0.20912
6295.42468,0.20980
6293.49594,0.21058
6291.56719,0.21006
6289.63845,0.20979
6287.70970,0.21093
6285.78096,0.21210
6283.85221,0.21275
6281.92347,0.21321
6279.99472,0.21332
6278.06598,0.21299
6276.13723,0.21250
6274.20848,0.21258
6272.27974,0.21343
6270.35099,0.21385
6268.42225,0.21314
6266.49350,0.21289
6264.56476,0.21481
6262.63601,0.21794
6260.70727,0.21900
6258.77852,0.21714
6256.84978,0.21564
6254.92103,0.21567
6252.99229,0.21565
6251.06354,0.21508
6249.13480,0.21474
6247.20605,0.21549
6245.27730,0.21675
6243.34856,0.21731
6241.41981,0.21730
6239.49107,0.21746
6237.56232,0.21767
6235.63358,0.21798
6233.70483,0.21903
6231.77609,0.21966
6229.84734,0.21856
6227.91860,0.21725
6225.98985,0.21747
6224.06111,0.21885
6222.13236,0.21965
6220.20362,0.21900
6218.27487,0.21877
6216.34613,0.21982
6214.41738,0.21995
6212.48863,0.21874
6210.55989,0.21830
6208.63114,0.21892
6206.70240,0.21925
6204.77365,0.21888
6202.84491,0.21841
6200.91616,0.21814
6198.98742,0.21817
6197.05867,0.21927
6195.12993,0.22157
6193.20118,0.22371
6191.27244,0.22440
6189.34369,0.22354
6187.41495,0.22196
6185.48620,0.22070
6183.55746,0.21992
6181.62871,0.21951
6179.69996,0.22014
6177.77122,0.22118
6175.84247,0.22167
6173.91373,0.22280
6171.98498,0.22431
6170.05624,0.22459
6168.12749,0.22416
6166.19875,0.22319
6164.27000,0.22166
6162.34126,0.22094
6160.41251,0.22120
6158.48377,0.22185
6156.55502,0.22310
6154.62628,0.22472
6152.69753,0.22531
6150.76878,0.22324
6148.84004,0.21994
6146.91129,0.21953
6144.98255,0.22279
6143.05380,0.22585
6141.12506,0.22619
6139.19631,0.22506
6137.26757,0.22339
6135.33882,0.22192
6133.41008,0.22218
6131.48133,0.22311
6129.55259,0.22282
6127.62384,0.22234
6125.69510,0.22378
6123.76635,0.22631
6121.83761,0.22715
6119.90886,0.22588
6117.98011,0.22438
6116.05137,0.22373
6114.12262,0.22340
6112.19388,0.22330
6110.26513,0.22388
6108.33639,0.22443
6106.40764,0.22482
6104.47890,0.22535
6102.55015,0.22570
6100.62141,0.22564
6098.69266,0.22561
6096.76392,0.22679
6094.83517,0.22839
6092.90643,0.22809
6090.97768,0.22635
6089.04893,0.22514
6087.12019,0.22481
6085.19144,0.22482
6083.26270,0.22501
6081.33395,0.22517
6079.40521,0.22541
6077.47646,0.22633
6075.54772,0.22745
6073.61897,0.22818
6071.69023,0.22892
6069.76148,0.22954
6067.83274,0.22957
6065.90399,0.22897
6063.97525,0.22804
6062.04650,0.22756
6060.11776,0.22741
6058.18901,0.22712
6056.26026,0.22718
6054.33152,0.22735
6052.40277,0.22770
6050.47403,0.22880
6048.54528,0.22949
6046.61654,0.22907
6044.68779,0.22837
6042.75905,0.22774
6040.83030,0.22738
6038.90156,0.22808
6036.97281,0.22978
6035.04407,0.23054
6033.11532,0.22954
6031.18658,0.22877
6029.25783,0.22960
6027.32909,0.23023
6025.40034,0.22911
6023.47159,0.22799
6021.54285,0.22843
6019.61410,0.22963
6017.68536,0.23068
6015.75661,0.23065
6013.82787,0.22948
6011.89912,0.22846
6009.97038,0.22773
6008.04163,0.22687
6006.11289,0.22651
6004.18414,0.22682
6002.25540,0.22722
6000.32665,0.22775
5998.39791,0.22847
5996.46916,0.22835
5994.54041,0.22696
5992.61167,0.22585
5990.68292,0.22598
5988.75418,0.22622
5986.82543,0.22614
5984.89669,0.22692
5982.96794,0.22829
5981.03920,0.22806
5979.11045,0.22585
5977.18171,0.22387
5975.25296,0.22328
5973.32422,0.22304
5971.39547,0.22277
5969.46673,0.22305
5967.53798,0.22372
5965.60924,0.22441
5963.68049,0.22516
5961.75174,0.22594
5959.82300,0.22650
5957.89425,0.22660
5955.96551,0.22632
5954.03676,0.22576
5952.10802,0.22505
5950.17927,0.22466
5948.25053,0.22501
5946.32178,0.22559
5944.39304,0.22550
5942.46429,0.22479
5940.53555,0.22387
5938.60680,0.22325
5936.67806,0.22338
5934.74931,0.22368
5932.82057,0.22359
5930.89182,0.22304
5928.96307,0.22246
5927.03433,0.22218
5925.10558,0.22180
5923.17684,0.22181
5921.24809,0.22228
5919.31935,0.22165
5917.39060,0.21992
5915.46186,0.21841
5913.53311,0.21767
5911.60437,0.21763
5909.67562,0.21800
5907.74688,0.21869
5905.81813,0.21853
5903.88939,0.21670
5901.96064,0.21523
5900.03189,0.21498
5898.10315,0.21455
5896.17440,0.21434
5894.24566,0.21530
5892.31691,0.21627
5890.38817,0.21644
5888.45942,0.21675
5886.53068,0.21776
5884.60193,0.21847
5882.67319,0.21777
5880.74444,0.21671
5878.81570,0.21631
5876.88695,0.21493
5874.95821,0.21255
5873.02946,0.21191
5871.10072,0.21350
5869.17197,0.21438
5867.24322,0.21296
5865.31448,0.21127
5863.38573,0.21067
5861.45699,0.21067
5859.52824,0.21110
5857.59950,0.21134
5855.67075,0.21084
5853.74201,0.21034
5851.81326,0.21053
5849.88452,0.21112
5847.95577,0.21157
5846.02703,0.21147
5844.09828,0.21090
5842.16954,0.21080
5840.24079,0.21174
5838.31205,0.21265
5836.38330,0.21232
5834.45455,0.21148
5832.52581,0.21152
5830.59706,0.21185
5828.66832,0.21138
5826.73957,0.21030
5824.81083,0.20948
5822.88208,0.20946
5820.95334,0.21012
5819.02459,0.21102
5817.09585,0.21140
5815.16710,0.21053
5813.23836,0.20938
5811.30961,0.20868
5809.38087,0.20769
5807.45212,0.20695
5805.52337,0.20725
5803.59463,0.20738
5801.66588,0.20696
5799.73714,0.20687
5797.80839,0.20705
5795.87965,0.20749
5793.95090,0.20851
5792.02216,0.20903
5790.09341,0.20836
5788.16467,0.20788
5786.23592,0.20819
5784.30718,0.20815
5782.37843,0.20760
5780.44969,0.20760
5778.52094,0.20820
5776.59220,0.20841
5774.66345,0.20823
5772.73470,0.20838
5770.80596,0.20892
5768.87721,0.21003
5766.94847,0.21149
5765.01972,0.21221
5763.09098,0.21246
5761.16223,0.21302
5759.23349,0.21349
5757.30474,0.21387
5755.37600,0.21452
5753.44725,0.21533
5751.51851,0.21597
5749.58976,0.21620
5747.66102,0.21661
5745.73227,0.21743
5743.80352,0.21789
5741.87478,0.21803
5739.94603,0.21840
5738.01729,0.21914
5736.08854,0.21989
5734.15980,0.21962
5732.23105,0.21863
5730.30231,0.21868
5728.37356,0.21962
5726.44482,0.21993
5724.51607,0.21995
5722.58733,0.22087
5720.65858,0.22212
5718.72984,0.22214
5716.80109,0.22105
5714.87235,0.22044
5712.94360,0.22068
5711.01485,0.22040
5709.08611,0.21932
5707.15736,0.21866
5705.22862,0.21867
5703.29987,0.21879
5701.37113,0.21907
5699.44238,0.21974
5697.51364,0.22063
5695.58489,0.22145
5693.65615,0.22172
5691.72740,0.22068
5689.79866,0.21919
5687.86991,0.21905
5685.94117,0.21977
5684.01242,0.21971
5682.08368,0.21871
5680.15493,0.21816
5678.22618,0.21888
5676.29744,0.22000
5674.36869,0.22047
5672.43995,0.22051
5670.51120,0.22043
5668.58246,0.22030
5666.65371,0.22046
5664.72497,0.22061
5662.79622,0.22054
5660.86748,0.22021
5658.93873,0.21985
5657.00999,0.22068
5655.08124,0.22239
5653.15250,0.22336
5651.22375,0.22382
5649.29500,0.22459
5647.36626,0.22511
5645.43751,0.22507
5643.50877,0.22493
5641.58002,0.22442
5639.65128,0.22364
5637.72253,0.22362
5635.79379,0.22443
5633.86504,0.22528
5631.93630,0.22562
5630.00755,0.22548
5628.07881,0.22565
5626.15006,0.22667
5624.22132,0.22794
5622.29257,0.22862
5620.36383,0.22905
5618.43508,0.22985
5616.50633,0.23058
5614.57759,0.23031
5612.64884,0.22958
5610.72010,0.22991
5608.79135,0.23111
5606.86261,0.23179
5604.93386,0.23141
5603.00512,0.23077
5601.07637,0.23131
5599.14763,0.23265
5597.21888,0.23317
5595.29014,0.23346
5593.36139,0.23460
5591.43265,0.23522
5589.50390,0.23463
5587.57516,0.23431
5585.64641,0.23479
5583.71766,0.23544
5581.78892,0.23603
5579.86017,0.23658
5577.93143,0.23690
5576.00268,0.23678
5574.07394,0.23658
5572.14519,0.23673
5570.21645,0.23714
5568.28770,0.23740
5566.35896,0.23713
5564.43021,0.23701
5562.50147,0.23785
5560.57272,0.23846
5558.64398,0.23809
5556.71523,0.23815
5554.78648,0.23889
5552.85774,0.23890
5550.92899,0.23807
5549.00025,0.23728
5547.07150,0.23697
5545.14276,0.23739
5543.21401,0.23857
5541.28527,0.23993
5539.35652,0.24048
5537.42778,0.24015
5535.49903,0.23993
5533.57029,0.23980
5531.64154,0.23958
5529.71280,0.24018
5527.78405,0.24113
5525.85531,0.24108
5523.92656,0.24062
5521.99781,0.24022
5520.06907,0.23981
5518.14032,0.23976
5516.21158,0.23987
5514.28283,0.23999
5512.35409,0.24009
5510.42534,0.23998
5508.49660,0.23989
5506.56785,0.24029
5504.63911,0.24097
5502.71036,0.24093
5500.78162,0.24064
5498.85287,0.24126
5496.92413,0.24242
5494.99538,0.24310
5493.06664,0.24274
5491.13789,0.24194
5489.20914,0.24162
5487.28040,0.24155
5485.35165,0.24129
5483.42291,0.24108
5481.49416,0.24136
5479.56542,0.24241
5477.63667,0.24369
5475.70793,0.24389
5473.77918,0.24333
5471.85044,0.24331
5469.92169,0.24334
5467.99295,0.24318
5466.06420,0.24369
5464.13546,0.24441
5462.20671,0.24458
5460.27796,0.24482
5458.34922,0.24546
5456.42047,0.24603
5454.49173,0.24623
5452.56298,0.24612
5450.63424,0.24604
5448.70549,0.24596
5446.77675,0.24555
5444.84800,0.24502
5442.91926,0.24499
5440.99051,0.24552
5439.06177,0.24609
5437.13302,0.24657
5435.20428,0.24724
5433.27553,0.24805
5431.34679,0.24868
5429.41804,0.24932
5427.48929,0.24970
5425.56055,0.24895
5423.63180,0.24801
5421.70306,0.24831
5419.77431,0.24908
5417.84557,0.24923
5415.91682,0.24889
5413.98808,0.24874
5412.05933,0.24899
5410.13059,0.24905
5408.20184,0.24924
5406.27310,0.25035
5404.34435,0.25134
5402.41561,0.25130
5400.48686,0.25112
5398.55811,0.25140
5396.62937,0.25191
5394.70062,0.25260
5392.77188,0.25312
5390.84313,0.25300
5388.91439,0.25251
5386.98564,0.25207
5385.05690,0.25194
5383.12815,0.25279
5381.19941,0.25400
5379.27066,0.25438
5377.34192,0.25451
5375.41317,0.25489
5373.48443,0.25466
5371.55568,0.25404
5369.62694,0.25439
5367.69819,0.25545
5365.76944,0.25568
5363.84070,0.25511
5361.91195,0.25464
5359.98321,0.25437
5358.05446,0.25410
5356.12572,0.25383
5354.19697,0.25386
5352.26823,0.25438
5350.33948,0.25522
5348.41074,0.25595
5346.48199,0.25622
5344.55325,0.25625
5342.62450,0.25629
5340.69576,0.25606
5338.76701,0.25552
5336.83827,0.25503
5334.90952,0.25454
5332.98077,0.25410
5331.05203,0.25427
5329.12328,0.25493
5327.19454,0.25515
5325.26579,0.25489
5323.33705,0.25509
5321.40830,0.25574
5319.47956,0.25589
5317.55081,0.25543
5315.62207,0.25479
5313.69332,0.25400
5311.76458,0.25322
5309.83583,0.25282
5307.90709,0.25295
5305.97834,0.25333
5304.04959,0.25377
5302.12085,0.25424
5300.19210,0.25408
5298.26336,0.25304
5296.33461,0.25210
5294.40587,0.25176
5292.47712,0.25153
5290.54838,0.25144
5288.61963,0.25126
5286.69089,0.25053
5284.76214,0.24991
5282.83340,0.24956
5280.90465,0.24858
5278.97591,0.24718
5277.04716,0.24611
5275.11842,0.24517
5273.18967,0.24412
5271.26092,0.24332
5269.33218,0.24280
5267.40343,0.24222
5265.47469,0.24143
5263.54594,0.24057
5261.61720,0.24001
5259.68845,0.23927
5257.75971,0.23798
5255.83096,0.23689
5253.90222,0.23647
5251.97347,0.23628
5250.04473,0.23561
5248.11598,0.23425
5246.18724,0.23309
5244.25849,0.23285
5242.32975,0.23338
5240.40100,0.23380
5238.47225,0.23311
5236.54351,0.23161
5234.61476,0.23036
5232.68602,0.22916
5230.75727,0.22767
5228.82853,0.22678
5226.89978,0.22692
5224.97104,0.22721
5223.04229,0.22698
5221.11355,0.22649
5219.18480,0.22618
5217.25606,0.22600
5215.32731,0.22573
5213.39857,0.22532
5211.46982,0.22463
5209.54107,0.22389
5207.61233,0.22356
5205.68358,0.22370
5203.75484,0.22419
5201.82609,0.22487
5199.89735,0.22559
5197.96860,0.22591
5196.03986,0.22548
5194.11111,0.22461
5192.18237,0.22416
5190.25362,0.22445
5188.32488,0.22461
5186.39613,0.22414
5184.46739,0.22386
5182.53864,0.22426
5180.60990,0.22506
5178.68115,0.22588
5176.75240,0.22585
5174.82366,0.22518
5172.89491,0.22543
5170.96617,0.22630
5169.03742,0.22629
5167.10868,0.22569
5165.17993,0.22568
5163.25119,0.22636
5161.32244,0.22696
5159.39370,0.22702
5157.46495,0.22689
5155.53621,0.22741
5153.60746,0.22864
5151.67872,0.22975
5149.74997,0.23033
5147.82123,0.23056
5145.89248,0.23052
5143.96373,0.23057
5142.03499,0.23113
5140.10624,0.23170
5138.17750,0.23157
5136.24875,0.23139
5134.32001,0.23221
5132.39126,0.23372
5130.46252,0.23469
5128.53377,0.23482
5126.60503,0.23478
5124.67628,0.23490
5122.74754,0.23494
5120.81879,0.23487
5118.89005,0.23503
5116.96130,0.23550
5115.03255,0.23601
5113.10381,0.23637
5111.17506,0.23631
5109.24632,0.23594
5107.31757,0.23574
5105.38883,0.23594
5103.46008,0.23662
5101.53134,0.23741
5099.60259,0.23786
5097.67385,0.23818
5095.74510,0.23881
5093.81636,0.23942
5091.88761,0.23953
5089.95887,0.23966
5088.03012,0.24019
5086.10138,0.24089
5084.17263,0.24157
5082.24388,0.24199
5080.31514,0.24185
5078.38639,0.24133
5076.45765,0.24127
5074.52890,0.24177
5072.60016,0.24223
5070.67141,0.24282
5068.74267,0.24341
5066.81392,0.24379
5064.88518,0.24456
5062.95643,0.24569
5061.02769,0.24676
5059.09894,0.24777
5057.17020,0.24836
5055.24145,0.24813
5053.31270,0.24755
5051.38396,0.24727
5049.45521,0.24734
5047.52647,0.24752
5045.59772,0.24793
5043.66898,0.24872
5041.74023,0.24927
5039.81149,0.24935
5037.88274,0.24941
5035.95400,0.24960
5034.02525,0.24999
5032.09651,0.25055
5030.16776,0.25074
5028.23902,0.25022
5026.31027,0.24972
5024.38153,0.24985
5022.45278,0.25072
5020.52403,0.25200
5018.59529,0.25282
5016.66654,0.25310
5014.73780,0.25307
5012.80905,0.25246
5010.88031,0.25163
5008.95156,0.25100
5007.02282,0.25078
5005.09407,0.25122
5003.16533,0.25194
5001.23658,0.25210
4999.30784,0.25158
4997.37909,0.25114
4995.45035,0.25125
4993.52160,0.25143
4991.59286,0.25139
4989.66411,0.25157
4987.73536,0.25195
4985.80662,0.25213
4983.87787,0.25220
4981.94913,0.25230
4980.02038,0.25249
4978.09164,0.25270
4976.16289,0.25282
4974.23415,0.25268
4972.30540,0.25215
4970.37666,0.25153
4968.44791,0.25129
4966.51917,0.25168
4964.59042,0.25233
4962.66168,0.25248
4960.73293,0.25201
4958.80418,0.25137
4956.87544,0.25074
4954.94669,0.25048
4953.01795,0.25064
4951.08920,0.25057
4949.16046,0.25045
4947.23171,0.25088
4945.30297,0.25098
4943.37422,0.24996
4941.44548,0.24888
4939.51673,0.24867
4937.58799,0.24861
4935.65924,0.24807
4933.73050,0.24754
4931.80175,0.24738
4929.87301,0.24721
4927.94426,0.24681
4926.01551,0.24645
4924.08677,0.24609
4922.15802,0.24533
4920.22928,0.24444
4918.30053,0.24393
4916.37179,0.24355
4914.44304,0.24291
4912.51430,0.24225
4910.58555,0.24195
4908.65681,0.24180
4906.72806,0.24136
4904.79932,0.24073
4902.87057,0.24023
4900.94183,0.23968
4899.01308,0.23888
4897.08434,0.23800
4895.15559,0.23720
4893.22684,0.23660
4891.29810,0.23624
4889.36935,0.23581
4887.44061,0.23517
4885.51186,0.23460
4883.58312,0.23412
4881.65437,0.23357
4879.72563,0.23295
4877.79688,0.23235
4875.86814,0.23178
4873.93939,0.23104
4872.01065,0.22997
4870.08190,0.22888
4868.15316,0.22809
4866.22441,0.22775
4864.29566,0.22784
4862.36692,0.22785
4860.43817,0.22753
4858.50943,0.22719
4856.58068,0.22685
4854.65194,0.22633
4852.72319,0.22582
4850.79445,0.22516
4848.86570,0.22406
4846.93696,0.22293
4845.00821,0.22206
4843.07947,0.22148
4841.15072,0.22133
4839.22198,0.22124
4837.29323,0.22079
4835.36449,0.22033
4833.43574,0.21997
4831.50699,0.21930
4829.57825,0.21853
4827.64950,0.21815
4825.72076,0.21801
4823.79201,0.21752
4821.86327,0.21662
4819.93452,0.21602
4818.00578,0.21601
4816.07703,0.21607
4814.14829,0.21564
4812.21954,0.21485
4810.29080,0.21433
4808.36205,0.21411
4806.43331,0.21400
4804.50456,0.21389
4802.57582,0.21354
4800.64707,0.21313
4798.71832,0.21270
4796.78958,0.21231
4794.86083,0.21225
4792.93209,0.21237
4791.00334,0.21243
4789.07460,0.21240
4787.14585,0.21207
4785.21711,0.21146
4783.28836,0.21107
4781.35962,0.21102
4779.43087,0.21115
4777.50213,0.21129
4775.57338,0.21103
4773.64464,0.21032
4771.71589,0.20966
4769.78714,0.20929
4767.85840,0.20914
4765.92965,0.20899
4764.00091,0.20879
4762.07216,0.20881
4760.14342,0.20904
4758.21467,0.20907
4756.28593,0.20873
4754.35718,0.20822
4752.42844,0.20765
4750.49969,0.20741
4748.57095,0.20781
4746.64220,0.20829
4744.71346,0.20847
4742.78471,0.20872
4740.85597,0.20907
4738.92722,0.20932
4736.99847,0.20944
4735.06973,0.20938
4733.14098,0.20938
4731.21224,0.20974
4729.28349,0.21016
4727.35475,0.21027
4725.42600,0.21046
4723.49726,0.21102
4721.56851,0.21141
4719.63977,0.21121
4717.71102,0.21092
4715.78228,0.21099
4713.85353,0.21134
4711.92479,0.21183
4709.99604,0.21211
4708.06729,0.21200
4706.13855,0.21172
4704.20980,0.21145
4702.28106,0.21164
4700.35231,0.21248
4698.42357,0.21328
4696.49482,0.21347
4694.56608,0.21342
4692.63733,0.21366
4690.70859,0.21401
4688.77984,0.21416
4686.85110,0.21416
4684.92235,0.21426
4682.99361,0.21442
4681.06486,0.21458
4679.13612,0.21470
4677.20737,0.21441
4675.27862,0.21412
4673.34988,0.21480
4671.42113,0.21598
4669.49239,0.21636
4667.56364,0.21619
4665.63490,0.21627
4663.70615,0.21660
4661.77741,0.21705
4659.84866,0.21736
4657.91992,0.21741
4655.99117,0.21745
4654.06243,0.21756
4652.13368,0.21784
4650.20494,0.21828
4648.27619,0.21862
4646.34745,0.21886
4644.41870,0.21908
4642.48995,0.21903
4640.56121,0.21889
4638.63246,0.21924
4636.70372,0.21998
4634.77497,0.22051
4632.84623,0.22063
4630.91748,0.22067
4628.98874,0.22074
4627.05999,0.22059
4625.13125,0.22024
4623.20250,0.22010
4621.27376,0.22032
4619.34501,0.22070
4617.41627,0.22131
4615.48752,0.22221
4613.55877,0.22286
4611.63003,0.22280
4609.70128,0.22259
4607.77254,0.22301
4605.84379,0.22397
4603.91505,0.22485
4601.98630,0.22525
4600.05756,0.22527
4598.12881,0.22529
4596.20007,0.22546
4594.27132,0.22584
4592.34258,0.22662
4590.41383,0.22769
4588.48509,0.22840
4586.55634,0.22852
4584.62760,0.22839
4582.69885,0.22831
4580.77010,0.22851
4578.84136,0.22906
4576.91261,0.22983
4574.98387,0.23061
4573.05512,0.23094
4571.12638,0.23084
4569.19763,0.23104
4567.26889,0.23171
4565.34014,0.23224
4563.41140,0.23248
4561.48265,0.23284
4559.55391,0.23327
4557.62516,0.23358
4555.69642,0.23384
4553.76767,0.23410
4551.83893,0.23447
4549.91018,0.23492
4547.98143,0.23523
4546.05269,0.23530
4544.12394,0.23521
4542.19520,0.23524
4540.26645,0.23563
4538.33771,0.23600
4536.40896,0.23603
4534.48022,0.23596
4532.55147,0.23581
4530.62273,0.23558
4528.69398,0.23560
4526.76524,0.23580
4524.83649,0.23584
4522.90775,0.23591
4520.97900,0.23621
4519.05025,0.23640
4517.12151,0.23639
4515.19276,0.23628
4513.26402,0.23603
4511.33527,0.23573
4509.40653,0.23551
4507.47778,0.23535
4505.54904,0.23533
4503.62029,0.23560
4501.69155,0.23580
4499.76280,0.23556
4497.83406,0.23519
4495.90531,0.23490
4493.97657,0.23459
4492.04782,0.23428
4490.11908,0.23371
4488.19033,0.23277
4486.26158,0.23205
4484.33284,0.23177
4482.40409,0.23126
4480.47535,0.23046
4478.54660,0.22984
4476.61786,0.22920
4474.68911,0.22837
4472.76037,0.22744
4470.83162,0.22637
4468.90288,0.22541
4466.97413,0.22460
4465.04539,0.22349
4463.11664,0.22222
4461.18790,0.22117
4459.25915,0.22012
4457.33041,0.21872
4455.40166,0.21710
4453.47291,0.21551
4451.54417,0.21394
4449.61542,0.21255
4447.68668,0.21159
4445.75793,0.21073
4443.82919,0.20946
4441.90044,0.20769
4439.97170,0.20570
4438.04295,0.20379
4436.11421,0.20191
4434.18546,0.19990
4432.25672,0.19793
4430.32797,0.19597
4428.39923,0.19373
4426.47048,0.19138
4424.54173,0.18923
4422.61299,0.18716
4420.68424,0.18490
4418.75550,0.18248
4416.82675,0.18019
4414.89801,0.17816
4412.96926,0.17634
4411.04052,0.17442
4409.11177,0.17217
4407.18303,0.16999
4405.25428,0.16818
4403.32554,0.16666
4401.39679,0.16552
4399.46805,0.16460
4397.53930,0.16352
4395.61056,0.16234
4393.68181,0.16150
4391.75306,0.16113
4389.82432,0.16088
4387.89557,0.16055
4385.96683,0.16049
4384.03808,0.16054
4382.10934,0.16015
4380.18059,0.15962
4378.25185,0.15940
4376.32310,0.15935
4374.39436,0.15929
4372.46561,0.15923
4370.53687,0.15939
4368.60812,0.15964
4366.67938,0.15944
4364.75063,0.15894
4362.82189,0.15847
4360.89314,0.15772
4358.96439,0.15643
4357.03565,0.15495
4355.10690,0.15369
4353.17816,0.15252
4351.24941,0.15115
4349.32067,0.14947
4347.39192,0.14766
4345.46318,0.14608
4343.53443,0.14484
4341.60569,0.14370
4339.67694,0.14226
4337.74820,0.14059
4335.81945,0.13915
4333.89071,0.13823
4331.96196,0.13779
4330.03321,0.13747
4328.10447,0.13726
4326.17572,0.13740
4324.24698,0.13784
4322.31823,0.13872
4320.38949,0.14008
4318.46074,0.14141
4316.53200,0.14226
4314.60325,0.14288
4312.67451,0.14367
4310.74576,0.14469
4308.81702,0.14571
4306.88827,0.14646
4304.95953,0.14716
4303.03078,0.14797
4301.10204,0.14868
4299.17329,0.14930
4297.24454,0.14991
4295.31580,0.15031
4293.38705,0.15022
4291.45831,0.14991
4289.52956,0.14995
4287.60082,0.15010
4285.67207,0.14980
4283.74333,0.14934
4281.81458,0.14906
4279.88584,0.14850
4277.95709,0.14759
4276.02835,0.14700
4274.09960,0.14666
4272.17086,0.14592
4270.24211,0.14486
4268.31336,0.14393
4266.38462,0.14312
4264.45587,0.14232
4262.52713,0.14163
4260.59838,0.14104
4258.66964,0.14049
4256.74089,0.14025
4254.81215,0.14052
4252.88340,0.14101
4250.95466,0.14152
4249.02591,0.14232
4247.09717,0.14335
4245.16842,0.14443
4243.23968,0.14566
4241.31093,0.14664
4239.38219,0.14719
4237.45344,0.14797
4235.52469,0.14906
4233.59595,0.14994
4231.66720,0.15032
4229.73846,0.15039
4227.80971,0.15063
4225.88097,0.15108
4223.95222,0.15135
4222.02348,0.15134
4220.09473,0.15130
4218.16599,0.15140
4216.23724,0.15154
4214.30850,0.15163
4212.37975,0.15173
4210.45101,0.15181
4208.52226,0.15181
4206.59352,0.15184
4204.66477,0.15208
4202.73602,0.15251
4200.80728,0.15289
4198.87853,0.15311
4196.94979,0.15323
4195.02104,0.15336
4193.09230,0.15344
4191.16355,0.15334
4189.23481,0.15337
4187.30606,0.15380
4185.37732,0.15411
4183.44857,0.15397
4181.51983,0.15376
4179.59108,0.15364
4177.66234,0.15352
4175.73359,0.15358
4173.80484,0.15371
4171.87610,0.15369
4169.94735,0.15379
4168.01861,0.15404
4166.08986,0.15399
4164.16112,0.15373
4162.23237,0.15358
4160.30363,0.15364
4158.37488,0.15398
4156.44614,0.15439
4154.51739,0.15456
4152.58865,0.15452
4150.65990,0.15450
4148.73116,0.15482
4146.80241,0.15534
4144.87367,0.15550
4142.94492,0.15527
4141.01617,0.15498
4139.08743,0.15480
4137.15868,0.15487
4135.22994,0.15508
4133.30119,0.15524
4131.37245,0.15538
4129.44370,0.15559
4127.51496,0.15572
4125.58621,0.15556
4123.65747,0.15521
4121.72872,0.15508
4119.79998,0.15509
4117.87123,0.15484
4115.94249,0.15441
4114.01374,0.15404
4112.08500,0.15355
4110.15625,0.15280
4108.22750,0.15212
4106.29876,0.15180
4104.37001,0.15164
4102.44127,0.15160
4100.51252,0.15161
4098.58378,0.15125
4096.65503,0.15058
4094.72629,0.15005
4092.79754,0.14961
4090.86880,0.14907
4088.94005,0.14848
4087.01131,0.14788
4085.08256,0.14723
4083.15382,0.14658
4081.22507,0.14582
4079.29632,0.14505
4077.36758,0.14446
4075.43883,0.14384
4073.51009,0.14307
4071.58134,0.14218
4069.65260,0.14116
4067.72385,0.14049
4065.79511,0.14020
4063.86636,0.13970
4061.93762,0.13915
4060.00887,0.13893
4058.08013,0.13875
4056.15138,0.13844
4054.22264,0.13826
4052.29389,0.13807
4050.36515,0.13763
4048.43640,0.13718
4046.50765,0.13690
4044.57891,0.13691
4042.65016,0.13706
4040.72142,0.13682
4038.79267,0.13623
4036.86393,0.13580
4034.93518,0.13572
4033.00644,0.13600
4031.07769,0.13640
4029.14895,0.13648
4027.22020,0.13634
4025.29146,0.13628
4023.36271,0.13609
4021.43397,0.13567
4019.50522,0.13549
4017.57648,0.13565
4015.64773,0.13581
4013.71898,0.13604
4011.79024,0.13639
4009.86149,0.13673
4007.93275,0.13697
4006.00400,0.13714
4004.07526,0.13741
4002.14651,0.13751
4000.21777,0.13738
3998.28902,0.13743
3996.36028,0.13778
3994.43153,0.13836
3992.50279,0.13892
3990.57404,0.13928
3988.64530,0.13967
3986.71655,0.14021
3984.78780,0.14075
3982.85906,0.14120
3980.93031,0.14138
3979.00157,0.14128
3977.07282,0.14129
3975.14408,0.14158
3973.21533,0.14191
3971.28659,0.14227
3969.35784,0.14264
3967.42910,0.14312
3965.50035,0.14379
3963.57161,0.14442
3961.64286,0.14488
3959.71412,0.14522
3957.78537,0.14542
3955.85663,0.14565
3953.92788,0.14601
3951.99913,0.14638
3950.07039,0.14691
3948.14164,0.14766
3946.21290,0.14813
3944.28415,0.14814
3942.35541,0.14815
3940.42666,0.14850
3938.49792,0.14916
3936.56917,0.14998
3934.64043,0.15056
3932.71168,0.15074
3930.78294,0.15090
3928.85419,0.15140
3926.92545,0.15207
3924.99670,0.15260
3923.06795,0.15301
3921.13921,0.15342
3919.21046,0.15374
3917.28172,0.15399
3915.35297,0.15432
3913.42423,0.15468
3911.49548,0.15511
3909.56674,0.15573
3907.63799,0.15632
3905.70925,0.15667
3903.78050,0.15697
3901.85176,0.15733
3899.92301,0.15754
3897.99427,0.15764
3896.06552,0.15791
3894.13678,0.15838
3892.20803,0.15894
3890.27928,0.15956
3888.35054,0.16002
3886.42179,0.16008
3884.49305,0.15986
3882.56430,0.15981
3880.63556,0.16012
3878.70681,0.16065
3876.77807,0.16122
3874.84932,0.16181
3872.92058,0.16242
3870.99183,0.16282
3869.06309,0.16300
3867.13434,0.16338
3865.20560,0.16412
3863.27685,0.16499
3861.34811,0.16571
3859.41936,0.16619
3857.49061,0.16661
3855.56187,0.16706
3853.63312,0.16751
3851.70438,0.16789
3849.77563,0.16822
3847.84689,0.16853
3845.91814,0.16890
3843.98940,0.16940
3842.06065,0.16992
3840.13191,0.17019
3838.20316,0.17042
3836.27442,0.17079
3834.34567,0.17108
3832.41693,0.17128
3830.48818,0.17148
3828.55943,0.17157
3826.63069,0.17168
3824.70194,0.17190
3822.77320,0.17209
3820.84445,0.17221
3818.91571,0.17228
3816.98696,0.17229
3815.05822,0.17233
3813.12947,0.17245
3811.20073,0.17256
3809.27198,0.17255
3807.34324,0.17239
3805.41449,0.17245
3803.48575,0.17296
3801.55700,0.17356
3799.62826,0.17367
3797.69951,0.17348
3795.77076,0.17363
3793.84202,0.17398
3791.91327,0.17415
3789.98453,0.17426
3788.05578,0.17440
3786.12704,0.17449
3784.19829,0.17458
3782.26955,0.17463
3780.34080,0.17459
3778.41206,0.17445
3776.48331,0.17433
3774.55457,0.17438
3772.62582,0.17458
3770.69708,0.17472
3768.76833,0.17474
3766.83959,0.17466
3764.91084,0.17439
3762.98209,0.17382
3761.05335,0.17329
3759.12460,0.17314
3757.19586,0.17310
3755.26711,0.17290
3753.33837,0.17253
3751.40962,0.17212
3749.48088,0.17199
3747.55213,0.17205
3745.62339,0.17203
3743.69464,0.17189
3741.76590,0.17148
3739.83715,0.17082
3737.90841,0.17012
3735.97966,0.16959
3734.05091,0.16910
3732.12217,0.16826
3730.19342,0.16741
3728.26468,0.16688
3726.33593,0.16625
3724.40719,0.16533
3722.47844,0.16436
3720.54970,0.16320
3718.62095,0.16177
3716.69221,0.16038
3714.76346,0.15907
3712.83472,0.15736
3710.90597,0.15501
3708.97723,0.15224
3707.04848,0.14918
3705.11974,0.14593
3703.19099,0.14242
3701.26224,0.13853
3699.33350,0.13476
3697.40475,0.13189
3695.47601,0.13012
3693.54726,0.12938
3691.61852,0.12944
3689.68977,0.12961
3687.76103,0.12949
3685.83228,0.12917
3683.90354,0.12857
3681.97479,0.12773
3680.04605,0.12683
3678.11730,0.12557
3676.18856,0.12351
3674.25981,0.12092
3672.33107,0.11814
3670.40232,0.11521
3668.47357,0.11264
3666.54483,0.11068
3664.61608,0.10895
3662.68734,0.10726
3660.75859,0.10548
3658.82985,0.10343
3656.90110,0.10106
3654.97236,0.09879
3653.04361,0.09709
3651.11487,0.09564
3649.18612,0.09400
3647.25738,0.09247
3645.32863,0.09135
3643.39989,0.09034
3641.47114,0.08916
3639.54239,0.08775
3637.61365,0.08636
3635.68490,0.08527
3633.75616,0.08433
3631.82741,0.08321
3629.89867,0.08182
3627.96992,0.08037
3626.04118,0.07917
3624.11243,0.07806
3622.18369,0.07682
3620.25494,0.07556
3618.32620,0.07453
3616.39745,0.07385
3614.46871,0.07344
3612.53996,0.07307
3610.61122,0.07241
3608.68247,0.07129
3606.75372,0.07002
3604.82498,0.06895
3602.89623,0.06822
3600.96749,0.06776
3599.03874,0.06714
3597.11000,0.06635
3595.18125,0.06568
3593.25251,0.06495
3591.32376,0.06427
3589.39502,0.06384
3587.46627,0.06339
3585.53753,0.06264
3583.60878,0.06185
3581.68004,0.06131
3579.75129,0.06089
3577.82254,0.06038
3575.89380,0.05993
3573.96505,0.05957
3572.03631,0.05910
3570.10756,0.05844
3568.17882,0.05772
3566.25007,0.05717
3564.32133,0.05693
3562.39258,0.05673
3560.46384,0.05631
3558.53509,0.05590
3556.60635,0.05576
3554.67760,0.05559
3552.74886,0.05505
3550.82011,0.05427
3548.89137,0.05357
3546.96262,0.05323
3545.03387,0.05328
3543.10513,0.05339
3541.17638,0.05343
3539.24764,0.05343
3537.31889,0.05316
3535.39015,0.05251
3533.46140,0.05178
3531.53266,0.05125
3529.60391,0.05111
3527.67517,0.05119
3525.74642,0.05104
3523.81768,0.05059
3521.88893,0.05022
3519.96019,0.05028
3518.03144,0.05055
3516.10270,0.05056
3514.17395,0.05024
3512.24520,0.04976
3510.31646,0.04929
3508.38771,0.04889
3506.45897,0.04871
3504.53022,0.04878
3502.60148,0.04887
3500.67273,0.04892
3498.74399,0.04885
3496.81524,0.04866
3494.88650,0.04843
3492.95775,0.04813
3491.02901,0.04791
3489.10026,0.04783
3487.17152,0.04769
3485.24277,0.04752
3483.31402,0.04759
3481.38528,0.04793
3479.45653,0.04794
3477.52779,0.04731
3475.59904,0.04668
3473.67030,0.04661
3471.74155,0.04669
3469.81281,0.04656
3467.88406,0.04637
3465.95532,0.04635
3464.02657,0.04646
3462.09783,0.04644
3460.16908,0.04613
3458.24034,0.04575
3456.31159,0.04563
3454.38285,0.04551
3452.45410,0.04518
3450.52535,0.04505
3448.59661,0.04507
3446.66786,0.04485
3444.73912,0.04462
3442.81037,0.04469
3440.88163,0.04505
3438.95288,0.04540
3437.02414,0.04551
3435.09539,0.04534
3433.16665,0.04490
3431.23790,0.04453
3429.30916,0.04461
3427.38041,0.04485
3425.45167,0.04491
3423.52292,0.04491
3421.59418,0.04486
3419.66543,0.04458
3417.73668,0.04434
3415.80794,0.04438
3413.87919,0.04456
3411.95045,0.04470
3410.02170,0.04470
3408.09296,0.04471
3406.16421,0.04477
3404.23547,0.04461
3402.30672,0.04454
3400.37798,0.04476
3398.44923,0.04477
3396.52049,0.04461
3394.59174,0.04464
3392.66300,0.04467
3390.73425,0.04460
3388.80550,0.04449
3386.87676,0.04446
3384.94801,0.04464
3383.01927,0.04469
3381.09052,0.04435
3379.16178,0.04390
3377.23303,0.04370
3375.30429,0.04379
3373.37554,0.04391
3371.44680,0.04380
3369.51805,0.04354
3367.58931,0.04323
3365.66056,0.04300
3363.73182,0.04302
3361.80307,0.04340
3359.87433,0.04391
3357.94558,0.04413
3356.01683,0.04416
3354.08809,0.04446
3352.15934,0.04498
3350.23060,0.04519
3348.30185,0.04490
3346.37311,0.04437
3344.44436,0.04402
3342.51562,0.04408
3340.58687,0.04434
3338.65813,0.04434
3336.72938,0.04401
3334.80064,0.04386
3332.87189,0.04421
3330.94315,0.04476
3329.01440,0.04502
3327.08566,0.04489
3325.15691,0.04491
3323.22816,0.04520
3321.29942,0.04540
3319.37067,0.04555
3317.44193,0.04578
3315.51318,0.04583
3313.58444,0.04556
3311.65569,0.04534
3309.72695,0.04536
3307.79820,0.04546
3305.86946,0.04555
3303.94071,0.04547
3302.01197,0.04527
3300.08322,0.04529
3298.15448,0.04550
3296.22573,0.04560
3294.29698,0.04570
3292.36824,0.04589
3290.43949,0.04607
3288.51075,0.04621
3286.58200,0.04629
3284.65326,0.04646
3282.72451,0.04671
3280.79577,0.04679
3278.86702,0.04697
3276.93828,0.04737
3275.00953,0.04754
3273.08079,0.04742
3271.15204,0.04712
3269.22330,0.04694
3267.29455,0.04714
3265.36581,0.04746
3263.43706,0.04781
3261.50831,0.04821
3259.57957,0.04845
3257.65082,0.04857
3255.72208,0.04884
3253.79333,0.04901
3251.86459,0.04877
3249.93584,0.04843
3248.00710,0.04835
3246.07835,0.04850
3244.14961,0.04888
3242.22086,0.04940
3240.29212,0.04958
3238.36337,0.04951
3236.43463,0.04963
3234.50588,0.04967
3232.57713,0.04952
3230.64839,0.04976
3228.71964,0.05035
3226.79090,0.05088
3224.86215,0.05119
3222.93341,0.05116
3221.00466,0.05092
3219.07592,0.05077
3217.14717,0.05083
3215.21843,0.05105
3213.28968,0.05137
3211.36094,0.05177
3209.43219,0.05208
3207.50345,0.05206
3205.57470,0.05195
3203.64596,0.05207
3201.71721,0.05234
3199.78846,0.05258
3197.85972,0.05258
3195.93097,0.05238
3194.00223,0.05244
3192.07348,0.05296
3190.14474,0.05372
3188.21599,0.05434
3186.28725,0.05455
3184.35850,0.05437
3182.42976,0.05408
3180.50101,0.05389
3178.57227,0.05394
3176.64352,0.05433
3174.71478,0.05480
3172.78603,0.05499
3170.85729,0.05493
3168.92854,0.05482
3166.99979,0.05481
3165.07105,0.05504
3163.14230,0.05539
3161.21356,0.05551
3159.28481,0.05560
3157.35607,0.05594
3155.42732,0.05624
3153.49858,0.05635
3151.56983,0.05647
3149.64109,0.05678
3147.71234,0.05719
3145.78360,0.05733
3143.85485,0.05722
3141.92611,0.05727
3139.99736,0.05741
3138.06861,0.05728
3136.13987,0.05724
3134.21112,0.05764
3132.28238,0.05801
3130.35363,0.05806
3128.42489,0.05804
3126.49614,0.05827
3124.56740,0.05886
3122.63865,0.05939
3120.70991,0.05949
3118.78116,0.05940
3116.85242,0.05940
3114.92367,0.05945
3112.99493,0.05943
3111.06618,0.05921
3109.13744,0.05910
3107.20869,0.05955
3105.27994,0.06007
3103.35120,0.06010
3101.42245,0.05995
3099.49371,0.06002
3097.56496,0.06035
3095.63622,0.06076
3093.70747,0.06087
3091.77873,0.06078
3089.84998,0.06080
3087.92124,0.06091
3085.99249,0.06096
3084.06375,0.06096
3082.13500,0.06099
3080.20626,0.06103
3078.27751,0.06102
3076.34877,0.06101
3074.42002,0.06114
3072.49127,0.06136
3070.56253,0.06143
3068.63378,0.06118
3066.70504,0.06071
3064.77629,0.06035
3062.84755,0.06051
3060.91880,0.06100
3058.99006,0.06123
3057.06131,0.06123
3055.13257,0.06135
3053.20382,0.06157
3051.27508,0.06163
3049.34633,0.06154
3047.41759,0.06155
3045.48884,0.06179
3043.56009,0.06205
3041.63135,0.06202
3039.70260,0.06185
3037.77386,0.06175
3035.84511,0.06164
3033.91637,0.06159
3031.98762,0.06162
3030.05888,0.06166
3028.13013,0.06176
3026.20139,0.06181
3024.27264,0.06160
3022.34390,0.06117
3020.41515,0.06089
3018.48641,0.06082
3016.55766,0.06070
3014.62892,0.06051
3012.70017,0.06032
3010.77142,0.06000
3008.84268,0.05960
3006.91393,0.05931
3004.98519,0.05909
3003.05644,0.05880
3001.12770,0.05855
2999.19895,0.05833
2997.27021,0.05787
2995.34146,0.05725
2993.41272,0.05689
2991.48397,0.05668
2989.55523,0.05615
2987.62648,0.05531
2985.69774,0.05442
2983.76899,0.05366
2981.84025,0.05299
2979.91150,0.05229
2977.98275,0.05144
2976.05401,0.05055
2974.12526,0.04973
2972.19652,0.04896
2970.26777,0.04840
2968.33903,0.04812
2966.41028,0.04781
2964.48154,0.04740
2962.55279,0.04723
2960.62405,0.04742
2958.69530,0.04768
2956.76656,0.04781
2954.83781,0.04793
2952.90907,0.04827
2950.98032,0.04857
2949.05157,0.04843
2947.12283,0.04802
2945.19408,0.04768
2943.26534,0.04756
2941.33659,0.04760
2939.40785,0.04759
2937.47910,0.04749
2935.55036,0.04747
2933.62161,0.04772
2931.69287,0.04832
2929.76412,0.04921
2927.83538,0.05022
2925.90663,0.05105
2923.97789,0.05169
2922.04914,0.05241
2920.12040,0.05320
2918.19165,0.05367
2916.26290,0.05388
2914.33416,0.05398
2912.40541,0.05373
2910.47667,0.05325
2908.54792,0.05289
2906.61918,0.05278
2904.69043,0.05295
2902.76169,0.05305
2900.83294,0.05277
2898.90420,0.05250
2896.97545,0.05261
2895.04671,0.05298
2893.11796,0.05337
2891.18922,0.05358
2889.26047,0.05344
2887.33172,0.05311
2885.40298,0.05287
2883.47423,0.05274
2881.54549,0.05261
2879.61674,0.05233
2877.68800,0.05203
2875.75925,0.05190
2873.83051,0.05187
2871.90176,0.05188
2869.97302,0.05203
2868.04427,0.05224
2866.11553,0.05226
2864.18678,0.05220
2862.25804,0.05232
2860.32929,0.05260
2858.40055,0.05288
2856.47180,0.05321
2854.54305,0.05370
2852.61431,0.05438
2850.68556,0.05532
2848.75682,0.05626
2846.82807,0.05685
2844.89933,0.05717
2842.97058,0.05741
2841.04184,0.05775
2839.11309,0.05827
2837.18435,0.05878
2835.25560,0.05917
2833.32686,0.05959
2831.39811,0.06016
2829.46937,0.06092
2827.54062,0.06184
2825.61188,0.06263
2823.68313,0.06297
2821.75438,0.06310
2819.82564,0.06345
2817.89689,0.06411
2815.96815,0.06482
2814.03940,0.06524
2812.11066,0.06561
2810.18191,0.06621
2808.25317,0.06670
2806.32442,0.06695
2804.39568,0.06729
2802.46693,0.06772
2800.53819,0.06803
2798.60944,0.06835
2796.68070,0.06881
2794.75195,0.06921
2792.82320,0.06946
2790.89446,0.06982
2788.96571,0.07027
2787.03697,0.07051
2785.10822,0.07049
2783.17948,0.07049
2781.25073,0.07064
2779.32199,0.07083
2777.39324,0.07108
2775.46450,0.07143
2773.53575,0.07177
2771.60701,0.07187
2769.67826,0.07174
2767.74952,0.07169
2765.82077,0.07193
2763.89203,0.07234
2761.96328,0.07276
2760.03453,0.07293
2758.10579,0.07265
2756.17704,0.07229
2754.24830,0.07229
2752.31955,0.07250
2750.39081,0.07257
2748.46206,0.07247
2746.53332,0.07240
2744.60457,0.07239
2742.67583,0.07232
2740.74708,0.07220
2738.81834,0.07197
2736.88959,0.07180
2734.96085,0.07197
2733.03210,0.07221
2731.10336,0.07223
2729.17461,0.07225
2727.24586,0.07234
2725.31712,0.07247
2723.38837,0.07276
2721.45963,0.07305
2719.53088,0.07327
2717.60214,0.07364
2715.67339,0.07406
2713.74465,0.07429
2711.81590,0.07439
2709.88716,0.07456
2707.95841,0.07485
2706.02967,0.07518
2704.10092,0.07540
2702.17218,0.07548
2700.24343,0.07566
2698.31468,0.07600
2696.38594,0.07629
2694.45719,0.07659
2692.52845,0.07692
2690.59970,0.07711
2688.67096,0.07713
2686.74221,0.07718
2684.81347,0.07747
2682.88472,0.07794
2680.95598,0.07829
2679.02723,0.07850
2677.09849,0.07860
2675.16974,0.07859
2673.24100,0.07858
2671.31225,0.07865
2669.38351,0.07884
2667.45476,0.07908
2665.52601,0.07920
2663.59727,0.07929
2661.66852,0.07953
2659.73978,0.07995
2657.81103,0.08046
2655.88229,0.08082
2653.95354,0.08102
2652.02480,0.08123
2650.09605,0.08142
2648.16731,0.08148
2646.23856,0.08160
2644.30982,0.08189
2642.38107,0.08221
2640.45233,0.08251
2638.52358,0.08281
2636.59484,0.08305
2634.66609,0.08322
2632.73734,0.08332
2630.80860,0.08340
2628.87985,0.08357
2626.95111,0.08374
2625.02236,0.08387
2623.09362,0.08415
2621.16487,0.08457
2619.23613,0.08491
2617.30738,0.08510
2615.37864,0.08522
2613.44989,0.08542
2611.52115,0.08575
2609.59240,0.08608
2607.66366,0.08632
2605.73491,0.08647
2603.80616,0.08652
2601.87742,0.08662
2599.94867,0.08702
2598.01993,0.08756
2596.09118,0.08780
2594.16244,0.08772
2592.23369,0.08769
2590.30495,0.08793
2588.37620,0.08831
2586.44746,0.08863
2584.51871,0.08891
2582.58997,0.08925
2580.66122,0.08953
2578.73248,0.08970
2576.80373,0.08981
2574.87499,0.08980
2572.94624,0.08978
2571.01749,0.08990
2569.08875,0.09010
2567.16000,0.09027
2565.23126,0.09047
2563.30251,0.09074
2561.37377,0.09090
2559.44502,0.09094
2557.51628,0.09108
2555.58753,0.09131
2553.65879,0.09148
2551.73004,0.09155
2549.80130,0.09150
2547.87255,0.09130
2545.94381,0.09117
2544.01506,0.09130
2542.08631,0.09171
2540.15757,0.09203
2538.22882,0.09191
2536.30008,0.09169
2534.37133,0.09181
2532.44259,0.09215
2530.51384,0.09253
2528.58510,0.09289
2526.65635,0.09318
2524.72761,0.09340
2522.79886,0.09357
2520.87012,0.09375
2518.94137,0.09385
2517.01263,0.09389
2515.08388,0.09405
2513.15514,0.09437
2511.22639,0.09472
2509.29764,0.09511
2507.36890,0.09552
2505.44015,0.09585
2503.51141,0.09617
2501.58266,0.09661
2499.65392,0.09716
2497.72517,0.09778
2495.79643,0.09846
2493.86768,0.09904
2491.93894,0.09940
2490.01019,0.09964
2488.08145,0.09996
2486.15270,0.10036
2484.22396,0.10070
2482.29521,0.10099
2480.36647,0.10129
2478.43772,0.10170
2476.50897,0.10220
2474.58023,0.10258
2472.65148,0.10283
2470.72274,0.10317
2468.79399,0.10357
2466.86525,0.10382
2464.93650,0.10387
2463.00776,0.10389
2461.07901,0.10403
2459.15027,0.10435
2457.22152,0.10476
2455.29278,0.10513
2453.36403,0.10552
2451.43529,0.10595
2449.50654,0.10626
2447.57779,0.10647
2445.64905,0.10676
2443.72030,0.10713
2441.79156,0.10744
2439.86281,0.10768
2437.93407,0.10795
2436.00532,0.10836
2434.07658,0.10885
2432.14783,0.10933
2430.21909,0.10970
2428.29034,0.10995
2426.36160,0.11028
2424.43285,0.11073
2422.50411,0.11105
2420.57536,0.11133
2418.64662,0.11181
2416.71787,0.11229
2414.78912,0.11256
2412.86038,0.11276
2410.93163,0.11303
2409.00289,0.11343
2407.07414,0.11392
2405.14540,0.11435
2403.21665,0.11459
2401.28791,0.11481
2399.35916,0.11526
2397.43042,0.11583
2395.50167,0.11631
2393.57293,0.11680
2391.64418,0.11724
2389.71544,0.11736
2387.78669,0.11737
2385.85795,0.11766
2383.92920,0.11819
2382.00045,0.11868
2380.07171,0.11887
2378.14296,0.11889
2376.21422,0.11903
2374.28547,0.11942
2372.35673,0.11997
2370.42798,0.12047
2368.49924,0.12075
2366.57049,0.12089
2364.64175,0.12113
2362.71300,0.12145
2360.78426,0.12174
2358.85551,0.12204
2356.92677,0.12241
2354.99802,0.12270
2353.06927,0.12279
2351.14053,0.12295
2349.21178,0.12324
2347.28304,0.12352
2345.35429,0.12378
2343.42555,0.12403
2341.49680,0.12429
2339.56806,0.12463
2337.63931,0.12489
2335.71057,0.12493
2333.78182,0.12493
2331.85308,0.12500
2329.92433,0.12499
2327.99559,0.12502
2326.06684,0.12525
2324.13810,0.12555
2322.20935,0.12580
2320.28060,0.12596
2318.35186,0.12605
2316.42311,0.12622
2314.49437,0.12662
2312.56562,0.12697
2310.63688,0.12710
2308.70813,0.12721
2306.77939,0.12732
2304.85064,0.12723
2302.92190,0.12705
2300.99315,0.12699
2299.06441,0.12704
2297.13566,0.12711
2295.20692,0.12729
2293.27817,0.12753
2291.34943,0.12754
2289.42068,0.12724
2287.49193,0.12705
2285.56319,0.12715
2283.63444,0.12730
2281.70570,0.12734
2279.77695,0.12731
2277.84821,0.12727
2275.91946,0.12726
2273.99072,0.12719
2272.06197,0.12700
2270.13323,0.12683
2268.20448,0.12668
2266.27574,0.12650
2264.34699,0.12626
2262.41825,0.12599
2260.48950,0.12574
2258.56075,0.12559
2256.63201,0.12553
2254.70326,0.12551
2252.77452,0.12544
2250.84577,0.12526
2248.91703,0.12497
2246.98828,0.12479
2245.05954,0.12485
2243.13079,0.12488
2241.20205,0.12478
2239.27330,0.12477
2237.34456,0.12486
2235.41581,0.12477
2233.48707,0.12454
2231.55832,0.12445
2229.62958,0.12451
2227.70083,0.12460
2225.77208,0.12471
2223.84334,0.12495
2221.91459,0.12536
2219.98585,0.12571
2218.05710,0.12580
2216.12836,0.12571
2214.19961,0.12574
2212.27087,0.12600
2210.34212,0.12627
2208.41338,0.12637
2206.48463,0.12622
2204.55589,0.12592
2202.62714,0.12572
2200.69840,0.12570
2198.76965,0.12564
2196.84090,0.12545
2194.91216,0.12532
2192.98341,0.12511
2191.05467,0.12469
2189.12592,0.12424
2187.19718,0.12387
2185.26843,0.12347
2183.33969,0.12294
2181.41094,0.12231
2179.48220,0.12176
2177.55345,0.12124
2175.62471,0.12065
2173.69596,0.12010
2171.76722,0.11963
2169.83847,0.11911
2167.90973,0.11852
2165.98098,0.11794
2164.05223,0.11749
2162.12349,0.11723
2160.19474,0.11699
2158.26600,0.11658
2156.33725,0.11608
2154.40851,0.11567
2152.47976,0.11543
2150.55102,0.11541
2148.62227,0.11555
2146.69353,0.11558
2144.76478,0.11536
2142.83604,0.11504
2140.90729,0.11484
2138.97855,0.11481
2137.04980,0.11479
2135.12106,0.11481
2133.19231,0.11501
2131.26356,0.11528
2129.33482,0.11556
2127.40607,0.11582
2125.47733,0.11604
2123.54858,0.11629
2121.61984,0.11664
2119.69109,0.11702
2117.76235,0.11729
2115.83360,0.11740
2113.90486,0.11753
2111.97611,0.11788
2110.04737,0.11841
2108.11862,0.11895
2106.18988,0.11941
2104.26113,0.11970
2102.33238,0.11990
2100.40364,0.12012
2098.47489,0.12032
2096.54615,0.12053
2094.61740,0.12080
2092.68866,0.12106
2090.75991,0.12129
2088.83117,0.12148
2086.90242,0.12161
2084.97368,0.12173
2083.04493,0.12186
2081.11619,0.12193
2079.18744,0.12189
2077.25870,0.12179
2075.32995,0.12168
2073.40121,0.12149
2071.47246,0.12121
2069.54371,0.12091
2067.61497,0.12074
2065.68622,0.12082
2063.75748,0.12099
2061.82873,0.12099
2059.89999,0.12094
2057.97124,0.12108
2056.04250,0.12133
2054.11375,0.12138
2052.18501,0.12125
2050.25626,0.12116
2048.32752,0.12121
2046.39877,0.12130
2044.47003,0.12144
2042.54128,0.12172
2040.61254,0.12220
2038.68379,0.12275
2036.75504,0.12313
2034.82630,0.12340
2032.89755,0.12382
2030.96881,0.12438
2029.04006,0.12494
2027.11132,0.12555
2025.18257,0.12622
2023.25383,0.12694
2021.32508,0.12770
2019.39634,0.12851
2017.46759,0.12928
2015.53885,0.13002
2013.61010,0.13077
2011.68136,0.13151
2009.75261,0.13214
2007.82386,0.13269
2005.89512,0.13324
2003.96637,0.13369
2002.03763,0.13401
2000.10888,0.13440
1998.18014,0.13487
1996.25139,0.13525
1994.32265,0.13563
1992.39390,0.13605
1990.46516,0.13640
1988.53641,0.13679
1986.60767,0.13733
1984.67892,0.13787
1982.75018,0.13834
1980.82143,0.13878
1978.89269,0.13906
1976.96394,0.13914
1975.03519,0.13918
1973.10645,0.13921
1971.17770,0.13915
1969.24896,0.13910
1967.32021,0.13910
1965.39147,0.13912
1963.46272,0.13919
1961.53398,0.13926
1959.60523,0.13929
1957.67649,0.13936
1955.74774,0.13950
1953.81900,0.13966
1951.89025,0.13981
1949.96151,0.13992
1948.03276,0.14006
1946.10402,0.14018
1944.17527,0.14026
1942.24652,0.14039
1940.31778,0.14053
1938.38903,0.14066
1936.46029,0.14088
1934.53154,0.14116
1932.60280,0.14141
1930.67405,0.14159
1928.74531,0.14163
1926.81656,0.14157
1924.88782,0.14151
1922.95907,0.14141
1921.03033,0.14119
1919.10158,0.14088
1917.17284,0.14052
1915.24409,0.14027
1913.31534,0.14012
1911.38660,0.13990
1909.45785,0.13965
1907.52911,0.13959
1905.60036,0.13969
1903.67162,0.13974
1901.74287,0.13971
1899.81413,0.13976
1897.88538,0.13987
1895.95664,0.13986
1894.02789,0.13972
1892.09915,0.13976
1890.17040,0.14002
1888.24166,0.14014
1886.31291,0.13995
1884.38417,0.13973
1882.45542,0.13976
1880.52667,0.14001
1878.59793,0.14021
1876.66918,0.14022
1874.74044,0.14011
1872.81169,0.13997
1870.88295,0.13985
1868.95420,0.13978
1867.02546,0.13975
1865.09671,0.13967
1863.16797,0.13956
1861.23922,0.13943
1859.31048,0.13921
1857.38173,0.13895
1855.45299,0.13872
1853.52424,0.13849
1851.59549,0.13824
1849.66675,0.13801
1847.73800,0.13777
1845.80926,0.13730
1843.88051,0.13661
1841.95177,0.13609
1840.02302,0.13592
1838.09428,0.13587
1836.16553,0.13570
1834.23679,0.13534
1832.30804,0.13476
1830.37930,0.13411
1828.45055,0.13371
1826.52181,0.13350
1824.59306,0.13299
1822.66432,0.13220
1820.73557,0.13148
1818.80682,0.13083
1816.87808,0.13016
1814.94933,0.12943
1813.02059,0.12855
1811.09184,0.12756
1809.16310,0.12650
1807.23435,0.12530
1805.30561,0.12398
1803.37686,0.12254
1801.44812,0.12087
1799.51937,0.11910
1797.59063,0.11757
1795.66188,0.11636
1793.73314,0.11526
1791.80439,0.11405
1789.87565,0.11286
1787.94690,0.11184
1786.01815,0.11073
1784.08941,0.10932
1782.16066,0.10762
1780.23192,0.10571
1778.30317,0.10365
1776.37443,0.10155
1774.44568,0.09932
1772.51694,0.09671
1770.58819,0.09382
1768.65945,0.09090
1766.73070,0.08783
1764.80196,0.08484
1762.87321,0.08214
1760.94447,0.07960
1759.01572,0.07734
1757.08697,0.07542
1755.15823,0.07377
1753.22948,0.07218
1751.30074,0.07062
1749.37199,0.06937
1747.44325,0.06840
1745.51450,0.06754
1743.58576,0.06682
1741.65701,0.06625
1739.72827,0.06582
1737.79952,0.06564
1735.87078,0.06567
1733.94203,0.06549
1732.01329,0.06518
1730.08454,0.06520
1728.15580,0.06549
1726.22705,0.06578
1724.29830,0.06602
1722.36956,0.06620
1720.44081,0.06638
1718.51207,0.06664
1716.58332,0.06672
1714.65458,0.06657
1712.72583,0.06642
1710.79709,0.06626
1708.86834,0.06610
1706.93960,0.06600
1705.01085,0.06583
1703.08211,0.06553
1701.15336,0.06524
1699.22462,0.06508
1697.29587,0.06503
1695.36713,0.06465
1693.43838,0.06396
1691.50963,0.06349
1689.58089,0.06325
1687.65214,0.06298
1685.72340,0.06251
1683.79465,0.06188
1681.86591,0.06124
1679.93716,0.06069
1678.00842,0.06020
1676.07967,0.05971
1674.15093,0.05925
1672.22218,0.05889
1670.29344,0.05848
1668.36469,0.05801
1666.43595,0.05769
1664.50720,0.05748
1662.57845,0.05710
1660.64971,0.05658
1658.72096,0.05631
1656.79222,0.05641
1654.86347,0.05657
1652.93473,0.05639
1651.00598,0.05614
1649.07724,0.05612
1647.14849,0.05602
1645.21975,0.05569
1643.29100,0.05543
1641.36226,0.05534
1639.43351,0.05537
1637.50477,0.05536
1635.57602,0.05506
1633.64728,0.05450
1631.71853,0.05411
1629.78978,0.05399
1627.86104,0.05390
1625.93229,0.05366
1624.00355,0.05322
1622.07480,0.05270
1620.14606,0.05229
1618.21731,0.05191
1616.28857,0.05148
1614.35982,0.05111
1612.43108,0.05092
1610.50233,0.05081
1608.57359,0.05069
1606.64484,0.05053
1604.71610,0.05027
1602.78735,0.04994
1600.85861,0.04983
1598.92986,0.04992
1597.00111,0.04998
1595.07237,0.04998
1593.14362,0.05002
1591.21488,0.05011
1589.28613,0.05019
1587.35739,0.05044
1585.42864,0.05106
1583.49990,0.05185
1581.57115,0.05243
1579.64241,0.05288
1577.71366,0.05351
1575.78492,0.05401
1573.85617,0.05413
1571.92743,0.05434
1569.99868,0.05479
1568.06993,0.05517
1566.14119,0.05535
1564.21244,0.05545
1562.28370,0.05551
1560.35495,0.05569
1558.42621,0.05621
1556.49746,0.05680
1554.56872,0.05703
1552.63997,0.05702
1550.71123,0.05726
1548.78248,0.05784
1546.85374,0.05837
1544.92499,0.05870
1542.99625,0.05905
1541.06750,0.05949
1539.13876,0.05986
1537.21001,0.06011
1535.28126,0.06022
1533.35252,0.06009
1531.42377,0.05989
1529.49503,0.05978
1527.56628,0.05950
1525.63754,0.05876
1523.70879,0.05771
1521.78005,0.05649
1519.85130,0.05520
1517.92256,0.05404
1515.99381,0.05309
1514.06507,0.05242
1512.13632,0.05202
1510.20758,0.05172
1508.27883,0.05150
1506.35008,0.05146
1504.42134,0.05165
1502.49259,0.05195
1500.56385,0.05230
1498.63510,0.05263
1496.70636,0.05283
1494.77761,0.05296
1492.84887,0.05318
1490.92012,0.05339
1488.99138,0.05328
1487.06263,0.05278
1485.13389,0.05200
1483.20514,0.05116
1481.27640,0.05046
1479.34765,0.04981
1477.41891,0.04892
1475.49016,0.04779
1473.56141,0.04669
1471.63267,0.04582
1469.70392,0.04520
1467.77518,0.04487
1465.84643,0.04483
1463.91769,0.04497
1461.98894,0.04517
1460.06020,0.04528
1458.13145,0.04531
1456.20271,0.04561
1454.27396,0.04616
1452.34522,0.04652
1450.41647,0.04665
1448.48773,0.04676
1446.55898,0.04689
1444.63024,0.04693
1442.70149,0.04695
1440.77274,0.04699
1438.84400,0.04700
1436.91525,0.04681
1434.98651,0.04639
1433.05776,0.04603
1431.12902,0.04593
1429.20027,0.04598
1427.27153,0.04607
1425.34278,0.04613
1423.41404,0.04628
1421.48529,0.04675
1419.55655,0.04745
1417.62780,0.04800
1415.69906,0.04837
1413.77031,0.04876
1411.84156,0.04908
1409.91282,0.04924
1407.98407,0.04930
1406.05533,0.04927
1404.12658,0.04917
1402.19784,0.04897
1400.26909,0.04871
1398.34035,0.04851
1396.41160,0.04827
1394.48286,0.04790
1392.55411,0.04752
1390.62537,0.04723
1388.69662,0.04696
1386.76788,0.04647
1384.83913,0.04582
1382.91039,0.04537
1380.98164,0.04509
1379.05289,0.04471
1377.12415,0.04441
1375.19540,0.04451
1373.26666,0.04486
1371.33791,0.04507
1369.40917,0.04506
1367.48042,0.04512
1365.55168,0.04549
1363.62293,0.04590
1361.69419,0.04595
1359.76544,0.04576
1357.83670,0.04564
1355.90795,0.04568
1353.97921,0.04588
1352.05046,0.04615
1350.12172,0.04622
1348.19297,0.04606
1346.26422,0.04593
1344.33548,0.04579
1342.40673,0.04550
1340.47799,0.04524
1338.54924,0.04513
1336.62050,0.04497
1334.69175,0.04479
1332.76301,0.04477
1330.83426,0.04483
1328.90552,0.04485
1326.97677,0.04488
1325.04803,0.04491
1323.11928,0.04485
1321.19054,0.04473
1319.26179,0.04476
1317.33304,0.04505
1315.40430,0.04551
1313.47555,0.04595
1311.54681,0.04629
1309.61806,0.04655
1307.68932,0.04678
1305.76057,0.04698
1303.83183,0.04714
1301.90308,0.04731
1299.97434,0.04749
1298.04559,0.04763
1296.11685,0.04770
1294.18810,0.04772
1292.25936,0.04762
1290.33061,0.04732
1288.40187,0.04684
1286.47312,0.04636
1284.54437,0.04604
1282.61563,0.04591
1280.68688,0.04592
1278.75814,0.04589
1276.82939,0.04576
1274.90065,0.04571
1272.97190,0.04584
1271.04316,0.04610
1269.11441,0.04628
1267.18567,0.04623
1265.25692,0.04603
1263.32818,0.04598
1261.39943,0.04631
1259.47069,0.04672
1257.54194,0.04669
1255.61320,0.04620
1253.68445,0.04577
1251.75570,0.04564
1249.82696,0.04549
1247.89821,0.04531
1245.96947,0.04535
1244.04072,0.04548
1242.11198,0.04549
1240.18323,0.04553
1238.25449,0.04576
1236.32574,0.04600
1234.39700,0.04612
1232.46825,0.04619
1230.53951,0.04616
1228.61076,0.04607
1226.68202,0.04623
1224.75327,0.04670
1222.82452,0.04712
1220.89578,0.04730
1218.96703,0.04738
1217.03829,0.04746
1215.10954,0.04747
1213.18080,0.04731
1211.25205,0.04713
1209.32331,0.04708
1207.39456,0.04713
1205.46582,0.04730
1203.53707,0.04752
1201.60833,0.04754
1199.67958,0.04745
1197.75084,0.04757
1195.82209,0.04790
1193.89335,0.04822
1191.96460,0.04847
1190.03585,0.04880
1188.10711,0.04914
1186.17836,0.04918
1184.24962,0.04883
1182.32087,0.04833
1180.39213,0.04768
1178.46338,0.04703
1176.53464,0.04649
1174.60589,0.04584
1172.67715,0.04509
1170.74840,0.04441
1168.81966,0.04383
1166.89091,0.04347
1164.96217,0.04338
1163.03342,0.04344
1161.10467,0.04354
1159.17593,0.04359
1157.24718,0.04344
1155.31844,0.04312
1153.38969,0.04269
1151.46095,0.04220
1149.53220,0.04185
1147.60346,0.04164
1145.67471,0.04134
1143.74597,0.04082
1141.81722,0.04018
1139.88848,0.03963
1137.95973,0.03908
1136.03099,0.03839
1134.10224,0.03787
1132.17350,0.03757
1130.24475,0.03709
1128.31600,0.03661
1126.38726,0.03660
1124.45851,0.03681
1122.52977,0.03686
1120.60102,0.03692
1118.67228,0.03722
1116.74353,0.03765
1114.81479,0.03789
1112.88604,0.03802
1110.95730,0.03835
1109.02855,0.03879
1107.09981,0.03930
1105.17106,0.03995
1103.24232,0.04044
1101.31357,0.04046
1099.38483,0.04018
1097.45608,0.03984
1095.52733,0.03958
1093.59859,0.03939
1091.66984,0.03922
1089.74110,0.03900
1087.81235,0.03896
1085.88361,0.03937
1083.95486,0.03998
1082.02612,0.04046
1080.09737,0.04092
1078.16863,0.04148
1076.23988,0.04225
1074.31114,0.04319
1072.38239,0.04416
1070.45365,0.04538
1068.52490,0.04713
1066.59615,0.04933
1064.66741,0.05177
1062.73866,0.05434
1060.80992,0.05684
1058.88117,0.05890
1056.95243,0.06005
1055.02368,0.06044
1053.09494,0.06056
1051.16619,0.06049
1049.23745,0.06002
1047.30870,0.05914
1045.37996,0.05810
1043.45121,0.05751
1041.52247,0.05791
1039.59372,0.05926
1037.66498,0.06123
1035.73623,0.06344
1033.80748,0.06533
1031.87874,0.06652
1029.94999,0.06692
1028.02125,0.06682
1026.09250,0.06663
1024.16376,0.06639
1022.23501,0.06596
1020.30627,0.06576
1018.37752,0.06603
1016.44878,0.06618
1014.52003,0.06602
1012.59129,0.06620
1010.66254,0.06673
1008.73380,0.06690
1006.80505,0.06647
1004.87631,0.06599
1002.94756,0.06584
1001.01881,0.06596
999.09007,0.06623
997.16132,0.06654
995.23258,0.06682
993.30383,0.06702
991.37509,0.06710
989.44634,0.06730
987.51760,0.06794
985.58885,0.06893
983.66011,0.06993
981.73136,0.07076
979.80262,0.07131
977.87387,0.07151
975.94513,0.07167
974.01638,0.07203
972.08763,0.07235
970.15889,0.07247
968.23014,0.07267
966.30140,0.07305
964.37265,0.07354
962.44391,0.07418
960.51516,0.07499
958.58642,0.07570
956.65767,0.07630
954.72893,0.07705
952.80018,0.07782
950.87144,0.07836
948.94269,0.07877
947.01395,0.07919
945.08520,0.07939
943.15646,0.07912
941.22771,0.07859
939.29896,0.07827
937.37022,0.07826
935.44147,0.07843
933.51273,0.07861
931.58398,0.07851
929.65524,0.07815
927.72649,0.07767
925.79775,0.07723
923.86900,0.07701
921.94026,0.07666
920.01151,0.07592
918.08277,0.07515
916.15402,0.07464
914.22528,0.07421
912.29653,0.07353
910.36779,0.07265
908.43904,0.07176
906.51029,0.07065
904.58155,0.06924
902.65280,0.06803
900.72406,0.06747
898.79531,0.06751
896.86657,0.06783
894.93782,0.06820
893.00908,0.06851
891.08033,0.06895
889.15159,0.06975
887.22284,0.07071
885.29410,0.07138
883.36535,0.07168
881.43661,0.07178
879.50786,0.07169
877.57911,0.07155
875.65037,0.07143
873.72162,0.07115
871.79288,0.07102
869.86413,0.07154
867.93539,0.07223
866.00664,0.07245
864.07790,0.07226
862.14915,0.07183
860.22041,0.07147
858.29166,0.07158
856.36292,0.07192
854.43417,0.07215
852.50543,0.07223
850.57668,0.07220
848.64794,0.07209
846.71919,0.07191
844.79044,0.07147
842.86170,0.07073
840.93295,0.07005
839.00421,0.06974
837.07546,0.06957
835.14672,0.06936
833.21797,0.06931
831.28923,0.06944
829.36048,0.06930
827.43174,0.06864
825.50299,0.06778
823.57425,0.06708
821.64550,0.06645
819.71676,0.06590
817.78801,0.06569
815.85926,0.06568
813.93052,0.06551
812.00177,0.06535
810.07303,0.06552
808.14428,0.06580
806.21554,0.06586
804.28679,0.06584
802.35805,0.06590
800.42930,0.06588
798.50056,0.06557
796.57181,0.06502
794.64307,0.06467
792.71432,0.06466
790.78558,0.06465
788.85683,0.06459
786.92809,0.06452
784.99934,0.06419
783.07059,0.06356
781.14185,0.06307
779.21310,0.06292
777.28436,0.06295
775.35561,0.06289
773.42687,0.06264
771.49812,0.06221
769.56938,0.06180
767.64063,0.06160
765.71189,0.06141
763.78314,0.06073
761.85440,0.05981
759.92565,0.05920
757.99691,0.05878
756.06816,0.05841
754.13942,0.05827
752.21067,0.05811
750.28192,0.05766
748.35318,0.05725
746.42443,0.05702
744.49569,0.05663
742.56694,0.05610
740.63820,0.05578
738.70945,0.05570
736.78071,0.05573
734.85196,0.05565
732.92322,0.05533
730.99447,0.05466
729.06573,0.05385
727.13698,0.05332
725.20824,0.05298
723.27949,0.05253
721.35074,0.05203
719.42200,0.05175
717.49325,0.05210
715.56451,0.05263
713.63576,0.05228
711.70702,0.05159
709.77827,0.05174
707.84953,0.05251
705.92078,0.05294
703.99204,0.05284
702.06329,0.05267
700.13455,0.05219
698.20580,0.05121
696.27706,0.05049
694.34831,0.05052
692.41957,0.05101
690.49082,0.05124
688.56207,0.05092
686.63333,0.05059
684.70458,0.05073
682.77584,0.05093
680.84709,0.05052
678.91835,0.04984
676.98960,0.04962
675.06086,0.04926
673.13211,0.04850
671.20337,0.04838
669.27462,0.04903
667.34588,0.04965
665.41713,0.05001
663.48839,0.05029
661.55964,0.05058
659.63090,0.05108
657.70215,0.05148
655.77340,0.05145
653.84466,0.05119
651.91591,0.05094
649.98717,0.05081
648.05842,0.05082
646.12968,0.05089
644.20093,0.05096
642.27219,0.05063
640.34344,0.04981
638.41470,0.04934
636.48595,0.04951
634.55721,0.04956
632.62846,0.04904
630.69972,0.04823
628.77097,0.04743
626.84222,0.04682
624.91348,0.04686
622.98473,0.04753
621.05599,0.04851
619.12724,0.04983
617.19850,0.05069
615.26975,0.05047
613.34101,0.05001
611.41226,0.04949
609.48352,0.04933
607.55477,0.05057
605.62603,0.05233
603.69728,0.05317
601.76854,0.05321
599.83979,0.05291
