7497.03301,0.02787
7495.10426,0.02928
7493.17552,0.02798
7491.24677,0.03122
7489.31803,0.03366
7487.38928,0.02928
7485.46054,0.02288
7483.53179,0.02244
7481.60305,0.02390
7479.67430,0.02176
7477.74556,0.01983
7475.81681,0.02033
7473.88807,0.01862
7471.95932,0.01560
7470.03057,0.01539
7468.10183,0.02157
7466.17308,0.02861
7464.24434,0.02865
7462.31559,0.02306
7460.38685,0.02189
7458.45810,0.02441
7456.52936,0.02319
7454.60061,0.01996
7452.67187,0.01962
7450.74312,0.02214
7448.81438,0.02477
7446.88563,0.02439
7444.95689,0.02312
7443.02814,0.02151
7441.09940,0.01995
7439.17065,0.01968
7437.24190,0.01921
7435.31316,0.01906
7433.38441,0.02322
7431.45567,0.02859
7429.52692,0.03010
7427.59818,0.02995
7425.66943,0.03028
7423.74069,0.02962
7421.81194,0.02770
7419.88320,0.02452
7417.95445,0.02045
7416.02571,0.01694
7414.09696,0.01843
7412.16822,0.02489
7410.23947,0.02858
7408.31073,0.02501
7406.38198,0.02189
7404.45323,0.02201
7402.52449,0.02151
7400.59574,0.02015
7398.66700,0.02190
7396.73825,0.02666
7394.80951,0.02983
7392.88076,0.02963
7390.95202,0.02848
7389.02327,0.02591
7387.09453,0.02400
7385.16578,0.02700
7383.23704,0.03115
7381.30829,0.02818
7379.37955,0.02138
7377.45080,0.01766
7375.52205,0.01904
7373.59331,0.02171
7371.66456,0.02172
7369.73582,0.01968
7367.80707,0.02191
7365.87833,0.02805
7363.94958,0.03100
7362.02084,0.02924
7360.09209,0.02384
7358.16335,0.01653
7356.23460,0.01355
7354.30586,0.01616
7352.37711,0.02043
7350.44837,0.02352
7348.51962,0.02556
7346.59088,0.02738
7344.66213,0.02854
7342.73338,0.02515
7340.80464,0.01796
7338.87589,0.01376
7336.94715,0.01588
7335.01840,0.01982
7333.08966,0.02365
7331.16091,0.02460
7329.23217,0.02399
7327.30342,0.02412
7325.37468,0.02354
7323.44593,0.02285
7321.51719,0.02465
7319.58844,0.02574
7317.65970,0.02426
7315.73095,0.02292
7313.80221,0.02291
7311.87346,0.02251
7309.94471,0.02255
7308.01597,0.02473
7306.08722,0.02758
7304.15848,0.02776
7302.22973,0.02622
7300.30099,0.02604
7298.37224,0.02739
7296.44350,0.02747
7294.51475,0.02854
7292.58601,0.02843
7290.65726,0.02339
7288.72852,0.01827
7286.79977,0.01882
7284.87103,0.02273
7282.94228,0.02443
7281.01353,0.02265
7279.08479,0.02063
7277.15604,0.02195
7275.22730,0.02804
7273.29855,0.03302
7271.36981,0.02928
7269.44106,0.02106
7267.51232,0.01761
7265.58357,0.01990
7263.65483,0.02395
7261.72608,0.02526
7259.79734,0.02447
7257.86859,0.02642
7255.93985,0.03150
7254.01110,0.03492
7252.08236,0.03369
7250.15361,0.02998
7248.22486,0.02796
7246.29612,0.02690
7244.36737,0.02501
7242.43863,0.02356
7240.50988,0.02328
7238.58114,0.02372
7236.65239,0.02699
7234.72365,0.03318
7232.79490,0.03801
7230.86616,0.03794
7228.93741,0.03433
7227.00867,0.03005
7225.07992,0.02824
7223.15118,0.02931
7221.22243,0.02865
7219.29369,0.02417
7217.36494,0.02009
7215.43619,0.01838
7213.50745,0.01722
7211.57870,0.01584
7209.64996,0.01556
7207.72121,0.01859
7205.79247,0.02252
7203.86372,0.02406
7201.93498,0.02435
7200.00623,0.02281
7198.07749,0.02085
7196.14874,0.02118
7194.22000,0.02241
7192.29125,0.02179
7190.36251,0.02242
7188.43376,0.02636
7186.50501,0.02922
7184.57627,0.02805
7182.64752,0.02672
7180.71878,0.02615
7178.79003,0.02444
7176.86129,0.02457
7174.93254,0.02805
7173.00380,0.02980
7171.07505,0.02856
7169.14631,0.02676
7167.21756,0.02548
7165.28882,0.02340
7163.36007,0.02256
7161.43133,0.02425
7159.50258,0.02479
7157.57384,0.02479
7155.64509,0.02763
7153.71634,0.02926
7151.78760,0.02734
7149.85885,0.02602
7147.93011,0.02693
7146.00136,0.02761
7144.07262,0.02730
7142.14387,0.02684
7140.21513,0.02602
7138.28638,0.02559
7136.35764,0.02572
7134.42889,0.02364
7132.50015,0.02055
7130.57140,0.02111
7128.64266,0.02481
7126.71391,0.02816
7124.78516,0.03043
7122.85642,0.03160
7120.92767,0.03194
7118.99893,0.03316
7117.07018,0.03452
7115.14144,0.03301
7113.21269,0.02928
7111.28395,0.02644
7109.35520,0.02548
7107.42646,0.02544
7105.49771,0.02703
7103.56897,0.03069
7101.64022,0.03344
7099.71148,0.03166
7097.78273,0.02518
7095.85399,0.01911
7093.92524,0.01943
7091.99649,0.02221
7090.06775,0.02287
7088.13900,0.02394
7086.21026,0.02568
7084.28151,0.02284
7082.35277,0.01631
7080.42402,0.01318
7078.49528,0.01459
7076.56653,0.01681
7074.63779,0.01937
7072.70904,0.02253
7070.78030,0.02469
7068.85155,0.02438
7066.92281,0.02193
7064.99406,0.02022
7063.06532,0.02168
7061.13657,0.02397
7059.20782,0.02483
7057.27908,0.02376
7055.35033,0.02145
7053.42159,0.02064
7051.49284,0.02335
7049.56410,0.02672
7047.63535,0.02784
7045.70661,0.02662
7043.77786,0.02348
7041.84912,0.02083
7039.92037,0.02173
7037.99163,0.02524
7036.06288,0.02700
7034.13414,0.02477
7032.20539,0.02227
7030.27664,0.02304
7028.34790,0.02654
7026.41915,0.02973
7024.49041,0.02953
7022.56166,0.02707
7020.63292,0.02645
7018.70417,0.02777
7016.77543,0.02853
7014.84668,0.02706
7012.91794,0.02461
7010.98919,0.02286
7009.06045,0.02206
7007.13170,0.02176
7005.20296,0.02302
7003.27421,0.02432
7001.34547,0.02504
6999.41672,0.02726
6997.48797,0.03031
6995.55923,0.03101
6993.63048,0.02851
6991.70174,0.02516
6989.77299,0.02330
6987.84425,0.02220
6985.91550,0.02189
6983.98676,0.02255
6982.05801,0.02385
6980.12927,0.02433
6978.20052,0.02259
6976.27178,0.02136
6974.34303,0.02364
6972.41429,0.02551
6970.48554,0.02383
6968.55680,0.02122
6966.62805,0.02001
6964.69930,0.02015
6962.77056,0.02206
6960.84181,0.02401
6958.91307,0.02359
6956.98432,0.02231
6955.05558,0.02232
6953.12683,0.02278
6951.19809,0.02223
6949.26934,0.01995
6947.34060,0.01707
6945.41185,0.01483
6943.48311,0.01402
6941.55436,0.01542
6939.62562,0.01885
6937.69687,0.02084
6935.76812,0.02051
6933.83938,0.02064
6931.91063,0.02050
6929.98189,0.01878
6928.05314,0.01755
6926.12440,0.01821
6924.19565,0.01996
6922.26691,0.02103
6920.33816,0.02211
6918.40942,0.02451
6916.48067,0.02674
6914.55193,0.02785
6912.62318,0.02804
6910.69444,0.02694
6908.76569,0.02503
6906.83695,0.02321
6904.90820,0.02170
6902.97945,0.02111
6901.05071,0.02178
6899.12196,0.02186
6897.19322,0.02109
6895.26447,0.02082
6893.33573,0.02186
6891.40698,0.02280
6889.47824,0.02158
6887.54949,0.01876
6885.62075,0.01877
6883.69200,0.02175
6881.76326,0.02398
6879.83451,0.02503
6877.90577,0.02635
6875.97702,0.02703
6874.04828,0.02650
6872.11953,0.02490
6870.19078,0.02517
6868.26204,0.02828
6866.33329,0.02938
6864.40455,0.02630
6862.47580,0.02295
6860.54706,0.02272
6858.61831,0.02399
6856.68957,0.02354
6854.76082,0.02309
6852.83208,0.02542
6850.90333,0.02819
6848.97459,0.02876
6847.04584,0.02830
6845.11710,0.02781
6843.18835,0.02727
6841.25960,0.02608
6839.33086,0.02487
6837.40211,0.02408
6835.47337,0.02232
6833.54462,0.01908
6831.61588,0.01770
6829.68713,0.02010
6827.75839,0.02309
6825.82964,0.02450
6823.90090,0.02550
6821.97215,0.02519
6820.04341,0.02285
6818.11466,0.02064
6816.18592,0.02033
6814.25717,0.02140
6812.32843,0.02294
6810.39968,0.02441
6808.47093,0.02665
6806.54219,0.02734
6804.61344,0.02535
6802.68470,0.02532
6800.75595,0.02792
6798.82721,0.02828
6796.89846,0.02580
6794.96972,0.02306
6793.04097,0.02164
6791.11223,0.02193
6789.18348,0.02389
6787.25474,0.02511
6785.32599,0.02403
6783.39725,0.02302
6781.46850,0.02376
6779.53975,0.02489
6777.61101,0.02429
6775.68226,0.02172
6773.75352,0.02020
6771.82477,0.02062
6769.89603,0.02022
6767.96728,0.01919
6766.03854,0.02049
6764.10979,0.02378
6762.18105,0.02618
6760.25230,0.02564
6758.32356,0.02295
6756.39481,0.02096
6754.46607,0.02179
6752.53732,0.02421
6750.60858,0.02599
6748.67983,0.02647
6746.75108,0.02753
6744.82234,0.02772
6742.89359,0.02481
6740.96485,0.02121
6739.03610,0.02046
6737.10736,0.02228
6735.17861,0.02403
6733.24987,0.02361
6731.32112,0.02254
6729.39238,0.02316
6727.46363,0.02395
6725.53489,0.02322
6723.60614,0.02240
6721.67740,0.02300
6719.74865,0.02411
6717.81991,0.02384
6715.89116,0.02278
6713.96241,0.02207
6712.03367,0.02211
6710.10492,0.02324
6708.17618,0.02462
6706.24743,0.02503
6704.31869,0.02373
6702.38994,0.02147
6700.46120,0.02165
6698.53245,0.02319
6696.60371,0.02361
6694.67496,0.02359
6692.74622,0.02330
6690.81747,0.02246
6688.88873,0.02315
6686.95998,0.02436
6685.03123,0.02552
6683.10249,0.02604
6681.17374,0.02550
6679.24500,0.02528
6677.31625,0.02534
6675.38751,0.02373
6673.45876,0.02213
6671.53002,0.02230
6669.60127,0.02204
6667.67253,0.01988
6665.74378,0.01938
6663.81504,0.02163
6661.88629,0.02267
6659.95755,0.02144
6658.02880,0.02051
6656.10006,0.01998
6654.17131,0.02023
6652.24256,0.02252
6650.31382,0.02561
6648.38507,0.02692
6646.45633,0.02554
6644.52758,0.02288
6642.59884,0.02079
6640.67009,0.02063
6638.74135,0.02119
6636.81260,0.01983
6634.88386,0.01848
6632.95511,0.01967
6631.02637,0.02203
6629.09762,0.02210
6627.16888,0.01974
6625.24013,0.01809
6623.31139,0.01871
6621.38264,0.02010
6619.45389,0.02128
6617.52515,0.02140
6615.59640,0.02094
6613.66766,0.02160
6611.73891,0.02303
6609.81017,0.02313
6607.88142,0.02191
6605.95268,0.02017
6604.02393,0.01879
6602.09519,0.01936
6600.16644,0.02145
6598.23770,0.02199
6596.30895,0.02114
6594.38021,0.02226
6592.45146,0.02409
6590.52271,0.02320
6588.59397,0.02160
6586.66522,0.02200
6584.73648,0.02273
6582.80773,0.02217
6580.87899,0.02150
6578.95024,0.02165
6577.02150,0.02232
6575.09275,0.02260
6573.16401,0.02232
6571.23526,0.02161
6569.30652,0.02103
6567.37777,0.02223
6565.44903,0.02425
6563.52028,0.02443
6561.59154,0.02314
6559.66279,0.02220
6557.73404,0.02316
6555.80530,0.02496
6553.87655,0.02583
6551.94781,0.02650
6550.01906,0.02780
6548.09032,0.02896
6546.16157,0.02956
6544.23283,0.02875
6542.30408,0.02662
6540.37534,0.02512
6538.44659,0.02465
6536.51785,0.02398
6534.58910,0.02368
6532.66036,0.02455
6530.73161,0.02552
6528.80287,0.02511
6526.87412,0.02368
6524.94537,0.02298
6523.01663,0.02366
6521.08788,0.02481
6519.15914,0.02549
6517.23039,0.02496
6515.30165,0.02409
6513.37290,0.02424
6511.44416,0.02443
6509.51541,0.02407
6507.58667,0.02377
6505.65792,0.02272
6503.72918,0.02095
6501.80043,0.02038
6499.87169,0.02236
6497.94294,0.02466
6496.01419,0.02521
6494.08545,0.02569
6492.15670,0.02659
6490.22796,0.02623
6488.29921,0.02562
6486.37047,0.02578
6484.44172,0.02614
6482.51298,0.02651
6480.58423,0.02599
6478.65549,0.02381
6476.72674,0.02150
6474.79800,0.02113
6472.86925,0.02314
6470.94051,0.02551
6469.01176,0.02579
6467.08302,0.02375
6465.15427,0.02243
6463.22552,0.02295
6461.29678,0.02365
6459.36803,0.02374
6457.43929,0.02339
6455.51054,0.02259
6453.58180,0.02133
6451.65305,0.01981
6449.72431,0.02006
6447.79556,0.02303
6445.86682,0.02600
6443.93807,0.02593
6442.00933,0.02332
6440.08058,0.02130
6438.15184,0.02152
6436.22309,0.02243
6434.29434,0.02349
6432.36560,0.02497
6430.43685,0.02556
6428.50811,0.02501
6426.57936,0.02398
6424.65062,0.02243
6422.72187,0.02192
6420.79313,0.02314
6418.86438,0.02462
6416.93564,0.02503
6415.00689,0.02385
6413.07815,0.02246
6411.14940,0.02253
6409.22066,0.02209
6407.29191,0.02028
6405.36317,0.02001
6403.43442,0.02224
6401.50567,0.02465
6399.57693,0.02515
6397.64818,0.02365
6395.71944,0.02234
6393.79069,0.02187
6391.86195,0.02180
6389.93320,0.02211
6388.00446,0.02174
6386.07571,0.02062
6384.14697,0.02080
6382.21822,0.02132
6380.28948,0.02063
6378.36073,0.02011
6376.43199,0.02068
6374.50324,0.02169
6372.57450,0.02337
6370.64575,0.02525
6368.71700,0.02596
6366.78826,0.02517
6364.85951,0.02424
6362.93077,0.02382
6361.00202,0.02333
6359.07328,0.02327
6357.14453,0.02448
6355.21579,0.02553
6353.28704,0.02499
6351.35830,0.02342
6349.42955,0.02232
6347.50081,0.02190
6345.57206,0.02138
6343.64332,0.02056
6341.71457,0.02021
6339.78582,0.01990
6337.85708,0.01814
6335.92833,0.01680
6333.99959,0.01879
6332.07084,0.02151
6330.14210,0.02156
6328.21335,0.02091
6326.28461,0.02161
6324.35586,0.02261
6322.42712,0.02289
6320.49837,0.02188
6318.56963,0.02102
6316.64088,0.02156
6314.71214,0.02233
6312.78339,0.02303
6310.85465,0.02414
6308.92590,0.02525
6306.99715,0.02571
6305.06841,0.02389
6303.13966,0.02053
6301.21092,0.01893
6299.28217,0.01941
6297.35343,0.02044
6295.42468,0.02258
6293.49594,0.02546
6291.56719,0.02655
6289.63845,0.02500
6287.70970,0.02344
6285.78096,0.02335
6283.85221,0.02224
6281.92347,0.01984
6279.99472,0.02014
6278.06598,0.02293
6276.13723,0.02463
6274.20848,0.02512
6272.27974,0.02490
6270.35099,0.02355
6268.42225,0.02261
6266.49350,0.02262
6264.56476,0.02260
6262.63601,0.02179
6260.70727,0.02126
6258.77852,0.02231
6256.84978,0.02337
6254.92103,0.02280
6252.99229,0.02204
6251.06354,0.02200
6249.13480,0.02196
6247.20605,0.02173
6245.27730,0.02208
6243.34856,0.02307
6241.41981,0.02456
6239.49107,0.02541
6237.56232,0.02514
6235.63358,0.02439
6233.70483,0.02392
6231.77609,0.02381
6229.84734,0.02415
6227.91860,0.02454
6225.98985,0.02474
6224.06111,0.02444
6222.13236,0.02346
6220.20362,0.02272
6218.27487,0.02366
6216.34613,0.02478
6214.41738,0.02477
6212.48863,0.02448
6210.55989,0.02459
6208.63114,0.02480
6206.70240,0.02543
6204.77365,0.02694
6202.84491,0.02735
6200.91616,0.02513
6198.98742,0.02260
6197.05867,0.02147
6195.12993,0.02149
6193.20118,0.02293
6191.27244,0.02519
6189.34369,0.02631
6187.41495,0.02538
6185.48620,0.02328
6183.55746,0.02160
6181.62871,0.02096
6179.69996,0.02087
6177.77122,0.02075
6175.84247,0.02115
6173.91373,0.02264
6171.98498,0.02416
6170.05624,0.02476
6168.12749,0.02503
6166.19875,0.02474
6164.27000,0.02323
6162.34126,0.02191
6160.41251,0.02260
6158.48377,0.02444
6156.55502,0.02575
6154.62628,0.02565
6152.69753,0.02360
6150.76878,0.02075
6148.84004,0.01953
6146.91129,0.02063
6144.98255,0.02249
6143.05380,0.02299
6141.12506,0.02211
6139.19631,0.02121
6137.26757,0.02187
6135.33882,0.02372
6133.41008,0.02468
6131.48133,0.02423
6129.55259,0.02345
6127.62384,0.02335
6125.69510,0.02385
6123.76635,0.02345
6121.83761,0.02234
6119.90886,0.02248
6117.98011,0.02400
6116.05137,0.02526
6114.12262,0.02502
6112.19388,0.02373
6110.26513,0.02336
6108.33639,0.02404
6106.40764,0.02399
6104.47890,0.02289
6102.55015,0.02159
6100.62141,0.02066
6098.69266,0.02093
6096.76392,0.02153
6094.83517,0.02124
6092.90643,0.02065
6090.97768,0.02016
6089.04893,0.02062
6087.12019,0.02280
6085.19144,0.02419
6083.26270,0.02359
6081.33395,0.02320
6079.40521,0.02392
6077.47646,0.02459
6075.54772,0.02399
6073.61897,0.02311
6071.69023,0.02403
6069.76148,0.02551
6067.83274,0.02496
6065.90399,0.02344
6063.97525,0.02377
6062.04650,0.02572
6060.11776,0.02716
6058.18901,0.02727
6056.26026,0.02596
6054.33152,0.02372
6052.40277,0.02163
6050.47403,0.02041
6048.54528,0.02076
6046.61654,0.02160
6044.68779,0.02199
6042.75905,0.02258
6040.83030,0.02331
6038.90156,0.02305
6036.97281,0.02248
6035.04407,0.02232
6033.11532,0.02192
6031.18658,0.02165
6029.25783,0.02207
6027.32909,0.02244
6025.40034,0.02279
6023.47159,0.02358
6021.54285,0.02397
6019.61410,0.02333
6017.68536,0.02244
6015.75661,0.02193
6013.82787,0.02221
6011.89912,0.02315
6009.97038,0.02318
6008.04163,0.02166
6006.11289,0.02082
6004.18414,0.02151
6002.25540,0.02227
6000.32665,0.02230
5998.39791,0.02173
5996.46916,0.02136
5994.54041,0.02218
5992.61167,0.02306
5990.68292,0.02241
5988.75418,0.02087
5986.82543,0.02010
5984.89669,0.02065
5982.96794,0.02190
5981.03920,0.02286
5979.11045,0.02314
5977.18171,0.02258
5975.25296,0.02226
5973.32422,0.02272
5971.39547,0.02310
5969.46673,0.02354
5967.53798,0.02426
5965.60924,0.02421
5963.68049,0.02382
5961.75174,0.02441
5959.82300,0.02530
5957.89425,0.02515
5955.96551,0.02440
5954.03676,0.02370
5952.10802,0.02322
5950.17927,0.02290
5948.25053,0.02206
5946.32178,0.02121
5944.39304,0.02193
5942.46429,0.02348
5940.53555,0.02386
5938.60680,0.02314
5936.67806,0.02276
5934.74931,0.02257
5932.82057,0.02140
5930.89182,0.02010
5928.96307,0.02074
5927.03433,0.02302
5925.10558,0.02486
5923.17684,0.02501
5921.24809,0.02364
5919.31935,0.02184
5917.39060,0.02139
5915.46186,0.02272
5913.53311,0.02359
5911.60437,0.02243
5909.67562,0.02107
5907.74688,0.02171
5905.81813,0.02323
5903.88939,0.02355
5901.96064,0.02285
5900.03189,0.02221
5898.10315,0.02207
5896.17440,0.02168
5894.24566,0.02074
5892.31691,0.02048
5890.38817,0.02142
5888.45942,0.02252
5886.53068,0.02269
5884.60193,0.02157
5882.67319,0.02135
5880.74444,0.02326
5878.81570,0.02464
5876.88695,0.02371
5874.95821,0.02248
5873.02946,0.02267
5871.10072,0.02394
5869.17197,0.02476
5867.24322,0.02415
5865.31448,0.02338
5863.38573,0.02369
5861.45699,0.02424
5859.52824,0.02456
5857.59950,0.02445
5855.67075,0.02320
5853.74201,0.02122
5851.81326,0.01969
5849.88452,0.01899
5847.95577,0.01953
5846.02703,0.02110
5844.09828,0.02226
5842.16954,0.02221
5840.24079,0.02133
5838.31205,0.02041
5836.38330,0.02008
5834.45455,0.02031
5832.52581,0.02103
5830.59706,0.02201
5828.66832,0.02255
5826.73957,0.02213
5824.81083,0.02087
5822.88208,0.02003
5820.95334,0.02046
5819.02459,0.02069
5817.09585,0.02032
5815.16710,0.02047
5813.23836,0.02110
5811.30961,0.02128
5809.38087,0.02093
5807.45212,0.02060
5805.52337,0.02059
5803.59463,0.02095
5801.66588,0.02180
5799.73714,0.02250
5797.80839,0.02269
5795.87965,0.02227
5793.95090,0.02167
5792.02216,0.02140
5790.09341,0.02139
5788.16467,0.02230
5786.23592,0.02429
5784.30718,0.02573
5782.37843,0.02596
5780.44969,0.02515
5778.52094,0.02376
5776.59220,0.02296
5774.66345,0.02267
5772.73470,0.02208
5770.80596,0.02178
5768.87721,0.02215
5766.94847,0.02240
5765.01972,0.02227
5763.09098,0.02241
5761.16223,0.02249
5759.23349,0.02180
5757.30474,0.02108
5755.37600,0.02079
5753.44725,0.02072
5751.51851,0.02128
5749.58976,0.02208
5747.66102,0.02256
5745.73227,0.02328
5743.80352,0.02422
5741.87478,0.02464
5739.94603,0.02480
5738.01729,0.02484
5736.08854,0.02430
5734.15980,0.02328
5732.23105,0.02236
5730.30231,0.02180
5728.37356,0.02182
5726.44482,0.02264
5724.51607,0.02364
5722.58733,0.02397
5720.65858,0.02372
5718.72984,0.02309
5716.80109,0.02227
5714.87235,0.02157
5712.94360,0.02118
5711.01485,0.02135
5709.08611,0.02217
5707.15736,0.02277
5705.22862,0.02244
5703.29987,0.02166
5701.37113,0.02120
5699.44238,0.02139
5697.51364,0.02215
5695.58489,0.02304
5693.65615,0.02347
5691.72740,0.02281
5689.79866,0.02190
5687.86991,0.02237
5685.94117,0.02295
5684.01242,0.02186
5682.08368,0.02094
5680.15493,0.02171
5678.22618,0.02298
5676.29744,0.02388
5674.36869,0.02445
5672.43995,0.02445
5670.51120,0.02370
5668.58246,0.02289
5666.65371,0.02267
5664.72497,0.02258
5662.79622,0.02258
5660.86748,0.02288
5658.93873,0.02280
5657.00999,0.02217
5655.08124,0.02170
5653.15250,0.02186
5651.22375,0.02268
5649.29500,0.02376
5647.36626,0.02441
5645.43751,0.02395
5643.50877,0.02289
5641.58002,0.02239
5639.65128,0.02234
5637.72253,0.02206
5635.79379,0.02195
5633.86504,0.02296
5631.93630,0.02470
5630.00755,0.02522
5628.07881,0.02405
5626.15006,0.02316
5624.22132,0.02361
5622.29257,0.02416
5620.36383,0.02383
5618.43508,0.02291
5616.50633,0.02216
5614.57759,0.02215
5612.64884,0.02239
5610.72010,0.02229
5608.79135,0.02249
5606.86261,0.02294
5604.93386,0.02242
5603.00512,0.02126
5601.07637,0.02099
5599.14763,0.02154
5597.21888,0.02201
5595.29014,0.02219
5593.36139,0.02215
5591.43265,0.02184
5589.50390,0.02149
5587.57516,0.02135
5585.64641,0.02140
5583.71766,0.02155
5581.78892,0.02192
5579.86017,0.02256
5577.93143,0.02314
5576.00268,0.02308
5574.07394,0.02247
5572.14519,0.02212
5570.21645,0.02218
5568.28770,0.02238
5566.35896,0.02249
5564.43021,0.02242
5562.50147,0.02236
5560.57272,0.02225
5558.64398,0.02227
5556.71523,0.02280
5554.78648,0.02356
5552.85774,0.02374
5550.92899,0.02313
5549.00025,0.02266
5547.07150,0.02299
5545.14276,0.02318
5543.21401,0.02251
5541.28527,0.02197
5539.35652,0.02235
5537.42778,0.02284
5535.49903,0.02269
5533.57029,0.02240
5531.64154,0.02249
5529.71280,0.02297
5527.78405,0.02391
5525.85531,0.02494
5523.92656,0.02483
5521.99781,0.02353
5520.06907,0.02261
5518.14032,0.02257
5516.21158,0.02263
5514.28283,0.02253
5512.35409,0.02267
5510.42534,0.02297
5508.49660,0.02255
5506.56785,0.02137
5504.63911,0.02101
5502.71036,0.02179
5500.78162,0.02226
5498.85287,0.02232
5496.92413,0.02284
5494.99538,0.02340
5493.06664,0.02362
5491.13789,0.02369
5489.20914,0.02380
5487.28040,0.02348
5485.35165,0.02244
5483.42291,0.02195
5481.49416,0.02272
5479.56542,0.02390
5477.63667,0.02458
5475.70793,0.02434
5473.77918,0.02343
5471.85044,0.02252
5469.92169,0.02210
5467.99295,0.02215
5466.06420,0.02245
5464.13546,0.02296
5462.20671,0.02318
5460.27796,0.02226
5458.34922,0.02111
5456.42047,0.02156
5454.49173,0.02305
5452.56298,0.02378
5450.63424,0.02408
5448.70549,0.02444
5446.77675,0.02426
5444.84800,0.02383
5442.91926,0.02386
5440.99051,0.02435
5439.06177,0.02483
5437.13302,0.02469
5435.20428,0.02470
5433.27553,0.02568
5431.34679,0.02608
5429.41804,0.02507
5427.48929,0.02446
5425.56055,0.02479
5423.63180,0.02470
5421.70306,0.02399
5419.77431,0.02345
5417.84557,0.02333
5415.91682,0.02365
5413.98808,0.02379
5412.05933,0.02324
5410.13059,0.02299
5408.20184,0.02313
5406.27310,0.02286
5404.34435,0.02267
5402.41561,0.02285
5400.48686,0.02291
5398.55811,0.02286
5396.62937,0.02312
5394.70062,0.02370
5392.77188,0.02371
5390.84313,0.02250
5388.91439,0.02118
5386.98564,0.02080
5385.05690,0.02108
5383.12815,0.02171
5381.19941,0.02245
5379.27066,0.02290
5377.34192,0.02322
5375.41317,0.02364
5373.48443,0.02430
5371.55568,0.02511
5369.62694,0.02512
5367.69819,0.02397
5365.76944,0.02329
5363.84070,0.02409
5361.91195,0.02485
5359.98321,0.02454
5358.05446,0.02399
5356.12572,0.02407
5354.19697,0.02470
5352.26823,0.02474
5350.33948,0.02369
5348.41074,0.02253
5346.48199,0.02209
5344.55325,0.02238
5342.62450,0.02272
5340.69576,0.02266
5338.76701,0.02266
5336.83827,0.02280
5334.90952,0.02257
5332.98077,0.02232
5331.05203,0.02260
5329.12328,0.02282
5327.19454,0.02295
5325.26579,0.02371
5323.33705,0.02506
5321.40830,0.02591
5319.47956,0.02535
5317.55081,0.02379
5315.62207,0.02255
5313.69332,0.02245
5311.76458,0.02322
5309.83583,0.02392
5307.90709,0.02390
5305.97834,0.02337
5304.04959,0.02305
5302.12085,0.02325
5300.19210,0.02381
5298.26336,0.02415
5296.33461,0.02383
5294.40587,0.02307
5292.47712,0.02243
5290.54838,0.02232
5288.61963,0.02252
5286.69089,0.02259
5284.76214,0.02268
5282.83340,0.02289
5280.90465,0.02306
5278.97591,0.02302
5277.04716,0.02281
5275.11842,0.02253
5273.18967,0.02246
5271.26092,0.02279
5269.33218,0.02292
5267.40343,0.02240
5265.47469,0.02198
5263.54594,0.02217
5261.61720,0.02248
5259.68845,0.02241
5257.75971,0.02196
5255.83096,0.02120
5253.90222,0.02028
5251.97347,0.01992
5250.04473,0.02062
5248.11598,0.02178
5246.18724,0.02270
5244.25849,0.02321
5242.32975,0.02340
5240.40100,0.02339
5238.47225,0.02323
5236.54351,0.02291
5234.61476,0.02275
5232.68602,0.02301
5230.75727,0.02339
5228.82853,0.02332
5226.89978,0.02277
5224.97104,0.02241
5223.04229,0.02256
5221.11355,0.02278
5219.18480,0.02286
5217.25606,0.02265
5215.32731,0.02237
5213.39857,0.02269
5211.46982,0.02339
5209.54107,0.02373
5207.61233,0.02368
5205.68358,0.02350
5203.75484,0.02322
5201.82609,0.02278
5199.89735,0.02252
5197.96860,0.02301
5196.03986,0.02416
5194.11111,0.02502
5192.18237,0.02474
5190.25362,0.02387
5188.32488,0.02361
5186.39613,0.02404
5184.46739,0.02438
5182.53864,0.02408
5180.60990,0.02342
5178.68115,0.02311
5176.75240,0.02323
5174.82366,0.02328
5172.89491,0.02304
5170.96617,0.02292
5169.03742,0.02315
5167.10868,0.02321
5165.17993,0.02294
5163.25119,0.02261
5161.32244,0.02231
5159.39370,0.02228
5157.46495,0.02255
5155.53621,0.02264
5153.60746,0.02260
5151.67872,0.02265
5149.74997,0.02235
5147.82123,0.02194
5145.89248,0.02214
5143.96373,0.02273
5142.03499,0.02316
5140.10624,0.02297
5138.17750,0.02230
5136.24875,0.02218
5134.32001,0.02276
5132.39126,0.02333
5130.46252,0.02367
5128.53377,0.02363
5126.60503,0.02327
5124.67628,0.02298
5122.74754,0.02288
5120.81879,0.02264
5118.89005,0.02238
5116.96130,0.02260
5115.03255,0.02301
5113.10381,0.02314
5111.17506,0.02287
5109.24632,0.02262
5107.31757,0.02314
5105.38883,0.02379
5103.46008,0.02405
5101.53134,0.02445
5099.60259,0.02466
5097.67385,0.02434
5095.74510,0.02419
5093.81636,0.02422
5091.88761,0.02399
5089.95887,0.02381
5088.03012,0.02385
5086.10138,0.02389
5084.17263,0.02400
5082.24388,0.02404
5080.31514,0.02378
5078.38639,0.02360
5076.45765,0.02387
5074.52890,0.02410
5072.60016,0.02362
5070.67141,0.02307
5068.74267,0.02320
5066.81392,0.02355
5064.88518,0.02363
5062.95643,0.02344
5061.02769,0.02327
5059.09894,0.02327
5057.17020,0.02322
5055.24145,0.02309
5053.31270,0.02327
5051.38396,0.02383
5049.45521,0.02420
5047.52647,0.02400
5045.59772,0.02370
5043.66898,0.02360
5041.74023,0.02344
5039.81149,0.02310
5037.88274,0.02308
5035.95400,0.02367
5034.02525,0.02418
5032.09651,0.02404
5030.16776,0.02358
5028.23902,0.02297
5026.31027,0.02216
5024.38153,0.02184
5022.45278,0.02252
5020.52403,0.02351
5018.59529,0.02400
5016.66654,0.02375
5014.73780,0.02316
5012.80905,0.02285
5010.88031,0.02315
5008.95156,0.02371
5007.02282,0.02399
5005.09407,0.02392
5003.16533,0.02382
5001.23658,0.02377
4999.30784,0.02366
4997.37909,0.02367
4995.45035,0.02385
4993.52160,0.02360
4991.59286,0.02291
4989.66411,0.02243
4987.73536,0.02265
4985.80662,0.02336
4983.87787,0.02373
4981.94913,0.02367
4980.02038,0.02345
4978.09164,0.02304
4976.16289,0.02280
4974.23415,0.02275
4972.30540,0.02232
4970.37666,0.02174
4968.44791,0.02155
4966.51917,0.02152
4964.59042,0.02190
4962.66168,0.02306
4960.73293,0.02418
4958.80418,0.02443
4956.87544,0.02407
4954.94669,0.02347
4953.01795,0.02287
4951.08920,0.02289
4949.16046,0.02363
4947.23171,0.02421
4945.30297,0.02396
4943.37422,0.02344
4941.44548,0.02310
4939.51673,0.02274
4937.58799,0.02275
4935.65924,0.02297
4933.73050,0.02275
4931.80175,0.02251
4929.87301,0.02265
4927.94426,0.02277
4926.01551,0.02270
4924.08677,0.02272
4922.15802,0.02289
4920.22928,0.02313
4918.30053,0.02339
4916.37179,0.02345
4914.44304,0.02325
4912.51430,0.02324
4910.58555,0.02337
4908.65681,0.02321
4906.72806,0.02297
4904.79932,0.02287
4902.87057,0.02273
4900.94183,0.02287
4899.01308,0.02358
4897.08434,0.02424
4895.15559,0.02437
4893.22684,0.02395
4891.29810,0.02319
4889.36935,0.02299
4887.44061,0.02370
4885.51186,0.02426
4883.58312,0.02405
4881.65437,0.02347
4879.72563,0.02315
4877.79688,0.02316
4875.86814,0.02309
4873.93939,0.02272
4872.01065,0.02248
4870.08190,0.02275
4868.15316,0.02311
4866.22441,0.02323
4864.29566,0.02317
4862.36692,0.02301
4860.43817,0.02311
4858.50943,0.02355
4856.58068,0.02379
4854.65194,0.02359
4852.72319,0.02326
4850.79445,0.02276
4848.86570,0.02211
4846.93696,0.02206
4845.00821,0.02281
4843.07947,0.02352
4841.15072,0.02367
4839.22198,0.02339
4837.29323,0.02305
4835.36449,0.02301
4833.43574,0.02316
4831.50699,0.02314
4829.57825,0.02337
4827.64950,0.02391
4825.72076,0.02393
4823.79201,0.02341
4821.86327,0.02327
4819.93452,0.02365
4818.00578,0.02418
4816.07703,0.02445
4814.14829,0.02422
4812.21954,0.02406
4810.29080,0.02418
4808.36205,0.02398
4806.43331,0.02356
4804.50456,0.02349
4802.57582,0.02362
4800.64707,0.02364
4798.71832,0.02365
4796.78958,0.02376
4794.86083,0.02364
4792.93209,0.02329
4791.00334,0.02330
4789.07460,0.02362
4787.14585,0.02363
4785.21711,0.02340
4783.28836,0.02326
4781.35962,0.02304
4779.43087,0.02299
4777.50213,0.02317
4775.57338,0.02341
4773.64464,0.02383
4771.71589,0.02415
4769.78714,0.02390
4767.85840,0.02340
4765.92965,0.02298
4764.00091,0.02273
4762.07216,0.02300
4760.14342,0.02356
4758.21467,0.02348
4756.28593,0.02279
4754.35718,0.02246
4752.42844,0.02278
4750.49969,0.02328
4748.57095,0.02373
4746.64220,0.02407
4744.71346,0.02385
4742.78471,0.02321
4740.85597,0.02284
4738.92722,0.02289
4736.99847,0.02304
4735.06973,0.02320
4733.14098,0.02343
4731.21224,0.02339
4729.28349,0.02329
4727.35475,0.02363
4725.42600,0.02380
4723.49726,0.02346
4721.56851,0.02329
4719.63977,0.02341
4717.71102,0.02332
4715.78228,0.02323
4713.85353,0.02357
4711.92479,0.02391
4709.99604,0.02369
4708.06729,0.02304
4706.13855,0.02252
4704.20980,0.02251
4702.28106,0.02294
4700.35231,0.02337
4698.42357,0.02350
4696.49482,0.02345
4694.56608,0.02348
4692.63733,0.02364
4690.70859,0.02381
4688.77984,0.02362
4686.85110,0.02315
4684.92235,0.02302
4682.99361,0.02338
4681.06486,0.02392
4679.13612,0.02430
4677.20737,0.02427
4675.27862,0.02407
4673.34988,0.02405
4671.42113,0.02396
4669.49239,0.02369
4667.56364,0.02346
4665.63490,0.02333
4663.70615,0.02341
4661.77741,0.02353
4659.84866,0.02329
4657.91992,0.02307
4655.99117,0.02311
4654.06243,0.02326
4652.13368,0.02350
4650.20494,0.02367
4648.27619,0.02362
4646.34745,0.02357
4644.41870,0.02366
4642.48995,0.02358
4640.56121,0.02317
4638.63246,0.02279
4636.70372,0.02266
4634.77497,0.02266
4632.84623,0.02292
4630.91748,0.02345
4628.98874,0.02362
4627.05999,0.02338
4625.13125,0.02338
4623.20250,0.02349
4621.27376,0.02336
4619.34501,0.02307
4617.41627,0.02286
4615.48752,0.02286
4613.55877,0.02296
4611.63003,0.02324
4609.70128,0.02406
4607.77254,0.02476
4605.84379,0.02430
4603.91505,0.02320
4601.98630,0.02281
4600.05756,0.02309
4598.12881,0.02314
4596.20007,0.02279
4594.27132,0.02263
4592.34258,0.02289
4590.41383,0.02315
4588.48509,0.02296
4586.55634,0.02257
4584.62760,0.02237
4582.69885,0.02245
4580.77010,0.02267
4578.84136,0.02280
4576.91261,0.02316
4574.98387,0.02388
4573.05512,0.02403
4571.12638,0.02366
4569.19763,0.02387
4567.26889,0.02430
4565.34014,0.02402
4563.41140,0.02332
4561.48265,0.02263
4559.55391,0.02237
4557.62516,0.02291
4555.69642,0.02354
4553.76767,0.02357
4551.83893,0.02342
4549.91018,0.02341
4547.98143,0.02310
4546.05269,0.02267
4544.12394,0.02268
4542.19520,0.02287
4540.26645,0.02291
4538.33771,0.02282
4536.40896,0.02267
4534.48022,0.02259
4532.55147,0.02265
4530.62273,0.02296
4528.69398,0.02318
4526.76524,0.02297
4524.83649,0.02300
4522.90775,0.02342
4520.97900,0.02360
4519.05025,0.02357
4517.12151,0.02361
4515.19276,0.02381
4513.26402,0.02420
4511.33527,0.02445
4509.40653,0.02443
4507.47778,0.02446
4505.54904,0.02458
4503.62029,0.02450
4501.69155,0.02413
4499.76280,0.02379
4497.83406,0.02369
4495.90531,0.02370
4493.97657,0.02358
4492.04782,0.02324
4490.11908,0.02296
4488.19033,0.02299
4486.26158,0.02329
4484.33284,0.02387
4482.40409,0.02443
4480.47535,0.02455
4478.54660,0.02427
4476.61786,0.02366
4474.68911,0.02311
4472.76037,0.02310
4470.83162,0.02331
4468.90288,0.02350
4466.97413,0.02374
4465.04539,0.02379
4463.11664,0.02354
4461.18790,0.02339
4459.25915,0.02363
4457.33041,0.02387
4455.40166,0.02379
4453.47291,0.02354
4451.54417,0.02339
4449.61542,0.02335
4447.68668,0.02326
4445.75793,0.02330
4443.82919,0.02366
4441.90044,0.02414
4439.97170,0.02420
4438.04295,0.02383
4436.11421,0.02358
4434.18546,0.02351
4432.25672,0.02351
4430.32797,0.02370
4428.39923,0.02371
4426.47048,0.02333
4424.54173,0.02300
4422.61299,0.02279
4420.68424,0.02259
4418.75550,0.02267
4416.82675,0.02298
4414.89801,0.02330
4412.96926,0.02345
4411.04052,0.02335
4409.11177,0.02312
4407.18303,0.02289
4405.25428,0.02274
4403.32554,0.02279
4401.39679,0.02284
4399.46805,0.02275
4397.53930,0.02284
4395.61056,0.02322
4393.68181,0.02340
4391.75306,0.02317
4389.82432,0.02300
4387.89557,0.02315
4385.96683,0.02354
4384.03808,0.02377
4382.10934,0.02346
4380.18059,0.02310
4378.25185,0.02323
4376.32310,0.02354
4374.39436,0.02379
4372.46561,0.02392
4370.53687,0.02363
4368.60812,0.02297
4366.67938,0.02262
4364.75063,0.02289
4362.82189,0.02341
4360.89314,0.02381
4358.96439,0.02415
4357.03565,0.02439
4355.10690,0.02427
4353.17816,0.02393
4351.24941,0.02373
4349.32067,0.02371
4347.39192,0.02375
4345.46318,0.02373
4343.53443,0.02369
4341.60569,0.02363
4339.67694,0.02360
4337.74820,0.02375
4335.81945,0.02390
4333.89071,0.02386
4331.96196,0.02370
4330.03321,0.02346
4328.10447,0.02327
4326.17572,0.02315
4324.24698,0.02304
4322.31823,0.02301
4320.38949,0.02304
4318.46074,0.02312
4316.53200,0.02321
4314.60325,0.02304
4312.67451,0.02278
4310.74576,0.02288
4308.81702,0.02325
4306.88827,0.02350
4304.95953,0.02350
4303.03078,0.02343
4301.10204,0.02328
4299.17329,0.02293
4297.24454,0.02278
4295.31580,0.02295
4293.38705,0.02298
4291.45831,0.02302
4289.52956,0.02343
4287.60082,0.02389
4285.67207,0.02393
4283.74333,0.02356
4281.81458,0.02317
4279.88584,0.02305
4277.95709,0.02311
4276.02835,0.02329
4274.09960,0.02357
4272.17086,0.02366
4270.24211,0.02353
4268.31336,0.02352
4266.38462,0.02345
4264.45587,0.02315
4262.52713,0.02297
4260.59838,0.02317
4258.66964,0.02353
4256.74089,0.02365
4254.81215,0.02357
4252.88340,0.02330
4250.95466,0.02295
4249.02591,0.02304
4247.09717,0.02359
4245.16842,0.02405
4243.23968,0.02420
4241.31093,0.02407
4239.38219,0.02390
4237.45344,0.02397
4235.52469,0.02394
4233.59595,0.02351
4231.66720,0.02320
4229.73846,0.02321
4227.80971,0.02327
4225.88097,0.02337
4223.95222,0.02348
4222.02348,0.02350
4220.09473,0.02362
4218.16599,0.02403
4216.23724,0.02425
4214.30850,0.02400
4212.37975,0.02387
4210.45101,0.02410
4208.52226,0.02410
4206.59352,0.02381
4204.66477,0.02387
4202.73602,0.02435
4200.80728,0.02464
4198.87853,0.02457
4196.94979,0.02436
4195.02104,0.02401
4193.09230,0.02368
4191.16355,0.02360
4189.23481,0.02346
4187.30606,0.02318
4185.37732,0.02307
4183.44857,0.02317
4181.51983,0.02340
4179.59108,0.02355
4177.66234,0.02343
4175.73359,0.02331
4173.80484,0.02313
4171.87610,0.02283
4169.94735,0.02308
4168.01861,0.02364
4166.08986,0.02372
4164.16112,0.02366
4162.23237,0.02387
4160.30363,0.02392
4158.37488,0.02378
4156.44614,0.02383
4154.51739,0.02405
4152.58865,0.02409
4150.65990,0.02394
4148.73116,0.02398
4146.80241,0.02417
4144.87367,0.02416
4142.94492,0.02407
4141.01617,0.02416
4139.08743,0.02418
4137.15868,0.02394
4135.22994,0.02368
4133.30119,0.02344
4131.37245,0.02317
4129.44370,0.02305
4127.51496,0.02307
4125.58621,0.02323
4123.65747,0.02360
4121.72872,0.02400
4119.79998,0.02429
4117.87123,0.02444
4115.94249,0.02444
4114.01374,0.02434
4112.08500,0.02417
4110.15625,0.02416
4108.22750,0.02440
4106.29876,0.02444
4104.37001,0.02407
4102.44127,0.02368
4100.51252,0.02363
4098.58378,0.02370
4096.65503,0.02361
4094.72629,0.02352
4092.79754,0.02364
4090.86880,0.02389
4088.94005,0.02408
4087.01131,0.02393
4085.08256,0.02351
4083.15382,0.02341
4081.22507,0.02367
4079.29632,0.02368
4077.36758,0.02340
4075.43883,0.02341
4073.51009,0.02377
4071.58134,0.02407
4069.65260,0.02401
4067.72385,0.02366
4065.79511,0.02327
4063.86636,0.02296
4061.93762,0.02287
4060.00887,0.02319
4058.08013,0.02365
4056.15138,0.02371
4054.22264,0.02355
4052.29389,0.02370
4050.36515,0.02400
4048.43640,0.02398
4046.50765,0.02378
4044.57891,0.02371
4042.65016,0.02367
4040.72142,0.02355
4038.79267,0.02338
4036.86393,0.02326
4034.93518,0.02339
4033.00644,0.02380
4031.07769,0.02408
4029.14895,0.02413
4027.22020,0.02415
4025.29146,0.02417
4023.36271,0.02423
4021.43397,0.02421
4019.50522,0.02401
4017.57648,0.02385
4015.64773,0.02385
4013.71898,0.02385
4011.79024,0.02377
4009.86149,0.02363
4007.93275,0.02362
4006.00400,0.02381
4004.07526,0.02388
4002.14651,0.02365
4000.21777,0.02332
3998.28902,0.02319
3996.36028,0.02326
3994.43153,0.02349
3992.50279,0.02372
3990.57404,0.02390
3988.64530,0.02416
3986.71655,0.02426
3984.78780,0.02405
3982.85906,0.02387
3980.93031,0.02374
3979.00157,0.02355
3977.07282,0.02357
3975.14408,0.02376
3973.21533,0.02398
3971.28659,0.02422
3969.35784,0.02445
3967.42910,0.02448
3965.50035,0.02438
3963.57161,0.02437
3961.64286,0.02445
3959.71412,0.02448
3957.78537,0.02436
3955.85663,0.02411
3953.92788,0.02377
3951.99913,0.02353
3950.07039,0.02365
3948.14164,0.02397
3946.21290,0.02411
3944.28415,0.02390
3942.35541,0.02363
3940.42666,0.02378
3938.49792,0.02413
3936.56917,0.02416
3934.64043,0.02394
3932.71168,0.02390
3930.78294,0.02395
3928.85419,0.02379
3926.92545,0.02359
3924.99670,0.02365
3923.06795,0.02380
3921.13921,0.02376
3919.21046,0.02361
3917.28172,0.02346
3915.35297,0.02338
3913.42423,0.02359
3911.49548,0.02394
3909.56674,0.02418
3907.63799,0.02431
3905.70925,0.02418
3903.78050,0.02378
3901.85176,0.02358
3899.92301,0.02358
3897.99427,0.02352
3896.06552,0.02355
3894.13678,0.02362
3892.20803,0.02354
3890.27928,0.02349
3888.35054,0.02353
3886.42179,0.02368
3884.49305,0.02400
3882.56430,0.02407
3880.63556,0.02373
3878.70681,0.02356
3876.77807,0.02379
3874.84932,0.02401
3872.92058,0.02388
3870.99183,0.02366
3869.06309,0.02365
3867.13434,0.02356
3865.20560,0.02347
3863.27685,0.02370
3861.34811,0.02404
3859.41936,0.02431
3857.49061,0.02461
3855.56187,0.02478
3853.63312,0.02455
3851.70438,0.02418
3849.77563,0.02406
3847.84689,0.02404
3845.91814,0.02391
3843.98940,0.02377
3842.06065,0.02381
3840.13191,0.02400
3838.20316,0.02415
3836.27442,0.02420
3834.34567,0.02408
3832.41693,0.02399
3830.48818,0.02404
3828.55943,0.02398
3826.63069,0.02396
3824.70194,0.02416
3822.77320,0.02418
3820.84445,0.02402
3818.91571,0.02416
3816.98696,0.02431
3815.05822,0.02423
3813.12947,0.02410
3811.20073,0.02392
3809.27198,0.02378
3807.34324,0.02381
3805.41449,0.02397
3803.48575,0.02427
3801.55700,0.02458
3799.62826,0.02466
3797.69951,0.02450
3795.77076,0.02427
3793.84202,0.02416
3791.91327,0.02423
3789.98453,0.02430
3788.05578,0.02422
3786.12704,0.02406
3784.19829,0.02388
3782.26955,0.02368
3780.34080,0.02355
3778.41206,0.02351
3776.48331,0.02347
3774.55457,0.02338
3772.62582,0.02327
3770.69708,0.02336
3768.76833,0.02351
3766.83959,0.02337
3764.91084,0.02317
3762.98209,0.02314
3761.05335,0.02319
3759.12460,0.02343
3757.19586,0.02372
3755.26711,0.02376
3753.33837,0.02364
3751.40962,0.02357
3749.48088,0.02374
3747.55213,0.02402
3745.62339,0.02409
3743.69464,0.02404
3741.76590,0.02422
3739.83715,0.02461
3737.90841,0.02498
3735.97966,0.02501
3734.05091,0.02467
3732.12217,0.02423
3730.19342,0.02386
3728.26468,0.02366
3726.33593,0.02366
3724.40719,0.02376
3722.47844,0.02380
3720.54970,0.02372
3718.62095,0.02366
3716.69221,0.02379
3714.76346,0.02414
3712.83472,0.02451
3710.90597,0.02465
3708.97723,0.02424
3707.04848,0.02362
3705.11974,0.02347
3703.19099,0.02368
3701.26224,0.02386
3699.33350,0.02393
3697.40475,0.02388
3695.47601,0.02379
3693.54726,0.02376
3691.61852,0.02375
3689.68977,0.02362
3687.76103,0.02344
3685.83228,0.02342
3683.90354,0.02348
3681.97479,0.02358
3680.04605,0.02380
3678.11730,0.02392
3676.18856,0.02359
3674.25981,0.02313
3672.33107,0.02314
3670.40232,0.02341
3668.47357,0.02351
3666.54483,0.02354
3664.61608,0.02365
3662.68734,0.02381
3660.75859,0.02393
3658.82985,0.02388
3656.90110,0.02382
3654.97236,0.02405
3653.04361,0.02436
3651.11487,0.02423
3649.18612,0.02366
3647.25738,0.02320
3645.32863,0.02309
3643.39989,0.02316
3641.47114,0.02336
3639.54239,0.02360
3637.61365,0.02359
3635.68490,0.02341
3633.75616,0.02337
3631.82741,0.02330
3629.89867,0.02300
3627.96992,0.02301
3626.04118,0.02342
3624.11243,0.02346
3622.18369,0.02315
3620.25494,0.02306
3618.32620,0.02306
3616.39745,0.02295
3614.46871,0.02294
3612.53996,0.02324
3610.61122,0.02362
3608.68247,0.02359
3606.75372,0.02321
3604.82498,0.02301
3602.89623,0.02317
3600.96749,0.02329
3599.03874,0.02326
3597.11000,0.02354
3595.18125,0.02394
3593.25251,0.02383
3591.32376,0.02337
3589.39502,0.02314
3587.46627,0.02317
3585.53753,0.02306
3583.60878,0.02288
3581.68004,0.02275
3579.75129,0.02252
3577.82254,0.02245
3575.89380,0.02288
3573.96505,0.02340
3572.03631,0.02350
3570.10756,0.02321
3568.17882,0.02279
3566.25007,0.02250
3564.32133,0.02250
3562.39258,0.02258
3560.46384,0.02260
3558.53509,0.02272
3556.60635,0.02295
3554.67760,0.02324
3552.74886,0.02352
3550.82011,0.02355
3548.89137,0.02321
3546.96262,0.02276
3545.03387,0.02254
3543.10513,0.02246
3541.17638,0.02239
3539.24764,0.02247
3537.31889,0.02264
3535.39015,0.02266
3533.46140,0.02244
3531.53266,0.02237
3529.60391,0.02268
3527.67517,0.02282
3525.74642,0.02248
3523.81768,0.02207
3521.88893,0.02189
3519.96019,0.02178
3518.03144,0.02173
3516.10270,0.02186
3514.17395,0.02200
3512.24520,0.02201
3510.31646,0.02198
3508.38771,0.02201
3506.45897,0.02208
3504.53022,0.02193
3502.60148,0.02167
3500.67273,0.02167
3498.74399,0.02183
3496.81524,0.02186
3494.88650,0.02197
3492.95775,0.02229
3491.02901,0.02260
3489.10026,0.02274
3487.17152,0.02263
3485.24277,0.02226
3483.31402,0.02193
3481.38528,0.02182
3479.45653,0.02175
3477.52779,0.02179
3475.59904,0.02201
3473.67030,0.02223
3471.74155,0.02241
3469.81281,0.02242
3467.88406,0.02217
3465.95532,0.02207
3464.02657,0.02237
3462.09783,0.02283
3460.16908,0.02292
3458.24034,0.02237
3456.31159,0.02157
3454.38285,0.02119
3452.45410,0.02138
3450.52535,0.02177
3448.59661,0.02197
3446.66786,0.02199
3444.73912,0.02215
3442.81037,0.02237
3440.88163,0.02235
3438.95288,0.02219
3437.02414,0.02215
3435.09539,0.02221
3433.16665,0.02224
3431.23790,0.02217
3429.30916,0.02193
3427.38041,0.02173
3425.45167,0.02187
3423.52292,0.02233
3421.59418,0.02255
3419.66543,0.02225
3417.73668,0.02180
3415.80794,0.02139
3413.87919,0.02119
3411.95045,0.02146
3410.02170,0.02179
3408.09296,0.02169
3406.16421,0.02126
3404.23547,0.02101
3402.30672,0.02111
3400.37798,0.02113
3398.44923,0.02095
3396.52049,0.02091
3394.59174,0.02105
3392.66300,0.02114
3390.73425,0.02115
3388.80550,0.02108
3386.87676,0.02101
3384.94801,0.02111
3383.01927,0.02132
3381.09052,0.02133
3379.16178,0.02130
3377.23303,0.02142
3375.30429,0.02157
3373.37554,0.02168
3371.44680,0.02172
3369.51805,0.02164
3367.58931,0.02156
3365.66056,0.02161
3363.73182,0.02172
3361.80307,0.02168
3359.87433,0.02147
3357.94558,0.02124
3356.01683,0.02104
3354.08809,0.02088
3352.15934,0.02086
3350.23060,0.02113
3348.30185,0.02150
3346.37311,0.02163
3344.44436,0.02166
3342.51562,0.02189
3340.58687,0.02200
3338.65813,0.02164
3336.72938,0.02143
3334.80064,0.02157
3332.87189,0.02148
3330.94315,0.02119
3329.01440,0.02122
3327.08566,0.02150
3325.15691,0.02178
3323.22816,0.02198
3321.29942,0.02209
3319.37067,0.02222
3317.44193,0.02234
3315.51318,0.02213
3313.58444,0.02160
3311.65569,0.02128
3309.72695,0.02133
3307.79820,0.02149
3305.86946,0.02173
3303.94071,0.02184
3302.01197,0.02145
3300.08322,0.02090
3298.15448,0.02069
3296.22573,0.02081
3294.29698,0.02095
3292.36824,0.02107
3290.43949,0.02141
3288.51075,0.02177
3286.58200,0.02187
3284.65326,0.02180
3282.72451,0.02170
3280.79577,0.02162
3278.86702,0.02145
3276.93828,0.02105
3275.00953,0.02072
3273.08079,0.02080
3271.15204,0.02113
3269.22330,0.02147
3267.29455,0.02175
3265.36581,0.02194
3263.43706,0.02195
3261.50831,0.02179
3259.57957,0.02155
3257.65082,0.02133
3255.72208,0.02150
3253.79333,0.02188
3251.86459,0.02199
3249.93584,0.02197
3248.00710,0.02203
3246.07835,0.02208
3244.14961,0.02230
3242.22086,0.02261
3240.29212,0.02258
3238.36337,0.02218
3236.43463,0.02176
3234.50588,0.02148
3232.57713,0.02132
3230.64839,0.02133
3228.71964,0.02165
3226.79090,0.02212
3224.86215,0.02241
3222.93341,0.02251
3221.00466,0.02231
3219.07592,0.02178
3217.14717,0.02152
3215.21843,0.02183
3213.28968,0.02217
3211.36094,0.02218
3209.43219,0.02204
3207.50345,0.02191
3205.57470,0.02196
3203.64596,0.02220
3201.71721,0.02228
3199.78846,0.02222
3197.85972,0.02225
3195.93097,0.02222
3194.00223,0.02204
3192.07348,0.02192
3190.14474,0.02191
3188.21599,0.02192
3186.28725,0.02195
3184.35850,0.02199
3182.42976,0.02199
3180.50101,0.02213
3178.57227,0.02245
3176.64352,0.02272
3174.71478,0.02269
3172.78603,0.02237
3170.85729,0.02212
3168.92854,0.02221
3166.99979,0.02235
3165.07105,0.02220
3163.14230,0.02197
3161.21356,0.02203
3159.28481,0.02243
3157.35607,0.02289
3155.42732,0.02296
3153.49858,0.02239
3151.56983,0.02171
3149.64109,0.02153
3147.71234,0.02179
3145.78360,0.02216
3143.85485,0.02243
3141.92611,0.02250
3139.99736,0.02253
3138.06861,0.02258
3136.13987,0.02245
3134.21112,0.02225
3132.28238,0.02235
3130.35363,0.02257
3128.42489,0.02255
3126.49614,0.02246
3124.56740,0.02254
3122.63865,0.02266
3120.70991,0.02270
3118.78116,0.02263
3116.85242,0.02248
3114.92367,0.02237
3112.99493,0.02226
3111.06618,0.02212
3109.13744,0.02208
3107.20869,0.02220
3105.27994,0.02236
3103.35120,0.02243
3101.42245,0.02242
3099.49371,0.02243
3097.56496,0.02240
3095.63622,0.02228
3093.70747,0.02228
3091.77873,0.02236
3089.84998,0.02224
3087.92124,0.02195
3085.99249,0.02174
3084.06375,0.02170
3082.13500,0.02170
3080.20626,0.02173
3078.27751,0.02195
3076.34877,0.02222
3074.42002,0.02228
3072.49127,0.02216
3070.56253,0.02200
3068.63378,0.02180
3066.70504,0.02167
3064.77629,0.02182
3062.84755,0.02204
3060.91880,0.02206
3058.99006,0.02211
3057.06131,0.02219
3055.13257,0.02204
3053.20382,0.02186
3051.27508,0.02193
3049.34633,0.02208
3047.41759,0.02198
3045.48884,0.02169
3043.56009,0.02159
3041.63135,0.02185
3039.70260,0.02226
3037.77386,0.02236
3035.84511,0.02210
3033.91637,0.02170
3031.98762,0.02146
3030.05888,0.02170
3028.13013,0.02215
3026.20139,0.02228
3024.27264,0.02227
3022.34390,0.02230
3020.41515,0.02226
3018.48641,0.02229
3016.55766,0.02223
3014.62892,0.02181
3012.70017,0.02153
3010.77142,0.02180
3008.84268,0.02222
3006.91393,0.02237
3004.98519,0.02224
3003.05644,0.02209
3001.12770,0.02204
2999.19895,0.02188
2997.27021,0.02165
2995.34146,0.02171
2993.41272,0.02212
2991.48397,0.02216
2989.55523,0.02162
2987.62648,0.02116
2985.69774,0.02111
2983.76899,0.02124
2981.84025,0.02135
2979.91150,0.02123
2977.98275,0.02091
2976.05401,0.02085
2974.12526,0.02101
2972.19652,0.02097
2970.26777,0.02076
2968.33903,0.02076
2966.41028,0.02086
2964.48154,0.02078
2962.55279,0.02072
2960.62405,0.02085
2958.69530,0.02103
2956.76656,0.02114
2954.83781,0.02104
2952.90907,0.02082
2950.98032,0.02076
2949.05157,0.02092
2947.12283,0.02113
2945.19408,0.02119
2943.26534,0.02108
2941.33659,0.02099
2939.40785,0.02087
2937.47910,0.02068
2935.55036,0.02072
2933.62161,0.02097
2931.69287,0.02111
2929.76412,0.02123
2927.83538,0.02142
2925.90663,0.02149
2923.97789,0.02145
2922.04914,0.02144
2920.12040,0.02145
2918.19165,0.02147
2916.26290,0.02160
2914.33416,0.02172
2912.40541,0.02169
2910.47667,0.02178
2908.54792,0.02205
2906.61918,0.02208
2904.69043,0.02184
2902.76169,0.02169
2900.83294,0.02167
2898.90420,0.02155
2896.97545,0.02153
2895.04671,0.02179
2893.11796,0.02214
2891.18922,0.02235
2889.26047,0.02234
2887.33172,0.02220
2885.40298,0.02199
2883.47423,0.02168
2881.54549,0.02158
2879.61674,0.02183
2877.68800,0.02202
2875.75925,0.02197
2873.83051,0.02181
2871.90176,0.02161
2869.97302,0.02156
2868.04427,0.02166
2866.11553,0.02174
2864.18678,0.02189
2862.25804,0.02204
2860.32929,0.02199
2858.40055,0.02195
2856.47180,0.02222
2854.54305,0.02260
2852.61431,0.02269
2850.68556,0.02237
2848.75682,0.02201
2846.82807,0.02199
2844.89933,0.02224
2842.97058,0.02251
2841.04184,0.02258
2839.11309,0.02259
2837.18435,0.02275
2835.25560,0.02275
2833.32686,0.02253
2831.39811,0.02260
2829.46937,0.02288
2827.54062,0.02290
2825.61188,0.02279
2823.68313,0.02271
2821.75438,0.02260
2819.82564,0.02246
2817.89689,0.02245
2815.96815,0.02267
2814.03940,0.02296
2812.11066,0.02307
2810.18191,0.02298
2808.25317,0.02280
2806.32442,0.02264
2804.39568,0.02265
2802.46693,0.02283
2800.53819,0.02300
2798.60944,0.02306
2796.68070,0.02288
2794.75195,0.02264
2792.82320,0.02270
2790.89446,0.02287
2788.96571,0.02283
2787.03697,0.02279
2785.10822,0.02286
2783.17948,0.02278
2781.25073,0.02258
2779.32199,0.02246
2777.39324,0.02251
2775.46450,0.02270
2773.53575,0.02291
2771.60701,0.02298
2769.67826,0.02289
2767.74952,0.02275
2765.82077,0.02276
2763.89203,0.02283
2761.96328,0.02280
2760.03453,0.02277
2758.10579,0.02290
2756.17704,0.02307
2754.24830,0.02310
2752.31955,0.02303
2750.39081,0.02299
2748.46206,0.02299
2746.53332,0.02293
2744.60457,0.02283
2742.67583,0.02265
2740.74708,0.02231
2738.81834,0.02216
2736.88959,0.02239
2734.96085,0.02269
2733.03210,0.02297
2731.10336,0.02318
2729.17461,0.02310
2727.24586,0.02284
2725.31712,0.02268
2723.38837,0.02276
2721.45963,0.02290
2719.53088,0.02281
2717.60214,0.02259
2715.67339,0.02254
2713.74465,0.02263
2711.81590,0.02262
2709.88716,0.02253
2707.95841,0.02259
2706.02967,0.02290
2704.10092,0.02309
2702.17218,0.02295
2700.24343,0.02278
2698.31468,0.02268
2696.38594,0.02255
2694.45719,0.02256
2692.52845,0.02266
2690.59970,0.02274
2688.67096,0.02302
2686.74221,0.02328
2684.81347,0.02314
2682.88472,0.02285
2680.95598,0.02286
2679.02723,0.02305
2677.09849,0.02311
2675.16974,0.02304
2673.24100,0.02288
2671.31225,0.02267
2669.38351,0.02259
2667.45476,0.02270
2665.52601,0.02287
2663.59727,0.02297
2661.66852,0.02294
2659.73978,0.02288
2657.81103,0.02303
2655.88229,0.02330
2653.95354,0.02337
2652.02480,0.02319
2650.09605,0.02293
2648.16731,0.02280
2646.23856,0.02292
2644.30982,0.02311
2642.38107,0.02328
2640.45233,0.02345
2638.52358,0.02348
2636.59484,0.02326
2634.66609,0.02307
2632.73734,0.02295
2630.80860,0.02277
2628.87985,0.02276
2626.95111,0.02308
2625.02236,0.02333
2623.09362,0.02318
2621.16487,0.02285
2619.23613,0.02256
2617.30738,0.02247
2615.37864,0.02274
2613.44989,0.02316
2611.52115,0.02326
2609.59240,0.02296
2607.66366,0.02265
2605.73491,0.02261
2603.80616,0.02270
2601.87742,0.02266
2599.94867,0.02241
2598.01993,0.02224
2596.09118,0.02239
2594.16244,0.02261
2592.23369,0.02272
2590.30495,0.02286
2588.37620,0.02304
2586.44746,0.02310
2584.51871,0.02301
2582.58997,0.02282
2580.66122,0.02275
2578.73248,0.02291
2576.80373,0.02314
2574.87499,0.02320
2572.94624,0.02311
2571.01749,0.02305
2569.08875,0.02295
2567.16000,0.02270
2565.23126,0.02256
2563.30251,0.02269
2561.37377,0.02292
2559.44502,0.02308
2557.51628,0.02324
2555.58753,0.02336
2553.65879,0.02324
2551.73004,0.02295
2549.80130,0.02287
2547.87255,0.02306
2545.94381,0.02316
2544.01506,0.02312
2542.08631,0.02319
2540.15757,0.02326
2538.22882,0.02312
2536.30008,0.02294
2534.37133,0.02298
2532.44259,0.02312
2530.51384,0.02309
2528.58510,0.02293
2526.65635,0.02279
2524.72761,0.02274
2522.79886,0.02274
2520.87012,0.02271
2518.94137,0.02270
2517.01263,0.02269
2515.08388,0.02270
2513.15514,0.02274
2511.22639,0.02264
2509.29764,0.02244
2507.36890,0.02246
2505.44015,0.02270
2503.51141,0.02290
2501.58266,0.02303
2499.65392,0.02317
2497.72517,0.02317
2495.79643,0.02294
2493.86768,0.02266
2491.93894,0.02264
2490.01019,0.02280
2488.08145,0.02272
2486.15270,0.02241
2484.22396,0.02229
2482.29521,0.02245
2480.36647,0.02261
2478.43772,0.02253
2476.50897,0.02246
2474.58023,0.02260
2472.65148,0.02274
2470.72274,0.02271
2468.79399,0.02271
2466.86525,0.02289
2464.93650,0.02312
2463.00776,0.02320
2461.07901,0.02303
2459.15027,0.02277
2457.22152,0.02260
2455.29278,0.02253
2453.36403,0.02255
2451.43529,0.02268
2449.50654,0.02283
2447.57779,0.02289
2445.64905,0.02294
2443.72030,0.02307
2441.79156,0.02327
2439.86281,0.02343
2437.93407,0.02343
2436.00532,0.02328
2434.07658,0.02317
2432.14783,0.02311
2430.21909,0.02301
2428.29034,0.02299
2426.36160,0.02309
2424.43285,0.02310
2422.50411,0.02298
2420.57536,0.02291
2418.64662,0.02291
2416.71787,0.02304
2414.78912,0.02324
2412.86038,0.02326
2410.93163,0.02313
2409.00289,0.02306
2407.07414,0.02301
2405.14540,0.02297
2403.21665,0.02301
2401.28791,0.02311
2399.35916,0.02320
2397.43042,0.02316
2395.50167,0.02309
2393.57293,0.02315
2391.64418,0.02318
2389.71544,0.02301
2387.78669,0.02275
2385.85795,0.02259
2383.92920,0.02255
2382.00045,0.02256
2380.07171,0.02268
2378.14296,0.02291
2376.21422,0.02298
2374.28547,0.02282
2372.35673,0.02271
2370.42798,0.02277
2368.49924,0.02291
2366.57049,0.02315
2364.64175,0.02349
2362.71300,0.02358
2360.78426,0.02322
2358.85551,0.02295
2356.92677,0.02308
2354.99802,0.02314
2353.06927,0.02300
2351.14053,0.02295
2349.21178,0.02305
2347.28304,0.02322
2345.35429,0.02327
2343.42555,0.02312
2341.49680,0.02307
2339.56806,0.02317
2337.63931,0.02322
2335.71057,0.02331
2333.78182,0.02347
2331.85308,0.02354
2329.92433,0.02346
2327.99559,0.02319
2326.06684,0.02283
2324.13810,0.02267
2322.20935,0.02281
2320.28060,0.02296
2318.35186,0.02298
2316.42311,0.02309
2314.49437,0.02328
2312.56562,0.02328
2310.63688,0.02314
2308.70813,0.02306
2306.77939,0.02307
2304.85064,0.02310
2302.92190,0.02312
2300.99315,0.02306
2299.06441,0.02297
2297.13566,0.02296
2295.20692,0.02292
2293.27817,0.02291
2291.34943,0.02306
2289.42068,0.02319
2287.49193,0.02310
2285.56319,0.02293
2283.63444,0.02281
2281.70570,0.02268
2279.77695,0.02258
2277.84821,0.02261
2275.91946,0.02267
2273.99072,0.02265
2272.06197,0.02262
2270.13323,0.02257
2268.20448,0.02246
2266.27574,0.02237
2264.34699,0.02246
2262.41825,0.02274
2260.48950,0.02294
2258.56075,0.02291
2256.63201,0.02279
2254.70326,0.02271
2252.77452,0.02276
2250.84577,0.02296
2248.91703,0.02317
2246.98828,0.02320
2245.05954,0.02302
2243.13079,0.02284
2241.20205,0.02294
2239.27330,0.02311
2237.34456,0.02297
2235.41581,0.02272
2233.48707,0.02267
2231.55832,0.02272
2229.62958,0.02271
2227.70083,0.02275
2225.77208,0.02291
2223.84334,0.02298
2221.91459,0.02284
2219.98585,0.02272
2218.05710,0.02271
2216.12836,0.02270
2214.19961,0.02276
2212.27087,0.02296
2210.34212,0.02311
2208.41338,0.02312
2206.48463,0.02311
2204.55589,0.02310
2202.62714,0.02310
2200.69840,0.02312
2198.76965,0.02309
2196.84090,0.02306
2194.91216,0.02311
2192.98341,0.02316
2191.05467,0.02314
2189.12592,0.02315
2187.19718,0.02322
2185.26843,0.02326
2183.33969,0.02318
2181.41094,0.02306
2179.48220,0.02296
2177.55345,0.02288
2175.62471,0.02281
2173.69596,0.02280
2171.76722,0.02286
2169.83847,0.02298
2167.90973,0.02315
2165.98098,0.02328
2164.05223,0.02328
2162.12349,0.02312
2160.19474,0.02288
2158.26600,0.02273
2156.33725,0.02279
2154.40851,0.02292
2152.47976,0.02303
2150.55102,0.02308
2148.62227,0.02297
2146.69353,0.02284
2144.76478,0.02284
2142.83604,0.02294
2140.90729,0.02294
2138.97855,0.02277
2137.04980,0.02261
2135.12106,0.02258
2133.19231,0.02259
2131.26356,0.02259
2129.33482,0.02265
2127.40607,0.02273
2125.47733,0.02280
2123.54858,0.02285
2121.61984,0.02295
2119.69109,0.02302
2117.76235,0.02295
2115.83360,0.02279
2113.90486,0.02278
2111.97611,0.02288
2110.04737,0.02284
2108.11862,0.02266
2106.18988,0.02259
2104.26113,0.02269
2102.33238,0.02281
2100.40364,0.02290
2098.47489,0.02289
2096.54615,0.02282
2094.61740,0.02290
2092.68866,0.02310
2090.75991,0.02313
2088.83117,0.02296
2086.90242,0.02285
2084.97368,0.02283
2083.04493,0.02273
2081.11619,0.02259
2079.18744,0.02256
2077.25870,0.02262
2075.32995,0.02272
2073.40121,0.02285
2071.47246,0.02289
2069.54371,0.02289
2067.61497,0.02288
2065.68622,0.02281
2063.75748,0.02267
2061.82873,0.02250
2059.89999,0.02237
2057.97124,0.02239
2056.04250,0.02257
2054.11375,0.02272
2052.18501,0.02277
2050.25626,0.02281
2048.32752,0.02282
2046.39877,0.02274
2044.47003,0.02277
2042.54128,0.02291
2040.61254,0.02297
2038.68379,0.02301
2036.75504,0.02301
2034.82630,0.02282
2032.89755,0.02262
2030.96881,0.02264
2029.04006,0.02278
2027.11132,0.02277
2025.18257,0.02262
2023.25383,0.02253
2021.32508,0.02261
2019.39634,0.02270
2017.46759,0.02265
2015.53885,0.02250
2013.61010,0.02245
2011.68136,0.02257
2009.75261,0.02277
2007.82386,0.02297
2005.89512,0.02307
2003.96637,0.02302
2002.03763,0.02282
2000.10888,0.02256
1998.18014,0.02243
1996.25139,0.02252
1994.32265,0.02271
1992.39390,0.02284
1990.46516,0.02281
1988.53641,0.02276
1986.60767,0.02282
1984.67892,0.02277
1982.75018,0.02255
1980.82143,0.02246
1978.89269,0.02262
1976.96394,0.02277
1975.03519,0.02282
1973.10645,0.02290
1971.17770,0.02295
1969.24896,0.02285
1967.32021,0.02272
1965.39147,0.02271
1963.46272,0.02273
1961.53398,0.02269
1959.60523,0.02262
1957.67649,0.02260
1955.74774,0.02259
1953.81900,0.02256
1951.89025,0.02255
1949.96151,0.02261
1948.03276,0.02275
1946.10402,0.02280
1944.17527,0.02278
1942.24652,0.02284
1940.31778,0.02287
1938.38903,0.02275
1936.46029,0.02262
1934.53154,0.02273
1932.60280,0.02293
1930.67405,0.02289
1928.74531,0.02271
1926.81656,0.02263
1924.88782,0.02259
1922.95907,0.02255
1921.03033,0.02256
1919.10158,0.02256
1917.17284,0.02249
1915.24409,0.02254
1913.31534,0.02264
1911.38660,0.02259
1909.45785,0.02258
1907.52911,0.02269
1905.60036,0.02273
1903.67162,0.02268
1901.74287,0.02258
1899.81413,0.02245
1897.88538,0.02235
1895.95664,0.02227
1894.02789,0.02220
1892.09915,0.02218
1890.17040,0.02234
1888.24166,0.02256
1886.31291,0.02260
1884.38417,0.02238
1882.45542,0.02223
1880.52667,0.02233
1878.59793,0.02251
1876.66918,0.02259
1874.74044,0.02262
1872.81169,0.02258
1870.88295,0.02244
1868.95420,0.02236
1867.02546,0.02244
1865.09671,0.02253
1863.16797,0.02249
1861.23922,0.02234
1859.31048,0.02229
1857.38173,0.02238
1855.45299,0.02237
1853.52424,0.02218
1851.59549,0.02202
1849.66675,0.02205
1847.73800,0.02217
1845.80926,0.02222
1843.88051,0.02219
1841.95177,0.02212
1840.02302,0.02209
1838.09428,0.02202
1836.16553,0.02194
1834.23679,0.02198
1832.30804,0.02205
1830.37930,0.02201
1828.45055,0.02192
1826.52181,0.02181
1824.59306,0.02176
1822.66432,0.02176
1820.73557,0.02178
1818.80682,0.02186
1816.87808,0.02190
1814.94933,0.02172
1813.02059,0.02158
1811.09184,0.02175
1809.16310,0.02207
1807.23435,0.02216
1805.30561,0.02190
1803.37686,0.02157
1801.44812,0.02151
1799.51937,0.02163
1797.59063,0.02168
1795.66188,0.02168
1793.73314,0.02162
1791.80439,0.02141
1789.87565,0.02123
1787.94690,0.02128
1786.01815,0.02146
1784.08941,0.02156
1782.16066,0.02144
1780.23192,0.02114
1778.30317,0.02087
1776.37443,0.02067
1774.44568,0.02050
1772.51694,0.02041
1770.58819,0.02041
1768.65945,0.02040
1766.73070,0.02033
1764.80196,0.02026
1762.87321,0.02016
1760.94447,0.01989
1759.01572,0.01954
1757.08697,0.01930
1755.15823,0.01914
1753.22948,0.01906
1751.30074,0.01908
1749.37199,0.01914
1747.44325,0.01922
1745.51450,0.01935
1743.58576,0.01948
1741.65701,0.01968
1739.72827,0.02015
1737.79952,0.02074
1735.87078,0.02114
1733.94203,0.02129
1732.01329,0.02141
1730.08454,0.02173
1728.15580,0.02214
1726.22705,0.02234
1724.29830,0.02234
1722.36956,0.02235
1720.44081,0.02243
1718.51207,0.02242
1716.58332,0.02233
1714.65458,0.02233
1712.72583,0.02234
1710.79709,0.02234
1708.86834,0.02242
1706.93960,0.02247
1705.01085,0.02232
1703.08211,0.02219
1701.15336,0.02220
1699.22462,0.02213
1697.29587,0.02189
1695.36713,0.02145
1693.43838,0.02101
1691.50963,0.02084
1689.58089,0.02079
1687.65214,0.02072
1685.72340,0.02073
1683.79465,0.02079
1681.86591,0.02081
1679.93716,0.02084
1678.00842,0.02085
1676.07967,0.02079
1674.15093,0.02071
1672.22218,0.02068
1670.29344,0.02062
1668.36469,0.02046
1666.43595,0.02028
1664.50720,0.02019
1662.57845,0.02020
1660.64971,0.02033
1658.72096,0.02051
1656.79222,0.02064
1654.86347,0.02071
1652.93473,0.02054
1651.00598,0.02021
1649.07724,0.02008
1647.14849,0.02019
1645.21975,0.02040
1643.29100,0.02050
1641.36226,0.02043
1639.43351,0.02033
1637.50477,0.02036
1635.57602,0.02041
1633.64728,0.02040
1631.71853,0.02045
1629.78978,0.02056
1627.86104,0.02054
1625.93229,0.02045
1624.00355,0.02042
1622.07480,0.02047
1620.14606,0.02059
1618.21731,0.02072
1616.28857,0.02072
1614.35982,0.02059
1612.43108,0.02047
1610.50233,0.02046
1608.57359,0.02049
1606.64484,0.02051
1604.71610,0.02058
1602.78735,0.02063
1600.85861,0.02058
1598.92986,0.02047
1597.00111,0.02046
1595.07237,0.02054
1593.14362,0.02044
1591.21488,0.02017
1589.28613,0.02004
1587.35739,0.02013
1585.42864,0.02017
1583.49990,0.02011
1581.57115,0.02016
1579.64241,0.02027
1577.71366,0.02026
1575.78492,0.02018
1573.85617,0.02021
1571.92743,0.02032
1569.99868,0.02025
1568.06993,0.01996
1566.14119,0.01982
1564.21244,0.01988
1562.28370,0.01996
1560.35495,0.01994
1558.42621,0.01980
1556.49746,0.01978
1554.56872,0.01987
1552.63997,0.02004
1550.71123,0.02033
1548.78248,0.02048
1546.85374,0.02039
1544.92499,0.02025
1542.99625,0.02021
1541.06750,0.02033
1539.13876,0.02042
1537.21001,0.02040
1535.28126,0.02048
1533.35252,0.02051
1531.42377,0.02033
1529.49503,0.02016
1527.56628,0.02023
1525.63754,0.02046
1523.70879,0.02059
1521.78005,0.02047
1519.85130,0.02027
1517.92256,0.02024
1515.99381,0.02039
1514.06507,0.02052
1512.13632,0.02045
1510.20758,0.02027
1508.27883,0.02001
1506.35008,0.01966
1504.42134,0.01958
1502.49259,0.01991
1500.56385,0.02036
1498.63510,0.02065
1496.70636,0.02074
1494.77761,0.02078
1492.84887,0.02075
1490.92012,0.02071
1488.99138,0.02076
1487.06263,0.02070
1485.13389,0.02047
1483.20514,0.02025
1481.27640,0.02016
1479.34765,0.02022
1477.41891,0.02030
1475.49016,0.02019
1473.56141,0.01991
1471.63267,0.01974
1469.70392,0.01983
1467.77518,0.02002
1465.84643,0.02022
1463.91769,0.02038
1461.98894,0.02041
1460.06020,0.02038
1458.13145,0.02029
1456.20271,0.02008
1454.27396,0.01992
1452.34522,0.01999
1450.41647,0.02024
1448.48773,0.02047
1446.55898,0.02053
1444.63024,0.02050
1442.70149,0.02049
1440.77274,0.02054
1438.84400,0.02060
1436.91525,0.02048
1434.98651,0.02021
1433.05776,0.02007
1431.12902,0.02014
1429.20027,0.02022
1427.27153,0.02012
1425.34278,0.02001
1423.41404,0.02010
1421.48529,0.02019
1419.55655,0.02005
1417.62780,0.01987
1415.69906,0.01986
1413.77031,0.01998
1411.84156,0.02004
1409.91282,0.01995
1407.98407,0.01988
1406.05533,0.01983
1404.12658,0.01971
1402.19784,0.01970
1400.26909,0.01980
1398.34035,0.01974
1396.41160,0.01966
1394.48286,0.01973
1392.55411,0.01974
1390.62537,0.01964
1388.69662,0.01964
1386.76788,0.01970
1384.83913,0.01968
1382.91039,0.01969
1380.98164,0.01970
1379.05289,0.01964
1377.12415,0.01970
1375.19540,0.01990
1373.26666,0.02005
1371.33791,0.02007
1369.40917,0.02003
1367.48042,0.01996
1365.55168,0.01983
1363.62293,0.01965
1361.69419,0.01952
1359.76544,0.01960
1357.83670,0.01982
1355.90795,0.01997
1353.97921,0.01981
1352.05046,0.01946
1350.12172,0.01925
1348.19297,0.01922
1346.26422,0.01931
1344.33548,0.01935
1342.40673,0.01934
1340.47799,0.01946
1338.54924,0.01959
1336.62050,0.01948
1334.69175,0.01928
1332.76301,0.01914
1330.83426,0.01908
1328.90552,0.01906
1326.97677,0.01904
1325.04803,0.01899
1323.11928,0.01880
1321.19054,0.01854
1319.26179,0.01844
1317.33304,0.01849
1315.40430,0.01845
1313.47555,0.01827
1311.54681,0.01817
1309.61806,0.01820
1307.68932,0.01828
1305.76057,0.01841
1303.83183,0.01855
1301.90308,0.01857
1299.97434,0.01864
1298.04559,0.01889
1296.11685,0.01903
1294.18810,0.01900
1292.25936,0.01910
1290.33061,0.01936
1288.40187,0.01966
1286.47312,0.01997
1284.54437,0.02023
1282.61563,0.02035
1280.68688,0.02038
1278.75814,0.02043
1276.82939,0.02053
1274.90065,0.02069
1272.97190,0.02079
1271.04316,0.02079
1269.11441,0.02081
1267.18567,0.02086
1265.25692,0.02088
1263.32818,0.02085
1261.39943,0.02091
1259.47069,0.02113
1257.54194,0.02133
1255.61320,0.02138
1253.68445,0.02148
1251.75570,0.02164
1249.82696,0.02173
1247.89821,0.02178
1245.96947,0.02179
1244.04072,0.02167
1242.11198,0.02154
1240.18323,0.02158
1238.25449,0.02164
1236.32574,0.02156
1234.39700,0.02147
1232.46825,0.02145
1230.53951,0.02140
1228.61076,0.02131
1226.68202,0.02114
1224.75327,0.02089
1222.82452,0.02067
1220.89578,0.02054
1218.96703,0.02045
1217.03829,0.02040
1215.10954,0.02037
1213.18080,0.02048
1211.25205,0.02081
1209.32331,0.02093
1207.39456,0.02065
1205.46582,0.02038
1203.53707,0.02039
1201.60833,0.02023
1199.67958,0.01976
1197.75084,0.01967
1195.82209,0.02012
1193.89335,0.02030
1191.96460,0.01999
1190.03585,0.01974
1188.10711,0.01975
1186.17836,0.01991
1184.24962,0.02000
1182.32087,0.01982
1180.39213,0.01956
1178.46338,0.01954
1176.53464,0.01979
1174.60589,0.02000
1172.67715,0.01986
1170.74840,0.01956
1168.81966,0.01955
1166.89091,0.01972
1164.96217,0.01975
1163.03342,0.01962
1161.10467,0.01939
1159.17593,0.01923
1157.24718,0.01921
1155.31844,0.01917
1153.38969,0.01893
1151.46095,0.01863
1149.53220,0.01862
1147.60346,0.01892
1145.67471,0.01913
1143.74597,0.01920
1141.81722,0.01933
1139.88848,0.01942
1137.95973,0.01938
1136.03099,0.01934
1134.10224,0.01936
1132.17350,0.01955
1130.24475,0.01989
1128.31600,0.02004
1126.38726,0.01996
1124.45851,0.01993
1122.52977,0.01997
1120.60102,0.01993
1118.67228,0.01986
1116.74353,0.02001
1114.81479,0.02039
1112.88604,0.02067
1110.95730,0.02060
1109.02855,0.02026
1107.09981,0.01994
1105.17106,0.01991
1103.24232,0.02004
1101.31357,0.02002
1099.38483,0.01996
1097.45608,0.02000
1095.52733,0.01989
1093.59859,0.01958
1091.66984,0.01940
1089.74110,0.01938
1087.81235,0.01931
1085.88361,0.01929
1083.95486,0.01941
1082.02612,0.01957
1080.09737,0.01984
1078.16863,0.02035
1076.23988,0.02073
1074.31114,0.02087
1072.38239,0.02114
1070.45365,0.02151
1068.52490,0.02161
1066.59615,0.02157
1064.66741,0.02167
1062.73866,0.02183
1060.80992,0.02171
1058.88117,0.02142
1056.95243,0.02124
1055.02368,0.02117
1053.09494,0.02092
1051.16619,0.02053
1049.23745,0.02049
1047.30870,0.02076
1045.37996,0.02088
1043.45121,0.02095
1041.52247,0.02118
1039.59372,0.02137
1037.66498,0.02131
1035.73623,0.02141
1033.80748,0.02178
1031.87874,0.02184
1029.94999,0.02147
1028.02125,0.02119
1026.09250,0.02115
1024.16376,0.02102
1022.23501,0.02073
1020.30627,0.02035
1018.37752,0.02010
1016.44878,0.02023
1014.52003,0.02063
1012.59129,0.02126
1010.66254,0.02219
1008.73380,0.02288
1006.80505,0.02284
1004.87631,0.02245
1002.94756,0.02236
1001.01881,0.02257
999.09007,0.02271
997.16132,0.02269
995.23258,0.02280
993.30383,0.02307
991.37509,0.02310
989.44634,0.02281
987.51760,0.02255
985.58885,0.02250
983.66011,0.02246
981.73136,0.02242
979.80262,0.02242
977.87387,0.02226
975.94513,0.02209
974.01638,0.02220
972.08763,0.02231
970.15889,0.02225
968.23014,0.02224
966.30140,0.02235
964.37265,0.02242
962.44391,0.02232
960.51516,0.02209
958.58642,0.02196
956.65767,0.02198
954.72893,0.02191
952.80018,0.02176
950.87144,0.02178
948.94269,0.02179
947.01395,0.02170
945.08520,0.02174
943.15646,0.02178
941.22771,0.02171
939.29896,0.02173
937.37022,0.02195
935.44147,0.02211
933.51273,0.02191
931.58398,0.02166
929.65524,0.02168
927.72649,0.02175
925.79775,0.02180
923.86900,0.02190
921.94026,0.02186
920.01151,0.02160
918.08277,0.02122
916.15402,0.02096
914.22528,0.02096
912.29653,0.02101
910.36779,0.02102
908.43904,0.02113
906.51029,0.02133
904.58155,0.02150
902.65280,0.02151
900.72406,0.02140
898.79531,0.02128
896.86657,0.02114
894.93782,0.02110
893.00908,0.02117
891.08033,0.02108
889.15159,0.02080
887.22284,0.02079
885.29410,0.02106
883.36535,0.02119
881.43661,0.02116
879.50786,0.02127
877.57911,0.02134
875.65037,0.02118
873.72162,0.02107
871.79288,0.02119
869.86413,0.02134
867.93539,0.02130
866.00664,0.02103
864.07790,0.02081
862.14915,0.02077
860.22041,0.02074
858.29166,0.02073
856.36292,0.02084
854.43417,0.02104
852.50543,0.02105
850.57668,0.02089
848.64794,0.02112
846.71919,0.02167
844.79044,0.02190
842.86170,0.02177
840.93295,0.02161
839.00421,0.02129
837.07546,0.02086
835.14672,0.02070
833.21797,0.02096
831.28923,0.02129
829.36048,0.02131
827.43174,0.02113
825.50299,0.02092
823.57425,0.02055
821.64550,0.02019
819.71676,0.02011
817.78801,0.01990
815.85926,0.01962
813.93052,0.02000
812.00177,0.02085
810.07303,0.02119
808.14428,0.02075
806.21554,0.02017
804.28679,0.02021
802.35805,0.02072
800.42930,0.02101
798.50056,0.02078
796.57181,0.02027
794.64307,0.01999
792.71432,0.02005
790.78558,0.02005
788.85683,0.01989
786.92809,0.01978
784.99934,0.01967
783.07059,0.01956
781.14185,0.01972
779.21310,0.02017
777.28436,0.02052
775.35561,0.02029
773.42687,0.01958
771.49812,0.01905
769.56938,0.01910
767.64063,0.01939
765.71189,0.01961
763.78314,0.01995
761.85440,0.02029
759.92565,0.02017
757.99691,0.01964
756.06816,0.01922
754.13942,0.01917
752.21067,0.01949
750.28192,0.01994
748.35318,0.02010
746.42443,0.01999
744.49569,0.02009
742.56694,0.02050
740.63820,0.02070
738.70945,0.02036
736.78071,0.01979
734.85196,0.01938
732.92322,0.01914
730.99447,0.01912
729.06573,0.01940
727.13698,0.01955
725.20824,0.01922
723.27949,0.01892
721.35074,0.01914
719.42200,0.01965
717.49325,0.01999
715.56451,0.01993
713.63576,0.01965
711.70702,0.01948
709.77827,0.01951
707.84953,0.01957
705.92078,0.01960
703.99204,0.01994
702.06329,0.02070
700.13455,0.02101
698.20580,0.02054
696.27706,0.01994
694.34831,0.01972
692.41957,0.02002
690.49082,0.02036
688.56207,0.02013
686.63333,0.01975
684.70458,0.01981
682.77584,0.01988
680.84709,0.01956
678.91835,0.01951
676.98960,0.01988
675.06086,0.02005
673.13211,0.02015
671.20337,0.01999
669.27462,0.01910
667.34588,0.01847
665.41713,0.01892
663.48839,0.01977
661.55964,0.02044
659.63090,0.02069
657.70215,0.02023
655.77340,0.01936
653.84466,0.01899
651.91591,0.01909
649.98717,0.01898
648.05842,0.01863
646.12968,0.01842
644.20093,0.01856
642.27219,0.01869
640.34344,0.01816
638.41470,0.01750
636.48595,0.01757
634.55721,0.01795
632.62846,0.01806
630.69972,0.01786
628.77097,0.01741
626.84222,0.01709
624.91348,0.01721
622.98473,0.01695
621.05599,0.01626
619.12724,0.01644
617.19850,0.01690
615.26975,0.01607
613.34101,0.01516
611.41226,0.01622
609.48352,0.01849
607.55477,0.01898
605.62603,0.01763
603.69728,0.01697
601.76854,0.01727
599.83979,0.01738
