7497.03301,0.27616
7495.10426,0.27303
7493.17552,0.27020
7491.24677,0.26935
7489.31803,0.26952
7487.38928,0.27162
7485.46054,0.27525
7483.53179,0.27928
7481.60305,0.28198
7479.67430,0.28047
7477.74556,0.27899
7475.81681,0.28198
7473.88807,0.28476
7471.95932,0.28355
7470.03057,0.27802
7468.10183,0.26896
7466.17308,0.26285
7464.24434,0.26426
7462.31559,0.27018
7460.38685,0.27712
7458.45810,0.27952
7456.52936,0.27407
7454.60061,0.26928
7452.67187,0.27078
7450.74312,0.27193
7448.81438,0.26995
7446.88563,0.26922
7444.95689,0.26909
7443.02814,0.26883
7441.09940,0.27085
7439.17065,0.27318
7437.24190,0.27539
7435.31316,0.27827
7433.38441,0.27856
7431.45567,0.27735
7429.52692,0.27905
7427.59818,0.28209
7425.66943,0.28210
7423.74069,0.27792
7421.81194,0.27233
7419.88320,0.27037
7417.95445,0.27384
7416.02571,0.27799
7414.09696,0.27876
7412.16822,0.27682
7410.23947,0.27555
7408.31073,0.27717
7406.38198,0.27910
7404.45323,0.27833
7402.52449,0.27625
7400.59574,0.27537
7398.66700,0.27601
7396.73825,0.27710
7394.80951,0.27769
7392.88076,0.27734
7390.95202,0.27680
7389.02327,0.27713
7387.09453,0.27726
7385.16578,0.27483
7383.23704,0.27150
7381.30829,0.27198
7379.37955,0.27514
7377.45080,0.27575
7375.52205,0.27418
7373.59331,0.27382
7371.66456,0.27547
7369.73582,0.27728
7367.80707,0.27646
7365.87833,0.27440
7363.94958,0.27449
7362.02084,0.27494
7360.09209,0.27296
7358.16335,0.27335
7356.23460,0.28013
7354.30586,0.28492
7352.37711,0.28139
7350.44837,0.27459
7348.51962,0.27034
7346.59088,0.27161
7344.66213,0.27603
7342.73338,0.27781
7340.80464,0.27580
7338.87589,0.27183
7336.94715,0.27033
7335.01840,0.27336
7333.08966,0.27577
7331.16091,0.27459
7329.23217,0.27261
7327.30342,0.27272
7325.37468,0.27527
7323.44593,0.27899
7321.51719,0.28350
7319.58844,0.28513
7317.65970,0.28086
7315.73095,0.27602
7313.80221,0.27505
7311.87346,0.27659
7309.94471,0.27826
7308.01597,0.27664
7306.08722,0.27262
7304.15848,0.27276
7302.22973,0.27796
7300.30099,0.28171
7298.37224,0.28073
7296.44350,0.27905
7294.51475,0.27958
7292.58601,0.27892
7290.65726,0.27645
7288.72852,0.27556
7286.79977,0.27701
7284.87103,0.27904
7282.94228,0.27657
7281.01353,0.26958
7279.08479,0.26702
7277.15604,0.27026
7275.22730,0.27261
7273.29855,0.27170
7271.36981,0.27039
7269.44106,0.27112
7267.51232,0.27199
7265.58357,0.27154
7263.65483,0.27298
7261.72608,0.27770
7259.79734,0.28190
7257.86859,0.28209
7255.93985,0.27984
7254.01110,0.27828
7252.08236,0.27792
7250.15361,0.27928
7248.22486,0.28143
7246.29612,0.28099
7244.36737,0.27904
7242.43863,0.27796
7240.50988,0.27659
7238.58114,0.27622
7236.65239,0.27757
7234.72365,0.27720
7232.79490,0.27515
7230.86616,0.27388
7228.93741,0.27297
7227.00867,0.27195
7225.07992,0.27148
7223.15118,0.27329
7221.22243,0.27848
7219.29369,0.28119
7217.36494,0.27627
7215.43619,0.27062
7213.50745,0.27119
7211.57870,0.27421
7209.64996,0.27525
7207.72121,0.27554
7205.79247,0.27599
7203.86372,0.27560
7201.93498,0.27475
7200.00623,0.27471
7198.07749,0.27638
7196.14874,0.27824
7194.22000,0.27823
7192.29125,0.27679
7190.36251,0.27554
7188.43376,0.27480
7186.50501,0.27388
7184.57627,0.27327
7182.64752,0.27518
7180.71878,0.27906
7178.79003,0.28037
7176.86129,0.27870
7174.93254,0.27791
7173.00380,0.27716
7171.07505,0.27534
7169.14631,0.27532
7167.21756,0.27583
7165.28882,0.27204
7163.36007,0.26693
7161.43133,0.26887
7159.50258,0.27704
7157.57384,0.28173
7155.64509,0.28039
7153.71634,0.27905
7151.78760,0.27855
7149.85885,0.27581
7147.93011,0.27373
7146.00136,0.27449
7144.07262,0.27518
7142.14387,0.27535
7140.21513,0.27655
7138.28638,0.27785
7136.35764,0.27766
7134.42889,0.27566
7132.50015,0.27238
7130.57140,0.26994
7128.64266,0.27065
7126.71391,0.27206
7124.78516,0.26996
7122.85642,0.26742
7120.92767,0.26988
7118.99893,0.27371
7117.07018,0.27271
7115.14144,0.26848
7113.21269,0.26570
7111.28395,0.26451
7109.35520,0.26400
7107.42646,0.26586
7105.49771,0.26993
7103.56897,0.27308
7101.64022,0.27332
7099.71148,0.27128
7097.78273,0.26940
7095.85399,0.26902
7093.92524,0.26924
7091.99649,0.26956
7090.06775,0.27014
7088.13900,0.27081
7086.21026,0.27160
7084.28151,0.27083
7082.35277,0.26905
7080.42402,0.27109
7078.49528,0.27560
7076.56653,0.27772
7074.63779,0.27808
7072.70904,0.27679
7070.78030,0.27357
7068.85155,0.27067
7066.92281,0.26886
7064.99406,0.26774
7063.06532,0.26837
7061.13657,0.27103
7059.20782,0.27209
7057.27908,0.26873
7055.35033,0.26451
7053.42159,0.26507
7051.49284,0.26934
7049.56410,0.27043
7047.63535,0.26769
7045.70661,0.26727
7043.77786,0.27012
7041.84912,0.27209
7039.92037,0.27138
7037.99163,0.26967
7036.06288,0.26962
7034.13414,0.27153
7032.20539,0.27249
7030.27664,0.27075
7028.34790,0.26842
7026.41915,0.26778
7024.49041,0.26864
7022.56166,0.27040
7020.63292,0.27190
7018.70417,0.27142
7016.77543,0.27025
7014.84668,0.27044
7012.91794,0.27131
7010.98919,0.27152
7009.06045,0.27060
7007.13170,0.26895
7005.20296,0.26825
7003.27421,0.26927
7001.34547,0.27080
6999.41672,0.27170
6997.48797,0.27048
6995.55923,0.26798
6993.63048,0.26842
6991.70174,0.27195
6989.77299,0.27488
6987.84425,0.27515
6985.91550,0.27309
6983.98676,0.27154
6982.05801,0.27279
6980.12927,0.27566
6978.20052,0.27694
6976.27178,0.27569
6974.34303,0.27533
6972.41429,0.27797
6970.48554,0.27977
6968.55680,0.27695
6966.62805,0.27288
6964.69930,0.27153
6962.77056,0.27126
6960.84181,0.27020
6958.91307,0.26949
6956.98432,0.27041
6955.05558,0.27165
6953.12683,0.27218
6951.19809,0.27390
6949.26934,0.27570
6947.34060,0.27456
6945.41185,0.27250
6943.48311,0.27230
6941.55436,0.27332
6939.62562,0.27463
6937.69687,0.27425
6935.76812,0.27228
6933.83938,0.27250
6931.91063,0.27361
6929.98189,0.27181
6928.05314,0.26993
6926.12440,0.27172
6924.19565,0.27596
6922.26691,0.27944
6920.33816,0.28054
6918.40942,0.28029
6916.48067,0.28003
6914.55193,0.27872
6912.62318,0.27587
6910.69444,0.27305
6908.76569,0.27090
6906.83695,0.26998
6904.90820,0.27147
6902.97945,0.27400
6901.05071,0.27502
6899.12196,0.27499
6897.19322,0.27450
6895.26447,0.27338
6893.33573,0.27362
6891.40698,0.27544
6889.47824,0.27709
6887.54949,0.27715
6885.62075,0.27451
6883.69200,0.27113
6881.76326,0.26973
6879.83451,0.26890
6877.90577,0.26708
6875.97702,0.26821
6874.04828,0.27394
6872.11953,0.27705
6870.19078,0.27480
6868.26204,0.27210
6866.33329,0.27233
6864.40455,0.27533
6862.47580,0.27695
6860.54706,0.27531
6858.61831,0.27439
6856.68957,0.27540
6854.76082,0.27672
6852.83208,0.27754
6850.90333,0.27650
6848.97459,0.27471
6847.04584,0.27439
6845.11710,0.27482
6843.18835,0.27569
6841.25960,0.27658
6839.33086,0.27578
6837.40211,0.27395
6835.47337,0.27274
6833.54462,0.27216
6831.61588,0.27206
6829.68713,0.27226
6827.75839,0.27258
6825.82964,0.27373
6823.90090,0.27534
6821.97215,0.27617
6820.04341,0.27569
6818.11466,0.27364
6816.18592,0.27229
6814.25717,0.27395
6812.32843,0.27620
6810.39968,0.27678
6808.47093,0.27659
6806.54219,0.27480
6804.61344,0.27123
6802.68470,0.26905
6800.75595,0.26866
6798.82721,0.26780
6796.89846,0.26729
6794.96972,0.26961
6793.04097,0.27470
6791.11223,0.27890
6789.18348,0.27892
6787.25474,0.27638
6785.32599,0.27537
6783.39725,0.27534
6781.46850,0.27477
6779.53975,0.27523
6777.61101,0.27509
6775.68226,0.27227
6773.75352,0.27032
6771.82477,0.27231
6769.89603,0.27600
6767.96728,0.27741
6766.03854,0.27632
6764.10979,0.27533
6762.18105,0.27456
6760.25230,0.27267
6758.32356,0.27064
6756.39481,0.26952
6754.46607,0.26967
6752.53732,0.27045
6750.60858,0.26931
6748.67983,0.26835
6746.75108,0.27053
6744.82234,0.27244
6742.89359,0.27215
6740.96485,0.27167
6739.03610,0.27173
6737.10736,0.27148
6735.17861,0.27148
6733.24987,0.27186
6731.32112,0.27095
6729.39238,0.27044
6727.46363,0.27274
6725.53489,0.27588
6723.60614,0.27738
6721.67740,0.27618
6719.74865,0.27229
6717.81991,0.26855
6715.89116,0.26749
6713.96241,0.26705
6712.03367,0.26583
6710.10492,0.26585
6708.17618,0.26897
6706.24743,0.27376
6704.31869,0.27581
6702.38994,0.27443
6700.46120,0.27277
6698.53245,0.27257
6696.60371,0.27377
6694.67496,0.27501
6692.74622,0.27460
6690.81747,0.27276
6688.88873,0.27211
6686.95998,0.27363
6685.03123,0.27553
6683.10249,0.27708
6681.17374,0.27730
6679.24500,0.27495
6677.31625,0.27274
6675.38751,0.27246
6673.45876,0.27205
6671.53002,0.27268
6669.60127,0.27659
6667.67253,0.28062
6665.74378,0.28180
6663.81504,0.28122
6661.88629,0.27954
6659.95755,0.27722
6658.02880,0.27593
6656.10006,0.27578
6654.17131,0.27662
6652.24256,0.27732
6650.31382,0.27507
6648.38507,0.27170
6646.45633,0.27118
6644.52758,0.27315
6642.59884,0.27550
6640.67009,0.27741
6638.74135,0.27836
6636.81260,0.27752
6634.88386,0.27564
6632.95511,0.27379
6631.02637,0.27275
6629.09762,0.27353
6627.16888,0.27435
6625.24013,0.27334
6623.31139,0.27332
6621.38264,0.27533
6619.45389,0.27557
6617.52515,0.27316
6615.59640,0.27131
6613.66766,0.27214
6611.73891,0.27481
6609.81017,0.27713
6607.88142,0.27804
6605.95268,0.27747
6604.02393,0.27614
6602.09519,0.27579
6600.16644,0.27684
6598.23770,0.27716
6596.30895,0.27534
6594.38021,0.27273
6592.45146,0.27165
6590.52271,0.27282
6588.59397,0.27404
6586.66522,0.27439
6584.73648,0.27589
6582.80773,0.27817
6580.87899,0.27874
6578.95024,0.27631
6577.02150,0.27312
6575.09275,0.27291
6573.16401,0.27493
6571.23526,0.27687
6569.30652,0.27833
6567.37777,0.27790
6565.44903,0.27542
6563.52028,0.27407
6561.59154,0.27502
6559.66279,0.27619
6557.73404,0.27686
6555.80530,0.27739
6553.87655,0.27719
6551.94781,0.27570
6550.01906,0.27360
6548.09032,0.27212
6546.16157,0.27121
6544.23283,0.27090
6542.30408,0.27253
6540.37534,0.27589
6538.44659,0.27836
6536.51785,0.27833
6534.58910,0.27695
6532.66036,0.27544
6530.73161,0.27444
6528.80287,0.27504
6526.87412,0.27599
6524.94537,0.27549
6523.01663,0.27576
6521.08788,0.27794
6519.15914,0.27827
6517.23039,0.27435
6515.30165,0.27001
6513.37290,0.27000
6511.44416,0.27238
6509.51541,0.27386
6507.58667,0.27519
6505.65792,0.27467
6503.72918,0.27117
6501.80043,0.26999
6499.87169,0.27226
6497.94294,0.27338
6496.01419,0.27501
6494.08545,0.27970
6492.15670,0.28229
6490.22796,0.27910
6488.29921,0.27424
6486.37047,0.27240
6484.44172,0.27337
6482.51298,0.27449
6480.58423,0.27436
6478.65549,0.27453
6476.72674,0.27697
6474.79800,0.27920
6472.86925,0.27782
6470.94051,0.27541
6469.01176,0.27531
6467.08302,0.27593
6465.15427,0.27539
6463.22552,0.27413
6461.29678,0.27340
6459.36803,0.27353
6457.43929,0.27302
6455.51054,0.27186
6453.58180,0.27139
6451.65305,0.27140
6449.72431,0.27197
6447.79556,0.27324
6445.86682,0.27449
6443.93807,0.27527
6442.00933,0.27551
6440.08058,0.27499
6438.15184,0.27358
6436.22309,0.27238
6434.29434,0.27288
6432.36560,0.27472
6430.43685,0.27650
6428.50811,0.27707
6426.57936,0.27622
6424.65062,0.27524
6422.72187,0.27458
6420.79313,0.27304
6418.86438,0.27128
6416.93564,0.27139
6415.00689,0.27338
6413.07815,0.27496
6411.14940,0.27425
6409.22066,0.27224
6407.29191,0.27101
6405.36317,0.27092
6403.43442,0.27169
6401.50567,0.27318
6399.57693,0.27464
6397.64818,0.27470
6395.71944,0.27394
6393.79069,0.27450
6391.86195,0.27507
6389.93320,0.27326
6388.00446,0.27121
6386.07571,0.27150
6384.14697,0.27348
6382.21822,0.27473
6380.28948,0.27412
6378.36073,0.27371
6376.43199,0.27427
6374.50324,0.27355
6372.57450,0.27160
6370.64575,0.27058
6368.71700,0.27106
6366.78826,0.27207
6364.85951,0.27265
6362.93077,0.27271
6361.00202,0.27350
6359.07328,0.27574
6357.14453,0.27759
6355.21579,0.27725
6353.28704,0.27595
6351.35830,0.27499
6349.42955,0.27423
6347.50081,0.27460
6345.57206,0.27614
6343.64332,0.27676
6341.71457,0.27582
6339.78582,0.27441
6337.85708,0.27343
6335.92833,0.27302
6333.99959,0.27337
6332.07084,0.27433
6330.14210,0.27434
6328.21335,0.27365
6326.28461,0.27411
6324.35586,0.27534
6322.42712,0.27612
6320.49837,0.27555
6318.56963,0.27392
6316.64088,0.27326
6314.71214,0.27426
6312.78339,0.27583
6310.85465,0.27758
6308.92590,0.27890
6306.99715,0.27856
6305.06841,0.27798
6303.13966,0.27836
6301.21092,0.27759
6299.28217,0.27616
6297.35343,0.27622
6295.42468,0.27631
6293.49594,0.27594
6291.56719,0.27704
6289.63845,0.27861
6287.70970,0.27792
6285.78096,0.27556
6283.85221,0.27426
6281.92347,0.27462
6279.99472,0.27519
6278.06598,0.27539
6276.13723,0.27643
6274.20848,0.27843
6272.27974,0.27889
6270.35099,0.27674
6268.42225,0.27496
6266.49350,0.27467
6264.56476,0.27396
6262.63601,0.27426
6260.70727,0.27686
6258.77852,0.27824
6256.84978,0.27748
6254.92103,0.27676
6252.99229,0.27646
6251.06354,0.27674
6249.13480,0.27700
6247.20605,0.27620
6245.27730,0.27493
6243.34856,0.27369
6241.41981,0.27293
6239.49107,0.27279
6237.56232,0.27256
6235.63358,0.27281
6233.70483,0.27474
6231.77609,0.27770
6229.84734,0.27949
6227.91860,0.27877
6225.98985,0.27664
6224.06111,0.27508
6222.13236,0.27451
6220.20362,0.27468
6218.27487,0.27569
6216.34613,0.27673
6214.41738,0.27729
6212.48863,0.27780
6210.55989,0.27785
6208.63114,0.27637
6206.70240,0.27414
6204.77365,0.27381
6202.84491,0.27507
6200.91616,0.27453
6198.98742,0.27225
6197.05867,0.27129
6195.12993,0.27228
6193.20118,0.27342
6191.27244,0.27454
6189.34369,0.27615
6187.41495,0.27639
6185.48620,0.27394
6183.55746,0.27062
6181.62871,0.26898
6179.69996,0.26991
6177.77122,0.27169
6175.84247,0.27299
6173.91373,0.27460
6171.98498,0.27600
6170.05624,0.27580
6168.12749,0.27489
6166.19875,0.27502
6164.27000,0.27600
6162.34126,0.27633
6160.41251,0.27575
6158.48377,0.27505
6156.55502,0.27457
6154.62628,0.27416
6152.69753,0.27364
6150.76878,0.27363
6148.84004,0.27483
6146.91129,0.27682
6144.98255,0.27826
6143.05380,0.27814
6141.12506,0.27688
6139.19631,0.27587
6137.26757,0.27573
6135.33882,0.27607
6133.41008,0.27682
6131.48133,0.27747
6129.55259,0.27629
6127.62384,0.27320
6125.69510,0.27128
6123.76635,0.27191
6121.83761,0.27309
6119.90886,0.27408
6117.98011,0.27539
6116.05137,0.27612
6114.12262,0.27603
6112.19388,0.27584
6110.26513,0.27555
6108.33639,0.27479
6106.40764,0.27434
6104.47890,0.27491
6102.55015,0.27548
6100.62141,0.27541
6098.69266,0.27505
6096.76392,0.27474
6094.83517,0.27505
6092.90643,0.27557
6090.97768,0.27523
6089.04893,0.27451
6087.12019,0.27477
6085.19144,0.27525
6083.26270,0.27534
6081.33395,0.27615
6079.40521,0.27637
6077.47646,0.27514
6075.54772,0.27446
6073.61897,0.27387
6071.69023,0.27314
6069.76148,0.27416
6067.83274,0.27571
6065.90399,0.27539
6063.97525,0.27379
6062.04650,0.27289
6060.11776,0.27340
6058.18901,0.27382
6056.26026,0.27332
6054.33152,0.27341
6052.40277,0.27510
6050.47403,0.27743
6048.54528,0.27905
6046.61654,0.27870
6044.68779,0.27592
6042.75905,0.27320
6040.83030,0.27342
6038.90156,0.27542
6036.97281,0.27639
6035.04407,0.27600
6033.11532,0.27535
6031.18658,0.27514
6029.25783,0.27550
6027.32909,0.27600
6025.40034,0.27625
6023.47159,0.27655
6021.54285,0.27719
6019.61410,0.27721
6017.68536,0.27529
6015.75661,0.27283
6013.82787,0.27229
6011.89912,0.27350
6009.97038,0.27485
6008.04163,0.27547
6006.11289,0.27508
6004.18414,0.27379
6002.25540,0.27303
6000.32665,0.27391
5998.39791,0.27473
5996.46916,0.27435
5994.54041,0.27409
5992.61167,0.27434
5990.68292,0.27447
5988.75418,0.27479
5986.82543,0.27515
5984.89669,0.27475
5982.96794,0.27461
5981.03920,0.27587
5979.11045,0.27722
5977.18171,0.27713
5975.25296,0.27603
5973.32422,0.27510
5971.39547,0.27432
5969.46673,0.27340
5967.53798,0.27284
5965.60924,0.27296
5963.68049,0.27391
5961.75174,0.27520
5959.82300,0.27564
5957.89425,0.27536
5955.96551,0.27528
5954.03676,0.27539
5952.10802,0.27488
5950.17927,0.27389
5948.25053,0.27353
5946.32178,0.27375
5944.39304,0.27396
5942.46429,0.27406
5940.53555,0.27375
5938.60680,0.27313
5936.67806,0.27293
5934.74931,0.27370
5932.82057,0.27473
5930.89182,0.27464
5928.96307,0.27378
5927.03433,0.27423
5925.10558,0.27593
5923.17684,0.27632
5921.24809,0.27526
5919.31935,0.27475
5917.39060,0.27465
5915.46186,0.27424
5913.53311,0.27455
5911.60437,0.27564
5909.67562,0.27561
5907.74688,0.27459
5905.81813,0.27449
5903.88939,0.27498
5901.96064,0.27462
5900.03189,0.27403
5898.10315,0.27426
5896.17440,0.27443
5894.24566,0.27423
5892.31691,0.27466
5890.38817,0.27516
5888.45942,0.27469
5886.53068,0.27364
5884.60193,0.27304
5882.67319,0.27318
5880.74444,0.27383
5878.81570,0.27450
5876.88695,0.27407
5874.95821,0.27297
5873.02946,0.27315
5871.10072,0.27461
5869.17197,0.27563
5867.24322,0.27569
5865.31448,0.27589
5863.38573,0.27601
5861.45699,0.27520
5859.52824,0.27475
5857.59950,0.27519
5855.67075,0.27512
5853.74201,0.27502
5851.81326,0.27562
5849.88452,0.27576
5847.95577,0.27554
5846.02703,0.27556
5844.09828,0.27501
5842.16954,0.27437
5840.24079,0.27496
5838.31205,0.27605
5836.38330,0.27645
5834.45455,0.27615
5832.52581,0.27556
5830.59706,0.27514
5828.66832,0.27440
5826.73957,0.27328
5824.81083,0.27338
5822.88208,0.27493
5820.95334,0.27631
5819.02459,0.27642
5817.09585,0.27549
5815.16710,0.27447
5813.23836,0.27389
5811.30961,0.27409
5809.38087,0.27446
5807.45212,0.27345
5805.52337,0.27182
5803.59463,0.27113
5801.66588,0.27074
5799.73714,0.27049
5797.80839,0.27114
5795.87965,0.27196
5793.95090,0.27192
5792.02216,0.27114
5790.09341,0.27067
5788.16467,0.27131
5786.23592,0.27291
5784.30718,0.27478
5782.37843,0.27536
5780.44969,0.27404
5778.52094,0.27275
5776.59220,0.27292
5774.66345,0.27381
5772.73470,0.27413
5770.80596,0.27392
5768.87721,0.27373
5766.94847,0.27300
5765.01972,0.27216
5763.09098,0.27261
5761.16223,0.27409
5759.23349,0.27525
5757.30474,0.27526
5755.37600,0.27426
5753.44725,0.27311
5751.51851,0.27276
5749.58976,0.27318
5747.66102,0.27319
5745.73227,0.27303
5743.80352,0.27395
5741.87478,0.27491
5739.94603,0.27417
5738.01729,0.27287
5736.08854,0.27315
5734.15980,0.27449
5732.23105,0.27501
5730.30231,0.27453
5728.37356,0.27376
5726.44482,0.27318
5724.51607,0.27332
5722.58733,0.27406
5720.65858,0.27431
5718.72984,0.27378
5716.80109,0.27353
5714.87235,0.27386
5712.94360,0.27384
5711.01485,0.27321
5709.08611,0.27245
5707.15736,0.27189
5705.22862,0.27171
5703.29987,0.27167
5701.37113,0.27120
5699.44238,0.27036
5697.51364,0.27016
5695.58489,0.27135
5693.65615,0.27332
5691.72740,0.27472
5689.79866,0.27509
5687.86991,0.27505
5685.94117,0.27500
5684.01242,0.27512
5682.08368,0.27571
5680.15493,0.27645
5678.22618,0.27634
5676.29744,0.27512
5674.36869,0.27393
5672.43995,0.27332
5670.51120,0.27265
5668.58246,0.27204
5666.65371,0.27182
5664.72497,0.27151
5662.79622,0.27089
5660.86748,0.27056
5658.93873,0.27088
5657.00999,0.27159
5655.08124,0.27272
5653.15250,0.27431
5651.22375,0.27515
5649.29500,0.27413
5647.36626,0.27286
5645.43751,0.27304
5643.50877,0.27350
5641.58002,0.27328
5639.65128,0.27280
5637.72253,0.27197
5635.79379,0.27144
5633.86504,0.27240
5631.93630,0.27397
5630.00755,0.27426
5628.07881,0.27352
5626.15006,0.27323
5624.22132,0.27312
5622.29257,0.27281
5620.36383,0.27345
5618.43508,0.27440
5616.50633,0.27391
5614.57759,0.27285
5612.64884,0.27260
5610.72010,0.27270
5608.79135,0.27254
5606.86261,0.27264
5604.93386,0.27352
5603.00512,0.27441
5601.07637,0.27458
5599.14763,0.27414
5597.21888,0.27328
5595.29014,0.27231
5593.36139,0.27163
5591.43265,0.27164
5589.50390,0.27224
5587.57516,0.27257
5585.64641,0.27231
5583.71766,0.27149
5581.78892,0.27047
5579.86017,0.27027
5577.93143,0.27095
5576.00268,0.27150
5574.07394,0.27205
5572.14519,0.27277
5570.21645,0.27266
5568.28770,0.27175
5566.35896,0.27142
5564.43021,0.27200
5562.50147,0.27265
5560.57272,0.27315
5558.64398,0.27354
5556.71523,0.27310
5554.78648,0.27205
5552.85774,0.27161
5550.92899,0.27207
5549.00025,0.27294
5547.07150,0.27312
5545.14276,0.27233
5543.21401,0.27203
5541.28527,0.27220
5539.35652,0.27142
5537.42778,0.27027
5535.49903,0.27009
5533.57029,0.27083
5531.64154,0.27185
5529.71280,0.27250
5527.78405,0.27224
5525.85531,0.27150
5523.92656,0.27169
5521.99781,0.27275
5520.06907,0.27321
5518.14032,0.27279
5516.21158,0.27250
5514.28283,0.27314
5512.35409,0.27389
5510.42534,0.27311
5508.49660,0.27174
5506.56785,0.27177
5504.63911,0.27235
5502.71036,0.27218
5500.78162,0.27190
5498.85287,0.27180
5496.92413,0.27196
5494.99538,0.27270
5493.06664,0.27306
5491.13789,0.27271
5489.20914,0.27283
5487.28040,0.27377
5485.35165,0.27407
5483.42291,0.27268
5481.49416,0.27123
5479.56542,0.27150
5477.63667,0.27264
5475.70793,0.27313
5473.77918,0.27298
5471.85044,0.27270
5469.92169,0.27256
5467.99295,0.27298
5466.06420,0.27363
5464.13546,0.27357
5462.20671,0.27278
5460.27796,0.27220
5458.34922,0.27194
5456.42047,0.27150
5454.49173,0.27130
5452.56298,0.27177
5450.63424,0.27255
5448.70549,0.27294
5446.77675,0.27253
5444.84800,0.27208
5442.91926,0.27210
5440.99051,0.27221
5439.06177,0.27247
5437.13302,0.27285
5435.20428,0.27285
5433.27553,0.27208
5431.34679,0.27080
5429.41804,0.27017
5427.48929,0.27082
5425.56055,0.27187
5423.63180,0.27252
5421.70306,0.27269
5419.77431,0.27238
5417.84557,0.27210
5415.91682,0.27227
5413.98808,0.27238
5412.05933,0.27190
5410.13059,0.27108
5408.20184,0.27098
5406.27310,0.27155
5404.34435,0.27129
5402.41561,0.27016
5400.48686,0.26980
5398.55811,0.27098
5396.62937,0.27271
5394.70062,0.27319
5392.77188,0.27207
5390.84313,0.27096
5388.91439,0.27071
5386.98564,0.27029
5385.05690,0.26941
5383.12815,0.26931
5381.19941,0.27017
5379.27066,0.27082
5377.34192,0.27058
5375.41317,0.26981
5373.48443,0.26938
5371.55568,0.26989
5369.62694,0.27092
5367.69819,0.27118
5365.76944,0.27054
5363.84070,0.27019
5361.91195,0.27015
5359.98321,0.26980
5358.05446,0.26948
5356.12572,0.26949
5354.19697,0.26984
5352.26823,0.27048
5350.33948,0.27083
5348.41074,0.27032
5346.48199,0.26939
5344.55325,0.26892
5342.62450,0.26898
5340.69576,0.26895
5338.76701,0.26880
5336.83827,0.26897
5334.90952,0.26913
5332.98077,0.26892
5331.05203,0.26872
5329.12328,0.26858
5327.19454,0.26847
5325.26579,0.26856
5323.33705,0.26829
5321.40830,0.26740
5319.47956,0.26693
5317.55081,0.26737
5315.62207,0.26795
5313.69332,0.26766
5311.76458,0.26611
5309.83583,0.26476
5307.90709,0.26493
5305.97834,0.26518
5304.04959,0.26448
5302.12085,0.26421
5300.19210,0.26508
5298.26336,0.26580
5296.33461,0.26518
5294.40587,0.26370
5292.47712,0.26258
5290.54838,0.26222
5288.61963,0.26210
5286.69089,0.26212
5284.76214,0.26246
5282.83340,0.26257
5280.90465,0.26232
5278.97591,0.26233
5277.04716,0.26260
5275.11842,0.26276
5273.18967,0.26281
5271.26092,0.26253
5269.33218,0.26149
5267.40343,0.25993
5265.47469,0.25872
5263.54594,0.25821
5261.61720,0.25797
5259.68845,0.25752
5257.75971,0.25692
5255.83096,0.25673
5253.90222,0.25659
5251.97347,0.25561
5250.04473,0.25459
5248.11598,0.25426
5246.18724,0.25373
5244.25849,0.25295
5242.32975,0.25242
5240.40100,0.25151
5238.47225,0.25059
5236.54351,0.25084
5234.61476,0.25157
5232.68602,0.25149
5230.75727,0.25099
5228.82853,0.25086
5226.89978,0.25095
5224.97104,0.25083
5223.04229,0.25024
5221.11355,0.24956
5219.18480,0.24949
5217.25606,0.24972
5215.32731,0.24943
5213.39857,0.24909
5211.46982,0.24956
5209.54107,0.25000
5207.61233,0.24913
5205.68358,0.24767
5203.75484,0.24700
5201.82609,0.24727
5199.89735,0.24774
5197.96860,0.24792
5196.03986,0.24820
5194.11111,0.24854
5192.18237,0.24879
5190.25362,0.24914
5188.32488,0.24887
5186.39613,0.24789
5184.46739,0.24733
5182.53864,0.24735
5180.60990,0.24748
5178.68115,0.24775
5176.75240,0.24832
5174.82366,0.24896
5172.89491,0.24911
5170.96617,0.24860
5169.03742,0.24801
5167.10868,0.24804
5165.17993,0.24859
5163.25119,0.24891
5161.32244,0.24905
5159.39370,0.24924
5157.46495,0.24881
5155.53621,0.24810
5153.60746,0.24817
5151.67872,0.24859
5149.74997,0.24887
5147.82123,0.24921
5145.89248,0.24941
5143.96373,0.24940
5142.03499,0.24943
5140.10624,0.24916
5138.17750,0.24853
5136.24875,0.24830
5134.32001,0.24870
5132.39126,0.24940
5130.46252,0.25006
5128.53377,0.25035
5126.60503,0.25029
5124.67628,0.24998
5122.74754,0.24948
5120.81879,0.24921
5118.89005,0.24954
5116.96130,0.25018
5115.03255,0.25079
5113.10381,0.25128
5111.17506,0.25124
5109.24632,0.25063
5107.31757,0.25035
5105.38883,0.25073
5103.46008,0.25122
5101.53134,0.25145
5099.60259,0.25130
5097.67385,0.25111
5095.74510,0.25156
5093.81636,0.25224
5091.88761,0.25239
5089.95887,0.25239
5088.03012,0.25258
5086.10138,0.25237
5084.17263,0.25190
5082.24388,0.25198
5080.31514,0.25275
5078.38639,0.25369
5076.45765,0.25392
5074.52890,0.25336
5072.60016,0.25327
5070.67141,0.25374
5068.74267,0.25377
5066.81392,0.25331
5064.88518,0.25264
5062.95643,0.25181
5061.02769,0.25128
5059.09894,0.25147
5057.17020,0.25214
5055.24145,0.25271
5053.31270,0.25275
5051.38396,0.25252
5049.45521,0.25291
5047.52647,0.25404
5045.59772,0.25491
5043.66898,0.25486
5041.74023,0.25417
5039.81149,0.25343
5037.88274,0.25320
5035.95400,0.25356
5034.02525,0.25413
5032.09651,0.25470
5030.16776,0.25517
5028.23902,0.25530
5026.31027,0.25498
5024.38153,0.25461
5022.45278,0.25464
5020.52403,0.25480
5018.59529,0.25472
5016.66654,0.25457
5014.73780,0.25486
5012.80905,0.25563
5010.88031,0.25632
5008.95156,0.25637
5007.02282,0.25604
5005.09407,0.25582
5003.16533,0.25547
5001.23658,0.25511
4999.30784,0.25532
4997.37909,0.25569
4995.45035,0.25575
4993.52160,0.25597
4991.59286,0.25673
4989.66411,0.25733
4987.73536,0.25690
4985.80662,0.25605
4983.87787,0.25603
4981.94913,0.25682
4980.02038,0.25729
4978.09164,0.25712
4976.16289,0.25680
4974.23415,0.25671
4972.30540,0.25697
4970.37666,0.25719
4968.44791,0.25737
4966.51917,0.25787
4964.59042,0.25821
4962.66168,0.25825
4960.73293,0.25899
4958.80418,0.26032
4956.87544,0.26081
4954.94669,0.26038
4953.01795,0.25979
4951.08920,0.25900
4949.16046,0.25824
4947.23171,0.25822
4945.30297,0.25881
4943.37422,0.25924
4941.44548,0.25934
4939.51673,0.25951
4937.58799,0.25972
4935.65924,0.25969
4933.73050,0.25937
4931.80175,0.25921
4929.87301,0.25975
4927.94426,0.26046
4926.01551,0.26043
4924.08677,0.25984
4922.15802,0.25944
4920.22928,0.25918
4918.30053,0.25890
4916.37179,0.25926
4914.44304,0.26031
4912.51430,0.26109
4910.58555,0.26098
4908.65681,0.26032
4906.72806,0.25999
4904.79932,0.26026
4902.87057,0.26067
4900.94183,0.26081
4899.01308,0.26053
4897.08434,0.26002
4895.15559,0.25985
4893.22684,0.26022
4891.29810,0.26063
4889.36935,0.26088
4887.44061,0.26096
4885.51186,0.26074
4883.58312,0.26056
4881.65437,0.26064
4879.72563,0.26063
4877.79688,0.26046
4875.86814,0.26064
4873.93939,0.26107
4872.01065,0.26106
4870.08190,0.26066
4868.15316,0.26038
4866.22441,0.26033
4864.29566,0.26060
4862.36692,0.26102
4860.43817,0.26106
4858.50943,0.26072
4856.58068,0.26046
4854.65194,0.26060
4852.72319,0.26095
4850.79445,0.26097
4848.86570,0.26067
4846.93696,0.26050
4845.00821,0.26080
4843.07947,0.26145
4841.15072,0.26169
4839.22198,0.26154
4837.29323,0.26164
4835.36449,0.26183
4833.43574,0.26176
4831.50699,0.26155
4829.57825,0.26142
4827.64950,0.26156
4825.72076,0.26202
4823.79201,0.26221
4821.86327,0.26181
4819.93452,0.26156
4818.00578,0.26182
4816.07703,0.26196
4814.14829,0.26155
4812.21954,0.26090
4810.29080,0.26067
4808.36205,0.26104
4806.43331,0.26149
4804.50456,0.26155
4802.57582,0.26124
4800.64707,0.26097
4798.71832,0.26100
4796.78958,0.26119
4794.86083,0.26144
4792.93209,0.26168
4791.00334,0.26197
4789.07460,0.26210
4787.14585,0.26157
4785.21711,0.26065
4783.28836,0.26015
4781.35962,0.26025
4779.43087,0.26047
4777.50213,0.26069
4775.57338,0.26103
4773.64464,0.26122
4771.71589,0.26150
4769.78714,0.26199
4767.85840,0.26206
4765.92965,0.26172
4764.00091,0.26139
4762.07216,0.26097
4760.14342,0.26047
4758.21467,0.26042
4756.28593,0.26092
4754.35718,0.26143
4752.42844,0.26164
4750.49969,0.26155
4748.57095,0.26127
4746.64220,0.26122
4744.71346,0.26149
4742.78471,0.26158
4740.85597,0.26142
4738.92722,0.26152
4736.99847,0.26192
4735.06973,0.26227
4733.14098,0.26224
4731.21224,0.26185
4729.28349,0.26148
4727.35475,0.26154
4725.42600,0.26181
4723.49726,0.26175
4721.56851,0.26166
4719.63977,0.26178
4717.71102,0.26155
4715.78228,0.26095
4713.85353,0.26068
4711.92479,0.26099
4709.99604,0.26133
4708.06729,0.26125
4706.13855,0.26099
4704.20980,0.26103
4702.28106,0.26128
4700.35231,0.26127
4698.42357,0.26109
4696.49482,0.26099
4694.56608,0.26095
4692.63733,0.26082
4690.70859,0.26029
4688.77984,0.25971
4686.85110,0.25984
4684.92235,0.26051
4682.99361,0.26097
4681.06486,0.26080
4679.13612,0.26024
4677.20737,0.25989
4675.27862,0.25990
4673.34988,0.26003
4671.42113,0.26021
4669.49239,0.26022
4667.56364,0.25994
4665.63490,0.25986
4663.70615,0.26022
4661.77741,0.26056
4659.84866,0.26050
4657.91992,0.26011
4655.99117,0.25978
4654.06243,0.25974
4652.13368,0.25986
4650.20494,0.25976
4648.27619,0.25941
4646.34745,0.25927
4644.41870,0.25933
4642.48995,0.25915
4640.56121,0.25881
4638.63246,0.25851
4636.70372,0.25831
4634.77497,0.25845
4632.84623,0.25882
4630.91748,0.25905
4628.98874,0.25914
4627.05999,0.25908
4625.13125,0.25864
4623.20250,0.25804
4621.27376,0.25781
4619.34501,0.25805
4617.41627,0.25849
4615.48752,0.25867
4613.55877,0.25842
4611.63003,0.25846
4609.70128,0.25899
4607.77254,0.25908
4605.84379,0.25843
4603.91505,0.25776
4601.98630,0.25745
4600.05756,0.25743
4598.12881,0.25761
4596.20007,0.25769
4594.27132,0.25769
4592.34258,0.25792
4590.41383,0.25806
4588.48509,0.25776
4586.55634,0.25747
4584.62760,0.25743
4582.69885,0.25731
4580.77010,0.25732
4578.84136,0.25768
4576.91261,0.25791
4574.98387,0.25764
4573.05512,0.25703
4571.12638,0.25670
4569.19763,0.25680
4567.26889,0.25677
4565.34014,0.25644
4563.41140,0.25620
4561.48265,0.25605
4559.55391,0.25579
4557.62516,0.25557
4555.69642,0.25549
4553.76767,0.25534
4551.83893,0.25509
4549.91018,0.25500
4547.98143,0.25532
4546.05269,0.25558
4544.12394,0.25526
4542.19520,0.25444
4540.26645,0.25354
4538.33771,0.25310
4536.40896,0.25313
4534.48022,0.25297
4532.55147,0.25256
4530.62273,0.25236
4528.69398,0.25221
4526.76524,0.25179
4524.83649,0.25153
4522.90775,0.25155
4520.97900,0.25158
4519.05025,0.25166
4517.12151,0.25157
4515.19276,0.25124
4513.26402,0.25117
4511.33527,0.25128
4509.40653,0.25104
4507.47778,0.25067
4505.54904,0.25078
4503.62029,0.25101
4501.69155,0.25077
4499.76280,0.25052
4497.83406,0.25059
4495.90531,0.25056
4493.97657,0.25031
4492.04782,0.25002
4490.11908,0.24983
4488.19033,0.24978
4486.26158,0.24951
4484.33284,0.24899
4482.40409,0.24899
4480.47535,0.24960
4478.54660,0.25010
4476.61786,0.25026
4474.68911,0.25024
4472.76037,0.25020
4470.83162,0.25031
4468.90288,0.25047
4466.97413,0.25043
4465.04539,0.25004
4463.11664,0.24963
4461.18790,0.24948
4459.25915,0.24942
4457.33041,0.24948
4455.40166,0.24960
4453.47291,0.24939
4451.54417,0.24883
4449.61542,0.24832
4447.68668,0.24799
4445.75793,0.24782
4443.82919,0.24796
4441.90044,0.24816
4439.97170,0.24797
4438.04295,0.24757
4436.11421,0.24738
4434.18546,0.24745
4432.25672,0.24760
4430.32797,0.24752
4428.39923,0.24736
4426.47048,0.24728
4424.54173,0.24709
4422.61299,0.24680
4420.68424,0.24644
4418.75550,0.24612
4416.82675,0.24593
4414.89801,0.24562
4412.96926,0.24515
4411.04052,0.24484
4409.11177,0.24472
4407.18303,0.24441
4405.25428,0.24399
4403.32554,0.24382
4401.39679,0.24403
4399.46805,0.24428
4397.53930,0.24403
4395.61056,0.24346
4393.68181,0.24315
4391.75306,0.24304
4389.82432,0.24296
4387.89557,0.24294
4385.96683,0.24287
4384.03808,0.24269
4382.10934,0.24249
4380.18059,0.24238
4378.25185,0.24227
4376.32310,0.24206
4374.39436,0.24176
4372.46561,0.24148
4370.53687,0.24128
4368.60812,0.24098
4366.67938,0.24053
4364.75063,0.24010
4362.82189,0.23987
4360.89314,0.23983
4358.96439,0.23972
4357.03565,0.23951
4355.10690,0.23946
4353.17816,0.23936
4351.24941,0.23879
4349.32067,0.23795
4347.39192,0.23757
4345.46318,0.23778
4343.53443,0.23799
4341.60569,0.23799
4339.67694,0.23764
4337.74820,0.23685
4335.81945,0.23595
4333.89071,0.23529
4331.96196,0.23515
4330.03321,0.23558
4328.10447,0.23601
4326.17572,0.23574
4324.24698,0.23495
4322.31823,0.23429
4320.38949,0.23411
4318.46074,0.23434
4316.53200,0.23449
4314.60325,0.23413
4312.67451,0.23377
4310.74576,0.23376
4308.81702,0.23379
4306.88827,0.23361
4304.95953,0.23324
4303.03078,0.23285
4301.10204,0.23257
4299.17329,0.23238
4297.24454,0.23235
4295.31580,0.23240
4293.38705,0.23243
4291.45831,0.23261
4289.52956,0.23261
4287.60082,0.23221
4285.67207,0.23182
4283.74333,0.23167
4281.81458,0.23191
4279.88584,0.23255
4277.95709,0.23332
4276.02835,0.23414
4274.09960,0.23467
4272.17086,0.23453
4270.24211,0.23421
4268.31336,0.23438
4266.38462,0.23485
4264.45587,0.23530
4262.52713,0.23590
4260.59838,0.23660
4258.66964,0.23720
4256.74089,0.23788
4254.81215,0.23871
4252.88340,0.23936
4250.95466,0.23956
4249.02591,0.23962
4247.09717,0.23995
4245.16842,0.24044
4243.23968,0.24089
4241.31093,0.24139
4239.38219,0.24178
4237.45344,0.24192
4235.52469,0.24211
4233.59595,0.24252
4231.66720,0.24294
4229.73846,0.24319
4227.80971,0.24347
4225.88097,0.24379
4223.95222,0.24385
4222.02348,0.24368
4220.09473,0.24341
4218.16599,0.24325
4216.23724,0.24351
4214.30850,0.24392
4212.37975,0.24394
4210.45101,0.24347
4208.52226,0.24270
4206.59352,0.24208
4204.66477,0.24201
4202.73602,0.24215
4200.80728,0.24221
4198.87853,0.24215
4196.94979,0.24183
4195.02104,0.24155
4193.09230,0.24178
4191.16355,0.24223
4189.23481,0.24229
4187.30606,0.24173
4185.37732,0.24097
4183.44857,0.24061
4181.51983,0.24071
4179.59108,0.24096
4177.66234,0.24119
4175.73359,0.24096
4173.80484,0.24020
4171.87610,0.23966
4169.94735,0.23952
4168.01861,0.23932
4166.08986,0.23901
4164.16112,0.23880
4162.23237,0.23877
4160.30363,0.23885
4158.37488,0.23858
4156.44614,0.23785
4154.51739,0.23724
4152.58865,0.23692
4150.65990,0.23667
4148.73116,0.23658
4146.80241,0.23655
4144.87367,0.23634
4142.94492,0.23610
4141.01617,0.23586
4139.08743,0.23557
4137.15868,0.23539
4135.22994,0.23509
4133.30119,0.23442
4131.37245,0.23372
4129.44370,0.23321
4127.51496,0.23276
4125.58621,0.23224
4123.65747,0.23156
4121.72872,0.23102
4119.79998,0.23081
4117.87123,0.23048
4115.94249,0.22979
4114.01374,0.22918
4112.08500,0.22893
4110.15625,0.22878
4108.22750,0.22848
4106.29876,0.22798
4104.37001,0.22736
4102.44127,0.22676
4100.51252,0.22626
4098.58378,0.22585
4096.65503,0.22541
4094.72629,0.22461
4092.79754,0.22366
4090.86880,0.22304
4088.94005,0.22266
4087.01131,0.22236
4085.08256,0.22214
4083.15382,0.22170
4081.22507,0.22099
4079.29632,0.22036
4077.36758,0.22000
4075.43883,0.21966
4073.51009,0.21915
4071.58134,0.21858
4069.65260,0.21802
4067.72385,0.21732
4065.79511,0.21672
4063.86636,0.21660
4061.93762,0.21662
4060.00887,0.21635
4058.08013,0.21586
4056.15138,0.21525
4054.22264,0.21456
4052.29389,0.21394
4050.36515,0.21358
4048.43640,0.21336
4046.50765,0.21298
4044.57891,0.21255
4042.65016,0.21241
4040.72142,0.21245
4038.79267,0.21223
4036.86393,0.21164
4034.93518,0.21092
4033.00644,0.21023
4031.07769,0.20969
4029.14895,0.20944
4027.22020,0.20941
4025.29146,0.20921
4023.36271,0.20866
4021.43397,0.20797
4019.50522,0.20717
4017.57648,0.20646
4015.64773,0.20617
4013.71898,0.20590
4011.79024,0.20521
4009.86149,0.20447
4007.93275,0.20427
4006.00400,0.20457
4004.07526,0.20470
4002.14651,0.20421
4000.21777,0.20324
3998.28902,0.20251
3996.36028,0.20228
3994.43153,0.20186
3992.50279,0.20110
3990.57404,0.20057
3988.64530,0.20046
3986.71655,0.20049
3984.78780,0.20041
3982.85906,0.20021
3980.93031,0.19994
3979.00157,0.19970
3977.07282,0.19944
3975.14408,0.19900
3973.21533,0.19857
3971.28659,0.19826
3969.35784,0.19790
3967.42910,0.19757
3965.50035,0.19771
3963.57161,0.19816
3961.64286,0.19843
3959.71412,0.19852
3957.78537,0.19860
3955.85663,0.19879
3953.92788,0.19913
3951.99913,0.19957
3950.07039,0.19985
3948.14164,0.19982
3946.21290,0.19978
3944.28415,0.20003
3942.35541,0.20078
3940.42666,0.20188
3938.49792,0.20279
3936.56917,0.20349
3934.64043,0.20442
3932.71168,0.20573
3930.78294,0.20706
3928.85419,0.20802
3926.92545,0.20860
3924.99670,0.20923
3923.06795,0.21025
3921.13921,0.21143
3919.21046,0.21246
3917.28172,0.21337
3915.35297,0.21405
3913.42423,0.21442
3911.49548,0.21488
3909.56674,0.21570
3907.63799,0.21647
3905.70925,0.21692
3903.78050,0.21741
3901.85176,0.21799
3899.92301,0.21829
3897.99427,0.21845
3896.06552,0.21875
3894.13678,0.21895
3892.20803,0.21899
3890.27928,0.21919
3888.35054,0.21960
3886.42179,0.21994
3884.49305,0.22015
3882.56430,0.22036
3880.63556,0.22052
3878.70681,0.22060
3876.77807,0.22057
3874.84932,0.22039
3872.92058,0.22022
3870.99183,0.22001
3869.06309,0.21976
3867.13434,0.21982
3865.20560,0.22013
3863.27685,0.22023
3861.34811,0.22020
3859.41936,0.22043
3857.49061,0.22056
3855.56187,0.22027
3853.63312,0.22000
3851.70438,0.22005
3849.77563,0.21995
3847.84689,0.21959
3845.91814,0.21930
3843.98940,0.21938
3842.06065,0.21981
3840.13191,0.22015
3838.20316,0.21994
3836.27442,0.21945
3834.34567,0.21927
3832.41693,0.21907
3830.48818,0.21848
3828.55943,0.21803
3826.63069,0.21804
3824.70194,0.21824
3822.77320,0.21833
3820.84445,0.21813
3818.91571,0.21785
3816.98696,0.21752
3815.05822,0.21694
3813.12947,0.21644
3811.20073,0.21634
3809.27198,0.21645
3807.34324,0.21648
3805.41449,0.21629
3803.48575,0.21579
3801.55700,0.21511
3799.62826,0.21473
3797.69951,0.21461
3795.77076,0.21437
3793.84202,0.21387
3791.91327,0.21326
3789.98453,0.21282
3788.05578,0.21255
3786.12704,0.21223
3784.19829,0.21181
3782.26955,0.21143
3780.34080,0.21115
3778.41206,0.21081
3776.48331,0.21016
3774.55457,0.20931
3772.62582,0.20881
3770.69708,0.20866
3768.76833,0.20824
3766.83959,0.20740
3764.91084,0.20651
3762.98209,0.20579
3761.05335,0.20493
3759.12460,0.20380
3757.19586,0.20293
3755.26711,0.20240
3753.33837,0.20168
3751.40962,0.20054
3749.48088,0.19900
3747.55213,0.19715
3745.62339,0.19507
3743.69464,0.19296
3741.76590,0.19133
3739.83715,0.18992
3737.90841,0.18830
3735.97966,0.18654
3734.05091,0.18475
3732.12217,0.18272
3730.19342,0.18057
3728.26468,0.17840
3726.33593,0.17602
3724.40719,0.17322
3722.47844,0.16999
3720.54970,0.16655
3718.62095,0.16316
3716.69221,0.15993
3714.76346,0.15680
3712.83472,0.15347
3710.90597,0.14985
3708.97723,0.14607
3707.04848,0.14215
3705.11974,0.13810
3703.19099,0.13388
3701.26224,0.12953
3699.33350,0.12560
3697.40475,0.12272
3695.47601,0.12123
3693.54726,0.12094
3691.61852,0.12133
3689.68977,0.12180
3687.76103,0.12192
3685.83228,0.12153
3683.90354,0.12078
3681.97479,0.11986
3680.04605,0.11884
3678.11730,0.11760
3676.18856,0.11583
3674.25981,0.11363
3672.33107,0.11142
3670.40232,0.10915
3668.47357,0.10692
3666.54483,0.10513
3664.61608,0.10367
3662.68734,0.10197
3660.75859,0.09993
3658.82985,0.09790
3656.90110,0.09596
3654.97236,0.09426
3653.04361,0.09287
3651.11487,0.09125
3649.18612,0.08939
3647.25738,0.08794
3645.32863,0.08677
3643.39989,0.08546
3641.47114,0.08437
3639.54239,0.08354
3637.61365,0.08241
3635.68490,0.08107
3633.75616,0.08000
3631.82741,0.07903
3629.89867,0.07779
3627.96992,0.07640
3626.04118,0.07537
3624.11243,0.07459
3622.18369,0.07366
3620.25494,0.07287
3618.32620,0.07261
3616.39745,0.07266
3614.46871,0.07274
3612.53996,0.07278
3610.61122,0.07247
3608.68247,0.07177
3606.75372,0.07127
3604.82498,0.07115
3602.89623,0.07099
3600.96749,0.07057
3599.03874,0.07027
3597.11000,0.07012
3595.18125,0.06978
3593.25251,0.06955
3591.32376,0.06979
3589.39502,0.07012
3587.46627,0.07013
3585.53753,0.06995
3583.60878,0.06983
3581.68004,0.06983
3579.75129,0.06994
3577.82254,0.06998
3575.89380,0.06991
3573.96505,0.06981
3572.03631,0.06978
3570.10756,0.06971
3568.17882,0.06934
3566.25007,0.06889
3564.32133,0.06868
3562.39258,0.06854
3560.46384,0.06841
3558.53509,0.06848
3556.60635,0.06859
3554.67760,0.06849
3552.74886,0.06811
3550.82011,0.06748
3548.89137,0.06695
3546.96262,0.06680
3545.03387,0.06680
3543.10513,0.06675
3541.17638,0.06668
3539.24764,0.06659
3537.31889,0.06648
3535.39015,0.06634
3533.46140,0.06618
3531.53266,0.06612
3529.60391,0.06614
3527.67517,0.06594
3525.74642,0.06553
3523.81768,0.06524
3521.88893,0.06514
3519.96019,0.06512
3518.03144,0.06508
3516.10270,0.06488
3514.17395,0.06475
3512.24520,0.06504
3510.31646,0.06541
3508.38771,0.06526
3506.45897,0.06477
3504.53022,0.06445
3502.60148,0.06429
3500.67273,0.06409
3498.74399,0.06396
3496.81524,0.06403
3494.88650,0.06421
3492.95775,0.06420
3491.02901,0.06404
3489.10026,0.06410
3487.17152,0.06409
3485.24277,0.06375
3483.31402,0.06339
3481.38528,0.06306
3479.45653,0.06284
3477.52779,0.06276
3475.59904,0.06265
3473.67030,0.06250
3471.74155,0.06238
3469.81281,0.06236
3467.88406,0.06247
3465.95532,0.06246
3464.02657,0.06229
3462.09783,0.06219
3460.16908,0.06216
3458.24034,0.06196
3456.31159,0.06168
3454.38285,0.06155
3452.45410,0.06161
3450.52535,0.06164
3448.59661,0.06154
3446.66786,0.06146
3444.73912,0.06152
3442.81037,0.06150
3440.88163,0.06123
3438.95288,0.06101
3437.02414,0.06108
3435.09539,0.06114
3433.16665,0.06102
3431.23790,0.06077
3429.30916,0.06044
3427.38041,0.06017
3425.45167,0.06018
3423.52292,0.06048
3421.59418,0.06077
3419.66543,0.06078
3417.73668,0.06055
3415.80794,0.06029
3413.87919,0.06020
3411.95045,0.06020
3410.02170,0.06019
3408.09296,0.06022
3406.16421,0.06025
3404.23547,0.06008
3402.30672,0.05979
3400.37798,0.05952
3398.44923,0.05937
3396.52049,0.05959
3394.59174,0.06005
3392.66300,0.06022
3390.73425,0.06012
3388.80550,0.06011
3386.87676,0.06015
3384.94801,0.06012
3383.01927,0.05998
3381.09052,0.05988
3379.16178,0.06012
3377.23303,0.06059
3375.30429,0.06094
3373.37554,0.06103
3371.44680,0.06091
3369.51805,0.06092
3367.58931,0.06120
3365.66056,0.06146
3363.73182,0.06151
3361.80307,0.06140
3359.87433,0.06136
3357.94558,0.06142
3356.01683,0.06133
3354.08809,0.06111
3352.15934,0.06097
3350.23060,0.06115
3348.30185,0.06169
3346.37311,0.06218
3344.44436,0.06214
3342.51562,0.06190
3340.58687,0.06201
3338.65813,0.06241
3336.72938,0.06255
3334.80064,0.06229
3332.87189,0.06196
3330.94315,0.06177
3329.01440,0.06173
3327.08566,0.06195
3325.15691,0.06222
3323.22816,0.06229
3321.29942,0.06242
3319.37067,0.06270
3317.44193,0.06282
3315.51318,0.06268
3313.58444,0.06247
3311.65569,0.06243
3309.72695,0.06259
3307.79820,0.06293
3305.86946,0.06334
3303.94071,0.06368
3302.01197,0.06379
3300.08322,0.06358
3298.15448,0.06325
3296.22573,0.06306
3294.29698,0.06305
3292.36824,0.06320
3290.43949,0.06334
3288.51075,0.06332
3286.58200,0.06345
3284.65326,0.06377
3282.72451,0.06378
3280.79577,0.06344
3278.86702,0.06334
3276.93828,0.06368
3275.00953,0.06414
3273.08079,0.06445
3271.15204,0.06468
3269.22330,0.06495
3267.29455,0.06507
3265.36581,0.06504
3263.43706,0.06522
3261.50831,0.06536
3259.57957,0.06510
3257.65082,0.06474
3255.72208,0.06457
3253.79333,0.06474
3251.86459,0.06500
3249.93584,0.06477
3248.00710,0.06432
3246.07835,0.06445
3244.14961,0.06509
3242.22086,0.06568
3240.29212,0.06605
3238.36337,0.06630
3236.43463,0.06636
3234.50588,0.06631
3232.57713,0.06644
3230.64839,0.06670
3228.71964,0.06683
3226.79090,0.06673
3224.86215,0.06644
3222.93341,0.06619
3221.00466,0.06617
3219.07592,0.06620
3217.14717,0.06623
3215.21843,0.06640
3213.28968,0.06673
3211.36094,0.06712
3209.43219,0.06752
3207.50345,0.06796
3205.57470,0.06841
3203.64596,0.06868
3201.71721,0.06876
3199.78846,0.06873
3197.85972,0.06868
3195.93097,0.06874
3194.00223,0.06884
3192.07348,0.06904
3190.14474,0.06943
3188.21599,0.06977
3186.28725,0.06995
3184.35850,0.07010
3182.42976,0.07018
3180.50101,0.07024
3178.57227,0.07037
3176.64352,0.07054
3174.71478,0.07069
3172.78603,0.07091
3170.85729,0.07120
3168.92854,0.07152
3166.99979,0.07197
3165.07105,0.07234
3163.14230,0.07231
3161.21356,0.07235
3159.28481,0.07278
3157.35607,0.07299
3155.42732,0.07282
3153.49858,0.07286
3151.56983,0.07328
3149.64109,0.07375
3147.71234,0.07403
3145.78360,0.07407
3143.85485,0.07405
3141.92611,0.07422
3139.99736,0.07449
3138.06861,0.07479
3136.13987,0.07504
3134.21112,0.07499
3132.28238,0.07483
3130.35363,0.07488
3128.42489,0.07506
3126.49614,0.07539
3124.56740,0.07585
3122.63865,0.07628
3120.70991,0.07655
3118.78116,0.07661
3116.85242,0.07649
3114.92367,0.07641
3112.99493,0.07656
3111.06618,0.07679
3109.13744,0.07690
3107.20869,0.07692
3105.27994,0.07695
3103.35120,0.07704
3101.42245,0.07729
3099.49371,0.07757
3097.56496,0.07761
3095.63622,0.07751
3093.70747,0.07754
3091.77873,0.07774
3089.84998,0.07795
3087.92124,0.07816
3085.99249,0.07850
3084.06375,0.07882
3082.13500,0.07889
3080.20626,0.07881
3078.27751,0.07884
3076.34877,0.07900
3074.42002,0.07922
3072.49127,0.07937
3070.56253,0.07927
3068.63378,0.07922
3066.70504,0.07940
3064.77629,0.07947
3062.84755,0.07933
3060.91880,0.07921
3058.99006,0.07911
3057.06131,0.07901
3055.13257,0.07889
3053.20382,0.07872
3051.27508,0.07864
3049.34633,0.07862
3047.41759,0.07849
3045.48884,0.07835
3043.56009,0.07820
3041.63135,0.07798
3039.70260,0.07758
3037.77386,0.07679
3035.84511,0.07571
3033.91637,0.07458
3031.98762,0.07346
3030.05888,0.07236
3028.13013,0.07143
3026.20139,0.07087
3024.27264,0.07055
3022.34390,0.07019
3020.41515,0.07002
3018.48641,0.07026
3016.55766,0.07061
3014.62892,0.07087
3012.70017,0.07113
3010.77142,0.07135
3008.84268,0.07150
3006.91393,0.07154
3004.98519,0.07143
3003.05644,0.07124
3001.12770,0.07101
2999.19895,0.07072
2997.27021,0.07026
2995.34146,0.06953
2993.41272,0.06867
2991.48397,0.06792
2989.55523,0.06736
2987.62648,0.06683
2985.69774,0.06625
2983.76899,0.06599
2981.84025,0.06638
2979.91150,0.06716
2977.98275,0.06794
2976.05401,0.06843
2974.12526,0.06857
2972.19652,0.06872
2970.26777,0.06904
2968.33903,0.06930
2966.41028,0.06949
2964.48154,0.06961
2962.55279,0.06969
2960.62405,0.06980
2958.69530,0.06984
2956.76656,0.06980
2954.83781,0.06976
2952.90907,0.06964
2950.98032,0.06935
2949.05157,0.06913
2947.12283,0.06911
2945.19408,0.06928
2943.26534,0.06966
2941.33659,0.07000
2939.40785,0.06989
2937.47910,0.06933
2935.55036,0.06872
2933.62161,0.06848
2931.69287,0.06861
2929.76412,0.06889
2927.83538,0.06913
2925.90663,0.06914
2923.97789,0.06899
2922.04914,0.06891
2920.12040,0.06878
2918.19165,0.06859
2916.26290,0.06857
2914.33416,0.06864
2912.40541,0.06867
2910.47667,0.06874
2908.54792,0.06861
2906.61918,0.06807
2904.69043,0.06746
2902.76169,0.06715
2900.83294,0.06716
2898.90420,0.06727
2896.97545,0.06720
2895.04671,0.06690
2893.11796,0.06670
2891.18922,0.06685
2889.26047,0.06705
2887.33172,0.06693
2885.40298,0.06671
2883.47423,0.06649
2881.54549,0.06608
2879.61674,0.06565
2877.68800,0.06564
2875.75925,0.06605
2873.83051,0.06650
2871.90176,0.06695
2869.97302,0.06753
2868.04427,0.06806
2866.11553,0.06851
2864.18678,0.06918
2862.25804,0.07027
2860.32929,0.07158
2858.40055,0.07287
2856.47180,0.07414
2854.54305,0.07543
2852.61431,0.07664
2850.68556,0.07785
2848.75682,0.07937
2846.82807,0.08124
2844.89933,0.08301
2842.97058,0.08444
2841.04184,0.08586
2839.11309,0.08758
2837.18435,0.08937
2835.25560,0.09094
2833.32686,0.09233
2831.39811,0.09363
2829.46937,0.09490
2827.54062,0.09604
2825.61188,0.09691
2823.68313,0.09756
2821.75438,0.09802
2819.82564,0.09830
2817.89689,0.09860
2815.96815,0.09930
2814.03940,0.10039
2812.11066,0.10148
2810.18191,0.10234
2808.25317,0.10299
2806.32442,0.10346
2804.39568,0.10391
2802.46693,0.10456
2800.53819,0.10536
2798.60944,0.10611
2796.68070,0.10682
2794.75195,0.10740
2792.82320,0.10793
2790.89446,0.10856
2788.96571,0.10918
2787.03697,0.10966
2785.10822,0.11002
2783.17948,0.11032
2781.25073,0.11063
2779.32199,0.11104
2777.39324,0.11160
2775.46450,0.11209
2773.53575,0.11229
2771.60701,0.11240
2769.67826,0.11275
2767.74952,0.11319
2765.82077,0.11346
2763.89203,0.11364
2761.96328,0.11390
2760.03453,0.11416
2758.10579,0.11444
2756.17704,0.11479
2754.24830,0.11509
2752.31955,0.11524
2750.39081,0.11539
2748.46206,0.11564
2746.53332,0.11589
2744.60457,0.11596
2742.67583,0.11595
2740.74708,0.11596
2738.81834,0.11594
2736.88959,0.11602
2734.96085,0.11636
2733.03210,0.11669
2731.10336,0.11676
2729.17461,0.11674
2727.24586,0.11675
2725.31712,0.11678
2723.38837,0.11696
2721.45963,0.11715
2719.53088,0.11724
2717.60214,0.11728
2715.67339,0.11731
2713.74465,0.11741
2711.81590,0.11744
2709.88716,0.11721
2707.95841,0.11687
2706.02967,0.11666
2704.10092,0.11658
2702.17218,0.11653
2700.24343,0.11646
2698.31468,0.11631
2696.38594,0.11609
2694.45719,0.11586
2692.52845,0.11569
2690.59970,0.11560
2688.67096,0.11541
2686.74221,0.11503
2684.81347,0.11463
2682.88472,0.11436
2680.95598,0.11409
2679.02723,0.11362
2677.09849,0.11299
2675.16974,0.11228
2673.24100,0.11149
2671.31225,0.11058
2669.38351,0.10946
2667.45476,0.10820
2665.52601,0.10699
2663.59727,0.10573
2661.66852,0.10433
2659.73978,0.10295
2657.81103,0.10174
2655.88229,0.10078
2653.95354,0.09994
2652.02480,0.09892
2650.09605,0.09767
2648.16731,0.09638
2646.23856,0.09530
2644.30982,0.09445
2642.38107,0.09349
2640.45233,0.09228
2638.52358,0.09098
2636.59484,0.08961
2634.66609,0.08818
2632.73734,0.08690
2630.80860,0.08584
2628.87985,0.08481
2626.95111,0.08397
2625.02236,0.08361
2623.09362,0.08369
2621.16487,0.08391
2619.23613,0.08401
2617.30738,0.08397
2615.37864,0.08401
2613.44989,0.08419
2611.52115,0.08424
2609.59240,0.08404
2607.66366,0.08381
2605.73491,0.08363
2603.80616,0.08321
2601.87742,0.08262
2599.94867,0.08212
2598.01993,0.08160
2596.09118,0.08098
2594.16244,0.08016
2592.23369,0.07913
2590.30495,0.07806
2588.37620,0.07722
2586.44746,0.07668
2584.51871,0.07628
2582.58997,0.07591
2580.66122,0.07555
2578.73248,0.07529
2576.80373,0.07513
2574.87499,0.07487
2572.94624,0.07443
2571.01749,0.07395
2569.08875,0.07359
2567.16000,0.07329
2565.23126,0.07276
2563.30251,0.07206
2561.37377,0.07147
2559.44502,0.07085
2557.51628,0.06999
2555.58753,0.06904
2553.65879,0.06825
2551.73004,0.06767
2549.80130,0.06720
2547.87255,0.06676
2545.94381,0.06631
2544.01506,0.06571
2542.08631,0.06487
2540.15757,0.06395
2538.22882,0.06317
2536.30008,0.06231
2534.37133,0.06117
2532.44259,0.06010
2530.51384,0.05934
2528.58510,0.05861
2526.65635,0.05770
2524.72761,0.05691
2522.79886,0.05653
2520.87012,0.05637
2518.94137,0.05626
2517.01263,0.05643
2515.08388,0.05712
2513.15514,0.05826
2511.22639,0.05948
2509.29764,0.06061
2507.36890,0.06180
2505.44015,0.06321
2503.51141,0.06492
2501.58266,0.06689
2499.65392,0.06888
2497.72517,0.07079
2495.79643,0.07291
2493.86768,0.07535
2491.93894,0.07791
2490.01019,0.08038
2488.08145,0.08257
2486.15270,0.08451
2484.22396,0.08646
2482.29521,0.08850
2480.36647,0.09060
2478.43772,0.09276
2476.50897,0.09479
2474.58023,0.09659
2472.65148,0.09842
2470.72274,0.10012
2468.79399,0.10138
2466.86525,0.10247
2464.93650,0.10382
2463.00776,0.10521
2461.07901,0.10630
2459.15027,0.10717
2457.22152,0.10801
2455.29278,0.10889
2453.36403,0.10974
2451.43529,0.11048
2449.50654,0.11109
2447.57779,0.11163
2445.64905,0.11226
2443.72030,0.11300
2441.79156,0.11364
2439.86281,0.11410
2437.93407,0.11448
2436.00532,0.11487
2434.07658,0.11525
2432.14783,0.11558
2430.21909,0.11577
2428.29034,0.11593
2426.36160,0.11611
2424.43285,0.11625
2422.50411,0.11643
2420.57536,0.11670
2418.64662,0.11689
2416.71787,0.11696
2414.78912,0.11704
2412.86038,0.11713
2410.93163,0.11714
2409.00289,0.11718
2407.07414,0.11738
2405.14540,0.11754
2403.21665,0.11766
2401.28791,0.11795
2399.35916,0.11834
2397.43042,0.11862
2395.50167,0.11876
2393.57293,0.11886
2391.64418,0.11892
2389.71544,0.11890
2387.78669,0.11888
2385.85795,0.11895
2383.92920,0.11902
2382.00045,0.11898
2380.07171,0.11882
2378.14296,0.11850
2376.21422,0.11802
2374.28547,0.11753
2372.35673,0.11718
2370.42798,0.11698
2368.49924,0.11688
2366.57049,0.11678
2364.64175,0.11664
2362.71300,0.11660
2360.78426,0.11669
2358.85551,0.11662
2356.92677,0.11637
2354.99802,0.11612
2353.06927,0.11590
2351.14053,0.11567
2349.21178,0.11542
2347.28304,0.11512
2345.35429,0.11473
2343.42555,0.11426
2341.49680,0.11370
2339.56806,0.11311
2337.63931,0.11285
2335.71057,0.11303
2333.78182,0.11321
2331.85308,0.11318
2329.92433,0.11326
2327.99559,0.11335
2326.06684,0.11313
2324.13810,0.11285
2322.20935,0.11286
2320.28060,0.11295
2318.35186,0.11285
2316.42311,0.11258
2314.49437,0.11230
2312.56562,0.11213
2310.63688,0.11214
2308.70813,0.11227
2306.77939,0.11241
2304.85064,0.11268
2302.92190,0.11323
2300.99315,0.11387
2299.06441,0.11440
2297.13566,0.11459
2295.20692,0.11439
2293.27817,0.11393
2291.34943,0.11342
2289.42068,0.11299
2287.49193,0.11262
2285.56319,0.11223
2283.63444,0.11185
2281.70570,0.11150
2279.77695,0.11096
2277.84821,0.11013
2275.91946,0.10934
2273.99072,0.10887
2272.06197,0.10848
2270.13323,0.10794
2268.20448,0.10733
2266.27574,0.10673
2264.34699,0.10617
2262.41825,0.10567
2260.48950,0.10519
2258.56075,0.10461
2256.63201,0.10404
2254.70326,0.10369
2252.77452,0.10347
2250.84577,0.10323
2248.91703,0.10306
2246.98828,0.10306
2245.05954,0.10305
2243.13079,0.10294
2241.20205,0.10296
2239.27330,0.10316
2237.34456,0.10333
2235.41581,0.10348
2233.48707,0.10359
2231.55832,0.10352
2229.62958,0.10330
2227.70083,0.10314
2225.77208,0.10300
2223.84334,0.10267
2221.91459,0.10221
2219.98585,0.10187
2218.05710,0.10162
2216.12836,0.10132
2214.19961,0.10106
2212.27087,0.10092
2210.34212,0.10089
2208.41338,0.10078
2206.48463,0.10044
2204.55589,0.10003
2202.62714,0.09981
2200.69840,0.09975
2198.76965,0.09966
2196.84090,0.09947
2194.91216,0.09919
2192.98341,0.09880
2191.05467,0.09839
2189.12592,0.09792
2187.19718,0.09732
2185.26843,0.09664
2183.33969,0.09610
2181.41094,0.09584
2179.48220,0.09559
2177.55345,0.09513
2175.62471,0.09464
2173.69596,0.09414
2171.76722,0.09356
2169.83847,0.09303
2167.90973,0.09263
2165.98098,0.09219
2164.05223,0.09174
2162.12349,0.09146
2160.19474,0.09119
2158.26600,0.09081
2156.33725,0.09044
2154.40851,0.09012
2152.47976,0.08975
2150.55102,0.08936
2148.62227,0.08918
2146.69353,0.08933
2144.76478,0.08968
2142.83604,0.09003
2140.90729,0.09038
2138.97855,0.09086
2137.04980,0.09152
2135.12106,0.09228
2133.19231,0.09312
2131.26356,0.09399
2129.33482,0.09475
2127.40607,0.09540
2125.47733,0.09614
2123.54858,0.09705
2121.61984,0.09787
2119.69109,0.09845
2117.76235,0.09890
2115.83360,0.09935
2113.90486,0.09977
2111.97611,0.10002
2110.04737,0.10018
2108.11862,0.10043
2106.18988,0.10077
2104.26113,0.10108
2102.33238,0.10131
2100.40364,0.10143
2098.47489,0.10140
2096.54615,0.10130
2094.61740,0.10123
2092.68866,0.10115
2090.75991,0.10104
2088.83117,0.10102
2086.90242,0.10103
2084.97368,0.10092
2083.04493,0.10073
2081.11619,0.10058
2079.18744,0.10045
2077.25870,0.10029
2075.32995,0.10029
2073.40121,0.10046
2071.47246,0.10050
2069.54371,0.10034
2067.61497,0.10012
2065.68622,0.09983
2063.75748,0.09955
2061.82873,0.09934
2059.89999,0.09909
2057.97124,0.09883
2056.04250,0.09864
2054.11375,0.09843
2052.18501,0.09807
2050.25626,0.09754
2048.32752,0.09700
2046.39877,0.09660
2044.47003,0.09612
2042.54128,0.09536
2040.61254,0.09459
2038.68379,0.09412
2036.75504,0.09383
2034.82630,0.09347
2032.89755,0.09307
2030.96881,0.09272
2029.04006,0.09248
2027.11132,0.09226
2025.18257,0.09198
2023.25383,0.09173
2021.32508,0.09153
2019.39634,0.09131
2017.46759,0.09109
2015.53885,0.09077
2013.61010,0.09032
2011.68136,0.08990
2009.75261,0.08959
2007.82386,0.08937
2005.89512,0.08913
2003.96637,0.08881
2002.03763,0.08847
2000.10888,0.08819
1998.18014,0.08793
1996.25139,0.08767
1994.32265,0.08749
1992.39390,0.08733
1990.46516,0.08708
1988.53641,0.08675
1986.60767,0.08639
1984.67892,0.08588
1982.75018,0.08513
1980.82143,0.08427
1978.89269,0.08341
1976.96394,0.08254
1975.03519,0.08196
1973.10645,0.08204
1971.17770,0.08268
1969.24896,0.08332
1967.32021,0.08363
1965.39147,0.08359
1963.46272,0.08335
1961.53398,0.08308
1959.60523,0.08302
1957.67649,0.08331
1955.74774,0.08370
1953.81900,0.08385
1951.89025,0.08376
1949.96151,0.08359
1948.03276,0.08345
1946.10402,0.08337
1944.17527,0.08326
1942.24652,0.08302
1940.31778,0.08274
1938.38903,0.08247
1936.46029,0.08218
1934.53154,0.08182
1932.60280,0.08137
1930.67405,0.08100
1928.74531,0.08069
1926.81656,0.08031
1924.88782,0.07988
1922.95907,0.07947
1921.03033,0.07895
1919.10158,0.07828
1917.17284,0.07770
1915.24409,0.07729
1913.31534,0.07682
1911.38660,0.07613
1909.45785,0.07551
1907.52911,0.07514
1905.60036,0.07468
1903.67162,0.07386
1901.74287,0.07299
1899.81413,0.07234
1897.88538,0.07181
1895.95664,0.07129
1894.02789,0.07078
1892.09915,0.07017
1890.17040,0.06945
1888.24166,0.06887
1886.31291,0.06849
1884.38417,0.06817
1882.45542,0.06785
1880.52667,0.06748
1878.59793,0.06707
1876.66918,0.06677
1874.74044,0.06644
1872.81169,0.06591
1870.88295,0.06538
1868.95420,0.06504
1867.02546,0.06475
1865.09671,0.06433
1863.16797,0.06381
1861.23922,0.06340
1859.31048,0.06322
1857.38173,0.06317
1855.45299,0.06303
1853.52424,0.06273
1851.59549,0.06223
1849.66675,0.06162
1847.73800,0.06096
1845.80926,0.06011
1843.88051,0.05910
1841.95177,0.05820
1840.02302,0.05742
1838.09428,0.05650
1836.16553,0.05537
1834.23679,0.05405
1832.30804,0.05255
1830.37930,0.05090
1828.45055,0.04935
1826.52181,0.04813
1824.59306,0.04716
1822.66432,0.04640
1820.73557,0.04581
1818.80682,0.04533
1816.87808,0.04488
1814.94933,0.04441
1813.02059,0.04390
1811.09184,0.04332
1809.16310,0.04272
1807.23435,0.04210
1805.30561,0.04120
1803.37686,0.03989
1801.44812,0.03840
1799.51937,0.03729
1797.59063,0.03696
1795.66188,0.03712
1793.73314,0.03749
1791.80439,0.03832
1789.87565,0.03961
1787.94690,0.04105
1786.01815,0.04242
1784.08941,0.04358
1782.16066,0.04442
1780.23192,0.04501
1778.30317,0.04549
1776.37443,0.04595
1774.44568,0.04641
1772.51694,0.04680
1770.58819,0.04711
1768.65945,0.04730
1766.73070,0.04733
1764.80196,0.04726
1762.87321,0.04721
1760.94447,0.04715
1759.01572,0.04709
1757.08697,0.04695
1755.15823,0.04678
1753.22948,0.04669
1751.30074,0.04657
1749.37199,0.04620
1747.44325,0.04576
1745.51450,0.04543
1743.58576,0.04516
1741.65701,0.04499
1739.72827,0.04488
1737.79952,0.04476
1735.87078,0.04465
1733.94203,0.04447
1732.01329,0.04418
1730.08454,0.04396
1728.15580,0.04386
1726.22705,0.04375
1724.29830,0.04349
1722.36956,0.04331
1720.44081,0.04333
1718.51207,0.04322
1716.58332,0.04281
1714.65458,0.04244
1712.72583,0.04230
1710.79709,0.04224
1708.86834,0.04215
1706.93960,0.04198
1705.01085,0.04173
1703.08211,0.04148
1701.15336,0.04122
1699.22462,0.04082
1697.29587,0.04031
1695.36713,0.03974
1693.43838,0.03930
1691.50963,0.03899
1689.58089,0.03867
1687.65214,0.03844
1685.72340,0.03823
1683.79465,0.03793
1681.86591,0.03767
1679.93716,0.03757
1678.00842,0.03765
1676.07967,0.03779
1674.15093,0.03783
1672.22218,0.03780
1670.29344,0.03768
1668.36469,0.03737
1666.43595,0.03713
1664.50720,0.03714
1662.57845,0.03717
1660.64971,0.03703
1658.72096,0.03686
1656.79222,0.03685
1654.86347,0.03702
1652.93473,0.03725
1651.00598,0.03737
1649.07724,0.03745
1647.14849,0.03758
1645.21975,0.03754
1643.29100,0.03739
1641.36226,0.03754
1639.43351,0.03810
1637.50477,0.03870
1635.57602,0.03904
1633.64728,0.03922
1631.71853,0.03958
1629.78978,0.04025
1627.86104,0.04104
1625.93229,0.04175
1624.00355,0.04231
1622.07480,0.04284
1620.14606,0.04358
1618.21731,0.04456
1616.28857,0.04559
1614.35982,0.04646
1612.43108,0.04710
1610.50233,0.04771
1608.57359,0.04855
1606.64484,0.04961
1604.71610,0.05079
1602.78735,0.05215
1600.85861,0.05379
1598.92986,0.05559
1597.00111,0.05741
1595.07237,0.05943
1593.14362,0.06177
1591.21488,0.06440
1589.28613,0.06741
1587.35739,0.07094
1585.42864,0.07498
1583.49990,0.07933
1581.57115,0.08387
1579.64241,0.08870
1577.71366,0.09412
1575.78492,0.10015
1573.85617,0.10552
1571.92743,0.10968
1569.99868,0.11297
1568.06993,0.11536
1566.14119,0.11703
1564.21244,0.11834
1562.28370,0.11937
1560.35495,0.12027
1558.42621,0.12097
1556.49746,0.12132
1554.56872,0.12157
1552.63997,0.12154
1550.71123,0.12101
1548.78248,0.12028
1546.85374,0.11953
1544.92499,0.11851
1542.99625,0.11717
1541.06750,0.11569
1539.13876,0.11432
1537.21001,0.11330
1535.28126,0.11242
1533.35252,0.11141
1531.42377,0.11041
1529.49503,0.10964
1527.56628,0.10906
1525.63754,0.10844
1523.70879,0.10763
1521.78005,0.10676
1519.85130,0.10602
1517.92256,0.10544
1515.99381,0.10489
1514.06507,0.10420
1512.13632,0.10332
1510.20758,0.10249
1508.27883,0.10173
1506.35008,0.10065
1504.42134,0.09951
1502.49259,0.09872
1500.56385,0.09811
1498.63510,0.09751
1496.70636,0.09681
1494.77761,0.09616
1492.84887,0.09576
1490.92012,0.09537
1488.99138,0.09492
1487.06263,0.09454
1485.13389,0.09408
1483.20514,0.09343
1481.27640,0.09285
1479.34765,0.09253
1477.41891,0.09238
1475.49016,0.09229
1473.56141,0.09204
1471.63267,0.09147
1469.70392,0.09094
1467.77518,0.09070
1465.84643,0.09050
1463.91769,0.09009
1461.98894,0.08965
1460.06020,0.08944
1458.13145,0.08932
1456.20271,0.08897
1454.27396,0.08853
1452.34522,0.08809
1450.41647,0.08760
1448.48773,0.08721
1446.55898,0.08700
1444.63024,0.08691
1442.70149,0.08688
1440.77274,0.08698
1438.84400,0.08714
1436.91525,0.08720
1434.98651,0.08725
1433.05776,0.08748
1431.12902,0.08766
1429.20027,0.08761
1427.27153,0.08763
1425.34278,0.08779
1423.41404,0.08766
1421.48529,0.08702
1419.55655,0.08599
1417.62780,0.08488
1415.69906,0.08393
1413.77031,0.08308
1411.84156,0.08222
1409.91282,0.08133
1407.98407,0.08026
1406.05533,0.07881
1404.12658,0.07719
1402.19784,0.07577
1400.26909,0.07478
1398.34035,0.07424
1396.41160,0.07376
1394.48286,0.07301
1392.55411,0.07225
1390.62537,0.07177
1388.69662,0.07138
1386.76788,0.07101
1384.83913,0.07086
1382.91039,0.07089
1380.98164,0.07096
1379.05289,0.07121
1377.12415,0.07159
1375.19540,0.07187
1373.26666,0.07220
1371.33791,0.07281
1369.40917,0.07359
1367.48042,0.07441
1365.55168,0.07530
1363.62293,0.07626
1361.69419,0.07721
1359.76544,0.07808
1357.83670,0.07890
1355.90795,0.07971
1353.97921,0.08040
1352.05046,0.08087
1350.12172,0.08118
1348.19297,0.08150
1346.26422,0.08181
1344.33548,0.08208
1342.40673,0.08246
1340.47799,0.08295
1338.54924,0.08339
1336.62050,0.08372
1334.69175,0.08403
1332.76301,0.08437
1330.83426,0.08471
1328.90552,0.08508
1326.97677,0.08535
1325.04803,0.08538
1323.11928,0.08545
1321.19054,0.08570
1319.26179,0.08590
1317.33304,0.08609
1315.40430,0.08637
1313.47555,0.08657
1311.54681,0.08669
1309.61806,0.08690
1307.68932,0.08713
1305.76057,0.08716
1303.83183,0.08718
1301.90308,0.08749
1299.97434,0.08798
1298.04559,0.08843
1296.11685,0.08883
1294.18810,0.08916
1292.25936,0.08935
1290.33061,0.08946
1288.40187,0.08965
1286.47312,0.08986
1284.54437,0.08998
1282.61563,0.09009
1280.68688,0.09031
1278.75814,0.09060
1276.82939,0.09099
1274.90065,0.09149
1272.97190,0.09172
1271.04316,0.09155
1269.11441,0.09134
1267.18567,0.09119
1265.25692,0.09106
1263.32818,0.09116
1261.39943,0.09153
1259.47069,0.09190
1257.54194,0.09223
1255.61320,0.09259
1253.68445,0.09293
1251.75570,0.09318
1249.82696,0.09327
1247.89821,0.09312
1245.96947,0.09285
1244.04072,0.09270
1242.11198,0.09278
1240.18323,0.09298
1238.25449,0.09321
1236.32574,0.09346
1234.39700,0.09367
1232.46825,0.09378
1230.53951,0.09395
1228.61076,0.09440
1226.68202,0.09499
1224.75327,0.09550
1222.82452,0.09583
1220.89578,0.09586
1218.96703,0.09558
1217.03829,0.09512
1215.10954,0.09447
1213.18080,0.09360
1211.25205,0.09260
1209.32331,0.09150
1207.39456,0.09026
1205.46582,0.08898
1203.53707,0.08763
1201.60833,0.08610
1199.67958,0.08449
1197.75084,0.08300
1195.82209,0.08162
1193.89335,0.08040
1191.96460,0.07940
1190.03585,0.07852
1188.10711,0.07763
1186.17836,0.07671
1184.24962,0.07584
1182.32087,0.07502
1180.39213,0.07429
1178.46338,0.07379
1176.53464,0.07344
1174.60589,0.07312
1172.67715,0.07273
1170.74840,0.07215
1168.81966,0.07135
1166.89091,0.07021
1164.96217,0.06873
1163.03342,0.06718
1161.10467,0.06586
1159.17593,0.06529
1157.24718,0.06594
1155.31844,0.06736
1153.38969,0.06852
1151.46095,0.06897
1149.53220,0.06917
1147.60346,0.06945
1145.67471,0.06962
1143.74597,0.06956
1141.81722,0.06953
1139.88848,0.06977
1137.95973,0.07008
1136.03099,0.07017
1134.10224,0.07017
1132.17350,0.07023
1130.24475,0.07030
1128.31600,0.07027
1126.38726,0.07002
1124.45851,0.06974
1122.52977,0.06967
1120.60102,0.06949
1118.67228,0.06914
1116.74353,0.06913
1114.81479,0.06937
1112.88604,0.06924
1110.95730,0.06885
1109.02855,0.06872
1107.09981,0.06887
1105.17106,0.06891
1103.24232,0.06863
1101.31357,0.06819
1099.38483,0.06786
1097.45608,0.06771
1095.52733,0.06772
1093.59859,0.06802
1091.66984,0.06855
1089.74110,0.06881
1087.81235,0.06878
1085.88361,0.06875
1083.95486,0.06866
1082.02612,0.06869
1080.09737,0.06876
1078.16863,0.06844
1076.23988,0.06786
1074.31114,0.06732
1072.38239,0.06690
1070.45365,0.06648
1068.52490,0.06577
1066.59615,0.06461
1064.66741,0.06319
1062.73866,0.06182
1060.80992,0.06075
1058.88117,0.05995
1056.95243,0.05908
1055.02368,0.05803
1053.09494,0.05715
1051.16619,0.05662
1049.23745,0.05616
1047.30870,0.05536
1045.37996,0.05433
1043.45121,0.05363
1041.52247,0.05321
1039.59372,0.05272
1037.66498,0.05236
1035.73623,0.05230
1033.80748,0.05233
1031.87874,0.05218
1029.94999,0.05177
1028.02125,0.05119
1026.09250,0.05053
1024.16376,0.05019
1022.23501,0.05024
1020.30627,0.05015
1018.37752,0.04992
1016.44878,0.04989
1014.52003,0.04998
1012.59129,0.05006
1010.66254,0.05011
1008.73380,0.05011
1006.80505,0.05014
1004.87631,0.05016
1002.94756,0.05009
1001.01881,0.05005
999.09007,0.05010
997.16132,0.05018
995.23258,0.05022
993.30383,0.05024
991.37509,0.05023
989.44634,0.05024
987.51760,0.05046
985.58885,0.05076
983.66011,0.05089
981.73136,0.05090
979.80262,0.05102
977.87387,0.05131
975.94513,0.05158
974.01638,0.05183
972.08763,0.05227
970.15889,0.05289
968.23014,0.05350
966.30140,0.05394
964.37265,0.05418
962.44391,0.05434
960.51516,0.05464
958.58642,0.05502
956.65767,0.05538
954.72893,0.05576
952.80018,0.05619
950.87144,0.05657
948.94269,0.05690
947.01395,0.05722
945.08520,0.05738
943.15646,0.05747
941.22771,0.05752
939.29896,0.05732
937.37022,0.05697
935.44147,0.05687
933.51273,0.05719
931.58398,0.05762
929.65524,0.05788
927.72649,0.05803
925.79775,0.05815
923.86900,0.05839
921.94026,0.05889
920.01151,0.05946
918.08277,0.05968
916.15402,0.05948
914.22528,0.05926
912.29653,0.05950
910.36779,0.06029
908.43904,0.06162
906.51029,0.06354
904.58155,0.06592
902.65280,0.06876
900.72406,0.07250
898.79531,0.07675
896.86657,0.07965
894.93782,0.08001
893.00908,0.07845
891.08033,0.07602
889.15159,0.07309
887.22284,0.06958
885.29410,0.06583
883.36535,0.06271
881.43661,0.06061
879.50786,0.05922
877.57911,0.05818
875.65037,0.05744
873.72162,0.05704
871.79288,0.05694
869.86413,0.05706
867.93539,0.05720
866.00664,0.05719
864.07790,0.05707
862.14915,0.05672
860.22041,0.05614
858.29166,0.05547
856.36292,0.05428
854.43417,0.05251
852.50543,0.05129
850.57668,0.05114
848.64794,0.05147
846.71919,0.05195
844.79044,0.05237
842.86170,0.05256
840.93295,0.05257
839.00421,0.05247
837.07546,0.05228
835.14672,0.05205
833.21797,0.05172
831.28923,0.05123
829.36048,0.05090
827.43174,0.05097
825.50299,0.05096
823.57425,0.05040
821.64550,0.04952
819.71676,0.04881
817.78801,0.04853
815.85926,0.04860
813.93052,0.04882
812.00177,0.04905
810.07303,0.04940
808.14428,0.05010
806.21554,0.05117
804.28679,0.05211
802.35805,0.05254
800.42930,0.05260
798.50056,0.05236
796.57181,0.05188
794.64307,0.05124
792.71432,0.05053
790.78558,0.05016
788.85683,0.05047
786.92809,0.05120
784.99934,0.05198
783.07059,0.05267
781.14185,0.05297
779.21310,0.05256
777.28436,0.05167
775.35561,0.05074
773.42687,0.04987
771.49812,0.04887
769.56938,0.04792
767.64063,0.04752
765.71189,0.04757
763.78314,0.04739
761.85440,0.04677
759.92565,0.04621
757.99691,0.04603
756.06816,0.04595
754.13942,0.04571
752.21067,0.04544
750.28192,0.04529
748.35318,0.04506
746.42443,0.04446
744.49569,0.04332
742.56694,0.04183
740.63820,0.04057
738.70945,0.03969
736.78071,0.03864
734.85196,0.03732
732.92322,0.03646
730.99447,0.03659
729.06573,0.03738
727.13698,0.03843
725.20824,0.03944
723.27949,0.03990
721.35074,0.03976
719.42200,0.03921
717.49325,0.03825
715.56451,0.03761
713.63576,0.03813
711.70702,0.03953
709.77827,0.04072
707.84953,0.04123
705.92078,0.04162
703.99204,0.04202
702.06329,0.04210
700.13455,0.04213
698.20580,0.04234
696.27706,0.04232
694.34831,0.04193
692.41957,0.04182
690.49082,0.04230
688.56207,0.04242
686.63333,0.04166
684.70458,0.04094
682.77584,0.04102
680.84709,0.04149
678.91835,0.04179
676.98960,0.04163
675.06086,0.04112
673.13211,0.04066
671.20337,0.04025
669.27462,0.04003
667.34588,0.04019
665.41713,0.04015
663.48839,0.03944
661.55964,0.03855
659.63090,0.03839
657.70215,0.03874
655.77340,0.03882
653.84466,0.03870
651.91591,0.03861
649.98717,0.03876
648.05842,0.03910
646.12968,0.03912
644.20093,0.03891
642.27219,0.03885
640.34344,0.03874
638.41470,0.03865
636.48595,0.03866
634.55721,0.03845
632.62846,0.03817
630.69972,0.03799
628.77097,0.03742
626.84222,0.03666
624.91348,0.03663
622.98473,0.03675
621.05599,0.03614
619.12724,0.03569
617.19850,0.03577
615.26975,0.03500
613.34101,0.03337
611.41226,0.03262
609.48352,0.03319
607.55477,0.03394
605.62603,0.03412
603.69728,0.03352
601.76854,0.03259
599.83979,0.03230
