7497.03301,0.27613
7495.10426,0.27895
7493.17552,0.27646
7491.24677,0.27494
7489.31803,0.27782
7487.38928,0.28137
7485.46054,0.28319
7483.53179,0.28421
7481.60305,0.28512
7479.67430,0.28421
7477.74556,0.28128
7475.81681,0.27988
7473.88807,0.27965
7471.95932,0.27751
7470.03057,0.27632
7468.10183,0.27839
7466.17308,0.28093
7464.24434,0.28210
7462.31559,0.28040
7460.38685,0.27564
7458.45810,0.27331
7456.52936,0.27685
7454.60061,0.28055
7452.67187,0.28014
7450.74312,0.27939
7448.81438,0.28091
7446.88563,0.28167
7444.95689,0.28012
7443.02814,0.27871
7441.09940,0.27788
7439.17065,0.27545
7437.24190,0.27162
7435.31316,0.27052
7433.38441,0.27454
7431.45567,0.27796
7429.52692,0.27598
7427.59818,0.27276
7425.66943,0.27234
7423.74069,0.27227
7421.81194,0.27098
7419.88320,0.27036
7417.95445,0.27117
7416.02571,0.27498
7414.09696,0.28080
7412.16822,0.28324
7410.23947,0.28182
7408.31073,0.28039
7406.38198,0.28237
7404.45323,0.28650
7402.52449,0.28595
7400.59574,0.27939
7398.66700,0.27438
7396.73825,0.27488
7394.80951,0.27661
7392.88076,0.27654
7390.95202,0.27484
7389.02327,0.27170
7387.09453,0.27017
7385.16578,0.27343
7383.23704,0.27968
7381.30829,0.28329
7379.37955,0.28261
7377.45080,0.27906
7375.52205,0.27202
7373.59331,0.26620
7371.66456,0.26761
7369.73582,0.27031
7367.80707,0.26944
7365.87833,0.27154
7363.94958,0.27775
7362.02084,0.28106
7360.09209,0.28078
7358.16335,0.27872
7356.23460,0.27397
7354.30586,0.27078
7352.37711,0.27465
7350.44837,0.28068
7348.51962,0.28192
7346.59088,0.27839
7344.66213,0.27330
7342.73338,0.27143
7340.80464,0.27247
7338.87589,0.27239
7336.94715,0.27287
7335.01840,0.27207
7333.08966,0.26737
7331.16091,0.26517
7329.23217,0.26711
7327.30342,0.26837
7325.37468,0.26975
7323.44593,0.27168
7321.51719,0.27123
7319.58844,0.27023
7317.65970,0.27300
7315.73095,0.27902
7313.80221,0.28307
7311.87346,0.28081
7309.94471,0.27472
7308.01597,0.27203
7306.08722,0.27474
7304.15848,0.27813
7302.22973,0.27894
7300.30099,0.27682
7298.37224,0.27352
7296.44350,0.27444
7294.51475,0.27992
7292.58601,0.28165
7290.65726,0.27793
7288.72852,0.27586
7286.79977,0.27707
7284.87103,0.27911
7282.94228,0.28148
7281.01353,0.28110
7279.08479,0.27544
7277.15604,0.26943
7275.22730,0.26894
7273.29855,0.27369
7271.36981,0.27967
7269.44106,0.28273
7267.51232,0.28212
7265.58357,0.27995
7263.65483,0.27845
7261.72608,0.27826
7259.79734,0.27862
7257.86859,0.27985
7255.93985,0.28131
7254.01110,0.28065
7252.08236,0.27874
7250.15361,0.27697
7248.22486,0.27432
7246.29612,0.27095
7244.36737,0.26965
7242.43863,0.27245
7240.50988,0.27685
7238.58114,0.27792
7236.65239,0.27478
7234.72365,0.27290
7232.79490,0.27610
7230.86616,0.28065
7228.93741,0.28278
7227.00867,0.28274
7225.07992,0.28142
7223.15118,0.27822
7221.22243,0.27337
7219.29369,0.27221
7217.36494,0.27637
7215.43619,0.27843
7213.50745,0.27588
7211.57870,0.27214
7209.64996,0.26774
7207.72121,0.26490
7205.79247,0.26713
7203.86372,0.26968
7201.93498,0.26780
7200.00623,0.26825
7198.07749,0.27460
7196.14874,0.27758
7194.22000,0.27461
7192.29125,0.27394
7190.36251,0.27556
7188.43376,0.27418
7186.50501,0.27152
7184.57627,0.27141
7182.64752,0.27471
7180.71878,0.27912
7178.79003,0.28047
7176.86129,0.27797
7174.93254,0.27548
7173.00380,0.27562
7171.07505,0.27761
7169.14631,0.27905
7167.21756,0.27846
7165.28882,0.27696
7163.36007,0.27368
7161.43133,0.26945
7159.50258,0.27094
7157.57384,0.27620
7155.64509,0.27610
7153.71634,0.27248
7151.78760,0.27260
7149.85885,0.27398
7147.93011,0.27174
7146.00136,0.27003
7144.07262,0.27275
7142.14387,0.27654
7140.21513,0.27750
7138.28638,0.27486
7136.35764,0.27273
7134.42889,0.27512
7132.50015,0.27824
7130.57140,0.27791
7128.64266,0.27612
7126.71391,0.27493
7124.78516,0.27365
7122.85642,0.27115
7120.92767,0.26899
7118.99893,0.26984
7117.07018,0.27172
7115.14144,0.27271
7113.21269,0.27337
7111.28395,0.27225
7109.35520,0.27101
7107.42646,0.27335
7105.49771,0.27646
7103.56897,0.27541
7101.64022,0.27184
7099.71148,0.27055
7097.78273,0.27130
7095.85399,0.27182
7093.92524,0.27275
7091.99649,0.27501
7090.06775,0.27661
7088.13900,0.27439
7086.21026,0.27124
7084.28151,0.27141
7082.35277,0.27212
7080.42402,0.27175
7078.49528,0.27271
7076.56653,0.27491
7074.63779,0.27619
7072.70904,0.27570
7070.78030,0.27409
7068.85155,0.27262
7066.92281,0.27250
7064.99406,0.27220
7063.06532,0.27002
7061.13657,0.26838
7059.20782,0.26927
7057.27908,0.27055
7055.35033,0.26947
7053.42159,0.26721
7051.49284,0.26615
7049.56410,0.26464
7047.63535,0.26275
7045.70661,0.26368
7043.77786,0.26702
7041.84912,0.26983
7039.92037,0.27048
7037.99163,0.26980
7036.06288,0.27023
7034.13414,0.27164
7032.20539,0.27260
7030.27664,0.27382
7028.34790,0.27475
7026.41915,0.27384
7024.49041,0.27326
7022.56166,0.27420
7020.63292,0.27439
7018.70417,0.27365
7016.77543,0.27399
7014.84668,0.27609
7012.91794,0.27755
7010.98919,0.27562
7009.06045,0.27255
7007.13170,0.27142
7005.20296,0.27087
7003.27421,0.27065
7001.34547,0.27269
6999.41672,0.27404
6997.48797,0.27236
6995.55923,0.27233
6993.63048,0.27568
6991.70174,0.27775
6989.77299,0.27643
6987.84425,0.27441
6985.91550,0.27408
6983.98676,0.27490
6982.05801,0.27706
6980.12927,0.28007
6978.20052,0.28034
6976.27178,0.27810
6974.34303,0.27650
6972.41429,0.27468
6970.48554,0.27286
6968.55680,0.27418
6966.62805,0.27631
6964.69930,0.27547
6962.77056,0.27560
6960.84181,0.27821
6958.91307,0.27780
6956.98432,0.27370
6955.05558,0.26925
6953.12683,0.26652
6951.19809,0.26700
6949.26934,0.27014
6947.34060,0.27442
6945.41185,0.27848
6943.48311,0.28058
6941.55436,0.27906
6939.62562,0.27404
6937.69687,0.26889
6935.76812,0.26584
6933.83938,0.26376
6931.91063,0.26441
6929.98189,0.26832
6928.05314,0.27069
6926.12440,0.27153
6924.19565,0.27408
6922.26691,0.27619
6920.33816,0.27548
6918.40942,0.27357
6916.48067,0.27282
6914.55193,0.27248
6912.62318,0.27068
6910.69444,0.26965
6908.76569,0.27172
6906.83695,0.27399
6904.90820,0.27390
6902.97945,0.27361
6901.05071,0.27422
6899.12196,0.27316
6897.19322,0.27065
6895.26447,0.27064
6893.33573,0.27331
6891.40698,0.27500
6889.47824,0.27539
6887.54949,0.27558
6885.62075,0.27419
6883.69200,0.27213
6881.76326,0.27225
6879.83451,0.27333
6877.90577,0.27358
6875.97702,0.27449
6874.04828,0.27542
6872.11953,0.27504
6870.19078,0.27491
6868.26204,0.27519
6866.33329,0.27602
6864.40455,0.27849
6862.47580,0.28061
6860.54706,0.27989
6858.61831,0.27758
6856.68957,0.27657
6854.76082,0.27723
6852.83208,0.27803
6850.90333,0.27889
6848.97459,0.27934
6847.04584,0.27853
6845.11710,0.27862
6843.18835,0.27968
6841.25960,0.27814
6839.33086,0.27479
6837.40211,0.27300
6835.47337,0.27355
6833.54462,0.27547
6831.61588,0.27605
6829.68713,0.27437
6827.75839,0.27382
6825.82964,0.27552
6823.90090,0.27656
6821.97215,0.27515
6820.04341,0.27280
6818.11466,0.27181
6816.18592,0.27092
6814.25717,0.26903
6812.32843,0.27029
6810.39968,0.27588
6808.47093,0.27997
6806.54219,0.27910
6804.61344,0.27588
6802.68470,0.27389
6800.75595,0.27483
6798.82721,0.27704
6796.89846,0.27746
6794.96972,0.27648
6793.04097,0.27514
6791.11223,0.27367
6789.18348,0.27451
6787.25474,0.27737
6785.32599,0.27875
6783.39725,0.27798
6781.46850,0.27601
6779.53975,0.27380
6777.61101,0.27247
6775.68226,0.27066
6773.75352,0.26701
6771.82477,0.26438
6769.89603,0.26487
6767.96728,0.26658
6766.03854,0.26895
6764.10979,0.27309
6762.18105,0.27559
6760.25230,0.27357
6758.32356,0.27262
6756.39481,0.27706
6754.46607,0.28234
6752.53732,0.28276
6750.60858,0.27941
6748.67983,0.27616
6746.75108,0.27319
6744.82234,0.27226
6742.89359,0.27581
6740.96485,0.27886
6739.03610,0.27719
6737.10736,0.27369
6735.17861,0.27070
6733.24987,0.26914
6731.32112,0.27049
6729.39238,0.27340
6727.46363,0.27610
6725.53489,0.27753
6723.60614,0.27551
6721.67740,0.27258
6719.74865,0.27262
6717.81991,0.27277
6715.89116,0.27217
6713.96241,0.27404
6712.03367,0.27604
6710.10492,0.27597
6708.17618,0.27663
6706.24743,0.27704
6704.31869,0.27528
6702.38994,0.27434
6700.46120,0.27494
6698.53245,0.27422
6696.60371,0.27223
6694.67496,0.27161
6692.74622,0.27322
6690.81747,0.27498
6688.88873,0.27588
6686.95998,0.27744
6685.03123,0.27826
6683.10249,0.27638
6681.17374,0.27430
6679.24500,0.27319
6677.31625,0.27124
6675.38751,0.26954
6673.45876,0.27111
6671.53002,0.27473
6669.60127,0.27750
6667.67253,0.27876
6665.74378,0.27744
6663.81504,0.27498
6661.88629,0.27463
6659.95755,0.27472
6658.02880,0.27366
6656.10006,0.27371
6654.17131,0.27602
6652.24256,0.27840
6650.31382,0.27839
6648.38507,0.27635
6646.45633,0.27318
6644.52758,0.27007
6642.59884,0.26971
6640.67009,0.27134
6638.74135,0.27268
6636.81260,0.27476
6634.88386,0.27691
6632.95511,0.27623
6631.02637,0.27351
6629.09762,0.27226
6627.16888,0.27423
6625.24013,0.27798
6623.31139,0.28140
6621.38264,0.28296
6619.45389,0.28081
6617.52515,0.27613
6615.59640,0.27254
6613.66766,0.27108
6611.73891,0.27228
6609.81017,0.27643
6607.88142,0.27984
6605.95268,0.27954
6604.02393,0.27745
6602.09519,0.27588
6600.16644,0.27561
6598.23770,0.27618
6596.30895,0.27635
6594.38021,0.27731
6592.45146,0.27997
6590.52271,0.28160
6588.59397,0.28132
6586.66522,0.28072
6584.73648,0.28012
6582.80773,0.27941
6580.87899,0.27788
6578.95024,0.27558
6577.02150,0.27404
6575.09275,0.27254
6573.16401,0.27040
6571.23526,0.27006
6569.30652,0.27229
6567.37777,0.27452
6565.44903,0.27517
6563.52028,0.27397
6561.59154,0.27208
6559.66279,0.27182
6557.73404,0.27212
6555.80530,0.27116
6553.87655,0.27118
6551.94781,0.27367
6550.01906,0.27665
6548.09032,0.27826
6546.16157,0.27818
6544.23283,0.27704
6542.30408,0.27574
6540.37534,0.27497
6538.44659,0.27452
6536.51785,0.27344
6534.58910,0.27217
6532.66036,0.27234
6530.73161,0.27365
6528.80287,0.27497
6526.87412,0.27630
6524.94537,0.27641
6523.01663,0.27456
6521.08788,0.27333
6519.15914,0.27347
6517.23039,0.27380
6515.30165,0.27509
6513.37290,0.27650
6511.44416,0.27671
6509.51541,0.27661
6507.58667,0.27664
6505.65792,0.27706
6503.72918,0.27806
6501.80043,0.27856
6499.87169,0.27759
6497.94294,0.27606
6496.01419,0.27516
6494.08545,0.27461
6492.15670,0.27473
6490.22796,0.27600
6488.29921,0.27640
6486.37047,0.27460
6484.44172,0.27370
6482.51298,0.27630
6480.58423,0.28015
6478.65549,0.28227
6476.72674,0.28213
6474.79800,0.28026
6472.86925,0.27747
6470.94051,0.27558
6469.01176,0.27540
6467.08302,0.27537
6465.15427,0.27526
6463.22552,0.27536
6461.29678,0.27454
6459.36803,0.27342
6457.43929,0.27380
6455.51054,0.27548
6453.58180,0.27612
6451.65305,0.27564
6449.72431,0.27678
6447.79556,0.27869
6445.86682,0.27841
6443.93807,0.27665
6442.00933,0.27592
6440.08058,0.27733
6438.15184,0.27961
6436.22309,0.27975
6434.29434,0.27663
6432.36560,0.27350
6430.43685,0.27257
6428.50811,0.27197
6426.57936,0.27127
6424.65062,0.27141
6422.72187,0.27201
6420.79313,0.27329
6418.86438,0.27538
6416.93564,0.27698
6415.00689,0.27743
6413.07815,0.27720
6411.14940,0.27650
6409.22066,0.27573
6407.29191,0.27535
6405.36317,0.27478
6403.43442,0.27401
6401.50567,0.27373
6399.57693,0.27382
6397.64818,0.27383
6395.71944,0.27387
6393.79069,0.27378
6391.86195,0.27337
6389.93320,0.27341
6388.00446,0.27410
6386.07571,0.27444
6384.14697,0.27420
6382.21822,0.27435
6380.28948,0.27518
6378.36073,0.27534
6376.43199,0.27496
6374.50324,0.27575
6372.57450,0.27751
6370.64575,0.27883
6368.71700,0.27800
6366.78826,0.27490
6364.85951,0.27265
6362.93077,0.27229
6361.00202,0.27172
6359.07328,0.27156
6357.14453,0.27371
6355.21579,0.27564
6353.28704,0.27382
6351.35830,0.27038
6349.42955,0.26974
6347.50081,0.27202
6345.57206,0.27499
6343.64332,0.27688
6341.71457,0.27670
6339.78582,0.27566
6337.85708,0.27626
6335.92833,0.27866
6333.99959,0.28068
6332.07084,0.28100
6330.14210,0.27935
6328.21335,0.27647
6326.28461,0.27462
6324.35586,0.27439
6322.42712,0.27474
6320.49837,0.27495
6318.56963,0.27407
6316.64088,0.27254
6314.71214,0.27214
6312.78339,0.27233
6310.85465,0.27189
6308.92590,0.27199
6306.99715,0.27348
6305.06841,0.27517
6303.13966,0.27573
6301.21092,0.27536
6299.28217,0.27451
6297.35343,0.27354
6295.42468,0.27355
6293.49594,0.27451
6291.56719,0.27570
6289.63845,0.27705
6287.70970,0.27761
6285.78096,0.27733
6283.85221,0.27723
6281.92347,0.27737
6279.99472,0.27724
6278.06598,0.27628
6276.13723,0.27547
6274.20848,0.27545
6272.27974,0.27466
6270.35099,0.27335
6268.42225,0.27337
6266.49350,0.27446
6264.56476,0.27508
6262.63601,0.27500
6260.70727,0.27541
6258.77852,0.27634
6256.84978,0.27706
6254.92103,0.27761
6252.99229,0.27810
6251.06354,0.27872
6249.13480,0.27942
6247.20605,0.27901
6245.27730,0.27714
6243.34856,0.27608
6241.41981,0.27736
6239.49107,0.27898
6237.56232,0.27845
6235.63358,0.27628
6233.70483,0.27552
6231.77609,0.27663
6229.84734,0.27647
6227.91860,0.27478
6225.98985,0.27424
6224.06111,0.27416
6222.13236,0.27280
6220.20362,0.27219
6218.27487,0.27381
6216.34613,0.27590
6214.41738,0.27683
6212.48863,0.27600
6210.55989,0.27502
6208.63114,0.27522
6206.70240,0.27461
6204.77365,0.27296
6202.84491,0.27309
6200.91616,0.27602
6198.98742,0.27865
6197.05867,0.27797
6195.12993,0.27647
6193.20118,0.27656
6191.27244,0.27652
6189.34369,0.27575
6187.41495,0.27581
6185.48620,0.27715
6183.55746,0.27823
6181.62871,0.27817
6179.69996,0.27759
6177.77122,0.27688
6175.84247,0.27655
6173.91373,0.27621
6171.98498,0.27532
6170.05624,0.27472
6168.12749,0.27407
6166.19875,0.27327
6164.27000,0.27430
6162.34126,0.27700
6160.41251,0.27851
6158.48377,0.27798
6156.55502,0.27664
6154.62628,0.27436
6152.69753,0.27186
6150.76878,0.27129
6148.84004,0.27236
6146.91129,0.27366
6144.98255,0.27435
6143.05380,0.27418
6141.12506,0.27409
6139.19631,0.27435
6137.26757,0.27479
6135.33882,0.27547
6133.41008,0.27534
6131.48133,0.27362
6129.55259,0.27184
6127.62384,0.27153
6125.69510,0.27235
6123.76635,0.27407
6121.83761,0.27623
6119.90886,0.27728
6117.98011,0.27714
6116.05137,0.27681
6114.12262,0.27609
6112.19388,0.27414
6110.26513,0.27228
6108.33639,0.27219
6106.40764,0.27323
6104.47890,0.27481
6102.55015,0.27655
6100.62141,0.27694
6098.69266,0.27603
6096.76392,0.27556
6094.83517,0.27585
6092.90643,0.27643
6090.97768,0.27746
6089.04893,0.27814
6087.12019,0.27761
6085.19144,0.27595
6083.26270,0.27456
6081.33395,0.27479
6079.40521,0.27542
6077.47646,0.27546
6075.54772,0.27587
6073.61897,0.27704
6071.69023,0.27785
6069.76148,0.27701
6067.83274,0.27514
6065.90399,0.27396
6063.97525,0.27380
6062.04650,0.27416
6060.11776,0.27568
6058.18901,0.27824
6056.26026,0.27924
6054.33152,0.27759
6052.40277,0.27507
6050.47403,0.27344
6048.54528,0.27368
6046.61654,0.27501
6044.68779,0.27525
6042.75905,0.27404
6040.83030,0.27341
6038.90156,0.27422
6036.97281,0.27484
6035.04407,0.27479
6033.11532,0.27546
6031.18658,0.27633
6029.25783,0.27618
6027.32909,0.27604
6025.40034,0.27668
6023.47159,0.27691
6021.54285,0.27619
6019.61410,0.27516
6017.68536,0.27458
6015.75661,0.27528
6013.82787,0.27676
6011.89912,0.27654
6009.97038,0.27418
6008.04163,0.27218
6006.11289,0.27225
6004.18414,0.27376
6002.25540,0.27404
6000.32665,0.27251
5998.39791,0.27191
5996.46916,0.27233
5994.54041,0.27261
5992.61167,0.27354
5990.68292,0.27467
5988.75418,0.27463
5986.82543,0.27332
5984.89669,0.27244
5982.96794,0.27374
5981.03920,0.27623
5979.11045,0.27753
5977.18171,0.27691
5975.25296,0.27610
5973.32422,0.27653
5971.39547,0.27736
5969.46673,0.27760
5967.53798,0.27717
5965.60924,0.27629
5963.68049,0.27605
5961.75174,0.27646
5959.82300,0.27505
5957.89425,0.27186
5955.96551,0.27041
5954.03676,0.27157
5952.10802,0.27316
5950.17927,0.27415
5948.25053,0.27464
5946.32178,0.27506
5944.39304,0.27551
5942.46429,0.27501
5940.53555,0.27370
5938.60680,0.27268
5936.67806,0.27218
5934.74931,0.27230
5932.82057,0.27276
5930.89182,0.27335
5928.96307,0.27415
5927.03433,0.27482
5925.10558,0.27533
5923.17684,0.27574
5921.24809,0.27604
5919.31935,0.27616
5917.39060,0.27602
5915.46186,0.27546
5913.53311,0.27439
5911.60437,0.27364
5909.67562,0.27404
5907.74688,0.27520
5905.81813,0.27615
5903.88939,0.27670
5901.96064,0.27735
5900.03189,0.27785
5898.10315,0.27718
5896.17440,0.27574
5894.24566,0.27546
5892.31691,0.27633
5890.38817,0.27658
5888.45942,0.27565
5886.53068,0.27483
5884.60193,0.27510
5882.67319,0.27536
5880.74444,0.27525
5878.81570,0.27594
5876.88695,0.27666
5874.95821,0.27579
5873.02946,0.27437
5871.10072,0.27477
5869.17197,0.27632
5867.24322,0.27686
5865.31448,0.27651
5863.38573,0.27622
5861.45699,0.27613
5859.52824,0.27598
5857.59950,0.27578
5855.67075,0.27577
5853.74201,0.27566
5851.81326,0.27558
5849.88452,0.27582
5847.95577,0.27528
5846.02703,0.27416
5844.09828,0.27441
5842.16954,0.27515
5840.24079,0.27447
5838.31205,0.27366
5836.38330,0.27415
5834.45455,0.27483
5832.52581,0.27466
5830.59706,0.27380
5828.66832,0.27309
5826.73957,0.27363
5824.81083,0.27452
5822.88208,0.27444
5820.95334,0.27398
5819.02459,0.27404
5817.09585,0.27480
5815.16710,0.27492
5813.23836,0.27315
5811.30961,0.27148
5809.38087,0.27227
5807.45212,0.27442
5805.52337,0.27532
5803.59463,0.27517
5801.66588,0.27530
5799.73714,0.27472
5797.80839,0.27315
5795.87965,0.27269
5793.95090,0.27415
5792.02216,0.27582
5790.09341,0.27581
5788.16467,0.27426
5786.23592,0.27308
5784.30718,0.27349
5782.37843,0.27503
5780.44969,0.27661
5778.52094,0.27711
5776.59220,0.27593
5774.66345,0.27399
5772.73470,0.27310
5770.80596,0.27381
5768.87721,0.27475
5766.94847,0.27488
5765.01972,0.27475
5763.09098,0.27473
5761.16223,0.27440
5759.23349,0.27423
5757.30474,0.27430
5755.37600,0.27342
5753.44725,0.27217
5751.51851,0.27249
5749.58976,0.27365
5747.66102,0.27334
5745.73227,0.27214
5743.80352,0.27185
5741.87478,0.27248
5739.94603,0.27355
5738.01729,0.27458
5736.08854,0.27532
5734.15980,0.27615
5732.23105,0.27609
5730.30231,0.27438
5728.37356,0.27264
5726.44482,0.27228
5724.51607,0.27317
5722.58733,0.27470
5720.65858,0.27581
5718.72984,0.27556
5716.80109,0.27449
5714.87235,0.27366
5712.94360,0.27339
5711.01485,0.27351
5709.08611,0.27342
5707.15736,0.27306
5705.22862,0.27301
5703.29987,0.27290
5701.37113,0.27245
5699.44238,0.27238
5697.51364,0.27275
5695.58489,0.27298
5693.65615,0.27338
5691.72740,0.27414
5689.79866,0.27439
5687.86991,0.27427
5685.94117,0.27440
5684.01242,0.27405
5682.08368,0.27325
5680.15493,0.27326
5678.22618,0.27368
5676.29744,0.27338
5674.36869,0.27239
5672.43995,0.27139
5670.51120,0.27126
5668.58246,0.27172
5666.65371,0.27203
5664.72497,0.27236
5662.79622,0.27276
5660.86748,0.27291
5658.93873,0.27273
5657.00999,0.27301
5655.08124,0.27424
5653.15250,0.27500
5651.22375,0.27420
5649.29500,0.27298
5647.36626,0.27295
5645.43751,0.27378
5643.50877,0.27350
5641.58002,0.27213
5639.65128,0.27164
5637.72253,0.27206
5635.79379,0.27236
5633.86504,0.27257
5631.93630,0.27218
5630.00755,0.27128
5628.07881,0.27146
5626.15006,0.27279
5624.22132,0.27323
5622.29257,0.27256
5620.36383,0.27266
5618.43508,0.27338
5616.50633,0.27331
5614.57759,0.27256
5612.64884,0.27236
5610.72010,0.27329
5608.79135,0.27396
5606.86261,0.27370
5604.93386,0.27348
5603.00512,0.27366
5601.07637,0.27392
5599.14763,0.27411
5597.21888,0.27453
5595.29014,0.27503
5593.36139,0.27472
5591.43265,0.27398
5589.50390,0.27362
5587.57516,0.27308
5585.64641,0.27237
5583.71766,0.27257
5581.78892,0.27359
5579.86017,0.27404
5577.93143,0.27353
5576.00268,0.27325
5574.07394,0.27353
5572.14519,0.27386
5570.21645,0.27434
5568.28770,0.27449
5566.35896,0.27402
5564.43021,0.27371
5562.50147,0.27381
5560.57272,0.27399
5558.64398,0.27434
5556.71523,0.27471
5554.78648,0.27429
5552.85774,0.27303
5550.92899,0.27192
5549.00025,0.27143
5547.07150,0.27168
5545.14276,0.27273
5543.21401,0.27389
5541.28527,0.27412
5539.35652,0.27325
5537.42778,0.27242
5535.49903,0.27264
5533.57029,0.27328
5531.64154,0.27356
5529.71280,0.27355
5527.78405,0.27338
5525.85531,0.27343
5523.92656,0.27395
5521.99781,0.27449
5520.06907,0.27428
5518.14032,0.27342
5516.21158,0.27304
5514.28283,0.27337
5512.35409,0.27343
5510.42534,0.27296
5508.49660,0.27245
5506.56785,0.27187
5504.63911,0.27144
5502.71036,0.27200
5500.78162,0.27294
5498.85287,0.27343
5496.92413,0.27383
5494.99538,0.27385
5493.06664,0.27319
5491.13789,0.27236
5489.20914,0.27197
5487.28040,0.27214
5485.35165,0.27243
5483.42291,0.27245
5481.49416,0.27211
5479.56542,0.27159
5477.63667,0.27127
5475.70793,0.27158
5473.77918,0.27203
5471.85044,0.27159
5469.92169,0.27082
5467.99295,0.27073
5466.06420,0.27095
5464.13546,0.27110
5462.20671,0.27167
5460.27796,0.27268
5458.34922,0.27326
5456.42047,0.27267
5454.49173,0.27153
5452.56298,0.27125
5450.63424,0.27216
5448.70549,0.27344
5446.77675,0.27380
5444.84800,0.27261
5442.91926,0.27091
5440.99051,0.26970
5439.06177,0.26922
5437.13302,0.26996
5435.20428,0.27123
5433.27553,0.27162
5431.34679,0.27129
5429.41804,0.27086
5427.48929,0.27039
5425.56055,0.27038
5423.63180,0.27113
5421.70306,0.27162
5419.77431,0.27119
5417.84557,0.27088
5415.91682,0.27132
5413.98808,0.27194
5412.05933,0.27258
5410.13059,0.27339
5408.20184,0.27403
5406.27310,0.27371
5404.34435,0.27224
5402.41561,0.27076
5400.48686,0.27049
5398.55811,0.27122
5396.62937,0.27177
5394.70062,0.27164
5392.77188,0.27144
5390.84313,0.27144
5388.91439,0.27154
5386.98564,0.27156
5385.05690,0.27113
5383.12815,0.27083
5381.19941,0.27108
5379.27066,0.27145
5377.34192,0.27207
5375.41317,0.27227
5373.48443,0.27116
5371.55568,0.26970
5369.62694,0.26946
5367.69819,0.27042
5365.76944,0.27065
5363.84070,0.26937
5361.91195,0.26838
5359.98321,0.26840
5358.05446,0.26844
5356.12572,0.26845
5354.19697,0.26893
5352.26823,0.26944
5350.33948,0.26951
5348.41074,0.26958
5346.48199,0.27003
5344.55325,0.27034
5342.62450,0.27015
5340.69576,0.26983
5338.76701,0.26946
5336.83827,0.26879
5334.90952,0.26803
5332.98077,0.26750
5331.05203,0.26738
5329.12328,0.26776
5327.19454,0.26813
5325.26579,0.26812
5323.33705,0.26804
5321.40830,0.26779
5319.47956,0.26718
5317.55081,0.26665
5315.62207,0.26672
5313.69332,0.26741
5311.76458,0.26804
5309.83583,0.26803
5307.90709,0.26709
5305.97834,0.26537
5304.04959,0.26405
5302.12085,0.26373
5300.19210,0.26375
5298.26336,0.26388
5296.33461,0.26419
5294.40587,0.26453
5292.47712,0.26476
5290.54838,0.26453
5288.61963,0.26377
5286.69089,0.26341
5284.76214,0.26387
5282.83340,0.26403
5280.90465,0.26291
5278.97591,0.26123
5277.04716,0.26031
5275.11842,0.26027
5273.18967,0.26042
5271.26092,0.26021
5269.33218,0.26003
5267.40343,0.26014
5265.47469,0.26001
5263.54594,0.25939
5261.61720,0.25870
5259.68845,0.25806
5257.75971,0.25720
5255.83096,0.25628
5253.90222,0.25587
5251.97347,0.25584
5250.04473,0.25552
5248.11598,0.25483
5246.18724,0.25425
5244.25849,0.25407
5242.32975,0.25387
5240.40100,0.25356
5238.47225,0.25367
5236.54351,0.25389
5234.61476,0.25354
5232.68602,0.25270
5230.75727,0.25155
5228.82853,0.25033
5226.89978,0.24987
5224.97104,0.25038
5223.04229,0.25069
5221.11355,0.25005
5219.18480,0.24916
5217.25606,0.24871
5215.32731,0.24881
5213.39857,0.24938
5211.46982,0.25006
5209.54107,0.25049
5207.61233,0.25039
5205.68358,0.24999
5203.75484,0.25014
5201.82609,0.25036
5199.89735,0.24972
5197.96860,0.24875
5196.03986,0.24838
5194.11111,0.24904
5192.18237,0.25035
5190.25362,0.25112
5188.32488,0.25074
5186.39613,0.24972
5184.46739,0.24869
5182.53864,0.24819
5180.60990,0.24831
5178.68115,0.24851
5176.75240,0.24818
5174.82366,0.24756
5172.89491,0.24762
5170.96617,0.24819
5169.03742,0.24832
5167.10868,0.24822
5165.17993,0.24828
5163.25119,0.24825
5161.32244,0.24823
5159.39370,0.24856
5157.46495,0.24897
5155.53621,0.24922
5153.60746,0.24926
5151.67872,0.24895
5149.74997,0.24848
5147.82123,0.24845
5145.89248,0.24915
5143.96373,0.24972
5142.03499,0.24939
5140.10624,0.24888
5138.17750,0.24892
5136.24875,0.24938
5134.32001,0.25003
5132.39126,0.25065
5130.46252,0.25102
5128.53377,0.25100
5126.60503,0.25083
5124.67628,0.25063
5122.74754,0.25034
5120.81879,0.25025
5118.89005,0.25031
5116.96130,0.25004
5115.03255,0.24957
5113.10381,0.24967
5111.17506,0.25019
5109.24632,0.25019
5107.31757,0.25007
5105.38883,0.25055
5103.46008,0.25091
5101.53134,0.25098
5099.60259,0.25122
5097.67385,0.25116
5095.74510,0.25058
5093.81636,0.25004
5091.88761,0.25003
5089.95887,0.25071
5088.03012,0.25196
5086.10138,0.25309
5084.17263,0.25345
5082.24388,0.25312
5080.31514,0.25256
5078.38639,0.25230
5076.45765,0.25264
5074.52890,0.25313
5072.60016,0.25328
5070.67141,0.25322
5068.74267,0.25335
5066.81392,0.25360
5064.88518,0.25342
5062.95643,0.25287
5061.02769,0.25290
5059.09894,0.25361
5057.17020,0.25412
5055.24145,0.25417
5053.31270,0.25381
5051.38396,0.25328
5049.45521,0.25313
5047.52647,0.25331
5045.59772,0.25369
5043.66898,0.25420
5041.74023,0.25432
5039.81149,0.25387
5037.88274,0.25330
5035.95400,0.25338
5034.02525,0.25440
5032.09651,0.25519
5030.16776,0.25498
5028.23902,0.25455
5026.31027,0.25451
5024.38153,0.25458
5022.45278,0.25439
5020.52403,0.25418
5018.59529,0.25458
5016.66654,0.25544
5014.73780,0.25581
5012.80905,0.25553
5010.88031,0.25545
5008.95156,0.25578
5007.02282,0.25588
5005.09407,0.25549
5003.16533,0.25480
5001.23658,0.25475
4999.30784,0.25604
4997.37909,0.25731
4995.45035,0.25715
4993.52160,0.25663
4991.59286,0.25700
4989.66411,0.25776
4987.73536,0.25819
4985.80662,0.25808
4983.87787,0.25789
4981.94913,0.25856
4980.02038,0.25972
4978.09164,0.26002
4976.16289,0.25937
4974.23415,0.25877
4972.30540,0.25878
4970.37666,0.25894
4968.44791,0.25881
4966.51917,0.25851
4964.59042,0.25829
4962.66168,0.25853
4960.73293,0.25931
4958.80418,0.26010
4956.87544,0.26054
4954.94669,0.26078
4953.01795,0.26089
4951.08920,0.26075
4949.16046,0.26017
4947.23171,0.25941
4945.30297,0.25912
4943.37422,0.25932
4941.44548,0.25946
4939.51673,0.25931
4937.58799,0.25911
4935.65924,0.25912
4933.73050,0.25956
4931.80175,0.26007
4929.87301,0.26012
4927.94426,0.26008
4926.01551,0.26029
4924.08677,0.26046
4922.15802,0.26044
4920.22928,0.26030
4918.30053,0.26008
4916.37179,0.25980
4914.44304,0.25978
4912.51430,0.26042
4910.58555,0.26107
4908.65681,0.26078
4906.72806,0.26042
4904.79932,0.26091
4902.87057,0.26131
4900.94183,0.26093
4899.01308,0.26043
4897.08434,0.26004
4895.15559,0.25981
4893.22684,0.26023
4891.29810,0.26087
4889.36935,0.26073
4887.44061,0.26011
4885.51186,0.26023
4883.58312,0.26119
4881.65437,0.26188
4879.72563,0.26175
4877.79688,0.26149
4875.86814,0.26150
4873.93939,0.26160
4872.01065,0.26179
4870.08190,0.26212
4868.15316,0.26229
4866.22441,0.26227
4864.29566,0.26220
4862.36692,0.26197
4860.43817,0.26157
4858.50943,0.26145
4856.58068,0.26167
4854.65194,0.26155
4852.72319,0.26101
4850.79445,0.26079
4848.86570,0.26114
4846.93696,0.26147
4845.00821,0.26165
4843.07947,0.26202
4841.15072,0.26221
4839.22198,0.26198
4837.29323,0.26186
4835.36449,0.26191
4833.43574,0.26191
4831.50699,0.26206
4829.57825,0.26228
4827.64950,0.26223
4825.72076,0.26212
4823.79201,0.26219
4821.86327,0.26202
4819.93452,0.26165
4818.00578,0.26177
4816.07703,0.26198
4814.14829,0.26189
4812.21954,0.26203
4810.29080,0.26219
4808.36205,0.26199
4806.43331,0.26187
4804.50456,0.26201
4802.57582,0.26199
4800.64707,0.26169
4798.71832,0.26178
4796.78958,0.26250
4794.86083,0.26279
4792.93209,0.26227
4791.00334,0.26197
4789.07460,0.26218
4787.14585,0.26227
4785.21711,0.26215
4783.28836,0.26182
4781.35962,0.26144
4779.43087,0.26176
4777.50213,0.26250
4775.57338,0.26262
4773.64464,0.26215
4771.71589,0.26175
4769.78714,0.26154
4767.85840,0.26144
4765.92965,0.26173
4764.00091,0.26234
4762.07216,0.26277
4760.14342,0.26289
4758.21467,0.26278
4756.28593,0.26258
4754.35718,0.26264
4752.42844,0.26288
4750.49969,0.26283
4748.57095,0.26258
4746.64220,0.26237
4744.71346,0.26204
4742.78471,0.26168
4740.85597,0.26178
4738.92722,0.26220
4736.99847,0.26237
4735.06973,0.26232
4733.14098,0.26241
4731.21224,0.26255
4729.28349,0.26233
4727.35475,0.26171
4725.42600,0.26130
4723.49726,0.26154
4721.56851,0.26208
4719.63977,0.26218
4717.71102,0.26164
4715.78228,0.26130
4713.85353,0.26154
4711.92479,0.26166
4709.99604,0.26137
4708.06729,0.26099
4706.13855,0.26063
4704.20980,0.26047
4702.28106,0.26072
4700.35231,0.26102
4698.42357,0.26100
4696.49482,0.26081
4694.56608,0.26078
4692.63733,0.26097
4690.70859,0.26112
4688.77984,0.26139
4686.85110,0.26184
4684.92235,0.26195
4682.99361,0.26161
4681.06486,0.26122
4679.13612,0.26093
4677.20737,0.26063
4675.27862,0.26043
4673.34988,0.26049
4671.42113,0.26069
4669.49239,0.26083
4667.56364,0.26088
4665.63490,0.26082
4663.70615,0.26077
4661.77741,0.26086
4659.84866,0.26087
4657.91992,0.26077
4655.99117,0.26058
4654.06243,0.26018
4652.13368,0.25988
4650.20494,0.25983
4648.27619,0.25977
4646.34745,0.25973
4644.41870,0.25986
4642.48995,0.26002
4640.56121,0.25993
4638.63246,0.25956
4636.70372,0.25919
4634.77497,0.25906
4632.84623,0.25906
4630.91748,0.25906
4628.98874,0.25916
4627.05999,0.25931
4625.13125,0.25930
4623.20250,0.25910
4621.27376,0.25888
4619.34501,0.25875
4617.41627,0.25883
4615.48752,0.25912
4613.55877,0.25936
4611.63003,0.25958
4609.70128,0.25986
4607.77254,0.25973
4605.84379,0.25914
4603.91505,0.25845
4601.98630,0.25775
4600.05756,0.25728
4598.12881,0.25753
4596.20007,0.25830
4594.27132,0.25875
4592.34258,0.25848
4590.41383,0.25798
4588.48509,0.25770
4586.55634,0.25753
4584.62760,0.25735
4582.69885,0.25728
4580.77010,0.25747
4578.84136,0.25771
4576.91261,0.25779
4574.98387,0.25786
4573.05512,0.25783
4571.12638,0.25743
4569.19763,0.25692
4567.26889,0.25678
4565.34014,0.25694
4563.41140,0.25697
4561.48265,0.25689
4559.55391,0.25681
4557.62516,0.25658
4555.69642,0.25637
4553.76767,0.25629
4551.83893,0.25602
4549.91018,0.25556
4547.98143,0.25543
4546.05269,0.25566
4544.12394,0.25579
4542.19520,0.25558
4540.26645,0.25499
4538.33771,0.25411
4536.40896,0.25345
4534.48022,0.25349
4532.55147,0.25368
4530.62273,0.25325
4528.69398,0.25245
4526.76524,0.25196
4524.83649,0.25200
4522.90775,0.25205
4520.97900,0.25154
4519.05025,0.25097
4517.12151,0.25094
4515.19276,0.25115
4513.26402,0.25136
4511.33527,0.25162
4509.40653,0.25181
4507.47778,0.25172
4505.54904,0.25125
4503.62029,0.25091
4501.69155,0.25123
4499.76280,0.25172
4497.83406,0.25192
4495.90531,0.25187
4493.97657,0.25142
4492.04782,0.25077
4490.11908,0.25051
4488.19033,0.25060
4486.26158,0.25053
4484.33284,0.25045
4482.40409,0.25076
4480.47535,0.25120
4478.54660,0.25125
4476.61786,0.25070
4474.68911,0.25007
4472.76037,0.25013
4470.83162,0.25058
4468.90288,0.25056
4466.97413,0.25025
4465.04539,0.25022
4463.11664,0.25028
4461.18790,0.25003
4459.25915,0.24963
4457.33041,0.24958
4455.40166,0.24990
4453.47291,0.25014
4451.54417,0.25017
4449.61542,0.24997
4447.68668,0.24952
4445.75793,0.24913
4443.82919,0.24896
4441.90044,0.24884
4439.97170,0.24890
4438.04295,0.24919
4436.11421,0.24926
4434.18546,0.24879
4432.25672,0.24809
4430.32797,0.24743
4428.39923,0.24677
4426.47048,0.24635
4424.54173,0.24644
4422.61299,0.24665
4420.68424,0.24655
4418.75550,0.24605
4416.82675,0.24549
4414.89801,0.24540
4412.96926,0.24564
4411.04052,0.24565
4409.11177,0.24521
4407.18303,0.24454
4405.25428,0.24418
4403.32554,0.24434
4401.39679,0.24442
4399.46805,0.24400
4397.53930,0.24356
4395.61056,0.24370
4393.68181,0.24402
4391.75306,0.24381
4389.82432,0.24321
4387.89557,0.24280
4385.96683,0.24279
4384.03808,0.24299
4382.10934,0.24293
4380.18059,0.24250
4378.25185,0.24221
4376.32310,0.24229
4374.39436,0.24247
4372.46561,0.24246
4370.53687,0.24209
4368.60812,0.24159
4366.67938,0.24114
4364.75063,0.24065
4362.82189,0.24044
4360.89314,0.24050
4358.96439,0.24029
4357.03565,0.23970
4355.10690,0.23911
4353.17816,0.23890
4351.24941,0.23895
4349.32067,0.23880
4347.39192,0.23834
4345.46318,0.23784
4343.53443,0.23763
4341.60569,0.23761
4339.67694,0.23739
4337.74820,0.23702
4335.81945,0.23678
4333.89071,0.23668
4331.96196,0.23662
4330.03321,0.23639
4328.10447,0.23597
4326.17572,0.23565
4324.24698,0.23531
4322.31823,0.23484
4320.38949,0.23449
4318.46074,0.23443
4316.53200,0.23442
4314.60325,0.23416
4312.67451,0.23389
4310.74576,0.23371
4308.81702,0.23347
4306.88827,0.23327
4304.95953,0.23298
4303.03078,0.23262
4301.10204,0.23255
4299.17329,0.23274
4297.24454,0.23293
4295.31580,0.23302
4293.38705,0.23301
4291.45831,0.23296
4289.52956,0.23306
4287.60082,0.23317
4285.67207,0.23316
4283.74333,0.23332
4281.81458,0.23365
4279.88584,0.23388
4277.95709,0.23403
4276.02835,0.23426
4274.09960,0.23468
4272.17086,0.23519
4270.24211,0.23551
4268.31336,0.23561
4266.38462,0.23600
4264.45587,0.23669
4262.52713,0.23713
4260.59838,0.23726
4258.66964,0.23744
4256.74089,0.23801
4254.81215,0.23886
4252.88340,0.23948
4250.95466,0.23983
4249.02591,0.24021
4247.09717,0.24057
4245.16842,0.24096
4243.23968,0.24147
4241.31093,0.24179
4239.38219,0.24182
4237.45344,0.24213
4235.52469,0.24289
4233.59595,0.24346
4231.66720,0.24357
4229.73846,0.24350
4227.80971,0.24345
4225.88097,0.24363
4223.95222,0.24391
4222.02348,0.24380
4220.09473,0.24355
4218.16599,0.24376
4216.23724,0.24418
4214.30850,0.24417
4212.37975,0.24381
4210.45101,0.24363
4208.52226,0.24353
4206.59352,0.24318
4204.66477,0.24287
4202.73602,0.24279
4200.80728,0.24272
4198.87853,0.24269
4196.94979,0.24272
4195.02104,0.24253
4193.09230,0.24209
4191.16355,0.24169
4189.23481,0.24150
4187.30606,0.24148
4185.37732,0.24174
4183.44857,0.24208
4181.51983,0.24187
4179.59108,0.24110
4177.66234,0.24044
4175.73359,0.24013
4173.80484,0.23995
4171.87610,0.23975
4169.94735,0.23938
4168.01861,0.23890
4166.08986,0.23859
4164.16112,0.23864
4162.23237,0.23879
4160.30363,0.23869
4158.37488,0.23840
4156.44614,0.23822
4154.51739,0.23823
4152.58865,0.23827
4150.65990,0.23809
4148.73116,0.23773
4146.80241,0.23744
4144.87367,0.23729
4142.94492,0.23711
4141.01617,0.23674
4139.08743,0.23611
4137.15868,0.23525
4135.22994,0.23451
4133.30119,0.23406
4131.37245,0.23369
4129.44370,0.23339
4127.51496,0.23338
4125.58621,0.23331
4123.65747,0.23266
4121.72872,0.23181
4119.79998,0.23130
4117.87123,0.23087
4115.94249,0.23028
4114.01374,0.22986
4112.08500,0.22988
4110.15625,0.22993
4108.22750,0.22941
4106.29876,0.22851
4104.37001,0.22771
4102.44127,0.22712
4100.51252,0.22657
4098.58378,0.22595
4096.65503,0.22538
4094.72629,0.22498
4092.79754,0.22471
4090.86880,0.22435
4088.94005,0.22375
4087.01131,0.22294
4085.08256,0.22203
4083.15382,0.22127
4081.22507,0.22084
4079.29632,0.22058
4077.36758,0.22014
4075.43883,0.21967
4073.51009,0.21949
4071.58134,0.21927
4069.65260,0.21874
4067.72385,0.21821
4065.79511,0.21770
4063.86636,0.21691
4061.93762,0.21611
4060.00887,0.21579
4058.08013,0.21578
4056.15138,0.21559
4054.22264,0.21528
4052.29389,0.21494
4050.36515,0.21428
4048.43640,0.21357
4046.50765,0.21322
4044.57891,0.21314
4042.65016,0.21297
4040.72142,0.21248
4038.79267,0.21183
4036.86393,0.21129
4034.93518,0.21087
4033.00644,0.21066
4031.07769,0.21047
4029.14895,0.21008
4027.22020,0.20975
4025.29146,0.20945
4023.36271,0.20895
4021.43397,0.20826
4019.50522,0.20744
4017.57648,0.20694
4015.64773,0.20685
4013.71898,0.20660
4011.79024,0.20605
4009.86149,0.20547
4007.93275,0.20502
4006.00400,0.20483
4004.07526,0.20479
4002.14651,0.20464
4000.21777,0.20429
3998.28902,0.20378
3996.36028,0.20319
3994.43153,0.20267
3992.50279,0.20230
3990.57404,0.20226
3988.64530,0.20232
3986.71655,0.20187
3984.78780,0.20109
3982.85906,0.20049
3980.93031,0.20008
3979.00157,0.19979
3977.07282,0.19959
3975.14408,0.19945
3973.21533,0.19937
3971.28659,0.19918
3969.35784,0.19896
3967.42910,0.19897
3965.50035,0.19908
3963.57161,0.19895
3961.64286,0.19854
3959.71412,0.19823
3957.78537,0.19833
3955.85663,0.19861
3953.92788,0.19883
3951.99913,0.19905
3950.07039,0.19943
3948.14164,0.19988
3946.21290,0.20034
3944.28415,0.20090
3942.35541,0.20163
3940.42666,0.20257
3938.49792,0.20356
3936.56917,0.20442
3934.64043,0.20541
3932.71168,0.20646
3930.78294,0.20717
3928.85419,0.20774
3926.92545,0.20857
3924.99670,0.20974
3923.06795,0.21113
3921.13921,0.21245
3919.21046,0.21325
3917.28172,0.21364
3915.35297,0.21431
3913.42423,0.21528
3911.49548,0.21595
3909.56674,0.21637
3907.63799,0.21696
3905.70925,0.21768
3903.78050,0.21829
3901.85176,0.21852
3899.92301,0.21851
3897.99427,0.21872
3896.06552,0.21911
3894.13678,0.21947
3892.20803,0.21982
3890.27928,0.22015
3888.35054,0.22038
3886.42179,0.22047
3884.49305,0.22038
3882.56430,0.22039
3880.63556,0.22062
3878.70681,0.22073
3876.77807,0.22077
3874.84932,0.22109
3872.92058,0.22149
3870.99183,0.22152
3869.06309,0.22129
3867.13434,0.22126
3865.20560,0.22133
3863.27685,0.22115
3861.34811,0.22090
3859.41936,0.22087
3857.49061,0.22090
3855.56187,0.22096
3853.63312,0.22107
3851.70438,0.22098
3849.77563,0.22082
3847.84689,0.22096
3845.91814,0.22118
3843.98940,0.22111
3842.06065,0.22069
3840.13191,0.22006
3838.20316,0.21949
3836.27442,0.21907
3834.34567,0.21875
3832.41693,0.21867
3830.48818,0.21897
3828.55943,0.21942
3826.63069,0.21961
3824.70194,0.21935
3822.77320,0.21888
3820.84445,0.21857
3818.91571,0.21836
3816.98696,0.21779
3815.05822,0.21702
3813.12947,0.21671
3811.20073,0.21682
3809.27198,0.21682
3807.34324,0.21657
3805.41449,0.21634
3803.48575,0.21614
3801.55700,0.21573
3799.62826,0.21533
3797.69951,0.21520
3795.77076,0.21501
3793.84202,0.21452
3791.91327,0.21411
3789.98453,0.21380
3788.05578,0.21327
3786.12704,0.21277
3784.19829,0.21259
3782.26955,0.21236
3780.34080,0.21180
3778.41206,0.21118
3776.48331,0.21073
3774.55457,0.21020
3772.62582,0.20933
3770.69708,0.20839
3768.76833,0.20779
3766.83959,0.20730
3764.91084,0.20665
3762.98209,0.20594
3761.05335,0.20519
3759.12460,0.20438
3757.19586,0.20355
3755.26711,0.20267
3753.33837,0.20169
3751.40962,0.20054
3749.48088,0.19920
3747.55213,0.19792
3745.62339,0.19631
3743.69464,0.19395
3741.76590,0.19180
3739.83715,0.19027
3737.90841,0.18884
3735.97966,0.18720
3734.05091,0.18519
3732.12217,0.18285
3730.19342,0.18054
3728.26468,0.17832
3726.33593,0.17585
3724.40719,0.17305
3722.47844,0.17005
3720.54970,0.16681
3718.62095,0.16342
3716.69221,0.16019
3714.76346,0.15721
3712.83472,0.15413
3710.90597,0.15066
3708.97723,0.14697
3707.04848,0.14308
3705.11974,0.13869
3703.19099,0.13369
3701.26224,0.12892
3699.33350,0.12537
3697.40475,0.12310
3695.47601,0.12184
3693.54726,0.12149
3691.61852,0.12189
3689.68977,0.12244
3687.76103,0.12248
3685.83228,0.12213
3683.90354,0.12151
3681.97479,0.12046
3680.04605,0.11924
3678.11730,0.11786
3676.18856,0.11577
3674.25981,0.11324
3672.33107,0.11093
3670.40232,0.10863
3668.47357,0.10649
3666.54483,0.10486
3664.61608,0.10330
3662.68734,0.10163
3660.75859,0.10006
3658.82985,0.09836
3656.90110,0.09621
3654.97236,0.09394
3653.04361,0.09220
3651.11487,0.09083
3649.18612,0.08943
3647.25738,0.08815
3645.32863,0.08700
3643.39989,0.08575
3641.47114,0.08449
3639.54239,0.08344
3637.61365,0.08257
3635.68490,0.08160
3633.75616,0.08042
3631.82741,0.07917
3629.89867,0.07802
3627.96992,0.07693
3626.04118,0.07589
3624.11243,0.07472
3622.18369,0.07335
3620.25494,0.07235
3618.32620,0.07213
3616.39745,0.07229
3614.46871,0.07239
3612.53996,0.07236
3610.61122,0.07213
3608.68247,0.07162
3606.75372,0.07107
3604.82498,0.07090
3602.89623,0.07102
3600.96749,0.07105
3599.03874,0.07092
3597.11000,0.07072
3595.18125,0.07051
3593.25251,0.07043
3591.32376,0.07043
3589.39502,0.07020
3587.46627,0.06979
3585.53753,0.06971
3583.60878,0.06996
3581.68004,0.07027
3579.75129,0.07055
3577.82254,0.07057
3575.89380,0.07032
3573.96505,0.07002
3572.03631,0.06977
3570.10756,0.06944
3568.17882,0.06923
3566.25007,0.06922
3564.32133,0.06926
3562.39258,0.06933
3560.46384,0.06922
3558.53509,0.06873
3556.60635,0.06818
3554.67760,0.06806
3552.74886,0.06826
3550.82011,0.06820
3548.89137,0.06784
3546.96262,0.06759
3545.03387,0.06754
3543.10513,0.06737
3541.17638,0.06705
3539.24764,0.06698
3537.31889,0.06721
3535.39015,0.06713
3533.46140,0.06666
3531.53266,0.06654
3529.60391,0.06683
3527.67517,0.06683
3525.74642,0.06646
3523.81768,0.06610
3521.88893,0.06578
3519.96019,0.06550
3518.03144,0.06554
3516.10270,0.06580
3514.17395,0.06574
3512.24520,0.06530
3510.31646,0.06489
3508.38771,0.06474
3506.45897,0.06472
3504.53022,0.06445
3502.60148,0.06403
3500.67273,0.06393
3498.74399,0.06418
3496.81524,0.06438
3494.88650,0.06433
3492.95775,0.06410
3491.02901,0.06385
3489.10026,0.06364
3487.17152,0.06353
3485.24277,0.06360
3483.31402,0.06371
3481.38528,0.06351
3479.45653,0.06317
3477.52779,0.06323
3475.59904,0.06357
3473.67030,0.06366
3471.74155,0.06347
3469.81281,0.06316
3467.88406,0.06280
3465.95532,0.06259
3464.02657,0.06257
3462.09783,0.06237
3460.16908,0.06201
3458.24034,0.06188
3456.31159,0.06194
3454.38285,0.06186
3452.45410,0.06182
3450.52535,0.06203
3448.59661,0.06209
3446.66786,0.06179
3444.73912,0.06160
3442.81037,0.06169
3440.88163,0.06162
3438.95288,0.06129
3437.02414,0.06112
3435.09539,0.06117
3433.16665,0.06118
3431.23790,0.06114
3429.30916,0.06097
3427.38041,0.06070
3425.45167,0.06069
3423.52292,0.06092
3421.59418,0.06098
3419.66543,0.06064
3417.73668,0.06021
3415.80794,0.06015
3413.87919,0.06041
3411.95045,0.06049
3410.02170,0.06020
3408.09296,0.05996
3406.16421,0.06002
3404.23547,0.06013
3402.30672,0.06006
3400.37798,0.05976
3398.44923,0.05949
3396.52049,0.05950
3394.59174,0.05965
3392.66300,0.05988
3390.73425,0.06038
3388.80550,0.06084
3386.87676,0.06085
3384.94801,0.06054
3383.01927,0.06024
3381.09052,0.06010
3379.16178,0.06028
3377.23303,0.06075
3375.30429,0.06112
3373.37554,0.06124
3371.44680,0.06140
3369.51805,0.06160
3367.58931,0.06160
3365.66056,0.06138
3363.73182,0.06115
3361.80307,0.06111
3359.87433,0.06129
3357.94558,0.06159
3356.01683,0.06182
3354.08809,0.06187
3352.15934,0.06176
3350.23060,0.06165
3348.30185,0.06169
3346.37311,0.06181
3344.44436,0.06204
3342.51562,0.06236
3340.58687,0.06253
3338.65813,0.06254
3336.72938,0.06253
3334.80064,0.06249
3332.87189,0.06239
3330.94315,0.06230
3329.01440,0.06249
3327.08566,0.06275
3325.15691,0.06269
3323.22816,0.06254
3321.29942,0.06270
3319.37067,0.06307
3317.44193,0.06334
3315.51318,0.06330
3313.58444,0.06318
3311.65569,0.06332
3309.72695,0.06353
3307.79820,0.06353
3305.86946,0.06351
3303.94071,0.06361
3302.01197,0.06375
3300.08322,0.06382
3298.15448,0.06375
3296.22573,0.06365
3294.29698,0.06358
3292.36824,0.06350
3290.43949,0.06357
3288.51075,0.06373
3286.58200,0.06379
3284.65326,0.06399
3282.72451,0.06435
3280.79577,0.06455
3278.86702,0.06461
3276.93828,0.06473
3275.00953,0.06475
3273.08079,0.06462
3271.15204,0.06454
3269.22330,0.06439
3267.29455,0.06405
3265.36581,0.06390
3263.43706,0.06430
3261.50831,0.06499
3259.57957,0.06541
3257.65082,0.06550
3255.72208,0.06549
3253.79333,0.06541
3251.86459,0.06536
3249.93584,0.06556
3248.00710,0.06605
3246.07835,0.06655
3244.14961,0.06681
3242.22086,0.06673
3240.29212,0.06628
3238.36337,0.06586
3236.43463,0.06587
3234.50588,0.06624
3232.57713,0.06665
3230.64839,0.06691
3228.71964,0.06675
3226.79090,0.06633
3224.86215,0.06624
3222.93341,0.06646
3221.00466,0.06658
3219.07592,0.06668
3217.14717,0.06693
3215.21843,0.06725
3213.28968,0.06758
3211.36094,0.06788
3209.43219,0.06815
3207.50345,0.06839
3205.57470,0.06849
3203.64596,0.06856
3201.71721,0.06868
3199.78846,0.06895
3197.85972,0.06939
3195.93097,0.06966
3194.00223,0.06959
3192.07348,0.06947
3190.14474,0.06957
3188.21599,0.06983
3186.28725,0.07018
3184.35850,0.07043
3182.42976,0.07034
3180.50101,0.07021
3178.57227,0.07043
3176.64352,0.07079
3174.71478,0.07096
3172.78603,0.07094
3170.85729,0.07108
3168.92854,0.07160
3166.99979,0.07213
3165.07105,0.07245
3163.14230,0.07263
3161.21356,0.07263
3159.28481,0.07269
3157.35607,0.07318
3155.42732,0.07375
3153.49858,0.07403
3151.56983,0.07413
3149.64109,0.07412
3147.71234,0.07398
3145.78360,0.07389
3143.85485,0.07400
3141.92611,0.07421
3139.99736,0.07447
3138.06861,0.07480
3136.13987,0.07510
3134.21112,0.07540
3132.28238,0.07554
3130.35363,0.07552
3128.42489,0.07568
3126.49614,0.07607
3124.56740,0.07641
3122.63865,0.07649
3120.70991,0.07640
3118.78116,0.07645
3116.85242,0.07668
3114.92367,0.07703
3112.99493,0.07738
3111.06618,0.07749
3109.13744,0.07751
3107.20869,0.07766
3105.27994,0.07786
3103.35120,0.07799
3101.42245,0.07796
3099.49371,0.07775
3097.56496,0.07762
3095.63622,0.07776
3093.70747,0.07811
3091.77873,0.07838
3089.84998,0.07855
3087.92124,0.07873
3085.99249,0.07881
3084.06375,0.07889
3082.13500,0.07918
3080.20626,0.07940
3078.27751,0.07946
3076.34877,0.07955
3074.42002,0.07961
3072.49127,0.07966
3070.56253,0.07972
3068.63378,0.07962
3066.70504,0.07941
3064.77629,0.07936
3062.84755,0.07952
3060.91880,0.07960
3058.99006,0.07956
3057.06131,0.07966
3055.13257,0.07977
3053.20382,0.07964
3051.27508,0.07934
3049.34633,0.07905
3047.41759,0.07887
3045.48884,0.07876
3043.56009,0.07846
3041.63135,0.07794
3039.70260,0.07733
3037.77386,0.07659
3035.84511,0.07573
3033.91637,0.07493
3031.98762,0.07406
3030.05888,0.07295
3028.13013,0.07196
3026.20139,0.07143
3024.27264,0.07118
3022.34390,0.07103
3020.41515,0.07093
3018.48641,0.07072
3016.55766,0.07055
3014.62892,0.07078
3012.70017,0.07124
3010.77142,0.07143
3008.84268,0.07125
3006.91393,0.07110
3004.98519,0.07121
3003.05644,0.07123
3001.12770,0.07106
2999.19895,0.07090
2997.27021,0.07046
2995.34146,0.06963
2993.41272,0.06875
2991.48397,0.06803
2989.55523,0.06754
2987.62648,0.06730
2985.69774,0.06718
2983.76899,0.06716
2981.84025,0.06734
2979.91150,0.06769
2977.98275,0.06808
2976.05401,0.06836
2974.12526,0.06854
2972.19652,0.06872
2970.26777,0.06894
2968.33903,0.06919
2966.41028,0.06938
2964.48154,0.06950
2962.55279,0.06957
2960.62405,0.06958
2958.69530,0.06955
2956.76656,0.06950
2954.83781,0.06945
2952.90907,0.06954
2950.98032,0.06965
2949.05157,0.06969
2947.12283,0.06981
2945.19408,0.06987
2943.26534,0.06962
2941.33659,0.06928
2939.40785,0.06913
2937.47910,0.06926
2935.55036,0.06955
2933.62161,0.06977
2931.69287,0.06975
2929.76412,0.06945
2927.83538,0.06899
2925.90663,0.06880
2923.97789,0.06897
2922.04914,0.06911
2920.12040,0.06904
2918.19165,0.06894
2916.26290,0.06881
2914.33416,0.06853
2912.40541,0.06820
2910.47667,0.06804
2908.54792,0.06794
2906.61918,0.06771
2904.69043,0.06744
2902.76169,0.06727
2900.83294,0.06715
2898.90420,0.06702
2896.97545,0.06702
2895.04671,0.06720
2893.11796,0.06738
2891.18922,0.06730
2889.26047,0.06700
2887.33172,0.06673
2885.40298,0.06648
2883.47423,0.06623
2881.54549,0.06612
2879.61674,0.06618
2877.68800,0.06631
2875.75925,0.06639
2873.83051,0.06652
2871.90176,0.06679
2869.97302,0.06724
2868.04427,0.06799
2866.11553,0.06890
2864.18678,0.06981
2862.25804,0.07084
2860.32929,0.07182
2858.40055,0.07270
2856.47180,0.07378
2854.54305,0.07516
2852.61431,0.07664
2850.68556,0.07801
2848.75682,0.07939
2846.82807,0.08099
2844.89933,0.08259
2842.97058,0.08411
2841.04184,0.08589
2839.11309,0.08792
2837.18435,0.08972
2835.25560,0.09117
2833.32686,0.09259
2831.39811,0.09409
2829.46937,0.09532
2827.54062,0.09622
2825.61188,0.09707
2823.68313,0.09792
2821.75438,0.09853
2819.82564,0.09883
2817.89689,0.09908
2815.96815,0.09964
2814.03940,0.10055
2812.11066,0.10159
2810.18191,0.10257
2808.25317,0.10335
2806.32442,0.10398
2804.39568,0.10458
2802.46693,0.10517
2800.53819,0.10581
2798.60944,0.10642
2796.68070,0.10683
2794.75195,0.10726
2792.82320,0.10800
2790.89446,0.10885
2788.96571,0.10942
2787.03697,0.10982
2785.10822,0.11031
2783.17948,0.11085
2781.25073,0.11120
2779.32199,0.11131
2777.39324,0.11148
2775.46450,0.11178
2773.53575,0.11200
2771.60701,0.11231
2769.67826,0.11280
2767.74952,0.11320
2765.82077,0.11356
2763.89203,0.11393
2761.96328,0.11412
2760.03453,0.11419
2758.10579,0.11434
2756.17704,0.11465
2754.24830,0.11499
2752.31955,0.11521
2750.39081,0.11547
2748.46206,0.11581
2746.53332,0.11606
2744.60457,0.11617
2742.67583,0.11616
2740.74708,0.11625
2738.81834,0.11663
2736.88959,0.11709
2734.96085,0.11739
2733.03210,0.11742
2731.10336,0.11732
2729.17461,0.11739
2727.24586,0.11763
2725.31712,0.11782
2723.38837,0.11789
2721.45963,0.11774
2719.53088,0.11752
2717.60214,0.11754
2715.67339,0.11775
2713.74465,0.11779
2711.81590,0.11761
2709.88716,0.11742
2707.95841,0.11728
2706.02967,0.11715
2704.10092,0.11706
2702.17218,0.11695
2700.24343,0.11674
2698.31468,0.11651
2696.38594,0.11633
2694.45719,0.11624
2692.52845,0.11621
2690.59970,0.11607
2688.67096,0.11569
2686.74221,0.11524
2684.81347,0.11495
2682.88472,0.11472
2680.95598,0.11430
2679.02723,0.11378
2677.09849,0.11322
2675.16974,0.11259
2673.24100,0.11188
2671.31225,0.11093
2669.38351,0.10979
2667.45476,0.10851
2665.52601,0.10709
2663.59727,0.10572
2661.66852,0.10448
2659.73978,0.10326
2657.81103,0.10211
2655.88229,0.10110
2653.95354,0.10018
2652.02480,0.09917
2650.09605,0.09789
2648.16731,0.09652
2646.23856,0.09538
2644.30982,0.09435
2642.38107,0.09339
2640.45233,0.09248
2638.52358,0.09139
2636.59484,0.09013
2634.66609,0.08885
2632.73734,0.08758
2630.80860,0.08632
2628.87985,0.08520
2626.95111,0.08453
2625.02236,0.08429
2623.09362,0.08410
2621.16487,0.08389
2619.23613,0.08397
2617.30738,0.08427
2615.37864,0.08432
2613.44989,0.08405
2611.52115,0.08386
2609.59240,0.08397
2607.66366,0.08411
2605.73491,0.08394
2603.80616,0.08346
2601.87742,0.08286
2599.94867,0.08228
2598.01993,0.08164
2596.09118,0.08084
2594.16244,0.07986
2592.23369,0.07890
2590.30495,0.07818
2588.37620,0.07763
2586.44746,0.07712
2584.51871,0.07662
2582.58997,0.07611
2580.66122,0.07561
2578.73248,0.07522
2576.80373,0.07487
2574.87499,0.07459
2572.94624,0.07446
2571.01749,0.07433
2569.08875,0.07408
2567.16000,0.07374
2565.23126,0.07326
2563.30251,0.07268
2561.37377,0.07200
2559.44502,0.07124
2557.51628,0.07039
2555.58753,0.06949
2553.65879,0.06866
2551.73004,0.06804
2549.80130,0.06752
2547.87255,0.06698
2545.94381,0.06642
2544.01506,0.06583
2542.08631,0.06523
2540.15757,0.06456
2538.22882,0.06361
2536.30008,0.06259
2534.37133,0.06178
2532.44259,0.06088
2530.51384,0.05978
2528.58510,0.05884
2526.65635,0.05807
2524.72761,0.05726
2522.79886,0.05669
2520.87012,0.05662
2518.94137,0.05684
2517.01263,0.05716
2515.08388,0.05764
2513.15514,0.05840
2511.22639,0.05938
2509.29764,0.06058
2507.36890,0.06200
2505.44015,0.06348
2503.51141,0.06501
2501.58266,0.06683
2499.65392,0.06898
2497.72517,0.07123
2495.79643,0.07347
2493.86768,0.07578
2491.93894,0.07811
2490.01019,0.08041
2488.08145,0.08272
2486.15270,0.08488
2484.22396,0.08682
2482.29521,0.08881
2480.36647,0.09093
2478.43772,0.09303
2476.50897,0.09495
2474.58023,0.09665
2472.65148,0.09826
2470.72274,0.09982
2468.79399,0.10130
2466.86525,0.10267
2464.93650,0.10391
2463.00776,0.10506
2461.07901,0.10615
2459.15027,0.10723
2457.22152,0.10838
2455.29278,0.10949
2453.36403,0.11032
2451.43529,0.11091
2449.50654,0.11153
2447.57779,0.11224
2445.64905,0.11289
2443.72030,0.11352
2441.79156,0.11413
2439.86281,0.11460
2437.93407,0.11492
2436.00532,0.11511
2434.07658,0.11530
2432.14783,0.11562
2430.21909,0.11599
2428.29034,0.11627
2426.36160,0.11638
2424.43285,0.11641
2422.50411,0.11649
2420.57536,0.11666
2418.64662,0.11681
2416.71787,0.11698
2414.78912,0.11717
2412.86038,0.11726
2410.93163,0.11724
2409.00289,0.11737
2407.07414,0.11775
2405.14540,0.11817
2403.21665,0.11837
2401.28791,0.11838
2399.35916,0.11845
2397.43042,0.11877
2395.50167,0.11906
2393.57293,0.11907
2391.64418,0.11893
2389.71544,0.11888
2387.78669,0.11898
2385.85795,0.11911
2383.92920,0.11921
2382.00045,0.11917
2380.07171,0.11903
2378.14296,0.11896
2376.21422,0.11887
2374.28547,0.11860
2372.35673,0.11826
2370.42798,0.11802
2368.49924,0.11785
2366.57049,0.11768
2364.64175,0.11759
2362.71300,0.11749
2360.78426,0.11718
2358.85551,0.11678
2356.92677,0.11650
2354.99802,0.11637
2353.06927,0.11630
2351.14053,0.11619
2349.21178,0.11606
2347.28304,0.11581
2345.35429,0.11534
2343.42555,0.11479
2341.49680,0.11440
2339.56806,0.11409
2337.63931,0.11374
2335.71057,0.11345
2333.78182,0.11342
2331.85308,0.11354
2329.92433,0.11356
2327.99559,0.11342
2326.06684,0.11320
2324.13810,0.11299
2322.20935,0.11275
2320.28060,0.11254
2318.35186,0.11248
2316.42311,0.11255
2314.49437,0.11265
2312.56562,0.11272
2310.63688,0.11273
2308.70813,0.11280
2306.77939,0.11297
2304.85064,0.11315
2302.92190,0.11339
2300.99315,0.11382
2299.06441,0.11427
2297.13566,0.11449
2295.20692,0.11437
2293.27817,0.11406
2291.34943,0.11382
2289.42068,0.11371
2287.49193,0.11347
2285.56319,0.11307
2283.63444,0.11262
2281.70570,0.11211
2279.77695,0.11147
2277.84821,0.11070
2275.91946,0.10989
2273.99072,0.10930
2272.06197,0.10892
2270.13323,0.10836
2268.20448,0.10754
2266.27574,0.10688
2264.34699,0.10651
2262.41825,0.10616
2260.48950,0.10574
2258.56075,0.10521
2256.63201,0.10470
2254.70326,0.10436
2252.77452,0.10411
2250.84577,0.10380
2248.91703,0.10351
2246.98828,0.10335
2245.05954,0.10324
2243.13079,0.10313
2241.20205,0.10315
2239.27330,0.10339
2237.34456,0.10357
2235.41581,0.10358
2233.48707,0.10357
2231.55832,0.10359
2229.62958,0.10360
2227.70083,0.10353
2225.77208,0.10331
2223.84334,0.10310
2221.91459,0.10291
2219.98585,0.10252
2218.05710,0.10203
2216.12836,0.10167
2214.19961,0.10141
2212.27087,0.10116
2210.34212,0.10093
2208.41338,0.10077
2206.48463,0.10064
2204.55589,0.10052
2202.62714,0.10045
2200.69840,0.10034
2198.76965,0.10005
2196.84090,0.09973
2194.91216,0.09947
2192.98341,0.09914
2191.05467,0.09872
2189.12592,0.09830
2187.19718,0.09780
2185.26843,0.09730
2183.33969,0.09695
2181.41094,0.09659
2179.48220,0.09605
2177.55345,0.09544
2175.62471,0.09477
2173.69596,0.09406
2171.76722,0.09347
2169.83847,0.09306
2167.90973,0.09269
2165.98098,0.09232
2164.05223,0.09205
2162.12349,0.09185
2160.19474,0.09155
2158.26600,0.09113
2156.33725,0.09068
2154.40851,0.09025
2152.47976,0.08995
2150.55102,0.08979
2148.62227,0.08973
2146.69353,0.08976
2144.76478,0.08983
2142.83604,0.09001
2140.90729,0.09050
2138.97855,0.09122
2137.04980,0.09198
2135.12106,0.09269
2133.19231,0.09331
2131.26356,0.09396
2129.33482,0.09471
2127.40607,0.09546
2125.47733,0.09631
2123.54858,0.09730
2121.61984,0.09821
2119.69109,0.09891
2117.76235,0.09938
2115.83360,0.09971
2113.90486,0.10007
2111.97611,0.10048
2110.04737,0.10082
2108.11862,0.10113
2106.18988,0.10139
2104.26113,0.10149
2102.33238,0.10158
2100.40364,0.10188
2098.47489,0.10208
2096.54615,0.10196
2094.61740,0.10173
2092.68866,0.10164
2090.75991,0.10168
2088.83117,0.10173
2086.90242,0.10165
2084.97368,0.10139
2083.04493,0.10116
2081.11619,0.10109
2079.18744,0.10102
2077.25870,0.10084
2075.32995,0.10074
2073.40121,0.10072
2071.47246,0.10059
2069.54371,0.10042
2067.61497,0.10029
2065.68622,0.09996
2063.75748,0.09951
2061.82873,0.09920
2059.89999,0.09907
2057.97124,0.09892
2056.04250,0.09855
2054.11375,0.09806
2052.18501,0.09770
2050.25626,0.09748
2048.32752,0.09720
2046.39877,0.09679
2044.47003,0.09621
2042.54128,0.09556
2040.61254,0.09505
2038.68379,0.09471
2036.75504,0.09429
2034.82630,0.09380
2032.89755,0.09341
2030.96881,0.09309
2029.04006,0.09281
2027.11132,0.09251
2025.18257,0.09221
2023.25383,0.09201
2021.32508,0.09182
2019.39634,0.09150
2017.46759,0.09105
2015.53885,0.09055
2013.61010,0.09019
2011.68136,0.09001
2009.75261,0.08985
2007.82386,0.08963
2005.89512,0.08940
2003.96637,0.08916
2002.03763,0.08885
2000.10888,0.08848
1998.18014,0.08816
1996.25139,0.08798
1994.32265,0.08781
1992.39390,0.08752
1990.46516,0.08720
1988.53641,0.08695
1986.60767,0.08666
1984.67892,0.08625
1982.75018,0.08565
1980.82143,0.08484
1978.89269,0.08379
1976.96394,0.08278
1975.03519,0.08234
1973.10645,0.08257
1971.17770,0.08299
1969.24896,0.08326
1967.32021,0.08342
1965.39147,0.08333
1963.46272,0.08298
1961.53398,0.08277
1959.60523,0.08298
1957.67649,0.08336
1955.74774,0.08356
1953.81900,0.08358
1951.89025,0.08366
1949.96151,0.08387
1948.03276,0.08387
1946.10402,0.08344
1944.17527,0.08291
1942.24652,0.08272
1940.31778,0.08266
1938.38903,0.08232
1936.46029,0.08181
1934.53154,0.08140
1932.60280,0.08112
1930.67405,0.08092
1928.74531,0.08075
1926.81656,0.08047
1924.88782,0.08013
1922.95907,0.07979
1921.03033,0.07938
1919.10158,0.07878
1917.17284,0.07815
1915.24409,0.07766
1913.31534,0.07716
1911.38660,0.07659
1909.45785,0.07607
1907.52911,0.07558
1905.60036,0.07498
1903.67162,0.07417
1901.74287,0.07327
1899.81413,0.07245
1897.88538,0.07172
1895.95664,0.07104
1894.02789,0.07051
1892.09915,0.07018
1890.17040,0.06977
1888.24166,0.06914
1886.31291,0.06854
1884.38417,0.06811
1882.45542,0.06782
1880.52667,0.06765
1878.59793,0.06751
1876.66918,0.06716
1874.74044,0.06654
1872.81169,0.06596
1870.88295,0.06554
1868.95420,0.06518
1867.02546,0.06488
1865.09671,0.06463
1863.16797,0.06435
1861.23922,0.06405
1859.31048,0.06374
1857.38173,0.06343
1855.45299,0.06298
1853.52424,0.06243
1851.59549,0.06199
1849.66675,0.06157
1847.73800,0.06107
1845.80926,0.06050
1843.88051,0.05973
1841.95177,0.05874
1840.02302,0.05768
1838.09428,0.05656
1836.16553,0.05532
1834.23679,0.05398
1832.30804,0.05264
1830.37930,0.05128
1828.45055,0.04987
1826.52181,0.04848
1824.59306,0.04727
1822.66432,0.04633
1820.73557,0.04565
1818.80682,0.04517
1816.87808,0.04474
1814.94933,0.04423
1813.02059,0.04364
1811.09184,0.04299
1809.16310,0.04228
1807.23435,0.04162
1805.30561,0.04093
1803.37686,0.03990
1801.44812,0.03860
1799.51937,0.03754
1797.59063,0.03712
1795.66188,0.03719
1793.73314,0.03755
1791.80439,0.03826
1789.87565,0.03934
1787.94690,0.04070
1786.01815,0.04221
1784.08941,0.04350
1782.16066,0.04436
1780.23192,0.04498
1778.30317,0.04561
1776.37443,0.04624
1774.44568,0.04677
1772.51694,0.04718
1770.58819,0.04746
1768.65945,0.04765
1766.73070,0.04776
1764.80196,0.04775
1762.87321,0.04758
1760.94447,0.04729
1759.01572,0.04707
1757.08697,0.04707
1755.15823,0.04716
1753.22948,0.04709
1751.30074,0.04673
1749.37199,0.04619
1747.44325,0.04569
1745.51450,0.04541
1743.58576,0.04531
1741.65701,0.04518
1739.72827,0.04495
1737.79952,0.04483
1735.87078,0.04481
1733.94203,0.04466
1732.01329,0.04439
1730.08454,0.04421
1728.15580,0.04411
1726.22705,0.04401
1724.29830,0.04398
1722.36956,0.04403
1720.44081,0.04395
1718.51207,0.04364
1716.58332,0.04340
1714.65458,0.04321
1712.72583,0.04282
1710.79709,0.04235
1708.86834,0.04208
1706.93960,0.04194
1705.01085,0.04171
1703.08211,0.04140
1701.15336,0.04104
1699.22462,0.04061
1697.29587,0.04020
1695.36713,0.03982
1693.43838,0.03944
1691.50963,0.03904
1689.58089,0.03863
1687.65214,0.03847
1685.72340,0.03846
1683.79465,0.03825
1681.86591,0.03803
1679.93716,0.03785
1678.00842,0.03755
1676.07967,0.03737
1674.15093,0.03744
1672.22218,0.03749
1670.29344,0.03741
1668.36469,0.03727
1666.43595,0.03712
1664.50720,0.03699
1662.57845,0.03696
1660.64971,0.03700
1658.72096,0.03701
1656.79222,0.03698
1654.86347,0.03704
1652.93473,0.03718
1651.00598,0.03726
1649.07724,0.03730
1647.14849,0.03732
1645.21975,0.03724
1643.29100,0.03720
1641.36226,0.03742
1639.43351,0.03783
1637.50477,0.03834
1635.57602,0.03888
1633.64728,0.03936
1631.71853,0.03990
1629.78978,0.04060
1627.86104,0.04120
1625.93229,0.04159
1624.00355,0.04197
1622.07480,0.04256
1620.14606,0.04337
1618.21731,0.04422
1616.28857,0.04516
1614.35982,0.04628
1612.43108,0.04742
1610.50233,0.04836
1608.57359,0.04912
1606.64484,0.04990
1604.71610,0.05088
1602.78735,0.05221
1600.85861,0.05389
1598.92986,0.05569
1597.00111,0.05748
1595.07237,0.05949
1593.14362,0.06185
1591.21488,0.06450
1589.28613,0.06748
1587.35739,0.07087
1585.42864,0.07466
1583.49990,0.07891
1581.57115,0.08365
1579.64241,0.08869
1577.71366,0.09423
1575.78492,0.10035
1573.85617,0.10562
1571.92743,0.10937
1569.99868,0.11246
1568.06993,0.11511
1566.14119,0.11709
1564.21244,0.11857
1562.28370,0.11972
1560.35495,0.12064
1558.42621,0.12133
1556.49746,0.12176
1554.56872,0.12195
1552.63997,0.12173
1550.71123,0.12097
1548.78248,0.11994
1546.85374,0.11894
1544.92499,0.11807
1542.99625,0.11719
1541.06750,0.11609
1539.13876,0.11476
1537.21001,0.11363
1535.28126,0.11279
1533.35252,0.11190
1531.42377,0.11090
1529.49503,0.11006
1527.56628,0.10931
1525.63754,0.10848
1523.70879,0.10762
1521.78005,0.10673
1519.85130,0.10587
1517.92256,0.10520
1515.99381,0.10458
1514.06507,0.10380
1512.13632,0.10290
1510.20758,0.10211
1508.27883,0.10147
1506.35008,0.10071
1504.42134,0.09984
1502.49259,0.09910
1500.56385,0.09844
1498.63510,0.09773
1496.70636,0.09685
1494.77761,0.09600
1492.84887,0.09554
1490.92012,0.09528
1488.99138,0.09490
1487.06263,0.09439
1485.13389,0.09386
1483.20514,0.09346
1481.27640,0.09323
1479.34765,0.09297
1477.41891,0.09265
1475.49016,0.09241
1473.56141,0.09216
1471.63267,0.09163
1469.70392,0.09095
1467.77518,0.09046
1465.84643,0.09016
1463.91769,0.08985
1461.98894,0.08953
1460.06020,0.08939
1458.13145,0.08933
1456.20271,0.08903
1454.27396,0.08850
1452.34522,0.08796
1450.41647,0.08757
1448.48773,0.08738
1446.55898,0.08730
1444.63024,0.08728
1442.70149,0.08737
1440.77274,0.08747
1438.84400,0.08740
1436.91525,0.08722
1434.98651,0.08728
1433.05776,0.08755
1431.12902,0.08781
1429.20027,0.08804
1427.27153,0.08821
1425.34278,0.08816
1423.41404,0.08773
1421.48529,0.08688
1419.55655,0.08576
1417.62780,0.08463
1415.69906,0.08362
1413.77031,0.08261
1411.84156,0.08170
1409.91282,0.08097
1407.98407,0.08019
1406.05533,0.07906
1404.12658,0.07752
1402.19784,0.07604
1400.26909,0.07501
1398.34035,0.07423
1396.41160,0.07353
1394.48286,0.07289
1392.55411,0.07227
1390.62537,0.07168
1388.69662,0.07127
1386.76788,0.07112
1384.83913,0.07112
1382.91039,0.07119
1380.98164,0.07132
1379.05289,0.07155
1377.12415,0.07187
1375.19540,0.07227
1373.26666,0.07276
1371.33791,0.07328
1369.40917,0.07387
1367.48042,0.07463
1365.55168,0.07553
1363.62293,0.07644
1361.69419,0.07728
1359.76544,0.07808
1357.83670,0.07882
1355.90795,0.07959
1353.97921,0.08040
1352.05046,0.08099
1350.12172,0.08133
1348.19297,0.08164
1346.26422,0.08194
1344.33548,0.08219
1342.40673,0.08249
1340.47799,0.08274
1338.54924,0.08291
1336.62050,0.08320
1334.69175,0.08359
1332.76301,0.08395
1330.83426,0.08423
1328.90552,0.08452
1326.97677,0.08491
1325.04803,0.08530
1323.11928,0.08560
1321.19054,0.08588
1319.26179,0.08607
1317.33304,0.08614
1315.40430,0.08624
1313.47555,0.08648
1311.54681,0.08682
1309.61806,0.08716
1307.68932,0.08735
1305.76057,0.08750
1303.83183,0.08777
1301.90308,0.08798
1299.97434,0.08808
1298.04559,0.08830
1296.11685,0.08864
1294.18810,0.08896
1292.25936,0.08930
1290.33061,0.08970
1288.40187,0.08996
1286.47312,0.08997
1284.54437,0.08993
1282.61563,0.09004
1280.68688,0.09028
1278.75814,0.09065
1276.82939,0.09118
1274.90065,0.09164
1272.97190,0.09177
1271.04316,0.09161
1269.11441,0.09135
1267.18567,0.09114
1265.25692,0.09114
1263.32818,0.09137
1261.39943,0.09168
1259.47069,0.09199
1257.54194,0.09234
1255.61320,0.09273
1253.68445,0.09311
1251.75570,0.09331
1249.82696,0.09323
1247.89821,0.09299
1245.96947,0.09277
1244.04072,0.09273
1242.11198,0.09297
1240.18323,0.09332
1238.25449,0.09351
1236.32574,0.09363
1234.39700,0.09383
1232.46825,0.09417
1230.53951,0.09463
1228.61076,0.09509
1226.68202,0.09542
1224.75327,0.09563
1222.82452,0.09581
1220.89578,0.09597
1218.96703,0.09595
1217.03829,0.09550
1215.10954,0.09470
1213.18080,0.09383
1211.25205,0.09289
1209.32331,0.09173
1207.39456,0.09050
1205.46582,0.08923
1203.53707,0.08771
1201.60833,0.08622
1199.67958,0.08494
1197.75084,0.08342
1195.82209,0.08162
1193.89335,0.08005
1191.96460,0.07879
1190.03585,0.07769
1188.10711,0.07687
1186.17836,0.07620
1184.24962,0.07544
1182.32087,0.07465
1180.39213,0.07410
1178.46338,0.07382
1176.53464,0.07347
1174.60589,0.07278
1172.67715,0.07200
1170.74840,0.07132
1168.81966,0.07067
1166.89091,0.07009
1164.96217,0.06932
1163.03342,0.06797
1161.10467,0.06638
1159.17593,0.06547
1157.24718,0.06587
1155.31844,0.06715
1153.38969,0.06836
1151.46095,0.06905
1149.53220,0.06937
1147.60346,0.06955
1145.67471,0.06976
1143.74597,0.07005
1141.81722,0.07035
1139.88848,0.07054
1137.95973,0.07051
1136.03099,0.07032
1134.10224,0.07030
1132.17350,0.07052
1130.24475,0.07056
1128.31600,0.07021
1126.38726,0.06976
1124.45851,0.06954
1122.52977,0.06962
1120.60102,0.06977
1118.67228,0.06969
1116.74353,0.06934
1114.81479,0.06893
1112.88604,0.06882
1110.95730,0.06892
1109.02855,0.06884
1107.09981,0.06858
1105.17106,0.06830
1103.24232,0.06807
1101.31357,0.06803
1099.38483,0.06802
1097.45608,0.06796
1095.52733,0.06800
1093.59859,0.06810
1091.66984,0.06804
1089.74110,0.06801
1087.81235,0.06814
1085.88361,0.06830
1083.95486,0.06844
1082.02612,0.06862
1080.09737,0.06884
1078.16863,0.06892
1076.23988,0.06861
1074.31114,0.06804
1072.38239,0.06746
1070.45365,0.06686
1068.52490,0.06607
1066.59615,0.06484
1064.66741,0.06324
1062.73866,0.06180
1060.80992,0.06089
1058.88117,0.06018
1056.95243,0.05923
1055.02368,0.05811
1053.09494,0.05716
1051.16619,0.05655
1049.23745,0.05602
1047.30870,0.05521
1045.37996,0.05420
1043.45121,0.05337
1041.52247,0.05289
1039.59372,0.05267
1037.66498,0.05257
1035.73623,0.05252
1033.80748,0.05240
1031.87874,0.05203
1029.94999,0.05152
1028.02125,0.05106
1026.09250,0.05055
1024.16376,0.05018
1022.23501,0.05018
1020.30627,0.05026
1018.37752,0.05009
1016.44878,0.04990
1014.52003,0.05009
1012.59129,0.05049
1010.66254,0.05065
1008.73380,0.05049
1006.80505,0.05010
1004.87631,0.04981
1002.94756,0.04987
1001.01881,0.05006
999.09007,0.05018
997.16132,0.05009
995.23258,0.04992
993.30383,0.04989
991.37509,0.04997
989.44634,0.05017
987.51760,0.05043
985.58885,0.05057
983.66011,0.05080
981.73136,0.05119
979.80262,0.05143
977.87387,0.05145
975.94513,0.05152
974.01638,0.05179
972.08763,0.05232
970.15889,0.05286
968.23014,0.05313
966.30140,0.05332
964.37265,0.05386
962.44391,0.05457
960.51516,0.05502
958.58642,0.05535
956.65767,0.05570
954.72893,0.05602
952.80018,0.05637
950.87144,0.05665
948.94269,0.05678
947.01395,0.05692
945.08520,0.05720
943.15646,0.05753
941.22771,0.05767
939.29896,0.05763
937.37022,0.05762
935.44147,0.05761
933.51273,0.05748
931.58398,0.05746
929.65524,0.05775
927.72649,0.05808
925.79775,0.05833
923.86900,0.05869
921.94026,0.05907
920.01151,0.05923
918.08277,0.05922
916.15402,0.05930
914.22528,0.05957
912.29653,0.06009
910.36779,0.06086
908.43904,0.06189
906.51029,0.06348
904.58155,0.06591
902.65280,0.06913
900.72406,0.07307
898.79531,0.07705
896.86657,0.07962
894.93782,0.07985
893.00908,0.07800
891.08033,0.07516
889.15159,0.07229
887.22284,0.06921
885.29410,0.06571
883.36535,0.06265
881.43661,0.06068
879.50786,0.05939
877.57911,0.05820
875.65037,0.05721
873.72162,0.05661
871.79288,0.05621
869.86413,0.05605
867.93539,0.05627
866.00664,0.05665
864.07790,0.05677
862.14915,0.05650
860.22041,0.05591
858.29166,0.05507
856.36292,0.05388
854.43417,0.05261
852.50543,0.05197
850.57668,0.05193
848.64794,0.05194
846.71919,0.05228
844.79044,0.05303
842.86170,0.05343
840.93295,0.05312
839.00421,0.05241
837.07546,0.05188
835.14672,0.05188
833.21797,0.05190
831.28923,0.05148
829.36048,0.05094
827.43174,0.05047
825.50299,0.04998
823.57425,0.04946
821.64550,0.04909
819.71676,0.04914
817.78801,0.04943
815.85926,0.04961
813.93052,0.04969
812.00177,0.04985
810.07303,0.05007
808.14428,0.05023
806.21554,0.05058
804.28679,0.05142
802.35805,0.05227
800.42930,0.05228
798.50056,0.05164
796.57181,0.05114
794.64307,0.05101
792.71432,0.05112
790.78558,0.05143
788.85683,0.05192
786.92809,0.05238
784.99934,0.05260
783.07059,0.05254
781.14185,0.05224
779.21310,0.05185
777.28436,0.05155
775.35561,0.05125
773.42687,0.05092
771.49812,0.05059
769.56938,0.05013
767.64063,0.04952
765.71189,0.04863
763.78314,0.04758
761.85440,0.04691
759.92565,0.04678
757.99691,0.04686
756.06816,0.04698
754.13942,0.04681
752.21067,0.04590
750.28192,0.04485
748.35318,0.04452
746.42443,0.04427
744.49569,0.04334
742.56694,0.04205
740.63820,0.04087
738.70945,0.03977
736.78071,0.03855
734.85196,0.03723
732.92322,0.03621
730.99447,0.03623
729.06573,0.03720
727.13698,0.03815
725.20824,0.03869
723.27949,0.03916
721.35074,0.03945
719.42200,0.03908
717.49325,0.03813
715.56451,0.03735
713.63576,0.03773
711.70702,0.03923
709.77827,0.04039
707.84953,0.04065
705.92078,0.04062
703.99204,0.04053
702.06329,0.04050
700.13455,0.04080
698.20580,0.04151
696.27706,0.04234
694.34831,0.04268
692.41957,0.04234
690.49082,0.04185
688.56207,0.04181
686.63333,0.04217
684.70458,0.04211
682.77584,0.04151
680.84709,0.04111
678.91835,0.04091
676.98960,0.04095
675.06086,0.04145
673.13211,0.04190
671.20337,0.04175
669.27462,0.04119
667.34588,0.04079
665.41713,0.04072
663.48839,0.04051
661.55964,0.04014
659.63090,0.03986
657.70215,0.03945
655.77340,0.03891
653.84466,0.03856
651.91591,0.03855
649.98717,0.03882
648.05842,0.03910
646.12968,0.03904
644.20093,0.03852
642.27219,0.03787
640.34344,0.03709
638.41470,0.03619
636.48595,0.03582
634.55721,0.03561
632.62846,0.03456
630.69972,0.03327
628.77097,0.03315
626.84222,0.03377
624.91348,0.03387
622.98473,0.03443
621.05599,0.03636
619.12724,0.03766
617.19850,0.03676
615.26975,0.03532
613.34101,0.03493
611.41226,0.03512
609.48352,0.03506
607.55477,0.03474
605.62603,0.03450
603.69728,0.03371
601.76854,0.03260
599.83979,0.03297
