7497.03301,0.01968
7495.10426,0.02012
7493.17552,0.02316
7491.24677,0.02604
7489.31803,0.02732
7487.38928,0.02786
7485.46054,0.02594
7483.53179,0.02276
7481.60305,0.02036
7479.67430,0.01909
7477.74556,0.02011
7475.81681,0.02296
7473.88807,0.02470
7471.95932,0.02435
7470.03057,0.02319
7468.10183,0.02601
7466.17308,0.03094
7464.24434,0.02980
7462.31559,0.02278
7460.38685,0.01827
7458.45810,0.01617
7456.52936,0.01582
7454.60061,0.01871
7452.67187,0.02323
7450.74312,0.02402
7448.81438,0.02132
7446.88563,0.02053
7444.95689,0.02336
7443.02814,0.02350
7441.09940,0.01902
7439.17065,0.01481
7437.24190,0.01281
7435.31316,0.01242
7433.38441,0.01351
7431.45567,0.01667
7429.52692,0.02222
7427.59818,0.02451
7425.66943,0.02044
7423.74069,0.01508
7421.81194,0.01563
7419.88320,0.02204
7417.95445,0.02694
7416.02571,0.02811
7414.09696,0.02814
7412.16822,0.02769
7410.23947,0.02745
7408.31073,0.02557
7406.38198,0.02209
7404.45323,0.01962
7402.52449,0.02076
7400.59574,0.02390
7398.66700,0.02426
7396.73825,0.02165
7394.80951,0.02325
7392.88076,0.02868
7390.95202,0.03000
7389.02327,0.02525
7387.09453,0.01922
7385.16578,0.01552
7383.23704,0.01629
7381.30829,0.01888
7379.37955,0.02018
7377.45080,0.02107
7375.52205,0.02099
7373.59331,0.01857
7371.66456,0.02063
7369.73582,0.02864
7367.80707,0.03225
7365.87833,0.02742
7363.94958,0.02418
7362.02084,0.02716
7360.09209,0.02848
7358.16335,0.02551
7356.23460,0.02492
7354.30586,0.02526
7352.37711,0.02303
7350.44837,0.02083
7348.51962,0.01893
7346.59088,0.01566
7344.66213,0.01428
7342.73338,0.01558
7340.80464,0.01496
7338.87589,0.01315
7336.94715,0.01521
7335.01840,0.01985
7333.08966,0.02358
7331.16091,0.02618
7329.23217,0.02732
7327.30342,0.02672
7325.37468,0.02489
7323.44593,0.01949
7321.51719,0.01209
7319.58844,0.00983
7317.65970,0.01450
7315.73095,0.02000
7313.80221,0.02174
7311.87346,0.02259
7309.94471,0.02386
7308.01597,0.02388
7306.08722,0.02487
7304.15848,0.02526
7302.22973,0.02118
7300.30099,0.01601
7298.37224,0.01465
7296.44350,0.01698
7294.51475,0.02008
7292.58601,0.02208
7290.65726,0.02418
7288.72852,0.02613
7286.79977,0.02694
7284.87103,0.02696
7282.94228,0.02745
7281.01353,0.02755
7279.08479,0.02726
7277.15604,0.02581
7275.22730,0.02348
7273.29855,0.02201
7271.36981,0.02295
7269.44106,0.02320
7267.51232,0.02151
7265.58357,0.02081
7263.65483,0.02032
7261.72608,0.01764
7259.79734,0.01686
7257.86859,0.01834
7255.93985,0.01658
7254.01110,0.01366
7252.08236,0.01480
7250.15361,0.01761
7248.22486,0.02075
7246.29612,0.02380
7244.36737,0.02348
7242.43863,0.01976
7240.50988,0.01838
7238.58114,0.02087
7236.65239,0.02493
7234.72365,0.02754
7232.79490,0.02666
7230.86616,0.02416
7228.93741,0.02350
7227.00867,0.02348
7225.07992,0.02516
7223.15118,0.02821
7221.22243,0.02871
7219.29369,0.02599
7217.36494,0.02270
7215.43619,0.01958
7213.50745,0.01942
7211.57870,0.02238
7209.64996,0.02372
7207.72121,0.02129
7205.79247,0.01940
7203.86372,0.02087
7201.93498,0.02447
7200.00623,0.02450
7198.07749,0.01989
7196.14874,0.01816
7194.22000,0.02282
7192.29125,0.02599
7190.36251,0.02398
7188.43376,0.01982
7186.50501,0.01632
7184.57627,0.01668
7182.64752,0.01954
7180.71878,0.02041
7178.79003,0.02224
7176.86129,0.02647
7174.93254,0.02740
7173.00380,0.02572
7171.07505,0.02559
7169.14631,0.02356
7167.21756,0.02034
7165.28882,0.02089
7163.36007,0.02295
7161.43133,0.02347
7159.50258,0.02314
7157.57384,0.02165
7155.64509,0.01967
7153.71634,0.01770
7151.78760,0.01824
7149.85885,0.02243
7147.93011,0.02697
7146.00136,0.02463
7144.07262,0.01848
7142.14387,0.01659
7140.21513,0.01897
7138.28638,0.02109
7136.35764,0.02218
7134.42889,0.02304
7132.50015,0.02314
7130.57140,0.02425
7128.64266,0.02619
7126.71391,0.02404
7124.78516,0.02024
7122.85642,0.02059
7120.92767,0.02268
7118.99893,0.02266
7117.07018,0.02193
7115.14144,0.02125
7113.21269,0.02036
7111.28395,0.01890
7109.35520,0.01852
7107.42646,0.02069
7105.49771,0.02337
7103.56897,0.02148
7101.64022,0.01642
7099.71148,0.01445
7097.78273,0.01672
7095.85399,0.01876
7093.92524,0.01935
7091.99649,0.01933
7090.06775,0.01977
7088.13900,0.02132
7086.21026,0.02441
7084.28151,0.02638
7082.35277,0.02513
7080.42402,0.02227
7078.49528,0.02068
7076.56653,0.02110
7074.63779,0.02218
7072.70904,0.02153
7070.78030,0.01921
7068.85155,0.01879
7066.92281,0.02142
7064.99406,0.02208
7063.06532,0.01920
7061.13657,0.01639
7059.20782,0.01637
7057.27908,0.01802
7055.35033,0.01869
7053.42159,0.01754
7051.49284,0.01600
7049.56410,0.01530
7047.63535,0.01678
7045.70661,0.01994
7043.77786,0.02274
7041.84912,0.02370
7039.92037,0.02361
7037.99163,0.02277
7036.06288,0.02101
7034.13414,0.01875
7032.20539,0.01863
7030.27664,0.01932
7028.34790,0.02064
7026.41915,0.02409
7024.49041,0.02648
7022.56166,0.02451
7020.63292,0.01976
7018.70417,0.01562
7016.77543,0.01573
7014.84668,0.01940
7012.91794,0.02299
7010.98919,0.02564
7009.06045,0.02729
7007.13170,0.02565
7005.20296,0.02207
7003.27421,0.02022
7001.34547,0.01994
6999.41672,0.01938
6997.48797,0.01923
6995.55923,0.01984
6993.63048,0.02040
6991.70174,0.02149
6989.77299,0.02298
6987.84425,0.02295
6985.91550,0.02047
6983.98676,0.01641
6982.05801,0.01504
6980.12927,0.01880
6978.20052,0.02350
6976.27178,0.02371
6974.34303,0.02043
6972.41429,0.01762
6970.48554,0.01750
6968.55680,0.01936
6966.62805,0.02076
6964.69930,0.02123
6962.77056,0.02137
6960.84181,0.01845
6958.91307,0.01427
6956.98432,0.01545
6955.05558,0.02054
6953.12683,0.02207
6951.19809,0.02008
6949.26934,0.01891
6947.34060,0.01973
6945.41185,0.02063
6943.48311,0.02129
6941.55436,0.02157
6939.62562,0.02293
6937.69687,0.02637
6935.76812,0.02849
6933.83938,0.02654
6931.91063,0.02330
6929.98189,0.02263
6928.05314,0.02391
6926.12440,0.02323
6924.19565,0.02168
6922.26691,0.02270
6920.33816,0.02449
6918.40942,0.02373
6916.48067,0.02230
6914.55193,0.02304
6912.62318,0.02461
6910.69444,0.02337
6908.76569,0.02027
6906.83695,0.02011
6904.90820,0.02303
6902.97945,0.02412
6901.05071,0.02227
6899.12196,0.02062
6897.19322,0.02062
6895.26447,0.02107
6893.33573,0.02191
6891.40698,0.02145
6889.47824,0.01924
6887.54949,0.01964
6885.62075,0.02282
6883.69200,0.02424
6881.76326,0.02275
6879.83451,0.02046
6877.90577,0.01969
6875.97702,0.02038
6874.04828,0.02057
6872.11953,0.01974
6870.19078,0.01913
6868.26204,0.01870
6866.33329,0.01858
6864.40455,0.01950
6862.47580,0.02001
6860.54706,0.01779
6858.61831,0.01432
6856.68957,0.01312
6854.76082,0.01635
6852.83208,0.02097
6850.90333,0.02367
6848.97459,0.02286
6847.04584,0.01983
6845.11710,0.01762
6843.18835,0.01694
6841.25960,0.01679
6839.33086,0.01761
6837.40211,0.01877
6835.47337,0.01948
6833.54462,0.02005
6831.61588,0.01952
6829.68713,0.01652
6827.75839,0.01315
6825.82964,0.01223
6823.90090,0.01357
6821.97215,0.01508
6820.04341,0.01659
6818.11466,0.01859
6816.18592,0.02018
6814.25717,0.02045
6812.32843,0.02054
6810.39968,0.02189
6808.47093,0.02283
6806.54219,0.02224
6804.61344,0.02215
6802.68470,0.02236
6800.75595,0.02059
6798.82721,0.01778
6796.89846,0.01737
6794.96972,0.01880
6793.04097,0.01848
6791.11223,0.01663
6789.18348,0.01644
6787.25474,0.01902
6785.32599,0.02306
6783.39725,0.02551
6781.46850,0.02472
6779.53975,0.02214
6777.61101,0.01981
6775.68226,0.01827
6773.75352,0.01603
6771.82477,0.01289
6769.89603,0.01234
6767.96728,0.01598
6766.03854,0.02027
6764.10979,0.02197
6762.18105,0.02191
6760.25230,0.02144
6758.32356,0.02152
6756.39481,0.02260
6754.46607,0.02368
6752.53732,0.02210
6750.60858,0.01961
6748.67983,0.01840
6746.75108,0.01929
6744.82234,0.02162
6742.89359,0.02371
6740.96485,0.02450
6739.03610,0.02477
6737.10736,0.02377
6735.17861,0.02079
6733.24987,0.01804
6731.32112,0.01779
6729.39238,0.01915
6727.46363,0.02063
6725.53489,0.02160
6723.60614,0.02163
6721.67740,0.02120
6719.74865,0.02094
6717.81991,0.01983
6715.89116,0.01921
6713.96241,0.02101
6712.03367,0.02324
6710.10492,0.02355
6708.17618,0.02323
6706.24743,0.02439
6704.31869,0.02740
6702.38994,0.02892
6700.46120,0.02732
6698.53245,0.02465
6696.60371,0.02264
6694.67496,0.02142
6692.74622,0.01991
6690.81747,0.01841
6688.88873,0.01957
6686.95998,0.02149
6685.03123,0.02084
6683.10249,0.01844
6681.17374,0.01728
6679.24500,0.01866
6677.31625,0.02077
6675.38751,0.02137
6673.45876,0.02116
6671.53002,0.02065
6669.60127,0.01858
6667.67253,0.01672
6665.74378,0.01836
6663.81504,0.02087
6661.88629,0.02139
6659.95755,0.02074
6658.02880,0.02051
6656.10006,0.02218
6654.17131,0.02464
6652.24256,0.02348
6650.31382,0.01929
6648.38507,0.01686
6646.45633,0.01665
6644.52758,0.01632
6642.59884,0.01577
6640.67009,0.01622
6638.74135,0.01769
6636.81260,0.01999
6634.88386,0.02302
6632.95511,0.02490
6631.02637,0.02490
6629.09762,0.02382
6627.16888,0.02235
6625.24013,0.02131
6623.31139,0.02120
6621.38264,0.02068
6619.45389,0.01966
6617.52515,0.01947
6615.59640,0.01953
6613.66766,0.01983
6611.73891,0.02176
6609.81017,0.02418
6607.88142,0.02474
6605.95268,0.02224
6604.02393,0.01939
6602.09519,0.01998
6600.16644,0.02328
6598.23770,0.02532
6596.30895,0.02411
6594.38021,0.02056
6592.45146,0.01738
6590.52271,0.01664
6588.59397,0.01732
6586.66522,0.01725
6584.73648,0.01781
6582.80773,0.02040
6580.87899,0.02312
6578.95024,0.02353
6577.02150,0.02227
6575.09275,0.02057
6573.16401,0.01942
6571.23526,0.01945
6569.30652,0.01995
6567.37777,0.01974
6565.44903,0.01900
6563.52028,0.01765
6561.59154,0.01629
6559.66279,0.01716
6557.73404,0.02043
6555.80530,0.02258
6553.87655,0.02178
6551.94781,0.02050
6550.01906,0.02029
6548.09032,0.01969
6546.16157,0.01869
6544.23283,0.01933
6542.30408,0.02054
6540.37534,0.01968
6538.44659,0.01864
6536.51785,0.02009
6534.58910,0.02216
6532.66036,0.02209
6530.73161,0.02004
6528.80287,0.01856
6526.87412,0.01982
6524.94537,0.02148
6523.01663,0.02078
6521.08788,0.01844
6519.15914,0.01676
6517.23039,0.01634
6515.30165,0.01625
6513.37290,0.01658
6511.44416,0.01858
6509.51541,0.02135
6507.58667,0.02304
6505.65792,0.02271
6503.72918,0.02096
6501.80043,0.01971
6499.87169,0.01919
6497.94294,0.01870
6496.01419,0.01786
6494.08545,0.01580
6492.15670,0.01486
6490.22796,0.01643
6488.29921,0.01802
6486.37047,0.01866
6484.44172,0.01881
6482.51298,0.01780
6480.58423,0.01733
6478.65549,0.01890
6476.72674,0.02065
6474.79800,0.02110
6472.86925,0.02114
6470.94051,0.02080
6469.01176,0.01972
6467.08302,0.01805
6465.15427,0.01698
6463.22552,0.01646
6461.29678,0.01709
6459.36803,0.01806
6457.43929,0.01828
6455.51054,0.01880
6453.58180,0.01949
6451.65305,0.01864
6449.72431,0.01800
6447.79556,0.01932
6445.86682,0.02100
6443.93807,0.02171
6442.00933,0.02169
6440.08058,0.02123
6438.15184,0.02089
6436.22309,0.02154
6434.29434,0.02294
6432.36560,0.02309
6430.43685,0.02224
6428.50811,0.02164
6426.57936,0.02120
6424.65062,0.02119
6422.72187,0.02104
6420.79313,0.01877
6418.86438,0.01587
6416.93564,0.01495
6415.00689,0.01573
6413.07815,0.01675
6411.14940,0.01781
6409.22066,0.01896
6407.29191,0.02005
6405.36317,0.02064
6403.43442,0.02073
6401.50567,0.02038
6399.57693,0.01983
6397.64818,0.01996
6395.71944,0.02065
6393.79069,0.02047
6391.86195,0.01968
6389.93320,0.01990
6388.00446,0.02114
6386.07571,0.02133
6384.14697,0.01958
6382.21822,0.01778
6380.28948,0.01783
6378.36073,0.01924
6376.43199,0.02069
6374.50324,0.02134
6372.57450,0.02142
6370.64575,0.02171
6368.71700,0.02159
6366.78826,0.02024
6364.85951,0.01948
6362.93077,0.01994
6361.00202,0.01898
6359.07328,0.01662
6357.14453,0.01608
6355.21579,0.01696
6353.28704,0.01784
6351.35830,0.01972
6349.42955,0.02197
6347.50081,0.02250
6345.57206,0.02200
6343.64332,0.02180
6341.71457,0.02153
6339.78582,0.02070
6337.85708,0.01966
6335.92833,0.01949
6333.99959,0.02048
6332.07084,0.02093
6330.14210,0.02012
6328.21335,0.01888
6326.28461,0.01794
6324.35586,0.01722
6322.42712,0.01693
6320.49837,0.01699
6318.56963,0.01712
6316.64088,0.01826
6314.71214,0.02043
6312.78339,0.02152
6310.85465,0.02115
6308.92590,0.02081
6306.99715,0.02138
6305.06841,0.02248
6303.13966,0.02282
6301.21092,0.02158
6299.28217,0.01985
6297.35343,0.01830
6295.42468,0.01661
6293.49594,0.01561
6291.56719,0.01618
6289.63845,0.01782
6287.70970,0.01948
6285.78096,0.01992
6283.85221,0.01952
6281.92347,0.01998
6279.99472,0.02111
6278.06598,0.02122
6276.13723,0.01973
6274.20848,0.01712
6272.27974,0.01582
6270.35099,0.01703
6268.42225,0.01754
6266.49350,0.01581
6264.56476,0.01514
6262.63601,0.01655
6260.70727,0.01742
6258.77852,0.01678
6256.84978,0.01684
6254.92103,0.01801
6252.99229,0.01835
6251.06354,0.01748
6249.13480,0.01736
6247.20605,0.01863
6245.27730,0.01981
6243.34856,0.02009
6241.41981,0.02038
6239.49107,0.02059
6237.56232,0.01986
6235.63358,0.01840
6233.70483,0.01719
6231.77609,0.01640
6229.84734,0.01631
6227.91860,0.01737
6225.98985,0.01875
6224.06111,0.01887
6222.13236,0.01885
6220.20362,0.01932
6218.27487,0.01884
6216.34613,0.01901
6214.41738,0.02094
6212.48863,0.02161
6210.55989,0.02059
6208.63114,0.01979
6206.70240,0.01949
6204.77365,0.01878
6202.84491,0.01828
6200.91616,0.01921
6198.98742,0.02084
6197.05867,0.02191
6195.12993,0.02181
6193.20118,0.02006
6191.27244,0.01698
6189.34369,0.01409
6187.41495,0.01316
6185.48620,0.01400
6183.55746,0.01628
6181.62871,0.01896
6179.69996,0.01926
6177.77122,0.01738
6175.84247,0.01648
6173.91373,0.01752
6171.98498,0.01949
6170.05624,0.02120
6168.12749,0.02170
6166.19875,0.02047
6164.27000,0.01914
6162.34126,0.01960
6160.41251,0.02158
6158.48377,0.02332
6156.55502,0.02274
6154.62628,0.02015
6152.69753,0.01800
6150.76878,0.01714
6148.84004,0.01722
6146.91129,0.01811
6144.98255,0.01950
6143.05380,0.02100
6141.12506,0.02158
6139.19631,0.02024
6137.26757,0.01876
6135.33882,0.01845
6133.41008,0.01862
6131.48133,0.01891
6129.55259,0.01853
6127.62384,0.01730
6125.69510,0.01730
6123.76635,0.01885
6121.83761,0.01959
6119.90886,0.01801
6117.98011,0.01498
6116.05137,0.01290
6114.12262,0.01388
6112.19388,0.01677
6110.26513,0.01872
6108.33639,0.01890
6106.40764,0.01839
6104.47890,0.01826
6102.55015,0.01889
6100.62141,0.01983
6098.69266,0.02031
6096.76392,0.02008
6094.83517,0.01960
6092.90643,0.01983
6090.97768,0.02137
6089.04893,0.02221
6087.12019,0.02133
6085.19144,0.02047
6083.26270,0.01994
6081.33395,0.01857
6079.40521,0.01719
6077.47646,0.01694
6075.54772,0.01827
6073.61897,0.01987
6071.69023,0.01928
6069.76148,0.01704
6067.83274,0.01598
6065.90399,0.01662
6063.97525,0.01764
6062.04650,0.01812
6060.11776,0.01813
6058.18901,0.01802
6056.26026,0.01805
6054.33152,0.01798
6052.40277,0.01743
6050.47403,0.01679
6048.54528,0.01639
6046.61654,0.01661
6044.68779,0.01717
6042.75905,0.01653
6040.83030,0.01519
6038.90156,0.01516
6036.97281,0.01649
6035.04407,0.01745
6033.11532,0.01717
6031.18658,0.01682
6029.25783,0.01732
6027.32909,0.01793
6025.40034,0.01807
6023.47159,0.01801
6021.54285,0.01788
6019.61410,0.01775
6017.68536,0.01829
6015.75661,0.01976
6013.82787,0.02078
6011.89912,0.02029
6009.97038,0.01953
6008.04163,0.01997
6006.11289,0.02124
6004.18414,0.02135
6002.25540,0.01994
6000.32665,0.01847
5998.39791,0.01785
5996.46916,0.01891
5994.54041,0.02061
5992.61167,0.02045
5990.68292,0.01935
5988.75418,0.01899
5986.82543,0.01895
5984.89669,0.01830
5982.96794,0.01690
5981.03920,0.01594
5979.11045,0.01643
5977.18171,0.01666
5975.25296,0.01607
5973.32422,0.01671
5971.39547,0.01827
5969.46673,0.01905
5967.53798,0.01994
5965.60924,0.02157
5963.68049,0.02313
5961.75174,0.02336
5959.82300,0.02138
5957.89425,0.01870
5955.96551,0.01758
5954.03676,0.01746
5952.10802,0.01734
5950.17927,0.01762
5948.25053,0.01812
5946.32178,0.01811
5944.39304,0.01757
5942.46429,0.01728
5940.53555,0.01828
5938.60680,0.01988
5936.67806,0.02046
5934.74931,0.01994
5932.82057,0.01891
5930.89182,0.01789
5928.96307,0.01766
5927.03433,0.01769
5925.10558,0.01726
5923.17684,0.01729
5921.24809,0.01853
5919.31935,0.01959
5917.39060,0.01923
5915.46186,0.01824
5913.53311,0.01804
5911.60437,0.01809
5909.67562,0.01782
5907.74688,0.01846
5905.81813,0.01994
5903.88939,0.02048
5901.96064,0.02014
5900.03189,0.01968
5898.10315,0.01878
5896.17440,0.01814
5894.24566,0.01903
5892.31691,0.02059
5890.38817,0.02173
5888.45942,0.02221
5886.53068,0.02175
5884.60193,0.02050
5882.67319,0.01932
5880.74444,0.01809
5878.81570,0.01705
5876.88695,0.01667
5874.95821,0.01697
5873.02946,0.01775
5871.10072,0.01883
5869.17197,0.01950
5867.24322,0.01907
5865.31448,0.01830
5863.38573,0.01868
5861.45699,0.01946
5859.52824,0.01957
5857.59950,0.01977
5855.67075,0.02034
5853.74201,0.02018
5851.81326,0.01950
5849.88452,0.01925
5847.95577,0.01887
5846.02703,0.01869
5844.09828,0.01930
5842.16954,0.01917
5840.24079,0.01743
5838.31205,0.01525
5836.38330,0.01450
5834.45455,0.01596
5832.52581,0.01850
5830.59706,0.02016
5828.66832,0.02014
5826.73957,0.01913
5824.81083,0.01817
5822.88208,0.01816
5820.95334,0.01874
5819.02459,0.01850
5817.09585,0.01799
5815.16710,0.01827
5813.23836,0.01832
5811.30961,0.01773
5809.38087,0.01823
5807.45212,0.01982
5805.52337,0.02013
5803.59463,0.01924
5801.66588,0.01921
5799.73714,0.01952
5797.80839,0.01906
5795.87965,0.01853
5793.95090,0.01864
5792.02216,0.01927
5790.09341,0.01970
5788.16467,0.01915
5786.23592,0.01839
5784.30718,0.01837
5782.37843,0.01836
5780.44969,0.01809
5778.52094,0.01854
5776.59220,0.01967
5774.66345,0.02068
5772.73470,0.02120
5770.80596,0.02120
5768.87721,0.02050
5766.94847,0.01943
5765.01972,0.01902
5763.09098,0.01944
5761.16223,0.01953
5759.23349,0.01898
5757.30474,0.01842
5755.37600,0.01822
5753.44725,0.01836
5751.51851,0.01899
5749.58976,0.01944
5747.66102,0.01886
5745.73227,0.01780
5743.80352,0.01733
5741.87478,0.01746
5739.94603,0.01741
5738.01729,0.01721
5736.08854,0.01721
5734.15980,0.01715
5732.23105,0.01698
5730.30231,0.01712
5728.37356,0.01818
5726.44482,0.01935
5724.51607,0.01883
5722.58733,0.01718
5720.65858,0.01650
5718.72984,0.01714
5716.80109,0.01800
5714.87235,0.01816
5712.94360,0.01790
5711.01485,0.01812
5709.08611,0.01869
5707.15736,0.01893
5705.22862,0.01868
5703.29987,0.01819
5701.37113,0.01798
5699.44238,0.01771
5697.51364,0.01748
5695.58489,0.01812
5693.65615,0.01894
5691.72740,0.01948
5689.79866,0.01971
5687.86991,0.01892
5685.94117,0.01832
5684.01242,0.01874
5682.08368,0.01867
5680.15493,0.01785
5678.22618,0.01749
5676.29744,0.01796
5674.36869,0.01888
5672.43995,0.01934
5670.51120,0.01905
5668.58246,0.01893
5666.65371,0.01890
5664.72497,0.01865
5662.79622,0.01888
5660.86748,0.01941
5658.93873,0.01953
5657.00999,0.01982
5655.08124,0.02077
5653.15250,0.02132
5651.22375,0.02043
5649.29500,0.01906
5647.36626,0.01886
5645.43751,0.01967
5643.50877,0.01978
5641.58002,0.01896
5639.65128,0.01845
5637.72253,0.01854
5635.79379,0.01856
5633.86504,0.01792
5631.93630,0.01755
5630.00755,0.01844
5628.07881,0.01961
5626.15006,0.02028
5624.22132,0.02086
5622.29257,0.02119
5620.36383,0.02082
5618.43508,0.01983
5616.50633,0.01867
5614.57759,0.01797
5612.64884,0.01845
5610.72010,0.01940
5608.79135,0.01947
5606.86261,0.01852
5604.93386,0.01770
5603.00512,0.01817
5601.07637,0.01891
5599.14763,0.01838
5597.21888,0.01767
5595.29014,0.01809
5593.36139,0.01912
5591.43265,0.02001
5589.50390,0.02022
5587.57516,0.01940
5585.64641,0.01798
5583.71766,0.01713
5581.78892,0.01784
5579.86017,0.01922
5577.93143,0.01981
5576.00268,0.01968
5574.07394,0.01917
5572.14519,0.01860
5570.21645,0.01839
5568.28770,0.01839
5566.35896,0.01852
5564.43021,0.01894
5562.50147,0.01965
5560.57272,0.02010
5558.64398,0.01999
5556.71523,0.01978
5554.78648,0.01993
5552.85774,0.02014
5550.92899,0.01987
5549.00025,0.01940
5547.07150,0.01915
5545.14276,0.01844
5543.21401,0.01741
5541.28527,0.01721
5539.35652,0.01766
5537.42778,0.01865
5535.49903,0.02017
5533.57029,0.02074
5531.64154,0.02009
5529.71280,0.01964
5527.78405,0.01969
5525.85531,0.01964
5523.92656,0.01920
5521.99781,0.01844
5520.06907,0.01787
5518.14032,0.01792
5516.21158,0.01833
5514.28283,0.01902
5512.35409,0.01990
5510.42534,0.01998
5508.49660,0.01956
5506.56785,0.01966
5504.63911,0.01954
5502.71036,0.01875
5500.78162,0.01816
5498.85287,0.01810
5496.92413,0.01844
5494.99538,0.01901
5493.06664,0.01941
5491.13789,0.01949
5489.20914,0.01917
5487.28040,0.01864
5485.35165,0.01863
5483.42291,0.01892
5481.49416,0.01896
5479.56542,0.01917
5477.63667,0.01937
5475.70793,0.01900
5473.77918,0.01871
5471.85044,0.01913
5469.92169,0.01977
5467.99295,0.01985
5466.06420,0.01950
5464.13546,0.01919
5462.20671,0.01877
5460.27796,0.01845
5458.34922,0.01864
5456.42047,0.01870
5454.49173,0.01840
5452.56298,0.01865
5450.63424,0.01955
5448.70549,0.02047
5446.77675,0.02082
5444.84800,0.01989
5442.91926,0.01837
5440.99051,0.01792
5439.06177,0.01867
5437.13302,0.01940
5435.20428,0.01957
5433.27553,0.01929
5431.34679,0.01883
5429.41804,0.01835
5427.48929,0.01777
5425.56055,0.01738
5423.63180,0.01757
5421.70306,0.01826
5419.77431,0.01907
5417.84557,0.01936
5415.91682,0.01905
5413.98808,0.01878
5412.05933,0.01883
5410.13059,0.01894
5408.20184,0.01915
5406.27310,0.01932
5404.34435,0.01887
5402.41561,0.01828
5400.48686,0.01858
5398.55811,0.01917
5396.62937,0.01932
5394.70062,0.01929
5392.77188,0.01907
5390.84313,0.01823
5388.91439,0.01728
5386.98564,0.01725
5385.05690,0.01774
5383.12815,0.01774
5381.19941,0.01776
5379.27066,0.01837
5377.34192,0.01870
5375.41317,0.01859
5373.48443,0.01860
5371.55568,0.01845
5369.62694,0.01793
5367.69819,0.01745
5365.76944,0.01749
5363.84070,0.01790
5361.91195,0.01829
5359.98321,0.01847
5358.05446,0.01845
5356.12572,0.01866
5354.19697,0.01891
5352.26823,0.01872
5350.33948,0.01864
5348.41074,0.01904
5346.48199,0.01983
5344.55325,0.02030
5342.62450,0.01989
5340.69576,0.01946
5338.76701,0.01963
5336.83827,0.02000
5334.90952,0.02010
5332.98077,0.01962
5331.05203,0.01868
5329.12328,0.01788
5327.19454,0.01763
5325.26579,0.01823
5323.33705,0.01923
5321.40830,0.01954
5319.47956,0.01912
5317.55081,0.01869
5315.62207,0.01846
5313.69332,0.01818
5311.76458,0.01801
5309.83583,0.01840
5307.90709,0.01891
5305.97834,0.01887
5304.04959,0.01865
5302.12085,0.01871
5300.19210,0.01906
5298.26336,0.01953
5296.33461,0.01971
5294.40587,0.01909
5292.47712,0.01783
5290.54838,0.01701
5288.61963,0.01763
5286.69089,0.01881
5284.76214,0.01922
5282.83340,0.01897
5280.90465,0.01855
5278.97591,0.01809
5277.04716,0.01773
5275.11842,0.01760
5273.18967,0.01796
5271.26092,0.01847
5269.33218,0.01850
5267.40343,0.01827
5265.47469,0.01856
5263.54594,0.01960
5261.61720,0.02023
5259.68845,0.01908
5257.75971,0.01732
5255.83096,0.01659
5253.90222,0.01702
5251.97347,0.01819
5250.04473,0.01940
5248.11598,0.02001
5246.18724,0.02011
5244.25849,0.02016
5242.32975,0.02069
5240.40100,0.02100
5238.47225,0.02013
5236.54351,0.01907
5234.61476,0.01901
5232.68602,0.01940
5230.75727,0.01962
5228.82853,0.01987
5226.89978,0.01985
5224.97104,0.01891
5223.04229,0.01769
5221.11355,0.01736
5219.18480,0.01770
5217.25606,0.01796
5215.32731,0.01842
5213.39857,0.01925
5211.46982,0.01970
5209.54107,0.01920
5207.61233,0.01807
5205.68358,0.01742
5203.75484,0.01781
5201.82609,0.01871
5199.89735,0.01927
5197.96860,0.01933
5196.03986,0.01933
5194.11111,0.01920
5192.18237,0.01874
5190.25362,0.01820
5188.32488,0.01783
5186.39613,0.01822
5184.46739,0.01947
5182.53864,0.02035
5180.60990,0.02008
5178.68115,0.01933
5176.75240,0.01899
5174.82366,0.01920
5172.89491,0.01962
5170.96617,0.01982
5169.03742,0.01961
5167.10868,0.01932
5165.17993,0.01927
5163.25119,0.01949
5161.32244,0.02018
5159.39370,0.02079
5157.46495,0.02067
5155.53621,0.02014
5153.60746,0.01932
5151.67872,0.01854
5149.74997,0.01866
5147.82123,0.01933
5145.89248,0.01965
5143.96373,0.01959
5142.03499,0.01958
5140.10624,0.01949
5138.17750,0.01874
5136.24875,0.01773
5134.32001,0.01745
5132.39126,0.01818
5130.46252,0.01909
5128.53377,0.01921
5126.60503,0.01847
5124.67628,0.01762
5122.74754,0.01720
5120.81879,0.01717
5118.89005,0.01771
5116.96130,0.01907
5115.03255,0.02021
5113.10381,0.02000
5111.17506,0.01929
5109.24632,0.01932
5107.31757,0.01983
5105.38883,0.02008
5103.46008,0.01971
5101.53134,0.01888
5099.60259,0.01837
5097.67385,0.01871
5095.74510,0.01964
5093.81636,0.02017
5091.88761,0.01969
5089.95887,0.01901
5088.03012,0.01909
5086.10138,0.01946
5084.17263,0.01948
5082.24388,0.01952
5080.31514,0.01963
5078.38639,0.01962
5076.45765,0.01975
5074.52890,0.01984
5072.60016,0.01966
5070.67141,0.01933
5068.74267,0.01859
5066.81392,0.01774
5064.88518,0.01789
5062.95643,0.01901
5061.02769,0.02013
5059.09894,0.02064
5057.17020,0.02024
5055.24145,0.01927
5053.31270,0.01864
5051.38396,0.01865
5049.45521,0.01899
5047.52647,0.01945
5045.59772,0.01961
5043.66898,0.01914
5041.74023,0.01863
5039.81149,0.01881
5037.88274,0.01933
5035.95400,0.01955
5034.02525,0.01965
5032.09651,0.01976
5030.16776,0.01952
5028.23902,0.01917
5026.31027,0.01926
5024.38153,0.01944
5022.45278,0.01906
5020.52403,0.01851
5018.59529,0.01872
5016.66654,0.01952
5014.73780,0.02005
5012.80905,0.01995
5010.88031,0.01955
5008.95156,0.01949
5007.02282,0.01967
5005.09407,0.01969
5003.16533,0.01991
5001.23658,0.02011
4999.30784,0.01962
4997.37909,0.01912
4995.45035,0.01923
4993.52160,0.01936
4991.59286,0.01917
4989.66411,0.01906
4987.73536,0.01923
4985.80662,0.01955
4983.87787,0.01993
4981.94913,0.01985
4980.02038,0.01916
4978.09164,0.01862
4976.16289,0.01878
4974.23415,0.01938
4972.30540,0.01979
4970.37666,0.01977
4968.44791,0.01946
4966.51917,0.01909
4964.59042,0.01906
4962.66168,0.01929
4960.73293,0.01936
4958.80418,0.01916
4956.87544,0.01907
4954.94669,0.01941
4953.01795,0.01966
4951.08920,0.01944
4949.16046,0.01921
4947.23171,0.01911
4945.30297,0.01893
4943.37422,0.01874
4941.44548,0.01851
4939.51673,0.01823
4937.58799,0.01789
4935.65924,0.01747
4933.73050,0.01728
4931.80175,0.01762
4929.87301,0.01847
4927.94426,0.01914
4926.01551,0.01908
4924.08677,0.01883
4922.15802,0.01890
4920.22928,0.01886
4918.30053,0.01854
4916.37179,0.01840
4914.44304,0.01849
4912.51430,0.01869
4910.58555,0.01927
4908.65681,0.01974
4906.72806,0.01959
4904.79932,0.01935
4902.87057,0.01924
4900.94183,0.01901
4899.01308,0.01894
4897.08434,0.01931
4895.15559,0.01940
4893.22684,0.01891
4891.29810,0.01853
4889.36935,0.01857
4887.44061,0.01885
4885.51186,0.01910
4883.58312,0.01898
4881.65437,0.01876
4879.72563,0.01886
4877.79688,0.01893
4875.86814,0.01849
4873.93939,0.01813
4872.01065,0.01847
4870.08190,0.01883
4868.15316,0.01885
4866.22441,0.01898
4864.29566,0.01902
4862.36692,0.01865
4860.43817,0.01843
4858.50943,0.01875
4856.58068,0.01930
4854.65194,0.01960
4852.72319,0.01941
4850.79445,0.01908
4848.86570,0.01888
4846.93696,0.01859
4845.00821,0.01851
4843.07947,0.01888
4841.15072,0.01912
4839.22198,0.01895
4837.29323,0.01859
4835.36449,0.01810
4833.43574,0.01778
4831.50699,0.01793
4829.57825,0.01840
4827.64950,0.01894
4825.72076,0.01954
4823.79201,0.01987
4821.86327,0.01970
4819.93452,0.01951
4818.00578,0.01951
4816.07703,0.01948
4814.14829,0.01953
4812.21954,0.01944
4810.29080,0.01935
4808.36205,0.01971
4806.43331,0.02012
4804.50456,0.02016
4802.57582,0.02015
4800.64707,0.02010
4798.71832,0.01985
4796.78958,0.01964
4794.86083,0.01968
4792.93209,0.01981
4791.00334,0.01984
4789.07460,0.01982
4787.14585,0.01979
4785.21711,0.01960
4783.28836,0.01950
4781.35962,0.01973
4779.43087,0.01972
4777.50213,0.01916
4775.57338,0.01877
4773.64464,0.01882
4771.71589,0.01903
4769.78714,0.01938
4767.85840,0.01945
4765.92965,0.01904
4764.00091,0.01873
4762.07216,0.01880
4760.14342,0.01903
4758.21467,0.01906
4756.28593,0.01870
4754.35718,0.01842
4752.42844,0.01855
4750.49969,0.01870
4748.57095,0.01878
4746.64220,0.01902
4744.71346,0.01918
4742.78471,0.01902
4740.85597,0.01878
4738.92722,0.01856
4736.99847,0.01826
4735.06973,0.01815
4733.14098,0.01852
4731.21224,0.01941
4729.28349,0.02045
4727.35475,0.02091
4725.42600,0.02072
4723.49726,0.02025
4721.56851,0.01992
4719.63977,0.01987
4717.71102,0.01988
4715.78228,0.01972
4713.85353,0.01941
4711.92479,0.01907
4709.99604,0.01876
4708.06729,0.01854
4706.13855,0.01880
4704.20980,0.01939
4702.28106,0.01956
4700.35231,0.01961
4698.42357,0.01989
4696.49482,0.01981
4694.56608,0.01956
4692.63733,0.01980
4690.70859,0.02033
4688.77984,0.02039
4686.85110,0.01995
4684.92235,0.01956
4682.99361,0.01924
4681.06486,0.01865
4679.13612,0.01816
4677.20737,0.01836
4675.27862,0.01912
4673.34988,0.01968
4671.42113,0.01975
4669.49239,0.01972
4667.56364,0.01972
4665.63490,0.01955
4663.70615,0.01935
4661.77741,0.01934
4659.84866,0.01931
4657.91992,0.01909
4655.99117,0.01892
4654.06243,0.01875
4652.13368,0.01851
4650.20494,0.01866
4648.27619,0.01916
4646.34745,0.01936
4644.41870,0.01927
4642.48995,0.01921
4640.56121,0.01910
4638.63246,0.01907
4636.70372,0.01929
4634.77497,0.01920
4632.84623,0.01865
4630.91748,0.01833
4628.98874,0.01863
4627.05999,0.01920
4625.13125,0.01966
4623.20250,0.01983
4621.27376,0.01966
4619.34501,0.01939
4617.41627,0.01932
4615.48752,0.01930
4613.55877,0.01913
4611.63003,0.01878
4609.70128,0.01846
4607.77254,0.01858
4605.84379,0.01894
4603.91505,0.01883
4601.98630,0.01870
4600.05756,0.01921
4598.12881,0.01979
4596.20007,0.01976
4594.27132,0.01940
4592.34258,0.01905
4590.41383,0.01892
4588.48509,0.01928
4586.55634,0.01978
4584.62760,0.01991
4582.69885,0.01986
4580.77010,0.01987
4578.84136,0.01997
4576.91261,0.02008
4574.98387,0.02010
4573.05512,0.02001
4571.12638,0.01964
4569.19763,0.01915
4567.26889,0.01916
4565.34014,0.01964
4563.41140,0.01997
4561.48265,0.01977
4559.55391,0.01918
4557.62516,0.01862
4555.69642,0.01842
4553.76767,0.01859
4551.83893,0.01892
4549.91018,0.01919
4547.98143,0.01934
4546.05269,0.01944
4544.12394,0.01968
4542.19520,0.01995
4540.26645,0.01982
4538.33771,0.01928
4536.40896,0.01889
4534.48022,0.01914
4532.55147,0.01961
4530.62273,0.01961
4528.69398,0.01919
4526.76524,0.01875
4524.83649,0.01858
4522.90775,0.01867
4520.97900,0.01885
4519.05025,0.01934
4517.12151,0.01980
4515.19276,0.01957
4513.26402,0.01913
4511.33527,0.01910
4509.40653,0.01938
4507.47778,0.01973
4505.54904,0.01966
4503.62029,0.01911
4501.69155,0.01865
4499.76280,0.01863
4497.83406,0.01901
4495.90531,0.01937
4493.97657,0.01918
4492.04782,0.01873
4490.11908,0.01864
4488.19033,0.01889
4486.26158,0.01925
4484.33284,0.01964
4482.40409,0.01976
4480.47535,0.01940
4478.54660,0.01892
4476.61786,0.01892
4474.68911,0.01946
4472.76037,0.02011
4470.83162,0.02048
4468.90288,0.02028
4466.97413,0.01978
4465.04539,0.01965
4463.11664,0.01985
4461.18790,0.01994
4459.25915,0.01978
4457.33041,0.01926
4455.40166,0.01865
4453.47291,0.01860
4451.54417,0.01898
4449.61542,0.01915
4447.68668,0.01907
4445.75793,0.01901
4443.82919,0.01914
4441.90044,0.01942
4439.97170,0.01952
4438.04295,0.01942
4436.11421,0.01954
4434.18546,0.01988
4432.25672,0.01998
4430.32797,0.01968
4428.39923,0.01938
4426.47048,0.01943
4424.54173,0.01938
4422.61299,0.01901
4420.68424,0.01888
4418.75550,0.01914
4416.82675,0.01938
4414.89801,0.01939
4412.96926,0.01939
4411.04052,0.01955
4409.11177,0.01957
4407.18303,0.01931
4405.25428,0.01904
4403.32554,0.01895
4401.39679,0.01887
4399.46805,0.01875
4397.53930,0.01880
4395.61056,0.01904
4393.68181,0.01914
4391.75306,0.01912
4389.82432,0.01933
4387.89557,0.01979
4385.96683,0.02010
4384.03808,0.01991
4382.10934,0.01944
4380.18059,0.01935
4378.25185,0.01971
4376.32310,0.01980
4374.39436,0.01932
4372.46561,0.01896
4370.53687,0.01918
4368.60812,0.01956
4366.67938,0.01955
4364.75063,0.01943
4362.82189,0.01965
4360.89314,0.01973
4358.96439,0.01930
4357.03565,0.01887
4355.10690,0.01880
4353.17816,0.01902
4351.24941,0.01928
4349.32067,0.01938
4347.39192,0.01947
4345.46318,0.01954
4343.53443,0.01935
4341.60569,0.01910
4339.67694,0.01918
4337.74820,0.01955
4335.81945,0.01980
4333.89071,0.01958
4331.96196,0.01919
4330.03321,0.01923
4328.10447,0.01944
4326.17572,0.01930
4324.24698,0.01904
4322.31823,0.01907
4320.38949,0.01933
4318.46074,0.01963
4316.53200,0.01967
4314.60325,0.01921
4312.67451,0.01872
4310.74576,0.01864
4308.81702,0.01879
4306.88827,0.01913
4304.95953,0.01934
4303.03078,0.01917
4301.10204,0.01908
4299.17329,0.01925
4297.24454,0.01953
4295.31580,0.02004
4293.38705,0.02030
4291.45831,0.01983
4289.52956,0.01916
4287.60082,0.01882
4285.67207,0.01872
4283.74333,0.01866
4281.81458,0.01877
4279.88584,0.01911
4277.95709,0.01930
4276.02835,0.01909
4274.09960,0.01878
4272.17086,0.01861
4270.24211,0.01859
4268.31336,0.01885
4266.38462,0.01921
4264.45587,0.01939
4262.52713,0.01944
4260.59838,0.01945
4258.66964,0.01964
4256.74089,0.02009
4254.81215,0.02026
4252.88340,0.01968
4250.95466,0.01879
4249.02591,0.01850
4247.09717,0.01892
4245.16842,0.01933
4243.23968,0.01932
4241.31093,0.01916
4239.38219,0.01914
4237.45344,0.01908
4235.52469,0.01878
4233.59595,0.01855
4231.66720,0.01872
4229.73846,0.01908
4227.80971,0.01931
4225.88097,0.01944
4223.95222,0.01937
4222.02348,0.01896
4220.09473,0.01858
4218.16599,0.01855
4216.23724,0.01865
4214.30850,0.01884
4212.37975,0.01917
4210.45101,0.01935
4208.52226,0.01927
4206.59352,0.01919
4204.66477,0.01912
4202.73602,0.01895
4200.80728,0.01892
4198.87853,0.01934
4196.94979,0.01968
4195.02104,0.01943
4193.09230,0.01901
4191.16355,0.01908
4189.23481,0.01977
4187.30606,0.02038
4185.37732,0.02041
4183.44857,0.02018
4181.51983,0.02007
4179.59108,0.01994
4177.66234,0.01982
4175.73359,0.02000
4173.80484,0.02020
4171.87610,0.02003
4169.94735,0.01974
4168.01861,0.01954
4166.08986,0.01937
4164.16112,0.01937
4162.23237,0.01943
4160.30363,0.01926
4158.37488,0.01907
4156.44614,0.01914
4154.51739,0.01926
4152.58865,0.01924
4150.65990,0.01921
4148.73116,0.01926
4146.80241,0.01935
4144.87367,0.01942
4142.94492,0.01946
4141.01617,0.01947
4139.08743,0.01959
4137.15868,0.01982
4135.22994,0.01990
4133.30119,0.01972
4131.37245,0.01951
4129.44370,0.01941
4127.51496,0.01946
4125.58621,0.01969
4123.65747,0.02005
4121.72872,0.02026
4119.79998,0.02015
4117.87123,0.02004
4115.94249,0.02007
4114.01374,0.01992
4112.08500,0.01951
4110.15625,0.01924
4108.22750,0.01941
4106.29876,0.01979
4104.37001,0.01998
4102.44127,0.01986
4100.51252,0.01961
4098.58378,0.01948
4096.65503,0.01965
4094.72629,0.01977
4092.79754,0.01959
4090.86880,0.01935
4088.94005,0.01926
4087.01131,0.01935
4085.08256,0.01952
4083.15382,0.01956
4081.22507,0.01952
4079.29632,0.01959
4077.36758,0.01957
4075.43883,0.01923
4073.51009,0.01892
4071.58134,0.01888
4069.65260,0.01904
4067.72385,0.01928
4065.79511,0.01941
4063.86636,0.01947
4061.93762,0.01964
4060.00887,0.01979
4058.08013,0.01978
4056.15138,0.01979
4054.22264,0.01991
4052.29389,0.01985
4050.36515,0.01952
4048.43640,0.01931
4046.50765,0.01928
4044.57891,0.01916
4042.65016,0.01904
4040.72142,0.01908
4038.79267,0.01930
4036.86393,0.01944
4034.93518,0.01924
4033.00644,0.01896
4031.07769,0.01912
4029.14895,0.01962
4027.22020,0.02005
4025.29146,0.02007
4023.36271,0.01972
4021.43397,0.01955
4019.50522,0.01975
4017.57648,0.01977
4015.64773,0.01952
4013.71898,0.01938
4011.79024,0.01940
4009.86149,0.01945
4007.93275,0.01959
4006.00400,0.01977
4004.07526,0.01983
4002.14651,0.01973
4000.21777,0.01959
3998.28902,0.01954
3996.36028,0.01953
3994.43153,0.01957
3992.50279,0.01977
3990.57404,0.01992
3988.64530,0.01980
3986.71655,0.01960
3984.78780,0.01956
3982.85906,0.01951
3980.93031,0.01913
3979.00157,0.01858
3977.07282,0.01844
3975.14408,0.01885
3973.21533,0.01939
3971.28659,0.01976
3969.35784,0.01985
3967.42910,0.01956
3965.50035,0.01914
3963.57161,0.01910
3961.64286,0.01945
3959.71412,0.01979
3957.78537,0.01980
3955.85663,0.01963
3953.92788,0.01952
3951.99913,0.01948
3950.07039,0.01967
3948.14164,0.01998
3946.21290,0.01991
3944.28415,0.01957
3942.35541,0.01952
3940.42666,0.01956
3938.49792,0.01923
3936.56917,0.01884
3934.64043,0.01887
3932.71168,0.01911
3930.78294,0.01926
3928.85419,0.01944
3926.92545,0.01961
3924.99670,0.01963
3923.06795,0.01959
3921.13921,0.01963
3919.21046,0.01971
3917.28172,0.01969
3915.35297,0.01939
3913.42423,0.01919
3911.49548,0.01953
3909.56674,0.02008
3907.63799,0.02018
3905.70925,0.01989
3903.78050,0.01968
3901.85176,0.01962
3899.92301,0.01946
3897.99427,0.01923
3896.06552,0.01925
3894.13678,0.01958
3892.20803,0.01974
3890.27928,0.01949
3888.35054,0.01927
3886.42179,0.01924
3884.49305,0.01919
3882.56430,0.01911
3880.63556,0.01915
3878.70681,0.01949
3876.77807,0.02001
3874.84932,0.02030
3872.92058,0.02020
3870.99183,0.01983
3869.06309,0.01962
3867.13434,0.01982
3865.20560,0.01988
3863.27685,0.01947
3861.34811,0.01912
3859.41936,0.01922
3857.49061,0.01961
3855.56187,0.01991
3853.63312,0.01973
3851.70438,0.01937
3849.77563,0.01937
3847.84689,0.01951
3845.91814,0.01958
3843.98940,0.01981
3842.06065,0.02012
3840.13191,0.02018
3838.20316,0.02003
3836.27442,0.01985
3834.34567,0.01968
3832.41693,0.01948
3830.48818,0.01937
3828.55943,0.01959
3826.63069,0.01991
3824.70194,0.01981
3822.77320,0.01952
3820.84445,0.01962
3818.91571,0.02001
3816.98696,0.02009
3815.05822,0.01982
3813.12947,0.01969
3811.20073,0.01978
3809.27198,0.01987
3807.34324,0.01979
3805.41449,0.01964
3803.48575,0.01955
3801.55700,0.01949
3799.62826,0.01951
3797.69951,0.01960
3795.77076,0.01971
3793.84202,0.01977
3791.91327,0.01972
3789.98453,0.01962
3788.05578,0.01964
3786.12704,0.01985
3784.19829,0.01999
3782.26955,0.01989
3780.34080,0.01965
3778.41206,0.01946
3776.48331,0.01949
3774.55457,0.01967
3772.62582,0.01986
3770.69708,0.01993
3768.76833,0.01986
3766.83959,0.01978
3764.91084,0.01964
3762.98209,0.01945
3761.05335,0.01932
3759.12460,0.01926
3757.19586,0.01931
3755.26711,0.01944
3753.33837,0.01954
3751.40962,0.01950
3749.48088,0.01949
3747.55213,0.01970
3745.62339,0.01989
3743.69464,0.01956
3741.76590,0.01906
3739.83715,0.01905
3737.90841,0.01931
3735.97966,0.01926
3734.05091,0.01883
3732.12217,0.01856
3730.19342,0.01866
3728.26468,0.01887
3726.33593,0.01915
3724.40719,0.01961
3722.47844,0.01991
3720.54970,0.01991
3718.62095,0.01999
3716.69221,0.02001
3714.76346,0.01963
3712.83472,0.01928
3710.90597,0.01924
3708.97723,0.01905
3707.04848,0.01874
3705.11974,0.01871
3703.19099,0.01897
3701.26224,0.01917
3699.33350,0.01911
3697.40475,0.01898
3695.47601,0.01888
3693.54726,0.01890
3691.61852,0.01912
3689.68977,0.01926
3687.76103,0.01929
3685.83228,0.01945
3683.90354,0.01957
3681.97479,0.01957
3680.04605,0.01963
3678.11730,0.01967
3676.18856,0.01947
3674.25981,0.01929
3672.33107,0.01923
3670.40232,0.01915
3668.47357,0.01927
3666.54483,0.01955
3664.61608,0.01962
3662.68734,0.01942
3660.75859,0.01924
3658.82985,0.01918
3656.90110,0.01906
3654.97236,0.01904
3653.04361,0.01925
3651.11487,0.01920
3649.18612,0.01863
3647.25738,0.01812
3645.32863,0.01828
3643.39989,0.01894
3641.47114,0.01947
3639.54239,0.01950
3637.61365,0.01938
3635.68490,0.01947
3633.75616,0.01964
3631.82741,0.01968
3629.89867,0.01945
3627.96992,0.01908
3626.04118,0.01905
3624.11243,0.01938
3622.18369,0.01957
3620.25494,0.01940
3618.32620,0.01910
3616.39745,0.01878
3614.46871,0.01854
3612.53996,0.01844
3610.61122,0.01840
3608.68247,0.01829
3606.75372,0.01827
3604.82498,0.01852
3602.89623,0.01885
3600.96749,0.01884
3599.03874,0.01851
3597.11000,0.01839
3595.18125,0.01852
3593.25251,0.01854
3591.32376,0.01865
3589.39502,0.01903
3587.46627,0.01897
3585.53753,0.01815
3583.60878,0.01767
3581.68004,0.01795
3579.75129,0.01827
3577.82254,0.01839
3575.89380,0.01854
3573.96505,0.01861
3572.03631,0.01848
3570.10756,0.01811
3568.17882,0.01767
3566.25007,0.01760
3564.32133,0.01775
3562.39258,0.01782
3560.46384,0.01806
3558.53509,0.01853
3556.60635,0.01866
3554.67760,0.01826
3552.74886,0.01796
3550.82011,0.01828
3548.89137,0.01878
3546.96262,0.01887
3545.03387,0.01875
3543.10513,0.01874
3541.17638,0.01876
3539.24764,0.01882
3537.31889,0.01875
3535.39015,0.01838
3533.46140,0.01806
3531.53266,0.01812
3529.60391,0.01818
3527.67517,0.01803
3525.74642,0.01799
3523.81768,0.01817
3521.88893,0.01837
3519.96019,0.01848
3518.03144,0.01842
3516.10270,0.01813
3514.17395,0.01789
3512.24520,0.01789
3510.31646,0.01796
3508.38771,0.01798
3506.45897,0.01805
3504.53022,0.01805
3502.60148,0.01800
3500.67273,0.01824
3498.74399,0.01868
3496.81524,0.01865
3494.88650,0.01806
3492.95775,0.01750
3491.02901,0.01735
3489.10026,0.01769
3487.17152,0.01822
3485.24277,0.01835
3483.31402,0.01794
3481.38528,0.01750
3479.45653,0.01748
3477.52779,0.01770
3475.59904,0.01772
3473.67030,0.01755
3471.74155,0.01754
3469.81281,0.01771
3467.88406,0.01791
3465.95532,0.01810
3464.02657,0.01826
3462.09783,0.01836
3460.16908,0.01833
3458.24034,0.01813
3456.31159,0.01806
3454.38285,0.01812
3452.45410,0.01791
3450.52535,0.01772
3448.59661,0.01786
3446.66786,0.01787
3444.73912,0.01764
3442.81037,0.01761
3440.88163,0.01770
3438.95288,0.01755
3437.02414,0.01740
3435.09539,0.01754
3433.16665,0.01770
3431.23790,0.01765
3429.30916,0.01754
3427.38041,0.01746
3425.45167,0.01728
3423.52292,0.01701
3421.59418,0.01690
3419.66543,0.01699
3417.73668,0.01703
3415.80794,0.01702
3413.87919,0.01721
3411.95045,0.01748
3410.02170,0.01747
3408.09296,0.01725
3406.16421,0.01721
3404.23547,0.01732
3402.30672,0.01742
3400.37798,0.01760
3398.44923,0.01767
3396.52049,0.01751
3394.59174,0.01734
3392.66300,0.01730
3390.73425,0.01738
3388.80550,0.01757
3386.87676,0.01767
3384.94801,0.01750
3383.01927,0.01721
3381.09052,0.01711
3379.16178,0.01728
3377.23303,0.01734
3375.30429,0.01713
3373.37554,0.01708
3371.44680,0.01728
3369.51805,0.01744
3367.58931,0.01745
3365.66056,0.01753
3363.73182,0.01769
3361.80307,0.01766
3359.87433,0.01745
3357.94558,0.01737
3356.01683,0.01743
3354.08809,0.01745
3352.15934,0.01735
3350.23060,0.01723
3348.30185,0.01712
3346.37311,0.01693
3344.44436,0.01668
3342.51562,0.01652
3340.58687,0.01669
3338.65813,0.01705
3336.72938,0.01716
3334.80064,0.01724
3332.87189,0.01762
3330.94315,0.01786
3329.01440,0.01760
3327.08566,0.01710
3325.15691,0.01698
3323.22816,0.01732
3321.29942,0.01752
3319.37067,0.01748
3317.44193,0.01756
3315.51318,0.01770
3313.58444,0.01761
3311.65569,0.01742
3309.72695,0.01735
3307.79820,0.01729
3305.86946,0.01706
3303.94071,0.01684
3302.01197,0.01694
3300.08322,0.01717
3298.15448,0.01718
3296.22573,0.01711
3294.29698,0.01725
3292.36824,0.01756
3290.43949,0.01793
3288.51075,0.01823
3286.58200,0.01803
3284.65326,0.01732
3282.72451,0.01681
3280.79577,0.01696
3278.86702,0.01734
3276.93828,0.01747
3275.00953,0.01742
3273.08079,0.01735
3271.15204,0.01724
3269.22330,0.01716
3267.29455,0.01721
3265.36581,0.01745
3263.43706,0.01770
3261.50831,0.01784
3259.57957,0.01785
3257.65082,0.01777
3255.72208,0.01767
3253.79333,0.01758
3251.86459,0.01759
3249.93584,0.01772
3248.00710,0.01774
3246.07835,0.01752
3244.14961,0.01736
3242.22086,0.01754
3240.29212,0.01797
3238.36337,0.01823
3236.43463,0.01807
3234.50588,0.01776
3232.57713,0.01740
3230.64839,0.01700
3228.71964,0.01690
3226.79090,0.01699
3224.86215,0.01691
3222.93341,0.01692
3221.00466,0.01736
3219.07592,0.01789
3217.14717,0.01802
3215.21843,0.01787
3213.28968,0.01778
3211.36094,0.01784
3209.43219,0.01808
3207.50345,0.01811
3205.57470,0.01770
3203.64596,0.01744
3201.71721,0.01748
3199.78846,0.01753
3197.85972,0.01763
3195.93097,0.01778
3194.00223,0.01784
3192.07348,0.01771
3190.14474,0.01749
3188.21599,0.01736
3186.28725,0.01741
3184.35850,0.01764
3182.42976,0.01777
3180.50101,0.01753
3178.57227,0.01715
3176.64352,0.01713
3174.71478,0.01755
3172.78603,0.01789
3170.85729,0.01774
3168.92854,0.01724
3166.99979,0.01676
3165.07105,0.01671
3163.14230,0.01713
3161.21356,0.01772
3159.28481,0.01805
3157.35607,0.01784
3155.42732,0.01745
3153.49858,0.01735
3151.56983,0.01752
3149.64109,0.01773
3147.71234,0.01778
3145.78360,0.01756
3143.85485,0.01726
3141.92611,0.01722
3139.99736,0.01745
3138.06861,0.01768
3136.13987,0.01783
3134.21112,0.01793
3132.28238,0.01791
3130.35363,0.01798
3128.42489,0.01828
3126.49614,0.01826
3124.56740,0.01774
3122.63865,0.01742
3120.70991,0.01753
3118.78116,0.01762
3116.85242,0.01757
3114.92367,0.01747
3112.99493,0.01740
3111.06618,0.01752
3109.13744,0.01772
3107.20869,0.01776
3105.27994,0.01772
3103.35120,0.01760
3101.42245,0.01729
3099.49371,0.01710
3097.56496,0.01734
3095.63622,0.01783
3093.70747,0.01808
3091.77873,0.01800
3089.84998,0.01788
3087.92124,0.01781
3085.99249,0.01779
3084.06375,0.01789
3082.13500,0.01794
3080.20626,0.01763
3078.27751,0.01704
3076.34877,0.01669
3074.42002,0.01685
3072.49127,0.01717
3070.56253,0.01728
3068.63378,0.01742
3066.70504,0.01775
3064.77629,0.01795
3062.84755,0.01783
3060.91880,0.01746
3058.99006,0.01717
3057.06131,0.01736
3055.13257,0.01790
3053.20382,0.01825
3051.27508,0.01810
3049.34633,0.01778
3047.41759,0.01766
3045.48884,0.01758
3043.56009,0.01737
3041.63135,0.01725
3039.70260,0.01742
3037.77386,0.01770
3035.84511,0.01773
3033.91637,0.01754
3031.98762,0.01743
3030.05888,0.01739
3028.13013,0.01738
3026.20139,0.01754
3024.27264,0.01760
3022.34390,0.01730
3020.41515,0.01696
3018.48641,0.01698
3016.55766,0.01721
3014.62892,0.01739
3012.70017,0.01741
3010.77142,0.01725
3008.84268,0.01714
3006.91393,0.01731
3004.98519,0.01738
3003.05644,0.01705
3001.12770,0.01674
2999.19895,0.01666
2997.27021,0.01666
2995.34146,0.01681
2993.41272,0.01693
2991.48397,0.01679
2989.55523,0.01667
2987.62648,0.01684
2985.69774,0.01700
2983.76899,0.01689
2981.84025,0.01678
2979.91150,0.01681
2977.98275,0.01676
2976.05401,0.01663
2974.12526,0.01655
2972.19652,0.01655
2970.26777,0.01658
2968.33903,0.01652
2966.41028,0.01644
2964.48154,0.01649
2962.55279,0.01656
2960.62405,0.01655
2958.69530,0.01651
2956.76656,0.01641
2954.83781,0.01632
2952.90907,0.01639
2950.98032,0.01663
2949.05157,0.01682
2947.12283,0.01669
2945.19408,0.01644
2943.26534,0.01635
2941.33659,0.01635
2939.40785,0.01633
2937.47910,0.01627
2935.55036,0.01622
2933.62161,0.01632
2931.69287,0.01663
2929.76412,0.01694
2927.83538,0.01712
2925.90663,0.01725
2923.97789,0.01729
2922.04914,0.01726
2920.12040,0.01727
2918.19165,0.01729
2916.26290,0.01737
2914.33416,0.01767
2912.40541,0.01805
2910.47667,0.01812
2908.54792,0.01782
2906.61918,0.01740
2904.69043,0.01717
2902.76169,0.01719
2900.83294,0.01731
2898.90420,0.01754
2896.97545,0.01784
2895.04671,0.01797
2893.11796,0.01787
2891.18922,0.01774
2889.26047,0.01764
2887.33172,0.01760
2885.40298,0.01764
2883.47423,0.01757
2881.54549,0.01744
2879.61674,0.01748
2877.68800,0.01761
2875.75925,0.01759
2873.83051,0.01743
2871.90176,0.01737
2869.97302,0.01747
2868.04427,0.01751
2866.11553,0.01740
2864.18678,0.01734
2862.25804,0.01729
2860.32929,0.01721
2858.40055,0.01723
2856.47180,0.01733
2854.54305,0.01746
2852.61431,0.01766
2850.68556,0.01785
2848.75682,0.01786
2846.82807,0.01781
2844.89933,0.01783
2842.97058,0.01793
2841.04184,0.01816
2839.11309,0.01834
2837.18435,0.01827
2835.25560,0.01814
2833.32686,0.01815
2831.39811,0.01812
2829.46937,0.01793
2827.54062,0.01779
2825.61188,0.01785
2823.68313,0.01803
2821.75438,0.01822
2819.82564,0.01835
2817.89689,0.01847
2815.96815,0.01852
2814.03940,0.01839
2812.11066,0.01814
2810.18191,0.01786
2808.25317,0.01769
2806.32442,0.01780
2804.39568,0.01796
2802.46693,0.01793
2800.53819,0.01796
2798.60944,0.01821
2796.68070,0.01824
2794.75195,0.01792
2792.82320,0.01771
2790.89446,0.01796
2788.96571,0.01844
2787.03697,0.01871
2785.10822,0.01854
2783.17948,0.01817
2781.25073,0.01798
2779.32199,0.01798
2777.39324,0.01799
2775.46450,0.01806
2773.53575,0.01819
2771.60701,0.01828
2769.67826,0.01837
2767.74952,0.01832
2765.82077,0.01812
2763.89203,0.01803
2761.96328,0.01806
2760.03453,0.01807
2758.10579,0.01813
2756.17704,0.01830
2754.24830,0.01844
2752.31955,0.01834
2750.39081,0.01814
2748.46206,0.01811
2746.53332,0.01820
2744.60457,0.01820
2742.67583,0.01806
2740.74708,0.01791
2738.81834,0.01795
2736.88959,0.01809
2734.96085,0.01819
2733.03210,0.01819
2731.10336,0.01805
2729.17461,0.01789
2727.24586,0.01785
2725.31712,0.01793
2723.38837,0.01808
2721.45963,0.01820
2719.53088,0.01828
2717.60214,0.01829
2715.67339,0.01811
2713.74465,0.01784
2711.81590,0.01773
2709.88716,0.01789
2707.95841,0.01810
2706.02967,0.01811
2704.10092,0.01812
2702.17218,0.01836
2700.24343,0.01849
2698.31468,0.01831
2696.38594,0.01813
2694.45719,0.01805
2692.52845,0.01810
2690.59970,0.01832
2688.67096,0.01848
2686.74221,0.01839
2684.81347,0.01812
2682.88472,0.01790
2680.95598,0.01795
2679.02723,0.01812
2677.09849,0.01815
2675.16974,0.01806
2673.24100,0.01804
2671.31225,0.01800
2669.38351,0.01786
2667.45476,0.01773
2665.52601,0.01782
2663.59727,0.01814
2661.66852,0.01839
2659.73978,0.01835
2657.81103,0.01824
2655.88229,0.01834
2653.95354,0.01857
2652.02480,0.01860
2650.09605,0.01837
2648.16731,0.01821
2646.23856,0.01832
2644.30982,0.01847
2642.38107,0.01840
2640.45233,0.01825
2638.52358,0.01815
2636.59484,0.01801
2634.66609,0.01801
2632.73734,0.01824
2630.80860,0.01844
2628.87985,0.01846
2626.95111,0.01837
2625.02236,0.01825
2623.09362,0.01829
2621.16487,0.01845
2619.23613,0.01842
2617.30738,0.01811
2615.37864,0.01787
2613.44989,0.01788
2611.52115,0.01799
2609.59240,0.01795
2607.66366,0.01787
2605.73491,0.01783
2603.80616,0.01771
2601.87742,0.01757
2599.94867,0.01762
2598.01993,0.01793
2596.09118,0.01828
2594.16244,0.01837
2592.23369,0.01822
2590.30495,0.01818
2588.37620,0.01825
2586.44746,0.01814
2584.51871,0.01790
2582.58997,0.01784
2580.66122,0.01792
2578.73248,0.01793
2576.80373,0.01793
2574.87499,0.01797
2572.94624,0.01804
2571.01749,0.01814
2569.08875,0.01832
2567.16000,0.01856
2565.23126,0.01868
2563.30251,0.01854
2561.37377,0.01819
2559.44502,0.01789
2557.51628,0.01784
2555.58753,0.01797
2553.65879,0.01803
2551.73004,0.01796
2549.80130,0.01794
2547.87255,0.01808
2545.94381,0.01826
2544.01506,0.01821
2542.08631,0.01797
2540.15757,0.01790
2538.22882,0.01810
2536.30008,0.01821
2534.37133,0.01810
2532.44259,0.01807
2530.51384,0.01818
2528.58510,0.01820
2526.65635,0.01813
2524.72761,0.01812
2522.79886,0.01817
2520.87012,0.01823
2518.94137,0.01826
2517.01263,0.01830
2515.08388,0.01835
2513.15514,0.01831
2511.22639,0.01816
2509.29764,0.01800
2507.36890,0.01792
2505.44015,0.01791
2503.51141,0.01799
2501.58266,0.01816
2499.65392,0.01831
2497.72517,0.01830
2495.79643,0.01824
2493.86768,0.01820
2491.93894,0.01816
2490.01019,0.01816
2488.08145,0.01818
2486.15270,0.01806
2484.22396,0.01794
2482.29521,0.01800
2480.36647,0.01811
2478.43772,0.01810
2476.50897,0.01796
2474.58023,0.01790
2472.65148,0.01798
2470.72274,0.01803
2468.79399,0.01803
2466.86525,0.01799
2464.93650,0.01795
2463.00776,0.01805
2461.07901,0.01816
2459.15027,0.01800
2457.22152,0.01773
2455.29278,0.01768
2453.36403,0.01788
2451.43529,0.01822
2449.50654,0.01850
2447.57779,0.01853
2445.64905,0.01838
2443.72030,0.01815
2441.79156,0.01781
2439.86281,0.01759
2437.93407,0.01778
2436.00532,0.01814
2434.07658,0.01831
2432.14783,0.01824
2430.21909,0.01799
2428.29034,0.01773
2426.36160,0.01777
2424.43285,0.01805
2422.50411,0.01825
2420.57536,0.01828
2418.64662,0.01822
2416.71787,0.01803
2414.78912,0.01786
2412.86038,0.01791
2410.93163,0.01805
2409.00289,0.01795
2407.07414,0.01771
2405.14540,0.01774
2403.21665,0.01804
2401.28791,0.01832
2399.35916,0.01850
2397.43042,0.01856
2395.50167,0.01843
2393.57293,0.01810
2391.64418,0.01781
2389.71544,0.01791
2387.78669,0.01823
2385.85795,0.01830
2383.92920,0.01815
2382.00045,0.01808
2380.07171,0.01816
2378.14296,0.01825
2376.21422,0.01815
2374.28547,0.01793
2372.35673,0.01783
2370.42798,0.01782
2368.49924,0.01786
2366.57049,0.01810
2364.64175,0.01844
2362.71300,0.01851
2360.78426,0.01830
2358.85551,0.01812
2356.92677,0.01804
2354.99802,0.01796
2353.06927,0.01798
2351.14053,0.01802
2349.21178,0.01800
2347.28304,0.01800
2345.35429,0.01789
2343.42555,0.01767
2341.49680,0.01759
2339.56806,0.01769
2337.63931,0.01784
2335.71057,0.01799
2333.78182,0.01810
2331.85308,0.01814
2329.92433,0.01817
2327.99559,0.01826
2326.06684,0.01836
2324.13810,0.01839
2322.20935,0.01835
2320.28060,0.01821
2318.35186,0.01804
2316.42311,0.01794
2314.49437,0.01795
2312.56562,0.01802
2310.63688,0.01809
2308.70813,0.01817
2306.77939,0.01822
2304.85064,0.01819
2302.92190,0.01798
2300.99315,0.01764
2299.06441,0.01753
2297.13566,0.01777
2295.20692,0.01810
2293.27817,0.01815
2291.34943,0.01793
2289.42068,0.01783
2287.49193,0.01794
2285.56319,0.01804
2283.63444,0.01802
2281.70570,0.01794
2279.77695,0.01790
2277.84821,0.01798
2275.91946,0.01813
2273.99072,0.01819
2272.06197,0.01817
2270.13323,0.01818
2268.20448,0.01825
2266.27574,0.01831
2264.34699,0.01834
2262.41825,0.01827
2260.48950,0.01803
2258.56075,0.01776
2256.63201,0.01768
2254.70326,0.01776
2252.77452,0.01786
2250.84577,0.01796
2248.91703,0.01803
2246.98828,0.01807
2245.05954,0.01810
2243.13079,0.01805
2241.20205,0.01790
2239.27330,0.01779
2237.34456,0.01782
2235.41581,0.01787
2233.48707,0.01788
2231.55832,0.01789
2229.62958,0.01789
2227.70083,0.01789
2225.77208,0.01792
2223.84334,0.01804
2221.91459,0.01817
2219.98585,0.01827
2218.05710,0.01842
2216.12836,0.01848
2214.19961,0.01834
2212.27087,0.01811
2210.34212,0.01786
2208.41338,0.01771
2206.48463,0.01768
2204.55589,0.01770
2202.62714,0.01790
2200.69840,0.01825
2198.76965,0.01840
2196.84090,0.01823
2194.91216,0.01797
2192.98341,0.01787
2191.05467,0.01792
2189.12592,0.01798
2187.19718,0.01799
2185.26843,0.01798
2183.33969,0.01793
2181.41094,0.01791
2179.48220,0.01801
2177.55345,0.01814
2175.62471,0.01810
2173.69596,0.01800
2171.76722,0.01805
2169.83847,0.01818
2167.90973,0.01823
2165.98098,0.01819
2164.05223,0.01808
2162.12349,0.01800
2160.19474,0.01798
2158.26600,0.01791
2156.33725,0.01779
2154.40851,0.01768
2152.47976,0.01762
2150.55102,0.01778
2148.62227,0.01811
2146.69353,0.01822
2144.76478,0.01807
2142.83604,0.01801
2140.90729,0.01809
2138.97855,0.01806
2137.04980,0.01801
2135.12106,0.01811
2133.19231,0.01816
2131.26356,0.01801
2129.33482,0.01774
2127.40607,0.01765
2125.47733,0.01789
2123.54858,0.01810
2121.61984,0.01811
2119.69109,0.01809
2117.76235,0.01818
2115.83360,0.01833
2113.90486,0.01827
2111.97611,0.01801
2110.04737,0.01779
2108.11862,0.01774
2106.18988,0.01783
2104.26113,0.01791
2102.33238,0.01779
2100.40364,0.01756
2098.47489,0.01751
2096.54615,0.01772
2094.61740,0.01797
2092.68866,0.01816
2090.75991,0.01821
2088.83117,0.01814
2086.90242,0.01809
2084.97368,0.01804
2083.04493,0.01786
2081.11619,0.01763
2079.18744,0.01752
2077.25870,0.01761
2075.32995,0.01777
2073.40121,0.01783
2071.47246,0.01779
2069.54371,0.01773
2067.61497,0.01768
2065.68622,0.01761
2063.75748,0.01755
2061.82873,0.01756
2059.89999,0.01765
2057.97124,0.01785
2056.04250,0.01799
2054.11375,0.01792
2052.18501,0.01774
2050.25626,0.01764
2048.32752,0.01767
2046.39877,0.01776
2044.47003,0.01781
2042.54128,0.01782
2040.61254,0.01785
2038.68379,0.01783
2036.75504,0.01769
2034.82630,0.01753
2032.89755,0.01751
2030.96881,0.01763
2029.04006,0.01768
2027.11132,0.01758
2025.18257,0.01750
2023.25383,0.01762
2021.32508,0.01785
2019.39634,0.01801
2017.46759,0.01801
2015.53885,0.01794
2013.61010,0.01793
2011.68136,0.01797
2009.75261,0.01801
2007.82386,0.01793
2005.89512,0.01779
2003.96637,0.01780
2002.03763,0.01789
2000.10888,0.01785
1998.18014,0.01766
1996.25139,0.01756
1994.32265,0.01764
1992.39390,0.01777
1990.46516,0.01779
1988.53641,0.01779
1986.60767,0.01782
1984.67892,0.01778
1982.75018,0.01762
1980.82143,0.01752
1978.89269,0.01754
1976.96394,0.01758
1975.03519,0.01762
1973.10645,0.01764
1971.17770,0.01765
1969.24896,0.01767
1967.32021,0.01770
1965.39147,0.01781
1963.46272,0.01794
1961.53398,0.01792
1959.60523,0.01784
1957.67649,0.01776
1955.74774,0.01753
1953.81900,0.01735
1951.89025,0.01741
1949.96151,0.01758
1948.03276,0.01774
1946.10402,0.01784
1944.17527,0.01784
1942.24652,0.01783
1940.31778,0.01784
1938.38903,0.01784
1936.46029,0.01780
1934.53154,0.01775
1932.60280,0.01769
1930.67405,0.01770
1928.74531,0.01783
1926.81656,0.01792
1924.88782,0.01782
1922.95907,0.01771
1921.03033,0.01779
1919.10158,0.01785
1917.17284,0.01772
1915.24409,0.01763
1913.31534,0.01757
1911.38660,0.01753
1909.45785,0.01763
1907.52911,0.01779
1905.60036,0.01778
1903.67162,0.01765
1901.74287,0.01763
1899.81413,0.01772
1897.88538,0.01768
1895.95664,0.01751
1894.02789,0.01750
1892.09915,0.01768
1890.17040,0.01778
1888.24166,0.01770
1886.31291,0.01758
1884.38417,0.01749
1882.45542,0.01752
1880.52667,0.01761
1878.59793,0.01755
1876.66918,0.01731
1874.74044,0.01718
1872.81169,0.01731
1870.88295,0.01747
1868.95420,0.01750
1867.02546,0.01743
1865.09671,0.01735
1863.16797,0.01724
1861.23922,0.01714
1859.31048,0.01713
1857.38173,0.01721
1855.45299,0.01727
1853.52424,0.01722
1851.59549,0.01711
1849.66675,0.01699
1847.73800,0.01688
1845.80926,0.01677
1843.88051,0.01681
1841.95177,0.01699
1840.02302,0.01711
1838.09428,0.01717
1836.16553,0.01724
1834.23679,0.01728
1832.30804,0.01727
1830.37930,0.01720
1828.45055,0.01714
1826.52181,0.01711
1824.59306,0.01701
1822.66432,0.01689
1820.73557,0.01677
1818.80682,0.01666
1816.87808,0.01665
1814.94933,0.01672
1813.02059,0.01679
1811.09184,0.01689
1809.16310,0.01693
1807.23435,0.01680
1805.30561,0.01664
1803.37686,0.01661
1801.44812,0.01662
1799.51937,0.01651
1797.59063,0.01632
1795.66188,0.01620
1793.73314,0.01611
1791.80439,0.01594
1789.87565,0.01584
1787.94690,0.01593
1786.01815,0.01599
1784.08941,0.01596
1782.16066,0.01590
1780.23192,0.01577
1778.30317,0.01561
1776.37443,0.01557
1774.44568,0.01553
1772.51694,0.01535
1770.58819,0.01527
1768.65945,0.01541
1766.73070,0.01555
1764.80196,0.01545
1762.87321,0.01509
1760.94447,0.01469
1759.01572,0.01448
1757.08697,0.01439
1755.15823,0.01432
1753.22948,0.01434
1751.30074,0.01447
1749.37199,0.01462
1747.44325,0.01464
1745.51450,0.01458
1743.58576,0.01476
1741.65701,0.01520
1739.72827,0.01570
1737.79952,0.01621
1735.87078,0.01666
1733.94203,0.01686
1732.01329,0.01693
1730.08454,0.01706
1728.15580,0.01722
1726.22705,0.01737
1724.29830,0.01765
1722.36956,0.01805
1720.44081,0.01838
1718.51207,0.01846
1716.58332,0.01832
1714.65458,0.01807
1712.72583,0.01783
1710.79709,0.01767
1708.86834,0.01751
1706.93960,0.01737
1705.01085,0.01733
1703.08211,0.01736
1701.15336,0.01723
1699.22462,0.01696
1697.29587,0.01677
1695.36713,0.01656
1693.43838,0.01632
1691.50963,0.01623
1689.58089,0.01623
1687.65214,0.01619
1685.72340,0.01597
1683.79465,0.01557
1681.86591,0.01546
1679.93716,0.01573
1678.00842,0.01602
1676.07967,0.01602
1674.15093,0.01570
1672.22218,0.01540
1670.29344,0.01537
1668.36469,0.01546
1666.43595,0.01552
1664.50720,0.01553
1662.57845,0.01539
1660.64971,0.01519
1658.72096,0.01515
1656.79222,0.01531
1654.86347,0.01558
1652.93473,0.01573
1651.00598,0.01565
1649.07724,0.01553
1647.14849,0.01544
1645.21975,0.01543
1643.29100,0.01547
1641.36226,0.01546
1639.43351,0.01542
1637.50477,0.01531
1635.57602,0.01516
1633.64728,0.01518
1631.71853,0.01543
1629.78978,0.01573
1627.86104,0.01569
1625.93229,0.01543
1624.00355,0.01548
1622.07480,0.01579
1620.14606,0.01599
1618.21731,0.01596
1616.28857,0.01578
1614.35982,0.01571
1612.43108,0.01577
1610.50233,0.01580
1608.57359,0.01575
1606.64484,0.01563
1604.71610,0.01550
1602.78735,0.01545
1600.85861,0.01551
1598.92986,0.01565
1597.00111,0.01580
1595.07237,0.01596
1593.14362,0.01607
1591.21488,0.01604
1589.28613,0.01590
1587.35739,0.01569
1585.42864,0.01547
1583.49990,0.01535
1581.57115,0.01529
1579.64241,0.01523
1577.71366,0.01514
1575.78492,0.01499
1573.85617,0.01496
1571.92743,0.01508
1569.99868,0.01521
1568.06993,0.01518
1566.14119,0.01501
1564.21244,0.01494
1562.28370,0.01506
1560.35495,0.01513
1558.42621,0.01501
1556.49746,0.01494
1554.56872,0.01494
1552.63997,0.01488
1550.71123,0.01487
1548.78248,0.01495
1546.85374,0.01512
1544.92499,0.01531
1542.99625,0.01545
1541.06750,0.01555
1539.13876,0.01543
1537.21001,0.01516
1535.28126,0.01506
1533.35252,0.01522
1531.42377,0.01550
1529.49503,0.01576
1527.56628,0.01590
1525.63754,0.01583
1523.70879,0.01566
1521.78005,0.01552
1519.85130,0.01552
1517.92256,0.01558
1515.99381,0.01552
1514.06507,0.01546
1512.13632,0.01557
1510.20758,0.01567
1508.27883,0.01567
1506.35008,0.01562
1504.42134,0.01554
1502.49259,0.01543
1500.56385,0.01532
1498.63510,0.01527
1496.70636,0.01532
1494.77761,0.01542
1492.84887,0.01561
1490.92012,0.01582
1488.99138,0.01573
1487.06263,0.01548
1485.13389,0.01554
1483.20514,0.01585
1481.27640,0.01599
1479.34765,0.01584
1477.41891,0.01560
1475.49016,0.01537
1473.56141,0.01508
1471.63267,0.01489
1469.70392,0.01504
1467.77518,0.01527
1465.84643,0.01535
1463.91769,0.01531
1461.98894,0.01527
1460.06020,0.01525
1458.13145,0.01528
1456.20271,0.01533
1454.27396,0.01541
1452.34522,0.01537
1450.41647,0.01524
1448.48773,0.01522
1446.55898,0.01530
1444.63024,0.01544
1442.70149,0.01568
1440.77274,0.01590
1438.84400,0.01590
1436.91525,0.01570
1434.98651,0.01561
1433.05776,0.01575
1431.12902,0.01585
1429.20027,0.01567
1427.27153,0.01537
1425.34278,0.01528
1423.41404,0.01540
1421.48529,0.01552
1419.55655,0.01546
1417.62780,0.01526
1415.69906,0.01516
1413.77031,0.01522
1411.84156,0.01534
1409.91282,0.01552
1407.98407,0.01556
1406.05533,0.01534
1404.12658,0.01507
1402.19784,0.01492
1400.26909,0.01489
1398.34035,0.01500
1396.41160,0.01506
1394.48286,0.01495
1392.55411,0.01487
1390.62537,0.01489
1388.69662,0.01493
1386.76788,0.01501
1384.83913,0.01502
1382.91039,0.01489
1380.98164,0.01481
1379.05289,0.01496
1377.12415,0.01524
1375.19540,0.01536
1373.26666,0.01531
1371.33791,0.01522
1369.40917,0.01520
1367.48042,0.01526
1365.55168,0.01526
1363.62293,0.01524
1361.69419,0.01534
1359.76544,0.01538
1357.83670,0.01523
1355.90795,0.01514
1353.97921,0.01516
1352.05046,0.01506
1350.12172,0.01483
1348.19297,0.01469
1346.26422,0.01472
1344.33548,0.01483
1342.40673,0.01489
1340.47799,0.01486
1338.54924,0.01477
1336.62050,0.01474
1334.69175,0.01478
1332.76301,0.01478
1330.83426,0.01465
1328.90552,0.01444
1326.97677,0.01426
1325.04803,0.01413
1323.11928,0.01389
1321.19054,0.01359
1319.26179,0.01355
1317.33304,0.01383
1315.40430,0.01409
1313.47555,0.01418
1311.54681,0.01426
1309.61806,0.01430
1307.68932,0.01418
1305.76057,0.01401
1303.83183,0.01396
1301.90308,0.01413
1299.97434,0.01453
1298.04559,0.01485
1296.11685,0.01487
1294.18810,0.01484
1292.25936,0.01496
1290.33061,0.01516
1288.40187,0.01535
1286.47312,0.01546
1284.54437,0.01547
1282.61563,0.01554
1280.68688,0.01578
1278.75814,0.01600
1276.82939,0.01604
1274.90065,0.01602
1272.97190,0.01612
1271.04316,0.01633
1269.11441,0.01648
1267.18567,0.01653
1265.25692,0.01658
1263.32818,0.01662
1261.39943,0.01667
1259.47069,0.01682
1257.54194,0.01700
1255.61320,0.01709
1253.68445,0.01710
1251.75570,0.01706
1249.82696,0.01700
1247.89821,0.01686
1245.96947,0.01671
1244.04072,0.01665
1242.11198,0.01659
1240.18323,0.01642
1238.25449,0.01624
1236.32574,0.01612
1234.39700,0.01613
1232.46825,0.01625
1230.53951,0.01625
1228.61076,0.01606
1226.68202,0.01596
1224.75327,0.01597
1222.82452,0.01592
1220.89578,0.01595
1218.96703,0.01617
1217.03829,0.01632
1215.10954,0.01635
1213.18080,0.01643
1211.25205,0.01643
1209.32331,0.01612
1207.39456,0.01566
1205.46582,0.01537
1203.53707,0.01526
1201.60833,0.01519
1199.67958,0.01515
1197.75084,0.01526
1195.82209,0.01540
1193.89335,0.01550
1191.96460,0.01571
1190.03585,0.01586
1188.10711,0.01562
1186.17836,0.01510
1184.24962,0.01486
1182.32087,0.01509
1180.39213,0.01540
1178.46338,0.01536
1176.53464,0.01493
1174.60589,0.01443
1172.67715,0.01435
1170.74840,0.01465
1168.81966,0.01479
1166.89091,0.01477
1164.96217,0.01489
1163.03342,0.01505
1161.10467,0.01501
1159.17593,0.01480
1157.24718,0.01467
1155.31844,0.01460
1153.38969,0.01451
1151.46095,0.01451
1149.53220,0.01459
1147.60346,0.01456
1145.67471,0.01443
1143.74597,0.01427
1141.81722,0.01426
1139.88848,0.01455
1137.95973,0.01494
1136.03099,0.01510
1134.10224,0.01510
1132.17350,0.01529
1130.24475,0.01550
1128.31600,0.01543
1126.38726,0.01534
1124.45851,0.01537
1122.52977,0.01537
1120.60102,0.01546
1118.67228,0.01562
1116.74353,0.01547
1114.81479,0.01507
1112.88604,0.01503
1110.95730,0.01544
1109.02855,0.01586
1107.09981,0.01599
1105.17106,0.01583
1103.24232,0.01537
1101.31357,0.01478
1099.38483,0.01445
1097.45608,0.01455
1095.52733,0.01483
1093.59859,0.01518
1091.66984,0.01557
1089.74110,0.01573
1087.81235,0.01563
1085.88361,0.01562
1083.95486,0.01556
1082.02612,0.01521
1080.09737,0.01496
1078.16863,0.01522
1076.23988,0.01568
1074.31114,0.01612
1072.38239,0.01664
1070.45365,0.01700
1068.52490,0.01713
1066.59615,0.01726
1064.66741,0.01729
1062.73866,0.01704
1060.80992,0.01680
1058.88117,0.01672
1056.95243,0.01652
1055.02368,0.01619
1053.09494,0.01597
1051.16619,0.01603
1049.23745,0.01628
1047.30870,0.01634
1045.37996,0.01615
1043.45121,0.01593
1041.52247,0.01574
1039.59372,0.01558
1037.66498,0.01560
1035.73623,0.01583
1033.80748,0.01618
1031.87874,0.01650
1029.94999,0.01661
1028.02125,0.01640
1026.09250,0.01603
1024.16376,0.01585
1022.23501,0.01601
1020.30627,0.01627
1018.37752,0.01642
1016.44878,0.01643
1014.52003,0.01646
1012.59129,0.01670
1010.66254,0.01698
1008.73380,0.01712
1006.80505,0.01749
1004.87631,0.01807
1002.94756,0.01826
1001.01881,0.01805
999.09007,0.01796
997.16132,0.01811
995.23258,0.01815
993.30383,0.01795
991.37509,0.01793
989.44634,0.01825
987.51760,0.01847
985.58885,0.01830
983.66011,0.01796
981.73136,0.01767
979.80262,0.01749
977.87387,0.01753
975.94513,0.01773
974.01638,0.01793
972.08763,0.01804
970.15889,0.01793
968.23014,0.01760
966.30140,0.01740
964.37265,0.01757
962.44391,0.01779
960.51516,0.01768
958.58642,0.01733
956.65767,0.01709
954.72893,0.01713
952.80018,0.01727
950.87144,0.01723
948.94269,0.01703
947.01395,0.01686
945.08520,0.01680
943.15646,0.01668
941.22771,0.01654
939.29896,0.01661
937.37022,0.01676
935.44147,0.01663
933.51273,0.01624
931.58398,0.01616
929.65524,0.01667
927.72649,0.01707
925.79775,0.01693
923.86900,0.01671
921.94026,0.01659
920.01151,0.01651
918.08277,0.01653
916.15402,0.01650
914.22528,0.01640
912.29653,0.01641
910.36779,0.01648
908.43904,0.01639
906.51029,0.01626
904.58155,0.01633
902.65280,0.01652
900.72406,0.01659
898.79531,0.01635
896.86657,0.01583
894.93782,0.01526
893.00908,0.01512
891.08033,0.01582
889.15159,0.01690
887.22284,0.01723
885.29410,0.01654
883.36535,0.01588
881.43661,0.01574
879.50786,0.01573
877.57911,0.01568
875.65037,0.01571
873.72162,0.01597
871.79288,0.01632
869.86413,0.01645
867.93539,0.01643
866.00664,0.01620
864.07790,0.01575
862.14915,0.01536
860.22041,0.01527
858.29166,0.01516
856.36292,0.01482
854.43417,0.01475
852.50543,0.01520
850.57668,0.01552
848.64794,0.01551
846.71919,0.01562
844.79044,0.01579
842.86170,0.01587
840.93295,0.01603
839.00421,0.01618
837.07546,0.01604
835.14672,0.01583
833.21797,0.01595
831.28923,0.01620
829.36048,0.01627
827.43174,0.01611
825.50299,0.01603
823.57425,0.01634
821.64550,0.01663
819.71676,0.01654
817.78801,0.01625
815.85926,0.01582
813.93052,0.01555
812.00177,0.01579
810.07303,0.01623
808.14428,0.01646
806.21554,0.01633
804.28679,0.01589
802.35805,0.01539
800.42930,0.01531
798.50056,0.01601
796.57181,0.01681
794.64307,0.01664
792.71432,0.01587
790.78558,0.01553
788.85683,0.01561
786.92809,0.01561
784.99934,0.01550
783.07059,0.01549
781.14185,0.01579
779.21310,0.01626
777.28436,0.01634
775.35561,0.01600
773.42687,0.01570
771.49812,0.01542
769.56938,0.01532
767.64063,0.01557
765.71189,0.01564
763.78314,0.01538
761.85440,0.01534
759.92565,0.01547
757.99691,0.01536
756.06816,0.01521
754.13942,0.01520
752.21067,0.01501
750.28192,0.01463
748.35318,0.01431
746.42443,0.01432
744.49569,0.01472
742.56694,0.01510
740.63820,0.01527
738.70945,0.01544
736.78071,0.01542
734.85196,0.01524
732.92322,0.01533
730.99447,0.01542
729.06573,0.01525
727.13698,0.01502
725.20824,0.01447
723.27949,0.01390
721.35074,0.01397
719.42200,0.01438
717.49325,0.01470
715.56451,0.01489
713.63576,0.01478
711.70702,0.01442
709.77827,0.01408
707.84953,0.01400
705.92078,0.01426
703.99204,0.01465
702.06329,0.01486
700.13455,0.01479
698.20580,0.01470
696.27706,0.01477
694.34831,0.01465
692.41957,0.01426
690.49082,0.01392
688.56207,0.01392
686.63333,0.01465
684.70458,0.01553
682.77584,0.01560
680.84709,0.01531
678.91835,0.01516
676.98960,0.01476
675.06086,0.01399
673.13211,0.01322
671.20337,0.01304
669.27462,0.01360
667.34588,0.01420
665.41713,0.01414
663.48839,0.01332
661.55964,0.01251
659.63090,0.01276
657.70215,0.01377
655.77340,0.01472
653.84466,0.01500
651.91591,0.01410
649.98717,0.01274
648.05842,0.01219
646.12968,0.01232
644.20093,0.01258
642.27219,0.01271
640.34344,0.01238
638.41470,0.01177
636.48595,0.01184
634.55721,0.01260
632.62846,0.01267
630.69972,0.01169
628.77097,0.01128
626.84222,0.01202
624.91348,0.01267
622.98473,0.01298
621.05599,0.01385
619.12724,0.01488
617.19850,0.01501
615.26975,0.01415
613.34101,0.01351
611.41226,0.01387
609.48352,0.01434
607.55477,0.01393
605.62603,0.01341
603.69728,0.01325
601.76854,0.01303
599.83979,0.01262
