7497.03301,0.68184
7495.10426,0.68340
7493.17552,0.68536
7491.24677,0.68746
7489.31803,0.68860
7487.38928,0.68893
7485.46054,0.68897
7483.53179,0.68864
7481.60305,0.68803
7479.67430,0.68518
7477.74556,0.67868
7475.81681,0.67388
7473.88807,0.67538
7471.95932,0.67831
7470.03057,0.67737
7468.10183,0.67667
7466.17308,0.68002
7464.24434,0.68148
7462.31559,0.67726
7460.38685,0.67252
7458.45810,0.67144
7456.52936,0.67484
7454.60061,0.68030
7452.67187,0.68259
7450.74312,0.68096
7448.81438,0.67795
7446.88563,0.67324
7444.95689,0.66745
7443.02814,0.66433
7441.09940,0.66510
7439.17065,0.66785
7437.24190,0.67018
7435.31316,0.67009
7433.38441,0.66792
7431.45567,0.66592
7429.52692,0.66654
7427.59818,0.66952
7425.66943,0.67066
7423.74069,0.66759
7421.81194,0.66366
7419.88320,0.66222
7417.95445,0.66390
7416.02571,0.66923
7414.09696,0.67420
7412.16822,0.67413
7410.23947,0.67183
7408.31073,0.67043
7406.38198,0.66916
7404.45323,0.66674
7402.52449,0.66368
7400.59574,0.66271
7398.66700,0.66578
7396.73825,0.67054
7394.80951,0.67186
7392.88076,0.66942
7390.95202,0.66771
7389.02327,0.66728
7387.09453,0.66363
7385.16578,0.65723
7383.23704,0.65507
7381.30829,0.65776
7379.37955,0.65979
7377.45080,0.65905
7375.52205,0.65650
7373.59331,0.65407
7371.66456,0.65379
7369.73582,0.65524
7367.80707,0.65545
7365.87833,0.65424
7363.94958,0.65437
7362.02084,0.65652
7360.09209,0.65899
7358.16335,0.65906
7356.23460,0.65705
7354.30586,0.65566
7352.37711,0.65364
7350.44837,0.64947
7348.51962,0.64602
7346.59088,0.64668
7344.66213,0.65088
7342.73338,0.65359
7340.80464,0.65221
7338.87589,0.65048
7336.94715,0.64956
7335.01840,0.64817
7333.08966,0.64759
7331.16091,0.64647
7329.23217,0.64475
7327.30342,0.64659
7325.37468,0.65101
7323.44593,0.65193
7321.51719,0.64918
7319.58844,0.64899
7317.65970,0.65184
7315.73095,0.65184
7313.80221,0.64803
7311.87346,0.64489
7309.94471,0.64514
7308.01597,0.64741
7306.08722,0.64858
7304.15848,0.64821
7302.22973,0.64823
7300.30099,0.64788
7298.37224,0.64702
7296.44350,0.64793
7294.51475,0.64957
7292.58601,0.64857
7290.65726,0.64409
7288.72852,0.63899
7286.79977,0.63674
7284.87103,0.63754
7282.94228,0.63877
7281.01353,0.64075
7279.08479,0.64488
7277.15604,0.64583
7275.22730,0.64114
7273.29855,0.63722
7271.36981,0.63785
7269.44106,0.64148
7267.51232,0.64472
7265.58357,0.64564
7263.65483,0.64639
7261.72608,0.64853
7259.79734,0.65085
7257.86859,0.65287
7255.93985,0.65315
7254.01110,0.64941
7252.08236,0.64420
7250.15361,0.64128
7248.22486,0.63952
7246.29612,0.63740
7244.36737,0.63818
7242.43863,0.64391
7240.50988,0.64783
7238.58114,0.64487
7236.65239,0.64004
7234.72365,0.63831
7232.79490,0.63962
7230.86616,0.64101
7228.93741,0.63990
7227.00867,0.63825
7225.07992,0.63929
7223.15118,0.64200
7221.22243,0.64241
7219.29369,0.63998
7217.36494,0.63912
7215.43619,0.64109
7213.50745,0.64152
7211.57870,0.63992
7209.64996,0.64086
7207.72121,0.64337
7205.79247,0.64219
7203.86372,0.63898
7201.93498,0.63885
7200.00623,0.64118
7198.07749,0.64188
7196.14874,0.63840
7194.22000,0.63347
7192.29125,0.63182
7190.36251,0.63324
7188.43376,0.63436
7186.50501,0.63391
7184.57627,0.63348
7182.64752,0.63549
7180.71878,0.63951
7178.79003,0.64159
7176.86129,0.64049
7174.93254,0.63882
7173.00380,0.63754
7171.07505,0.63730
7169.14631,0.63830
7167.21756,0.63674
7165.28882,0.63194
7163.36007,0.63076
7161.43133,0.63442
7159.50258,0.63618
7157.57384,0.63538
7155.64509,0.63542
7153.71634,0.63585
7151.78760,0.63668
7149.85885,0.63862
7147.93011,0.64020
7146.00136,0.63950
7144.07262,0.63610
7142.14387,0.63043
7140.21513,0.62528
7138.28638,0.62419
7136.35764,0.62483
7134.42889,0.62343
7132.50015,0.62297
7130.57140,0.62689
7128.64266,0.63093
7126.71391,0.62949
7124.78516,0.62505
7122.85642,0.62241
7120.92767,0.62185
7118.99893,0.62296
7117.07018,0.62469
7115.14144,0.62355
7113.21269,0.62091
7111.28395,0.62055
7109.35520,0.62035
7107.42646,0.61873
7105.49771,0.61693
7103.56897,0.61378
7101.64022,0.61069
7099.71148,0.61073
7097.78273,0.61189
7095.85399,0.61187
7093.92524,0.61138
7091.99649,0.61075
7090.06775,0.61064
7088.13900,0.61196
7086.21026,0.61371
7084.28151,0.61434
7082.35277,0.61287
7080.42402,0.61043
7078.49528,0.60904
7076.56653,0.60787
7074.63779,0.60580
7072.70904,0.60426
7070.78030,0.60408
7068.85155,0.60408
7066.92281,0.60286
7064.99406,0.59980
7063.06532,0.59668
7061.13657,0.59544
7059.20782,0.59466
7057.27908,0.59293
7055.35033,0.59039
7053.42159,0.58781
7051.49284,0.58722
7049.56410,0.58866
7047.63535,0.58865
7045.70661,0.58537
7043.77786,0.58259
7041.84912,0.58307
7039.92037,0.58345
7037.99163,0.58153
7036.06288,0.57936
7034.13414,0.57886
7032.20539,0.57958
7030.27664,0.57949
7028.34790,0.57744
7026.41915,0.57419
7024.49041,0.57155
7022.56166,0.57143
7020.63292,0.57312
7018.70417,0.57319
7016.77543,0.57075
7014.84668,0.56911
7012.91794,0.57021
7010.98919,0.57165
7009.06045,0.57177
7007.13170,0.57162
7005.20296,0.57106
7003.27421,0.57049
7001.34547,0.57068
6999.41672,0.56954
6997.48797,0.56639
6995.55923,0.56343
6993.63048,0.56110
6991.70174,0.55804
6989.77299,0.55656
6987.84425,0.56012
6985.91550,0.56523
6983.98676,0.56792
6982.05801,0.56869
6980.12927,0.56597
6978.20052,0.55888
6976.27178,0.55138
6974.34303,0.54817
6972.41429,0.54993
6970.48554,0.55307
6968.55680,0.55445
6966.62805,0.55502
6964.69930,0.55704
6962.77056,0.55921
6960.84181,0.55856
6958.91307,0.55536
6956.98432,0.55231
6955.05558,0.55165
6953.12683,0.55337
6951.19809,0.55599
6949.26934,0.55779
6947.34060,0.55691
6945.41185,0.55348
6943.48311,0.55042
6941.55436,0.54894
6939.62562,0.54719
6937.69687,0.54556
6935.76812,0.54645
6933.83938,0.54875
6931.91063,0.54915
6929.98189,0.54748
6928.05314,0.54677
6926.12440,0.54772
6924.19565,0.54865
6922.26691,0.54958
6920.33816,0.55022
6918.40942,0.55030
6916.48067,0.55035
6914.55193,0.54950
6912.62318,0.54843
6910.69444,0.54784
6908.76569,0.54735
6906.83695,0.54823
6904.90820,0.54951
6902.97945,0.54945
6901.05071,0.54857
6899.12196,0.54770
6897.19322,0.54818
6895.26447,0.54880
6893.33573,0.54755
6891.40698,0.54567
6889.47824,0.54404
6887.54949,0.54273
6885.62075,0.54256
6883.69200,0.54370
6881.76326,0.54527
6879.83451,0.54588
6877.90577,0.54581
6875.97702,0.54519
6874.04828,0.54305
6872.11953,0.54137
6870.19078,0.54122
6868.26204,0.53999
6866.33329,0.53819
6864.40455,0.53815
6862.47580,0.53923
6860.54706,0.54048
6858.61831,0.54154
6856.68957,0.54219
6854.76082,0.54235
6852.83208,0.54092
6850.90333,0.53785
6848.97459,0.53621
6847.04584,0.53780
6845.11710,0.53979
6843.18835,0.53903
6841.25960,0.53612
6839.33086,0.53333
6837.40211,0.53179
6835.47337,0.53181
6833.54462,0.53302
6831.61588,0.53320
6829.68713,0.53133
6827.75839,0.52996
6825.82964,0.53058
6823.90090,0.53165
6821.97215,0.53242
6820.04341,0.53324
6818.11466,0.53348
6816.18592,0.53209
6814.25717,0.52965
6812.32843,0.52797
6810.39968,0.52700
6808.47093,0.52708
6806.54219,0.52992
6804.61344,0.53236
6802.68470,0.53140
6800.75595,0.53076
6798.82721,0.53148
6796.89846,0.53052
6794.96972,0.52814
6793.04097,0.52623
6791.11223,0.52515
6789.18348,0.52457
6787.25474,0.52507
6785.32599,0.52644
6783.39725,0.52707
6781.46850,0.52643
6779.53975,0.52466
6777.61101,0.52288
6775.68226,0.52312
6773.75352,0.52410
6771.82477,0.52283
6769.89603,0.52066
6767.96728,0.52075
6766.03854,0.52238
6764.10979,0.52365
6762.18105,0.52433
6760.25230,0.52366
6758.32356,0.52180
6756.39481,0.52175
6754.46607,0.52388
6752.53732,0.52457
6750.60858,0.52317
6748.67983,0.52086
6746.75108,0.51859
6744.82234,0.51871
6742.89359,0.52054
6740.96485,0.52228
6739.03610,0.52381
6737.10736,0.52383
6735.17861,0.52287
6733.24987,0.52318
6731.32112,0.52399
6729.39238,0.52266
6727.46363,0.51947
6725.53489,0.51821
6723.60614,0.51932
6721.67740,0.51924
6719.74865,0.51785
6717.81991,0.51795
6715.89116,0.52002
6713.96241,0.52126
6712.03367,0.52023
6710.10492,0.51968
6708.17618,0.52090
6706.24743,0.52083
6704.31869,0.51794
6702.38994,0.51556
6700.46120,0.51632
6698.53245,0.51755
6696.60371,0.51678
6694.67496,0.51676
6692.74622,0.51956
6690.81747,0.52091
6688.88873,0.51811
6686.95998,0.51512
6685.03123,0.51458
6683.10249,0.51696
6681.17374,0.52178
6679.24500,0.52447
6677.31625,0.52364
6675.38751,0.52274
6673.45876,0.52245
6671.53002,0.52159
6669.60127,0.52102
6667.67253,0.52155
6665.74378,0.52175
6663.81504,0.52069
6661.88629,0.51965
6659.95755,0.51995
6658.02880,0.52096
6656.10006,0.52062
6654.17131,0.51893
6652.24256,0.51794
6650.31382,0.51928
6648.38507,0.52277
6646.45633,0.52588
6644.52758,0.52667
6642.59884,0.52593
6640.67009,0.52456
6638.74135,0.52261
6636.81260,0.52092
6634.88386,0.52085
6632.95511,0.52309
6631.02637,0.52621
6629.09762,0.52691
6627.16888,0.52575
6625.24013,0.52624
6623.31139,0.52768
6621.38264,0.52802
6619.45389,0.52708
6617.52515,0.52516
6615.59640,0.52516
6613.66766,0.52815
6611.73891,0.52966
6609.81017,0.52773
6607.88142,0.52574
6605.95268,0.52590
6604.02393,0.52759
6602.09519,0.52969
6600.16644,0.53154
6598.23770,0.53302
6596.30895,0.53280
6594.38021,0.53043
6592.45146,0.52921
6590.52271,0.53016
6588.59397,0.53022
6586.66522,0.52927
6584.73648,0.53027
6582.80773,0.53347
6580.87899,0.53627
6578.95024,0.53691
6577.02150,0.53545
6575.09275,0.53351
6573.16401,0.53236
6571.23526,0.53152
6569.30652,0.53101
6567.37777,0.53227
6565.44903,0.53569
6563.52028,0.53854
6561.59154,0.53854
6559.66279,0.53715
6557.73404,0.53534
6555.80530,0.53330
6553.87655,0.53298
6551.94781,0.53417
6550.01906,0.53484
6548.09032,0.53490
6546.16157,0.53449
6544.23283,0.53377
6542.30408,0.53229
6540.37534,0.52930
6538.44659,0.52689
6536.51785,0.52727
6534.58910,0.52988
6532.66036,0.53228
6530.73161,0.53214
6528.80287,0.53105
6526.87412,0.53264
6524.94537,0.53613
6523.01663,0.53711
6521.08788,0.53489
6519.15914,0.53322
6517.23039,0.53379
6515.30165,0.53464
6513.37290,0.53355
6511.44416,0.53162
6509.51541,0.53204
6507.58667,0.53452
6505.65792,0.53493
6503.72918,0.53193
6501.80043,0.52902
6499.87169,0.52744
6497.94294,0.52602
6496.01419,0.52674
6494.08545,0.52970
6492.15670,0.53123
6490.22796,0.53147
6488.29921,0.53253
6486.37047,0.53368
6484.44172,0.53438
6482.51298,0.53441
6480.58423,0.53401
6478.65549,0.53456
6476.72674,0.53543
6474.79800,0.53509
6472.86925,0.53377
6470.94051,0.53276
6469.01176,0.53191
6467.08302,0.53039
6465.15427,0.52933
6463.22552,0.52920
6461.29678,0.53000
6459.36803,0.53245
6457.43929,0.53487
6455.51054,0.53527
6453.58180,0.53460
6451.65305,0.53413
6449.72431,0.53302
6447.79556,0.53163
6445.86682,0.53233
6443.93807,0.53399
6442.00933,0.53356
6440.08058,0.53169
6438.15184,0.53120
6436.22309,0.53346
6434.29434,0.53728
6432.36560,0.53997
6430.43685,0.54024
6428.50811,0.53865
6426.57936,0.53638
6424.65062,0.53503
6422.72187,0.53468
6420.79313,0.53437
6418.86438,0.53449
6416.93564,0.53535
6415.00689,0.53633
6413.07815,0.53695
6411.14940,0.53691
6409.22066,0.53663
6407.29191,0.53717
6405.36317,0.53864
6403.43442,0.53933
6401.50567,0.53768
6399.57693,0.53560
6397.64818,0.53634
6395.71944,0.53931
6393.79069,0.54144
6391.86195,0.54127
6389.93320,0.53948
6388.00446,0.53808
6386.07571,0.53856
6384.14697,0.54008
6382.21822,0.54000
6380.28948,0.53771
6378.36073,0.53636
6376.43199,0.53738
6374.50324,0.53876
6372.57450,0.53990
6370.64575,0.54127
6368.71700,0.54185
6366.78826,0.54157
6364.85951,0.54218
6362.93077,0.54258
6361.00202,0.54043
6359.07328,0.53790
6357.14453,0.53696
6355.21579,0.53629
6353.28704,0.53609
6351.35830,0.53699
6349.42955,0.53776
6347.50081,0.53742
6345.57206,0.53787
6343.64332,0.54037
6341.71457,0.54198
6339.78582,0.54141
6337.85708,0.54100
6335.92833,0.54110
6333.99959,0.54032
6332.07084,0.53984
6330.14210,0.54129
6328.21335,0.54216
6326.28461,0.54053
6324.35586,0.53924
6322.42712,0.53980
6320.49837,0.54018
6318.56963,0.53992
6316.64088,0.54134
6314.71214,0.54435
6312.78339,0.54618
6310.85465,0.54628
6308.92590,0.54562
6306.99715,0.54443
6305.06841,0.54333
6303.13966,0.54287
6301.21092,0.54209
6299.28217,0.54066
6297.35343,0.54033
6295.42468,0.54189
6293.49594,0.54383
6291.56719,0.54387
6289.63845,0.54229
6287.70970,0.54254
6285.78096,0.54512
6283.85221,0.54619
6281.92347,0.54443
6279.99472,0.54279
6278.06598,0.54309
6276.13723,0.54474
6274.20848,0.54704
6272.27974,0.54867
6270.35099,0.54845
6268.42225,0.54758
6266.49350,0.54803
6264.56476,0.54957
6262.63601,0.55086
6260.70727,0.55171
6258.77852,0.55185
6256.84978,0.55068
6254.92103,0.54918
6252.99229,0.54932
6251.06354,0.55137
6249.13480,0.55374
6247.20605,0.55547
6245.27730,0.55654
6243.34856,0.55718
6241.41981,0.55774
6239.49107,0.55777
6237.56232,0.55686
6235.63358,0.55601
6233.70483,0.55621
6231.77609,0.55694
6229.84734,0.55753
6227.91860,0.55872
6225.98985,0.56085
6224.06111,0.56203
6222.13236,0.56156
6220.20362,0.56140
6218.27487,0.56209
6216.34613,0.56258
6214.41738,0.56250
6212.48863,0.56251
6210.55989,0.56297
6208.63114,0.56264
6206.70240,0.56145
6204.77365,0.56153
6202.84491,0.56321
6200.91616,0.56479
6198.98742,0.56624
6197.05867,0.56786
6195.12993,0.56802
6193.20118,0.56651
6191.27244,0.56497
6189.34369,0.56438
6187.41495,0.56528
6185.48620,0.56764
6183.55746,0.57073
6181.62871,0.57249
6179.69996,0.57154
6177.77122,0.57040
6175.84247,0.57104
6173.91373,0.57166
6171.98498,0.57204
6170.05624,0.57337
6168.12749,0.57429
6166.19875,0.57410
6164.27000,0.57379
6162.34126,0.57417
6160.41251,0.57543
6158.48377,0.57645
6156.55502,0.57702
6154.62628,0.57748
6152.69753,0.57700
6150.76878,0.57634
6148.84004,0.57700
6146.91129,0.57831
6144.98255,0.57825
6143.05380,0.57621
6141.12506,0.57481
6139.19631,0.57638
6137.26757,0.57877
6135.33882,0.57929
6133.41008,0.57910
6131.48133,0.57981
6129.55259,0.58113
6127.62384,0.58167
6125.69510,0.58059
6123.76635,0.57970
6121.83761,0.58003
6119.90886,0.58011
6117.98011,0.58049
6116.05137,0.58195
6114.12262,0.58205
6112.19388,0.58012
6110.26513,0.57859
6108.33639,0.57838
6106.40764,0.57904
6104.47890,0.57985
6102.55015,0.57936
6100.62141,0.57752
6098.69266,0.57599
6096.76392,0.57568
6094.83517,0.57576
6092.90643,0.57519
6090.97768,0.57405
6089.04893,0.57295
6087.12019,0.57194
6085.19144,0.57133
6083.26270,0.57204
6081.33395,0.57340
6079.40521,0.57346
6077.47646,0.57266
6075.54772,0.57225
6073.61897,0.57145
6071.69023,0.57014
6069.76148,0.56957
6067.83274,0.56969
6065.90399,0.56900
6063.97525,0.56649
6062.04650,0.56295
6060.11776,0.56013
6058.18901,0.55893
6056.26026,0.55873
6054.33152,0.55783
6052.40277,0.55578
6050.47403,0.55409
6048.54528,0.55368
6046.61654,0.55389
6044.68779,0.55447
6042.75905,0.55580
6040.83030,0.55646
6038.90156,0.55447
6036.97281,0.55145
6035.04407,0.54973
6033.11532,0.54829
6031.18658,0.54655
6029.25783,0.54552
6027.32909,0.54516
6025.40034,0.54499
6023.47159,0.54464
6021.54285,0.54379
6019.61410,0.54252
6017.68536,0.54168
6015.75661,0.54261
6013.82787,0.54454
6011.89912,0.54605
6009.97038,0.54796
6008.04163,0.55097
6006.11289,0.55374
6004.18414,0.55492
6002.25540,0.55514
6000.32665,0.55623
5998.39791,0.55899
5996.46916,0.56199
5994.54041,0.56349
5992.61167,0.56320
5990.68292,0.56149
5988.75418,0.56044
5986.82543,0.56218
5984.89669,0.56546
5982.96794,0.56798
5981.03920,0.56854
5979.11045,0.56745
5977.18171,0.56721
5975.25296,0.56907
5973.32422,0.57091
5971.39547,0.57144
5969.46673,0.57152
5967.53798,0.57182
5965.60924,0.57282
5963.68049,0.57420
5961.75174,0.57485
5959.82300,0.57539
5957.89425,0.57603
5955.96551,0.57569
5954.03676,0.57518
5952.10802,0.57583
5950.17927,0.57657
5948.25053,0.57651
5946.32178,0.57692
5944.39304,0.57703
5942.46429,0.57562
5940.53555,0.57494
5938.60680,0.57587
5936.67806,0.57655
5934.74931,0.57631
5932.82057,0.57587
5930.89182,0.57649
5928.96307,0.57808
5927.03433,0.57876
5925.10558,0.57861
5923.17684,0.57993
5921.24809,0.58257
5919.31935,0.58391
5917.39060,0.58294
5915.46186,0.58135
5913.53311,0.58120
5911.60437,0.58198
5909.67562,0.58227
5907.74688,0.58248
5905.81813,0.58292
5903.88939,0.58294
5901.96064,0.58273
5900.03189,0.58274
5898.10315,0.58258
5896.17440,0.58206
5894.24566,0.58165
5892.31691,0.58100
5890.38817,0.57947
5888.45942,0.57796
5886.53068,0.57763
5884.60193,0.57834
5882.67319,0.57866
5880.74444,0.57692
5878.81570,0.57470
5876.88695,0.57402
5874.95821,0.57328
5873.02946,0.57185
5871.10072,0.57179
5869.17197,0.57300
5867.24322,0.57272
5865.31448,0.57065
5863.38573,0.56928
5861.45699,0.56940
5859.52824,0.57022
5857.59950,0.57089
5855.67075,0.57105
5853.74201,0.57062
5851.81326,0.56948
5849.88452,0.56844
5847.95577,0.56859
5846.02703,0.57042
5844.09828,0.57306
5842.16954,0.57413
5840.24079,0.57274
5838.31205,0.57077
5836.38330,0.57015
5834.45455,0.57029
5832.52581,0.57001
5830.59706,0.56985
5828.66832,0.57004
5826.73957,0.56987
5824.81083,0.56962
5822.88208,0.56983
5820.95334,0.57005
5819.02459,0.56991
5817.09585,0.56965
5815.16710,0.56972
5813.23836,0.56976
5811.30961,0.56895
5809.38087,0.56754
5807.45212,0.56652
5805.52337,0.56680
5803.59463,0.56791
5801.66588,0.56844
5799.73714,0.56889
5797.80839,0.56942
5795.87965,0.56874
5793.95090,0.56776
5792.02216,0.56770
5790.09341,0.56714
5788.16467,0.56577
5786.23592,0.56518
5784.30718,0.56526
5782.37843,0.56494
5780.44969,0.56449
5778.52094,0.56523
5776.59220,0.56707
5774.66345,0.56785
5772.73470,0.56748
5770.80596,0.56741
5768.87721,0.56650
5766.94847,0.56447
5765.01972,0.56413
5763.09098,0.56633
5761.16223,0.56870
5759.23349,0.56958
5757.30474,0.56910
5755.37600,0.56832
5753.44725,0.56793
5751.51851,0.56747
5749.58976,0.56724
5747.66102,0.56823
5745.73227,0.56994
5743.80352,0.57153
5741.87478,0.57245
5739.94603,0.57175
5738.01729,0.57004
5736.08854,0.56928
5734.15980,0.56962
5732.23105,0.57079
5730.30231,0.57281
5728.37356,0.57423
5726.44482,0.57459
5724.51607,0.57481
5722.58733,0.57455
5720.65858,0.57326
5718.72984,0.57183
5716.80109,0.57171
5714.87235,0.57277
5712.94360,0.57319
5711.01485,0.57207
5709.08611,0.57106
5707.15736,0.57137
5705.22862,0.57203
5703.29987,0.57237
5701.37113,0.57252
5699.44238,0.57243
5697.51364,0.57189
5695.58489,0.57086
5693.65615,0.57030
5691.72740,0.57113
5689.79866,0.57271
5687.86991,0.57357
5685.94117,0.57357
5684.01242,0.57362
5682.08368,0.57329
5680.15493,0.57211
5678.22618,0.57140
5676.29744,0.57197
5674.36869,0.57265
5672.43995,0.57223
5670.51120,0.57124
5668.58246,0.57087
5666.65371,0.57113
5664.72497,0.57141
5662.79622,0.57184
5660.86748,0.57263
5658.93873,0.57303
5657.00999,0.57264
5655.08124,0.57243
5653.15250,0.57278
5651.22375,0.57293
5649.29500,0.57260
5647.36626,0.57197
5645.43751,0.57132
5643.50877,0.57097
5641.58002,0.57103
5639.65128,0.57145
5637.72253,0.57190
5635.79379,0.57225
5633.86504,0.57284
5631.93630,0.57349
5630.00755,0.57380
5628.07881,0.57406
5626.15006,0.57454
5624.22132,0.57461
5622.29257,0.57395
5620.36383,0.57384
5618.43508,0.57489
5616.50633,0.57558
5614.57759,0.57506
5612.64884,0.57482
5610.72010,0.57590
5608.79135,0.57705
5606.86261,0.57675
5604.93386,0.57578
5603.00512,0.57584
5601.07637,0.57654
5599.14763,0.57616
5597.21888,0.57478
5595.29014,0.57444
5593.36139,0.57573
5591.43265,0.57702
5589.50390,0.57725
5587.57516,0.57640
5585.64641,0.57523
5583.71766,0.57539
5581.78892,0.57679
5579.86017,0.57742
5577.93143,0.57657
5576.00268,0.57525
5574.07394,0.57461
5572.14519,0.57468
5570.21645,0.57465
5568.28770,0.57498
5566.35896,0.57620
5564.43021,0.57652
5562.50147,0.57509
5560.57272,0.57372
5558.64398,0.57372
5556.71523,0.57449
5554.78648,0.57486
5552.85774,0.57492
5550.92899,0.57564
5549.00025,0.57693
5547.07150,0.57749
5545.14276,0.57700
5543.21401,0.57669
5541.28527,0.57668
5539.35652,0.57615
5537.42778,0.57551
5535.49903,0.57554
5533.57029,0.57588
5531.64154,0.57558
5529.71280,0.57438
5527.78405,0.57345
5525.85531,0.57372
5523.92656,0.57467
5521.99781,0.57565
5520.06907,0.57622
5518.14032,0.57614
5516.21158,0.57610
5514.28283,0.57623
5512.35409,0.57605
5510.42534,0.57587
5508.49660,0.57618
5506.56785,0.57671
5504.63911,0.57669
5502.71036,0.57653
5500.78162,0.57688
5498.85287,0.57665
5496.92413,0.57557
5494.99538,0.57486
5493.06664,0.57498
5491.13789,0.57579
5489.20914,0.57668
5487.28040,0.57703
5485.35165,0.57710
5483.42291,0.57673
5481.49416,0.57591
5479.56542,0.57568
5477.63667,0.57629
5475.70793,0.57711
5473.77918,0.57757
5471.85044,0.57773
5469.92169,0.57827
5467.99295,0.57879
5466.06420,0.57840
5464.13546,0.57774
5462.20671,0.57761
5460.27796,0.57804
5458.34922,0.57893
5456.42047,0.57981
5454.49173,0.58027
5452.56298,0.58016
5450.63424,0.57952
5448.70549,0.57941
5446.77675,0.58047
5444.84800,0.58170
5442.91926,0.58233
5440.99051,0.58280
5439.06177,0.58340
5437.13302,0.58409
5435.20428,0.58489
5433.27553,0.58510
5431.34679,0.58448
5429.41804,0.58426
5427.48929,0.58528
5425.56055,0.58656
5423.63180,0.58689
5421.70306,0.58682
5419.77431,0.58728
5417.84557,0.58817
5415.91682,0.58940
5413.98808,0.59040
5412.05933,0.59028
5410.13059,0.58968
5408.20184,0.58963
5406.27310,0.59001
5404.34435,0.59022
5402.41561,0.59035
5400.48686,0.59092
5398.55811,0.59155
5396.62937,0.59171
5394.70062,0.59189
5392.77188,0.59219
5390.84313,0.59203
5388.91439,0.59147
5386.98564,0.59093
5385.05690,0.59082
5383.12815,0.59117
5381.19941,0.59131
5379.27066,0.59094
5377.34192,0.59086
5375.41317,0.59160
5373.48443,0.59231
5371.55568,0.59221
5369.62694,0.59152
5367.69819,0.59102
5365.76944,0.59126
5363.84070,0.59214
5361.91195,0.59297
5359.98321,0.59320
5358.05446,0.59292
5356.12572,0.59247
5354.19697,0.59208
5352.26823,0.59166
5350.33948,0.59103
5348.41074,0.59042
5346.48199,0.59040
5344.55325,0.59083
5342.62450,0.59085
5340.69576,0.59048
5338.76701,0.59050
5336.83827,0.59073
5334.90952,0.58982
5332.98077,0.58778
5331.05203,0.58629
5329.12328,0.58589
5327.19454,0.58550
5325.26579,0.58449
5323.33705,0.58365
5321.40830,0.58349
5319.47956,0.58336
5317.55081,0.58297
5315.62207,0.58265
5313.69332,0.58223
5311.76458,0.58107
5309.83583,0.57945
5307.90709,0.57813
5305.97834,0.57699
5304.04959,0.57607
5302.12085,0.57526
5300.19210,0.57396
5298.26336,0.57250
5296.33461,0.57145
5294.40587,0.57035
5292.47712,0.56839
5290.54838,0.56584
5288.61963,0.56348
5286.69089,0.56162
5284.76214,0.56005
5282.83340,0.55771
5280.90465,0.55438
5278.97591,0.55131
5277.04716,0.54887
5275.11842,0.54648
5273.18967,0.54402
5271.26092,0.54169
5269.33218,0.53951
5267.40343,0.53750
5265.47469,0.53555
5263.54594,0.53331
5261.61720,0.53069
5259.68845,0.52786
5257.75971,0.52460
5255.83096,0.52089
5253.90222,0.51768
5251.97347,0.51545
5250.04473,0.51342
5248.11598,0.51097
5246.18724,0.50866
5244.25849,0.50724
5242.32975,0.50605
5240.40100,0.50408
5238.47225,0.50182
5236.54351,0.49975
5234.61476,0.49769
5232.68602,0.49587
5230.75727,0.49429
5228.82853,0.49290
5226.89978,0.49177
5224.97104,0.49021
5223.04229,0.48838
5221.11355,0.48740
5219.18480,0.48722
5217.25606,0.48668
5215.32731,0.48515
5213.39857,0.48324
5211.46982,0.48195
5209.54107,0.48162
5207.61233,0.48171
5205.68358,0.48139
5203.75484,0.48064
5201.82609,0.48003
5199.89735,0.47963
5197.96860,0.47941
5196.03986,0.47934
5194.11111,0.47877
5192.18237,0.47765
5190.25362,0.47689
5188.32488,0.47680
5186.39613,0.47686
5184.46739,0.47670
5182.53864,0.47652
5180.60990,0.47645
5178.68115,0.47629
5176.75240,0.47634
5174.82366,0.47693
5172.89491,0.47750
5170.96617,0.47752
5169.03742,0.47709
5167.10868,0.47659
5165.17993,0.47643
5163.25119,0.47686
5161.32244,0.47742
5159.39370,0.47764
5157.46495,0.47798
5155.53621,0.47857
5153.60746,0.47894
5151.67872,0.47906
5149.74997,0.47940
5147.82123,0.48009
5145.89248,0.48079
5143.96373,0.48134
5142.03499,0.48190
5140.10624,0.48294
5138.17750,0.48459
5136.24875,0.48566
5134.32001,0.48563
5132.39126,0.48567
5130.46252,0.48633
5128.53377,0.48743
5126.60503,0.48868
5124.67628,0.48936
5122.74754,0.48932
5120.81879,0.48923
5118.89005,0.48957
5116.96130,0.49037
5115.03255,0.49102
5113.10381,0.49132
5111.17506,0.49215
5109.24632,0.49350
5107.31757,0.49446
5105.38883,0.49540
5103.46008,0.49656
5101.53134,0.49726
5099.60259,0.49778
5097.67385,0.49858
5095.74510,0.49923
5093.81636,0.50002
5091.88761,0.50157
5089.95887,0.50297
5088.03012,0.50360
5086.10138,0.50402
5084.17263,0.50447
5082.24388,0.50518
5080.31514,0.50654
5078.38639,0.50812
5076.45765,0.50905
5074.52890,0.50938
5072.60016,0.51003
5070.67141,0.51134
5068.74267,0.51254
5066.81392,0.51319
5064.88518,0.51373
5062.95643,0.51453
5061.02769,0.51554
5059.09894,0.51642
5057.17020,0.51672
5055.24145,0.51704
5053.31270,0.51810
5051.38396,0.51913
5049.45521,0.51943
5047.52647,0.51954
5045.59772,0.51980
5043.66898,0.52002
5041.74023,0.52027
5039.81149,0.52067
5037.88274,0.52155
5035.95400,0.52297
5034.02525,0.52380
5032.09651,0.52354
5030.16776,0.52337
5028.23902,0.52403
5026.31027,0.52494
5024.38153,0.52543
5022.45278,0.52559
5020.52403,0.52599
5018.59529,0.52653
5016.66654,0.52703
5014.73780,0.52754
5012.80905,0.52778
5010.88031,0.52779
5008.95156,0.52761
5007.02282,0.52730
5005.09407,0.52764
5003.16533,0.52849
5001.23658,0.52898
4999.30784,0.52923
4997.37909,0.52932
4995.45035,0.52930
4993.52160,0.52968
4991.59286,0.53018
4989.66411,0.53010
4987.73536,0.52972
4985.80662,0.52946
4983.87787,0.52928
4981.94913,0.52919
4980.02038,0.52895
4978.09164,0.52831
4976.16289,0.52779
4974.23415,0.52775
4972.30540,0.52771
4970.37666,0.52743
4968.44791,0.52712
4966.51917,0.52669
4964.59042,0.52618
4962.66168,0.52572
4960.73293,0.52498
4958.80418,0.52380
4956.87544,0.52296
4954.94669,0.52267
4953.01795,0.52198
4951.08920,0.52073
4949.16046,0.51952
4947.23171,0.51827
4945.30297,0.51721
4943.37422,0.51687
4941.44548,0.51667
4939.51673,0.51579
4937.58799,0.51453
4935.65924,0.51350
4933.73050,0.51252
4931.80175,0.51093
4929.87301,0.50925
4927.94426,0.50821
4926.01551,0.50700
4924.08677,0.50490
4922.15802,0.50273
4920.22928,0.50158
4918.30053,0.50128
4916.37179,0.50038
4914.44304,0.49834
4912.51430,0.49629
4910.58555,0.49456
4908.65681,0.49271
4906.72806,0.49107
4904.79932,0.48961
4902.87057,0.48764
4900.94183,0.48526
4899.01308,0.48300
4897.08434,0.48108
4895.15559,0.47946
4893.22684,0.47809
4891.29810,0.47671
4889.36935,0.47489
4887.44061,0.47271
4885.51186,0.47076
4883.58312,0.46926
4881.65437,0.46783
4879.72563,0.46607
4877.79688,0.46409
4875.86814,0.46187
4873.93939,0.45942
4872.01065,0.45732
4870.08190,0.45603
4868.15316,0.45537
4866.22441,0.45461
4864.29566,0.45325
4862.36692,0.45164
4860.43817,0.45014
4858.50943,0.44885
4856.58068,0.44782
4854.65194,0.44667
4852.72319,0.44511
4850.79445,0.44341
4848.86570,0.44178
4846.93696,0.44017
4845.00821,0.43875
4843.07947,0.43769
4841.15072,0.43675
4839.22198,0.43560
4837.29323,0.43411
4835.36449,0.43253
4833.43574,0.43111
4831.50699,0.42967
4829.57825,0.42809
4827.64950,0.42635
4825.72076,0.42453
4823.79201,0.42296
4821.86327,0.42159
4819.93452,0.42009
4818.00578,0.41878
4816.07703,0.41802
4814.14829,0.41737
4812.21954,0.41637
4810.29080,0.41505
4808.36205,0.41382
4806.43331,0.41310
4804.50456,0.41239
4802.57582,0.41087
4800.64707,0.40913
4798.71832,0.40836
4796.78958,0.40820
4794.86083,0.40782
4792.93209,0.40714
4791.00334,0.40655
4789.07460,0.40629
4787.14585,0.40609
4785.21711,0.40569
4783.28836,0.40535
4781.35962,0.40496
4779.43087,0.40441
4777.50213,0.40416
4775.57338,0.40402
4773.64464,0.40353
4771.71589,0.40309
4769.78714,0.40278
4767.85840,0.40202
4765.92965,0.40108
4764.00091,0.40065
4762.07216,0.40043
4760.14342,0.40022
4758.21467,0.40048
4756.28593,0.40095
4754.35718,0.40073
4752.42844,0.39986
4750.49969,0.39919
4748.57095,0.39899
4746.64220,0.39875
4744.71346,0.39819
4742.78471,0.39784
4740.85597,0.39793
4738.92722,0.39793
4736.99847,0.39756
4735.06973,0.39742
4733.14098,0.39788
4731.21224,0.39801
4729.28349,0.39727
4727.35475,0.39663
4725.42600,0.39661
4723.49726,0.39664
4721.56851,0.39649
4719.63977,0.39655
4717.71102,0.39673
4715.78228,0.39681
4713.85353,0.39721
4711.92479,0.39797
4709.99604,0.39852
4708.06729,0.39878
4706.13855,0.39896
4704.20980,0.39907
4702.28106,0.39910
4700.35231,0.39889
4698.42357,0.39817
4696.49482,0.39732
4694.56608,0.39699
4692.63733,0.39703
4690.70859,0.39705
4688.77984,0.39748
4686.85110,0.39878
4684.92235,0.40045
4682.99361,0.40186
4681.06486,0.40325
4679.13612,0.40522
4677.20737,0.40767
4675.27862,0.41000
4673.34988,0.41178
4671.42113,0.41307
4669.49239,0.41443
4667.56364,0.41597
4665.63490,0.41710
4663.70615,0.41780
4661.77741,0.41857
4659.84866,0.41956
4657.91992,0.42040
4655.99117,0.42092
4654.06243,0.42136
4652.13368,0.42182
4650.20494,0.42218
4648.27619,0.42240
4646.34745,0.42245
4644.41870,0.42175
4642.48995,0.42018
4640.56121,0.41910
4638.63246,0.41937
4636.70372,0.42016
4634.77497,0.42064
4632.84623,0.42109
4630.91748,0.42202
4628.98874,0.42354
4627.05999,0.42553
4625.13125,0.42787
4623.20250,0.43043
4621.27376,0.43279
4619.34501,0.43477
4617.41627,0.43670
4615.48752,0.43864
4613.55877,0.44021
4611.63003,0.44126
4609.70128,0.44210
4607.77254,0.44273
4605.84379,0.44298
4603.91505,0.44333
4601.98630,0.44400
4600.05756,0.44436
4598.12881,0.44415
4596.20007,0.44363
4594.27132,0.44290
4592.34258,0.44251
4590.41383,0.44310
4588.48509,0.44406
4586.55634,0.44455
4584.62760,0.44464
4582.69885,0.44472
4580.77010,0.44510
4578.84136,0.44571
4576.91261,0.44645
4574.98387,0.44780
4573.05512,0.45003
4571.12638,0.45254
4569.19763,0.45473
4567.26889,0.45666
4565.34014,0.45847
4563.41140,0.45993
4561.48265,0.46077
4559.55391,0.46112
4557.62516,0.46142
4555.69642,0.46213
4553.76767,0.46310
4551.83893,0.46407
4549.91018,0.46516
4547.98143,0.46606
4546.05269,0.46651
4544.12394,0.46701
4542.19520,0.46781
4540.26645,0.46849
4538.33771,0.46905
4536.40896,0.46973
4534.48022,0.47016
4532.55147,0.47002
4530.62273,0.46984
4528.69398,0.47024
4526.76524,0.47059
4524.83649,0.47023
4522.90775,0.46970
4520.97900,0.46941
4519.05025,0.46922
4517.12151,0.46915
4515.19276,0.46908
4513.26402,0.46888
4511.33527,0.46857
4509.40653,0.46790
4507.47778,0.46701
4505.54904,0.46646
4503.62029,0.46616
4501.69155,0.46539
4499.76280,0.46379
4497.83406,0.46173
4495.90531,0.45984
4493.97657,0.45830
4492.04782,0.45671
4490.11908,0.45514
4488.19033,0.45396
4486.26158,0.45309
4484.33284,0.45241
4482.40409,0.45171
4480.47535,0.45074
4478.54660,0.44951
4476.61786,0.44791
4474.68911,0.44612
4472.76037,0.44437
4470.83162,0.44240
4468.90288,0.43983
4466.97413,0.43645
4465.04539,0.43233
4463.11664,0.42817
4461.18790,0.42472
4459.25915,0.42221
4457.33041,0.42048
4455.40166,0.41905
4453.47291,0.41768
4451.54417,0.41636
4449.61542,0.41477
4447.68668,0.41271
4445.75793,0.41057
4443.82919,0.40845
4441.90044,0.40590
4439.97170,0.40306
4438.04295,0.40054
4436.11421,0.39834
4434.18546,0.39605
4432.25672,0.39367
4430.32797,0.39161
4428.39923,0.39038
4426.47048,0.38970
4424.54173,0.38873
4422.61299,0.38746
4420.68424,0.38632
4418.75550,0.38533
4416.82675,0.38416
4414.89801,0.38248
4412.96926,0.38041
4411.04052,0.37838
4409.11177,0.37663
4407.18303,0.37505
4405.25428,0.37338
4403.32554,0.37176
4401.39679,0.37079
4399.46805,0.37071
4397.53930,0.37127
4395.61056,0.37210
4393.68181,0.37308
4391.75306,0.37421
4389.82432,0.37535
4387.89557,0.37649
4385.96683,0.37806
4384.03808,0.38012
4382.10934,0.38196
4380.18059,0.38316
4378.25185,0.38412
4376.32310,0.38512
4374.39436,0.38592
4372.46561,0.38632
4370.53687,0.38655
4368.60812,0.38684
4366.67938,0.38713
4364.75063,0.38732
4362.82189,0.38713
4360.89314,0.38654
4358.96439,0.38598
4357.03565,0.38568
4355.10690,0.38537
4353.17816,0.38477
4351.24941,0.38373
4349.32067,0.38254
4347.39192,0.38147
4345.46318,0.38057
4343.53443,0.37997
4341.60569,0.37947
4339.67694,0.37861
4337.74820,0.37743
4335.81945,0.37637
4333.89071,0.37551
4331.96196,0.37451
4330.03321,0.37323
4328.10447,0.37201
4326.17572,0.37104
4324.24698,0.37015
4322.31823,0.36892
4320.38949,0.36746
4318.46074,0.36640
4316.53200,0.36574
4314.60325,0.36491
4312.67451,0.36386
4310.74576,0.36265
4308.81702,0.36113
4306.88827,0.35946
4304.95953,0.35789
4303.03078,0.35638
4301.10204,0.35487
4299.17329,0.35352
4297.24454,0.35246
4295.31580,0.35139
4293.38705,0.35000
4291.45831,0.34866
4289.52956,0.34793
4287.60082,0.34771
4285.67207,0.34749
4283.74333,0.34706
4281.81458,0.34649
4279.88584,0.34591
4277.95709,0.34572
4276.02835,0.34591
4274.09960,0.34599
4272.17086,0.34603
4270.24211,0.34635
4268.31336,0.34680
4266.38462,0.34720
4264.45587,0.34767
4262.52713,0.34830
4260.59838,0.34895
4258.66964,0.34944
4256.74089,0.34976
4254.81215,0.34973
4252.88340,0.34935
4250.95466,0.34904
4249.02591,0.34900
4247.09717,0.34907
4245.16842,0.34917
4243.23968,0.34939
4241.31093,0.34981
4239.38219,0.35062
4237.45344,0.35164
4235.52469,0.35230
4233.59595,0.35263
4231.66720,0.35311
4229.73846,0.35386
4227.80971,0.35462
4225.88097,0.35516
4223.95222,0.35552
4222.02348,0.35576
4220.09473,0.35588
4218.16599,0.35594
4216.23724,0.35610
4214.30850,0.35663
4212.37975,0.35770
4210.45101,0.35884
4208.52226,0.35958
4206.59352,0.36017
4204.66477,0.36108
4202.73602,0.36233
4200.80728,0.36358
4198.87853,0.36445
4196.94979,0.36472
4195.02104,0.36471
4193.09230,0.36466
4191.16355,0.36441
4189.23481,0.36394
4187.30606,0.36341
4185.37732,0.36287
4183.44857,0.36219
4181.51983,0.36128
4179.59108,0.36056
4177.66234,0.36045
4175.73359,0.36083
4173.80484,0.36144
4171.87610,0.36228
4169.94735,0.36353
4168.01861,0.36511
4166.08986,0.36656
4164.16112,0.36760
4162.23237,0.36841
4160.30363,0.36909
4158.37488,0.36943
4156.44614,0.36947
4154.51739,0.36947
4152.58865,0.36948
4150.65990,0.36926
4148.73116,0.36845
4146.80241,0.36728
4144.87367,0.36629
4142.94492,0.36552
4141.01617,0.36464
4139.08743,0.36358
4137.15868,0.36257
4135.22994,0.36169
4133.30119,0.36083
4131.37245,0.36003
4129.44370,0.35933
4127.51496,0.35865
4125.58621,0.35801
4123.65747,0.35710
4121.72872,0.35565
4119.79998,0.35403
4117.87123,0.35250
4115.94249,0.35081
4114.01374,0.34909
4112.08500,0.34741
4110.15625,0.34529
4108.22750,0.34282
4106.29876,0.34030
4104.37001,0.33754
4102.44127,0.33443
4100.51252,0.33105
4098.58378,0.32712
4096.65503,0.32267
4094.72629,0.31832
4092.79754,0.31461
4090.86880,0.31181
4088.94005,0.31013
4087.01131,0.30958
4085.08256,0.30971
4083.15382,0.31019
4081.22507,0.31102
4079.29632,0.31187
4077.36758,0.31254
4075.43883,0.31316
4073.51009,0.31353
4071.58134,0.31329
4069.65260,0.31238
4067.72385,0.31115
4065.79511,0.31003
4063.86636,0.30889
4061.93762,0.30767
4060.00887,0.30660
4058.08013,0.30535
4056.15138,0.30365
4054.22264,0.30199
4052.29389,0.30052
4050.36515,0.29886
4048.43640,0.29691
4046.50765,0.29504
4044.57891,0.29348
4042.65016,0.29212
4040.72142,0.29088
4038.79267,0.28965
4036.86393,0.28859
4034.93518,0.28797
4033.00644,0.28745
4031.07769,0.28665
4029.14895,0.28583
4027.22020,0.28547
4025.29146,0.28546
4023.36271,0.28540
4021.43397,0.28523
4019.50522,0.28501
4017.57648,0.28483
4015.64773,0.28492
4013.71898,0.28527
4011.79024,0.28575
4009.86149,0.28644
4007.93275,0.28733
4006.00400,0.28808
4004.07526,0.28869
4002.14651,0.28937
4000.21777,0.29003
3998.28902,0.29062
3996.36028,0.29144
3994.43153,0.29255
3992.50279,0.29354
3990.57404,0.29423
3988.64530,0.29492
3986.71655,0.29588
3984.78780,0.29692
3982.85906,0.29761
3980.93031,0.29801
3979.00157,0.29846
3977.07282,0.29891
3975.14408,0.29918
3973.21533,0.29940
3971.28659,0.29994
3969.35784,0.30077
3967.42910,0.30163
3965.50035,0.30254
3963.57161,0.30351
3961.64286,0.30438
3959.71412,0.30525
3957.78537,0.30615
3955.85663,0.30702
3953.92788,0.30791
3951.99913,0.30875
3950.07039,0.30952
3948.14164,0.31023
3946.21290,0.31096
3944.28415,0.31190
3942.35541,0.31301
3940.42666,0.31405
3938.49792,0.31483
3936.56917,0.31555
3934.64043,0.31658
3932.71168,0.31771
3930.78294,0.31871
3928.85419,0.31974
3926.92545,0.32083
3924.99670,0.32206
3923.06795,0.32336
3921.13921,0.32424
3919.21046,0.32477
3917.28172,0.32535
3915.35297,0.32594
3913.42423,0.32658
3911.49548,0.32754
3909.56674,0.32878
3907.63799,0.32983
3905.70925,0.33058
3903.78050,0.33148
3901.85176,0.33255
3899.92301,0.33337
3897.99427,0.33409
3896.06552,0.33508
3894.13678,0.33610
3892.20803,0.33683
3890.27928,0.33759
3888.35054,0.33863
3886.42179,0.33979
3884.49305,0.34076
3882.56430,0.34135
3880.63556,0.34174
3878.70681,0.34217
3876.77807,0.34266
3874.84932,0.34329
3872.92058,0.34399
3870.99183,0.34474
3869.06309,0.34574
3867.13434,0.34694
3865.20560,0.34827
3863.27685,0.34987
3861.34811,0.35151
3859.41936,0.35283
3857.49061,0.35391
3855.56187,0.35504
3853.63312,0.35626
3851.70438,0.35708
3849.77563,0.35742
3847.84689,0.35785
3845.91814,0.35880
3843.98940,0.36010
3842.06065,0.36108
3840.13191,0.36158
3838.20316,0.36210
3836.27442,0.36260
3834.34567,0.36302
3832.41693,0.36349
3830.48818,0.36379
3828.55943,0.36387
3826.63069,0.36388
3824.70194,0.36376
3822.77320,0.36360
3820.84445,0.36349
3818.91571,0.36334
3816.98696,0.36302
3815.05822,0.36262
3813.12947,0.36215
3811.20073,0.36158
3809.27198,0.36104
3807.34324,0.36062
3805.41449,0.36030
3803.48575,0.36020
3801.55700,0.36053
3799.62826,0.36123
3797.69951,0.36191
3795.77076,0.36243
3793.84202,0.36285
3791.91327,0.36321
3789.98453,0.36345
3788.05578,0.36344
3786.12704,0.36320
3784.19829,0.36296
3782.26955,0.36264
3780.34080,0.36200
3778.41206,0.36131
3776.48331,0.36085
3774.55457,0.36040
3772.62582,0.35982
3770.69708,0.35940
3768.76833,0.35916
3766.83959,0.35866
3764.91084,0.35777
3762.98209,0.35676
3761.05335,0.35593
3759.12460,0.35521
3757.19586,0.35452
3755.26711,0.35407
3753.33837,0.35407
3751.40962,0.35434
3749.48088,0.35441
3747.55213,0.35415
3745.62339,0.35365
3743.69464,0.35284
3741.76590,0.35193
3739.83715,0.35104
3737.90841,0.34997
3735.97966,0.34855
3734.05091,0.34695
3732.12217,0.34554
3730.19342,0.34455
3728.26468,0.34375
3726.33593,0.34289
3724.40719,0.34194
3722.47844,0.34074
3720.54970,0.33908
3718.62095,0.33702
3716.69221,0.33506
3714.76346,0.33344
3712.83472,0.33173
3710.90597,0.32926
3708.97723,0.32631
3707.04848,0.32337
3705.11974,0.32024
3703.19099,0.31668
3701.26224,0.31284
3699.33350,0.30914
3697.40475,0.30541
3695.47601,0.30120
3693.54726,0.29660
3691.61852,0.29183
3689.68977,0.28653
3687.76103,0.28077
3685.83228,0.27593
3683.90354,0.27228
3681.97479,0.26872
3680.04605,0.26481
3678.11730,0.26059
3676.18856,0.25538
3674.25981,0.24929
3672.33107,0.24355
3670.40232,0.23780
3668.47357,0.23175
3666.54483,0.22602
3664.61608,0.22031
3662.68734,0.21440
3660.75859,0.20839
3658.82985,0.20242
3656.90110,0.19646
3654.97236,0.19067
3653.04361,0.18554
3651.11487,0.18063
3649.18612,0.17528
3647.25738,0.16997
3645.32863,0.16518
3643.39989,0.16080
3641.47114,0.15669
3639.54239,0.15276
3637.61365,0.14893
3635.68490,0.14500
3633.75616,0.14104
3631.82741,0.13754
3629.89867,0.13418
3627.96992,0.13051
3626.04118,0.12726
3624.11243,0.12461
3622.18369,0.12190
3620.25494,0.11883
3618.32620,0.11586
3616.39745,0.11327
3614.46871,0.11069
3612.53996,0.10806
3610.61122,0.10570
3608.68247,0.10339
3606.75372,0.10083
3604.82498,0.09827
3602.89623,0.09593
3600.96749,0.09390
3599.03874,0.09215
3597.11000,0.09022
3595.18125,0.08800
3593.25251,0.08600
3591.32376,0.08430
3589.39502,0.08247
3587.46627,0.08059
3585.53753,0.07900
3583.60878,0.07764
3581.68004,0.07625
3579.75129,0.07471
3577.82254,0.07313
3575.89380,0.07163
3573.96505,0.07026
3572.03631,0.06913
3570.10756,0.06804
3568.17882,0.06658
3566.25007,0.06502
3564.32133,0.06380
3562.39258,0.06265
3560.46384,0.06149
3558.53509,0.06065
3556.60635,0.05998
3554.67760,0.05907
3552.74886,0.05803
3550.82011,0.05715
3548.89137,0.05633
3546.96262,0.05543
3545.03387,0.05475
3543.10513,0.05433
3541.17638,0.05378
3539.24764,0.05303
3537.31889,0.05230
3535.39015,0.05163
3533.46140,0.05102
3531.53266,0.05047
3529.60391,0.04985
3527.67517,0.04922
3525.74642,0.04864
3523.81768,0.04815
3521.88893,0.04773
3519.96019,0.04742
3518.03144,0.04730
3516.10270,0.04716
3514.17395,0.04678
3512.24520,0.04630
3510.31646,0.04594
3508.38771,0.04584
3506.45897,0.04590
3504.53022,0.04563
3502.60148,0.04487
3500.67273,0.04411
3498.74399,0.04360
3496.81524,0.04325
3494.88650,0.04320
3492.95775,0.04323
3491.02901,0.04291
3489.10026,0.04254
3487.17152,0.04228
3485.24277,0.04190
3483.31402,0.04155
3481.38528,0.04147
3479.45653,0.04145
3477.52779,0.04138
3475.59904,0.04127
3473.67030,0.04098
3471.74155,0.04056
3469.81281,0.04022
3467.88406,0.03989
3465.95532,0.03946
3464.02657,0.03901
3462.09783,0.03869
3460.16908,0.03848
3458.24034,0.03821
3456.31159,0.03793
3454.38285,0.03776
3452.45410,0.03761
3450.52535,0.03720
3448.59661,0.03651
3446.66786,0.03606
3444.73912,0.03607
3442.81037,0.03613
3440.88163,0.03592
3438.95288,0.03563
3437.02414,0.03548
3435.09539,0.03545
3433.16665,0.03544
3431.23790,0.03534
3429.30916,0.03508
3427.38041,0.03490
3425.45167,0.03504
3423.52292,0.03533
3421.59418,0.03568
3419.66543,0.03626
3417.73668,0.03691
3415.80794,0.03734
3413.87919,0.03749
3411.95045,0.03744
3410.02170,0.03751
3408.09296,0.03789
3406.16421,0.03852
3404.23547,0.03906
3402.30672,0.03910
3400.37798,0.03882
3398.44923,0.03876
3396.52049,0.03900
3394.59174,0.03943
3392.66300,0.03990
3390.73425,0.04001
3388.80550,0.03970
3386.87676,0.03940
3384.94801,0.03937
3383.01927,0.03956
3381.09052,0.03982
3379.16178,0.03997
3377.23303,0.04001
3375.30429,0.03997
3373.37554,0.03981
3371.44680,0.03961
3369.51805,0.03942
3367.58931,0.03932
3365.66056,0.03940
3363.73182,0.03967
3361.80307,0.03990
3359.87433,0.04011
3357.94558,0.04037
3356.01683,0.04044
3354.08809,0.04035
3352.15934,0.04041
3350.23060,0.04066
3348.30185,0.04090
3346.37311,0.04091
3344.44436,0.04073
3342.51562,0.04060
3340.58687,0.04063
3338.65813,0.04077
3336.72938,0.04076
3334.80064,0.04073
3332.87189,0.04117
3330.94315,0.04182
3329.01440,0.04204
3327.08566,0.04196
3325.15691,0.04192
3323.22816,0.04172
3321.29942,0.04149
3319.37067,0.04181
3317.44193,0.04248
3315.51318,0.04260
3313.58444,0.04215
3311.65569,0.04200
3309.72695,0.04238
3307.79820,0.04290
3305.86946,0.04321
3303.94071,0.04307
3302.01197,0.04284
3300.08322,0.04295
3298.15448,0.04320
3296.22573,0.04329
3294.29698,0.04328
3292.36824,0.04326
3290.43949,0.04335
3288.51075,0.04353
3286.58200,0.04362
3284.65326,0.04361
3282.72451,0.04357
3280.79577,0.04345
3278.86702,0.04348
3276.93828,0.04405
3275.00953,0.04481
3273.08079,0.04500
3271.15204,0.04475
3269.22330,0.04479
3267.29455,0.04518
3265.36581,0.04561
3263.43706,0.04614
3261.50831,0.04662
3259.57957,0.04677
3257.65082,0.04677
3255.72208,0.04680
3253.79333,0.04685
3251.86459,0.04701
3249.93584,0.04729
3248.00710,0.04757
3246.07835,0.04782
3244.14961,0.04812
3242.22086,0.04855
3240.29212,0.04876
3238.36337,0.04850
3236.43463,0.04833
3234.50588,0.04856
3232.57713,0.04899
3230.64839,0.04956
3228.71964,0.05007
3226.79090,0.05035
3224.86215,0.05049
3222.93341,0.05066
3221.00466,0.05103
3219.07592,0.05158
3217.14717,0.05215
3215.21843,0.05276
3213.28968,0.05339
3211.36094,0.05389
3209.43219,0.05423
3207.50345,0.05459
3205.57470,0.05501
3203.64596,0.05521
3201.71721,0.05518
3199.78846,0.05528
3197.85972,0.05578
3195.93097,0.05632
3194.00223,0.05651
3192.07348,0.05657
3190.14474,0.05687
3188.21599,0.05746
3186.28725,0.05808
3184.35850,0.05856
3182.42976,0.05895
3180.50101,0.05934
3178.57227,0.05982
3176.64352,0.06030
3174.71478,0.06066
3172.78603,0.06106
3170.85729,0.06154
3168.92854,0.06182
3166.99979,0.06192
3165.07105,0.06232
3163.14230,0.06302
3161.21356,0.06370
3159.28481,0.06433
3157.35607,0.06479
3155.42732,0.06498
3153.49858,0.06532
3151.56983,0.06593
3149.64109,0.06650
3147.71234,0.06702
3145.78360,0.06758
3143.85485,0.06806
3141.92611,0.06846
3139.99736,0.06891
3138.06861,0.06944
3136.13987,0.06992
3134.21112,0.07019
3132.28238,0.07037
3130.35363,0.07080
3128.42489,0.07149
3126.49614,0.07212
3124.56740,0.07270
3122.63865,0.07337
3120.70991,0.07401
3118.78116,0.07462
3116.85242,0.07528
3114.92367,0.07589
3112.99493,0.07620
3111.06618,0.07635
3109.13744,0.07651
3107.20869,0.07665
3105.27994,0.07693
3103.35120,0.07758
3101.42245,0.07839
3099.49371,0.07916
3097.56496,0.08004
3095.63622,0.08091
3093.70747,0.08165
3091.77873,0.08244
3089.84998,0.08319
3087.92124,0.08345
3085.99249,0.08332
3084.06375,0.08327
3082.13500,0.08345
3080.20626,0.08388
3078.27751,0.08471
3076.34877,0.08582
3074.42002,0.08677
3072.49127,0.08731
3070.56253,0.08762
3068.63378,0.08808
3066.70504,0.08871
3064.77629,0.08941
3062.84755,0.09016
3060.91880,0.09081
3058.99006,0.09120
3057.06131,0.09144
3055.13257,0.09175
3053.20382,0.09247
3051.27508,0.09377
3049.34633,0.09542
3047.41759,0.09727
3045.48884,0.09921
3043.56009,0.10103
3041.63135,0.10242
3039.70260,0.10317
3037.77386,0.10363
3035.84511,0.10417
3033.91637,0.10473
3031.98762,0.10521
3030.05888,0.10548
3028.13013,0.10542
3026.20139,0.10516
3024.27264,0.10487
3022.34390,0.10442
3020.41515,0.10355
3018.48641,0.10247
3016.55766,0.10167
3014.62892,0.10118
3012.70017,0.10090
3010.77142,0.10092
3008.84268,0.10101
3006.91393,0.10084
3004.98519,0.10040
3003.05644,0.09968
3001.12770,0.09879
2999.19895,0.09804
2997.27021,0.09750
2995.34146,0.09682
2993.41272,0.09568
2991.48397,0.09408
2989.55523,0.09206
2987.62648,0.08952
2985.69774,0.08666
2983.76899,0.08388
2981.84025,0.08101
2979.91150,0.07761
2977.98275,0.07390
2976.05401,0.07023
2974.12526,0.06661
2972.19652,0.06312
2970.26777,0.06047
2968.33903,0.05929
2966.41028,0.05924
2964.48154,0.05957
2962.55279,0.05973
2960.62405,0.05949
2958.69530,0.05908
2956.76656,0.05870
2954.83781,0.05827
2952.90907,0.05780
2950.98032,0.05734
2949.05157,0.05693
2947.12283,0.05671
2945.19408,0.05668
2943.26534,0.05681
2941.33659,0.05722
2939.40785,0.05769
2937.47910,0.05785
2935.55036,0.05781
2933.62161,0.05768
2931.69287,0.05733
2929.76412,0.05676
2927.83538,0.05601
2925.90663,0.05494
2923.97789,0.05359
2922.04914,0.05223
2920.12040,0.05096
2918.19165,0.04959
2916.26290,0.04808
2914.33416,0.04670
2912.40541,0.04559
2910.47667,0.04489
2908.54792,0.04454
2906.61918,0.04432
2904.69043,0.04452
2902.76169,0.04536
2900.83294,0.04638
2898.90420,0.04737
2896.97545,0.04844
2895.04671,0.04941
2893.11796,0.05016
2891.18922,0.05076
2889.26047,0.05125
2887.33172,0.05178
2885.40298,0.05245
2883.47423,0.05326
2881.54549,0.05427
2879.61674,0.05533
2877.68800,0.05610
2875.75925,0.05656
2873.83051,0.05699
2871.90176,0.05737
2869.97302,0.05773
2868.04427,0.05829
2866.11553,0.05903
2864.18678,0.05987
2862.25804,0.06088
2860.32929,0.06200
2858.40055,0.06295
2856.47180,0.06351
2854.54305,0.06397
2852.61431,0.06479
2850.68556,0.06609
2848.75682,0.06795
2846.82807,0.07058
2844.89933,0.07368
2842.97058,0.07672
2841.04184,0.07943
2839.11309,0.08197
2837.18435,0.08441
2835.25560,0.08664
2833.32686,0.08861
2831.39811,0.09035
2829.46937,0.09206
2827.54062,0.09382
2825.61188,0.09533
2823.68313,0.09659
2821.75438,0.09810
2819.82564,0.09988
2817.89689,0.10139
2815.96815,0.10249
2814.03940,0.10370
2812.11066,0.10527
2810.18191,0.10679
2808.25317,0.10795
2806.32442,0.10901
2804.39568,0.11027
2802.46693,0.11174
2800.53819,0.11342
2798.60944,0.11510
2796.68070,0.11647
2794.75195,0.11761
2792.82320,0.11869
2790.89446,0.11960
2788.96571,0.12024
2787.03697,0.12084
2785.10822,0.12168
2783.17948,0.12260
2781.25073,0.12323
2779.32199,0.12353
2777.39324,0.12399
2775.46450,0.12479
2773.53575,0.12550
2771.60701,0.12590
2769.67826,0.12624
2767.74952,0.12664
2765.82077,0.12695
2763.89203,0.12721
2761.96328,0.12763
2760.03453,0.12815
2758.10579,0.12852
2756.17704,0.12869
2754.24830,0.12893
2752.31955,0.12926
2750.39081,0.12937
2748.46206,0.12921
2746.53332,0.12899
2744.60457,0.12892
2742.67583,0.12912
2740.74708,0.12943
2738.81834,0.12963
2736.88959,0.12966
2734.96085,0.12975
2733.03210,0.13008
2731.10336,0.13059
2729.17461,0.13130
2727.24586,0.13210
2725.31712,0.13279
2723.38837,0.13350
2721.45963,0.13433
2719.53088,0.13517
2717.60214,0.13592
2715.67339,0.13661
2713.74465,0.13734
2711.81590,0.13815
2709.88716,0.13913
2707.95841,0.14029
2706.02967,0.14151
2704.10092,0.14268
2702.17218,0.14378
2700.24343,0.14488
2698.31468,0.14613
2696.38594,0.14757
2694.45719,0.14899
2692.52845,0.15020
2690.59970,0.15131
2688.67096,0.15242
2686.74221,0.15348
2684.81347,0.15460
2682.88472,0.15579
2680.95598,0.15689
2679.02723,0.15780
2677.09849,0.15871
2675.16974,0.15978
2673.24100,0.16076
2671.31225,0.16140
2669.38351,0.16188
2667.45476,0.16242
2665.52601,0.16291
2663.59727,0.16336
2661.66852,0.16400
2659.73978,0.16472
2657.81103,0.16534
2655.88229,0.16601
2653.95354,0.16673
2652.02480,0.16741
2650.09605,0.16815
2648.16731,0.16892
2646.23856,0.16946
2644.30982,0.16977
2642.38107,0.17021
2640.45233,0.17082
2638.52358,0.17124
2636.59484,0.17132
2634.66609,0.17137
2632.73734,0.17185
2630.80860,0.17278
2628.87985,0.17373
2626.95111,0.17452
2625.02236,0.17521
2623.09362,0.17585
2621.16487,0.17660
2619.23613,0.17745
2617.30738,0.17806
2615.37864,0.17849
2613.44989,0.17907
2611.52115,0.17979
2609.59240,0.18042
2607.66366,0.18103
2605.73491,0.18171
2603.80616,0.18233
2601.87742,0.18288
2599.94867,0.18331
2598.01993,0.18360
2596.09118,0.18388
2594.16244,0.18423
2592.23369,0.18450
2590.30495,0.18461
2588.37620,0.18462
2586.44746,0.18470
2584.51871,0.18490
2582.58997,0.18513
2580.66122,0.18535
2578.73248,0.18557
2576.80373,0.18570
2574.87499,0.18579
2572.94624,0.18597
2571.01749,0.18609
2569.08875,0.18611
2567.16000,0.18611
2565.23126,0.18602
2563.30251,0.18562
2561.37377,0.18512
2559.44502,0.18488
2557.51628,0.18482
2555.58753,0.18460
2553.65879,0.18414
2551.73004,0.18376
2549.80130,0.18372
2547.87255,0.18376
2545.94381,0.18344
2544.01506,0.18297
2542.08631,0.18286
2540.15757,0.18305
2538.22882,0.18319
2536.30008,0.18316
2534.37133,0.18318
2532.44259,0.18335
2530.51384,0.18374
2528.58510,0.18452
2526.65635,0.18551
2524.72761,0.18631
2522.79886,0.18689
2520.87012,0.18740
2518.94137,0.18789
2517.01263,0.18838
2515.08388,0.18897
2513.15514,0.18990
2511.22639,0.19121
2509.29764,0.19260
2507.36890,0.19376
2505.44015,0.19490
2503.51141,0.19635
2501.58266,0.19792
2499.65392,0.19928
2497.72517,0.20049
2495.79643,0.20175
2493.86768,0.20306
2491.93894,0.20426
2490.01019,0.20525
2488.08145,0.20613
2486.15270,0.20724
2484.22396,0.20870
2482.29521,0.21010
2480.36647,0.21130
2478.43772,0.21259
2476.50897,0.21402
2474.58023,0.21540
2472.65148,0.21660
2470.72274,0.21761
2468.79399,0.21852
2466.86525,0.21940
2464.93650,0.22017
2463.00776,0.22073
2461.07901,0.22111
2459.15027,0.22145
2457.22152,0.22192
2455.29278,0.22254
2453.36403,0.22320
2451.43529,0.22396
2449.50654,0.22490
2447.57779,0.22585
2445.64905,0.22660
2443.72030,0.22713
2441.79156,0.22755
2439.86281,0.22806
2437.93407,0.22873
2436.00532,0.22945
2434.07658,0.23015
2432.14783,0.23088
2430.21909,0.23158
2428.29034,0.23203
2426.36160,0.23225
2424.43285,0.23253
2422.50411,0.23291
2420.57536,0.23328
2418.64662,0.23368
2416.71787,0.23407
2414.78912,0.23440
2412.86038,0.23459
2410.93163,0.23465
2409.00289,0.23471
2407.07414,0.23491
2405.14540,0.23527
2403.21665,0.23565
2401.28791,0.23589
2399.35916,0.23604
2397.43042,0.23642
2395.50167,0.23693
2393.57293,0.23741
2391.64418,0.23803
2389.71544,0.23875
2387.78669,0.23933
2385.85795,0.23980
2383.92920,0.24042
2382.00045,0.24127
2380.07171,0.24221
2378.14296,0.24320
2376.21422,0.24433
2374.28547,0.24570
2372.35673,0.24717
2370.42798,0.24852
2368.49924,0.24987
2366.57049,0.25125
2364.64175,0.25256
2362.71300,0.25389
2360.78426,0.25536
2358.85551,0.25682
2356.92677,0.25820
2354.99802,0.25951
2353.06927,0.26073
2351.14053,0.26188
2349.21178,0.26299
2347.28304,0.26421
2345.35429,0.26571
2343.42555,0.26715
2341.49680,0.26807
2339.56806,0.26868
2337.63931,0.26930
2335.71057,0.26997
2333.78182,0.27073
2331.85308,0.27159
2329.92433,0.27248
2327.99559,0.27316
2326.06684,0.27361
2324.13810,0.27408
2322.20935,0.27469
2320.28060,0.27549
2318.35186,0.27646
2316.42311,0.27722
2314.49437,0.27752
2312.56562,0.27749
2310.63688,0.27734
2308.70813,0.27708
2306.77939,0.27660
2304.85064,0.27581
2302.92190,0.27469
2300.99315,0.27329
2299.06441,0.27169
2297.13566,0.27001
2295.20692,0.26837
2293.27817,0.26684
2291.34943,0.26542
2289.42068,0.26424
2287.49193,0.26344
2285.56319,0.26296
2283.63444,0.26257
2281.70570,0.26218
2279.77695,0.26183
2277.84821,0.26150
2275.91946,0.26109
2273.99072,0.26042
2272.06197,0.25934
2270.13323,0.25789
2268.20448,0.25638
2266.27574,0.25495
2264.34699,0.25340
2262.41825,0.25143
2260.48950,0.24905
2258.56075,0.24645
2256.63201,0.24370
2254.70326,0.24083
2252.77452,0.23781
2250.84577,0.23475
2248.91703,0.23182
2246.98828,0.22933
2245.05954,0.22773
2243.13079,0.22726
2241.20205,0.22784
2239.27330,0.22949
2237.34456,0.23246
2235.41581,0.23665
2233.48707,0.24123
2231.55832,0.24517
2229.62958,0.24789
2227.70083,0.24954
2225.77208,0.25079
2223.84334,0.25200
2221.91459,0.25309
2219.98585,0.25408
2218.05710,0.25502
2216.12836,0.25589
2214.19961,0.25666
2212.27087,0.25732
2210.34212,0.25783
2208.41338,0.25827
2206.48463,0.25880
2204.55589,0.25944
2202.62714,0.25990
2200.69840,0.26004
2198.76965,0.25986
2196.84090,0.25939
2194.91216,0.25865
2192.98341,0.25769
2191.05467,0.25668
2189.12592,0.25575
2187.19718,0.25490
2185.26843,0.25395
2183.33969,0.25261
2181.41094,0.25095
2179.48220,0.24921
2177.55345,0.24749
2175.62471,0.24572
2173.69596,0.24384
2171.76722,0.24197
2169.83847,0.24015
2167.90973,0.23825
2165.98098,0.23618
2164.05223,0.23405
2162.12349,0.23193
2160.19474,0.22991
2158.26600,0.22818
2156.33725,0.22672
2154.40851,0.22541
2152.47976,0.22411
2150.55102,0.22275
2148.62227,0.22153
2146.69353,0.22057
2144.76478,0.21965
2142.83604,0.21862
2140.90729,0.21755
2138.97855,0.21656
2137.04980,0.21565
2135.12106,0.21495
2133.19231,0.21460
2131.26356,0.21446
2129.33482,0.21424
2127.40607,0.21403
2125.47733,0.21396
2123.54858,0.21408
2121.61984,0.21438
2119.69109,0.21477
2117.76235,0.21512
2115.83360,0.21553
2113.90486,0.21616
2111.97611,0.21692
2110.04737,0.21770
2108.11862,0.21851
2106.18988,0.21931
2104.26113,0.22009
2102.33238,0.22093
2100.40364,0.22185
2098.47489,0.22277
2096.54615,0.22365
2094.61740,0.22451
2092.68866,0.22542
2090.75991,0.22645
2088.83117,0.22764
2086.90242,0.22898
2084.97368,0.23024
2083.04493,0.23126
2081.11619,0.23211
2079.18744,0.23293
2077.25870,0.23368
2075.32995,0.23432
2073.40121,0.23501
2071.47246,0.23575
2069.54371,0.23645
2067.61497,0.23723
2065.68622,0.23820
2063.75748,0.23939
2061.82873,0.24060
2059.89999,0.24161
2057.97124,0.24247
2056.04250,0.24340
2054.11375,0.24432
2052.18501,0.24507
2050.25626,0.24569
2048.32752,0.24621
2046.39877,0.24665
2044.47003,0.24711
2042.54128,0.24769
2040.61254,0.24845
2038.68379,0.24940
2036.75504,0.25048
2034.82630,0.25155
2032.89755,0.25256
2030.96881,0.25376
2029.04006,0.25507
2027.11132,0.25619
2025.18257,0.25712
2023.25383,0.25803
2021.32508,0.25887
2019.39634,0.25966
2017.46759,0.26058
2015.53885,0.26152
2013.61010,0.26221
2011.68136,0.26261
2009.75261,0.26271
2007.82386,0.26248
2005.89512,0.26208
2003.96637,0.26159
2002.03763,0.26098
2000.10888,0.26037
1998.18014,0.25982
1996.25139,0.25926
1994.32265,0.25872
1992.39390,0.25825
1990.46516,0.25782
1988.53641,0.25747
1986.60767,0.25722
1984.67892,0.25696
1982.75018,0.25664
1980.82143,0.25623
1978.89269,0.25558
1976.96394,0.25452
1975.03519,0.25311
1973.10645,0.25159
1971.17770,0.24988
1969.24896,0.24767
1967.32021,0.24501
1965.39147,0.24208
1963.46272,0.23923
1961.53398,0.23724
1959.60523,0.23666
1957.67649,0.23739
1955.74774,0.23908
1953.81900,0.24130
1951.89025,0.24374
1949.96151,0.24645
1948.03276,0.24952
1946.10402,0.25271
1944.17527,0.25585
1942.24652,0.25907
1940.31778,0.26240
1938.38903,0.26571
1936.46029,0.26897
1934.53154,0.27206
1932.60280,0.27483
1930.67405,0.27734
1928.74531,0.27962
1926.81656,0.28162
1924.88782,0.28335
1922.95907,0.28500
1921.03033,0.28663
1919.10158,0.28807
1917.17284,0.28930
1915.24409,0.29054
1913.31534,0.29183
1911.38660,0.29301
1909.45785,0.29404
1907.52911,0.29502
1905.60036,0.29587
1903.67162,0.29658
1901.74287,0.29718
1899.81413,0.29760
1897.88538,0.29781
1895.95664,0.29792
1894.02789,0.29797
1892.09915,0.29798
1890.17040,0.29802
1888.24166,0.29804
1886.31291,0.29792
1884.38417,0.29774
1882.45542,0.29748
1880.52667,0.29703
1878.59793,0.29641
1876.66918,0.29560
1874.74044,0.29456
1872.81169,0.29346
1870.88295,0.29234
1868.95420,0.29099
1867.02546,0.28946
1865.09671,0.28779
1863.16797,0.28578
1861.23922,0.28362
1859.31048,0.28149
1857.38173,0.27908
1855.45299,0.27613
1853.52424,0.27282
1851.59549,0.26923
1849.66675,0.26543
1847.73800,0.26162
1845.80926,0.25797
1843.88051,0.25435
1841.95177,0.25094
1840.02302,0.24783
1838.09428,0.24480
1836.16553,0.24189
1834.23679,0.23927
1832.30804,0.23685
1830.37930,0.23450
1828.45055,0.23249
1826.52181,0.23098
1824.59306,0.22962
1822.66432,0.22839
1820.73557,0.22754
1818.80682,0.22685
1816.87808,0.22604
1814.94933,0.22509
1813.02059,0.22406
1811.09184,0.22290
1809.16310,0.22161
1807.23435,0.22042
1805.30561,0.21933
1803.37686,0.21816
1801.44812,0.21688
1799.51937,0.21549
1797.59063,0.21398
1795.66188,0.21245
1793.73314,0.21072
1791.80439,0.20862
1789.87565,0.20637
1787.94690,0.20421
1786.01815,0.20207
1784.08941,0.19969
1782.16066,0.19704
1780.23192,0.19432
1778.30317,0.19158
1776.37443,0.18868
1774.44568,0.18535
1772.51694,0.18151
1770.58819,0.17749
1768.65945,0.17342
1766.73070,0.16915
1764.80196,0.16485
1762.87321,0.16012
1760.94447,0.15452
1759.01572,0.14844
1757.08697,0.14175
1755.15823,0.13465
1753.22948,0.12733
1751.30074,0.11907
1749.37199,0.11042
1747.44325,0.10292
1745.51450,0.09684
1743.58576,0.09220
1741.65701,0.08907
1739.72827,0.08717
1737.79952,0.08632
1735.87078,0.08628
1733.94203,0.08669
1732.01329,0.08741
1730.08454,0.08840
1728.15580,0.08953
1726.22705,0.09068
1724.29830,0.09180
1722.36956,0.09286
1720.44081,0.09381
1718.51207,0.09454
1716.58332,0.09485
1714.65458,0.09466
1712.72583,0.09423
1710.79709,0.09406
1708.86834,0.09450
1706.93960,0.09550
1705.01085,0.09677
1703.08211,0.09822
1701.15336,0.10002
1699.22462,0.10186
1697.29587,0.10310
1695.36713,0.10385
1693.43838,0.10417
1691.50963,0.10394
1689.58089,0.10317
1687.65214,0.10198
1685.72340,0.10043
1683.79465,0.09879
1681.86591,0.09782
1679.93716,0.09762
1678.00842,0.09764
1676.07967,0.09748
1674.15093,0.09720
1672.22218,0.09691
1670.29344,0.09655
1668.36469,0.09633
1666.43595,0.09655
1664.50720,0.09693
1662.57845,0.09706
1660.64971,0.09693
1658.72096,0.09674
1656.79222,0.09660
1654.86347,0.09645
1652.93473,0.09602
1651.00598,0.09556
1649.07724,0.09541
1647.14849,0.09529
1645.21975,0.09505
1643.29100,0.09501
1641.36226,0.09520
1639.43351,0.09556
1637.50477,0.09608
1635.57602,0.09648
1633.64728,0.09665
1631.71853,0.09711
1629.78978,0.09796
1627.86104,0.09892
1625.93229,0.09987
1624.00355,0.10084
1622.07480,0.10160
1620.14606,0.10191
1618.21731,0.10184
1616.28857,0.10182
1614.35982,0.10248
1612.43108,0.10398
1610.50233,0.10614
1608.57359,0.10877
1606.64484,0.11165
1604.71610,0.11449
1602.78735,0.11699
1600.85861,0.11895
1598.92986,0.12056
1597.00111,0.12208
1595.07237,0.12331
1593.14362,0.12399
1591.21488,0.12416
1589.28613,0.12378
1587.35739,0.12272
1585.42864,0.12065
1583.49990,0.11724
1581.57115,0.11325
1579.64241,0.11045
1577.71366,0.11032
1575.78492,0.11330
1573.85617,0.11786
1571.92743,0.12236
1569.99868,0.12652
1568.06993,0.12973
1566.14119,0.13171
1564.21244,0.13297
1562.28370,0.13377
1560.35495,0.13418
1558.42621,0.13431
1556.49746,0.13435
1554.56872,0.13438
1552.63997,0.13434
1550.71123,0.13413
1548.78248,0.13380
1546.85374,0.13359
1544.92499,0.13359
1542.99625,0.13348
1541.06750,0.13297
1539.13876,0.13231
1537.21001,0.13185
1535.28126,0.13124
1533.35252,0.13011
1531.42377,0.12859
1529.49503,0.12685
1527.56628,0.12504
1525.63754,0.12354
1523.70879,0.12259
1521.78005,0.12188
1519.85130,0.12100
1517.92256,0.11966
1515.99381,0.11745
1514.06507,0.11383
1512.13632,0.10821
1510.20758,0.10056
1508.27883,0.09163
1506.35008,0.08431
1504.42134,0.08331
1502.49259,0.08752
1500.56385,0.09366
1498.63510,0.09937
1496.70636,0.10279
1494.77761,0.10330
1492.84887,0.10151
1490.92012,0.09787
1488.99138,0.09248
1487.06263,0.08601
1485.13389,0.07941
1483.20514,0.07341
1481.27640,0.06850
1479.34765,0.06485
1477.41891,0.06185
1475.49016,0.05871
1473.56141,0.05533
1471.63267,0.05245
1469.70392,0.05079
1467.77518,0.04968
1465.84643,0.04806
1463.91769,0.04580
1461.98894,0.04354
1460.06020,0.04156
1458.13145,0.03965
1456.20271,0.03807
1454.27396,0.03730
1452.34522,0.03707
1450.41647,0.03705
1448.48773,0.03716
1446.55898,0.03728
1444.63024,0.03722
1442.70149,0.03691
1440.77274,0.03652
1438.84400,0.03627
1436.91525,0.03612
1434.98651,0.03596
1433.05776,0.03587
1431.12902,0.03592
1429.20027,0.03623
1427.27153,0.03662
1425.34278,0.03677
1423.41404,0.03670
1421.48529,0.03647
1419.55655,0.03579
1417.62780,0.03467
1415.69906,0.03366
1413.77031,0.03309
1411.84156,0.03314
1409.91282,0.03352
1407.98407,0.03404
1406.05533,0.03488
1404.12658,0.03598
1402.19784,0.03709
1400.26909,0.03816
1398.34035,0.03902
1396.41160,0.03939
1394.48286,0.03934
1392.55411,0.03892
1390.62537,0.03798
1388.69662,0.03650
1386.76788,0.03477
1384.83913,0.03308
1382.91039,0.03134
1380.98164,0.02958
1379.05289,0.02813
1377.12415,0.02720
1375.19540,0.02666
1373.26666,0.02625
1371.33791,0.02618
1369.40917,0.02662
1367.48042,0.02733
1365.55168,0.02796
1363.62293,0.02839
1361.69419,0.02860
1359.76544,0.02864
1357.83670,0.02863
1355.90795,0.02859
1353.97921,0.02850
1352.05046,0.02834
1350.12172,0.02809
1348.19297,0.02779
1346.26422,0.02755
1344.33548,0.02737
1342.40673,0.02714
1340.47799,0.02683
1338.54924,0.02668
1336.62050,0.02680
1334.69175,0.02719
1332.76301,0.02784
1330.83426,0.02847
1328.90552,0.02878
1326.97677,0.02872
1325.04803,0.02817
1323.11928,0.02728
1321.19054,0.02659
1319.26179,0.02614
1317.33304,0.02572
1315.40430,0.02558
1313.47555,0.02589
1311.54681,0.02634
1309.61806,0.02681
1307.68932,0.02740
1305.76057,0.02810
1303.83183,0.02886
1301.90308,0.02961
1299.97434,0.03021
1298.04559,0.03060
1296.11685,0.03080
1294.18810,0.03086
1292.25936,0.03086
1290.33061,0.03088
1288.40187,0.03099
1286.47312,0.03111
1284.54437,0.03106
1282.61563,0.03108
1280.68688,0.03169
1278.75814,0.03294
1276.82939,0.03445
1274.90065,0.03595
1272.97190,0.03734
1271.04316,0.03851
1269.11441,0.03923
1267.18567,0.03939
1265.25692,0.03924
1263.32818,0.03916
1261.39943,0.03920
1259.47069,0.03914
1257.54194,0.03909
1255.61320,0.03909
1253.68445,0.03879
1251.75570,0.03834
1249.82696,0.03806
1247.89821,0.03785
1245.96947,0.03769
1244.04072,0.03756
1242.11198,0.03729
1240.18323,0.03680
1238.25449,0.03621
1236.32574,0.03587
1234.39700,0.03610
1232.46825,0.03689
1230.53951,0.03798
1228.61076,0.03902
1226.68202,0.03976
1224.75327,0.04052
1222.82452,0.04165
1220.89578,0.04286
1218.96703,0.04376
1217.03829,0.04421
1215.10954,0.04414
1213.18080,0.04353
1211.25205,0.04241
1209.32331,0.04103
1207.39456,0.03985
1205.46582,0.03925
1203.53707,0.03945
1201.60833,0.04023
1199.67958,0.04115
1197.75084,0.04210
1195.82209,0.04308
1193.89335,0.04392
1191.96460,0.04434
1190.03585,0.04403
1188.10711,0.04302
1186.17836,0.04155
1184.24962,0.03972
1182.32087,0.03760
1180.39213,0.03538
1178.46338,0.03346
1176.53464,0.03228
1174.60589,0.03204
1172.67715,0.03263
1170.74840,0.03363
1168.81966,0.03463
1166.89091,0.03512
1164.96217,0.03477
1163.03342,0.03387
1161.10467,0.03277
1159.17593,0.03149
1157.24718,0.03013
1155.31844,0.02892
1153.38969,0.02782
1151.46095,0.02657
1149.53220,0.02523
1147.60346,0.02410
1145.67471,0.02310
1143.74597,0.02211
1141.81722,0.02132
1139.88848,0.02080
1137.95973,0.02036
1136.03099,0.02005
1134.10224,0.02006
1132.17350,0.02047
1130.24475,0.02112
1128.31600,0.02169
1126.38726,0.02216
1124.45851,0.02274
1122.52977,0.02326
1120.60102,0.02349
1118.67228,0.02353
1116.74353,0.02363
1114.81479,0.02402
1112.88604,0.02462
1110.95730,0.02516
1109.02855,0.02556
1107.09981,0.02594
1105.17106,0.02630
1103.24232,0.02631
1101.31357,0.02591
1099.38483,0.02556
1097.45608,0.02547
1095.52733,0.02549
1093.59859,0.02560
1091.66984,0.02554
1089.74110,0.02520
1087.81235,0.02525
1085.88361,0.02605
1083.95486,0.02726
1082.02612,0.02872
1080.09737,0.03057
1078.16863,0.03267
1076.23988,0.03480
1074.31114,0.03705
1072.38239,0.03933
1070.45365,0.04145
1068.52490,0.04347
1066.59615,0.04558
1064.66741,0.04762
1062.73866,0.04922
1060.80992,0.04997
1058.88117,0.04971
1056.95243,0.04873
1055.02368,0.04721
1053.09494,0.04537
1051.16619,0.04344
1049.23745,0.04143
1047.30870,0.03949
1045.37996,0.03804
1043.45121,0.03765
1041.52247,0.03848
1039.59372,0.03993
1037.66498,0.04130
1035.73623,0.04232
1033.80748,0.04274
1031.87874,0.04230
1029.94999,0.04112
1028.02125,0.03956
1026.09250,0.03800
1024.16376,0.03711
1022.23501,0.03712
1020.30627,0.03753
1018.37752,0.03817
1016.44878,0.03929
1014.52003,0.04110
1012.59129,0.04362
1010.66254,0.04642
1008.73380,0.04874
1006.80505,0.05022
1004.87631,0.05099
1002.94756,0.05145
1001.01881,0.05198
999.09007,0.05268
997.16132,0.05351
995.23258,0.05424
993.30383,0.05452
991.37509,0.05430
989.44634,0.05395
987.51760,0.05411
985.58885,0.05523
983.66011,0.05709
981.73136,0.05918
979.80262,0.06130
977.87387,0.06331
975.94513,0.06497
974.01638,0.06643
972.08763,0.06810
970.15889,0.07029
968.23014,0.07333
966.30140,0.07734
964.37265,0.08196
962.44391,0.08671
960.51516,0.09171
958.58642,0.09705
956.65767,0.10226
954.72893,0.10713
952.80018,0.11186
950.87144,0.11625
948.94269,0.12003
947.01395,0.12309
945.08520,0.12554
943.15646,0.12765
941.22771,0.12927
939.29896,0.13012
937.37022,0.13045
935.44147,0.13050
933.51273,0.13037
931.58398,0.13034
929.65524,0.13057
927.72649,0.13090
925.79775,0.13115
923.86900,0.13122
921.94026,0.13081
920.01151,0.12950
918.08277,0.12712
916.15402,0.12376
914.22528,0.11957
912.29653,0.11469
910.36779,0.10946
908.43904,0.10446
906.51029,0.09999
904.58155,0.09587
902.65280,0.09220
900.72406,0.08946
898.79531,0.08778
896.86657,0.08732
894.93782,0.08856
893.00908,0.09118
891.08033,0.09440
889.15159,0.09764
887.22284,0.10028
885.29410,0.10194
883.36535,0.10262
881.43661,0.10236
879.50786,0.10143
877.57911,0.10000
875.65037,0.09837
873.72162,0.09819
871.79288,0.10144
869.86413,0.10748
867.93539,0.11351
866.00664,0.11756
864.07790,0.11932
862.14915,0.11907
860.22041,0.11737
858.29166,0.11494
856.36292,0.11213
854.43417,0.10922
852.50543,0.10665
850.57668,0.10445
848.64794,0.10273
846.71919,0.10225
844.79044,0.10348
842.86170,0.10612
840.93295,0.10930
839.00421,0.11195
837.07546,0.11355
835.14672,0.11447
833.21797,0.11571
831.28923,0.11739
829.36048,0.11854
827.43174,0.11880
825.50299,0.11865
823.57425,0.11819
821.64550,0.11718
819.71676,0.11579
817.78801,0.11454
815.85926,0.11367
813.93052,0.11281
812.00177,0.11152
810.07303,0.10963
808.14428,0.10761
806.21554,0.10618
804.28679,0.10526
802.35805,0.10434
800.42930,0.10307
798.50056,0.10042
796.57181,0.09580
794.64307,0.09149
792.71432,0.09024
790.78558,0.09155
788.85683,0.09309
786.92809,0.09409
784.99934,0.09504
783.07059,0.09580
781.14185,0.09585
779.21310,0.09528
777.28436,0.09463
775.35561,0.09408
773.42687,0.09327
771.49812,0.09211
769.56938,0.09086
767.64063,0.08954
765.71189,0.08817
763.78314,0.08708
761.85440,0.08607
759.92565,0.08451
757.99691,0.08242
756.06816,0.08032
754.13942,0.07832
752.21067,0.07624
750.28192,0.07391
748.35318,0.07115
746.42443,0.06772
744.49569,0.06360
742.56694,0.05881
740.63820,0.05342
738.70945,0.04803
736.78071,0.04385
734.85196,0.04147
732.92322,0.04027
730.99447,0.03953
729.06573,0.03926
727.13698,0.03968
725.20824,0.04093
723.27949,0.04304
721.35074,0.04619
719.42200,0.05013
717.49325,0.05381
715.56451,0.05615
713.63576,0.05706
711.70702,0.05723
709.77827,0.05712
707.84953,0.05711
705.92078,0.05739
703.99204,0.05803
702.06329,0.05932
700.13455,0.06100
698.20580,0.06205
696.27706,0.06246
694.34831,0.06297
692.41957,0.06337
690.49082,0.06327
688.56207,0.06255
686.63333,0.06132
684.70458,0.06002
682.77584,0.05932
680.84709,0.05923
678.91835,0.05883
676.98960,0.05799
675.06086,0.05742
673.13211,0.05695
671.20337,0.05639
669.27462,0.05638
667.34588,0.05715
665.41713,0.05786
663.48839,0.05796
661.55964,0.05792
659.63090,0.05824
657.70215,0.05892
655.77340,0.05957
653.84466,0.05983
651.91591,0.05939
649.98717,0.05831
648.05842,0.05747
646.12968,0.05747
644.20093,0.05786
642.27219,0.05790
640.34344,0.05738
638.41470,0.05639
636.48595,0.05473
634.55721,0.05228
632.62846,0.05035
630.69972,0.05021
628.77097,0.05079
626.84222,0.05089
624.91348,0.05104
622.98473,0.05181
621.05599,0.05291
619.12724,0.05333
617.19850,0.05228
615.26975,0.05109
613.34101,0.05182
611.41226,0.05411
609.48352,0.05641
607.55477,0.05799
605.62603,0.05837
603.69728,0.05734
601.76854,0.05565
599.83979,0.05455
