7497.03301,0.68214
7495.10426,0.67826
7493.17552,0.68082
7491.24677,0.68351
7489.31803,0.68424
7487.38928,0.68215
7485.46054,0.67804
7483.53179,0.67619
7481.60305,0.67803
7479.67430,0.68229
7477.74556,0.68756
7475.81681,0.69034
7473.88807,0.69068
7471.95932,0.69066
7470.03057,0.68793
7468.10183,0.68269
7466.17308,0.67823
7464.24434,0.67580
7462.31559,0.67567
7460.38685,0.67811
7458.45810,0.68300
7456.52936,0.68562
7454.60061,0.68114
7452.67187,0.67555
7450.74312,0.67646
7448.81438,0.67930
7446.88563,0.67671
7444.95689,0.67262
7443.02814,0.67431
7441.09940,0.67873
7439.17065,0.67717
7437.24190,0.66973
7435.31316,0.66562
7433.38441,0.66749
7431.45567,0.66858
7429.52692,0.66735
7427.59818,0.66852
7425.66943,0.67128
7423.74069,0.67028
7421.81194,0.66550
7419.88320,0.66325
7417.95445,0.66746
7416.02571,0.67491
7414.09696,0.68020
7412.16822,0.67994
7410.23947,0.67483
7408.31073,0.67071
7406.38198,0.67077
7404.45323,0.67039
7402.52449,0.66730
7400.59574,0.66594
7398.66700,0.66850
7396.73825,0.67205
7394.80951,0.67192
7392.88076,0.66671
7390.95202,0.66207
7389.02327,0.66239
7387.09453,0.66422
7385.16578,0.66495
7383.23704,0.66776
7381.30829,0.67193
7379.37955,0.67073
7377.45080,0.66492
7375.52205,0.66197
7373.59331,0.66189
7371.66456,0.66149
7369.73582,0.66317
7367.80707,0.66680
7365.87833,0.66666
7363.94958,0.66118
7362.02084,0.65459
7360.09209,0.65117
7358.16335,0.65299
7356.23460,0.65811
7354.30586,0.66229
7352.37711,0.66423
7350.44837,0.66367
7348.51962,0.66074
7346.59088,0.65993
7344.66213,0.66280
7342.73338,0.66310
7340.80464,0.65888
7338.87589,0.65443
7336.94715,0.65066
7335.01840,0.64867
7333.08966,0.64943
7331.16091,0.64857
7329.23217,0.64365
7327.30342,0.63915
7325.37468,0.64096
7323.44593,0.64650
7321.51719,0.64775
7319.58844,0.64500
7317.65970,0.64369
7315.73095,0.64637
7313.80221,0.65225
7311.87346,0.65570
7309.94471,0.65281
7308.01597,0.64667
7306.08722,0.64277
7304.15848,0.64455
7302.22973,0.64884
7300.30099,0.64871
7298.37224,0.64592
7296.44350,0.64706
7294.51475,0.64960
7292.58601,0.64942
7290.65726,0.64878
7288.72852,0.64834
7286.79977,0.64685
7284.87103,0.64614
7282.94228,0.64787
7281.01353,0.64902
7279.08479,0.64815
7277.15604,0.64869
7275.22730,0.64964
7273.29855,0.64746
7271.36981,0.64349
7269.44106,0.64163
7267.51232,0.64334
7265.58357,0.64438
7263.65483,0.64283
7261.72608,0.64312
7259.79734,0.64600
7257.86859,0.64827
7255.93985,0.64854
7254.01110,0.64721
7252.08236,0.64488
7250.15361,0.64231
7248.22486,0.64181
7246.29612,0.64295
7244.36737,0.64340
7242.43863,0.64525
7240.50988,0.64926
7238.58114,0.65222
7236.65239,0.65186
7234.72365,0.64813
7232.79490,0.64500
7230.86616,0.64538
7228.93741,0.64559
7227.00867,0.64192
7225.07992,0.63770
7223.15118,0.63930
7221.22243,0.64498
7219.29369,0.64620
7217.36494,0.64175
7215.43619,0.63902
7213.50745,0.64121
7211.57870,0.64386
7209.64996,0.64456
7207.72121,0.64536
7205.79247,0.64530
7203.86372,0.64345
7201.93498,0.64338
7200.00623,0.64541
7198.07749,0.64612
7196.14874,0.64581
7194.22000,0.64514
7192.29125,0.64287
7190.36251,0.64065
7188.43376,0.64004
7186.50501,0.63969
7184.57627,0.63948
7182.64752,0.64061
7180.71878,0.64104
7178.79003,0.63801
7176.86129,0.63497
7174.93254,0.63658
7173.00380,0.64091
7171.07505,0.64372
7169.14631,0.64463
7167.21756,0.64485
7165.28882,0.64378
7163.36007,0.64117
7161.43133,0.63885
7159.50258,0.63821
7157.57384,0.63760
7155.64509,0.63539
7153.71634,0.63345
7151.78760,0.63337
7149.85885,0.63345
7147.93011,0.63286
7146.00136,0.63387
7144.07262,0.63609
7142.14387,0.63555
7140.21513,0.63342
7138.28638,0.63357
7136.35764,0.63441
7134.42889,0.63307
7132.50015,0.63071
7130.57140,0.62836
7128.64266,0.62462
7126.71391,0.62176
7124.78516,0.62316
7122.85642,0.62672
7120.92767,0.63016
7118.99893,0.63179
7117.07018,0.62902
7115.14144,0.62415
7113.21269,0.62158
7111.28395,0.62161
7109.35520,0.62259
7107.42646,0.62437
7105.49771,0.62719
7103.56897,0.62897
7101.64022,0.62657
7099.71148,0.61976
7097.78273,0.61321
7095.85399,0.61261
7093.92524,0.61573
7091.99649,0.61576
7090.06775,0.61378
7088.13900,0.61318
7086.21026,0.61220
7084.28151,0.61033
7082.35277,0.60928
7080.42402,0.60858
7078.49528,0.60698
7076.56653,0.60553
7074.63779,0.60572
7072.70904,0.60581
7070.78030,0.60381
7068.85155,0.60179
7066.92281,0.60258
7064.99406,0.60546
7063.06532,0.60671
7061.13657,0.60323
7059.20782,0.59759
7057.27908,0.59472
7055.35033,0.59419
7053.42159,0.59267
7051.49284,0.58926
7049.56410,0.58627
7047.63535,0.58589
7045.70661,0.58590
7043.77786,0.58470
7041.84912,0.58548
7039.92037,0.58861
7037.99163,0.58975
7036.06288,0.58741
7034.13414,0.58416
7032.20539,0.58210
7030.27664,0.58084
7028.34790,0.57987
7026.41915,0.57973
7024.49041,0.57905
7022.56166,0.57730
7020.63292,0.57659
7018.70417,0.57636
7016.77543,0.57520
7014.84668,0.57411
7012.91794,0.57345
7010.98919,0.57225
7009.06045,0.57124
7007.13170,0.57262
7005.20296,0.57525
7003.27421,0.57546
7001.34547,0.57237
6999.41672,0.56922
6997.48797,0.56942
6995.55923,0.57129
6993.63048,0.57161
6991.70174,0.57036
6989.77299,0.56828
6987.84425,0.56685
6985.91550,0.56717
6983.98676,0.56811
6982.05801,0.56815
6980.12927,0.56660
6978.20052,0.56461
6976.27178,0.56347
6974.34303,0.56298
6972.41429,0.56301
6970.48554,0.56223
6968.55680,0.56043
6966.62805,0.55985
6964.69930,0.56039
6962.77056,0.56075
6960.84181,0.55968
6958.91307,0.55655
6956.98432,0.55409
6955.05558,0.55516
6953.12683,0.56006
6951.19809,0.56461
6949.26934,0.56463
6947.34060,0.56341
6945.41185,0.56287
6943.48311,0.56019
6941.55436,0.55682
6939.62562,0.55592
6937.69687,0.55605
6935.76812,0.55305
6933.83938,0.54870
6931.91063,0.54927
6929.98189,0.55279
6928.05314,0.55371
6926.12440,0.55303
6924.19565,0.55198
6922.26691,0.55063
6920.33816,0.55005
6918.40942,0.54934
6916.48067,0.54879
6914.55193,0.55055
6912.62318,0.55425
6910.69444,0.55645
6908.76569,0.55453
6906.83695,0.55129
6904.90820,0.55076
6902.97945,0.55067
6901.05071,0.54789
6899.12196,0.54548
6897.19322,0.54622
6895.26447,0.54734
6893.33573,0.54704
6891.40698,0.54697
6889.47824,0.54728
6887.54949,0.54683
6885.62075,0.54660
6883.69200,0.54731
6881.76326,0.54735
6879.83451,0.54676
6877.90577,0.54660
6875.97702,0.54500
6874.04828,0.54124
6872.11953,0.53901
6870.19078,0.54017
6868.26204,0.54171
6866.33329,0.54105
6864.40455,0.53907
6862.47580,0.53809
6860.54706,0.53859
6858.61831,0.53881
6856.68957,0.53831
6854.76082,0.53868
6852.83208,0.54035
6850.90333,0.54170
6848.97459,0.54149
6847.04584,0.54011
6845.11710,0.53921
6843.18835,0.53980
6841.25960,0.54003
6839.33086,0.53883
6837.40211,0.53796
6835.47337,0.53832
6833.54462,0.53899
6831.61588,0.53847
6829.68713,0.53691
6827.75839,0.53552
6825.82964,0.53436
6823.90090,0.53346
6821.97215,0.53274
6820.04341,0.53336
6818.11466,0.53667
6816.18592,0.53897
6814.25717,0.53694
6812.32843,0.53368
6810.39968,0.53283
6808.47093,0.53360
6806.54219,0.53325
6804.61344,0.53258
6802.68470,0.53259
6800.75595,0.53089
6798.82721,0.52849
6796.89846,0.52829
6794.96972,0.52861
6793.04097,0.52771
6791.11223,0.52751
6789.18348,0.52977
6787.25474,0.53258
6785.32599,0.53176
6783.39725,0.52676
6781.46850,0.52210
6779.53975,0.52059
6777.61101,0.52105
6775.68226,0.52247
6773.75352,0.52404
6771.82477,0.52481
6769.89603,0.52583
6767.96728,0.52763
6766.03854,0.52819
6764.10979,0.52628
6762.18105,0.52426
6760.25230,0.52495
6758.32356,0.52691
6756.39481,0.52733
6754.46607,0.52564
6752.53732,0.52290
6750.60858,0.52113
6748.67983,0.51991
6746.75108,0.51814
6744.82234,0.51777
6742.89359,0.51914
6740.96485,0.52061
6739.03610,0.52161
6737.10736,0.52206
6735.17861,0.52201
6733.24987,0.52170
6731.32112,0.52187
6729.39238,0.52287
6727.46363,0.52388
6725.53489,0.52369
6723.60614,0.52162
6721.67740,0.51965
6719.74865,0.52080
6717.81991,0.52462
6715.89116,0.52790
6713.96241,0.52786
6712.03367,0.52459
6710.10492,0.52169
6708.17618,0.52050
6706.24743,0.51885
6704.31869,0.51719
6702.38994,0.51646
6700.46120,0.51562
6698.53245,0.51629
6696.60371,0.51915
6694.67496,0.52101
6692.74622,0.52160
6690.81747,0.52154
6688.88873,0.51954
6686.95998,0.51766
6685.03123,0.51828
6683.10249,0.51973
6681.17374,0.51963
6679.24500,0.51872
6677.31625,0.51952
6675.38751,0.52174
6673.45876,0.52355
6671.53002,0.52451
6669.60127,0.52470
6667.67253,0.52519
6665.74378,0.52720
6663.81504,0.52882
6661.88629,0.52701
6659.95755,0.52341
6658.02880,0.52157
6656.10006,0.52107
6654.17131,0.52083
6652.24256,0.52173
6650.31382,0.52318
6648.38507,0.52360
6646.45633,0.52381
6644.52758,0.52483
6642.59884,0.52589
6640.67009,0.52648
6638.74135,0.52744
6636.81260,0.52941
6634.88386,0.53035
6632.95511,0.52893
6631.02637,0.52752
6629.09762,0.52711
6627.16888,0.52686
6625.24013,0.52732
6623.31139,0.52824
6621.38264,0.52942
6619.45389,0.53150
6617.52515,0.53276
6615.59640,0.53192
6613.66766,0.52960
6611.73891,0.52650
6609.81017,0.52496
6607.88142,0.52624
6605.95268,0.52911
6604.02393,0.53204
6602.09519,0.53279
6600.16644,0.53159
6598.23770,0.53192
6596.30895,0.53467
6594.38021,0.53752
6592.45146,0.53755
6590.52271,0.53434
6588.59397,0.53164
6586.66522,0.53158
6584.73648,0.53294
6582.80773,0.53477
6580.87899,0.53534
6578.95024,0.53435
6577.02150,0.53352
6575.09275,0.53261
6573.16401,0.53176
6571.23526,0.53328
6569.30652,0.53638
6567.37777,0.53698
6565.44903,0.53516
6563.52028,0.53403
6561.59154,0.53364
6559.66279,0.53384
6557.73404,0.53485
6555.80530,0.53579
6553.87655,0.53693
6551.94781,0.53775
6550.01906,0.53699
6548.09032,0.53582
6546.16157,0.53541
6544.23283,0.53514
6542.30408,0.53569
6540.37534,0.53765
6538.44659,0.53877
6536.51785,0.53748
6534.58910,0.53556
6532.66036,0.53520
6530.73161,0.53643
6528.80287,0.53811
6526.87412,0.53937
6524.94537,0.53939
6523.01663,0.53876
6521.08788,0.53824
6519.15914,0.53685
6517.23039,0.53465
6515.30165,0.53313
6513.37290,0.53350
6511.44416,0.53593
6509.51541,0.53796
6507.58667,0.53792
6505.65792,0.53684
6503.72918,0.53476
6501.80043,0.53270
6499.87169,0.53326
6497.94294,0.53575
6496.01419,0.53754
6494.08545,0.53784
6492.15670,0.53707
6490.22796,0.53593
6488.29921,0.53538
6486.37047,0.53579
6484.44172,0.53629
6482.51298,0.53645
6480.58423,0.53696
6478.65549,0.53742
6476.72674,0.53762
6474.79800,0.53804
6472.86925,0.53779
6470.94051,0.53725
6469.01176,0.53726
6467.08302,0.53606
6465.15427,0.53448
6463.22552,0.53517
6461.29678,0.53610
6459.36803,0.53475
6457.43929,0.53410
6455.51054,0.53655
6453.58180,0.53814
6451.65305,0.53605
6449.72431,0.53381
6447.79556,0.53482
6445.86682,0.53728
6443.93807,0.53744
6442.00933,0.53611
6440.08058,0.53694
6438.15184,0.53987
6436.22309,0.54211
6434.29434,0.54262
6432.36560,0.54250
6430.43685,0.54207
6428.50811,0.54097
6426.57936,0.54051
6424.65062,0.54103
6422.72187,0.54043
6420.79313,0.53836
6418.86438,0.53758
6416.93564,0.53911
6415.00689,0.54035
6413.07815,0.53981
6411.14940,0.53834
6409.22066,0.53681
6407.29191,0.53632
6405.36317,0.53706
6403.43442,0.53791
6401.50567,0.53850
6399.57693,0.53937
6397.64818,0.54070
6395.71944,0.54176
6393.79069,0.54228
6391.86195,0.54232
6389.93320,0.54149
6388.00446,0.54022
6386.07571,0.53977
6384.14697,0.54053
6382.21822,0.54145
6380.28948,0.54151
6378.36073,0.54079
6376.43199,0.54012
6374.50324,0.54059
6372.57450,0.54173
6370.64575,0.54127
6368.71700,0.53908
6366.78826,0.53769
6364.85951,0.53857
6362.93077,0.54051
6361.00202,0.54174
6359.07328,0.54238
6357.14453,0.54312
6355.21579,0.54337
6353.28704,0.54321
6351.35830,0.54374
6349.42955,0.54403
6347.50081,0.54185
6345.57206,0.53838
6343.64332,0.53765
6341.71457,0.54008
6339.78582,0.54205
6337.85708,0.54188
6335.92833,0.54156
6333.99959,0.54295
6332.07084,0.54468
6330.14210,0.54420
6328.21335,0.54227
6326.28461,0.54134
6324.35586,0.54113
6322.42712,0.54025
6320.49837,0.53947
6318.56963,0.54010
6316.64088,0.54161
6314.71214,0.54313
6312.78339,0.54502
6310.85465,0.54699
6308.92590,0.54745
6306.99715,0.54556
6305.06841,0.54297
6303.13966,0.54184
6301.21092,0.54196
6299.28217,0.54317
6297.35343,0.54578
6295.42468,0.54828
6293.49594,0.54950
6291.56719,0.54991
6289.63845,0.54979
6287.70970,0.54856
6285.78096,0.54584
6283.85221,0.54354
6281.92347,0.54427
6279.99472,0.54699
6278.06598,0.54853
6276.13723,0.54829
6274.20848,0.54784
6272.27974,0.54814
6270.35099,0.54886
6268.42225,0.54968
6266.49350,0.55107
6264.56476,0.55242
6262.63601,0.55218
6260.70727,0.55160
6258.77852,0.55328
6256.84978,0.55538
6254.92103,0.55415
6252.99229,0.55125
6251.06354,0.55066
6249.13480,0.55255
6247.20605,0.55509
6245.27730,0.55721
6243.34856,0.55853
6241.41981,0.55911
6239.49107,0.55944
6237.56232,0.55986
6235.63358,0.56052
6233.70483,0.56125
6231.77609,0.56148
6229.84734,0.56129
6227.91860,0.56141
6225.98985,0.56220
6224.06111,0.56336
6222.13236,0.56376
6220.20362,0.56318
6218.27487,0.56292
6216.34613,0.56272
6214.41738,0.56194
6212.48863,0.56184
6210.55989,0.56285
6208.63114,0.56475
6206.70240,0.56768
6204.77365,0.57025
6202.84491,0.57127
6200.91616,0.57129
6198.98742,0.57153
6197.05867,0.57211
6195.12993,0.57126
6193.20118,0.56934
6191.27244,0.56929
6189.34369,0.57142
6187.41495,0.57337
6185.48620,0.57433
6183.55746,0.57535
6181.62871,0.57746
6179.69996,0.58008
6177.77122,0.58044
6175.84247,0.57783
6173.91373,0.57489
6171.98498,0.57354
6170.05624,0.57417
6168.12749,0.57558
6166.19875,0.57603
6164.27000,0.57608
6162.34126,0.57734
6160.41251,0.57945
6158.48377,0.58056
6156.55502,0.58003
6154.62628,0.57881
6152.69753,0.57770
6150.76878,0.57707
6148.84004,0.57727
6146.91129,0.57836
6144.98255,0.58058
6143.05380,0.58330
6141.12506,0.58451
6139.19631,0.58404
6137.26757,0.58326
6135.33882,0.58258
6133.41008,0.58207
6131.48133,0.58163
6129.55259,0.58212
6127.62384,0.58393
6125.69510,0.58451
6123.76635,0.58324
6121.83761,0.58245
6119.90886,0.58245
6117.98011,0.58258
6116.05137,0.58344
6114.12262,0.58488
6112.19388,0.58589
6110.26513,0.58576
6108.33639,0.58464
6106.40764,0.58380
6104.47890,0.58326
6102.55015,0.58206
6100.62141,0.58088
6098.69266,0.58001
6096.76392,0.57902
6094.83517,0.57828
6092.90643,0.57775
6090.97768,0.57694
6089.04893,0.57605
6087.12019,0.57563
6085.19144,0.57575
6083.26270,0.57517
6081.33395,0.57341
6079.40521,0.57209
6077.47646,0.57151
6075.54772,0.57027
6073.61897,0.56861
6071.69023,0.56751
6069.76148,0.56720
6067.83274,0.56749
6065.90399,0.56696
6063.97525,0.56511
6062.04650,0.56399
6060.11776,0.56453
6058.18901,0.56522
6056.26026,0.56454
6054.33152,0.56208
6052.40277,0.55931
6050.47403,0.55789
6048.54528,0.55682
6046.61654,0.55546
6044.68779,0.55495
6042.75905,0.55486
6040.83030,0.55440
6038.90156,0.55408
6036.97281,0.55356
6035.04407,0.55223
6033.11532,0.55032
6031.18658,0.54893
6029.25783,0.54905
6027.32909,0.54912
6025.40034,0.54779
6023.47159,0.54634
6021.54285,0.54537
6019.61410,0.54490
6017.68536,0.54519
6015.75661,0.54552
6013.82787,0.54584
6011.89912,0.54734
6009.97038,0.54959
6008.04163,0.55069
6006.11289,0.55137
6004.18414,0.55353
6002.25540,0.55659
6000.32665,0.55918
5998.39791,0.56074
5996.46916,0.56201
5994.54041,0.56407
5992.61167,0.56636
5990.68292,0.56824
5988.75418,0.56980
5986.82543,0.57038
5984.89669,0.57007
5982.96794,0.57021
5981.03920,0.57083
5979.11045,0.57151
5977.18171,0.57243
5975.25296,0.57293
5973.32422,0.57239
5971.39547,0.57166
5969.46673,0.57201
5967.53798,0.57316
5965.60924,0.57414
5963.68049,0.57516
5961.75174,0.57627
5959.82300,0.57660
5957.89425,0.57691
5955.96551,0.57836
5954.03676,0.57975
5952.10802,0.58007
5950.17927,0.57953
5948.25053,0.57834
5946.32178,0.57750
5944.39304,0.57799
5942.46429,0.57877
5940.53555,0.57867
5938.60680,0.57846
5936.67806,0.57923
5934.74931,0.58103
5932.82057,0.58274
5930.89182,0.58327
5928.96307,0.58301
5927.03433,0.58288
5925.10558,0.58344
5923.17684,0.58423
5921.24809,0.58407
5919.31935,0.58307
5917.39060,0.58267
5915.46186,0.58320
5913.53311,0.58350
5911.60437,0.58356
5909.67562,0.58433
5907.74688,0.58576
5905.81813,0.58702
5903.88939,0.58730
5901.96064,0.58720
5900.03189,0.58776
5898.10315,0.58818
5896.17440,0.58755
5894.24566,0.58645
5892.31691,0.58541
5890.38817,0.58443
5888.45942,0.58310
5886.53068,0.58115
5884.60193,0.57931
5882.67319,0.57806
5880.74444,0.57736
5878.81570,0.57743
5876.88695,0.57799
5874.95821,0.57770
5873.02946,0.57580
5871.10072,0.57344
5869.17197,0.57177
5867.24322,0.57137
5865.31448,0.57247
5863.38573,0.57376
5861.45699,0.57401
5859.52824,0.57378
5857.59950,0.57361
5855.67075,0.57315
5853.74201,0.57294
5851.81326,0.57349
5849.88452,0.57395
5847.95577,0.57450
5846.02703,0.57574
5844.09828,0.57617
5842.16954,0.57466
5840.24079,0.57291
5838.31205,0.57285
5836.38330,0.57399
5834.45455,0.57477
5832.52581,0.57456
5830.59706,0.57383
5828.66832,0.57313
5826.73957,0.57254
5824.81083,0.57203
5822.88208,0.57193
5820.95334,0.57241
5819.02459,0.57276
5817.09585,0.57214
5815.16710,0.57063
5813.23836,0.56908
5811.30961,0.56821
5809.38087,0.56857
5807.45212,0.57016
5805.52337,0.57165
5803.59463,0.57221
5801.66588,0.57220
5799.73714,0.57195
5797.80839,0.57171
5795.87965,0.57151
5793.95090,0.57094
5792.02216,0.56981
5790.09341,0.56911
5788.16467,0.56942
5786.23592,0.56997
5784.30718,0.56986
5782.37843,0.56898
5780.44969,0.56805
5778.52094,0.56736
5776.59220,0.56718
5774.66345,0.56814
5772.73470,0.56928
5770.80596,0.56908
5768.87721,0.56801
5766.94847,0.56753
5765.01972,0.56822
5763.09098,0.56947
5761.16223,0.57025
5759.23349,0.57064
5757.30474,0.57158
5755.37600,0.57250
5753.44725,0.57267
5751.51851,0.57249
5749.58976,0.57236
5747.66102,0.57231
5745.73227,0.57245
5743.80352,0.57300
5741.87478,0.57371
5739.94603,0.57394
5738.01729,0.57366
5736.08854,0.57353
5734.15980,0.57381
5732.23105,0.57380
5730.30231,0.57350
5728.37356,0.57400
5726.44482,0.57515
5724.51607,0.57558
5722.58733,0.57493
5720.65858,0.57436
5718.72984,0.57470
5716.80109,0.57528
5714.87235,0.57527
5712.94360,0.57519
5711.01485,0.57523
5709.08611,0.57463
5707.15736,0.57383
5705.22862,0.57369
5703.29987,0.57376
5701.37113,0.57358
5699.44238,0.57360
5697.51364,0.57383
5695.58489,0.57397
5693.65615,0.57474
5691.72740,0.57620
5689.79866,0.57677
5687.86991,0.57592
5685.94117,0.57541
5684.01242,0.57633
5682.08368,0.57719
5680.15493,0.57682
5678.22618,0.57600
5676.29744,0.57553
5674.36869,0.57552
5672.43995,0.57519
5670.51120,0.57394
5668.58246,0.57319
5666.65371,0.57359
5664.72497,0.57381
5662.79622,0.57374
5660.86748,0.57421
5658.93873,0.57542
5657.00999,0.57681
5655.08124,0.57724
5653.15250,0.57623
5651.22375,0.57463
5649.29500,0.57396
5647.36626,0.57503
5645.43751,0.57637
5643.50877,0.57631
5641.58002,0.57540
5639.65128,0.57484
5637.72253,0.57465
5635.79379,0.57477
5633.86504,0.57573
5631.93630,0.57694
5630.00755,0.57707
5628.07881,0.57658
5626.15006,0.57638
5624.22132,0.57631
5622.29257,0.57685
5620.36383,0.57792
5618.43508,0.57807
5616.50633,0.57735
5614.57759,0.57715
5612.64884,0.57756
5610.72010,0.57775
5608.79135,0.57775
5606.86261,0.57819
5604.93386,0.57868
5603.00512,0.57845
5601.07637,0.57782
5599.14763,0.57728
5597.21888,0.57694
5595.29014,0.57735
5593.36139,0.57879
5591.43265,0.58000
5589.50390,0.57998
5587.57516,0.57906
5585.64641,0.57803
5583.71766,0.57786
5581.78892,0.57834
5579.86017,0.57851
5577.93143,0.57843
5576.00268,0.57810
5574.07394,0.57733
5572.14519,0.57681
5570.21645,0.57716
5568.28770,0.57790
5566.35896,0.57835
5564.43021,0.57875
5562.50147,0.57953
5560.57272,0.58011
5558.64398,0.57989
5556.71523,0.57912
5554.78648,0.57817
5552.85774,0.57713
5550.92899,0.57639
5549.00025,0.57681
5547.07150,0.57841
5545.14276,0.57986
5543.21401,0.58037
5541.28527,0.58020
5539.35652,0.57997
5537.42778,0.57980
5535.49903,0.57913
5533.57029,0.57845
5531.64154,0.57895
5529.71280,0.57987
5527.78405,0.58011
5525.85531,0.58027
5523.92656,0.58061
5521.99781,0.58045
5520.06907,0.57977
5518.14032,0.57883
5516.21158,0.57811
5514.28283,0.57789
5512.35409,0.57738
5510.42534,0.57673
5508.49660,0.57687
5506.56785,0.57748
5504.63911,0.57805
5502.71036,0.57870
5500.78162,0.57915
5498.85287,0.57886
5496.92413,0.57810
5494.99538,0.57751
5493.06664,0.57729
5491.13789,0.57743
5489.20914,0.57802
5487.28040,0.57891
5485.35165,0.57927
5483.42291,0.57877
5481.49416,0.57841
5479.56542,0.57887
5477.63667,0.57955
5475.70793,0.57928
5473.77918,0.57810
5471.85044,0.57758
5469.92169,0.57809
5467.99295,0.57880
5466.06420,0.57965
5464.13546,0.58088
5462.20671,0.58212
5460.27796,0.58256
5458.34922,0.58208
5456.42047,0.58160
5454.49173,0.58177
5452.56298,0.58264
5450.63424,0.58398
5448.70549,0.58505
5446.77675,0.58527
5444.84800,0.58497
5442.91926,0.58494
5440.99051,0.58556
5439.06177,0.58634
5437.13302,0.58692
5435.20428,0.58744
5433.27553,0.58787
5431.34679,0.58824
5429.41804,0.58881
5427.48929,0.58943
5425.56055,0.58943
5423.63180,0.58879
5421.70306,0.58864
5419.77431,0.58961
5417.84557,0.59106
5415.91682,0.59193
5413.98808,0.59193
5412.05933,0.59178
5410.13059,0.59203
5408.20184,0.59240
5406.27310,0.59283
5404.34435,0.59335
5402.41561,0.59365
5400.48686,0.59379
5398.55811,0.59420
5396.62937,0.59497
5394.70062,0.59592
5392.77188,0.59654
5390.84313,0.59657
5388.91439,0.59670
5386.98564,0.59715
5385.05690,0.59714
5383.12815,0.59647
5381.19941,0.59553
5379.27066,0.59443
5377.34192,0.59373
5375.41317,0.59444
5373.48443,0.59575
5371.55568,0.59602
5369.62694,0.59582
5367.69819,0.59591
5365.76944,0.59507
5363.84070,0.59373
5361.91195,0.59388
5359.98321,0.59504
5358.05446,0.59568
5356.12572,0.59540
5354.19697,0.59457
5352.26823,0.59406
5350.33948,0.59398
5348.41074,0.59354
5346.48199,0.59282
5344.55325,0.59253
5342.62450,0.59272
5340.69576,0.59304
5338.76701,0.59270
5336.83827,0.59150
5334.90952,0.59067
5332.98077,0.59093
5331.05203,0.59182
5329.12328,0.59242
5327.19454,0.59200
5325.26579,0.59094
5323.33705,0.59003
5321.40830,0.58922
5319.47956,0.58833
5317.55081,0.58805
5315.62207,0.58839
5313.69332,0.58810
5311.76458,0.58656
5309.83583,0.58441
5307.90709,0.58294
5305.97834,0.58244
5304.04959,0.58194
5302.12085,0.58128
5300.19210,0.58020
5298.26336,0.57794
5296.33461,0.57545
5294.40587,0.57364
5292.47712,0.57194
5290.54838,0.57053
5288.61963,0.56992
5286.69089,0.56918
5284.76214,0.56754
5282.83340,0.56531
5280.90465,0.56331
5278.97591,0.56170
5277.04716,0.55951
5275.11842,0.55630
5273.18967,0.55313
5271.26092,0.55044
5269.33218,0.54760
5267.40343,0.54476
5265.47469,0.54226
5263.54594,0.54008
5261.61720,0.53789
5259.68845,0.53504
5257.75971,0.53194
5255.83096,0.52918
5253.90222,0.52663
5251.97347,0.52446
5250.04473,0.52265
5248.11598,0.52072
5246.18724,0.51878
5244.25849,0.51709
5242.32975,0.51525
5240.40100,0.51318
5238.47225,0.51114
5236.54351,0.50926
5234.61476,0.50774
5232.68602,0.50624
5230.75727,0.50430
5228.82853,0.50243
5226.89978,0.50120
5224.97104,0.50047
5223.04229,0.49954
5221.11355,0.49801
5219.18480,0.49633
5217.25606,0.49490
5215.32731,0.49399
5213.39857,0.49377
5211.46982,0.49377
5209.54107,0.49338
5207.61233,0.49289
5205.68358,0.49265
5203.75484,0.49216
5201.82609,0.49128
5199.89735,0.49017
5197.96860,0.48902
5196.03986,0.48855
5194.11111,0.48861
5192.18237,0.48830
5190.25362,0.48773
5188.32488,0.48743
5186.39613,0.48751
5184.46739,0.48747
5182.53864,0.48712
5180.60990,0.48690
5178.68115,0.48669
5176.75240,0.48613
5174.82366,0.48583
5172.89491,0.48623
5170.96617,0.48667
5169.03742,0.48678
5167.10868,0.48711
5165.17993,0.48765
5163.25119,0.48790
5161.32244,0.48808
5159.39370,0.48862
5157.46495,0.48889
5155.53621,0.48858
5153.60746,0.48862
5151.67872,0.48951
5149.74997,0.49029
5147.82123,0.49015
5145.89248,0.49031
5143.96373,0.49160
5142.03499,0.49291
5140.10624,0.49389
5138.17750,0.49466
5136.24875,0.49464
5134.32001,0.49425
5132.39126,0.49478
5130.46252,0.49622
5128.53377,0.49762
5126.60503,0.49829
5124.67628,0.49819
5122.74754,0.49830
5120.81879,0.49910
5118.89005,0.49951
5116.96130,0.49925
5115.03255,0.49961
5113.10381,0.50078
5111.17506,0.50186
5109.24632,0.50288
5107.31757,0.50446
5105.38883,0.50602
5103.46008,0.50650
5101.53134,0.50653
5099.60259,0.50750
5097.67385,0.50928
5095.74510,0.51104
5093.81636,0.51216
5091.88761,0.51233
5089.95887,0.51236
5088.03012,0.51319
5086.10138,0.51458
5084.17263,0.51570
5082.24388,0.51631
5080.31514,0.51678
5078.38639,0.51745
5076.45765,0.51822
5074.52890,0.51892
5072.60016,0.51956
5070.67141,0.52021
5068.74267,0.52111
5066.81392,0.52207
5064.88518,0.52282
5062.95643,0.52343
5061.02769,0.52393
5059.09894,0.52440
5057.17020,0.52509
5055.24145,0.52588
5053.31270,0.52637
5051.38396,0.52639
5049.45521,0.52623
5047.52647,0.52639
5045.59772,0.52712
5043.66898,0.52812
5041.74023,0.52887
5039.81149,0.52945
5037.88274,0.53015
5035.95400,0.53061
5034.02525,0.53072
5032.09651,0.53078
5030.16776,0.53107
5028.23902,0.53190
5026.31027,0.53281
5024.38153,0.53320
5022.45278,0.53349
5020.52403,0.53391
5018.59529,0.53427
5016.66654,0.53465
5014.73780,0.53528
5012.80905,0.53606
5010.88031,0.53642
5008.95156,0.53614
5007.02282,0.53585
5005.09407,0.53607
5003.16533,0.53647
5001.23658,0.53672
4999.30784,0.53693
4997.37909,0.53695
4995.45035,0.53641
4993.52160,0.53571
4991.59286,0.53559
4989.66411,0.53596
4987.73536,0.53596
4985.80662,0.53554
4983.87787,0.53541
4981.94913,0.53542
4980.02038,0.53517
4978.09164,0.53508
4976.16289,0.53511
4974.23415,0.53471
4972.30540,0.53406
4970.37666,0.53369
4968.44791,0.53354
4966.51917,0.53306
4964.59042,0.53244
4962.66168,0.53188
4960.73293,0.53077
4958.80418,0.52948
4956.87544,0.52884
4954.94669,0.52832
4953.01795,0.52743
4951.08920,0.52656
4949.16046,0.52566
4947.23171,0.52461
4945.30297,0.52364
4943.37422,0.52263
4941.44548,0.52139
4939.51673,0.52018
4937.58799,0.51900
4935.65924,0.51764
4933.73050,0.51615
4931.80175,0.51477
4929.87301,0.51350
4927.94426,0.51202
4926.01551,0.51032
4924.08677,0.50891
4922.15802,0.50791
4920.22928,0.50680
4918.30053,0.50523
4916.37179,0.50322
4914.44304,0.50109
4912.51430,0.49954
4910.58555,0.49843
4908.65681,0.49677
4906.72806,0.49437
4904.79932,0.49205
4902.87057,0.49044
4900.94183,0.48913
4899.01308,0.48743
4897.08434,0.48531
4895.15559,0.48303
4893.22684,0.48094
4891.29810,0.47927
4889.36935,0.47771
4887.44061,0.47614
4885.51186,0.47491
4883.58312,0.47344
4881.65437,0.47110
4879.72563,0.46862
4877.79688,0.46659
4875.86814,0.46461
4873.93939,0.46261
4872.01065,0.46087
4870.08190,0.45912
4868.15316,0.45710
4866.22441,0.45546
4864.29566,0.45450
4862.36692,0.45350
4860.43817,0.45211
4858.50943,0.45070
4856.58068,0.44960
4854.65194,0.44874
4852.72319,0.44760
4850.79445,0.44599
4848.86570,0.44442
4846.93696,0.44324
4845.00821,0.44195
4843.07947,0.44023
4841.15072,0.43869
4839.22198,0.43734
4837.29323,0.43566
4835.36449,0.43405
4833.43574,0.43271
4831.50699,0.43108
4829.57825,0.42929
4827.64950,0.42791
4825.72076,0.42671
4823.79201,0.42534
4821.86327,0.42392
4819.93452,0.42249
4818.00578,0.42119
4816.07703,0.42015
4814.14829,0.41895
4812.21954,0.41744
4810.29080,0.41606
4808.36205,0.41483
4806.43331,0.41368
4804.50456,0.41323
4802.57582,0.41327
4800.64707,0.41271
4798.71832,0.41144
4796.78958,0.41034
4794.86083,0.40960
4792.93209,0.40885
4791.00334,0.40828
4789.07460,0.40796
4787.14585,0.40745
4785.21711,0.40686
4783.28836,0.40654
4781.35962,0.40635
4779.43087,0.40614
4777.50213,0.40585
4775.57338,0.40551
4773.64464,0.40526
4771.71589,0.40511
4769.78714,0.40504
4767.85840,0.40513
4765.92965,0.40525
4764.00091,0.40518
4762.07216,0.40498
4760.14342,0.40437
4758.21467,0.40325
4756.28593,0.40237
4754.35718,0.40191
4752.42844,0.40129
4750.49969,0.40073
4748.57095,0.40080
4746.64220,0.40111
4744.71346,0.40105
4742.78471,0.40066
4740.85597,0.40023
4738.92722,0.39992
4736.99847,0.39970
4735.06973,0.39952
4733.14098,0.39939
4731.21224,0.39932
4729.28349,0.39918
4727.35475,0.39894
4725.42600,0.39868
4723.49726,0.39821
4721.56851,0.39756
4719.63977,0.39741
4717.71102,0.39809
4715.78228,0.39906
4713.85353,0.39984
4711.92479,0.40021
4709.99604,0.40024
4708.06729,0.40015
4706.13855,0.40001
4704.20980,0.39976
4702.28106,0.39934
4700.35231,0.39890
4698.42357,0.39860
4696.49482,0.39840
4694.56608,0.39853
4692.63733,0.39915
4690.70859,0.39985
4688.77984,0.40040
4686.85110,0.40105
4684.92235,0.40224
4682.99361,0.40386
4681.06486,0.40556
4679.13612,0.40754
4677.20737,0.40979
4675.27862,0.41192
4673.34988,0.41378
4671.42113,0.41552
4669.49239,0.41717
4667.56364,0.41856
4665.63490,0.41959
4663.70615,0.42040
4661.77741,0.42116
4659.84866,0.42169
4657.91992,0.42200
4655.99117,0.42266
4654.06243,0.42365
4652.13368,0.42422
4650.20494,0.42416
4648.27619,0.42379
4646.34745,0.42330
4644.41870,0.42295
4642.48995,0.42298
4640.56121,0.42310
4638.63246,0.42300
4636.70372,0.42293
4634.77497,0.42310
4632.84623,0.42346
4630.91748,0.42422
4628.98874,0.42557
4627.05999,0.42742
4625.13125,0.42968
4623.20250,0.43218
4621.27376,0.43464
4619.34501,0.43693
4617.41627,0.43892
4615.48752,0.44057
4613.55877,0.44196
4611.63003,0.44309
4609.70128,0.44409
4607.77254,0.44504
4605.84379,0.44580
4603.91505,0.44639
4601.98630,0.44675
4600.05756,0.44666
4598.12881,0.44628
4596.20007,0.44611
4594.27132,0.44623
4592.34258,0.44641
4590.41383,0.44654
4588.48509,0.44665
4586.55634,0.44682
4584.62760,0.44686
4582.69885,0.44687
4580.77010,0.44754
4578.84136,0.44873
4576.91261,0.44974
4574.98387,0.45062
4573.05512,0.45170
4571.12638,0.45335
4569.19763,0.45589
4567.26889,0.45860
4565.34014,0.46052
4563.41140,0.46165
4561.48265,0.46266
4559.55391,0.46377
4557.62516,0.46465
4555.69642,0.46528
4553.76767,0.46573
4551.83893,0.46607
4549.91018,0.46663
4547.98143,0.46741
4546.05269,0.46808
4544.12394,0.46846
4542.19520,0.46868
4540.26645,0.46888
4538.33771,0.46937
4536.40896,0.47051
4534.48022,0.47151
4532.55147,0.47144
4530.62273,0.47087
4528.69398,0.47084
4526.76524,0.47146
4524.83649,0.47198
4522.90775,0.47188
4520.97900,0.47144
4519.05025,0.47110
4517.12151,0.47109
4515.19276,0.47139
4513.26402,0.47150
4511.33527,0.47114
4509.40653,0.47052
4507.47778,0.46976
4505.54904,0.46888
4503.62029,0.46793
4501.69155,0.46675
4499.76280,0.46523
4497.83406,0.46340
4495.90531,0.46133
4493.97657,0.45941
4492.04782,0.45800
4490.11908,0.45682
4488.19033,0.45569
4486.26158,0.45501
4484.33284,0.45465
4482.40409,0.45384
4480.47535,0.45243
4478.54660,0.45102
4476.61786,0.44992
4474.68911,0.44856
4472.76037,0.44656
4470.83162,0.44408
4468.90288,0.44117
4466.97413,0.43785
4465.04539,0.43422
4463.11664,0.43044
4461.18790,0.42693
4459.25915,0.42388
4457.33041,0.42148
4455.40166,0.42003
4453.47291,0.41913
4451.54417,0.41790
4449.61542,0.41612
4447.68668,0.41406
4445.75793,0.41195
4443.82919,0.40976
4441.90044,0.40704
4439.97170,0.40392
4438.04295,0.40131
4436.11421,0.39928
4434.18546,0.39726
4432.25672,0.39522
4430.32797,0.39356
4428.39923,0.39227
4426.47048,0.39106
4424.54173,0.38992
4422.61299,0.38888
4420.68424,0.38779
4418.75550,0.38656
4416.82675,0.38514
4414.89801,0.38343
4412.96926,0.38142
4411.04052,0.37936
4409.11177,0.37765
4407.18303,0.37620
4405.25428,0.37485
4403.32554,0.37403
4401.39679,0.37362
4399.46805,0.37322
4397.53930,0.37332
4395.61056,0.37424
4393.68181,0.37546
4391.75306,0.37661
4389.82432,0.37759
4387.89557,0.37855
4385.96683,0.37982
4384.03808,0.38142
4382.10934,0.38295
4380.18059,0.38419
4378.25185,0.38517
4376.32310,0.38582
4374.39436,0.38628
4372.46561,0.38702
4370.53687,0.38815
4368.60812,0.38907
4366.67938,0.38925
4364.75063,0.38878
4362.82189,0.38814
4360.89314,0.38766
4358.96439,0.38727
4357.03565,0.38675
4355.10690,0.38602
4353.17816,0.38528
4351.24941,0.38454
4349.32067,0.38371
4347.39192,0.38281
4345.46318,0.38200
4343.53443,0.38125
4341.60569,0.38040
4339.67694,0.37945
4337.74820,0.37848
4335.81945,0.37753
4333.89071,0.37652
4331.96196,0.37547
4330.03321,0.37443
4328.10447,0.37333
4326.17572,0.37220
4324.24698,0.37106
4322.31823,0.36980
4320.38949,0.36854
4318.46074,0.36767
4316.53200,0.36715
4314.60325,0.36637
4312.67451,0.36508
4310.74576,0.36379
4308.81702,0.36272
4306.88827,0.36135
4304.95953,0.35940
4303.03078,0.35760
4301.10204,0.35646
4299.17329,0.35540
4297.24454,0.35401
4295.31580,0.35250
4293.38705,0.35113
4291.45831,0.35015
4289.52956,0.34972
4287.60082,0.34959
4285.67207,0.34932
4283.74333,0.34870
4281.81458,0.34803
4279.88584,0.34768
4277.95709,0.34758
4276.02835,0.34749
4274.09960,0.34747
4272.17086,0.34799
4270.24211,0.34894
4268.31336,0.34930
4266.38462,0.34902
4264.45587,0.34897
4262.52713,0.34935
4260.59838,0.35009
4258.66964,0.35104
4256.74089,0.35134
4254.81215,0.35086
4252.88340,0.35058
4250.95466,0.35070
4249.02591,0.35064
4247.09717,0.35056
4245.16842,0.35090
4243.23968,0.35154
4241.31093,0.35214
4239.38219,0.35272
4237.45344,0.35337
4235.52469,0.35412
4233.59595,0.35500
4231.66720,0.35575
4229.73846,0.35608
4227.80971,0.35624
4225.88097,0.35667
4223.95222,0.35696
4222.02348,0.35699
4220.09473,0.35738
4218.16599,0.35805
4216.23724,0.35857
4214.30850,0.35905
4212.37975,0.35954
4210.45101,0.35999
4208.52226,0.36065
4206.59352,0.36173
4204.66477,0.36298
4202.73602,0.36399
4200.80728,0.36479
4198.87853,0.36560
4196.94979,0.36639
4195.02104,0.36691
4193.09230,0.36698
4191.16355,0.36671
4189.23481,0.36635
4187.30606,0.36581
4185.37732,0.36502
4183.44857,0.36413
4181.51983,0.36324
4179.59108,0.36252
4177.66234,0.36221
4175.73359,0.36228
4173.80484,0.36272
4171.87610,0.36374
4169.94735,0.36538
4168.01861,0.36735
4166.08986,0.36906
4164.16112,0.37021
4162.23237,0.37082
4160.30363,0.37123
4158.37488,0.37168
4156.44614,0.37174
4154.51739,0.37121
4152.58865,0.37072
4150.65990,0.37051
4148.73116,0.37026
4146.80241,0.36979
4144.87367,0.36907
4142.94492,0.36815
4141.01617,0.36713
4139.08743,0.36599
4137.15868,0.36471
4135.22994,0.36342
4133.30119,0.36243
4131.37245,0.36181
4129.44370,0.36113
4127.51496,0.36032
4125.58621,0.35976
4123.65747,0.35921
4121.72872,0.35810
4119.79998,0.35654
4117.87123,0.35482
4115.94249,0.35299
4114.01374,0.35121
4112.08500,0.34942
4110.15625,0.34720
4108.22750,0.34455
4106.29876,0.34195
4104.37001,0.33939
4102.44127,0.33651
4100.51252,0.33324
4098.58378,0.32943
4096.65503,0.32498
4094.72629,0.32043
4092.79754,0.31666
4090.86880,0.31429
4088.94005,0.31308
4087.01131,0.31234
4085.08256,0.31184
4083.15382,0.31175
4081.22507,0.31223
4079.29632,0.31321
4077.36758,0.31423
4075.43883,0.31476
4073.51009,0.31491
4071.58134,0.31489
4069.65260,0.31430
4067.72385,0.31305
4065.79511,0.31179
4063.86636,0.31078
4061.93762,0.30959
4060.00887,0.30805
4058.08013,0.30637
4056.15138,0.30458
4054.22264,0.30286
4052.29389,0.30120
4050.36515,0.29934
4048.43640,0.29748
4046.50765,0.29590
4044.57891,0.29447
4042.65016,0.29326
4040.72142,0.29222
4038.79267,0.29114
4036.86393,0.29018
4034.93518,0.28953
4033.00644,0.28891
4031.07769,0.28813
4029.14895,0.28734
4027.22020,0.28661
4025.29146,0.28610
4023.36271,0.28608
4021.43397,0.28623
4019.50522,0.28622
4017.57648,0.28624
4015.64773,0.28644
4013.71898,0.28673
4011.79024,0.28708
4009.86149,0.28753
4007.93275,0.28811
4006.00400,0.28883
4004.07526,0.28963
4002.14651,0.29039
4000.21777,0.29125
3998.28902,0.29245
3996.36028,0.29375
3994.43153,0.29463
3992.50279,0.29518
3990.57404,0.29588
3988.64530,0.29685
3986.71655,0.29791
3984.78780,0.29894
3982.85906,0.29969
3980.93031,0.29995
3979.00157,0.30006
3977.07282,0.30036
3975.14408,0.30091
3973.21533,0.30162
3971.28659,0.30235
3969.35784,0.30318
3967.42910,0.30416
3965.50035,0.30504
3963.57161,0.30580
3961.64286,0.30652
3959.71412,0.30726
3957.78537,0.30803
3955.85663,0.30893
3953.92788,0.30990
3951.99913,0.31065
3950.07039,0.31137
3948.14164,0.31233
3946.21290,0.31333
3944.28415,0.31420
3942.35541,0.31512
3940.42666,0.31625
3938.49792,0.31741
3936.56917,0.31854
3934.64043,0.31967
3932.71168,0.32061
3930.78294,0.32133
3928.85419,0.32212
3926.92545,0.32308
3924.99670,0.32422
3923.06795,0.32545
3921.13921,0.32655
3919.21046,0.32733
3917.28172,0.32785
3915.35297,0.32844
3913.42423,0.32938
3911.49548,0.33058
3909.56674,0.33163
3907.63799,0.33252
3905.70925,0.33344
3903.78050,0.33422
3901.85176,0.33484
3899.92301,0.33556
3897.99427,0.33649
3896.06552,0.33777
3894.13678,0.33904
3892.20803,0.33980
3890.27928,0.34025
3888.35054,0.34084
3886.42179,0.34162
3884.49305,0.34248
3882.56430,0.34320
3880.63556,0.34373
3878.70681,0.34425
3876.77807,0.34478
3874.84932,0.34531
3872.92058,0.34601
3870.99183,0.34720
3869.06309,0.34889
3867.13434,0.35050
3865.20560,0.35188
3863.27685,0.35329
3861.34811,0.35466
3859.41936,0.35587
3857.49061,0.35705
3855.56187,0.35833
3853.63312,0.35957
3851.70438,0.36054
3849.77563,0.36146
3847.84689,0.36249
3845.91814,0.36328
3843.98940,0.36381
3842.06065,0.36456
3840.13191,0.36548
3838.20316,0.36611
3836.27442,0.36645
3834.34567,0.36678
3832.41693,0.36718
3830.48818,0.36748
3828.55943,0.36758
3826.63069,0.36763
3824.70194,0.36762
3822.77320,0.36736
3820.84445,0.36697
3818.91571,0.36668
3816.98696,0.36639
3815.05822,0.36607
3813.12947,0.36573
3811.20073,0.36528
3809.27198,0.36468
3807.34324,0.36419
3805.41449,0.36408
3803.48575,0.36433
3801.55700,0.36480
3799.62826,0.36541
3797.69951,0.36624
3795.77076,0.36708
3793.84202,0.36753
3791.91327,0.36766
3789.98453,0.36769
3788.05578,0.36754
3786.12704,0.36712
3784.19829,0.36671
3782.26955,0.36657
3780.34080,0.36644
3778.41206,0.36619
3776.48331,0.36588
3774.55457,0.36522
3772.62582,0.36438
3770.69708,0.36413
3768.76833,0.36420
3766.83959,0.36361
3764.91084,0.36236
3762.98209,0.36115
3761.05335,0.36035
3759.12460,0.35984
3757.19586,0.35968
3755.26711,0.35970
3753.33837,0.35964
3751.40962,0.35972
3749.48088,0.36005
3747.55213,0.36006
3745.62339,0.35943
3743.69464,0.35875
3741.76590,0.35841
3739.83715,0.35765
3737.90841,0.35608
3735.97966,0.35418
3734.05091,0.35267
3732.12217,0.35142
3730.19342,0.35012
3728.26468,0.34892
3726.33593,0.34803
3724.40719,0.34719
3722.47844,0.34602
3720.54970,0.34465
3718.62095,0.34316
3716.69221,0.34144
3714.76346,0.33945
3712.83472,0.33705
3710.90597,0.33439
3708.97723,0.33178
3707.04848,0.32913
3705.11974,0.32619
3703.19099,0.32282
3701.26224,0.31904
3699.33350,0.31503
3697.40475,0.31110
3695.47601,0.30745
3693.54726,0.30370
3691.61852,0.29907
3689.68977,0.29365
3687.76103,0.28840
3685.83228,0.28395
3683.90354,0.28010
3681.97479,0.27641
3680.04605,0.27264
3678.11730,0.26856
3676.18856,0.26361
3674.25981,0.25827
3672.33107,0.25330
3670.40232,0.24766
3668.47357,0.24117
3666.54483,0.23498
3664.61608,0.22919
3662.68734,0.22369
3660.75859,0.21844
3658.82985,0.21297
3656.90110,0.20699
3654.97236,0.20125
3653.04361,0.19629
3651.11487,0.19101
3649.18612,0.18483
3647.25738,0.17904
3645.32863,0.17446
3643.39989,0.17041
3641.47114,0.16620
3639.54239,0.16177
3637.61365,0.15741
3635.68490,0.15338
3633.75616,0.14982
3631.82741,0.14656
3629.89867,0.14314
3627.96992,0.13933
3626.04118,0.13548
3624.11243,0.13188
3622.18369,0.12888
3620.25494,0.12611
3618.32620,0.12303
3616.39745,0.12013
3614.46871,0.11743
3612.53996,0.11474
3610.61122,0.11226
3608.68247,0.10970
3606.75372,0.10676
3604.82498,0.10388
3602.89623,0.10139
3600.96749,0.09905
3599.03874,0.09667
3597.11000,0.09454
3595.18125,0.09261
3593.25251,0.09044
3591.32376,0.08828
3589.39502,0.08645
3587.46627,0.08465
3585.53753,0.08291
3583.60878,0.08137
3581.68004,0.07964
3579.75129,0.07760
3577.82254,0.07568
3575.89380,0.07415
3573.96505,0.07276
3572.03631,0.07123
3570.10756,0.06981
3568.17882,0.06882
3566.25007,0.06795
3564.32133,0.06680
3562.39258,0.06557
3560.46384,0.06444
3558.53509,0.06318
3556.60635,0.06179
3554.67760,0.06062
3552.74886,0.05948
3550.82011,0.05804
3548.89137,0.05665
3546.96262,0.05576
3545.03387,0.05541
3543.10513,0.05523
3541.17638,0.05499
3539.24764,0.05453
3537.31889,0.05365
3535.39015,0.05268
3533.46140,0.05209
3531.53266,0.05174
3529.60391,0.05148
3527.67517,0.05131
3525.74642,0.05097
3523.81768,0.05032
3521.88893,0.04958
3519.96019,0.04894
3518.03144,0.04838
3516.10270,0.04800
3514.17395,0.04786
3512.24520,0.04772
3510.31646,0.04723
3508.38771,0.04639
3506.45897,0.04575
3504.53022,0.04557
3502.60148,0.04544
3500.67273,0.04512
3498.74399,0.04477
3496.81524,0.04453
3494.88650,0.04436
3492.95775,0.04415
3491.02901,0.04378
3489.10026,0.04349
3487.17152,0.04336
3485.24277,0.04309
3483.31402,0.04261
3481.38528,0.04210
3479.45653,0.04180
3477.52779,0.04167
3475.59904,0.04148
3473.67030,0.04112
3471.74155,0.04073
3469.81281,0.04049
3467.88406,0.04033
3465.95532,0.04019
3464.02657,0.03996
3462.09783,0.03950
3460.16908,0.03904
3458.24034,0.03886
3456.31159,0.03883
3454.38285,0.03874
3452.45410,0.03847
3450.52535,0.03797
3448.59661,0.03745
3446.66786,0.03728
3444.73912,0.03730
3442.81037,0.03711
3440.88163,0.03657
3438.95288,0.03579
3437.02414,0.03504
3435.09539,0.03454
3433.16665,0.03455
3431.23790,0.03494
3429.30916,0.03513
3427.38041,0.03507
3425.45167,0.03524
3423.52292,0.03567
3421.59418,0.03607
3419.66543,0.03648
3417.73668,0.03705
3415.80794,0.03748
3413.87919,0.03742
3411.95045,0.03729
3410.02170,0.03768
3408.09296,0.03821
3406.16421,0.03839
3404.23547,0.03833
3402.30672,0.03821
3400.37798,0.03821
3398.44923,0.03858
3396.52049,0.03911
3394.59174,0.03958
3392.66300,0.03988
3390.73425,0.03993
3388.80550,0.03977
3386.87676,0.03952
3384.94801,0.03933
3383.01927,0.03935
3381.09052,0.03958
3379.16178,0.03971
3377.23303,0.03964
3375.30429,0.03951
3373.37554,0.03936
3371.44680,0.03934
3369.51805,0.03961
3367.58931,0.03996
3365.66056,0.04012
3363.73182,0.04007
3361.80307,0.04010
3359.87433,0.04046
3357.94558,0.04085
3356.01683,0.04085
3354.08809,0.04063
3352.15934,0.04049
3350.23060,0.04056
3348.30185,0.04067
3346.37311,0.04054
3344.44436,0.04034
3342.51562,0.04044
3340.58687,0.04080
3338.65813,0.04112
3336.72938,0.04138
3334.80064,0.04159
3332.87189,0.04172
3330.94315,0.04189
3329.01440,0.04204
3327.08566,0.04201
3325.15691,0.04212
3323.22816,0.04247
3321.29942,0.04263
3319.37067,0.04245
3317.44193,0.04230
3315.51318,0.04235
3313.58444,0.04239
3311.65569,0.04228
3309.72695,0.04213
3307.79820,0.04210
3305.86946,0.04227
3303.94071,0.04261
3302.01197,0.04294
3300.08322,0.04315
3298.15448,0.04323
3296.22573,0.04331
3294.29698,0.04346
3292.36824,0.04360
3290.43949,0.04370
3288.51075,0.04385
3286.58200,0.04410
3284.65326,0.04426
3282.72451,0.04421
3280.79577,0.04420
3278.86702,0.04451
3276.93828,0.04497
3275.00953,0.04523
3273.08079,0.04520
3271.15204,0.04512
3269.22330,0.04523
3267.29455,0.04552
3265.36581,0.04589
3263.43706,0.04624
3261.50831,0.04656
3259.57957,0.04696
3257.65082,0.04738
3255.72208,0.04752
3253.79333,0.04752
3251.86459,0.04773
3249.93584,0.04806
3248.00710,0.04837
3246.07835,0.04854
3244.14961,0.04849
3242.22086,0.04841
3240.29212,0.04848
3238.36337,0.04880
3236.43463,0.04915
3234.50588,0.04928
3232.57713,0.04943
3230.64839,0.04986
3228.71964,0.05047
3226.79090,0.05103
3224.86215,0.05119
3222.93341,0.05095
3221.00466,0.05093
3219.07592,0.05165
3217.14717,0.05265
3215.21843,0.05326
3213.28968,0.05360
3211.36094,0.05398
3209.43219,0.05426
3207.50345,0.05441
3205.57470,0.05460
3203.64596,0.05494
3201.71721,0.05538
3199.78846,0.05592
3197.85972,0.05665
3195.93097,0.05736
3194.00223,0.05772
3192.07348,0.05799
3190.14474,0.05848
3188.21599,0.05895
3186.28725,0.05922
3184.35850,0.05951
3182.42976,0.05990
3180.50101,0.06037
3178.57227,0.06102
3176.64352,0.06175
3174.71478,0.06232
3172.78603,0.06259
3170.85729,0.06280
3168.92854,0.06322
3166.99979,0.06381
3165.07105,0.06449
3163.14230,0.06510
3161.21356,0.06558
3159.28481,0.06611
3157.35607,0.06667
3155.42732,0.06707
3153.49858,0.06735
3151.56983,0.06764
3149.64109,0.06798
3147.71234,0.06832
3145.78360,0.06882
3143.85485,0.06951
3141.92611,0.07009
3139.99736,0.07061
3138.06861,0.07138
3136.13987,0.07220
3134.21112,0.07247
3132.28238,0.07234
3130.35363,0.07255
3128.42489,0.07313
3126.49614,0.07377
3124.56740,0.07459
3122.63865,0.07554
3120.70991,0.07629
3118.78116,0.07661
3116.85242,0.07667
3114.92367,0.07694
3112.99493,0.07752
3111.06618,0.07816
3109.13744,0.07855
3107.20869,0.07865
3105.27994,0.07879
3103.35120,0.07936
3101.42245,0.08023
3099.49371,0.08102
3097.56496,0.08179
3095.63622,0.08278
3093.70747,0.08374
3091.77873,0.08423
3089.84998,0.08442
3087.92124,0.08471
3085.99249,0.08509
3084.06375,0.08555
3082.13500,0.08613
3080.20626,0.08676
3078.27751,0.08753
3076.34877,0.08840
3074.42002,0.08907
3072.49127,0.08955
3070.56253,0.09026
3068.63378,0.09119
3066.70504,0.09200
3064.77629,0.09261
3062.84755,0.09299
3060.91880,0.09312
3058.99006,0.09323
3057.06131,0.09346
3055.13257,0.09394
3053.20382,0.09488
3051.27508,0.09631
3049.34633,0.09809
3047.41759,0.10001
3045.48884,0.10189
3043.56009,0.10370
3041.63135,0.10528
3039.70260,0.10635
3037.77386,0.10704
3035.84511,0.10757
3033.91637,0.10774
3031.98762,0.10765
3030.05888,0.10778
3028.13013,0.10802
3026.20139,0.10792
3024.27264,0.10755
3022.34390,0.10707
3020.41515,0.10631
3018.48641,0.10526
3016.55766,0.10426
3014.62892,0.10357
3012.70017,0.10325
3010.77142,0.10310
3008.84268,0.10283
3006.91393,0.10241
3004.98519,0.10196
3003.05644,0.10154
3001.12770,0.10109
2999.19895,0.10036
2997.27021,0.09917
2995.34146,0.09775
2993.41272,0.09648
2991.48397,0.09520
2989.55523,0.09337
2987.62648,0.09073
2985.69774,0.08762
2983.76899,0.08465
2981.84025,0.08200
2979.91150,0.07918
2977.98275,0.07571
2976.05401,0.07153
2974.12526,0.06713
2972.19652,0.06332
2970.26777,0.06076
2968.33903,0.05961
2966.41028,0.05950
2964.48154,0.05977
2962.55279,0.05998
2960.62405,0.05995
2958.69530,0.05979
2956.76656,0.05947
2954.83781,0.05881
2952.90907,0.05794
2950.98032,0.05722
2949.05157,0.05683
2947.12283,0.05668
2945.19408,0.05664
2943.26534,0.05677
2941.33659,0.05723
2939.40785,0.05783
2937.47910,0.05818
2935.55036,0.05822
2933.62161,0.05797
2931.69287,0.05748
2929.76412,0.05692
2927.83538,0.05631
2925.90663,0.05537
2923.97789,0.05407
2922.04914,0.05269
2920.12040,0.05112
2918.19165,0.04944
2916.26290,0.04803
2914.33416,0.04686
2912.40541,0.04577
2910.47667,0.04497
2908.54792,0.04465
2906.61918,0.04473
2904.69043,0.04518
2902.76169,0.04595
2900.83294,0.04688
2898.90420,0.04784
2896.97545,0.04873
2895.04671,0.04941
2893.11796,0.04999
2891.18922,0.05064
2889.26047,0.05133
2887.33172,0.05205
2885.40298,0.05294
2883.47423,0.05389
2881.54549,0.05472
2879.61674,0.05544
2877.68800,0.05610
2875.75925,0.05665
2873.83051,0.05702
2871.90176,0.05737
2869.97302,0.05782
2868.04427,0.05827
2866.11553,0.05879
2864.18678,0.05969
2862.25804,0.06086
2860.32929,0.06186
2858.40055,0.06266
2856.47180,0.06347
2854.54305,0.06431
2852.61431,0.06524
2850.68556,0.06654
2848.75682,0.06859
2846.82807,0.07141
2844.89933,0.07460
2842.97058,0.07758
2841.04184,0.08030
2839.11309,0.08292
2837.18435,0.08521
2835.25560,0.08711
2833.32686,0.08903
2831.39811,0.09098
2829.46937,0.09273
2827.54062,0.09438
2825.61188,0.09611
2823.68313,0.09778
2821.75438,0.09935
2819.82564,0.10088
2817.89689,0.10238
2815.96815,0.10383
2814.03940,0.10510
2812.11066,0.10626
2810.18191,0.10756
2808.25317,0.10897
2806.32442,0.11040
2804.39568,0.11176
2802.46693,0.11308
2800.53819,0.11445
2798.60944,0.11591
2796.68070,0.11731
2794.75195,0.11839
2792.82320,0.11917
2790.89446,0.12004
2788.96571,0.12116
2787.03697,0.12237
2785.10822,0.12341
2783.17948,0.12404
2781.25073,0.12434
2779.32199,0.12470
2777.39324,0.12536
2775.46450,0.12611
2773.53575,0.12672
2771.60701,0.12716
2769.67826,0.12754
2767.74952,0.12783
2765.82077,0.12808
2763.89203,0.12853
2761.96328,0.12905
2760.03453,0.12940
2758.10579,0.12967
2756.17704,0.12991
2754.24830,0.13016
2752.31955,0.13043
2750.39081,0.13055
2748.46206,0.13040
2746.53332,0.13014
2744.60457,0.12998
2742.67583,0.12992
2740.74708,0.12987
2738.81834,0.12990
2736.88959,0.13011
2734.96085,0.13061
2733.03210,0.13144
2731.10336,0.13242
2729.17461,0.13323
2727.24586,0.13366
2725.31712,0.13400
2723.38837,0.13454
2721.45963,0.13515
2719.53088,0.13572
2717.60214,0.13642
2715.67339,0.13734
2713.74465,0.13850
2711.81590,0.13977
2709.88716,0.14089
2707.95841,0.14174
2706.02967,0.14263
2704.10092,0.14378
2702.17218,0.14504
2700.24343,0.14628
2698.31468,0.14753
2696.38594,0.14874
2694.45719,0.14990
2692.52845,0.15109
2690.59970,0.15235
2688.67096,0.15363
2686.74221,0.15478
2684.81347,0.15574
2682.88472,0.15655
2680.95598,0.15743
2679.02723,0.15861
2677.09849,0.16000
2675.16974,0.16121
2673.24100,0.16208
2671.31225,0.16274
2669.38351,0.16335
2667.45476,0.16387
2665.52601,0.16427
2663.59727,0.16479
2661.66852,0.16553
2659.73978,0.16622
2657.81103,0.16670
2655.88229,0.16716
2653.95354,0.16779
2652.02480,0.16855
2650.09605,0.16931
2648.16731,0.16999
2646.23856,0.17070
2644.30982,0.17144
2642.38107,0.17200
2640.45233,0.17237
2638.52358,0.17274
2636.59484,0.17292
2634.66609,0.17293
2632.73734,0.17332
2630.80860,0.17419
2628.87985,0.17504
2626.95111,0.17569
2625.02236,0.17626
2623.09362,0.17692
2621.16487,0.17777
2619.23613,0.17873
2617.30738,0.17966
2615.37864,0.18036
2613.44989,0.18088
2611.52115,0.18150
2609.59240,0.18219
2607.66366,0.18276
2605.73491,0.18330
2603.80616,0.18381
2601.87742,0.18422
2599.94867,0.18457
2598.01993,0.18482
2596.09118,0.18502
2594.16244,0.18537
2592.23369,0.18577
2590.30495,0.18602
2588.37620,0.18618
2586.44746,0.18624
2584.51871,0.18616
2582.58997,0.18620
2580.66122,0.18648
2578.73248,0.18681
2576.80373,0.18702
2574.87499,0.18721
2572.94624,0.18740
2571.01749,0.18750
2569.08875,0.18744
2567.16000,0.18720
2565.23126,0.18691
2563.30251,0.18667
2561.37377,0.18646
2559.44502,0.18636
2557.51628,0.18630
2555.58753,0.18603
2553.65879,0.18570
2551.73004,0.18551
2549.80130,0.18528
2547.87255,0.18492
2545.94381,0.18466
2544.01506,0.18460
2542.08631,0.18452
2540.15757,0.18435
2538.22882,0.18432
2536.30008,0.18451
2534.37133,0.18477
2532.44259,0.18507
2530.51384,0.18545
2528.58510,0.18589
2526.65635,0.18643
2524.72761,0.18706
2522.79886,0.18774
2520.87012,0.18849
2518.94137,0.18928
2517.01263,0.19002
2515.08388,0.19067
2513.15514,0.19132
2511.22639,0.19223
2509.29764,0.19352
2507.36890,0.19495
2505.44015,0.19637
2503.51141,0.19775
2501.58266,0.19908
2499.65392,0.20038
2497.72517,0.20175
2495.79643,0.20305
2493.86768,0.20413
2491.93894,0.20524
2490.01019,0.20654
2488.08145,0.20791
2486.15270,0.20932
2484.22396,0.21052
2482.29521,0.21139
2480.36647,0.21245
2478.43772,0.21405
2476.50897,0.21565
2474.58023,0.21684
2472.65148,0.21785
2470.72274,0.21897
2468.79399,0.22006
2466.86525,0.22086
2464.93650,0.22140
2463.00776,0.22193
2461.07901,0.22252
2459.15027,0.22310
2457.22152,0.22375
2455.29278,0.22456
2453.36403,0.22529
2451.43529,0.22582
2449.50654,0.22636
2447.57779,0.22699
2445.64905,0.22771
2443.72030,0.22847
2441.79156,0.22925
2439.86281,0.23000
2437.93407,0.23059
2436.00532,0.23103
2434.07658,0.23146
2432.14783,0.23194
2430.21909,0.23253
2428.29034,0.23330
2426.36160,0.23411
2424.43285,0.23464
2422.50411,0.23490
2420.57536,0.23518
2418.64662,0.23549
2416.71787,0.23574
2414.78912,0.23603
2412.86038,0.23634
2410.93163,0.23659
2409.00289,0.23677
2407.07414,0.23686
2405.14540,0.23692
2403.21665,0.23708
2401.28791,0.23742
2399.35916,0.23786
2397.43042,0.23827
2395.50167,0.23877
2393.57293,0.23941
2391.64418,0.23994
2389.71544,0.24040
2387.78669,0.24095
2385.85795,0.24154
2383.92920,0.24221
2382.00045,0.24309
2380.07171,0.24425
2378.14296,0.24557
2376.21422,0.24666
2374.28547,0.24755
2372.35673,0.24869
2370.42798,0.25010
2368.49924,0.25143
2366.57049,0.25268
2364.64175,0.25409
2362.71300,0.25572
2360.78426,0.25747
2358.85551,0.25897
2356.92677,0.26016
2354.99802,0.26135
2353.06927,0.26273
2351.14053,0.26415
2349.21178,0.26550
2347.28304,0.26684
2345.35429,0.26833
2343.42555,0.26983
2341.49680,0.27096
2339.56806,0.27172
2337.63931,0.27232
2335.71057,0.27284
2333.78182,0.27327
2331.85308,0.27373
2329.92433,0.27441
2327.99559,0.27521
2326.06684,0.27602
2324.13810,0.27686
2322.20935,0.27770
2320.28060,0.27853
2318.35186,0.27925
2316.42311,0.27977
2314.49437,0.28006
2312.56562,0.28009
2310.63688,0.27985
2308.70813,0.27945
2306.77939,0.27907
2304.85064,0.27854
2302.92190,0.27760
2300.99315,0.27626
2299.06441,0.27463
2297.13566,0.27285
2295.20692,0.27122
2293.27817,0.26983
2291.34943,0.26858
2289.42068,0.26742
2287.49193,0.26639
2285.56319,0.26564
2283.63444,0.26524
2281.70570,0.26510
2279.77695,0.26506
2277.84821,0.26491
2275.91946,0.26453
2273.99072,0.26375
2272.06197,0.26245
2270.13323,0.26087
2268.20448,0.25933
2266.27574,0.25771
2264.34699,0.25580
2262.41825,0.25371
2260.48950,0.25159
2258.56075,0.24940
2256.63201,0.24695
2254.70326,0.24397
2252.77452,0.24047
2250.84577,0.23694
2248.91703,0.23388
2246.98828,0.23149
2245.05954,0.22995
2243.13079,0.22938
2241.20205,0.22993
2239.27330,0.23168
2237.34456,0.23476
2235.41581,0.23908
2233.48707,0.24386
2231.55832,0.24800
2229.62958,0.25094
2227.70083,0.25286
2225.77208,0.25417
2223.84334,0.25516
2221.91459,0.25619
2219.98585,0.25742
2218.05710,0.25848
2216.12836,0.25916
2214.19961,0.25974
2212.27087,0.26045
2210.34212,0.26117
2208.41338,0.26178
2206.48463,0.26238
2204.55589,0.26297
2202.62714,0.26327
2200.69840,0.26324
2198.76965,0.26309
2196.84090,0.26282
2194.91216,0.26231
2192.98341,0.26151
2191.05467,0.26056
2189.12592,0.25962
2187.19718,0.25873
2185.26843,0.25775
2183.33969,0.25645
2181.41094,0.25476
2179.48220,0.25292
2177.55345,0.25104
2175.62471,0.24911
2173.69596,0.24718
2171.76722,0.24522
2169.83847,0.24312
2167.90973,0.24106
2165.98098,0.23913
2164.05223,0.23713
2162.12349,0.23508
2160.19474,0.23320
2158.26600,0.23148
2156.33725,0.22976
2154.40851,0.22818
2152.47976,0.22689
2150.55102,0.22579
2148.62227,0.22460
2146.69353,0.22336
2144.76478,0.22229
2142.83604,0.22126
2140.90729,0.22013
2138.97855,0.21914
2137.04980,0.21846
2135.12106,0.21794
2133.19231,0.21742
2131.26356,0.21708
2129.33482,0.21698
2127.40607,0.21695
2125.47733,0.21696
2123.54858,0.21694
2121.61984,0.21700
2119.69109,0.21729
2117.76235,0.21774
2115.83360,0.21823
2113.90486,0.21885
2111.97611,0.21962
2110.04737,0.22038
2108.11862,0.22122
2106.18988,0.22218
2104.26113,0.22307
2102.33238,0.22393
2100.40364,0.22489
2098.47489,0.22574
2096.54615,0.22642
2094.61740,0.22721
2092.68866,0.22826
2090.75991,0.22933
2088.83117,0.23033
2086.90242,0.23152
2084.97368,0.23287
2083.04493,0.23404
2081.11619,0.23494
2079.18744,0.23577
2077.25870,0.23667
2075.32995,0.23756
2073.40121,0.23828
2071.47246,0.23890
2069.54371,0.23959
2067.61497,0.24046
2065.68622,0.24152
2063.75748,0.24263
2061.82873,0.24364
2059.89999,0.24460
2057.97124,0.24559
2056.04250,0.24658
2054.11375,0.24746
2052.18501,0.24821
2050.25626,0.24881
2048.32752,0.24936
2046.39877,0.24999
2044.47003,0.25063
2042.54128,0.25124
2040.61254,0.25193
2038.68379,0.25284
2036.75504,0.25395
2034.82630,0.25507
2032.89755,0.25610
2030.96881,0.25718
2029.04006,0.25833
2027.11132,0.25950
2025.18257,0.26061
2023.25383,0.26157
2021.32508,0.26254
2019.39634,0.26362
2017.46759,0.26457
2015.53885,0.26522
2013.61010,0.26569
2011.68136,0.26600
2009.75261,0.26614
2007.82386,0.26608
2005.89512,0.26581
2003.96637,0.26525
2002.03763,0.26443
2000.10888,0.26362
1998.18014,0.26296
1996.25139,0.26230
1994.32265,0.26171
1992.39390,0.26136
1990.46516,0.26116
1988.53641,0.26094
1986.60767,0.26069
1984.67892,0.26039
1982.75018,0.26000
1980.82143,0.25936
1978.89269,0.25836
1976.96394,0.25716
1975.03519,0.25598
1973.10645,0.25472
1971.17770,0.25299
1969.24896,0.25056
1967.32021,0.24761
1965.39147,0.24461
1963.46272,0.24194
1961.53398,0.24004
1959.60523,0.23938
1957.67649,0.24000
1955.74774,0.24157
1953.81900,0.24382
1951.89025,0.24644
1949.96151,0.24924
1948.03276,0.25225
1946.10402,0.25543
1944.17527,0.25872
1942.24652,0.26220
1940.31778,0.26574
1938.38903,0.26914
1936.46029,0.27235
1934.53154,0.27526
1932.60280,0.27787
1930.67405,0.28033
1928.74531,0.28268
1926.81656,0.28487
1924.88782,0.28682
1922.95907,0.28849
1921.03033,0.29006
1919.10158,0.29163
1917.17284,0.29314
1915.24409,0.29445
1913.31534,0.29553
1911.38660,0.29656
1909.45785,0.29764
1907.52911,0.29863
1905.60036,0.29947
1903.67162,0.30022
1901.74287,0.30085
1899.81413,0.30125
1897.88538,0.30143
1895.95664,0.30149
1894.02789,0.30165
1892.09915,0.30191
1890.17040,0.30200
1888.24166,0.30186
1886.31291,0.30162
1884.38417,0.30127
1882.45542,0.30080
1880.52667,0.30032
1878.59793,0.29972
1876.66918,0.29891
1874.74044,0.29798
1872.81169,0.29698
1870.88295,0.29578
1868.95420,0.29437
1867.02546,0.29274
1865.09671,0.29092
1863.16797,0.28908
1861.23922,0.28720
1859.31048,0.28493
1857.38173,0.28223
1855.45299,0.27927
1853.52424,0.27606
1851.59549,0.27249
1849.66675,0.26870
1847.73800,0.26497
1845.80926,0.26114
1843.88051,0.25711
1841.95177,0.25346
1840.02302,0.25038
1838.09428,0.24747
1836.16553,0.24457
1834.23679,0.24175
1832.30804,0.23915
1830.37930,0.23692
1828.45055,0.23504
1826.52181,0.23331
1824.59306,0.23176
1822.66432,0.23063
1820.73557,0.22973
1818.80682,0.22884
1816.87808,0.22807
1814.94933,0.22730
1813.02059,0.22625
1811.09184,0.22500
1809.16310,0.22384
1807.23435,0.22289
1805.30561,0.22192
1803.37686,0.22070
1801.44812,0.21928
1799.51937,0.21772
1797.59063,0.21612
1795.66188,0.21462
1793.73314,0.21298
1791.80439,0.21094
1789.87565,0.20886
1787.94690,0.20693
1786.01815,0.20475
1784.08941,0.20215
1782.16066,0.19937
1780.23192,0.19649
1778.30317,0.19351
1776.37443,0.19052
1774.44568,0.18737
1772.51694,0.18364
1770.58819,0.17951
1768.65945,0.17523
1766.73070,0.17076
1764.80196,0.16626
1762.87321,0.16137
1760.94447,0.15569
1759.01572,0.14958
1757.08697,0.14284
1755.15823,0.13555
1753.22948,0.12807
1751.30074,0.11994
1749.37199,0.11154
1747.44325,0.10398
1745.51450,0.09764
1743.58576,0.09280
1741.65701,0.08969
1739.72827,0.08804
1737.79952,0.08730
1735.87078,0.08707
1733.94203,0.08733
1732.01329,0.08808
1730.08454,0.08906
1728.15580,0.09019
1726.22705,0.09145
1724.29830,0.09279
1722.36956,0.09400
1720.44081,0.09498
1718.51207,0.09590
1716.58332,0.09656
1714.65458,0.09648
1712.72583,0.09601
1710.79709,0.09576
1708.86834,0.09612
1706.93960,0.09725
1705.01085,0.09898
1703.08211,0.10082
1701.15336,0.10257
1699.22462,0.10418
1697.29587,0.10544
1695.36713,0.10626
1693.43838,0.10655
1691.50963,0.10634
1689.58089,0.10567
1687.65214,0.10461
1685.72340,0.10319
1683.79465,0.10147
1681.86591,0.10041
1679.93716,0.10032
1678.00842,0.10056
1676.07967,0.10057
1674.15093,0.10025
1672.22218,0.09996
1670.29344,0.09993
1668.36469,0.10001
1666.43595,0.10017
1664.50720,0.10044
1662.57845,0.10061
1660.64971,0.10052
1658.72096,0.10035
1656.79222,0.10021
1654.86347,0.10007
1652.93473,0.09972
1651.00598,0.09912
1649.07724,0.09867
1647.14849,0.09850
1645.21975,0.09855
1643.29100,0.09857
1641.36226,0.09851
1639.43351,0.09849
1637.50477,0.09867
1635.57602,0.09923
1633.64728,0.10002
1631.71853,0.10080
1629.78978,0.10167
1627.86104,0.10274
1625.93229,0.10395
1624.00355,0.10503
1622.07480,0.10574
1620.14606,0.10602
1618.21731,0.10585
1616.28857,0.10544
1614.35982,0.10560
1612.43108,0.10687
1610.50233,0.10905
1608.57359,0.11165
1606.64484,0.11428
1604.71610,0.11683
1602.78735,0.11932
1600.85861,0.12165
1598.92986,0.12355
1597.00111,0.12492
1595.07237,0.12587
1593.14362,0.12640
1591.21488,0.12647
1589.28613,0.12610
1587.35739,0.12506
1585.42864,0.12273
1583.49990,0.11895
1581.57115,0.11491
1579.64241,0.11239
1577.71366,0.11250
1575.78492,0.11555
1573.85617,0.12005
1571.92743,0.12444
1569.99868,0.12847
1568.06993,0.13165
1566.14119,0.13375
1564.21244,0.13514
1562.28370,0.13595
1560.35495,0.13629
1558.42621,0.13646
1556.49746,0.13663
1554.56872,0.13665
1552.63997,0.13640
1550.71123,0.13604
1548.78248,0.13578
1546.85374,0.13564
1544.92499,0.13551
1542.99625,0.13527
1541.06750,0.13471
1539.13876,0.13395
1537.21001,0.13346
1535.28126,0.13293
1533.35252,0.13166
1531.42377,0.12983
1529.49503,0.12804
1527.56628,0.12639
1525.63754,0.12498
1523.70879,0.12402
1521.78005,0.12328
1519.85130,0.12235
1517.92256,0.12092
1515.99381,0.11861
1514.06507,0.11495
1512.13632,0.10945
1510.20758,0.10206
1508.27883,0.09325
1506.35008,0.08552
1504.42134,0.08398
1502.49259,0.08804
1500.56385,0.09425
1498.63510,0.09996
1496.70636,0.10334
1494.77761,0.10390
1492.84887,0.10232
1490.92012,0.09891
1488.99138,0.09359
1487.06263,0.08698
1485.13389,0.08018
1483.20514,0.07402
1481.27640,0.06890
1479.34765,0.06492
1477.41891,0.06173
1475.49016,0.05860
1473.56141,0.05515
1471.63267,0.05215
1469.70392,0.05044
1467.77518,0.04930
1465.84643,0.04775
1463.91769,0.04556
1461.98894,0.04327
1460.06020,0.04128
1458.13145,0.03955
1456.20271,0.03829
1454.27396,0.03765
1452.34522,0.03734
1450.41647,0.03723
1448.48773,0.03720
1446.55898,0.03708
1444.63024,0.03690
1442.70149,0.03672
1440.77274,0.03650
1438.84400,0.03627
1436.91525,0.03605
1434.98651,0.03588
1433.05776,0.03583
1431.12902,0.03597
1429.20027,0.03629
1427.27153,0.03672
1425.34278,0.03714
1423.41404,0.03722
1421.48529,0.03686
1419.55655,0.03613
1417.62780,0.03508
1415.69906,0.03400
1413.77031,0.03321
1411.84156,0.03299
1409.91282,0.03329
1407.98407,0.03393
1406.05533,0.03488
1404.12658,0.03610
1402.19784,0.03733
1400.26909,0.03837
1398.34035,0.03914
1396.41160,0.03950
1394.48286,0.03939
1392.55411,0.03885
1390.62537,0.03788
1388.69662,0.03644
1386.76788,0.03462
1384.83913,0.03288
1382.91039,0.03130
1380.98164,0.02975
1379.05289,0.02839
1377.12415,0.02738
1375.19540,0.02668
1373.26666,0.02628
1371.33791,0.02623
1369.40917,0.02650
1367.48042,0.02701
1365.55168,0.02762
1363.62293,0.02809
1361.69419,0.02843
1359.76544,0.02876
1357.83670,0.02892
1355.90795,0.02890
1353.97921,0.02887
1352.05046,0.02875
1350.12172,0.02846
1348.19297,0.02811
1346.26422,0.02775
1344.33548,0.02744
1342.40673,0.02729
1340.47799,0.02721
1338.54924,0.02714
1336.62050,0.02733
1334.69175,0.02786
1332.76301,0.02838
1330.83426,0.02875
1328.90552,0.02898
1326.97677,0.02886
1325.04803,0.02830
1323.11928,0.02752
1321.19054,0.02671
1319.26179,0.02597
1317.33304,0.02559
1315.40430,0.02568
1313.47555,0.02606
1311.54681,0.02652
1309.61806,0.02693
1307.68932,0.02741
1305.76057,0.02806
1303.83183,0.02877
1301.90308,0.02931
1299.97434,0.02968
1298.04559,0.03010
1296.11685,0.03055
1294.18810,0.03078
1292.25936,0.03084
1290.33061,0.03098
1288.40187,0.03120
1286.47312,0.03128
1284.54437,0.03119
1282.61563,0.03123
1280.68688,0.03184
1278.75814,0.03318
1276.82939,0.03480
1274.90065,0.03626
1272.97190,0.03753
1271.04316,0.03851
1269.11441,0.03900
1267.18567,0.03918
1265.25692,0.03924
1263.32818,0.03907
1261.39943,0.03878
1259.47069,0.03870
1257.54194,0.03883
1255.61320,0.03883
1253.68445,0.03858
1251.75570,0.03818
1249.82696,0.03776
1247.89821,0.03746
1245.96947,0.03740
1244.04072,0.03741
1242.11198,0.03709
1240.18323,0.03653
1238.25449,0.03609
1236.32574,0.03591
1234.39700,0.03606
1232.46825,0.03659
1230.53951,0.03746
1228.61076,0.03852
1226.68202,0.03956
1224.75327,0.04048
1222.82452,0.04141
1220.89578,0.04251
1218.96703,0.04369
1217.03829,0.04450
1215.10954,0.04448
1213.18080,0.04363
1211.25205,0.04208
1209.32331,0.04030
1207.39456,0.03922
1205.46582,0.03917
1203.53707,0.03957
1201.60833,0.04004
1199.67958,0.04059
1197.75084,0.04131
1195.82209,0.04236
1193.89335,0.04358
1191.96460,0.04427
1190.03585,0.04403
1188.10711,0.04298
1186.17836,0.04140
1184.24962,0.03955
1182.32087,0.03747
1180.39213,0.03529
1178.46338,0.03355
1176.53464,0.03254
1174.60589,0.03215
1172.67715,0.03251
1170.74840,0.03362
1168.81966,0.03485
1166.89091,0.03558
1164.96217,0.03568
1163.03342,0.03505
1161.10467,0.03361
1159.17593,0.03174
1157.24718,0.03000
1155.31844,0.02856
1153.38969,0.02733
1151.46095,0.02624
1149.53220,0.02514
1147.60346,0.02398
1145.67471,0.02293
1143.74597,0.02213
1141.81722,0.02139
1139.88848,0.02055
1137.95973,0.01991
1136.03099,0.01976
1134.10224,0.02006
1132.17350,0.02063
1130.24475,0.02119
1128.31600,0.02158
1126.38726,0.02191
1124.45851,0.02243
1122.52977,0.02319
1120.60102,0.02367
1118.67228,0.02362
1116.74353,0.02350
1114.81479,0.02375
1112.88604,0.02442
1110.95730,0.02532
1109.02855,0.02596
1107.09981,0.02615
1105.17106,0.02619
1103.24232,0.02608
1101.31357,0.02575
1099.38483,0.02562
1097.45608,0.02564
1095.52733,0.02540
1093.59859,0.02503
1091.66984,0.02493
1089.74110,0.02518
1087.81235,0.02569
1085.88361,0.02649
1083.95486,0.02753
1082.02612,0.02881
1080.09737,0.03071
1078.16863,0.03317
1076.23988,0.03534
1074.31114,0.03700
1072.38239,0.03878
1070.45365,0.04094
1068.52490,0.04325
1066.59615,0.04563
1064.66741,0.04799
1062.73866,0.04980
1060.80992,0.05042
1058.88117,0.04988
1056.95243,0.04862
1055.02368,0.04703
1053.09494,0.04530
1051.16619,0.04340
1049.23745,0.04160
1047.30870,0.04011
1045.37996,0.03876
1043.45121,0.03788
1041.52247,0.03820
1039.59372,0.03974
1037.66498,0.04149
1035.73623,0.04252
1033.80748,0.04278
1031.87874,0.04241
1029.94999,0.04130
1028.02125,0.03944
1026.09250,0.03761
1024.16376,0.03692
1022.23501,0.03731
1020.30627,0.03784
1018.37752,0.03827
1016.44878,0.03926
1014.52003,0.04129
1012.59129,0.04403
1010.66254,0.04670
1008.73380,0.04872
1006.80505,0.04998
1004.87631,0.05069
1002.94756,0.05131
1001.01881,0.05221
999.09007,0.05324
997.16132,0.05401
995.23258,0.05457
993.30383,0.05500
991.37509,0.05500
989.44634,0.05462
987.51760,0.05460
985.58885,0.05546
983.66011,0.05702
981.73136,0.05896
979.80262,0.06109
977.87387,0.06299
975.94513,0.06442
974.01638,0.06584
972.08763,0.06776
970.15889,0.07023
968.23014,0.07334
966.30140,0.07718
964.37265,0.08165
962.44391,0.08668
960.51516,0.09226
958.58642,0.09815
956.65767,0.10371
954.72893,0.10851
952.80018,0.11289
950.87144,0.11719
948.94269,0.12106
947.01395,0.12410
945.08520,0.12643
943.15646,0.12835
941.22771,0.12983
939.29896,0.13062
937.37022,0.13075
935.44147,0.13080
933.51273,0.13114
931.58398,0.13155
929.65524,0.13190
927.72649,0.13240
925.79775,0.13297
923.86900,0.13310
921.94026,0.13250
920.01151,0.13106
918.08277,0.12856
916.15402,0.12501
914.22528,0.12079
912.29653,0.11619
910.36779,0.11131
908.43904,0.10631
906.51029,0.10162
904.58155,0.09742
902.65280,0.09366
900.72406,0.09046
898.79531,0.08837
896.86657,0.08781
894.93782,0.08871
893.00908,0.09109
891.08033,0.09466
889.15159,0.09839
887.22284,0.10124
885.29410,0.10295
883.36535,0.10360
881.43661,0.10330
879.50786,0.10236
877.57911,0.10099
875.65037,0.09954
873.72162,0.09938
871.79288,0.10233
869.86413,0.10839
867.93539,0.11502
866.00664,0.11970
864.07790,0.12181
862.14915,0.12174
860.22041,0.12001
858.29166,0.11732
856.36292,0.11420
854.43417,0.11097
852.50543,0.10808
850.57668,0.10574
848.64794,0.10430
846.71919,0.10447
844.79044,0.10637
842.86170,0.10929
840.93295,0.11219
839.00421,0.11436
837.07546,0.11587
835.14672,0.11744
833.21797,0.11928
831.28923,0.12084
829.36048,0.12181
827.43174,0.12210
825.50299,0.12184
823.57425,0.12150
821.64550,0.12104
819.71676,0.12003
817.78801,0.11856
815.85926,0.11701
813.93052,0.11556
812.00177,0.11410
810.07303,0.11253
808.14428,0.11095
806.21554,0.10945
804.28679,0.10809
802.35805,0.10681
800.42930,0.10510
798.50056,0.10222
796.57181,0.09812
794.64307,0.09437
792.71432,0.09295
790.78558,0.09404
788.85683,0.09611
786.92809,0.09754
784.99934,0.09796
783.07059,0.09803
781.14185,0.09810
779.21310,0.09793
777.28436,0.09729
775.35561,0.09623
773.42687,0.09508
771.49812,0.09417
769.56938,0.09350
767.64063,0.09281
765.71189,0.09185
763.78314,0.09049
761.85440,0.08874
759.92565,0.08671
757.99691,0.08462
756.06816,0.08262
754.13942,0.08045
752.21067,0.07771
750.28192,0.07457
748.35318,0.07159
746.42443,0.06874
744.49569,0.06504
742.56694,0.05995
740.63820,0.05436
738.70945,0.04920
736.78071,0.04479
734.85196,0.04168
732.92322,0.04019
730.99447,0.03987
729.06573,0.04011
727.13698,0.04066
725.20824,0.04158
723.27949,0.04319
721.35074,0.04579
719.42200,0.04935
717.49325,0.05295
715.56451,0.05540
713.63576,0.05681
711.70702,0.05766
709.77827,0.05803
707.84953,0.05841
705.92078,0.05904
703.99204,0.05956
702.06329,0.06009
700.13455,0.06108
698.20580,0.06230
696.27706,0.06326
694.34831,0.06368
692.41957,0.06371
690.49082,0.06371
688.56207,0.06344
686.63333,0.06256
684.70458,0.06141
682.77584,0.06015
680.84709,0.05860
678.91835,0.05723
676.98960,0.05657
675.06086,0.05650
673.13211,0.05658
671.20337,0.05648
669.27462,0.05657
667.34588,0.05713
665.41713,0.05752
663.48839,0.05759
661.55964,0.05781
659.63090,0.05825
657.70215,0.05878
655.77340,0.05926
653.84466,0.05948
651.91591,0.05949
649.98717,0.05940
648.05842,0.05903
646.12968,0.05857
644.20093,0.05826
642.27219,0.05780
640.34344,0.05677
638.41470,0.05501
636.48595,0.05288
634.55721,0.05108
632.62846,0.05040
630.69972,0.05104
628.77097,0.05185
626.84222,0.05215
624.91348,0.05243
622.98473,0.05262
621.05599,0.05273
619.12724,0.05278
617.19850,0.05223
615.26975,0.05188
613.34101,0.05304
611.41226,0.05425
609.48352,0.05347
607.55477,0.05220
605.62603,0.05290
603.69728,0.05520
601.76854,0.05720
599.83979,0.05728
