7497.03301,0.68085
7495.10426,0.68275
7493.17552,0.68451
7491.24677,0.68360
7489.31803,0.68020
7487.38928,0.67948
7485.46054,0.68046
7483.53179,0.67876
7481.60305,0.67654
7479.67430,0.67555
7477.74556,0.67529
7475.81681,0.67731
7473.88807,0.68094
7471.95932,0.68336
7470.03057,0.68242
7468.10183,0.67751
7466.17308,0.67342
7464.24434,0.67348
7462.31559,0.67514
7460.38685,0.67793
7458.45810,0.68124
7456.52936,0.68304
7454.60061,0.68479
7452.67187,0.68743
7450.74312,0.68773
7448.81438,0.68436
7446.88563,0.68112
7444.95689,0.67957
7443.02814,0.67849
7441.09940,0.67904
7439.17065,0.68211
7437.24190,0.68474
7435.31316,0.68181
7433.38441,0.67324
7431.45567,0.66762
7429.52692,0.67175
7427.59818,0.67964
7425.66943,0.67995
7423.74069,0.67375
7421.81194,0.67220
7419.88320,0.67657
7417.95445,0.67959
7416.02571,0.67931
7414.09696,0.67753
7412.16822,0.67571
7410.23947,0.67263
7408.31073,0.66566
7406.38198,0.65912
7404.45323,0.66018
7402.52449,0.66575
7400.59574,0.66469
7398.66700,0.65769
7396.73825,0.65649
7394.80951,0.66352
7392.88076,0.67225
7390.95202,0.67661
7389.02327,0.67414
7387.09453,0.66707
7385.16578,0.66016
7383.23704,0.65811
7381.30829,0.66053
7379.37955,0.66208
7377.45080,0.66004
7375.52205,0.65867
7373.59331,0.66157
7371.66456,0.66361
7369.73582,0.66154
7367.80707,0.66033
7365.87833,0.66241
7363.94958,0.66378
7362.02084,0.66261
7360.09209,0.66104
7358.16335,0.65934
7356.23460,0.65908
7354.30586,0.66227
7352.37711,0.66328
7350.44837,0.65843
7348.51962,0.65356
7346.59088,0.65214
7344.66213,0.65254
7342.73338,0.65498
7340.80464,0.65844
7338.87589,0.65916
7336.94715,0.65555
7335.01840,0.65009
7333.08966,0.64869
7331.16091,0.65237
7329.23217,0.65432
7327.30342,0.65248
7325.37468,0.65201
7323.44593,0.65399
7321.51719,0.65363
7319.58844,0.64841
7317.65970,0.64280
7315.73095,0.64221
7313.80221,0.64562
7311.87346,0.64769
7309.94471,0.64531
7308.01597,0.63920
7306.08722,0.63484
7304.15848,0.63915
7302.22973,0.64873
7300.30099,0.65365
7298.37224,0.65288
7296.44350,0.65141
7294.51475,0.64956
7292.58601,0.64532
7290.65726,0.64230
7288.72852,0.64472
7286.79977,0.64938
7284.87103,0.65229
7282.94228,0.65218
7281.01353,0.64798
7279.08479,0.64269
7277.15604,0.64199
7275.22730,0.64638
7273.29855,0.65024
7271.36981,0.65048
7269.44106,0.65018
7267.51232,0.65086
7265.58357,0.65007
7263.65483,0.64906
7261.72608,0.65163
7259.79734,0.65487
7257.86859,0.65324
7255.93985,0.64781
7254.01110,0.64258
7252.08236,0.63969
7250.15361,0.64029
7248.22486,0.64380
7246.29612,0.64682
7244.36737,0.64721
7242.43863,0.64630
7240.50988,0.64443
7238.58114,0.64108
7236.65239,0.63828
7234.72365,0.63853
7232.79490,0.64147
7230.86616,0.64382
7228.93741,0.64339
7227.00867,0.64122
7225.07992,0.63964
7223.15118,0.64141
7221.22243,0.64671
7219.29369,0.65044
7217.36494,0.64836
7215.43619,0.64404
7213.50745,0.64260
7211.57870,0.64313
7209.64996,0.64332
7207.72121,0.64453
7205.79247,0.64510
7203.86372,0.64220
7201.93498,0.64051
7200.00623,0.64152
7198.07749,0.64083
7196.14874,0.63920
7194.22000,0.63892
7192.29125,0.63983
7190.36251,0.64037
7188.43376,0.64078
7186.50501,0.64282
7184.57627,0.64236
7182.64752,0.63705
7180.71878,0.63532
7178.79003,0.64236
7176.86129,0.65021
7174.93254,0.65130
7173.00380,0.64812
7171.07505,0.64480
7169.14631,0.64196
7167.21756,0.64088
7165.28882,0.64185
7163.36007,0.64196
7161.43133,0.64052
7159.50258,0.63949
7157.57384,0.63978
7155.64509,0.64050
7153.71634,0.63914
7151.78760,0.63622
7149.85885,0.63471
7147.93011,0.63492
7146.00136,0.63502
7144.07262,0.63332
7142.14387,0.63200
7140.21513,0.63191
7138.28638,0.63037
7136.35764,0.63023
7134.42889,0.63418
7132.50015,0.63784
7130.57140,0.63640
7128.64266,0.63153
7126.71391,0.62896
7124.78516,0.62879
7122.85642,0.62813
7120.92767,0.62743
7118.99893,0.62595
7117.07018,0.62399
7115.14144,0.62424
7113.21269,0.62566
7111.28395,0.62704
7109.35520,0.62930
7107.42646,0.63128
7105.49771,0.63121
7103.56897,0.62880
7101.64022,0.62549
7099.71148,0.62370
7097.78273,0.62295
7095.85399,0.62093
7093.92524,0.61718
7091.99649,0.61377
7090.06775,0.61371
7088.13900,0.61584
7086.21026,0.61685
7084.28151,0.61664
7082.35277,0.61619
7080.42402,0.61659
7078.49528,0.61859
7076.56653,0.62056
7074.63779,0.61963
7072.70904,0.61556
7070.78030,0.61178
7068.85155,0.60880
7066.92281,0.60360
7064.99406,0.59888
7063.06532,0.59820
7061.13657,0.59779
7059.20782,0.59591
7057.27908,0.59642
7055.35033,0.59857
7053.42159,0.59789
7051.49284,0.59561
7049.56410,0.59542
7047.63535,0.59591
7045.70661,0.59449
7043.77786,0.59302
7041.84912,0.59336
7039.92037,0.59266
7037.99163,0.59076
7036.06288,0.59170
7034.13414,0.59253
7032.20539,0.58914
7030.27664,0.58614
7028.34790,0.58560
7026.41915,0.58364
7024.49041,0.58110
7022.56166,0.57960
7020.63292,0.57661
7018.70417,0.57291
7016.77543,0.57117
7014.84668,0.57105
7012.91794,0.57149
7010.98919,0.57203
7009.06045,0.57298
7007.13170,0.57329
7005.20296,0.57122
7003.27421,0.56911
7001.34547,0.57012
6999.41672,0.57209
6997.48797,0.57083
6995.55923,0.56686
6993.63048,0.56445
6991.70174,0.56459
6989.77299,0.56424
6987.84425,0.56349
6985.91550,0.56445
6983.98676,0.56529
6982.05801,0.56366
6980.12927,0.56157
6978.20052,0.56167
6976.27178,0.56222
6974.34303,0.56209
6972.41429,0.56323
6970.48554,0.56501
6968.55680,0.56505
6966.62805,0.56248
6964.69930,0.55877
6962.77056,0.55691
6960.84181,0.55758
6958.91307,0.55908
6956.98432,0.55990
6955.05558,0.56020
6953.12683,0.56071
6951.19809,0.56181
6949.26934,0.56326
6947.34060,0.56370
6945.41185,0.56283
6943.48311,0.56116
6941.55436,0.55832
6939.62562,0.55513
6937.69687,0.55278
6935.76812,0.55092
6933.83938,0.55015
6931.91063,0.55221
6929.98189,0.55684
6928.05314,0.56013
6926.12440,0.55848
6924.19565,0.55459
6922.26691,0.55264
6920.33816,0.55217
6918.40942,0.55163
6916.48067,0.55043
6914.55193,0.54883
6912.62318,0.54822
6910.69444,0.54903
6908.76569,0.55050
6906.83695,0.55220
6904.90820,0.55342
6902.97945,0.55361
6901.05071,0.55353
6899.12196,0.55342
6897.19322,0.55284
6895.26447,0.55277
6893.33573,0.55372
6891.40698,0.55299
6889.47824,0.54862
6887.54949,0.54363
6885.62075,0.54251
6883.69200,0.54598
6881.76326,0.55007
6879.83451,0.55069
6877.90577,0.54854
6875.97702,0.54694
6874.04828,0.54688
6872.11953,0.54675
6870.19078,0.54567
6868.26204,0.54414
6866.33329,0.54256
6864.40455,0.54171
6862.47580,0.54268
6860.54706,0.54488
6858.61831,0.54571
6856.68957,0.54416
6854.76082,0.54262
6852.83208,0.54289
6850.90333,0.54333
6848.97459,0.54122
6847.04584,0.53773
6845.11710,0.53751
6843.18835,0.54086
6841.25960,0.54258
6839.33086,0.54162
6837.40211,0.54169
6835.47337,0.54324
6833.54462,0.54375
6831.61588,0.54241
6829.68713,0.54130
6827.75839,0.54051
6825.82964,0.53827
6823.90090,0.53711
6821.97215,0.53867
6820.04341,0.53997
6818.11466,0.53916
6816.18592,0.53718
6814.25717,0.53677
6812.32843,0.53818
6810.39968,0.53795
6808.47093,0.53518
6806.54219,0.53210
6804.61344,0.52988
6802.68470,0.52817
6800.75595,0.52693
6798.82721,0.52698
6796.89846,0.52814
6794.96972,0.52865
6793.04097,0.52831
6791.11223,0.52923
6789.18348,0.53155
6787.25474,0.53246
6785.32599,0.53137
6783.39725,0.53014
6781.46850,0.52830
6779.53975,0.52505
6777.61101,0.52329
6775.68226,0.52492
6773.75352,0.52648
6771.82477,0.52472
6769.89603,0.52172
6767.96728,0.52095
6766.03854,0.52266
6764.10979,0.52529
6762.18105,0.52704
6760.25230,0.52693
6758.32356,0.52631
6756.39481,0.52584
6754.46607,0.52461
6752.53732,0.52307
6750.60858,0.52286
6748.67983,0.52435
6746.75108,0.52572
6744.82234,0.52658
6742.89359,0.52825
6740.96485,0.52916
6739.03610,0.52730
6737.10736,0.52485
6735.17861,0.52492
6733.24987,0.52669
6731.32112,0.52712
6729.39238,0.52544
6727.46363,0.52309
6725.53489,0.52168
6723.60614,0.52224
6721.67740,0.52395
6719.74865,0.52500
6717.81991,0.52532
6715.89116,0.52509
6713.96241,0.52416
6712.03367,0.52385
6710.10492,0.52418
6708.17618,0.52407
6706.24743,0.52389
6704.31869,0.52384
6702.38994,0.52370
6700.46120,0.52353
6698.53245,0.52384
6696.60371,0.52453
6694.67496,0.52453
6692.74622,0.52362
6690.81747,0.52257
6688.88873,0.52262
6686.95998,0.52409
6685.03123,0.52478
6683.10249,0.52305
6681.17374,0.52155
6679.24500,0.52300
6677.31625,0.52496
6675.38751,0.52524
6673.45876,0.52538
6671.53002,0.52597
6669.60127,0.52626
6667.67253,0.52657
6665.74378,0.52723
6663.81504,0.52738
6661.88629,0.52735
6659.95755,0.52784
6658.02880,0.52723
6656.10006,0.52584
6654.17131,0.52663
6652.24256,0.52864
6650.31382,0.52940
6648.38507,0.52902
6646.45633,0.52800
6644.52758,0.52737
6642.59884,0.52789
6640.67009,0.52877
6638.74135,0.52924
6636.81260,0.52956
6634.88386,0.53150
6632.95511,0.53502
6631.02637,0.53654
6629.09762,0.53517
6627.16888,0.53369
6625.24013,0.53373
6623.31139,0.53483
6621.38264,0.53421
6619.45389,0.53169
6617.52515,0.53156
6615.59640,0.53268
6613.66766,0.53062
6611.73891,0.52795
6609.81017,0.52869
6607.88142,0.53165
6605.95268,0.53271
6604.02393,0.53141
6602.09519,0.53201
6600.16644,0.53460
6598.23770,0.53612
6596.30895,0.53665
6594.38021,0.53625
6592.45146,0.53499
6590.52271,0.53468
6588.59397,0.53584
6586.66522,0.53702
6584.73648,0.53769
6582.80773,0.53855
6580.87899,0.53921
6578.95024,0.53915
6577.02150,0.53853
6575.09275,0.53685
6573.16401,0.53518
6571.23526,0.53619
6569.30652,0.53866
6567.37777,0.53903
6565.44903,0.53849
6563.52028,0.53950
6561.59154,0.54013
6559.66279,0.53941
6557.73404,0.53952
6555.80530,0.53998
6553.87655,0.53932
6551.94781,0.53849
6550.01906,0.53825
6548.09032,0.53893
6546.16157,0.54027
6544.23283,0.54077
6542.30408,0.54037
6540.37534,0.53977
6538.44659,0.53947
6536.51785,0.53994
6534.58910,0.54014
6532.66036,0.53921
6530.73161,0.53797
6528.80287,0.53749
6526.87412,0.53800
6524.94537,0.53827
6523.01663,0.53783
6521.08788,0.53779
6519.15914,0.53804
6517.23039,0.53767
6515.30165,0.53682
6513.37290,0.53594
6511.44416,0.53554
6509.51541,0.53579
6507.58667,0.53690
6505.65792,0.53906
6503.72918,0.54033
6501.80043,0.54039
6499.87169,0.54084
6497.94294,0.54124
6496.01419,0.54154
6494.08545,0.54126
6492.15670,0.53925
6490.22796,0.53720
6488.29921,0.53662
6486.37047,0.53662
6484.44172,0.53629
6482.51298,0.53628
6480.58423,0.53710
6478.65549,0.53755
6476.72674,0.53797
6474.79800,0.53913
6472.86925,0.53941
6470.94051,0.53771
6469.01176,0.53538
6467.08302,0.53455
6465.15427,0.53499
6463.22552,0.53511
6461.29678,0.53584
6459.36803,0.53783
6457.43929,0.53926
6455.51054,0.53975
6453.58180,0.53998
6451.65305,0.53939
6449.72431,0.53830
6447.79556,0.53797
6445.86682,0.53811
6443.93807,0.53842
6442.00933,0.53896
6440.08058,0.53819
6438.15184,0.53683
6436.22309,0.53849
6434.29434,0.54226
6432.36560,0.54381
6430.43685,0.54244
6428.50811,0.54045
6426.57936,0.53898
6424.65062,0.53820
6422.72187,0.53928
6420.79313,0.54179
6418.86438,0.54333
6416.93564,0.54340
6415.00689,0.54304
6413.07815,0.54304
6411.14940,0.54303
6409.22066,0.54201
6407.29191,0.54111
6405.36317,0.54167
6403.43442,0.54253
6401.50567,0.54316
6399.57693,0.54469
6397.64818,0.54563
6395.71944,0.54418
6393.79069,0.54313
6391.86195,0.54391
6389.93320,0.54374
6388.00446,0.54201
6386.07571,0.54109
6384.14697,0.54226
6382.21822,0.54360
6380.28948,0.54322
6378.36073,0.54274
6376.43199,0.54385
6374.50324,0.54452
6372.57450,0.54342
6370.64575,0.54313
6368.71700,0.54445
6366.78826,0.54441
6364.85951,0.54331
6362.93077,0.54423
6361.00202,0.54614
6359.07328,0.54631
6357.14453,0.54471
6355.21579,0.54235
6353.28704,0.54087
6351.35830,0.54170
6349.42955,0.54435
6347.50081,0.54680
6345.57206,0.54707
6343.64332,0.54544
6341.71457,0.54354
6339.78582,0.54285
6337.85708,0.54467
6335.92833,0.54775
6333.99959,0.54861
6332.07084,0.54626
6330.14210,0.54339
6328.21335,0.54293
6326.28461,0.54529
6324.35586,0.54736
6322.42712,0.54643
6320.49837,0.54395
6318.56963,0.54248
6316.64088,0.54266
6314.71214,0.54321
6312.78339,0.54348
6310.85465,0.54426
6308.92590,0.54522
6306.99715,0.54603
6305.06841,0.54662
6303.13966,0.54607
6301.21092,0.54509
6299.28217,0.54554
6297.35343,0.54716
6295.42468,0.54869
6293.49594,0.55001
6291.56719,0.55058
6289.63845,0.54878
6287.70970,0.54578
6285.78096,0.54513
6283.85221,0.54739
6281.92347,0.55064
6279.99472,0.55300
6278.06598,0.55285
6276.13723,0.55108
6274.20848,0.55051
6272.27974,0.55173
6270.35099,0.55215
6268.42225,0.55067
6266.49350,0.54953
6264.56476,0.55049
6262.63601,0.55320
6260.70727,0.55535
6258.77852,0.55560
6256.84978,0.55530
6254.92103,0.55422
6252.99229,0.55228
6251.06354,0.55228
6249.13480,0.55472
6247.20605,0.55665
6245.27730,0.55708
6243.34856,0.55765
6241.41981,0.55948
6239.49107,0.56219
6237.56232,0.56384
6235.63358,0.56351
6233.70483,0.56287
6231.77609,0.56238
6229.84734,0.56163
6227.91860,0.56186
6225.98985,0.56267
6224.06111,0.56251
6222.13236,0.56328
6220.20362,0.56656
6218.27487,0.56913
6216.34613,0.56875
6214.41738,0.56747
6212.48863,0.56655
6210.55989,0.56590
6208.63114,0.56581
6206.70240,0.56520
6204.77365,0.56426
6202.84491,0.56525
6200.91616,0.56720
6198.98742,0.56844
6197.05867,0.57018
6195.12993,0.57172
6193.20118,0.57139
6191.27244,0.57095
6189.34369,0.57204
6187.41495,0.57335
6185.48620,0.57402
6183.55746,0.57465
6181.62871,0.57511
6179.69996,0.57527
6177.77122,0.57539
6175.84247,0.57494
6173.91373,0.57489
6171.98498,0.57643
6170.05624,0.57815
6168.12749,0.57889
6166.19875,0.57946
6164.27000,0.58082
6162.34126,0.58224
6160.41251,0.58242
6158.48377,0.58166
6156.55502,0.58103
6154.62628,0.58095
6152.69753,0.58103
6150.76878,0.58078
6148.84004,0.57983
6146.91129,0.57844
6144.98255,0.57853
6143.05380,0.58033
6141.12506,0.58166
6139.19631,0.58259
6137.26757,0.58472
6135.33882,0.58677
6133.41008,0.58638
6131.48133,0.58409
6129.55259,0.58250
6127.62384,0.58293
6125.69510,0.58423
6123.76635,0.58514
6121.83761,0.58543
6119.90886,0.58532
6117.98011,0.58555
6116.05137,0.58605
6114.12262,0.58667
6112.19388,0.58799
6110.26513,0.58856
6108.33639,0.58695
6106.40764,0.58467
6104.47890,0.58302
6102.55015,0.58157
6100.62141,0.58029
6098.69266,0.57982
6096.76392,0.58013
6094.83517,0.58011
6092.90643,0.57893
6090.97768,0.57737
6089.04893,0.57635
6087.12019,0.57598
6085.19144,0.57556
6083.26270,0.57413
6081.33395,0.57294
6079.40521,0.57316
6077.47646,0.57360
6075.54772,0.57341
6073.61897,0.57258
6071.69023,0.57149
6069.76148,0.57011
6067.83274,0.56845
6065.90399,0.56796
6063.97525,0.56878
6062.04650,0.56914
6060.11776,0.56843
6058.18901,0.56697
6056.26026,0.56504
6054.33152,0.56277
6052.40277,0.56076
6050.47403,0.55973
6048.54528,0.55900
6046.61654,0.55767
6044.68779,0.55648
6042.75905,0.55640
6040.83030,0.55680
6038.90156,0.55632
6036.97281,0.55471
6035.04407,0.55241
6033.11532,0.55032
6031.18658,0.54952
6029.25783,0.54909
6027.32909,0.54745
6025.40034,0.54556
6023.47159,0.54507
6021.54285,0.54591
6019.61410,0.54677
6017.68536,0.54670
6015.75661,0.54666
6013.82787,0.54735
6011.89912,0.54824
6009.97038,0.54956
6008.04163,0.55121
6006.11289,0.55272
6004.18414,0.55435
6002.25540,0.55649
6000.32665,0.55968
5998.39791,0.56330
5996.46916,0.56584
5994.54041,0.56764
5992.61167,0.56919
5990.68292,0.56920
5988.75418,0.56796
5986.82543,0.56751
5984.89669,0.56827
5982.96794,0.56990
5981.03920,0.57176
5979.11045,0.57258
5977.18171,0.57262
5975.25296,0.57294
5973.32422,0.57403
5971.39547,0.57591
5969.46673,0.57781
5967.53798,0.57936
5965.60924,0.58053
5963.68049,0.58117
5961.75174,0.58151
5959.82300,0.58206
5957.89425,0.58319
5955.96551,0.58376
5954.03676,0.58290
5952.10802,0.58151
5950.17927,0.58004
5948.25053,0.57858
5946.32178,0.57757
5944.39304,0.57774
5942.46429,0.57936
5940.53555,0.58053
5938.60680,0.58018
5936.67806,0.58023
5934.74931,0.58082
5932.82057,0.58031
5930.89182,0.57971
5928.96307,0.58077
5927.03433,0.58262
5925.10558,0.58391
5923.17684,0.58478
5921.24809,0.58525
5919.31935,0.58461
5917.39060,0.58359
5915.46186,0.58344
5913.53311,0.58372
5911.60437,0.58378
5909.67562,0.58387
5907.74688,0.58462
5905.81813,0.58610
5903.88939,0.58786
5901.96064,0.58950
5900.03189,0.58986
5898.10315,0.58790
5896.17440,0.58460
5894.24566,0.58246
5892.31691,0.58254
5890.38817,0.58364
5888.45942,0.58427
5886.53068,0.58315
5884.60193,0.58107
5882.67319,0.57985
5880.74444,0.57910
5878.81570,0.57846
5876.88695,0.57842
5874.95821,0.57836
5873.02946,0.57815
5871.10072,0.57828
5869.17197,0.57771
5867.24322,0.57561
5865.31448,0.57398
5863.38573,0.57407
5861.45699,0.57422
5859.52824,0.57368
5857.59950,0.57324
5855.67075,0.57346
5853.74201,0.57411
5851.81326,0.57430
5849.88452,0.57375
5847.95577,0.57350
5846.02703,0.57413
5844.09828,0.57464
5842.16954,0.57480
5840.24079,0.57553
5838.31205,0.57570
5836.38330,0.57485
5834.45455,0.57475
5832.52581,0.57514
5830.59706,0.57488
5828.66832,0.57445
5826.73957,0.57420
5824.81083,0.57392
5822.88208,0.57372
5820.95334,0.57363
5819.02459,0.57292
5817.09585,0.57126
5815.16710,0.56962
5813.23836,0.56923
5811.30961,0.57079
5809.38087,0.57299
5807.45212,0.57357
5805.52337,0.57248
5803.59463,0.57145
5801.66588,0.57154
5799.73714,0.57237
5797.80839,0.57284
5795.87965,0.57227
5793.95090,0.57102
5792.02216,0.57027
5790.09341,0.57063
5788.16467,0.57132
5786.23592,0.57113
5784.30718,0.57041
5782.37843,0.57067
5780.44969,0.57157
5778.52094,0.57111
5776.59220,0.56908
5774.66345,0.56749
5772.73470,0.56774
5770.80596,0.56914
5768.87721,0.57027
5766.94847,0.57072
5765.01972,0.57097
5763.09098,0.57148
5761.16223,0.57213
5759.23349,0.57263
5757.30474,0.57294
5755.37600,0.57277
5753.44725,0.57245
5751.51851,0.57276
5749.58976,0.57292
5747.66102,0.57247
5745.73227,0.57246
5743.80352,0.57302
5741.87478,0.57344
5739.94603,0.57402
5738.01729,0.57512
5736.08854,0.57621
5734.15980,0.57679
5732.23105,0.57679
5730.30231,0.57636
5728.37356,0.57604
5726.44482,0.57618
5724.51607,0.57684
5722.58733,0.57742
5720.65858,0.57679
5718.72984,0.57483
5716.80109,0.57349
5714.87235,0.57458
5712.94360,0.57665
5711.01485,0.57725
5709.08611,0.57720
5707.15736,0.57783
5705.22862,0.57820
5703.29987,0.57833
5701.37113,0.57881
5699.44238,0.57854
5697.51364,0.57734
5695.58489,0.57653
5693.65615,0.57654
5691.72740,0.57659
5689.79866,0.57599
5687.86991,0.57555
5685.94117,0.57622
5684.01242,0.57710
5682.08368,0.57684
5680.15493,0.57600
5678.22618,0.57640
5676.29744,0.57778
5674.36869,0.57830
5672.43995,0.57797
5670.51120,0.57774
5668.58246,0.57716
5666.65371,0.57597
5664.72497,0.57508
5662.79622,0.57487
5660.86748,0.57535
5658.93873,0.57624
5657.00999,0.57675
5655.08124,0.57641
5653.15250,0.57529
5651.22375,0.57456
5649.29500,0.57509
5647.36626,0.57626
5645.43751,0.57730
5643.50877,0.57780
5641.58002,0.57800
5639.65128,0.57811
5637.72253,0.57830
5635.79379,0.57878
5633.86504,0.57870
5631.93630,0.57775
5630.00755,0.57714
5628.07881,0.57716
5626.15006,0.57703
5624.22132,0.57688
5622.29257,0.57744
5620.36383,0.57821
5618.43508,0.57868
5616.50633,0.57925
5614.57759,0.57940
5612.64884,0.57824
5610.72010,0.57686
5608.79135,0.57699
5606.86261,0.57824
5604.93386,0.57930
5603.00512,0.58002
5601.07637,0.58058
5599.14763,0.58057
5597.21888,0.58007
5595.29014,0.57959
5593.36139,0.57959
5591.43265,0.58001
5589.50390,0.58040
5587.57516,0.58124
5585.64641,0.58210
5583.71766,0.58134
5581.78892,0.57993
5579.86017,0.57936
5577.93143,0.57891
5576.00268,0.57825
5574.07394,0.57798
5572.14519,0.57783
5570.21645,0.57757
5568.28770,0.57734
5566.35896,0.57711
5564.43021,0.57718
5562.50147,0.57776
5560.57272,0.57866
5558.64398,0.57969
5556.71523,0.58065
5554.78648,0.58145
5552.85774,0.58178
5550.92899,0.58145
5549.00025,0.58087
5547.07150,0.58049
5545.14276,0.58028
5543.21401,0.57966
5541.28527,0.57847
5539.35652,0.57751
5537.42778,0.57751
5535.49903,0.57837
5533.57029,0.57955
5531.64154,0.58062
5529.71280,0.58128
5527.78405,0.58149
5525.85531,0.58135
5523.92656,0.58119
5521.99781,0.58139
5520.06907,0.58137
5518.14032,0.58068
5516.21158,0.58023
5514.28283,0.58047
5512.35409,0.58101
5510.42534,0.58167
5508.49660,0.58181
5506.56785,0.58141
5504.63911,0.58157
5502.71036,0.58221
5500.78162,0.58222
5498.85287,0.58153
5496.92413,0.58065
5494.99538,0.58012
5493.06664,0.58036
5491.13789,0.58079
5489.20914,0.58078
5487.28040,0.58053
5485.35165,0.58031
5483.42291,0.58064
5481.49416,0.58122
5479.56542,0.58090
5477.63667,0.57952
5475.70793,0.57812
5473.77918,0.57802
5471.85044,0.57911
5469.92169,0.58017
5467.99295,0.58065
5466.06420,0.58083
5464.13546,0.58115
5462.20671,0.58156
5460.27796,0.58195
5458.34922,0.58243
5456.42047,0.58301
5454.49173,0.58367
5452.56298,0.58448
5450.63424,0.58536
5448.70549,0.58587
5446.77675,0.58652
5444.84800,0.58781
5442.91926,0.58833
5440.99051,0.58718
5439.06177,0.58591
5437.13302,0.58621
5435.20428,0.58766
5433.27553,0.58898
5431.34679,0.58943
5429.41804,0.58936
5427.48929,0.58983
5425.56055,0.59067
5423.63180,0.59163
5421.70306,0.59293
5419.77431,0.59396
5417.84557,0.59456
5415.91682,0.59471
5413.98808,0.59413
5412.05933,0.59380
5410.13059,0.59445
5408.20184,0.59501
5406.27310,0.59461
5404.34435,0.59407
5402.41561,0.59458
5400.48686,0.59595
5398.55811,0.59681
5396.62937,0.59682
5394.70062,0.59663
5392.77188,0.59652
5390.84313,0.59679
5388.91439,0.59741
5386.98564,0.59770
5385.05690,0.59769
5383.12815,0.59793
5381.19941,0.59801
5379.27066,0.59759
5377.34192,0.59717
5375.41317,0.59710
5373.48443,0.59728
5371.55568,0.59770
5369.62694,0.59851
5367.69819,0.59905
5365.76944,0.59846
5363.84070,0.59767
5361.91195,0.59776
5359.98321,0.59797
5358.05446,0.59741
5356.12572,0.59645
5354.19697,0.59635
5352.26823,0.59715
5350.33948,0.59740
5348.41074,0.59667
5346.48199,0.59598
5344.55325,0.59597
5342.62450,0.59623
5340.69576,0.59657
5338.76701,0.59706
5336.83827,0.59705
5334.90952,0.59651
5332.98077,0.59635
5331.05203,0.59674
5329.12328,0.59668
5327.19454,0.59588
5325.26579,0.59506
5323.33705,0.59421
5321.40830,0.59331
5319.47956,0.59304
5317.55081,0.59316
5315.62207,0.59280
5313.69332,0.59177
5311.76458,0.59038
5309.83583,0.58915
5307.90709,0.58843
5305.97834,0.58778
5304.04959,0.58705
5302.12085,0.58647
5300.19210,0.58492
5298.26336,0.58229
5296.33461,0.58042
5294.40587,0.57961
5292.47712,0.57862
5290.54838,0.57739
5288.61963,0.57639
5286.69089,0.57529
5284.76214,0.57401
5282.83340,0.57263
5280.90465,0.57089
5278.97591,0.56877
5277.04716,0.56654
5275.11842,0.56431
5273.18967,0.56194
5271.26092,0.55974
5269.33218,0.55799
5267.40343,0.55597
5265.47469,0.55343
5263.54594,0.55085
5261.61720,0.54851
5259.68845,0.54633
5257.75971,0.54408
5255.83096,0.54211
5253.90222,0.54065
5251.97347,0.53881
5250.04473,0.53616
5248.11598,0.53355
5246.18724,0.53161
5244.25849,0.53021
5242.32975,0.52872
5240.40100,0.52660
5238.47225,0.52463
5236.54351,0.52338
5234.61476,0.52171
5232.68602,0.51915
5230.75727,0.51708
5228.82853,0.51608
5226.89978,0.51524
5224.97104,0.51414
5223.04229,0.51332
5221.11355,0.51303
5219.18480,0.51270
5217.25606,0.51162
5215.32731,0.51007
5213.39857,0.50879
5211.46982,0.50790
5209.54107,0.50710
5207.61233,0.50634
5205.68358,0.50546
5203.75484,0.50451
5201.82609,0.50431
5199.89735,0.50477
5197.96860,0.50453
5196.03986,0.50357
5194.11111,0.50303
5192.18237,0.50306
5190.25362,0.50349
5188.32488,0.50395
5186.39613,0.50369
5184.46739,0.50309
5182.53864,0.50288
5180.60990,0.50306
5178.68115,0.50335
5176.75240,0.50325
5174.82366,0.50265
5172.89491,0.50192
5170.96617,0.50154
5169.03742,0.50199
5167.10868,0.50316
5165.17993,0.50407
5163.25119,0.50406
5161.32244,0.50371
5159.39370,0.50357
5157.46495,0.50369
5155.53621,0.50419
5153.60746,0.50461
5151.67872,0.50455
5149.74997,0.50450
5147.82123,0.50490
5145.89248,0.50565
5143.96373,0.50640
5142.03499,0.50700
5140.10624,0.50751
5138.17750,0.50779
5136.24875,0.50797
5134.32001,0.50834
5132.39126,0.50867
5130.46252,0.50912
5128.53377,0.51022
5126.60503,0.51162
5124.67628,0.51219
5122.74754,0.51169
5120.81879,0.51141
5118.89005,0.51211
5116.96130,0.51311
5115.03255,0.51418
5113.10381,0.51530
5111.17506,0.51598
5109.24632,0.51660
5107.31757,0.51794
5105.38883,0.51935
5103.46008,0.52005
5101.53134,0.52085
5099.60259,0.52224
5097.67385,0.52325
5095.74510,0.52335
5093.81636,0.52351
5091.88761,0.52432
5089.95887,0.52498
5088.03012,0.52530
5086.10138,0.52620
5084.17263,0.52793
5082.24388,0.52963
5080.31514,0.53072
5078.38639,0.53142
5076.45765,0.53192
5074.52890,0.53217
5072.60016,0.53231
5070.67141,0.53285
5068.74267,0.53393
5066.81392,0.53493
5064.88518,0.53527
5062.95643,0.53522
5061.02769,0.53546
5059.09894,0.53591
5057.17020,0.53640
5055.24145,0.53708
5053.31270,0.53786
5051.38396,0.53839
5049.45521,0.53856
5047.52647,0.53882
5045.59772,0.53926
5043.66898,0.53957
5041.74023,0.54000
5039.81149,0.54090
5037.88274,0.54183
5035.95400,0.54215
5034.02525,0.54243
5032.09651,0.54326
5030.16776,0.54403
5028.23902,0.54437
5026.31027,0.54457
5024.38153,0.54465
5022.45278,0.54465
5020.52403,0.54451
5018.59529,0.54403
5016.66654,0.54391
5014.73780,0.54454
5012.80905,0.54483
5010.88031,0.54424
5008.95156,0.54397
5007.02282,0.54453
5005.09407,0.54511
5003.16533,0.54530
5001.23658,0.54518
4999.30784,0.54493
4997.37909,0.54488
4995.45035,0.54480
4993.52160,0.54450
4991.59286,0.54442
4989.66411,0.54454
4987.73536,0.54433
4985.80662,0.54418
4983.87787,0.54431
4981.94913,0.54428
4980.02038,0.54412
4978.09164,0.54373
4976.16289,0.54292
4974.23415,0.54202
4972.30540,0.54104
4970.37666,0.54000
4968.44791,0.53920
4966.51917,0.53875
4964.59042,0.53851
4962.66168,0.53818
4960.73293,0.53743
4958.80418,0.53614
4956.87544,0.53481
4954.94669,0.53418
4953.01795,0.53374
4951.08920,0.53265
4949.16046,0.53145
4947.23171,0.53041
4945.30297,0.52877
4943.37422,0.52664
4941.44548,0.52483
4939.51673,0.52357
4937.58799,0.52269
4935.65924,0.52182
4933.73050,0.52060
4931.80175,0.51926
4929.87301,0.51807
4927.94426,0.51666
4926.01551,0.51486
4924.08677,0.51307
4922.15802,0.51146
4920.22928,0.50959
4918.30053,0.50741
4916.37179,0.50552
4914.44304,0.50411
4912.51430,0.50271
4910.58555,0.50078
4908.65681,0.49857
4906.72806,0.49658
4904.79932,0.49478
4902.87057,0.49327
4900.94183,0.49201
4899.01308,0.49020
4897.08434,0.48762
4895.15559,0.48518
4893.22684,0.48328
4891.29810,0.48139
4889.36935,0.47924
4887.44061,0.47700
4885.51186,0.47490
4883.58312,0.47291
4881.65437,0.47074
4879.72563,0.46875
4877.79688,0.46730
4875.86814,0.46581
4873.93939,0.46411
4872.01065,0.46262
4870.08190,0.46127
4868.15316,0.45970
4866.22441,0.45791
4864.29566,0.45609
4862.36692,0.45456
4860.43817,0.45354
4858.50943,0.45258
4856.58068,0.45086
4854.65194,0.44860
4852.72319,0.44687
4850.79445,0.44602
4848.86570,0.44543
4846.93696,0.44433
4845.00821,0.44241
4843.07947,0.44029
4841.15072,0.43909
4839.22198,0.43853
4837.29323,0.43702
4835.36449,0.43440
4833.43574,0.43214
4831.50699,0.43071
4829.57825,0.42956
4827.64950,0.42840
4825.72076,0.42690
4823.79201,0.42505
4821.86327,0.42359
4819.93452,0.42256
4818.00578,0.42133
4816.07703,0.42010
4814.14829,0.41920
4812.21954,0.41819
4810.29080,0.41702
4808.36205,0.41602
4806.43331,0.41498
4804.50456,0.41384
4802.57582,0.41294
4800.64707,0.41222
4798.71832,0.41121
4796.78958,0.40997
4794.86083,0.40906
4792.93209,0.40868
4791.00334,0.40850
4789.07460,0.40842
4787.14585,0.40847
4785.21711,0.40834
4783.28836,0.40784
4781.35962,0.40729
4779.43087,0.40698
4777.50213,0.40658
4775.57338,0.40610
4773.64464,0.40578
4771.71589,0.40574
4769.78714,0.40600
4767.85840,0.40605
4765.92965,0.40556
4764.00091,0.40509
4762.07216,0.40479
4760.14342,0.40424
4758.21467,0.40372
4756.28593,0.40347
4754.35718,0.40304
4752.42844,0.40238
4750.49969,0.40191
4748.57095,0.40164
4746.64220,0.40139
4744.71346,0.40130
4742.78471,0.40156
4740.85597,0.40186
4738.92722,0.40187
4736.99847,0.40185
4735.06973,0.40190
4733.14098,0.40158
4731.21224,0.40089
4729.28349,0.40041
4727.35475,0.40041
4725.42600,0.40036
4723.49726,0.39984
4721.56851,0.39935
4719.63977,0.39972
4717.71102,0.40072
4715.78228,0.40129
4713.85353,0.40129
4711.92479,0.40134
4709.99604,0.40163
4708.06729,0.40197
4706.13855,0.40207
4704.20980,0.40179
4702.28106,0.40121
4700.35231,0.40060
4698.42357,0.40028
4696.49482,0.40015
4694.56608,0.39984
4692.63733,0.39977
4690.70859,0.40046
4688.77984,0.40130
4686.85110,0.40209
4684.92235,0.40330
4682.99361,0.40487
4681.06486,0.40656
4679.13612,0.40830
4677.20737,0.41019
4675.27862,0.41229
4673.34988,0.41443
4671.42113,0.41654
4669.49239,0.41837
4667.56364,0.41965
4665.63490,0.42050
4663.70615,0.42127
4661.77741,0.42203
4659.84866,0.42259
4657.91992,0.42298
4655.99117,0.42349
4654.06243,0.42426
4652.13368,0.42482
4650.20494,0.42461
4648.27619,0.42401
4646.34745,0.42376
4644.41870,0.42378
4642.48995,0.42360
4640.56121,0.42335
4638.63246,0.42332
4636.70372,0.42337
4634.77497,0.42348
4632.84623,0.42429
4630.91748,0.42595
4628.98874,0.42777
4627.05999,0.42965
4625.13125,0.43177
4623.20250,0.43395
4621.27376,0.43608
4619.34501,0.43805
4617.41627,0.43966
4615.48752,0.44105
4613.55877,0.44248
4611.63003,0.44404
4609.70128,0.44543
4607.77254,0.44624
4605.84379,0.44657
4603.91505,0.44676
4601.98630,0.44679
4600.05756,0.44675
4598.12881,0.44692
4596.20007,0.44731
4594.27132,0.44772
4592.34258,0.44785
4590.41383,0.44760
4588.48509,0.44735
4586.55634,0.44751
4584.62760,0.44794
4582.69885,0.44825
4580.77010,0.44854
4578.84136,0.44903
4576.91261,0.44988
4574.98387,0.45113
4573.05512,0.45266
4571.12638,0.45467
4569.19763,0.45714
4567.26889,0.45944
4565.34014,0.46133
4563.41140,0.46300
4561.48265,0.46452
4559.55391,0.46582
4557.62516,0.46670
4555.69642,0.46723
4553.76767,0.46756
4551.83893,0.46768
4549.91018,0.46772
4547.98143,0.46796
4546.05269,0.46849
4544.12394,0.46933
4542.19520,0.47039
4540.26645,0.47122
4538.33771,0.47169
4536.40896,0.47217
4534.48022,0.47263
4532.55147,0.47267
4530.62273,0.47252
4528.69398,0.47279
4526.76524,0.47334
4524.83649,0.47354
4522.90775,0.47350
4520.97900,0.47353
4519.05025,0.47361
4517.12151,0.47352
4515.19276,0.47316
4513.26402,0.47257
4511.33527,0.47176
4509.40653,0.47100
4507.47778,0.47046
4505.54904,0.46983
4503.62029,0.46899
4501.69155,0.46802
4499.76280,0.46686
4497.83406,0.46543
4495.90531,0.46357
4493.97657,0.46130
4492.04782,0.45923
4490.11908,0.45790
4488.19033,0.45695
4486.26158,0.45581
4484.33284,0.45479
4482.40409,0.45421
4480.47535,0.45357
4478.54660,0.45241
4476.61786,0.45078
4474.68911,0.44892
4472.76037,0.44684
4470.83162,0.44443
4468.90288,0.44178
4466.97413,0.43880
4465.04539,0.43533
4463.11664,0.43170
4461.18790,0.42836
4459.25915,0.42545
4457.33041,0.42300
4455.40166,0.42107
4453.47291,0.41951
4451.54417,0.41806
4449.61542,0.41645
4447.68668,0.41448
4445.75793,0.41202
4443.82919,0.40923
4441.90044,0.40670
4439.97170,0.40463
4438.04295,0.40240
4436.11421,0.39992
4434.18546,0.39774
4432.25672,0.39599
4430.32797,0.39458
4428.39923,0.39348
4426.47048,0.39238
4424.54173,0.39111
4422.61299,0.38999
4420.68424,0.38891
4418.75550,0.38737
4416.82675,0.38550
4414.89801,0.38381
4412.96926,0.38217
4411.04052,0.38030
4409.11177,0.37860
4407.18303,0.37741
4405.25428,0.37623
4403.32554,0.37492
4401.39679,0.37410
4399.46805,0.37404
4397.53930,0.37431
4395.61056,0.37460
4393.68181,0.37510
4391.75306,0.37595
4389.82432,0.37706
4387.89557,0.37850
4385.96683,0.38037
4384.03808,0.38223
4382.10934,0.38352
4380.18059,0.38459
4378.25185,0.38585
4376.32310,0.38683
4374.39436,0.38717
4372.46561,0.38744
4370.53687,0.38809
4368.60812,0.38869
4366.67938,0.38884
4364.75063,0.38870
4362.82189,0.38838
4360.89314,0.38802
4358.96439,0.38769
4357.03565,0.38713
4355.10690,0.38648
4353.17816,0.38601
4351.24941,0.38544
4349.32067,0.38483
4347.39192,0.38450
4345.46318,0.38412
4343.53443,0.38324
4341.60569,0.38210
4339.67694,0.38084
4337.74820,0.37935
4335.81945,0.37780
4333.89071,0.37645
4331.96196,0.37546
4330.03321,0.37470
4328.10447,0.37371
4326.17572,0.37251
4324.24698,0.37141
4322.31823,0.37029
4320.38949,0.36912
4318.46074,0.36822
4316.53200,0.36750
4314.60325,0.36656
4312.67451,0.36539
4310.74576,0.36444
4308.81702,0.36359
4306.88827,0.36224
4304.95953,0.36034
4303.03078,0.35834
4301.10204,0.35658
4299.17329,0.35525
4297.24454,0.35429
4295.31580,0.35335
4293.38705,0.35243
4291.45831,0.35177
4289.52956,0.35115
4287.60082,0.35029
4285.67207,0.34932
4283.74333,0.34871
4281.81458,0.34866
4279.88584,0.34856
4277.95709,0.34789
4276.02835,0.34730
4274.09960,0.34769
4272.17086,0.34861
4270.24211,0.34899
4268.31336,0.34885
4266.38462,0.34877
4264.45587,0.34909
4262.52713,0.34996
4260.59838,0.35084
4258.66964,0.35100
4256.74089,0.35096
4254.81215,0.35140
4252.88340,0.35169
4250.95466,0.35149
4249.02591,0.35143
4247.09717,0.35182
4245.16842,0.35223
4243.23968,0.35233
4241.31093,0.35241
4239.38219,0.35291
4237.45344,0.35378
4235.52469,0.35461
4233.59595,0.35517
4231.66720,0.35586
4229.73846,0.35677
4227.80971,0.35729
4225.88097,0.35731
4223.95222,0.35738
4222.02348,0.35772
4220.09473,0.35822
4218.16599,0.35893
4216.23724,0.35978
4214.30850,0.36056
4212.37975,0.36116
4210.45101,0.36175
4208.52226,0.36253
4206.59352,0.36348
4204.66477,0.36451
4202.73602,0.36559
4200.80728,0.36657
4198.87853,0.36715
4196.94979,0.36734
4195.02104,0.36753
4193.09230,0.36765
4191.16355,0.36747
4189.23481,0.36718
4187.30606,0.36702
4185.37732,0.36671
4183.44857,0.36569
4181.51983,0.36415
4179.59108,0.36305
4177.66234,0.36286
4175.73359,0.36335
4173.80484,0.36422
4171.87610,0.36523
4169.94735,0.36629
4168.01861,0.36765
4166.08986,0.36920
4164.16112,0.37030
4162.23237,0.37091
4160.30363,0.37161
4158.37488,0.37247
4156.44614,0.37299
4154.51739,0.37286
4152.58865,0.37237
4150.65990,0.37206
4148.73116,0.37170
4146.80241,0.37094
4144.87367,0.37020
4142.94492,0.36957
4141.01617,0.36853
4139.08743,0.36721
4137.15868,0.36609
4135.22994,0.36524
4133.30119,0.36468
4131.37245,0.36420
4129.44370,0.36327
4127.51496,0.36199
4125.58621,0.36093
4123.65747,0.36002
4121.72872,0.35879
4119.79998,0.35723
4117.87123,0.35568
4115.94249,0.35418
4114.01374,0.35254
4112.08500,0.35066
4110.15625,0.34867
4108.22750,0.34645
4106.29876,0.34382
4104.37001,0.34096
4102.44127,0.33792
4100.51252,0.33460
4098.58378,0.33073
4096.65503,0.32613
4094.72629,0.32140
4092.79754,0.31752
4090.86880,0.31486
4088.94005,0.31338
4087.01131,0.31285
4085.08256,0.31296
4083.15382,0.31349
4081.22507,0.31418
4079.29632,0.31457
4077.36758,0.31470
4075.43883,0.31511
4073.51009,0.31566
4071.58134,0.31556
4069.65260,0.31469
4067.72385,0.31354
4065.79511,0.31251
4063.86636,0.31167
4061.93762,0.31082
4060.00887,0.30961
4058.08013,0.30787
4056.15138,0.30588
4054.22264,0.30426
4052.29389,0.30298
4050.36515,0.30153
4048.43640,0.29982
4046.50765,0.29800
4044.57891,0.29627
4042.65016,0.29479
4040.72142,0.29358
4038.79267,0.29251
4036.86393,0.29162
4034.93518,0.29106
4033.00644,0.29077
4031.07769,0.29036
4029.14895,0.28937
4027.22020,0.28816
4025.29146,0.28759
4023.36271,0.28758
4021.43397,0.28762
4019.50522,0.28773
4017.57648,0.28781
4015.64773,0.28778
4013.71898,0.28786
4011.79024,0.28820
4009.86149,0.28878
4007.93275,0.28966
4006.00400,0.29065
4004.07526,0.29137
4002.14651,0.29190
4000.21777,0.29265
3998.28902,0.29372
3996.36028,0.29488
3994.43153,0.29591
3992.50279,0.29685
3990.57404,0.29785
3988.64530,0.29898
3986.71655,0.29993
3984.78780,0.30046
3982.85906,0.30075
3980.93031,0.30101
3979.00157,0.30135
3977.07282,0.30178
3975.14408,0.30221
3973.21533,0.30283
3971.28659,0.30376
3969.35784,0.30478
3967.42910,0.30572
3965.50035,0.30659
3963.57161,0.30746
3961.64286,0.30835
3959.71412,0.30908
3957.78537,0.30968
3955.85663,0.31054
3953.92788,0.31165
3951.99913,0.31259
3950.07039,0.31338
3948.14164,0.31440
3946.21290,0.31557
3944.28415,0.31676
3942.35541,0.31809
3940.42666,0.31946
3938.49792,0.32047
3936.56917,0.32116
3934.64043,0.32195
3932.71168,0.32288
3930.78294,0.32368
3928.85419,0.32447
3926.92545,0.32555
3924.99670,0.32666
3923.06795,0.32741
3921.13921,0.32793
3919.21046,0.32871
3917.28172,0.32989
3915.35297,0.33090
3913.42423,0.33154
3911.49548,0.33230
3909.56674,0.33347
3907.63799,0.33477
3905.70925,0.33586
3903.78050,0.33676
3901.85176,0.33751
3899.92301,0.33822
3897.99427,0.33932
3896.06552,0.34064
3894.13678,0.34165
3892.20803,0.34246
3890.27928,0.34327
3888.35054,0.34400
3886.42179,0.34480
3884.49305,0.34569
3882.56430,0.34648
3880.63556,0.34723
3878.70681,0.34783
3876.77807,0.34815
3874.84932,0.34854
3872.92058,0.34922
3870.99183,0.35038
3869.06309,0.35215
3867.13434,0.35379
3865.20560,0.35491
3863.27685,0.35601
3861.34811,0.35725
3859.41936,0.35843
3857.49061,0.35947
3855.56187,0.36076
3853.63312,0.36262
3851.70438,0.36408
3849.77563,0.36477
3847.84689,0.36547
3845.91814,0.36642
3843.98940,0.36741
3842.06065,0.36811
3840.13191,0.36850
3838.20316,0.36911
3836.27442,0.36994
3834.34567,0.37045
3832.41693,0.37079
3830.48818,0.37120
3828.55943,0.37139
3826.63069,0.37131
3824.70194,0.37132
3822.77320,0.37163
3820.84445,0.37177
3818.91571,0.37115
3816.98696,0.37025
3815.05822,0.36970
3813.12947,0.36926
3811.20073,0.36882
3809.27198,0.36860
3807.34324,0.36856
3805.41449,0.36865
3803.48575,0.36888
3801.55700,0.36940
3799.62826,0.36999
3797.69951,0.37037
3795.77076,0.37074
3793.84202,0.37118
3791.91327,0.37164
3789.98453,0.37205
3788.05578,0.37220
3786.12704,0.37199
3784.19829,0.37181
3782.26955,0.37196
3780.34080,0.37205
3778.41206,0.37163
3776.48331,0.37102
3774.55457,0.37057
3772.62582,0.37010
3770.69708,0.36966
3768.76833,0.36925
3766.83959,0.36872
3764.91084,0.36814
3762.98209,0.36751
3761.05335,0.36661
3759.12460,0.36559
3757.19586,0.36489
3755.26711,0.36465
3753.33837,0.36486
3751.40962,0.36546
3749.48088,0.36605
3747.55213,0.36626
3745.62339,0.36616
3743.69464,0.36597
3741.76590,0.36528
3739.83715,0.36390
3737.90841,0.36242
3735.97966,0.36121
3734.05091,0.35974
3732.12217,0.35792
3730.19342,0.35657
3728.26468,0.35603
3726.33593,0.35581
3724.40719,0.35528
3722.47844,0.35437
3720.54970,0.35329
3718.62095,0.35178
3716.69221,0.34991
3714.76346,0.34805
3712.83472,0.34603
3710.90597,0.34347
3708.97723,0.34062
3707.04848,0.33772
3705.11974,0.33470
3703.19099,0.33141
3701.26224,0.32789
3699.33350,0.32451
3697.40475,0.32123
3695.47601,0.31756
3693.54726,0.31344
3691.61852,0.30910
3689.68977,0.30436
3687.76103,0.29918
3685.83228,0.29456
3683.90354,0.29116
3681.97479,0.28839
3680.04605,0.28545
3678.11730,0.28189
3676.18856,0.27748
3674.25981,0.27260
3672.33107,0.26782
3670.40232,0.26247
3668.47357,0.25648
3666.54483,0.25062
3664.61608,0.24477
3662.68734,0.23889
3660.75859,0.23333
3658.82985,0.22804
3656.90110,0.22258
3654.97236,0.21716
3653.04361,0.21220
3651.11487,0.20689
3649.18612,0.20090
3647.25738,0.19526
3645.32863,0.19030
3643.39989,0.18575
3641.47114,0.18134
3639.54239,0.17703
3637.61365,0.17295
3635.68490,0.16891
3633.75616,0.16495
3631.82741,0.16120
3629.89867,0.15701
3627.96992,0.15238
3626.04118,0.14863
3624.11243,0.14551
3622.18369,0.14225
3620.25494,0.13870
3618.32620,0.13489
3616.39745,0.13122
3614.46871,0.12797
3612.53996,0.12504
3610.61122,0.12231
3608.68247,0.11958
3606.75372,0.11665
3604.82498,0.11351
3602.89623,0.11038
3600.96749,0.10752
3599.03874,0.10503
3597.11000,0.10268
3595.18125,0.10011
3593.25251,0.09756
3591.32376,0.09535
3589.39502,0.09316
3587.46627,0.09082
3585.53753,0.08869
3583.60878,0.08675
3581.68004,0.08472
3579.75129,0.08266
3577.82254,0.08069
3575.89380,0.07882
3573.96505,0.07713
3572.03631,0.07558
3570.10756,0.07421
3568.17882,0.07279
3566.25007,0.07103
3564.32133,0.06935
3562.39258,0.06812
3560.46384,0.06710
3558.53509,0.06608
3556.60635,0.06510
3554.67760,0.06415
3552.74886,0.06316
3550.82011,0.06218
3548.89137,0.06112
3546.96262,0.05993
3545.03387,0.05891
3543.10513,0.05820
3541.17638,0.05752
3539.24764,0.05675
3537.31889,0.05604
3535.39015,0.05528
3533.46140,0.05445
3531.53266,0.05381
3529.60391,0.05341
3527.67517,0.05303
3525.74642,0.05235
3523.81768,0.05142
3521.88893,0.05072
3519.96019,0.05033
3518.03144,0.04987
3516.10270,0.04940
3514.17395,0.04919
3512.24520,0.04908
3510.31646,0.04871
3508.38771,0.04802
3506.45897,0.04737
3504.53022,0.04685
3502.60148,0.04612
3500.67273,0.04537
3498.74399,0.04498
3496.81524,0.04485
3494.88650,0.04473
3492.95775,0.04425
3491.02901,0.04340
3489.10026,0.04290
3487.17152,0.04316
3485.24277,0.04343
3483.31402,0.04318
3481.38528,0.04269
3479.45653,0.04233
3477.52779,0.04227
3475.59904,0.04235
3473.67030,0.04218
3471.74155,0.04171
3469.81281,0.04112
3467.88406,0.04061
3465.95532,0.04037
3464.02657,0.04044
3462.09783,0.04048
3460.16908,0.04019
3458.24034,0.03985
3456.31159,0.03961
3454.38285,0.03922
3452.45410,0.03866
3450.52535,0.03821
3448.59661,0.03791
3446.66786,0.03761
3444.73912,0.03737
3442.81037,0.03715
3440.88163,0.03666
3438.95288,0.03600
3437.02414,0.03555
3435.09539,0.03546
3433.16665,0.03559
3431.23790,0.03553
3429.30916,0.03507
3427.38041,0.03482
3425.45167,0.03527
3423.52292,0.03602
3421.59418,0.03647
3419.66543,0.03646
3417.73668,0.03625
3415.80794,0.03628
3413.87919,0.03670
3411.95045,0.03716
3410.02170,0.03746
3408.09296,0.03773
3406.16421,0.03800
3404.23547,0.03831
3402.30672,0.03861
3400.37798,0.03869
3398.44923,0.03866
3396.52049,0.03886
3394.59174,0.03918
3392.66300,0.03935
3390.73425,0.03943
3388.80550,0.03949
3386.87676,0.03960
3384.94801,0.03985
3383.01927,0.03998
3381.09052,0.03984
3379.16178,0.03980
3377.23303,0.04014
3375.30429,0.04045
3373.37554,0.04040
3371.44680,0.04034
3369.51805,0.04036
3367.58931,0.04036
3365.66056,0.04048
3363.73182,0.04062
3361.80307,0.04052
3359.87433,0.04027
3357.94558,0.04006
3356.01683,0.03991
3354.08809,0.03993
3352.15934,0.04031
3350.23060,0.04087
3348.30185,0.04114
3346.37311,0.04117
3344.44436,0.04122
3342.51562,0.04111
3340.58687,0.04091
3338.65813,0.04108
3336.72938,0.04159
3334.80064,0.04207
3332.87189,0.04235
3330.94315,0.04254
3329.01440,0.04285
3327.08566,0.04326
3325.15691,0.04346
3323.22816,0.04323
3321.29942,0.04288
3319.37067,0.04282
3317.44193,0.04299
3315.51318,0.04316
3313.58444,0.04327
3311.65569,0.04331
3309.72695,0.04320
3307.79820,0.04290
3305.86946,0.04280
3303.94071,0.04300
3302.01197,0.04308
3300.08322,0.04285
3298.15448,0.04269
3296.22573,0.04301
3294.29698,0.04371
3292.36824,0.04419
3290.43949,0.04418
3288.51075,0.04412
3286.58200,0.04430
3284.65326,0.04449
3282.72451,0.04452
3280.79577,0.04448
3278.86702,0.04466
3276.93828,0.04502
3275.00953,0.04524
3273.08079,0.04522
3271.15204,0.04524
3269.22330,0.04551
3267.29455,0.04586
3265.36581,0.04608
3263.43706,0.04625
3261.50831,0.04651
3259.57957,0.04698
3257.65082,0.04740
3255.72208,0.04750
3253.79333,0.04753
3251.86459,0.04774
3249.93584,0.04808
3248.00710,0.04849
3246.07835,0.04899
3244.14961,0.04943
3242.22086,0.04954
3240.29212,0.04944
3238.36337,0.04954
3236.43463,0.05001
3234.50588,0.05054
3232.57713,0.05079
3230.64839,0.05088
3228.71964,0.05110
3226.79090,0.05154
3224.86215,0.05216
3222.93341,0.05271
3221.00466,0.05299
3219.07592,0.05318
3217.14717,0.05352
3215.21843,0.05402
3213.28968,0.05467
3211.36094,0.05537
3209.43219,0.05584
3207.50345,0.05609
3205.57470,0.05639
3203.64596,0.05684
3201.71721,0.05727
3199.78846,0.05748
3197.85972,0.05762
3195.93097,0.05800
3194.00223,0.05868
3192.07348,0.05928
3190.14474,0.05963
3188.21599,0.06006
3186.28725,0.06075
3184.35850,0.06147
3182.42976,0.06206
3180.50101,0.06259
3178.57227,0.06309
3176.64352,0.06362
3174.71478,0.06416
3172.78603,0.06475
3170.85729,0.06542
3168.92854,0.06596
3166.99979,0.06623
3165.07105,0.06653
3163.14230,0.06710
3161.21356,0.06777
3159.28481,0.06834
3157.35607,0.06879
3155.42732,0.06925
3153.49858,0.06979
3151.56983,0.07022
3149.64109,0.07049
3147.71234,0.07088
3145.78360,0.07147
3143.85485,0.07209
3141.92611,0.07256
3139.99736,0.07283
3138.06861,0.07301
3136.13987,0.07338
3134.21112,0.07403
3132.28238,0.07471
3130.35363,0.07516
3128.42489,0.07552
3126.49614,0.07610
3124.56740,0.07699
3122.63865,0.07796
3120.70991,0.07875
3118.78116,0.07941
3116.85242,0.08002
3114.92367,0.08045
3112.99493,0.08072
3111.06618,0.08104
3109.13744,0.08141
3107.20869,0.08175
3105.27994,0.08226
3103.35120,0.08292
3101.42245,0.08353
3099.49371,0.08420
3097.56496,0.08504
3095.63622,0.08603
3093.70747,0.08722
3091.77873,0.08841
3089.84998,0.08908
3087.92124,0.08923
3085.99249,0.08944
3084.06375,0.08978
3082.13500,0.09011
3080.20626,0.09057
3078.27751,0.09121
3076.34877,0.09189
3074.42002,0.09256
3072.49127,0.09320
3070.56253,0.09378
3068.63378,0.09428
3066.70504,0.09466
3064.77629,0.09516
3062.84755,0.09589
3060.91880,0.09649
3058.99006,0.09674
3057.06131,0.09694
3055.13257,0.09754
3053.20382,0.09870
3051.27508,0.10018
3049.34633,0.10183
3047.41759,0.10376
3045.48884,0.10582
3043.56009,0.10765
3041.63135,0.10912
3039.70260,0.11009
3037.77386,0.11055
3035.84511,0.11067
3033.91637,0.11074
3031.98762,0.11108
3030.05888,0.11149
3028.13013,0.11153
3026.20139,0.11122
3024.27264,0.11090
3022.34390,0.11054
3020.41515,0.10984
3018.48641,0.10874
3016.55766,0.10757
3014.62892,0.10684
3012.70017,0.10651
3010.77142,0.10630
3008.84268,0.10612
3006.91393,0.10581
3004.98519,0.10533
3003.05644,0.10481
3001.12770,0.10406
2999.19895,0.10284
2997.27021,0.10145
2995.34146,0.10025
2993.41272,0.09907
2991.48397,0.09749
2989.55523,0.09528
2987.62648,0.09258
2985.69774,0.08966
2983.76899,0.08663
2981.84025,0.08341
2979.91150,0.07983
2977.98275,0.07583
2976.05401,0.07178
2974.12526,0.06797
2972.19652,0.06441
2970.26777,0.06160
2968.33903,0.06021
2966.41028,0.05995
2964.48154,0.06012
2962.55279,0.06041
2960.62405,0.06058
2958.69530,0.06049
2956.76656,0.06008
2954.83781,0.05939
2952.90907,0.05862
2950.98032,0.05804
2949.05157,0.05772
2947.12283,0.05750
2945.19408,0.05731
2943.26534,0.05742
2941.33659,0.05791
2939.40785,0.05834
2937.47910,0.05850
2935.55036,0.05852
2933.62161,0.05825
2931.69287,0.05769
2929.76412,0.05702
2927.83538,0.05624
2925.90663,0.05528
2923.97789,0.05410
2922.04914,0.05258
2920.12040,0.05086
2918.19165,0.04950
2916.26290,0.04868
2914.33416,0.04788
2912.40541,0.04683
2910.47667,0.04584
2908.54792,0.04511
2906.61918,0.04482
2904.69043,0.04513
2902.76169,0.04596
2900.83294,0.04698
2898.90420,0.04793
2896.97545,0.04877
2895.04671,0.04950
2893.11796,0.05019
2891.18922,0.05098
2889.26047,0.05183
2887.33172,0.05259
2885.40298,0.05332
2883.47423,0.05412
2881.54549,0.05488
2879.61674,0.05558
2877.68800,0.05627
2875.75925,0.05681
2873.83051,0.05709
2871.90176,0.05732
2869.97302,0.05774
2868.04427,0.05830
2866.11553,0.05893
2864.18678,0.05970
2862.25804,0.06072
2860.32929,0.06202
2858.40055,0.06323
2856.47180,0.06408
2854.54305,0.06478
2852.61431,0.06559
2850.68556,0.06686
2848.75682,0.06897
2846.82807,0.07192
2844.89933,0.07525
2842.97058,0.07844
2841.04184,0.08116
2839.11309,0.08344
2837.18435,0.08560
2835.25560,0.08780
2833.32686,0.08987
2831.39811,0.09175
2829.46937,0.09353
2827.54062,0.09511
2825.61188,0.09661
2823.68313,0.09831
2821.75438,0.10013
2819.82564,0.10170
2817.89689,0.10307
2815.96815,0.10446
2814.03940,0.10590
2812.11066,0.10728
2810.18191,0.10862
2808.25317,0.10997
2806.32442,0.11138
2804.39568,0.11280
2802.46693,0.11418
2800.53819,0.11556
2798.60944,0.11692
2796.68070,0.11828
2794.75195,0.11962
2792.82320,0.12088
2790.89446,0.12201
2788.96571,0.12291
2787.03697,0.12355
2785.10822,0.12411
2783.17948,0.12466
2781.25073,0.12509
2779.32199,0.12562
2777.39324,0.12633
2775.46450,0.12698
2773.53575,0.12751
2771.60701,0.12807
2769.67826,0.12864
2767.74952,0.12907
2765.82077,0.12944
2763.89203,0.12992
2761.96328,0.13047
2760.03453,0.13089
2758.10579,0.13106
2756.17704,0.13105
2754.24830,0.13110
2752.31955,0.13123
2750.39081,0.13127
2748.46206,0.13130
2746.53332,0.13131
2744.60457,0.13125
2742.67583,0.13128
2740.74708,0.13144
2738.81834,0.13159
2736.88959,0.13174
2734.96085,0.13199
2733.03210,0.13234
2731.10336,0.13295
2729.17461,0.13396
2727.24586,0.13498
2725.31712,0.13565
2723.38837,0.13611
2721.45963,0.13665
2719.53088,0.13724
2717.60214,0.13777
2715.67339,0.13847
2713.74465,0.13953
2711.81590,0.14068
2709.88716,0.14173
2707.95841,0.14281
2706.02967,0.14415
2704.10092,0.14562
2702.17218,0.14693
2700.24343,0.14806
2698.31468,0.14907
2696.38594,0.15014
2694.45719,0.15140
2692.52845,0.15275
2690.59970,0.15405
2688.67096,0.15520
2686.74221,0.15617
2684.81347,0.15724
2682.88472,0.15860
2680.95598,0.15996
2679.02723,0.16092
2677.09849,0.16160
2675.16974,0.16223
2673.24100,0.16286
2671.31225,0.16362
2669.38351,0.16445
2667.45476,0.16504
2665.52601,0.16531
2663.59727,0.16558
2661.66852,0.16617
2659.73978,0.16704
2657.81103,0.16785
2655.88229,0.16848
2653.95354,0.16907
2652.02480,0.16963
2650.09605,0.17026
2648.16731,0.17097
2646.23856,0.17167
2644.30982,0.17244
2642.38107,0.17312
2640.45233,0.17343
2638.52358,0.17358
2636.59484,0.17386
2634.66609,0.17421
2632.73734,0.17466
2630.80860,0.17524
2628.87985,0.17592
2626.95111,0.17671
2625.02236,0.17769
2623.09362,0.17867
2621.16487,0.17943
2619.23613,0.18001
2617.30738,0.18050
2615.37864,0.18093
2613.44989,0.18158
2611.52115,0.18242
2609.59240,0.18305
2607.66366,0.18334
2605.73491,0.18364
2603.80616,0.18423
2601.87742,0.18496
2599.94867,0.18565
2598.01993,0.18615
2596.09118,0.18645
2594.16244,0.18665
2592.23369,0.18670
2590.30495,0.18671
2588.37620,0.18691
2586.44746,0.18719
2584.51871,0.18742
2582.58997,0.18759
2580.66122,0.18763
2578.73248,0.18767
2576.80373,0.18802
2574.87499,0.18850
2572.94624,0.18873
2571.01749,0.18879
2569.08875,0.18877
2567.16000,0.18851
2565.23126,0.18797
2563.30251,0.18741
2561.37377,0.18698
2559.44502,0.18668
2557.51628,0.18656
2555.58753,0.18663
2553.65879,0.18671
2551.73004,0.18668
2549.80130,0.18649
2547.87255,0.18628
2545.94381,0.18613
2544.01506,0.18579
2542.08631,0.18531
2540.15757,0.18515
2538.22882,0.18537
2536.30008,0.18564
2534.37133,0.18601
2532.44259,0.18652
2530.51384,0.18693
2528.58510,0.18726
2526.65635,0.18775
2524.72761,0.18843
2522.79886,0.18916
2520.87012,0.18989
2518.94137,0.19061
2517.01263,0.19124
2515.08388,0.19186
2513.15514,0.19263
2511.22639,0.19351
2509.29764,0.19456
2507.36890,0.19596
2505.44015,0.19753
2503.51141,0.19896
2501.58266,0.20021
2499.65392,0.20143
2497.72517,0.20276
2495.79643,0.20424
2493.86768,0.20564
2491.93894,0.20683
2490.01019,0.20799
2488.08145,0.20920
2486.15270,0.21042
2484.22396,0.21181
2482.29521,0.21323
2480.36647,0.21448
2478.43772,0.21573
2476.50897,0.21706
2474.58023,0.21826
2472.65148,0.21927
2470.72274,0.22028
2468.79399,0.22129
2466.86525,0.22209
2464.93650,0.22267
2463.00776,0.22319
2461.07901,0.22373
2459.15027,0.22433
2457.22152,0.22500
2455.29278,0.22562
2453.36403,0.22623
2451.43529,0.22709
2449.50654,0.22789
2447.57779,0.22824
2445.64905,0.22861
2443.72030,0.22946
2441.79156,0.23040
2439.86281,0.23112
2437.93407,0.23175
2436.00532,0.23232
2434.07658,0.23277
2432.14783,0.23336
2430.21909,0.23406
2428.29034,0.23455
2426.36160,0.23484
2424.43285,0.23522
2422.50411,0.23574
2420.57536,0.23621
2418.64662,0.23662
2416.71787,0.23711
2414.78912,0.23767
2412.86038,0.23804
2410.93163,0.23803
2409.00289,0.23795
2407.07414,0.23817
2405.14540,0.23855
2403.21665,0.23877
2401.28791,0.23885
2399.35916,0.23907
2397.43042,0.23950
2395.50167,0.24005
2393.57293,0.24065
2391.64418,0.24120
2389.71544,0.24174
2387.78669,0.24243
2385.85795,0.24320
2383.92920,0.24396
2382.00045,0.24485
2380.07171,0.24582
2378.14296,0.24680
2376.21422,0.24792
2374.28547,0.24906
2372.35673,0.25011
2370.42798,0.25121
2368.49924,0.25258
2366.57049,0.25430
2364.64175,0.25610
2362.71300,0.25763
2360.78426,0.25902
2358.85551,0.26042
2356.92677,0.26184
2354.99802,0.26327
2353.06927,0.26474
2351.14053,0.26620
2349.21178,0.26768
2347.28304,0.26910
2345.35429,0.27032
2343.42555,0.27144
2341.49680,0.27257
2339.56806,0.27360
2337.63931,0.27445
2335.71057,0.27515
2333.78182,0.27578
2331.85308,0.27639
2329.92433,0.27698
2327.99559,0.27752
2326.06684,0.27811
2324.13810,0.27895
2322.20935,0.28013
2320.28060,0.28135
2318.35186,0.28218
2316.42311,0.28255
2314.49437,0.28271
2312.56562,0.28283
2310.63688,0.28293
2308.70813,0.28295
2306.77939,0.28269
2304.85064,0.28194
2302.92190,0.28077
2300.99315,0.27937
2299.06441,0.27775
2297.13566,0.27606
2295.20692,0.27451
2293.27817,0.27309
2291.34943,0.27164
2289.42068,0.27035
2287.49193,0.26948
2285.56319,0.26889
2283.63444,0.26844
2281.70570,0.26810
2279.77695,0.26777
2277.84821,0.26743
2275.91946,0.26694
2273.99072,0.26617
2272.06197,0.26519
2270.13323,0.26396
2268.20448,0.26228
2266.27574,0.26035
2264.34699,0.25849
2262.41825,0.25665
2260.48950,0.25465
2258.56075,0.25240
2256.63201,0.24995
2254.70326,0.24717
2252.77452,0.24380
2250.84577,0.24006
2248.91703,0.23666
2246.98828,0.23417
2245.05954,0.23279
2243.13079,0.23247
2241.20205,0.23312
2239.27330,0.23487
2237.34456,0.23801
2235.41581,0.24231
2233.48707,0.24692
2231.55832,0.25094
2229.62958,0.25387
2227.70083,0.25578
2225.77208,0.25726
2223.84334,0.25867
2221.91459,0.25988
2219.98585,0.26089
2218.05710,0.26202
2216.12836,0.26317
2214.19961,0.26399
2212.27087,0.26455
2210.34212,0.26515
2208.41338,0.26589
2206.48463,0.26667
2204.55589,0.26727
2202.62714,0.26760
2200.69840,0.26772
2198.76965,0.26759
2196.84090,0.26726
2194.91216,0.26665
2192.98341,0.26577
2191.05467,0.26487
2189.12592,0.26396
2187.19718,0.26289
2185.26843,0.26168
2183.33969,0.26040
2181.41094,0.25892
2179.48220,0.25712
2177.55345,0.25520
2175.62471,0.25333
2173.69596,0.25134
2171.76722,0.24917
2169.83847,0.24708
2167.90973,0.24505
2165.98098,0.24290
2164.05223,0.24078
2162.12349,0.23880
2160.19474,0.23696
2158.26600,0.23536
2156.33725,0.23397
2154.40851,0.23258
2152.47976,0.23109
2150.55102,0.22966
2148.62227,0.22842
2146.69353,0.22726
2144.76478,0.22615
2142.83604,0.22523
2140.90729,0.22440
2138.97855,0.22345
2137.04980,0.22246
2135.12106,0.22175
2133.19231,0.22126
2131.26356,0.22075
2129.33482,0.22038
2127.40607,0.22036
2125.47733,0.22052
2123.54858,0.22069
2121.61984,0.22088
2119.69109,0.22106
2117.76235,0.22131
2115.83360,0.22183
2113.90486,0.22255
2111.97611,0.22327
2110.04737,0.22397
2108.11862,0.22474
2106.18988,0.22568
2104.26113,0.22687
2102.33238,0.22811
2100.40364,0.22903
2098.47489,0.22960
2096.54615,0.23015
2094.61740,0.23094
2092.68866,0.23195
2090.75991,0.23308
2088.83117,0.23433
2086.90242,0.23570
2084.97368,0.23701
2083.04493,0.23815
2081.11619,0.23918
2079.18744,0.24014
2077.25870,0.24087
2075.32995,0.24140
2073.40121,0.24194
2071.47246,0.24261
2069.54371,0.24339
2067.61497,0.24426
2065.68622,0.24520
2063.75748,0.24631
2061.82873,0.24760
2059.89999,0.24887
2057.97124,0.24992
2056.04250,0.25080
2054.11375,0.25159
2052.18501,0.25230
2050.25626,0.25293
2048.32752,0.25358
2046.39877,0.25428
2044.47003,0.25494
2042.54128,0.25553
2040.61254,0.25620
2038.68379,0.25702
2036.75504,0.25798
2034.82630,0.25914
2032.89755,0.26047
2030.96881,0.26172
2029.04006,0.26272
2027.11132,0.26368
2025.18257,0.26477
2023.25383,0.26590
2021.32508,0.26692
2019.39634,0.26794
2017.46759,0.26891
2015.53885,0.26958
2013.61010,0.26990
2011.68136,0.27013
2009.75261,0.27035
2007.82386,0.27035
2005.89512,0.27004
2003.96637,0.26947
2002.03763,0.26869
2000.10888,0.26783
1998.18014,0.26703
1996.25139,0.26632
1994.32265,0.26571
1992.39390,0.26531
1990.46516,0.26511
1988.53641,0.26489
1986.60767,0.26451
1984.67892,0.26408
1982.75018,0.26366
1980.82143,0.26313
1978.89269,0.26233
1976.96394,0.26121
1975.03519,0.25978
1973.10645,0.25807
1971.17770,0.25596
1969.24896,0.25342
1967.32021,0.25057
1965.39147,0.24769
1963.46272,0.24505
1961.53398,0.24307
1959.60523,0.24227
1957.67649,0.24285
1955.74774,0.24451
1953.81900,0.24675
1951.89025,0.24926
1949.96151,0.25208
1948.03276,0.25521
1946.10402,0.25851
1944.17527,0.26189
1942.24652,0.26538
1940.31778,0.26884
1938.38903,0.27230
1936.46029,0.27565
1934.53154,0.27881
1932.60280,0.28181
1930.67405,0.28449
1928.74531,0.28671
1926.81656,0.28878
1924.88782,0.29085
1922.95907,0.29264
1921.03033,0.29414
1919.10158,0.29567
1917.17284,0.29722
1915.24409,0.29858
1913.31534,0.29973
1911.38660,0.30077
1909.45785,0.30181
1907.52911,0.30283
1905.60036,0.30362
1903.67162,0.30425
1901.74287,0.30482
1899.81413,0.30519
1897.88538,0.30541
1895.95664,0.30562
1894.02789,0.30574
1892.09915,0.30577
1890.17040,0.30571
1888.24166,0.30554
1886.31291,0.30551
1884.38417,0.30552
1882.45542,0.30519
1880.52667,0.30455
1878.59793,0.30382
1876.66918,0.30314
1874.74044,0.30244
1872.81169,0.30155
1870.88295,0.30033
1868.95420,0.29866
1867.02546,0.29679
1865.09671,0.29499
1863.16797,0.29311
1861.23922,0.29105
1859.31048,0.28884
1857.38173,0.28631
1855.45299,0.28325
1853.52424,0.27973
1851.59549,0.27597
1849.66675,0.27211
1847.73800,0.26818
1845.80926,0.26421
1843.88051,0.26030
1841.95177,0.25674
1840.02302,0.25349
1838.09428,0.25038
1836.16553,0.24753
1834.23679,0.24495
1832.30804,0.24242
1830.37930,0.23992
1828.45055,0.23776
1826.52181,0.23602
1824.59306,0.23449
1822.66432,0.23324
1820.73557,0.23233
1818.80682,0.23145
1816.87808,0.23042
1814.94933,0.22940
1813.02059,0.22844
1811.09184,0.22738
1809.16310,0.22632
1807.23435,0.22530
1805.30561,0.22410
1803.37686,0.22274
1801.44812,0.22143
1799.51937,0.22008
1797.59063,0.21865
1795.66188,0.21717
1793.73314,0.21548
1791.80439,0.21345
1789.87565,0.21128
1787.94690,0.20898
1786.01815,0.20649
1784.08941,0.20396
1782.16066,0.20141
1780.23192,0.19870
1778.30317,0.19575
1776.37443,0.19260
1774.44568,0.18919
1772.51694,0.18539
1770.58819,0.18139
1768.65945,0.17724
1766.73070,0.17269
1764.80196,0.16792
1762.87321,0.16273
1760.94447,0.15688
1759.01572,0.15079
1757.08697,0.14415
1755.15823,0.13682
1753.22948,0.12905
1751.30074,0.12048
1749.37199,0.11172
1747.44325,0.10427
1745.51450,0.09846
1743.58576,0.09409
1741.65701,0.09095
1739.72827,0.08882
1737.79952,0.08781
1735.87078,0.08781
1733.94203,0.08850
1732.01329,0.08951
1730.08454,0.09050
1728.15580,0.09139
1726.22705,0.09236
1724.29830,0.09363
1722.36956,0.09491
1720.44081,0.09591
1718.51207,0.09667
1716.58332,0.09719
1714.65458,0.09731
1712.72583,0.09719
1710.79709,0.09722
1708.86834,0.09780
1706.93960,0.09919
1705.01085,0.10114
1703.08211,0.10312
1701.15336,0.10510
1699.22462,0.10711
1697.29587,0.10881
1695.36713,0.10998
1693.43838,0.11046
1691.50963,0.11036
1689.58089,0.10980
1687.65214,0.10880
1685.72340,0.10742
1683.79465,0.10605
1681.86591,0.10549
1679.93716,0.10568
1678.00842,0.10600
1676.07967,0.10591
1674.15093,0.10538
1672.22218,0.10494
1670.29344,0.10490
1668.36469,0.10513
1666.43595,0.10550
1664.50720,0.10598
1662.57845,0.10642
1660.64971,0.10667
1658.72096,0.10675
1656.79222,0.10675
1654.86347,0.10663
1652.93473,0.10620
1651.00598,0.10579
1649.07724,0.10571
1647.14849,0.10573
1645.21975,0.10562
1643.29100,0.10537
1641.36226,0.10513
1639.43351,0.10514
1637.50477,0.10547
1635.57602,0.10594
1633.64728,0.10646
1631.71853,0.10714
1629.78978,0.10797
1627.86104,0.10878
1625.93229,0.10955
1624.00355,0.11031
1622.07480,0.11079
1620.14606,0.11083
1618.21731,0.11053
1616.28857,0.11015
1614.35982,0.11037
1612.43108,0.11161
1610.50233,0.11375
1608.57359,0.11632
1606.64484,0.11896
1604.71610,0.12149
1602.78735,0.12374
1600.85861,0.12570
1598.92986,0.12747
1597.00111,0.12888
1595.07237,0.12971
1593.14362,0.13004
1591.21488,0.13008
1589.28613,0.12978
1587.35739,0.12862
1585.42864,0.12611
1583.49990,0.12238
1581.57115,0.11834
1579.64241,0.11547
1577.71366,0.11520
1575.78492,0.11810
1573.85617,0.12245
1571.92743,0.12671
1569.99868,0.13092
1568.06993,0.13443
1566.14119,0.13669
1564.21244,0.13807
1562.28370,0.13889
1560.35495,0.13935
1558.42621,0.13956
1556.49746,0.13948
1554.56872,0.13919
1552.63997,0.13878
1550.71123,0.13853
1548.78248,0.13849
1546.85374,0.13843
1544.92499,0.13820
1542.99625,0.13772
1541.06750,0.13697
1539.13876,0.13605
1537.21001,0.13533
1535.28126,0.13477
1533.35252,0.13379
1531.42377,0.13215
1529.49503,0.13027
1527.56628,0.12852
1525.63754,0.12698
1523.70879,0.12576
1521.78005,0.12493
1519.85130,0.12418
1517.92256,0.12283
1515.99381,0.12035
1514.06507,0.11653
1512.13632,0.11073
1510.20758,0.10282
1508.27883,0.09369
1506.35008,0.08614
1504.42134,0.08493
1502.49259,0.08923
1500.56385,0.09559
1498.63510,0.10132
1496.70636,0.10467
1494.77761,0.10534
1492.84887,0.10376
1490.92012,0.10001
1488.99138,0.09430
1487.06263,0.08764
1485.13389,0.08085
1483.20514,0.07464
1481.27640,0.06972
1479.34765,0.06606
1477.41891,0.06271
1475.49016,0.05905
1473.56141,0.05537
1471.63267,0.05267
1469.70392,0.05130
1467.77518,0.05017
1465.84643,0.04830
1463.91769,0.04583
1461.98894,0.04355
1460.06020,0.04172
1458.13145,0.04004
1456.20271,0.03854
1454.27396,0.03773
1452.34522,0.03758
1450.41647,0.03767
1448.48773,0.03763
1446.55898,0.03748
1444.63024,0.03731
1442.70149,0.03693
1440.77274,0.03640
1438.84400,0.03606
1436.91525,0.03590
1434.98651,0.03574
1433.05776,0.03573
1431.12902,0.03600
1429.20027,0.03644
1427.27153,0.03688
1425.34278,0.03730
1423.41404,0.03750
1421.48529,0.03729
1419.55655,0.03657
1417.62780,0.03543
1415.69906,0.03421
1413.77031,0.03329
1411.84156,0.03296
1409.91282,0.03324
1407.98407,0.03382
1406.05533,0.03466
1404.12658,0.03581
1402.19784,0.03708
1400.26909,0.03821
1398.34035,0.03911
1396.41160,0.03964
1394.48286,0.03955
1392.55411,0.03880
1390.62537,0.03772
1388.69662,0.03641
1386.76788,0.03473
1384.83913,0.03289
1382.91039,0.03110
1380.98164,0.02944
1379.05289,0.02821
1377.12415,0.02752
1375.19540,0.02699
1373.26666,0.02640
1371.33791,0.02610
1369.40917,0.02638
1367.48042,0.02700
1365.55168,0.02753
1363.62293,0.02798
1361.69419,0.02840
1359.76544,0.02856
1357.83670,0.02850
1355.90795,0.02848
1353.97921,0.02858
1352.05046,0.02857
1350.12172,0.02835
1348.19297,0.02802
1346.26422,0.02760
1344.33548,0.02724
1342.40673,0.02711
1340.47799,0.02714
1338.54924,0.02715
1336.62050,0.02714
1334.69175,0.02732
1332.76301,0.02785
1330.83426,0.02846
1328.90552,0.02870
1326.97677,0.02852
1325.04803,0.02807
1323.11928,0.02749
1321.19054,0.02692
1319.26179,0.02631
1317.33304,0.02580
1315.40430,0.02563
1313.47555,0.02582
1311.54681,0.02629
1309.61806,0.02694
1307.68932,0.02767
1305.76057,0.02840
1303.83183,0.02904
1301.90308,0.02954
1299.97434,0.02994
1298.04559,0.03028
1296.11685,0.03050
1294.18810,0.03063
1292.25936,0.03075
1290.33061,0.03081
1288.40187,0.03079
1286.47312,0.03066
1284.54437,0.03064
1282.61563,0.03107
1280.68688,0.03208
1278.75814,0.03343
1276.82939,0.03475
1274.90065,0.03596
1272.97190,0.03711
1271.04316,0.03814
1269.11441,0.03891
1267.18567,0.03931
1265.25692,0.03932
1263.32818,0.03907
1261.39943,0.03886
1259.47069,0.03875
1257.54194,0.03864
1255.61320,0.03859
1253.68445,0.03855
1251.75570,0.03831
1249.82696,0.03793
1247.89821,0.03759
1245.96947,0.03747
1244.04072,0.03742
1242.11198,0.03702
1240.18323,0.03633
1238.25449,0.03582
1236.32574,0.03562
1234.39700,0.03580
1232.46825,0.03650
1230.53951,0.03750
1228.61076,0.03850
1226.68202,0.03938
1224.75327,0.04025
1222.82452,0.04127
1220.89578,0.04253
1218.96703,0.04369
1217.03829,0.04419
1215.10954,0.04395
1213.18080,0.04310
1211.25205,0.04167
1209.32331,0.04006
1207.39456,0.03911
1205.46582,0.03910
1203.53707,0.03957
1201.60833,0.04021
1199.67958,0.04115
1197.75084,0.04226
1195.82209,0.04327
1193.89335,0.04408
1191.96460,0.04441
1190.03585,0.04403
1188.10711,0.04306
1186.17836,0.04152
1184.24962,0.03930
1182.32087,0.03671
1180.39213,0.03443
1178.46338,0.03294
1176.53464,0.03220
1174.60589,0.03199
1172.67715,0.03240
1170.74840,0.03350
1168.81966,0.03474
1166.89091,0.03546
1164.96217,0.03533
1163.03342,0.03436
1161.10467,0.03295
1159.17593,0.03160
1157.24718,0.03036
1155.31844,0.02906
1153.38969,0.02769
1151.46095,0.02631
1149.53220,0.02503
1147.60346,0.02396
1145.67471,0.02304
1143.74597,0.02206
1141.81722,0.02105
1139.88848,0.02037
1137.95973,0.02013
1136.03099,0.02012
1134.10224,0.02025
1132.17350,0.02059
1130.24475,0.02112
1128.31600,0.02169
1126.38726,0.02228
1124.45851,0.02290
1122.52977,0.02336
1120.60102,0.02347
1118.67228,0.02339
1116.74353,0.02356
1114.81479,0.02434
1112.88604,0.02544
1110.95730,0.02601
1109.02855,0.02584
1107.09981,0.02573
1105.17106,0.02604
1103.24232,0.02630
1101.31357,0.02622
1099.38483,0.02587
1097.45608,0.02522
1095.52733,0.02465
1093.59859,0.02469
1091.66984,0.02513
1089.74110,0.02536
1087.81235,0.02543
1085.88361,0.02596
1083.95486,0.02722
1082.02612,0.02900
1080.09737,0.03103
1078.16863,0.03313
1076.23988,0.03523
1074.31114,0.03709
1072.38239,0.03852
1070.45365,0.04018
1068.52490,0.04277
1066.59615,0.04564
1064.66741,0.04793
1062.73866,0.04952
1060.80992,0.05021
1058.88117,0.05000
1056.95243,0.04906
1055.02368,0.04743
1053.09494,0.04538
1051.16619,0.04315
1049.23745,0.04094
1047.30870,0.03929
1045.37996,0.03856
1043.45121,0.03862
1041.52247,0.03916
1039.59372,0.03994
1037.66498,0.04103
1035.73623,0.04222
1033.80748,0.04274
1031.87874,0.04235
1029.94999,0.04144
1028.02125,0.04004
1026.09250,0.03846
1024.16376,0.03751
1022.23501,0.03723
1020.30627,0.03716
1018.37752,0.03760
1016.44878,0.03903
1014.52003,0.04144
1012.59129,0.04426
1010.66254,0.04681
1008.73380,0.04881
1006.80505,0.05022
1004.87631,0.05106
1002.94756,0.05163
1001.01881,0.05223
999.09007,0.05291
997.16132,0.05369
995.23258,0.05440
993.30383,0.05475
991.37509,0.05473
989.44634,0.05458
987.51760,0.05470
985.58885,0.05548
983.66011,0.05688
981.73136,0.05855
979.80262,0.06041
977.87387,0.06243
975.94513,0.06435
974.01638,0.06591
972.08763,0.06752
970.15889,0.07008
968.23014,0.07377
966.30140,0.07815
964.37265,0.08293
962.44391,0.08790
960.51516,0.09303
958.58642,0.09830
956.65767,0.10356
954.72893,0.10866
952.80018,0.11332
950.87144,0.11753
948.94269,0.12121
947.01395,0.12411
945.08520,0.12637
943.15646,0.12828
941.22771,0.12981
939.29896,0.13089
937.37022,0.13146
935.44147,0.13181
933.51273,0.13222
931.58398,0.13250
929.65524,0.13277
927.72649,0.13331
925.79775,0.13388
923.86900,0.13419
921.94026,0.13407
920.01151,0.13294
918.08277,0.13033
916.15402,0.12655
914.22528,0.12226
912.29653,0.11758
910.36779,0.11237
908.43904,0.10716
906.51029,0.10251
904.58155,0.09827
902.65280,0.09438
900.72406,0.09136
898.79531,0.08974
896.86657,0.08959
894.93782,0.09075
893.00908,0.09306
891.08033,0.09619
889.15159,0.09969
887.22284,0.10304
885.29410,0.10529
883.36535,0.10595
881.43661,0.10560
879.50786,0.10460
877.57911,0.10300
875.65037,0.10162
873.72162,0.10189
871.79288,0.10544
869.86413,0.11205
867.93539,0.11880
866.00664,0.12320
864.07790,0.12500
862.14915,0.12476
860.22041,0.12327
858.29166,0.12104
856.36292,0.11817
854.43417,0.11506
852.50543,0.11219
850.57668,0.10971
848.64794,0.10829
846.71919,0.10890
844.79044,0.11123
842.86170,0.11400
840.93295,0.11663
839.00421,0.11912
837.07546,0.12116
835.14672,0.12262
833.21797,0.12386
831.28923,0.12511
829.36048,0.12640
827.43174,0.12738
825.50299,0.12745
823.57425,0.12671
821.64550,0.12570
819.71676,0.12441
817.78801,0.12291
815.85926,0.12150
813.93052,0.12020
812.00177,0.11904
810.07303,0.11803
808.14428,0.11677
806.21554,0.11499
804.28679,0.11311
802.35805,0.11146
800.42930,0.10955
798.50056,0.10654
796.57181,0.10242
794.64307,0.09860
792.71432,0.09706
790.78558,0.09814
788.85683,0.10019
786.92809,0.10175
784.99934,0.10272
783.07059,0.10319
781.14185,0.10289
779.21310,0.10196
777.28436,0.10109
775.35561,0.10047
773.42687,0.09966
771.49812,0.09855
769.56938,0.09736
767.64063,0.09605
765.71189,0.09459
763.78314,0.09328
761.85440,0.09210
759.92565,0.09061
757.99691,0.08838
756.06816,0.08560
754.13942,0.08290
752.21067,0.08050
750.28192,0.07814
748.35318,0.07533
746.42443,0.07143
744.49569,0.06656
742.56694,0.06134
740.63820,0.05580
738.70945,0.05026
736.78071,0.04587
734.85196,0.04314
732.92322,0.04162
730.99447,0.04075
729.06573,0.04035
727.13698,0.04080
725.20824,0.04227
723.27949,0.04479
721.35074,0.04836
719.42200,0.05219
717.49325,0.05502
715.56451,0.05671
713.63576,0.05787
711.70702,0.05861
709.77827,0.05894
707.84953,0.05931
705.92078,0.05978
703.99204,0.06034
702.06329,0.06118
700.13455,0.06213
698.20580,0.06320
696.27706,0.06457
694.34831,0.06570
692.41957,0.06588
690.49082,0.06550
688.56207,0.06504
686.63333,0.06448
684.70458,0.06360
682.77584,0.06220
680.84709,0.06067
678.91835,0.05972
676.98960,0.05942
675.06086,0.05933
673.13211,0.05915
671.20337,0.05879
669.27462,0.05821
667.34588,0.05782
665.41713,0.05813
663.48839,0.05866
661.55964,0.05866
659.63090,0.05869
657.70215,0.05971
655.77340,0.06118
653.84466,0.06136
651.91591,0.06024
649.98717,0.05969
648.05842,0.05982
646.12968,0.05958
644.20093,0.05916
642.27219,0.05855
640.34344,0.05715
638.41470,0.05553
636.48595,0.05429
634.55721,0.05271
632.62846,0.05123
630.69972,0.05117
628.77097,0.05187
626.84222,0.05212
624.91348,0.05206
622.98473,0.05236
621.05599,0.05329
619.12724,0.05389
617.19850,0.05339
615.26975,0.05298
613.34101,0.05338
611.41226,0.05379
609.48352,0.05437
607.55477,0.05532
605.62603,0.05644
603.69728,0.05739
601.76854,0.05742
599.83979,0.05651
