7497.03301,0.01920
7495.10426,0.01607
7493.17552,0.01607
7491.24677,0.01834
7489.31803,0.01962
7487.38928,0.01731
7485.46054,0.01579
7483.53179,0.02132
7481.60305,0.02885
7479.67430,0.03157
7477.74556,0.02884
7475.81681,0.02159
7473.88807,0.01486
7471.95932,0.01433
7470.03057,0.01871
7468.10183,0.02576
7466.17308,0.03289
7464.24434,0.03547
7462.31559,0.03154
7460.38685,0.02702
7458.45810,0.02454
7456.52936,0.02136
7454.60061,0.01685
7452.67187,0.01542
7450.74312,0.01939
7448.81438,0.02369
7446.88563,0.02406
7444.95689,0.02278
7443.02814,0.02420
7441.09940,0.02952
7439.17065,0.03189
7437.24190,0.02881
7435.31316,0.02715
7433.38441,0.02800
7431.45567,0.02719
7429.52692,0.02490
7427.59818,0.02225
7425.66943,0.02189
7423.74069,0.02321
7421.81194,0.02511
7419.88320,0.02775
7417.95445,0.02653
7416.02571,0.02136
7414.09696,0.02103
7412.16822,0.02420
7410.23947,0.02192
7408.31073,0.01454
7406.38198,0.00998
7404.45323,0.00944
7402.52449,0.01411
7400.59574,0.02009
7398.66700,0.02156
7396.73825,0.02348
7394.80951,0.03083
7392.88076,0.03752
7390.95202,0.03625
7389.02327,0.02886
7387.09453,0.02397
7385.16578,0.02256
7383.23704,0.02106
7381.30829,0.02088
7379.37955,0.02422
7377.45080,0.02693
7375.52205,0.02687
7373.59331,0.02399
7371.66456,0.01890
7369.73582,0.01584
7367.80707,0.01592
7365.87833,0.01592
7363.94958,0.01704
7362.02084,0.01948
7360.09209,0.02305
7358.16335,0.02822
7356.23460,0.03075
7354.30586,0.02772
7352.37711,0.02242
7350.44837,0.02186
7348.51962,0.02782
7346.59088,0.03263
7344.66213,0.03272
7342.73338,0.02927
7340.80464,0.02495
7338.87589,0.02382
7336.94715,0.02674
7335.01840,0.02693
7333.08966,0.02353
7331.16091,0.02031
7329.23217,0.01737
7327.30342,0.01548
7325.37468,0.01805
7323.44593,0.02342
7321.51719,0.02690
7319.58844,0.02654
7317.65970,0.02462
7315.73095,0.02362
7313.80221,0.02389
7311.87346,0.02366
7309.94471,0.02241
7308.01597,0.02142
7306.08722,0.02078
7304.15848,0.01916
7302.22973,0.01757
7300.30099,0.01695
7298.37224,0.01813
7296.44350,0.02026
7294.51475,0.01908
7292.58601,0.01604
7290.65726,0.01753
7288.72852,0.02057
7286.79977,0.02185
7284.87103,0.02422
7282.94228,0.02691
7281.01353,0.02805
7279.08479,0.02908
7277.15604,0.02918
7275.22730,0.02687
7273.29855,0.02210
7271.36981,0.01707
7269.44106,0.01456
7267.51232,0.01452
7265.58357,0.01557
7263.65483,0.01774
7261.72608,0.01991
7259.79734,0.02101
7257.86859,0.02163
7255.93985,0.02142
7254.01110,0.02106
7252.08236,0.02161
7250.15361,0.02205
7248.22486,0.02140
7246.29612,0.01840
7244.36737,0.01577
7242.43863,0.01835
7240.50988,0.02280
7238.58114,0.02303
7236.65239,0.01998
7234.72365,0.01683
7232.79490,0.01523
7230.86616,0.01542
7228.93741,0.01586
7227.00867,0.01654
7225.07992,0.02010
7223.15118,0.02354
7221.22243,0.02325
7219.29369,0.02132
7217.36494,0.02175
7215.43619,0.02395
7213.50745,0.02575
7211.57870,0.02478
7209.64996,0.02282
7207.72121,0.02263
7205.79247,0.02245
7203.86372,0.01937
7201.93498,0.01630
7200.00623,0.01756
7198.07749,0.02308
7196.14874,0.02561
7194.22000,0.02194
7192.29125,0.01948
7190.36251,0.02099
7188.43376,0.02056
7186.50501,0.02042
7184.57627,0.02458
7182.64752,0.02793
7180.71878,0.02695
7178.79003,0.02488
7176.86129,0.02385
7174.93254,0.02289
7173.00380,0.02015
7171.07505,0.01677
7169.14631,0.01512
7167.21756,0.01541
7165.28882,0.01687
7163.36007,0.01797
7161.43133,0.01833
7159.50258,0.01887
7157.57384,0.01838
7155.64509,0.01863
7153.71634,0.02038
7151.78760,0.02262
7149.85885,0.02212
7147.93011,0.02047
7146.00136,0.02044
7144.07262,0.02149
7142.14387,0.02278
7140.21513,0.02508
7138.28638,0.02743
7136.35764,0.02811
7134.42889,0.02542
7132.50015,0.02209
7130.57140,0.02104
7128.64266,0.02136
7126.71391,0.02194
7124.78516,0.02404
7122.85642,0.02526
7120.92767,0.02335
7118.99893,0.02140
7117.07018,0.02232
7115.14144,0.02287
7113.21269,0.02062
7111.28395,0.01711
7109.35520,0.01639
7107.42646,0.01809
7105.49771,0.01953
7103.56897,0.02025
7101.64022,0.02142
7099.71148,0.02350
7097.78273,0.02474
7095.85399,0.02118
7093.92524,0.01559
7091.99649,0.01483
7090.06775,0.01976
7088.13900,0.02465
7086.21026,0.02600
7084.28151,0.02391
7082.35277,0.02121
7080.42402,0.02112
7078.49528,0.02328
7076.56653,0.02554
7074.63779,0.02642
7072.70904,0.02282
7070.78030,0.01721
7068.85155,0.01517
7066.92281,0.01782
7064.99406,0.02229
7063.06532,0.02259
7061.13657,0.01839
7059.20782,0.01756
7057.27908,0.02031
7055.35033,0.02189
7053.42159,0.02308
7051.49284,0.02503
7049.56410,0.02486
7047.63535,0.02130
7045.70661,0.01775
7043.77786,0.01645
7041.84912,0.01629
7039.92037,0.01832
7037.99163,0.02181
7036.06288,0.02428
7034.13414,0.02425
7032.20539,0.02154
7030.27664,0.02083
7028.34790,0.02443
7026.41915,0.02647
7024.49041,0.02398
7022.56166,0.02079
7020.63292,0.01989
7018.70417,0.02034
7016.77543,0.02110
7014.84668,0.02218
7012.91794,0.02373
7010.98919,0.02325
7009.06045,0.02028
7007.13170,0.01839
7005.20296,0.01818
7003.27421,0.01692
7001.34547,0.01620
6999.41672,0.01826
6997.48797,0.02033
6995.55923,0.02000
6993.63048,0.02012
6991.70174,0.02024
6989.77299,0.01741
6987.84425,0.01361
6985.91550,0.01509
6983.98676,0.02072
6982.05801,0.02214
6980.12927,0.01759
6978.20052,0.01450
6976.27178,0.01657
6974.34303,0.02154
6972.41429,0.02526
6970.48554,0.02619
6968.55680,0.02553
6966.62805,0.02396
6964.69930,0.02069
6962.77056,0.01678
6960.84181,0.01395
6958.91307,0.01326
6956.98432,0.01547
6955.05558,0.01971
6953.12683,0.02344
6951.19809,0.02456
6949.26934,0.02254
6947.34060,0.01822
6945.41185,0.01439
6943.48311,0.01387
6941.55436,0.01541
6939.62562,0.01610
6937.69687,0.01568
6935.76812,0.01556
6933.83938,0.01653
6931.91063,0.01839
6929.98189,0.02061
6928.05314,0.02320
6926.12440,0.02415
6924.19565,0.02306
6922.26691,0.02246
6920.33816,0.02257
6918.40942,0.02338
6916.48067,0.02452
6914.55193,0.02262
6912.62318,0.01801
6910.69444,0.01437
6908.76569,0.01433
6906.83695,0.01772
6904.90820,0.02316
6902.97945,0.02641
6901.05071,0.02401
6899.12196,0.01941
6897.19322,0.01792
6895.26447,0.01968
6893.33573,0.02131
6891.40698,0.02087
6889.47824,0.01966
6887.54949,0.01869
6885.62075,0.01890
6883.69200,0.02152
6881.76326,0.02442
6879.83451,0.02497
6877.90577,0.02402
6875.97702,0.02305
6874.04828,0.02325
6872.11953,0.02306
6870.19078,0.02220
6868.26204,0.02264
6866.33329,0.02458
6864.40455,0.02428
6862.47580,0.02099
6860.54706,0.01830
6858.61831,0.01812
6856.68957,0.01856
6854.76082,0.01883
6852.83208,0.02016
6850.90333,0.02191
6848.97459,0.02254
6847.04584,0.02237
6845.11710,0.02219
6843.18835,0.02152
6841.25960,0.01891
6839.33086,0.01559
6837.40211,0.01516
6835.47337,0.01794
6833.54462,0.02086
6831.61588,0.02217
6829.68713,0.02186
6827.75839,0.02069
6825.82964,0.02126
6823.90090,0.02387
6821.97215,0.02363
6820.04341,0.02067
6818.11466,0.01846
6816.18592,0.01724
6814.25717,0.01492
6812.32843,0.01354
6810.39968,0.01553
6808.47093,0.01790
6806.54219,0.01848
6804.61344,0.02033
6802.68470,0.02401
6800.75595,0.02610
6798.82721,0.02443
6796.89846,0.02007
6794.96972,0.01643
6793.04097,0.01772
6791.11223,0.02137
6789.18348,0.02136
6787.25474,0.01826
6785.32599,0.01812
6783.39725,0.02123
6781.46850,0.02266
6779.53975,0.01981
6777.61101,0.01549
6775.68226,0.01241
6773.75352,0.01299
6771.82477,0.01601
6769.89603,0.01847
6767.96728,0.01965
6766.03854,0.02078
6764.10979,0.02135
6762.18105,0.02181
6760.25230,0.02237
6758.32356,0.02165
6756.39481,0.02047
6754.46607,0.02027
6752.53732,0.01958
6750.60858,0.01788
6748.67983,0.01660
6746.75108,0.01709
6744.82234,0.01749
6742.89359,0.01737
6740.96485,0.01838
6739.03610,0.02008
6737.10736,0.02165
6735.17861,0.02362
6733.24987,0.02546
6731.32112,0.02628
6729.39238,0.02496
6727.46363,0.02152
6725.53489,0.01917
6723.60614,0.01986
6721.67740,0.02067
6719.74865,0.01951
6717.81991,0.01789
6715.89116,0.01838
6713.96241,0.02100
6712.03367,0.02362
6710.10492,0.02475
6708.17618,0.02530
6706.24743,0.02540
6704.31869,0.02368
6702.38994,0.02119
6700.46120,0.02003
6698.53245,0.02003
6696.60371,0.02087
6694.67496,0.02051
6692.74622,0.01859
6690.81747,0.01839
6688.88873,0.02094
6686.95998,0.02281
6685.03123,0.02139
6683.10249,0.01877
6681.17374,0.01937
6679.24500,0.02144
6677.31625,0.02092
6675.38751,0.02030
6673.45876,0.02120
6671.53002,0.02096
6669.60127,0.02075
6667.67253,0.02167
6665.74378,0.02110
6663.81504,0.01911
6661.88629,0.01858
6659.95755,0.01928
6658.02880,0.02005
6656.10006,0.02102
6654.17131,0.02153
6652.24256,0.01994
6650.31382,0.01865
6648.38507,0.02019
6646.45633,0.02198
6644.52758,0.02179
6642.59884,0.02022
6640.67009,0.01795
6638.74135,0.01637
6636.81260,0.01719
6634.88386,0.01867
6632.95511,0.01822
6631.02637,0.01838
6629.09762,0.02057
6627.16888,0.02104
6625.24013,0.01863
6623.31139,0.01641
6621.38264,0.01653
6619.45389,0.01869
6617.52515,0.02022
6615.59640,0.01946
6613.66766,0.01897
6611.73891,0.02097
6609.81017,0.02237
6607.88142,0.02084
6605.95268,0.02001
6604.02393,0.02250
6602.09519,0.02445
6600.16644,0.02274
6598.23770,0.02082
6596.30895,0.02114
6594.38021,0.02073
6592.45146,0.01867
6590.52271,0.01699
6588.59397,0.01590
6586.66522,0.01565
6584.73648,0.01727
6582.80773,0.01948
6580.87899,0.02114
6578.95024,0.02309
6577.02150,0.02458
6575.09275,0.02337
6573.16401,0.01850
6571.23526,0.01356
6569.30652,0.01434
6567.37777,0.01856
6565.44903,0.02038
6563.52028,0.02050
6561.59154,0.02050
6559.66279,0.01887
6557.73404,0.01677
6555.80530,0.01731
6553.87655,0.01949
6551.94781,0.02048
6550.01906,0.02123
6548.09032,0.02259
6546.16157,0.02269
6544.23283,0.02085
6542.30408,0.01896
6540.37534,0.01801
6538.44659,0.01760
6536.51785,0.01819
6534.58910,0.01943
6532.66036,0.01923
6530.73161,0.01715
6528.80287,0.01490
6526.87412,0.01431
6524.94537,0.01530
6523.01663,0.01724
6521.08788,0.01963
6519.15914,0.02198
6517.23039,0.02315
6515.30165,0.02304
6513.37290,0.02205
6511.44416,0.01915
6509.51541,0.01483
6507.58667,0.01248
6505.65792,0.01266
6503.72918,0.01274
6501.80043,0.01238
6499.87169,0.01291
6497.94294,0.01361
6496.01419,0.01412
6494.08545,0.01456
6492.15670,0.01572
6490.22796,0.01764
6488.29921,0.01818
6486.37047,0.01646
6484.44172,0.01524
6482.51298,0.01563
6480.58423,0.01582
6478.65549,0.01539
6476.72674,0.01612
6474.79800,0.01748
6472.86925,0.01819
6470.94051,0.01884
6469.01176,0.01988
6467.08302,0.02060
6465.15427,0.02019
6463.22552,0.01897
6461.29678,0.01826
6459.36803,0.01783
6457.43929,0.01649
6455.51054,0.01529
6453.58180,0.01611
6451.65305,0.01776
6449.72431,0.01787
6447.79556,0.01689
6445.86682,0.01772
6443.93807,0.02057
6442.00933,0.02129
6440.08058,0.01901
6438.15184,0.01735
6436.22309,0.01743
6434.29434,0.01804
6432.36560,0.01836
6430.43685,0.01847
6428.50811,0.01775
6426.57936,0.01631
6424.65062,0.01629
6422.72187,0.01763
6420.79313,0.01739
6418.86438,0.01571
6416.93564,0.01525
6415.00689,0.01708
6413.07815,0.01975
6411.14940,0.02037
6409.22066,0.01815
6407.29191,0.01632
6405.36317,0.01678
6403.43442,0.01825
6401.50567,0.01857
6399.57693,0.01745
6397.64818,0.01680
6395.71944,0.01792
6393.79069,0.02001
6391.86195,0.02092
6389.93320,0.01960
6388.00446,0.01858
6386.07571,0.01893
6384.14697,0.01953
6382.21822,0.02040
6380.28948,0.02142
6378.36073,0.02257
6376.43199,0.02315
6374.50324,0.02226
6372.57450,0.02100
6370.64575,0.01944
6368.71700,0.01757
6366.78826,0.01679
6364.85951,0.01748
6362.93077,0.01782
6361.00202,0.01772
6359.07328,0.01838
6357.14453,0.01962
6355.21579,0.02056
6353.28704,0.02120
6351.35830,0.02132
6349.42955,0.02045
6347.50081,0.01849
6345.57206,0.01684
6343.64332,0.01691
6341.71457,0.01811
6339.78582,0.01875
6337.85708,0.01799
6335.92833,0.01720
6333.99959,0.01798
6332.07084,0.01908
6330.14210,0.01861
6328.21335,0.01801
6326.28461,0.01967
6324.35586,0.02130
6322.42712,0.02051
6320.49837,0.01895
6318.56963,0.01822
6316.64088,0.01775
6314.71214,0.01727
6312.78339,0.01678
6310.85465,0.01624
6308.92590,0.01632
6306.99715,0.01759
6305.06841,0.01901
6303.13966,0.02010
6301.21092,0.02056
6299.28217,0.01987
6297.35343,0.01836
6295.42468,0.01752
6293.49594,0.01828
6291.56719,0.01953
6289.63845,0.01903
6287.70970,0.01730
6285.78096,0.01733
6283.85221,0.01980
6281.92347,0.02120
6279.99472,0.02028
6278.06598,0.01920
6276.13723,0.01844
6274.20848,0.01786
6272.27974,0.01794
6270.35099,0.01856
6268.42225,0.02042
6266.49350,0.02242
6264.56476,0.02167
6262.63601,0.01953
6260.70727,0.01891
6258.77852,0.01958
6256.84978,0.02063
6254.92103,0.02109
6252.99229,0.02080
6251.06354,0.02053
6249.13480,0.01966
6247.20605,0.01786
6245.27730,0.01680
6243.34856,0.01755
6241.41981,0.01947
6239.49107,0.02124
6237.56232,0.02172
6235.63358,0.02093
6233.70483,0.02046
6231.77609,0.02079
6229.84734,0.02059
6227.91860,0.01960
6225.98985,0.01946
6224.06111,0.02091
6222.13236,0.02169
6220.20362,0.01928
6218.27487,0.01588
6216.34613,0.01551
6214.41738,0.01833
6212.48863,0.02107
6210.55989,0.02141
6208.63114,0.01960
6206.70240,0.01765
6204.77365,0.01773
6202.84491,0.01928
6200.91616,0.01989
6198.98742,0.01959
6197.05867,0.01924
6195.12993,0.01780
6193.20118,0.01560
6191.27244,0.01516
6189.34369,0.01571
6187.41495,0.01598
6185.48620,0.01773
6183.55746,0.02027
6181.62871,0.02104
6179.69996,0.02042
6177.77122,0.01995
6175.84247,0.02014
6173.91373,0.02027
6171.98498,0.02021
6170.05624,0.01980
6168.12749,0.01850
6166.19875,0.01707
6164.27000,0.01737
6162.34126,0.01898
6160.41251,0.01917
6158.48377,0.01833
6156.55502,0.01903
6154.62628,0.01954
6152.69753,0.01803
6150.76878,0.01620
6148.84004,0.01560
6146.91129,0.01587
6144.98255,0.01648
6143.05380,0.01763
6141.12506,0.01869
6139.19631,0.01887
6137.26757,0.01921
6135.33882,0.02071
6133.41008,0.02178
6131.48133,0.02122
6129.55259,0.02088
6127.62384,0.02142
6125.69510,0.02058
6123.76635,0.01802
6121.83761,0.01667
6119.90886,0.01714
6117.98011,0.01776
6116.05137,0.01794
6114.12262,0.01831
6112.19388,0.01894
6110.26513,0.01967
6108.33639,0.02011
6106.40764,0.01979
6104.47890,0.01852
6102.55015,0.01769
6100.62141,0.01790
6098.69266,0.01826
6096.76392,0.01847
6094.83517,0.01910
6092.90643,0.01991
6090.97768,0.02027
6089.04893,0.01993
6087.12019,0.01917
6085.19144,0.01814
6083.26270,0.01696
6081.33395,0.01658
6079.40521,0.01759
6077.47646,0.01910
6075.54772,0.02001
6073.61897,0.01991
6071.69023,0.01958
6069.76148,0.01991
6067.83274,0.02073
6065.90399,0.02163
6063.97525,0.02188
6062.04650,0.02021
6060.11776,0.01792
6058.18901,0.01727
6056.26026,0.01797
6054.33152,0.01907
6052.40277,0.02022
6050.47403,0.02074
6048.54528,0.02114
6046.61654,0.02115
6044.68779,0.01954
6042.75905,0.01732
6040.83030,0.01706
6038.90156,0.01848
6036.97281,0.01877
6035.04407,0.01812
6033.11532,0.01827
6031.18658,0.01864
6029.25783,0.01892
6027.32909,0.01952
6025.40034,0.02021
6023.47159,0.02038
6021.54285,0.01951
6019.61410,0.01807
6017.68536,0.01735
6015.75661,0.01783
6013.82787,0.01925
6011.89912,0.02091
6009.97038,0.02144
6008.04163,0.02058
6006.11289,0.01982
6004.18414,0.01989
6002.25540,0.01993
6000.32665,0.01924
5998.39791,0.01867
5996.46916,0.01904
5994.54041,0.01959
5992.61167,0.01924
5990.68292,0.01849
5988.75418,0.01794
5986.82543,0.01666
5984.89669,0.01530
5982.96794,0.01562
5981.03920,0.01738
5979.11045,0.01925
5977.18171,0.01988
5975.25296,0.01943
5973.32422,0.01887
5971.39547,0.01866
5969.46673,0.01924
5967.53798,0.02009
5965.60924,0.01994
5963.68049,0.01891
5961.75174,0.01802
5959.82300,0.01786
5957.89425,0.01824
5955.96551,0.01859
5954.03676,0.01820
5952.10802,0.01797
5950.17927,0.01835
5948.25053,0.01810
5946.32178,0.01718
5944.39304,0.01713
5942.46429,0.01809
5940.53555,0.01888
5938.60680,0.01921
5936.67806,0.01923
5934.74931,0.01872
5932.82057,0.01857
5930.89182,0.01919
5928.96307,0.01931
5927.03433,0.01900
5925.10558,0.01911
5923.17684,0.01860
5921.24809,0.01686
5919.31935,0.01571
5917.39060,0.01652
5915.46186,0.01811
5913.53311,0.01873
5911.60437,0.01818
5909.67562,0.01713
5907.74688,0.01682
5905.81813,0.01788
5903.88939,0.01925
5901.96064,0.02021
5900.03189,0.02011
5898.10315,0.01913
5896.17440,0.01853
5894.24566,0.01801
5892.31691,0.01726
5890.38817,0.01726
5888.45942,0.01805
5886.53068,0.01922
5884.60193,0.01980
5882.67319,0.01881
5880.74444,0.01772
5878.81570,0.01812
5876.88695,0.01910
5874.95821,0.01963
5873.02946,0.01964
5871.10072,0.01971
5869.17197,0.01970
5867.24322,0.01905
5865.31448,0.01885
5863.38573,0.01961
5861.45699,0.02030
5859.52824,0.02029
5857.59950,0.01968
5855.67075,0.01922
5853.74201,0.01897
5851.81326,0.01839
5849.88452,0.01754
5847.95577,0.01732
5846.02703,0.01831
5844.09828,0.01902
5842.16954,0.01813
5840.24079,0.01679
5838.31205,0.01630
5836.38330,0.01702
5834.45455,0.01854
5832.52581,0.01930
5830.59706,0.01851
5828.66832,0.01799
5826.73957,0.01845
5824.81083,0.01881
5822.88208,0.01878
5820.95334,0.01869
5819.02459,0.01869
5817.09585,0.01888
5815.16710,0.01886
5813.23836,0.01866
5811.30961,0.01928
5809.38087,0.02051
5807.45212,0.02074
5805.52337,0.01992
5803.59463,0.01940
5801.66588,0.01960
5799.73714,0.02023
5797.80839,0.02073
5795.87965,0.02004
5793.95090,0.01835
5792.02216,0.01714
5790.09341,0.01666
5788.16467,0.01609
5786.23592,0.01587
5784.30718,0.01679
5782.37843,0.01796
5780.44969,0.01788
5778.52094,0.01712
5776.59220,0.01690
5774.66345,0.01737
5772.73470,0.01838
5770.80596,0.01884
5768.87721,0.01800
5766.94847,0.01762
5765.01972,0.01848
5763.09098,0.01910
5761.16223,0.01925
5759.23349,0.01978
5757.30474,0.02022
5755.37600,0.02002
5753.44725,0.01995
5751.51851,0.02030
5749.58976,0.01994
5747.66102,0.01859
5745.73227,0.01789
5743.80352,0.01885
5741.87478,0.02013
5739.94603,0.01990
5738.01729,0.01869
5736.08854,0.01836
5734.15980,0.01900
5732.23105,0.01942
5730.30231,0.01907
5728.37356,0.01853
5726.44482,0.01823
5724.51607,0.01804
5722.58733,0.01841
5720.65858,0.01939
5718.72984,0.01968
5716.80109,0.01896
5714.87235,0.01827
5712.94360,0.01800
5711.01485,0.01795
5709.08611,0.01849
5707.15736,0.01926
5705.22862,0.01920
5703.29987,0.01847
5701.37113,0.01830
5699.44238,0.01859
5697.51364,0.01844
5695.58489,0.01808
5693.65615,0.01840
5691.72740,0.01910
5689.79866,0.01946
5687.86991,0.01990
5685.94117,0.02075
5684.01242,0.02139
5682.08368,0.02126
5680.15493,0.02007
5678.22618,0.01855
5676.29744,0.01828
5674.36869,0.01959
5672.43995,0.02087
5670.51120,0.02127
5668.58246,0.02116
5666.65371,0.02071
5664.72497,0.02020
5662.79622,0.02002
5660.86748,0.01958
5658.93873,0.01883
5657.00999,0.01821
5655.08124,0.01745
5653.15250,0.01689
5651.22375,0.01722
5649.29500,0.01816
5647.36626,0.01917
5645.43751,0.01903
5643.50877,0.01743
5641.58002,0.01659
5639.65128,0.01754
5637.72253,0.01831
5635.79379,0.01832
5633.86504,0.01885
5631.93630,0.01946
5630.00755,0.01902
5628.07881,0.01828
5626.15006,0.01863
5624.22132,0.01933
5622.29257,0.01902
5620.36383,0.01840
5618.43508,0.01846
5616.50633,0.01906
5614.57759,0.01958
5612.64884,0.01999
5610.72010,0.02033
5608.79135,0.02000
5606.86261,0.01915
5604.93386,0.01855
5603.00512,0.01858
5601.07637,0.01902
5599.14763,0.01915
5597.21888,0.01883
5595.29014,0.01853
5593.36139,0.01848
5591.43265,0.01901
5589.50390,0.02009
5587.57516,0.02034
5585.64641,0.01950
5583.71766,0.01914
5581.78892,0.01925
5579.86017,0.01899
5577.93143,0.01896
5576.00268,0.01901
5574.07394,0.01868
5572.14519,0.01877
5570.21645,0.01948
5568.28770,0.01986
5566.35896,0.01991
5564.43021,0.01978
5562.50147,0.01910
5560.57272,0.01828
5558.64398,0.01859
5556.71523,0.02030
5554.78648,0.02162
5552.85774,0.02112
5550.92899,0.02002
5549.00025,0.01969
5547.07150,0.01985
5545.14276,0.01999
5543.21401,0.02005
5541.28527,0.02012
5539.35652,0.01991
5537.42778,0.01904
5535.49903,0.01842
5533.57029,0.01829
5531.64154,0.01832
5529.71280,0.01840
5527.78405,0.01789
5525.85531,0.01691
5523.92656,0.01672
5521.99781,0.01725
5520.06907,0.01781
5518.14032,0.01847
5516.21158,0.01903
5514.28283,0.01936
5512.35409,0.01964
5510.42534,0.01944
5508.49660,0.01900
5506.56785,0.01901
5504.63911,0.01890
5502.71036,0.01837
5500.78162,0.01820
5498.85287,0.01829
5496.92413,0.01841
5494.99538,0.01936
5493.06664,0.02096
5491.13789,0.02115
5489.20914,0.01990
5487.28040,0.01928
5485.35165,0.01956
5483.42291,0.01966
5481.49416,0.01980
5479.56542,0.02001
5477.63667,0.01991
5475.70793,0.01946
5473.77918,0.01855
5471.85044,0.01783
5469.92169,0.01831
5467.99295,0.01924
5466.06420,0.01918
5464.13546,0.01855
5462.20671,0.01867
5460.27796,0.01933
5458.34922,0.01957
5456.42047,0.01971
5454.49173,0.02033
5452.56298,0.02121
5450.63424,0.02175
5448.70549,0.02139
5446.77675,0.02021
5444.84800,0.01893
5442.91926,0.01822
5440.99051,0.01797
5439.06177,0.01803
5437.13302,0.01868
5435.20428,0.01937
5433.27553,0.01984
5431.34679,0.02038
5429.41804,0.02035
5427.48929,0.01957
5425.56055,0.01878
5423.63180,0.01862
5421.70306,0.01920
5419.77431,0.01979
5417.84557,0.01999
5415.91682,0.01999
5413.98808,0.01967
5412.05933,0.01903
5410.13059,0.01852
5408.20184,0.01859
5406.27310,0.01910
5404.34435,0.01925
5402.41561,0.01862
5400.48686,0.01771
5398.55811,0.01729
5396.62937,0.01769
5394.70062,0.01869
5392.77188,0.01983
5390.84313,0.02038
5388.91439,0.01986
5386.98564,0.01893
5385.05690,0.01840
5383.12815,0.01819
5381.19941,0.01777
5379.27066,0.01760
5377.34192,0.01860
5375.41317,0.01961
5373.48443,0.01904
5371.55568,0.01753
5369.62694,0.01714
5367.69819,0.01814
5365.76944,0.01888
5363.84070,0.01892
5361.91195,0.01900
5359.98321,0.01934
5358.05446,0.01977
5356.12572,0.01984
5354.19697,0.01946
5352.26823,0.01927
5350.33948,0.01968
5348.41074,0.01995
5346.48199,0.01971
5344.55325,0.01923
5342.62450,0.01858
5340.69576,0.01839
5338.76701,0.01881
5336.83827,0.01895
5334.90952,0.01871
5332.98077,0.01874
5331.05203,0.01911
5329.12328,0.01941
5327.19454,0.01919
5325.26579,0.01876
5323.33705,0.01875
5321.40830,0.01845
5319.47956,0.01741
5317.55081,0.01698
5315.62207,0.01782
5313.69332,0.01881
5311.76458,0.01918
5309.83583,0.01894
5307.90709,0.01872
5305.97834,0.01932
5304.04959,0.02040
5302.12085,0.02066
5300.19210,0.02009
5298.26336,0.01967
5296.33461,0.01940
5294.40587,0.01895
5292.47712,0.01861
5290.54838,0.01853
5288.61963,0.01887
5286.69089,0.01968
5284.76214,0.01998
5282.83340,0.01891
5280.90465,0.01793
5278.97591,0.01813
5277.04716,0.01849
5275.11842,0.01872
5273.18967,0.01889
5271.26092,0.01860
5269.33218,0.01856
5267.40343,0.01907
5265.47469,0.01955
5263.54594,0.01972
5261.61720,0.01916
5259.68845,0.01831
5257.75971,0.01835
5255.83096,0.01901
5253.90222,0.01909
5251.97347,0.01875
5250.04473,0.01852
5248.11598,0.01823
5246.18724,0.01836
5244.25849,0.01912
5242.32975,0.01958
5240.40100,0.01920
5238.47225,0.01859
5236.54351,0.01856
5234.61476,0.01885
5232.68602,0.01868
5230.75727,0.01845
5228.82853,0.01873
5226.89978,0.01898
5224.97104,0.01899
5223.04229,0.01908
5221.11355,0.01920
5219.18480,0.01917
5217.25606,0.01945
5215.32731,0.02029
5213.39857,0.02071
5211.46982,0.02015
5209.54107,0.01942
5207.61233,0.01895
5205.68358,0.01870
5203.75484,0.01880
5201.82609,0.01874
5199.89735,0.01846
5197.96860,0.01859
5196.03986,0.01880
5194.11111,0.01882
5192.18237,0.01905
5190.25362,0.01940
5188.32488,0.01981
5186.39613,0.02038
5184.46739,0.02049
5182.53864,0.01959
5180.60990,0.01864
5178.68115,0.01862
5176.75240,0.01901
5174.82366,0.01940
5172.89491,0.01993
5170.96617,0.02031
5169.03742,0.02023
5167.10868,0.01971
5165.17993,0.01942
5163.25119,0.01984
5161.32244,0.02023
5159.39370,0.01996
5157.46495,0.01954
5155.53621,0.01942
5153.60746,0.01939
5151.67872,0.01943
5149.74997,0.01965
5147.82123,0.01953
5145.89248,0.01894
5143.96373,0.01864
5142.03499,0.01899
5140.10624,0.01940
5138.17750,0.01932
5136.24875,0.01920
5134.32001,0.01933
5132.39126,0.01924
5130.46252,0.01901
5128.53377,0.01902
5126.60503,0.01895
5124.67628,0.01861
5122.74754,0.01875
5120.81879,0.01982
5118.89005,0.02094
5116.96130,0.02084
5115.03255,0.01964
5113.10381,0.01859
5111.17506,0.01836
5109.24632,0.01879
5107.31757,0.01935
5105.38883,0.01969
5103.46008,0.02011
5101.53134,0.02062
5099.60259,0.02059
5097.67385,0.01998
5095.74510,0.01941
5093.81636,0.01926
5091.88761,0.01931
5089.95887,0.01887
5088.03012,0.01803
5086.10138,0.01768
5084.17263,0.01785
5082.24388,0.01795
5080.31514,0.01817
5078.38639,0.01886
5076.45765,0.01966
5074.52890,0.02012
5072.60016,0.02027
5070.67141,0.02037
5068.74267,0.02035
5066.81392,0.02000
5064.88518,0.01968
5062.95643,0.01945
5061.02769,0.01892
5059.09894,0.01850
5057.17020,0.01856
5055.24145,0.01861
5053.31270,0.01866
5051.38396,0.01899
5049.45521,0.01904
5047.52647,0.01867
5045.59772,0.01864
5043.66898,0.01906
5041.74023,0.01938
5039.81149,0.01937
5037.88274,0.01926
5035.95400,0.01957
5034.02525,0.02019
5032.09651,0.02013
5030.16776,0.01958
5028.23902,0.01954
5026.31027,0.01966
5024.38153,0.01958
5022.45278,0.01956
5020.52403,0.01936
5018.59529,0.01894
5016.66654,0.01847
5014.73780,0.01783
5012.80905,0.01741
5010.88031,0.01782
5008.95156,0.01872
5007.02282,0.01924
5005.09407,0.01878
5003.16533,0.01805
5001.23658,0.01825
4999.30784,0.01909
4997.37909,0.01988
4995.45035,0.02017
4993.52160,0.01984
4991.59286,0.01987
4989.66411,0.02037
4987.73536,0.02007
4985.80662,0.01885
4983.87787,0.01806
4981.94913,0.01837
4980.02038,0.01918
4978.09164,0.01981
4976.16289,0.02005
4974.23415,0.02003
4972.30540,0.01999
4970.37666,0.01988
4968.44791,0.01959
4966.51917,0.01926
4964.59042,0.01932
4962.66168,0.01974
4960.73293,0.01973
4958.80418,0.01908
4956.87544,0.01881
4954.94669,0.01920
4953.01795,0.01942
4951.08920,0.01935
4949.16046,0.01934
4947.23171,0.01951
4945.30297,0.01970
4943.37422,0.01949
4941.44548,0.01907
4939.51673,0.01884
4937.58799,0.01899
4935.65924,0.01930
4933.73050,0.01931
4931.80175,0.01885
4929.87301,0.01846
4927.94426,0.01860
4926.01551,0.01928
4924.08677,0.02004
4922.15802,0.02008
4920.22928,0.01961
4918.30053,0.01954
4916.37179,0.01978
4914.44304,0.01980
4912.51430,0.01942
4910.58555,0.01911
4908.65681,0.01928
4906.72806,0.01958
4904.79932,0.01955
4902.87057,0.01942
4900.94183,0.01960
4899.01308,0.01991
4897.08434,0.01991
4895.15559,0.01961
4893.22684,0.01951
4891.29810,0.01970
4889.36935,0.01948
4887.44061,0.01876
4885.51186,0.01816
4883.58312,0.01813
4881.65437,0.01882
4879.72563,0.01966
4877.79688,0.01999
4875.86814,0.01999
4873.93939,0.01997
4872.01065,0.01974
4870.08190,0.01930
4868.15316,0.01918
4866.22441,0.01944
4864.29566,0.01947
4862.36692,0.01928
4860.43817,0.01951
4858.50943,0.01963
4856.58068,0.01887
4854.65194,0.01838
4852.72319,0.01897
4850.79445,0.01945
4848.86570,0.01936
4846.93696,0.01910
4845.00821,0.01885
4843.07947,0.01894
4841.15072,0.01935
4839.22198,0.01976
4837.29323,0.02007
4835.36449,0.01972
4833.43574,0.01867
4831.50699,0.01798
4829.57825,0.01822
4827.64950,0.01889
4825.72076,0.01924
4823.79201,0.01912
4821.86327,0.01884
4819.93452,0.01861
4818.00578,0.01856
4816.07703,0.01862
4814.14829,0.01860
4812.21954,0.01863
4810.29080,0.01902
4808.36205,0.01956
4806.43331,0.01992
4804.50456,0.02028
4802.57582,0.02056
4800.64707,0.02041
4798.71832,0.02007
4796.78958,0.01978
4794.86083,0.01955
4792.93209,0.01954
4791.00334,0.01972
4789.07460,0.01985
4787.14585,0.01983
4785.21711,0.01976
4783.28836,0.01948
4781.35962,0.01890
4779.43087,0.01872
4777.50213,0.01928
4775.57338,0.01977
4773.64464,0.01966
4771.71589,0.01935
4769.78714,0.01940
4767.85840,0.01963
4765.92965,0.01959
4764.00091,0.01955
4762.07216,0.01972
4760.14342,0.01984
4758.21467,0.01974
4756.28593,0.01958
4754.35718,0.01949
4752.42844,0.01933
4750.49969,0.01921
4748.57095,0.01924
4746.64220,0.01908
4744.71346,0.01868
4742.78471,0.01851
4740.85597,0.01887
4738.92722,0.01945
4736.99847,0.01977
4735.06973,0.01978
4733.14098,0.01956
4731.21224,0.01932
4729.28349,0.01930
4727.35475,0.01939
4725.42600,0.01932
4723.49726,0.01898
4721.56851,0.01867
4719.63977,0.01878
4717.71102,0.01893
4715.78228,0.01885
4713.85353,0.01912
4711.92479,0.01979
4709.99604,0.01996
4708.06729,0.01943
4706.13855,0.01895
4704.20980,0.01884
4702.28106,0.01888
4700.35231,0.01910
4698.42357,0.01945
4696.49482,0.01928
4694.56608,0.01857
4692.63733,0.01847
4690.70859,0.01916
4688.77984,0.01966
4686.85110,0.01969
4684.92235,0.01964
4682.99361,0.01969
4681.06486,0.01968
4679.13612,0.01959
4677.20737,0.01949
4675.27862,0.01946
4673.34988,0.01975
4671.42113,0.02016
4669.49239,0.02017
4667.56364,0.01997
4665.63490,0.01967
4663.70615,0.01894
4661.77741,0.01822
4659.84866,0.01833
4657.91992,0.01913
4655.99117,0.01976
4654.06243,0.01990
4652.13368,0.01947
4650.20494,0.01868
4648.27619,0.01854
4646.34745,0.01900
4644.41870,0.01922
4642.48995,0.01933
4640.56121,0.01953
4638.63246,0.01955
4636.70372,0.01958
4634.77497,0.01967
4632.84623,0.01942
4630.91748,0.01890
4628.98874,0.01869
4627.05999,0.01899
4625.13125,0.01933
4623.20250,0.01957
4621.27376,0.01989
4619.34501,0.01993
4617.41627,0.01954
4615.48752,0.01923
4613.55877,0.01892
4611.63003,0.01852
4609.70128,0.01865
4607.77254,0.01922
4605.84379,0.01966
4603.91505,0.01995
4601.98630,0.02003
4600.05756,0.01986
4598.12881,0.01971
4596.20007,0.01977
4594.27132,0.02008
4592.34258,0.02039
4590.41383,0.02026
4588.48509,0.01996
4586.55634,0.02006
4584.62760,0.02031
4582.69885,0.02031
4580.77010,0.02023
4578.84136,0.01994
4576.91261,0.01918
4574.98387,0.01872
4573.05512,0.01913
4571.12638,0.01960
4569.19763,0.01951
4567.26889,0.01942
4565.34014,0.01971
4563.41140,0.02000
4561.48265,0.02007
4559.55391,0.02003
4557.62516,0.01985
4555.69642,0.01970
4553.76767,0.01971
4551.83893,0.01961
4549.91018,0.01947
4547.98143,0.01953
4546.05269,0.01946
4544.12394,0.01926
4542.19520,0.01931
4540.26645,0.01941
4538.33771,0.01897
4536.40896,0.01849
4534.48022,0.01877
4532.55147,0.01945
4530.62273,0.01964
4528.69398,0.01935
4526.76524,0.01922
4524.83649,0.01955
4522.90775,0.01987
4520.97900,0.01966
4519.05025,0.01937
4517.12151,0.01960
4515.19276,0.01984
4513.26402,0.01962
4511.33527,0.01920
4509.40653,0.01891
4507.47778,0.01877
4505.54904,0.01892
4503.62029,0.01930
4501.69155,0.01934
4499.76280,0.01895
4497.83406,0.01886
4495.90531,0.01921
4493.97657,0.01951
4492.04782,0.01953
4490.11908,0.01928
4488.19033,0.01904
4486.26158,0.01909
4484.33284,0.01929
4482.40409,0.01940
4480.47535,0.01927
4478.54660,0.01879
4476.61786,0.01841
4474.68911,0.01877
4472.76037,0.01962
4470.83162,0.02012
4468.90288,0.01994
4466.97413,0.01957
4465.04539,0.01949
4463.11664,0.01957
4461.18790,0.01956
4459.25915,0.01961
4457.33041,0.01979
4455.40166,0.01986
4453.47291,0.01980
4451.54417,0.01989
4449.61542,0.02003
4447.68668,0.01977
4445.75793,0.01914
4443.82919,0.01851
4441.90044,0.01825
4439.97170,0.01846
4438.04295,0.01891
4436.11421,0.01926
4434.18546,0.01944
4432.25672,0.01965
4430.32797,0.01980
4428.39923,0.01963
4426.47048,0.01942
4424.54173,0.01967
4422.61299,0.02001
4420.68424,0.01976
4418.75550,0.01910
4416.82675,0.01875
4414.89801,0.01889
4412.96926,0.01925
4411.04052,0.01970
4409.11177,0.01990
4407.18303,0.01953
4405.25428,0.01891
4403.32554,0.01865
4401.39679,0.01901
4399.46805,0.01961
4397.53930,0.01973
4395.61056,0.01934
4393.68181,0.01917
4391.75306,0.01947
4389.82432,0.01963
4387.89557,0.01936
4385.96683,0.01922
4384.03808,0.01937
4382.10934,0.01949
4380.18059,0.01973
4378.25185,0.02017
4376.32310,0.02012
4374.39436,0.01946
4372.46561,0.01900
4370.53687,0.01904
4368.60812,0.01941
4366.67938,0.01973
4364.75063,0.01952
4362.82189,0.01916
4360.89314,0.01933
4358.96439,0.01947
4357.03565,0.01906
4355.10690,0.01866
4353.17816,0.01858
4351.24941,0.01868
4349.32067,0.01889
4347.39192,0.01913
4345.46318,0.01952
4343.53443,0.01990
4341.60569,0.02016
4339.67694,0.02027
4337.74820,0.01995
4335.81945,0.01942
4333.89071,0.01906
4331.96196,0.01896
4330.03321,0.01912
4328.10447,0.01938
4326.17572,0.01945
4324.24698,0.01950
4322.31823,0.01974
4320.38949,0.02003
4318.46074,0.02018
4316.53200,0.01999
4314.60325,0.01938
4312.67451,0.01893
4310.74576,0.01919
4308.81702,0.01990
4306.88827,0.02029
4304.95953,0.01992
4303.03078,0.01917
4301.10204,0.01880
4299.17329,0.01912
4297.24454,0.01974
4295.31580,0.01997
4293.38705,0.01964
4291.45831,0.01923
4289.52956,0.01917
4287.60082,0.01926
4285.67207,0.01913
4283.74333,0.01897
4281.81458,0.01911
4279.88584,0.01928
4277.95709,0.01918
4276.02835,0.01911
4274.09960,0.01912
4272.17086,0.01920
4270.24211,0.01938
4268.31336,0.01934
4266.38462,0.01897
4264.45587,0.01877
4262.52713,0.01896
4260.59838,0.01925
4258.66964,0.01935
4256.74089,0.01945
4254.81215,0.01966
4252.88340,0.01961
4250.95466,0.01940
4249.02591,0.01931
4247.09717,0.01918
4245.16842,0.01915
4243.23968,0.01938
4241.31093,0.01968
4239.38219,0.02003
4237.45344,0.02012
4235.52469,0.01977
4233.59595,0.01942
4231.66720,0.01929
4229.73846,0.01938
4227.80971,0.01967
4225.88097,0.01993
4223.95222,0.02016
4222.02348,0.02036
4220.09473,0.02027
4218.16599,0.01991
4216.23724,0.01976
4214.30850,0.01989
4212.37975,0.01990
4210.45101,0.01974
4208.52226,0.01963
4206.59352,0.01976
4204.66477,0.02004
4202.73602,0.02007
4200.80728,0.01968
4198.87853,0.01923
4196.94979,0.01896
4195.02104,0.01872
4193.09230,0.01876
4191.16355,0.01932
4189.23481,0.01975
4187.30606,0.01963
4185.37732,0.01948
4183.44857,0.01970
4181.51983,0.01980
4179.59108,0.01937
4177.66234,0.01907
4175.73359,0.01941
4173.80484,0.01988
4171.87610,0.01991
4169.94735,0.01974
4168.01861,0.01966
4166.08986,0.01949
4164.16112,0.01921
4162.23237,0.01919
4160.30363,0.01948
4158.37488,0.01979
4156.44614,0.01999
4154.51739,0.02007
4152.58865,0.01984
4150.65990,0.01953
4148.73116,0.01939
4146.80241,0.01922
4144.87367,0.01895
4142.94492,0.01892
4141.01617,0.01927
4139.08743,0.01984
4137.15868,0.02023
4135.22994,0.02017
4133.30119,0.01995
4131.37245,0.01997
4129.44370,0.01998
4127.51496,0.01973
4125.58621,0.01959
4123.65747,0.01951
4121.72872,0.01934
4119.79998,0.01927
4117.87123,0.01916
4115.94249,0.01909
4114.01374,0.01931
4112.08500,0.01945
4110.15625,0.01940
4108.22750,0.01954
4106.29876,0.01989
4104.37001,0.02008
4102.44127,0.01999
4100.51252,0.01992
4098.58378,0.01990
4096.65503,0.01970
4094.72629,0.01950
4092.79754,0.01951
4090.86880,0.01973
4088.94005,0.02002
4087.01131,0.02010
4085.08256,0.01990
4083.15382,0.01960
4081.22507,0.01943
4079.29632,0.01957
4077.36758,0.01982
4075.43883,0.02000
4073.51009,0.02011
4071.58134,0.02003
4069.65260,0.01979
4067.72385,0.01969
4065.79511,0.01983
4063.86636,0.02004
4061.93762,0.02012
4060.00887,0.02008
4058.08013,0.02000
4056.15138,0.01978
4054.22264,0.01943
4052.29389,0.01959
4050.36515,0.02027
4048.43640,0.02061
4046.50765,0.02037
4044.57891,0.02010
4042.65016,0.02012
4040.72142,0.02004
4038.79267,0.01959
4036.86393,0.01928
4034.93518,0.01948
4033.00644,0.01981
4031.07769,0.01989
4029.14895,0.01985
4027.22020,0.01990
4025.29146,0.01995
4023.36271,0.01987
4021.43397,0.01980
4019.50522,0.01979
4017.57648,0.01967
4015.64773,0.01952
4013.71898,0.01952
4011.79024,0.01966
4009.86149,0.01989
4007.93275,0.01991
4006.00400,0.01956
4004.07526,0.01925
4002.14651,0.01939
4000.21777,0.01980
3998.28902,0.02011
3996.36028,0.02023
3994.43153,0.02017
3992.50279,0.01993
3990.57404,0.01981
3988.64530,0.01995
3986.71655,0.02003
3984.78780,0.01979
3982.85906,0.01965
3980.93031,0.01985
3979.00157,0.02001
3977.07282,0.01981
3975.14408,0.01934
3973.21533,0.01900
3971.28659,0.01899
3969.35784,0.01917
3967.42910,0.01933
3965.50035,0.01930
3963.57161,0.01921
3961.64286,0.01937
3959.71412,0.01939
3957.78537,0.01903
3955.85663,0.01892
3953.92788,0.01934
3951.99913,0.01975
3950.07039,0.01972
3948.14164,0.01949
3946.21290,0.01948
3944.28415,0.01965
3942.35541,0.01993
3940.42666,0.02005
3938.49792,0.01975
3936.56917,0.01957
3934.64043,0.01986
3932.71168,0.02019
3930.78294,0.02016
3928.85419,0.01994
3926.92545,0.01981
3924.99670,0.01969
3923.06795,0.01955
3921.13921,0.01952
3919.21046,0.01959
3917.28172,0.01973
3915.35297,0.01975
3913.42423,0.01944
3911.49548,0.01904
3909.56674,0.01902
3907.63799,0.01937
3905.70925,0.01964
3903.78050,0.01967
3901.85176,0.01978
3899.92301,0.02022
3897.99427,0.02047
3896.06552,0.02020
3894.13678,0.01992
3892.20803,0.01997
3890.27928,0.02014
3888.35054,0.02024
3886.42179,0.02031
3884.49305,0.02033
3882.56430,0.02020
3880.63556,0.01991
3878.70681,0.01974
3876.77807,0.01976
3874.84932,0.01968
3872.92058,0.01949
3870.99183,0.01960
3869.06309,0.01991
3867.13434,0.01998
3865.20560,0.01988
3863.27685,0.01974
3861.34811,0.01963
3859.41936,0.01970
3857.49061,0.01982
3855.56187,0.01960
3853.63312,0.01940
3851.70438,0.01970
3849.77563,0.01980
3847.84689,0.01954
3845.91814,0.01946
3843.98940,0.01955
3842.06065,0.01955
3840.13191,0.01962
3838.20316,0.01975
3836.27442,0.01966
3834.34567,0.01945
3832.41693,0.01932
3830.48818,0.01930
3828.55943,0.01928
3826.63069,0.01923
3824.70194,0.01939
3822.77320,0.01970
3820.84445,0.01987
3818.91571,0.01993
3816.98696,0.01989
3815.05822,0.01983
3813.12947,0.01989
3811.20073,0.01992
3809.27198,0.01981
3807.34324,0.01962
3805.41449,0.01953
3803.48575,0.01952
3801.55700,0.01939
3799.62826,0.01924
3797.69951,0.01915
3795.77076,0.01925
3793.84202,0.01964
3791.91327,0.01986
3789.98453,0.01968
3788.05578,0.01954
3786.12704,0.01967
3784.19829,0.01984
3782.26955,0.01993
3780.34080,0.01984
3778.41206,0.01960
3776.48331,0.01949
3774.55457,0.01961
3772.62582,0.01982
3770.69708,0.02015
3768.76833,0.02033
3766.83959,0.01999
3764.91084,0.01960
3762.98209,0.01967
3761.05335,0.01983
3759.12460,0.01967
3757.19586,0.01950
3755.26711,0.01964
3753.33837,0.01989
3751.40962,0.01993
3749.48088,0.01967
3747.55213,0.01937
3745.62339,0.01914
3743.69464,0.01901
3741.76590,0.01905
3739.83715,0.01913
3737.90841,0.01928
3735.97966,0.01957
3734.05091,0.01978
3732.12217,0.01983
3730.19342,0.01979
3728.26468,0.01953
3726.33593,0.01915
3724.40719,0.01892
3722.47844,0.01874
3720.54970,0.01853
3718.62095,0.01853
3716.69221,0.01885
3714.76346,0.01936
3712.83472,0.01980
3710.90597,0.01995
3708.97723,0.01993
3707.04848,0.01984
3705.11974,0.01958
3703.19099,0.01928
3701.26224,0.01933
3699.33350,0.01978
3697.40475,0.02010
3695.47601,0.01984
3693.54726,0.01921
3691.61852,0.01878
3689.68977,0.01892
3687.76103,0.01928
3685.83228,0.01938
3683.90354,0.01920
3681.97479,0.01890
3680.04605,0.01880
3678.11730,0.01900
3676.18856,0.01926
3674.25981,0.01939
3672.33107,0.01920
3670.40232,0.01878
3668.47357,0.01862
3666.54483,0.01869
3664.61608,0.01878
3662.68734,0.01903
3660.75859,0.01925
3658.82985,0.01918
3656.90110,0.01909
3654.97236,0.01929
3653.04361,0.01951
3651.11487,0.01944
3649.18612,0.01925
3647.25738,0.01919
3645.32863,0.01927
3643.39989,0.01933
3641.47114,0.01927
3639.54239,0.01931
3637.61365,0.01955
3635.68490,0.01980
3633.75616,0.01978
3631.82741,0.01941
3629.89867,0.01891
3627.96992,0.01870
3626.04118,0.01889
3624.11243,0.01899
3622.18369,0.01894
3620.25494,0.01892
3618.32620,0.01886
3616.39745,0.01877
3614.46871,0.01895
3612.53996,0.01926
3610.61122,0.01920
3608.68247,0.01890
3606.75372,0.01871
3604.82498,0.01868
3602.89623,0.01888
3600.96749,0.01913
3599.03874,0.01900
3597.11000,0.01839
3595.18125,0.01794
3593.25251,0.01816
3591.32376,0.01862
3589.39502,0.01868
3587.46627,0.01839
3585.53753,0.01819
3583.60878,0.01831
3581.68004,0.01858
3579.75129,0.01864
3577.82254,0.01834
3575.89380,0.01812
3573.96505,0.01826
3572.03631,0.01829
3570.10756,0.01801
3568.17882,0.01772
3566.25007,0.01750
3564.32133,0.01755
3562.39258,0.01811
3560.46384,0.01877
3558.53509,0.01892
3556.60635,0.01866
3554.67760,0.01844
3552.74886,0.01834
3550.82011,0.01839
3548.89137,0.01871
3546.96262,0.01893
3545.03387,0.01875
3543.10513,0.01846
3541.17638,0.01830
3539.24764,0.01828
3537.31889,0.01850
3535.39015,0.01886
3533.46140,0.01901
3531.53266,0.01867
3529.60391,0.01832
3527.67517,0.01834
3525.74642,0.01846
3523.81768,0.01863
3521.88893,0.01898
3519.96019,0.01897
3518.03144,0.01837
3516.10270,0.01783
3514.17395,0.01770
3512.24520,0.01768
3510.31646,0.01761
3508.38771,0.01766
3506.45897,0.01784
3504.53022,0.01805
3502.60148,0.01820
3500.67273,0.01833
3498.74399,0.01861
3496.81524,0.01868
3494.88650,0.01837
3492.95775,0.01803
3491.02901,0.01779
3489.10026,0.01756
3487.17152,0.01765
3485.24277,0.01810
3483.31402,0.01837
3481.38528,0.01820
3479.45653,0.01783
3477.52779,0.01756
3475.59904,0.01761
3473.67030,0.01776
3471.74155,0.01768
3469.81281,0.01758
3467.88406,0.01763
3465.95532,0.01758
3464.02657,0.01755
3462.09783,0.01772
3460.16908,0.01786
3458.24034,0.01782
3456.31159,0.01767
3454.38285,0.01763
3452.45410,0.01774
3450.52535,0.01793
3448.59661,0.01825
3446.66786,0.01837
3444.73912,0.01800
3442.81037,0.01762
3440.88163,0.01769
3438.95288,0.01795
3437.02414,0.01797
3435.09539,0.01770
3433.16665,0.01742
3431.23790,0.01748
3429.30916,0.01792
3427.38041,0.01832
3425.45167,0.01824
3423.52292,0.01785
3421.59418,0.01774
3419.66543,0.01787
3417.73668,0.01790
3415.80794,0.01782
3413.87919,0.01753
3411.95045,0.01698
3410.02170,0.01670
3408.09296,0.01689
3406.16421,0.01723
3404.23547,0.01743
3402.30672,0.01734
3400.37798,0.01724
3398.44923,0.01743
3396.52049,0.01764
3394.59174,0.01769
3392.66300,0.01789
3390.73425,0.01816
3388.80550,0.01799
3386.87676,0.01740
3384.94801,0.01698
3383.01927,0.01704
3381.09052,0.01727
3379.16178,0.01730
3377.23303,0.01715
3375.30429,0.01703
3373.37554,0.01702
3371.44680,0.01720
3369.51805,0.01739
3367.58931,0.01727
3365.66056,0.01709
3363.73182,0.01731
3361.80307,0.01776
3359.87433,0.01793
3357.94558,0.01776
3356.01683,0.01751
3354.08809,0.01733
3352.15934,0.01740
3350.23060,0.01768
3348.30185,0.01763
3346.37311,0.01716
3344.44436,0.01681
3342.51562,0.01690
3340.58687,0.01735
3338.65813,0.01775
3336.72938,0.01774
3334.80064,0.01751
3332.87189,0.01735
3330.94315,0.01727
3329.01440,0.01729
3327.08566,0.01742
3325.15691,0.01754
3323.22816,0.01757
3321.29942,0.01766
3319.37067,0.01787
3317.44193,0.01772
3315.51318,0.01714
3313.58444,0.01684
3311.65569,0.01708
3309.72695,0.01754
3307.79820,0.01775
3305.86946,0.01746
3303.94071,0.01718
3302.01197,0.01733
3300.08322,0.01749
3298.15448,0.01739
3296.22573,0.01732
3294.29698,0.01744
3292.36824,0.01766
3290.43949,0.01787
3288.51075,0.01793
3286.58200,0.01786
3284.65326,0.01782
3282.72451,0.01777
3280.79577,0.01758
3278.86702,0.01743
3276.93828,0.01749
3275.00953,0.01775
3273.08079,0.01799
3271.15204,0.01796
3269.22330,0.01779
3267.29455,0.01753
3265.36581,0.01714
3263.43706,0.01692
3261.50831,0.01717
3259.57957,0.01775
3257.65082,0.01824
3255.72208,0.01810
3253.79333,0.01751
3251.86459,0.01729
3249.93584,0.01759
3248.00710,0.01781
3246.07835,0.01776
3244.14961,0.01767
3242.22086,0.01767
3240.29212,0.01774
3238.36337,0.01774
3236.43463,0.01760
3234.50588,0.01742
3232.57713,0.01745
3230.64839,0.01768
3228.71964,0.01785
3226.79090,0.01796
3224.86215,0.01817
3222.93341,0.01847
3221.00466,0.01865
3219.07592,0.01836
3217.14717,0.01786
3215.21843,0.01767
3213.28968,0.01775
3211.36094,0.01778
3209.43219,0.01757
3207.50345,0.01721
3205.57470,0.01713
3203.64596,0.01753
3201.71721,0.01805
3199.78846,0.01834
3197.85972,0.01830
3195.93097,0.01802
3194.00223,0.01775
3192.07348,0.01776
3190.14474,0.01794
3188.21599,0.01808
3186.28725,0.01813
3184.35850,0.01803
3182.42976,0.01767
3180.50101,0.01718
3178.57227,0.01696
3176.64352,0.01712
3174.71478,0.01730
3172.78603,0.01739
3170.85729,0.01761
3168.92854,0.01788
3166.99979,0.01794
3165.07105,0.01774
3163.14230,0.01742
3161.21356,0.01738
3159.28481,0.01774
3157.35607,0.01810
3155.42732,0.01821
3153.49858,0.01818
3151.56983,0.01796
3149.64109,0.01749
3147.71234,0.01727
3145.78360,0.01747
3143.85485,0.01776
3141.92611,0.01800
3139.99736,0.01805
3138.06861,0.01802
3136.13987,0.01813
3134.21112,0.01819
3132.28238,0.01811
3130.35363,0.01823
3128.42489,0.01849
3126.49614,0.01840
3124.56740,0.01806
3122.63865,0.01799
3120.70991,0.01811
3118.78116,0.01812
3116.85242,0.01819
3114.92367,0.01837
3112.99493,0.01842
3111.06618,0.01837
3109.13744,0.01838
3107.20869,0.01831
3105.27994,0.01807
3103.35120,0.01785
3101.42245,0.01778
3099.49371,0.01794
3097.56496,0.01830
3095.63622,0.01849
3093.70747,0.01834
3091.77873,0.01818
3089.84998,0.01830
3087.92124,0.01840
3085.99249,0.01803
3084.06375,0.01748
3082.13500,0.01734
3080.20626,0.01766
3078.27751,0.01803
3076.34877,0.01816
3074.42002,0.01817
3072.49127,0.01828
3070.56253,0.01838
3068.63378,0.01824
3066.70504,0.01797
3064.77629,0.01786
3062.84755,0.01794
3060.91880,0.01806
3058.99006,0.01820
3057.06131,0.01829
3055.13257,0.01816
3053.20382,0.01788
3051.27508,0.01765
3049.34633,0.01759
3047.41759,0.01763
3045.48884,0.01766
3043.56009,0.01772
3041.63135,0.01782
3039.70260,0.01786
3037.77386,0.01786
3035.84511,0.01797
3033.91637,0.01816
3031.98762,0.01820
3030.05888,0.01809
3028.13013,0.01806
3026.20139,0.01819
3024.27264,0.01825
3022.34390,0.01816
3020.41515,0.01803
3018.48641,0.01791
3016.55766,0.01780
3014.62892,0.01767
3012.70017,0.01742
3010.77142,0.01727
3008.84268,0.01750
3006.91393,0.01781
3004.98519,0.01776
3003.05644,0.01746
3001.12770,0.01723
2999.19895,0.01723
2997.27021,0.01734
2995.34146,0.01720
2993.41272,0.01696
2991.48397,0.01700
2989.55523,0.01719
2987.62648,0.01737
2985.69774,0.01751
2983.76899,0.01744
2981.84025,0.01720
2979.91150,0.01710
2977.98275,0.01721
2976.05401,0.01722
2974.12526,0.01698
2972.19652,0.01674
2970.26777,0.01672
2968.33903,0.01679
2966.41028,0.01676
2964.48154,0.01671
2962.55279,0.01691
2960.62405,0.01717
2958.69530,0.01715
2956.76656,0.01695
2954.83781,0.01676
2952.90907,0.01660
2950.98032,0.01652
2949.05157,0.01651
2947.12283,0.01662
2945.19408,0.01675
2943.26534,0.01674
2941.33659,0.01676
2939.40785,0.01699
2937.47910,0.01714
2935.55036,0.01704
2933.62161,0.01685
2931.69287,0.01663
2929.76412,0.01658
2927.83538,0.01689
2925.90663,0.01724
2923.97789,0.01732
2922.04914,0.01726
2920.12040,0.01727
2918.19165,0.01733
2916.26290,0.01748
2914.33416,0.01766
2912.40541,0.01775
2910.47667,0.01758
2908.54792,0.01727
2906.61918,0.01726
2904.69043,0.01752
2902.76169,0.01757
2900.83294,0.01735
2898.90420,0.01722
2896.97545,0.01729
2895.04671,0.01742
2893.11796,0.01745
2891.18922,0.01737
2889.26047,0.01731
2887.33172,0.01730
2885.40298,0.01718
2883.47423,0.01703
2881.54549,0.01702
2879.61674,0.01701
2877.68800,0.01702
2875.75925,0.01729
2873.83051,0.01763
2871.90176,0.01769
2869.97302,0.01758
2868.04427,0.01749
2866.11553,0.01747
2864.18678,0.01752
2862.25804,0.01747
2860.32929,0.01740
2858.40055,0.01758
2856.47180,0.01793
2854.54305,0.01808
2852.61431,0.01796
2850.68556,0.01778
2848.75682,0.01781
2846.82807,0.01810
2844.89933,0.01838
2842.97058,0.01844
2841.04184,0.01841
2839.11309,0.01843
2837.18435,0.01851
2835.25560,0.01859
2833.32686,0.01859
2831.39811,0.01855
2829.46937,0.01853
2827.54062,0.01843
2825.61188,0.01829
2823.68313,0.01827
2821.75438,0.01829
2819.82564,0.01820
2817.89689,0.01816
2815.96815,0.01831
2814.03940,0.01848
2812.11066,0.01856
2810.18191,0.01857
2808.25317,0.01858
2806.32442,0.01860
2804.39568,0.01856
2802.46693,0.01847
2800.53819,0.01839
2798.60944,0.01841
2796.68070,0.01856
2794.75195,0.01868
2792.82320,0.01859
2790.89446,0.01842
2788.96571,0.01843
2787.03697,0.01849
2785.10822,0.01848
2783.17948,0.01841
2781.25073,0.01832
2779.32199,0.01844
2777.39324,0.01867
2775.46450,0.01862
2773.53575,0.01840
2771.60701,0.01823
2769.67826,0.01803
2767.74952,0.01794
2765.82077,0.01817
2763.89203,0.01842
2761.96328,0.01837
2760.03453,0.01822
2758.10579,0.01823
2756.17704,0.01818
2754.24830,0.01786
2752.31955,0.01767
2750.39081,0.01795
2748.46206,0.01832
2746.53332,0.01840
2744.60457,0.01827
2742.67583,0.01815
2740.74708,0.01805
2738.81834,0.01799
2736.88959,0.01801
2734.96085,0.01818
2733.03210,0.01840
2731.10336,0.01855
2729.17461,0.01861
2727.24586,0.01853
2725.31712,0.01838
2723.38837,0.01834
2721.45963,0.01835
2719.53088,0.01821
2717.60214,0.01797
2715.67339,0.01794
2713.74465,0.01812
2711.81590,0.01829
2709.88716,0.01844
2707.95841,0.01861
2706.02967,0.01871
2704.10092,0.01863
2702.17218,0.01824
2700.24343,0.01791
2698.31468,0.01806
2696.38594,0.01839
2694.45719,0.01838
2692.52845,0.01810
2690.59970,0.01790
2688.67096,0.01800
2686.74221,0.01829
2684.81347,0.01840
2682.88472,0.01828
2680.95598,0.01828
2679.02723,0.01840
2677.09849,0.01838
2675.16974,0.01815
2673.24100,0.01796
2671.31225,0.01806
2669.38351,0.01829
2667.45476,0.01838
2665.52601,0.01842
2663.59727,0.01844
2661.66852,0.01840
2659.73978,0.01839
2657.81103,0.01844
2655.88229,0.01843
2653.95354,0.01831
2652.02480,0.01828
2650.09605,0.01842
2648.16731,0.01863
2646.23856,0.01867
2644.30982,0.01849
2642.38107,0.01827
2640.45233,0.01823
2638.52358,0.01840
2636.59484,0.01852
2634.66609,0.01845
2632.73734,0.01834
2630.80860,0.01823
2628.87985,0.01818
2626.95111,0.01829
2625.02236,0.01844
2623.09362,0.01848
2621.16487,0.01852
2619.23613,0.01865
2617.30738,0.01872
2615.37864,0.01856
2613.44989,0.01839
2611.52115,0.01844
2609.59240,0.01851
2607.66366,0.01843
2605.73491,0.01841
2603.80616,0.01843
2601.87742,0.01827
2599.94867,0.01809
2598.01993,0.01807
2596.09118,0.01805
2594.16244,0.01790
2592.23369,0.01781
2590.30495,0.01791
2588.37620,0.01817
2586.44746,0.01840
2584.51871,0.01842
2582.58997,0.01835
2580.66122,0.01839
2578.73248,0.01838
2576.80373,0.01824
2574.87499,0.01811
2572.94624,0.01811
2571.01749,0.01821
2569.08875,0.01831
2567.16000,0.01834
2565.23126,0.01832
2563.30251,0.01824
2561.37377,0.01811
2559.44502,0.01811
2557.51628,0.01824
2555.58753,0.01829
2553.65879,0.01823
2551.73004,0.01821
2549.80130,0.01822
2547.87255,0.01818
2545.94381,0.01808
2544.01506,0.01804
2542.08631,0.01824
2540.15757,0.01855
2538.22882,0.01872
2536.30008,0.01879
2534.37133,0.01874
2532.44259,0.01852
2530.51384,0.01830
2528.58510,0.01819
2526.65635,0.01803
2524.72761,0.01793
2522.79886,0.01816
2520.87012,0.01853
2518.94137,0.01866
2517.01263,0.01860
2515.08388,0.01854
2513.15514,0.01851
2511.22639,0.01850
2509.29764,0.01840
2507.36890,0.01824
2505.44015,0.01827
2503.51141,0.01841
2501.58266,0.01839
2499.65392,0.01829
2497.72517,0.01833
2495.79643,0.01854
2493.86768,0.01869
2491.93894,0.01865
2490.01019,0.01848
2488.08145,0.01835
2486.15270,0.01839
2484.22396,0.01840
2482.29521,0.01831
2480.36647,0.01831
2478.43772,0.01847
2476.50897,0.01849
2474.58023,0.01817
2472.65148,0.01798
2470.72274,0.01827
2468.79399,0.01865
2466.86525,0.01882
2464.93650,0.01882
2463.00776,0.01857
2461.07901,0.01827
2459.15027,0.01824
2457.22152,0.01832
2455.29278,0.01833
2453.36403,0.01836
2451.43529,0.01851
2449.50654,0.01865
2447.57779,0.01863
2445.64905,0.01843
2443.72030,0.01829
2441.79156,0.01828
2439.86281,0.01835
2437.93407,0.01843
2436.00532,0.01843
2434.07658,0.01841
2432.14783,0.01847
2430.21909,0.01861
2428.29034,0.01866
2426.36160,0.01856
2424.43285,0.01853
2422.50411,0.01864
2420.57536,0.01858
2418.64662,0.01834
2416.71787,0.01822
2414.78912,0.01830
2412.86038,0.01837
2410.93163,0.01838
2409.00289,0.01835
2407.07414,0.01837
2405.14540,0.01845
2403.21665,0.01851
2401.28791,0.01849
2399.35916,0.01838
2397.43042,0.01821
2395.50167,0.01810
2393.57293,0.01817
2391.64418,0.01836
2389.71544,0.01841
2387.78669,0.01823
2385.85795,0.01814
2383.92920,0.01833
2382.00045,0.01851
2380.07171,0.01844
2378.14296,0.01835
2376.21422,0.01838
2374.28547,0.01839
2372.35673,0.01840
2370.42798,0.01846
2368.49924,0.01849
2366.57049,0.01838
2364.64175,0.01821
2362.71300,0.01814
2360.78426,0.01822
2358.85551,0.01841
2356.92677,0.01851
2354.99802,0.01846
2353.06927,0.01844
2351.14053,0.01856
2349.21178,0.01866
2347.28304,0.01866
2345.35429,0.01864
2343.42555,0.01861
2341.49680,0.01849
2339.56806,0.01840
2337.63931,0.01841
2335.71057,0.01838
2333.78182,0.01842
2331.85308,0.01854
2329.92433,0.01846
2327.99559,0.01824
2326.06684,0.01813
2324.13810,0.01818
2322.20935,0.01828
2320.28060,0.01830
2318.35186,0.01824
2316.42311,0.01815
2314.49437,0.01812
2312.56562,0.01825
2310.63688,0.01833
2308.70813,0.01832
2306.77939,0.01843
2304.85064,0.01853
2302.92190,0.01841
2300.99315,0.01828
2299.06441,0.01831
2297.13566,0.01836
2295.20692,0.01825
2293.27817,0.01815
2291.34943,0.01825
2289.42068,0.01841
2287.49193,0.01842
2285.56319,0.01821
2283.63444,0.01799
2281.70570,0.01804
2279.77695,0.01823
2277.84821,0.01831
2275.91946,0.01825
2273.99072,0.01818
2272.06197,0.01827
2270.13323,0.01850
2268.20448,0.01859
2266.27574,0.01845
2264.34699,0.01816
2262.41825,0.01789
2260.48950,0.01786
2258.56075,0.01804
2256.63201,0.01833
2254.70326,0.01860
2252.77452,0.01870
2250.84577,0.01867
2248.91703,0.01860
2246.98828,0.01842
2245.05954,0.01817
2243.13079,0.01806
2241.20205,0.01815
2239.27330,0.01833
2237.34456,0.01848
2235.41581,0.01847
2233.48707,0.01824
2231.55832,0.01797
2229.62958,0.01785
2227.70083,0.01792
2225.77208,0.01804
2223.84334,0.01805
2221.91459,0.01809
2219.98585,0.01821
2218.05710,0.01817
2216.12836,0.01798
2214.19961,0.01796
2212.27087,0.01817
2210.34212,0.01834
2208.41338,0.01833
2206.48463,0.01826
2204.55589,0.01824
2202.62714,0.01826
2200.69840,0.01833
2198.76965,0.01841
2196.84090,0.01838
2194.91216,0.01820
2192.98341,0.01806
2191.05467,0.01800
2189.12592,0.01786
2187.19718,0.01768
2185.26843,0.01776
2183.33969,0.01806
2181.41094,0.01825
2179.48220,0.01829
2177.55345,0.01832
2175.62471,0.01838
2173.69596,0.01846
2171.76722,0.01843
2169.83847,0.01827
2167.90973,0.01809
2165.98098,0.01794
2164.05223,0.01788
2162.12349,0.01797
2160.19474,0.01824
2158.26600,0.01847
2156.33725,0.01839
2154.40851,0.01818
2152.47976,0.01818
2150.55102,0.01831
2148.62227,0.01836
2146.69353,0.01828
2144.76478,0.01823
2142.83604,0.01822
2140.90729,0.01820
2138.97855,0.01821
2137.04980,0.01825
2135.12106,0.01831
2133.19231,0.01840
2131.26356,0.01839
2129.33482,0.01833
2127.40607,0.01833
2125.47733,0.01834
2123.54858,0.01821
2121.61984,0.01806
2119.69109,0.01804
2117.76235,0.01817
2115.83360,0.01827
2113.90486,0.01823
2111.97611,0.01818
2110.04737,0.01812
2108.11862,0.01806
2106.18988,0.01813
2104.26113,0.01824
2102.33238,0.01814
2100.40364,0.01795
2098.47489,0.01796
2096.54615,0.01805
2094.61740,0.01806
2092.68866,0.01810
2090.75991,0.01822
2088.83117,0.01823
2086.90242,0.01810
2084.97368,0.01796
2083.04493,0.01792
2081.11619,0.01793
2079.18744,0.01805
2077.25870,0.01826
2075.32995,0.01835
2073.40121,0.01827
2071.47246,0.01818
2069.54371,0.01811
2067.61497,0.01803
2065.68622,0.01794
2063.75748,0.01793
2061.82873,0.01808
2059.89999,0.01825
2057.97124,0.01826
2056.04250,0.01813
2054.11375,0.01800
2052.18501,0.01795
2050.25626,0.01789
2048.32752,0.01782
2046.39877,0.01777
2044.47003,0.01780
2042.54128,0.01790
2040.61254,0.01799
2038.68379,0.01809
2036.75504,0.01823
2034.82630,0.01829
2032.89755,0.01825
2030.96881,0.01817
2029.04006,0.01812
2027.11132,0.01818
2025.18257,0.01821
2023.25383,0.01801
2021.32508,0.01780
2019.39634,0.01781
2017.46759,0.01799
2015.53885,0.01814
2013.61010,0.01806
2011.68136,0.01782
2009.75261,0.01779
2007.82386,0.01791
2005.89512,0.01788
2003.96637,0.01775
2002.03763,0.01770
2000.10888,0.01780
1998.18014,0.01799
1996.25139,0.01814
1994.32265,0.01814
1992.39390,0.01807
1990.46516,0.01812
1988.53641,0.01823
1986.60767,0.01824
1984.67892,0.01815
1982.75018,0.01796
1980.82143,0.01777
1978.89269,0.01774
1976.96394,0.01782
1975.03519,0.01792
1973.10645,0.01800
1971.17770,0.01803
1969.24896,0.01796
1967.32021,0.01787
1965.39147,0.01788
1963.46272,0.01798
1961.53398,0.01801
1959.60523,0.01789
1957.67649,0.01777
1955.74774,0.01782
1953.81900,0.01793
1951.89025,0.01793
1949.96151,0.01785
1948.03276,0.01784
1946.10402,0.01799
1944.17527,0.01809
1942.24652,0.01798
1940.31778,0.01774
1938.38903,0.01757
1936.46029,0.01756
1934.53154,0.01761
1932.60280,0.01769
1930.67405,0.01787
1928.74531,0.01803
1926.81656,0.01811
1924.88782,0.01816
1922.95907,0.01822
1921.03033,0.01826
1919.10158,0.01823
1917.17284,0.01819
1915.24409,0.01815
1913.31534,0.01797
1911.38660,0.01772
1909.45785,0.01769
1907.52911,0.01784
1905.60036,0.01792
1903.67162,0.01793
1901.74287,0.01793
1899.81413,0.01782
1897.88538,0.01763
1895.95664,0.01767
1894.02789,0.01797
1892.09915,0.01818
1890.17040,0.01804
1888.24166,0.01781
1886.31291,0.01775
1884.38417,0.01769
1882.45542,0.01753
1880.52667,0.01748
1878.59793,0.01758
1876.66918,0.01771
1874.74044,0.01776
1872.81169,0.01772
1870.88295,0.01761
1868.95420,0.01747
1867.02546,0.01735
1865.09671,0.01734
1863.16797,0.01740
1861.23922,0.01739
1859.31048,0.01734
1857.38173,0.01738
1855.45299,0.01750
1853.52424,0.01749
1851.59549,0.01731
1849.66675,0.01718
1847.73800,0.01728
1845.80926,0.01746
1843.88051,0.01760
1841.95177,0.01762
1840.02302,0.01752
1838.09428,0.01740
1836.16553,0.01735
1834.23679,0.01730
1832.30804,0.01727
1830.37930,0.01737
1828.45055,0.01742
1826.52181,0.01729
1824.59306,0.01706
1822.66432,0.01682
1820.73557,0.01670
1818.80682,0.01677
1816.87808,0.01694
1814.94933,0.01710
1813.02059,0.01716
1811.09184,0.01705
1809.16310,0.01683
1807.23435,0.01674
1805.30561,0.01685
1803.37686,0.01706
1801.44812,0.01718
1799.51937,0.01711
1797.59063,0.01694
1795.66188,0.01682
1793.73314,0.01673
1791.80439,0.01661
1789.87565,0.01647
1787.94690,0.01639
1786.01815,0.01644
1784.08941,0.01648
1782.16066,0.01630
1780.23192,0.01602
1778.30317,0.01586
1776.37443,0.01583
1774.44568,0.01590
1772.51694,0.01593
1770.58819,0.01583
1768.65945,0.01563
1766.73070,0.01546
1764.80196,0.01540
1762.87321,0.01532
1760.94447,0.01510
1759.01572,0.01487
1757.08697,0.01470
1755.15823,0.01451
1753.22948,0.01436
1751.30074,0.01441
1749.37199,0.01461
1747.44325,0.01483
1745.51450,0.01517
1743.58576,0.01556
1741.65701,0.01579
1739.72827,0.01602
1737.79952,0.01644
1735.87078,0.01680
1733.94203,0.01679
1732.01329,0.01667
1730.08454,0.01692
1728.15580,0.01742
1726.22705,0.01775
1724.29830,0.01772
1722.36956,0.01768
1720.44081,0.01795
1718.51207,0.01813
1716.58332,0.01797
1714.65458,0.01779
1712.72583,0.01769
1710.79709,0.01758
1708.86834,0.01749
1706.93960,0.01742
1705.01085,0.01736
1703.08211,0.01729
1701.15336,0.01713
1699.22462,0.01689
1697.29587,0.01665
1695.36713,0.01640
1693.43838,0.01630
1691.50963,0.01635
1689.58089,0.01631
1687.65214,0.01613
1685.72340,0.01596
1683.79465,0.01587
1681.86591,0.01595
1679.93716,0.01613
1678.00842,0.01616
1676.07967,0.01601
1674.15093,0.01592
1672.22218,0.01596
1670.29344,0.01602
1668.36469,0.01607
1666.43595,0.01611
1664.50720,0.01604
1662.57845,0.01583
1660.64971,0.01557
1658.72096,0.01539
1656.79222,0.01538
1654.86347,0.01545
1652.93473,0.01539
1651.00598,0.01549
1649.07724,0.01586
1647.14849,0.01600
1645.21975,0.01580
1643.29100,0.01566
1641.36226,0.01560
1639.43351,0.01553
1637.50477,0.01553
1635.57602,0.01561
1633.64728,0.01569
1631.71853,0.01573
1629.78978,0.01583
1627.86104,0.01606
1625.93229,0.01632
1624.00355,0.01640
1622.07480,0.01627
1620.14606,0.01615
1618.21731,0.01605
1616.28857,0.01597
1614.35982,0.01607
1612.43108,0.01627
1610.50233,0.01628
1608.57359,0.01613
1606.64484,0.01615
1604.71610,0.01631
1602.78735,0.01633
1600.85861,0.01631
1598.92986,0.01638
1597.00111,0.01633
1595.07237,0.01616
1593.14362,0.01609
1591.21488,0.01611
1589.28613,0.01606
1587.35739,0.01589
1585.42864,0.01567
1583.49990,0.01549
1581.57115,0.01556
1579.64241,0.01584
1577.71366,0.01607
1575.78492,0.01609
1573.85617,0.01592
1571.92743,0.01564
1569.99868,0.01536
1568.06993,0.01513
1566.14119,0.01501
1564.21244,0.01512
1562.28370,0.01540
1560.35495,0.01553
1558.42621,0.01520
1556.49746,0.01490
1554.56872,0.01502
1552.63997,0.01533
1550.71123,0.01559
1548.78248,0.01576
1546.85374,0.01582
1544.92499,0.01575
1542.99625,0.01567
1541.06750,0.01563
1539.13876,0.01556
1537.21001,0.01567
1535.28126,0.01597
1533.35252,0.01620
1531.42377,0.01622
1529.49503,0.01612
1527.56628,0.01609
1525.63754,0.01615
1523.70879,0.01603
1521.78005,0.01564
1519.85130,0.01535
1517.92256,0.01542
1515.99381,0.01558
1514.06507,0.01558
1512.13632,0.01546
1510.20758,0.01555
1508.27883,0.01593
1506.35008,0.01612
1504.42134,0.01581
1502.49259,0.01549
1500.56385,0.01551
1498.63510,0.01576
1496.70636,0.01595
1494.77761,0.01604
1492.84887,0.01610
1490.92012,0.01599
1488.99138,0.01573
1487.06263,0.01576
1485.13389,0.01604
1483.20514,0.01602
1481.27640,0.01569
1479.34765,0.01553
1477.41891,0.01565
1475.49016,0.01572
1473.56141,0.01554
1471.63267,0.01528
1469.70392,0.01527
1467.77518,0.01544
1465.84643,0.01551
1463.91769,0.01554
1461.98894,0.01568
1460.06020,0.01574
1458.13145,0.01562
1456.20271,0.01552
1454.27396,0.01559
1452.34522,0.01585
1450.41647,0.01605
1448.48773,0.01586
1446.55898,0.01550
1444.63024,0.01546
1442.70149,0.01560
1440.77274,0.01555
1438.84400,0.01554
1436.91525,0.01577
1434.98651,0.01597
1433.05776,0.01598
1431.12902,0.01593
1429.20027,0.01581
1427.27153,0.01569
1425.34278,0.01560
1423.41404,0.01557
1421.48529,0.01571
1419.55655,0.01589
1417.62780,0.01582
1415.69906,0.01565
1413.77031,0.01558
1411.84156,0.01553
1409.91282,0.01542
1407.98407,0.01538
1406.05533,0.01539
1404.12658,0.01530
1402.19784,0.01522
1400.26909,0.01528
1398.34035,0.01545
1396.41160,0.01565
1394.48286,0.01581
1392.55411,0.01577
1390.62537,0.01558
1388.69662,0.01539
1386.76788,0.01526
1384.83913,0.01522
1382.91039,0.01531
1380.98164,0.01550
1379.05289,0.01567
1377.12415,0.01567
1375.19540,0.01551
1373.26666,0.01543
1371.33791,0.01545
1369.40917,0.01552
1367.48042,0.01554
1365.55168,0.01544
1363.62293,0.01537
1361.69419,0.01546
1359.76544,0.01547
1357.83670,0.01535
1355.90795,0.01528
1353.97921,0.01528
1352.05046,0.01530
1350.12172,0.01532
1348.19297,0.01528
1346.26422,0.01517
1344.33548,0.01502
1342.40673,0.01493
1340.47799,0.01486
1338.54924,0.01468
1336.62050,0.01458
1334.69175,0.01476
1332.76301,0.01492
1330.83426,0.01476
1328.90552,0.01449
1326.97677,0.01439
1325.04803,0.01434
1323.11928,0.01428
1321.19054,0.01428
1319.26179,0.01436
1317.33304,0.01450
1315.40430,0.01463
1313.47555,0.01460
1311.54681,0.01436
1309.61806,0.01405
1307.68932,0.01392
1305.76057,0.01409
1303.83183,0.01445
1301.90308,0.01475
1299.97434,0.01482
1298.04559,0.01467
1296.11685,0.01458
1294.18810,0.01476
1292.25936,0.01508
1290.33061,0.01529
1288.40187,0.01547
1286.47312,0.01572
1284.54437,0.01576
1282.61563,0.01556
1280.68688,0.01547
1278.75814,0.01559
1276.82939,0.01586
1274.90065,0.01619
1272.97190,0.01652
1271.04316,0.01679
1269.11441,0.01695
1267.18567,0.01698
1265.25692,0.01697
1263.32818,0.01692
1261.39943,0.01681
1259.47069,0.01675
1257.54194,0.01681
1255.61320,0.01688
1253.68445,0.01689
1251.75570,0.01702
1249.82696,0.01727
1247.89821,0.01739
1245.96947,0.01734
1244.04072,0.01732
1242.11198,0.01745
1240.18323,0.01741
1238.25449,0.01708
1236.32574,0.01673
1234.39700,0.01647
1232.46825,0.01631
1230.53951,0.01636
1228.61076,0.01644
1226.68202,0.01630
1224.75327,0.01618
1222.82452,0.01630
1220.89578,0.01639
1218.96703,0.01633
1217.03829,0.01609
1215.10954,0.01572
1213.18080,0.01548
1211.25205,0.01544
1209.32331,0.01539
1207.39456,0.01527
1205.46582,0.01515
1203.53707,0.01517
1201.60833,0.01547
1199.67958,0.01586
1197.75084,0.01609
1195.82209,0.01614
1193.89335,0.01595
1191.96460,0.01568
1190.03585,0.01545
1188.10711,0.01533
1186.17836,0.01539
1184.24962,0.01548
1182.32087,0.01536
1180.39213,0.01515
1178.46338,0.01492
1176.53464,0.01461
1174.60589,0.01445
1172.67715,0.01462
1170.74840,0.01489
1168.81966,0.01497
1166.89091,0.01484
1164.96217,0.01464
1163.03342,0.01452
1161.10467,0.01461
1159.17593,0.01476
1157.24718,0.01461
1155.31844,0.01430
1153.38969,0.01425
1151.46095,0.01442
1149.53220,0.01458
1147.60346,0.01469
1145.67471,0.01477
1143.74597,0.01484
1141.81722,0.01497
1139.88848,0.01522
1137.95973,0.01540
1136.03099,0.01518
1134.10224,0.01470
1132.17350,0.01449
1130.24475,0.01476
1128.31600,0.01506
1126.38726,0.01513
1124.45851,0.01518
1122.52977,0.01542
1120.60102,0.01577
1118.67228,0.01610
1116.74353,0.01631
1114.81479,0.01626
1112.88604,0.01609
1110.95730,0.01594
1109.02855,0.01581
1107.09981,0.01564
1105.17106,0.01541
1103.24232,0.01524
1101.31357,0.01518
1099.38483,0.01517
1097.45608,0.01526
1095.52733,0.01531
1093.59859,0.01511
1091.66984,0.01486
1089.74110,0.01471
1087.81235,0.01470
1085.88361,0.01488
1083.95486,0.01520
1082.02612,0.01551
1080.09737,0.01566
1078.16863,0.01584
1076.23988,0.01628
1074.31114,0.01676
1072.38239,0.01705
1070.45365,0.01720
1068.52490,0.01735
1066.59615,0.01746
1064.66741,0.01723
1062.73866,0.01669
1060.80992,0.01630
1058.88117,0.01613
1056.95243,0.01614
1055.02368,0.01638
1053.09494,0.01656
1051.16619,0.01651
1049.23745,0.01645
1047.30870,0.01655
1045.37996,0.01677
1043.45121,0.01692
1041.52247,0.01686
1039.59372,0.01683
1037.66498,0.01695
1035.73623,0.01697
1033.80748,0.01684
1031.87874,0.01666
1029.94999,0.01649
1028.02125,0.01633
1026.09250,0.01632
1024.16376,0.01658
1022.23501,0.01687
1020.30627,0.01699
1018.37752,0.01717
1016.44878,0.01741
1014.52003,0.01743
1012.59129,0.01733
1010.66254,0.01731
1008.73380,0.01737
1006.80505,0.01759
1004.87631,0.01797
1002.94756,0.01815
1001.01881,0.01807
999.09007,0.01802
997.16132,0.01813
995.23258,0.01832
993.30383,0.01843
991.37509,0.01841
989.44634,0.01830
987.51760,0.01804
985.58885,0.01774
983.66011,0.01750
981.73136,0.01724
979.80262,0.01706
977.87387,0.01709
975.94513,0.01715
974.01638,0.01713
972.08763,0.01712
970.15889,0.01715
968.23014,0.01721
966.30140,0.01726
964.37265,0.01728
962.44391,0.01720
960.51516,0.01700
958.58642,0.01694
956.65767,0.01709
954.72893,0.01721
952.80018,0.01730
950.87144,0.01736
948.94269,0.01719
947.01395,0.01693
945.08520,0.01685
943.15646,0.01677
941.22771,0.01647
939.29896,0.01612
937.37022,0.01596
935.44147,0.01603
933.51273,0.01611
931.58398,0.01607
929.65524,0.01604
927.72649,0.01614
925.79775,0.01634
923.86900,0.01650
921.94026,0.01657
920.01151,0.01669
918.08277,0.01677
916.15402,0.01656
914.22528,0.01620
912.29653,0.01601
910.36779,0.01610
908.43904,0.01641
906.51029,0.01663
904.58155,0.01653
902.65280,0.01618
900.72406,0.01587
898.79531,0.01580
896.86657,0.01579
894.93782,0.01581
893.00908,0.01600
891.08033,0.01632
889.15159,0.01643
887.22284,0.01596
885.29410,0.01546
883.36535,0.01568
881.43661,0.01620
879.50786,0.01642
877.57911,0.01654
875.65037,0.01673
873.72162,0.01665
871.79288,0.01619
869.86413,0.01575
867.93539,0.01557
866.00664,0.01565
864.07790,0.01586
862.14915,0.01600
860.22041,0.01602
858.29166,0.01613
856.36292,0.01654
854.43417,0.01704
852.50543,0.01716
850.57668,0.01680
848.64794,0.01633
846.71919,0.01601
844.79044,0.01578
842.86170,0.01576
840.93295,0.01585
839.00421,0.01576
837.07546,0.01570
835.14672,0.01590
833.21797,0.01631
831.28923,0.01679
829.36048,0.01694
827.43174,0.01655
825.50299,0.01608
823.57425,0.01607
821.64550,0.01640
819.71676,0.01652
817.78801,0.01612
815.85926,0.01556
813.93052,0.01538
812.00177,0.01567
810.07303,0.01594
808.14428,0.01585
806.21554,0.01557
804.28679,0.01555
802.35805,0.01594
800.42930,0.01624
798.50056,0.01629
796.57181,0.01659
794.64307,0.01691
792.71432,0.01667
790.78558,0.01635
788.85683,0.01626
786.92809,0.01581
784.99934,0.01518
783.07059,0.01515
781.14185,0.01566
779.21310,0.01607
777.28436,0.01616
775.35561,0.01607
773.42687,0.01579
771.49812,0.01567
769.56938,0.01576
767.64063,0.01523
765.71189,0.01438
763.78314,0.01431
761.85440,0.01504
759.92565,0.01584
757.99691,0.01612
756.06816,0.01575
754.13942,0.01514
752.21067,0.01483
750.28192,0.01507
748.35318,0.01538
746.42443,0.01519
744.49569,0.01488
742.56694,0.01509
740.63820,0.01568
738.70945,0.01630
736.78071,0.01678
734.85196,0.01674
732.92322,0.01595
730.99447,0.01516
729.06573,0.01511
727.13698,0.01530
725.20824,0.01517
723.27949,0.01503
721.35074,0.01529
719.42200,0.01580
717.49325,0.01602
715.56451,0.01560
713.63576,0.01489
711.70702,0.01445
709.77827,0.01440
707.84953,0.01471
705.92078,0.01507
703.99204,0.01493
702.06329,0.01454
700.13455,0.01433
698.20580,0.01424
696.27706,0.01413
694.34831,0.01401
692.41957,0.01391
690.49082,0.01393
688.56207,0.01432
686.63333,0.01488
684.70458,0.01516
682.77584,0.01536
680.84709,0.01549
678.91835,0.01485
676.98960,0.01359
675.06086,0.01294
673.13211,0.01334
671.20337,0.01390
669.27462,0.01390
667.34588,0.01362
665.41713,0.01341
663.48839,0.01339
661.55964,0.01386
659.63090,0.01474
657.70215,0.01520
655.77340,0.01496
653.84466,0.01461
651.91591,0.01446
649.98717,0.01403
648.05842,0.01343
646.12968,0.01341
644.20093,0.01388
642.27219,0.01376
640.34344,0.01316
638.41470,0.01323
636.48595,0.01372
634.55721,0.01376
632.62846,0.01340
630.69972,0.01331
628.77097,0.01382
626.84222,0.01389
624.91348,0.01355
622.98473,0.01395
621.05599,0.01434
619.12724,0.01330
617.19850,0.01161
615.26975,0.01098
613.34101,0.01200
611.41226,0.01334
609.48352,0.01410
607.55477,0.01463
605.62603,0.01495
603.69728,0.01427
601.76854,0.01248
599.83979,0.01130
