7497.03301,0.68504
7495.10426,0.67927
7493.17552,0.67749
7491.24677,0.67850
7489.31803,0.67837
7487.38928,0.67523
7485.46054,0.67321
7483.53179,0.67720
7481.60305,0.68275
7479.67430,0.68462
7477.74556,0.68320
7475.81681,0.67919
7473.88807,0.67476
7471.95932,0.67459
7470.03057,0.67924
7468.10183,0.68251
7466.17308,0.67984
7464.24434,0.67513
7462.31559,0.67398
7460.38685,0.67553
7458.45810,0.67655
7456.52936,0.67624
7454.60061,0.67533
7452.67187,0.67569
7450.74312,0.67797
7448.81438,0.67933
7446.88563,0.67651
7444.95689,0.67181
7443.02814,0.66941
7441.09940,0.66968
7439.17065,0.67189
7437.24190,0.67279
7435.31316,0.67235
7433.38441,0.67527
7431.45567,0.67706
7429.52692,0.67418
7427.59818,0.67448
7425.66943,0.68040
7423.74069,0.68465
7421.81194,0.68279
7419.88320,0.67762
7417.95445,0.67295
7416.02571,0.66962
7414.09696,0.66874
7412.16822,0.67165
7410.23947,0.67514
7408.31073,0.67394
7406.38198,0.66749
7404.45323,0.66149
7402.52449,0.66245
7400.59574,0.66711
7398.66700,0.66776
7396.73825,0.66530
7394.80951,0.66302
7392.88076,0.66120
7390.95202,0.66050
7389.02327,0.65967
7387.09453,0.65744
7385.16578,0.65794
7383.23704,0.66260
7381.30829,0.66332
7379.37955,0.65773
7377.45080,0.65503
7375.52205,0.65825
7373.59331,0.66114
7371.66456,0.66031
7369.73582,0.65748
7367.80707,0.65474
7365.87833,0.65199
7363.94958,0.64863
7362.02084,0.64841
7360.09209,0.65323
7358.16335,0.65752
7356.23460,0.65850
7354.30586,0.65828
7352.37711,0.65490
7350.44837,0.64780
7348.51962,0.64316
7346.59088,0.64276
7344.66213,0.64347
7342.73338,0.64670
7340.80464,0.65383
7338.87589,0.65915
7336.94715,0.65633
7335.01840,0.64919
7333.08966,0.64515
7331.16091,0.64456
7329.23217,0.64545
7327.30342,0.64698
7325.37468,0.64780
7323.44593,0.64741
7321.51719,0.64638
7319.58844,0.64524
7317.65970,0.64448
7315.73095,0.64571
7313.80221,0.64830
7311.87346,0.64775
7309.94471,0.64534
7308.01597,0.64634
7306.08722,0.64840
7304.15848,0.64915
7302.22973,0.65197
7300.30099,0.65583
7298.37224,0.65490
7296.44350,0.64842
7294.51475,0.64261
7292.58601,0.64107
7290.65726,0.64050
7288.72852,0.63826
7286.79977,0.63679
7284.87103,0.63876
7282.94228,0.64118
7281.01353,0.64202
7279.08479,0.64427
7277.15604,0.64545
7275.22730,0.64303
7273.29855,0.64236
7271.36981,0.64540
7269.44106,0.64712
7267.51232,0.64410
7265.58357,0.64033
7263.65483,0.64129
7261.72608,0.64365
7259.79734,0.64186
7257.86859,0.63782
7255.93985,0.63663
7254.01110,0.64006
7252.08236,0.64444
7250.15361,0.64528
7248.22486,0.64373
7246.29612,0.64286
7244.36737,0.64284
7242.43863,0.64377
7240.50988,0.64540
7238.58114,0.64493
7236.65239,0.64141
7234.72365,0.63698
7232.79490,0.63428
7230.86616,0.63557
7228.93741,0.63922
7227.00867,0.64180
7225.07992,0.64193
7223.15118,0.63970
7221.22243,0.63838
7219.29369,0.63994
7217.36494,0.64163
7215.43619,0.64158
7213.50745,0.63954
7211.57870,0.63707
7209.64996,0.63670
7207.72121,0.63790
7205.79247,0.63965
7203.86372,0.64115
7201.93498,0.63931
7200.00623,0.63521
7198.07749,0.63455
7196.14874,0.63693
7194.22000,0.63761
7192.29125,0.63518
7190.36251,0.63109
7188.43376,0.62941
7186.50501,0.63165
7184.57627,0.63359
7182.64752,0.63408
7180.71878,0.63544
7178.79003,0.63803
7176.86129,0.64118
7174.93254,0.64238
7173.00380,0.63964
7171.07505,0.63622
7169.14631,0.63467
7167.21756,0.63354
7165.28882,0.63332
7163.36007,0.63445
7161.43133,0.63471
7159.50258,0.63332
7157.57384,0.63158
7155.64509,0.63019
7153.71634,0.62808
7151.78760,0.62599
7149.85885,0.62712
7147.93011,0.63138
7146.00136,0.63516
7144.07262,0.63571
7142.14387,0.63363
7140.21513,0.63212
7138.28638,0.63187
7136.35764,0.63007
7134.42889,0.62631
7132.50015,0.62498
7130.57140,0.62870
7128.64266,0.63260
7126.71391,0.63080
7124.78516,0.62490
7122.85642,0.62006
7120.92767,0.61840
7118.99893,0.61894
7117.07018,0.61949
7115.14144,0.61868
7113.21269,0.61638
7111.28395,0.61386
7109.35520,0.61401
7107.42646,0.61618
7105.49771,0.61570
7103.56897,0.61283
7101.64022,0.61081
7099.71148,0.60857
7097.78273,0.60567
7095.85399,0.60578
7093.92524,0.60883
7091.99649,0.60903
7090.06775,0.60545
7088.13900,0.60389
7086.21026,0.60576
7084.28151,0.60523
7082.35277,0.59931
7080.42402,0.59344
7078.49528,0.59483
7076.56653,0.60233
7074.63779,0.60624
7072.70904,0.60221
7070.78030,0.59640
7068.85155,0.59350
7066.92281,0.59368
7064.99406,0.59538
7063.06532,0.59590
7061.13657,0.59444
7059.20782,0.59233
7057.27908,0.59155
7055.35033,0.59068
7053.42159,0.58760
7051.49284,0.58561
7049.56410,0.58557
7047.63535,0.58526
7045.70661,0.58592
7043.77786,0.58746
7041.84912,0.58678
7039.92037,0.58292
7037.99163,0.57952
7036.06288,0.57984
7034.13414,0.58078
7032.20539,0.57876
7030.27664,0.57619
7028.34790,0.57463
7026.41915,0.57224
7024.49041,0.57044
7022.56166,0.57159
7020.63292,0.57344
7018.70417,0.57316
7016.77543,0.57151
7014.84668,0.57058
7012.91794,0.57168
7010.98919,0.57381
7009.06045,0.57316
7007.13170,0.56786
7005.20296,0.56197
7003.27421,0.56075
7001.34547,0.56270
6999.41672,0.56197
6997.48797,0.55891
6995.55923,0.55851
6993.63048,0.56139
6991.70174,0.56456
6989.77299,0.56528
6987.84425,0.56373
6985.91550,0.56257
6983.98676,0.56180
6982.05801,0.55921
6980.12927,0.55535
6978.20052,0.55343
6976.27178,0.55469
6974.34303,0.55658
6972.41429,0.55721
6970.48554,0.55685
6968.55680,0.55629
6966.62805,0.55694
6964.69930,0.55743
6962.77056,0.55506
6960.84181,0.55181
6958.91307,0.55050
6956.98432,0.55070
6955.05558,0.55151
6953.12683,0.55213
6951.19809,0.55234
6949.26934,0.55276
6947.34060,0.55245
6945.41185,0.55127
6943.48311,0.55115
6941.55436,0.54988
6939.62562,0.54445
6937.69687,0.53955
6935.76812,0.53994
6933.83938,0.54272
6931.91063,0.54421
6929.98189,0.54442
6928.05314,0.54427
6926.12440,0.54336
6924.19565,0.54158
6922.26691,0.54105
6920.33816,0.54308
6918.40942,0.54587
6916.48067,0.54801
6914.55193,0.54903
6912.62318,0.54813
6910.69444,0.54617
6908.76569,0.54417
6906.83695,0.54251
6904.90820,0.54196
6902.97945,0.54238
6901.05071,0.54437
6899.12196,0.54694
6897.19322,0.54549
6895.26447,0.54048
6893.33573,0.53799
6891.40698,0.53994
6889.47824,0.54350
6887.54949,0.54637
6885.62075,0.54707
6883.69200,0.54558
6881.76326,0.54315
6879.83451,0.54021
6877.90577,0.53859
6875.97702,0.53960
6874.04828,0.54047
6872.11953,0.53929
6870.19078,0.53849
6868.26204,0.54061
6866.33329,0.54326
6864.40455,0.54219
6862.47580,0.53828
6860.54706,0.53608
6858.61831,0.53617
6856.68957,0.53450
6854.76082,0.53145
6852.83208,0.53219
6850.90333,0.53523
6848.97459,0.53521
6847.04584,0.53378
6845.11710,0.53458
6843.18835,0.53667
6841.25960,0.53762
6839.33086,0.53563
6837.40211,0.53198
6835.47337,0.53038
6833.54462,0.53046
6831.61588,0.52928
6829.68713,0.52760
6827.75839,0.52765
6825.82964,0.52948
6823.90090,0.53102
6821.97215,0.52922
6820.04341,0.52511
6818.11466,0.52418
6816.18592,0.52821
6814.25717,0.53238
6812.32843,0.53247
6810.39968,0.53028
6808.47093,0.52832
6806.54219,0.52625
6804.61344,0.52568
6802.68470,0.52760
6800.75595,0.52986
6798.82721,0.53106
6796.89846,0.53029
6794.96972,0.52795
6793.04097,0.52567
6791.11223,0.52476
6789.18348,0.52669
6787.25474,0.52846
6785.32599,0.52657
6783.39725,0.52343
6781.46850,0.52040
6779.53975,0.51752
6777.61101,0.51653
6775.68226,0.51720
6773.75352,0.51807
6771.82477,0.51812
6769.89603,0.51841
6767.96728,0.52075
6766.03854,0.52316
6764.10979,0.52276
6762.18105,0.52014
6760.25230,0.51777
6758.32356,0.51705
6756.39481,0.51679
6754.46607,0.51600
6752.53732,0.51609
6750.60858,0.51763
6748.67983,0.51887
6746.75108,0.51895
6744.82234,0.51829
6742.89359,0.51697
6740.96485,0.51508
6739.03610,0.51439
6737.10736,0.51603
6735.17861,0.51658
6733.24987,0.51474
6731.32112,0.51432
6729.39238,0.51501
6727.46363,0.51511
6725.53489,0.51560
6723.60614,0.51536
6721.67740,0.51448
6719.74865,0.51498
6717.81991,0.51674
6715.89116,0.51812
6713.96241,0.51744
6712.03367,0.51531
6710.10492,0.51409
6708.17618,0.51472
6706.24743,0.51637
6704.31869,0.51728
6702.38994,0.51663
6700.46120,0.51675
6698.53245,0.51868
6696.60371,0.51943
6694.67496,0.51865
6692.74622,0.51795
6690.81747,0.51684
6688.88873,0.51662
6686.95998,0.51825
6685.03123,0.51946
6683.10249,0.51992
6681.17374,0.52180
6679.24500,0.52391
6677.31625,0.52235
6675.38751,0.51778
6673.45876,0.51489
6671.53002,0.51459
6669.60127,0.51401
6667.67253,0.51289
6665.74378,0.51330
6663.81504,0.51540
6661.88629,0.51746
6659.95755,0.51896
6658.02880,0.52086
6656.10006,0.52214
6654.17131,0.52094
6652.24256,0.51854
6650.31382,0.51770
6648.38507,0.51904
6646.45633,0.52118
6644.52758,0.52319
6642.59884,0.52534
6640.67009,0.52682
6638.74135,0.52582
6636.81260,0.52344
6634.88386,0.52264
6632.95511,0.52405
6631.02637,0.52656
6629.09762,0.52858
6627.16888,0.52863
6625.24013,0.52723
6623.31139,0.52639
6621.38264,0.52608
6619.45389,0.52470
6617.52515,0.52302
6615.59640,0.52369
6613.66766,0.52697
6611.73891,0.52978
6609.81017,0.52889
6607.88142,0.52494
6605.95268,0.52185
6604.02393,0.52180
6602.09519,0.52403
6600.16644,0.52800
6598.23770,0.53181
6596.30895,0.53282
6594.38021,0.53171
6592.45146,0.53009
6590.52271,0.52860
6588.59397,0.52740
6586.66522,0.52570
6584.73648,0.52432
6582.80773,0.52516
6580.87899,0.52732
6578.95024,0.52876
6577.02150,0.52979
6575.09275,0.53058
6573.16401,0.53020
6571.23526,0.53015
6569.30652,0.53139
6567.37777,0.53155
6565.44903,0.53024
6563.52028,0.52979
6561.59154,0.53057
6559.66279,0.53128
6557.73404,0.53075
6555.80530,0.52952
6553.87655,0.52985
6551.94781,0.53150
6550.01906,0.53201
6548.09032,0.53102
6546.16157,0.53043
6544.23283,0.53172
6542.30408,0.53374
6540.37534,0.53408
6538.44659,0.53316
6536.51785,0.53293
6534.58910,0.53232
6532.66036,0.53080
6530.73161,0.53095
6528.80287,0.53292
6526.87412,0.53355
6524.94537,0.53082
6523.01663,0.52754
6521.08788,0.52790
6519.15914,0.53057
6517.23039,0.53207
6515.30165,0.53210
6513.37290,0.53137
6511.44416,0.53060
6509.51541,0.53115
6507.58667,0.53231
6505.65792,0.53236
6503.72918,0.53174
6501.80043,0.53114
6499.87169,0.53054
6497.94294,0.52994
6496.01419,0.52922
6494.08545,0.52857
6492.15670,0.52787
6490.22796,0.52741
6488.29921,0.52736
6486.37047,0.52700
6484.44172,0.52699
6482.51298,0.52829
6480.58423,0.52963
6478.65549,0.52974
6476.72674,0.52906
6474.79800,0.52902
6472.86925,0.53045
6470.94051,0.53151
6469.01176,0.53153
6467.08302,0.53275
6465.15427,0.53461
6463.22552,0.53491
6461.29678,0.53417
6459.36803,0.53307
6457.43929,0.53155
6455.51054,0.53011
6453.58180,0.52895
6451.65305,0.52906
6449.72431,0.53083
6447.79556,0.53214
6445.86682,0.53221
6443.93807,0.53146
6442.00933,0.53061
6440.08058,0.53167
6438.15184,0.53311
6436.22309,0.53250
6434.29434,0.53210
6432.36560,0.53347
6430.43685,0.53419
6428.50811,0.53335
6426.57936,0.53317
6424.65062,0.53331
6422.72187,0.53213
6420.79313,0.53108
6418.86438,0.53165
6416.93564,0.53317
6415.00689,0.53435
6413.07815,0.53406
6411.14940,0.53291
6409.22066,0.53338
6407.29191,0.53627
6405.36317,0.53908
6403.43442,0.53989
6401.50567,0.53898
6399.57693,0.53668
6397.64818,0.53450
6395.71944,0.53478
6393.79069,0.53612
6391.86195,0.53617
6389.93320,0.53640
6388.00446,0.53712
6386.07571,0.53623
6384.14697,0.53465
6382.21822,0.53440
6380.28948,0.53491
6378.36073,0.53541
6376.43199,0.53584
6374.50324,0.53590
6372.57450,0.53610
6370.64575,0.53559
6368.71700,0.53372
6366.78826,0.53351
6364.85951,0.53569
6362.93077,0.53682
6361.00202,0.53600
6359.07328,0.53503
6357.14453,0.53508
6355.21579,0.53628
6353.28704,0.53764
6351.35830,0.53759
6349.42955,0.53677
6347.50081,0.53726
6345.57206,0.53916
6343.64332,0.54050
6341.71457,0.53998
6339.78582,0.53794
6337.85708,0.53566
6335.92833,0.53551
6333.99959,0.53745
6332.07084,0.53879
6330.14210,0.53940
6328.21335,0.53958
6326.28461,0.53905
6324.35586,0.53937
6322.42712,0.54057
6320.49837,0.54144
6318.56963,0.54221
6316.64088,0.54214
6314.71214,0.54050
6312.78339,0.53880
6310.85465,0.53779
6308.92590,0.53712
6306.99715,0.53757
6305.06841,0.53830
6303.13966,0.53718
6301.21092,0.53542
6299.28217,0.53543
6297.35343,0.53679
6295.42468,0.53798
6293.49594,0.53794
6291.56719,0.53753
6289.63845,0.53912
6287.70970,0.54249
6285.78096,0.54574
6283.85221,0.54720
6281.92347,0.54541
6279.99472,0.54255
6278.06598,0.54216
6276.13723,0.54388
6274.20848,0.54485
6272.27974,0.54452
6270.35099,0.54531
6268.42225,0.54744
6266.49350,0.54857
6264.56476,0.54858
6262.63601,0.54895
6260.70727,0.54937
6258.77852,0.54885
6256.84978,0.54848
6254.92103,0.54887
6252.99229,0.54850
6251.06354,0.54835
6249.13480,0.55029
6247.20605,0.55261
6245.27730,0.55375
6243.34856,0.55408
6241.41981,0.55323
6239.49107,0.55207
6237.56232,0.55299
6235.63358,0.55542
6233.70483,0.55682
6231.77609,0.55690
6229.84734,0.55654
6227.91860,0.55583
6225.98985,0.55566
6224.06111,0.55741
6222.13236,0.55972
6220.20362,0.55966
6218.27487,0.55814
6216.34613,0.55820
6214.41738,0.55901
6212.48863,0.55860
6210.55989,0.55852
6208.63114,0.56063
6206.70240,0.56350
6204.77365,0.56456
6202.84491,0.56334
6200.91616,0.56132
6198.98742,0.56051
6197.05867,0.56125
6195.12993,0.56211
6193.20118,0.56301
6191.27244,0.56417
6189.34369,0.56492
6187.41495,0.56545
6185.48620,0.56614
6183.55746,0.56711
6181.62871,0.56836
6179.69996,0.56965
6177.77122,0.57094
6175.84247,0.57166
6173.91373,0.57154
6171.98498,0.57079
6170.05624,0.56909
6168.12749,0.56764
6166.19875,0.56837
6164.27000,0.57036
6162.34126,0.57150
6160.41251,0.57229
6158.48377,0.57415
6156.55502,0.57613
6154.62628,0.57676
6152.69753,0.57671
6150.76878,0.57714
6148.84004,0.57806
6146.91129,0.57780
6144.98255,0.57549
6143.05380,0.57372
6141.12506,0.57418
6139.19631,0.57538
6137.26757,0.57642
6135.33882,0.57762
6133.41008,0.57848
6131.48133,0.57879
6129.55259,0.57895
6127.62384,0.57854
6125.69510,0.57827
6123.76635,0.57930
6121.83761,0.57986
6119.90886,0.57868
6117.98011,0.57791
6116.05137,0.57882
6114.12262,0.58050
6112.19388,0.58170
6110.26513,0.58012
6108.33639,0.57644
6106.40764,0.57523
6104.47890,0.57690
6102.55015,0.57812
6100.62141,0.57758
6098.69266,0.57612
6096.76392,0.57446
6094.83517,0.57220
6092.90643,0.57000
6090.97768,0.56879
6089.04893,0.56831
6087.12019,0.56890
6085.19144,0.56995
6083.26270,0.56989
6081.33395,0.56893
6079.40521,0.56820
6077.47646,0.56799
6075.54772,0.56736
6073.61897,0.56625
6071.69023,0.56631
6069.76148,0.56747
6067.83274,0.56786
6065.90399,0.56709
6063.97525,0.56621
6062.04650,0.56505
6060.11776,0.56238
6058.18901,0.55907
6056.26026,0.55724
6054.33152,0.55670
6052.40277,0.55610
6050.47403,0.55529
6048.54528,0.55420
6046.61654,0.55262
6044.68779,0.55155
6042.75905,0.55114
6040.83030,0.55017
6038.90156,0.54917
6036.97281,0.54949
6035.04407,0.55026
6033.11532,0.54997
6031.18658,0.54852
6029.25783,0.54636
6027.32909,0.54419
6025.40034,0.54275
6023.47159,0.54183
6021.54285,0.54095
6019.61410,0.54044
6017.68536,0.54084
6015.75661,0.54191
6013.82787,0.54318
6011.89912,0.54487
6009.97038,0.54690
6008.04163,0.54827
6006.11289,0.54937
6004.18414,0.55170
6002.25540,0.55435
6000.32665,0.55617
5998.39791,0.55752
5996.46916,0.55801
5994.54041,0.55862
5992.61167,0.56076
5990.68292,0.56324
5988.75418,0.56476
5986.82543,0.56503
5984.89669,0.56453
5982.96794,0.56464
5981.03920,0.56562
5979.11045,0.56677
5977.18171,0.56815
5975.25296,0.56893
5973.32422,0.56802
5971.39547,0.56719
5969.46673,0.56802
5967.53798,0.56945
5965.60924,0.57038
5963.68049,0.57119
5961.75174,0.57265
5959.82300,0.57425
5957.89425,0.57537
5955.96551,0.57589
5954.03676,0.57543
5952.10802,0.57482
5950.17927,0.57465
5948.25053,0.57407
5946.32178,0.57354
5944.39304,0.57383
5942.46429,0.57421
5940.53555,0.57380
5938.60680,0.57320
5936.67806,0.57332
5934.74931,0.57399
5932.82057,0.57542
5930.89182,0.57709
5928.96307,0.57776
5927.03433,0.57867
5925.10558,0.58011
5923.17684,0.58009
5921.24809,0.57928
5919.31935,0.57923
5917.39060,0.57973
5915.46186,0.58073
5913.53311,0.58198
5911.60437,0.58251
5909.67562,0.58218
5907.74688,0.58190
5905.81813,0.58268
5903.88939,0.58379
5901.96064,0.58371
5900.03189,0.58291
5898.10315,0.58206
5896.17440,0.58040
5894.24566,0.57887
5892.31691,0.57908
5890.38817,0.58003
5888.45942,0.58000
5886.53068,0.57873
5884.60193,0.57669
5882.67319,0.57432
5880.74444,0.57208
5878.81570,0.57091
5876.88695,0.57104
5874.95821,0.57128
5873.02946,0.57059
5871.10072,0.56938
5869.17197,0.56921
5867.24322,0.57001
5865.31448,0.57011
5863.38573,0.56984
5861.45699,0.56970
5859.52824,0.56874
5857.59950,0.56753
5855.67075,0.56741
5853.74201,0.56846
5851.81326,0.57002
5849.88452,0.57110
5847.95577,0.57117
5846.02703,0.57062
5844.09828,0.57020
5842.16954,0.57046
5840.24079,0.57125
5838.31205,0.57173
5836.38330,0.57130
5834.45455,0.57012
5832.52581,0.56914
5830.59706,0.56899
5828.66832,0.56879
5826.73957,0.56793
5824.81083,0.56728
5822.88208,0.56753
5820.95334,0.56855
5819.02459,0.56977
5817.09585,0.57077
5815.16710,0.57101
5813.23836,0.57010
5811.30961,0.56874
5809.38087,0.56815
5807.45212,0.56807
5805.52337,0.56751
5803.59463,0.56734
5801.66588,0.56774
5799.73714,0.56707
5797.80839,0.56582
5795.87965,0.56509
5793.95090,0.56463
5792.02216,0.56495
5790.09341,0.56580
5788.16467,0.56597
5786.23592,0.56587
5784.30718,0.56617
5782.37843,0.56665
5780.44969,0.56690
5778.52094,0.56627
5776.59220,0.56509
5774.66345,0.56480
5772.73470,0.56541
5770.80596,0.56566
5768.87721,0.56532
5766.94847,0.56521
5765.01972,0.56557
5763.09098,0.56560
5761.16223,0.56540
5759.23349,0.56635
5757.30474,0.56740
5755.37600,0.56687
5753.44725,0.56650
5751.51851,0.56742
5749.58976,0.56788
5747.66102,0.56736
5745.73227,0.56742
5743.80352,0.56884
5741.87478,0.57074
5739.94603,0.57191
5738.01729,0.57207
5736.08854,0.57175
5734.15980,0.57108
5732.23105,0.57000
5730.30231,0.56927
5728.37356,0.56976
5726.44482,0.57082
5724.51607,0.57106
5722.58733,0.57083
5720.65858,0.57096
5718.72984,0.57092
5716.80109,0.57091
5714.87235,0.57159
5712.94360,0.57224
5711.01485,0.57260
5709.08611,0.57311
5707.15736,0.57254
5705.22862,0.57067
5703.29987,0.56999
5701.37113,0.57147
5699.44238,0.57302
5697.51364,0.57300
5695.58489,0.57218
5693.65615,0.57146
5691.72740,0.57112
5689.79866,0.57165
5687.86991,0.57204
5685.94117,0.57149
5684.01242,0.57067
5682.08368,0.56955
5680.15493,0.56886
5678.22618,0.56978
5676.29744,0.57135
5674.36869,0.57228
5672.43995,0.57199
5670.51120,0.57024
5668.58246,0.56841
5666.65371,0.56824
5664.72497,0.56897
5662.79622,0.56914
5660.86748,0.56909
5658.93873,0.56929
5657.00999,0.56975
5655.08124,0.57090
5653.15250,0.57213
5651.22375,0.57260
5649.29500,0.57252
5647.36626,0.57191
5645.43751,0.57098
5643.50877,0.57056
5641.58002,0.57125
5639.65128,0.57271
5637.72253,0.57377
5635.79379,0.57349
5633.86504,0.57235
5631.93630,0.57191
5630.00755,0.57286
5628.07881,0.57409
5626.15006,0.57436
5624.22132,0.57374
5622.29257,0.57296
5620.36383,0.57276
5618.43508,0.57348
5616.50633,0.57471
5614.57759,0.57536
5612.64884,0.57522
5610.72010,0.57460
5608.79135,0.57329
5606.86261,0.57248
5604.93386,0.57344
5603.00512,0.57432
5601.07637,0.57387
5599.14763,0.57355
5597.21888,0.57409
5595.29014,0.57454
5593.36139,0.57412
5591.43265,0.57344
5589.50390,0.57310
5587.57516,0.57274
5585.64641,0.57276
5583.71766,0.57345
5581.78892,0.57392
5579.86017,0.57401
5577.93143,0.57417
5576.00268,0.57401
5574.07394,0.57334
5572.14519,0.57285
5570.21645,0.57287
5568.28770,0.57335
5566.35896,0.57390
5564.43021,0.57387
5562.50147,0.57296
5560.57272,0.57188
5558.64398,0.57210
5556.71523,0.57332
5554.78648,0.57356
5552.85774,0.57282
5550.92899,0.57284
5549.00025,0.57360
5547.07150,0.57377
5545.14276,0.57365
5543.21401,0.57349
5541.28527,0.57251
5539.35652,0.57138
5537.42778,0.57117
5535.49903,0.57165
5533.57029,0.57253
5531.64154,0.57323
5529.71280,0.57323
5527.78405,0.57285
5525.85531,0.57261
5523.92656,0.57283
5521.99781,0.57324
5520.06907,0.57319
5518.14032,0.57313
5516.21158,0.57333
5514.28283,0.57352
5512.35409,0.57440
5510.42534,0.57534
5508.49660,0.57504
5506.56785,0.57445
5504.63911,0.57454
5502.71036,0.57499
5500.78162,0.57550
5498.85287,0.57573
5496.92413,0.57554
5494.99538,0.57503
5493.06664,0.57442
5491.13789,0.57387
5489.20914,0.57304
5487.28040,0.57237
5485.35165,0.57299
5483.42291,0.57451
5481.49416,0.57537
5479.56542,0.57509
5477.63667,0.57498
5475.70793,0.57581
5473.77918,0.57649
5471.85044,0.57652
5469.92169,0.57681
5467.99295,0.57707
5466.06420,0.57628
5464.13546,0.57480
5462.20671,0.57394
5460.27796,0.57452
5458.34922,0.57608
5456.42047,0.57719
5454.49173,0.57718
5452.56298,0.57718
5450.63424,0.57823
5448.70549,0.57963
5446.77675,0.58049
5444.84800,0.58078
5442.91926,0.58062
5440.99051,0.58021
5439.06177,0.57999
5437.13302,0.58019
5435.20428,0.58068
5433.27553,0.58161
5431.34679,0.58285
5429.41804,0.58355
5427.48929,0.58352
5425.56055,0.58332
5423.63180,0.58348
5421.70306,0.58432
5419.77431,0.58535
5417.84557,0.58559
5415.91682,0.58502
5413.98808,0.58485
5412.05933,0.58579
5410.13059,0.58739
5408.20184,0.58873
5406.27310,0.58909
5404.34435,0.58843
5402.41561,0.58756
5400.48686,0.58763
5398.55811,0.58852
5396.62937,0.58918
5394.70062,0.58931
5392.77188,0.58880
5390.84313,0.58818
5388.91439,0.58856
5386.98564,0.58980
5385.05690,0.59087
5383.12815,0.59160
5381.19941,0.59203
5379.27066,0.59193
5377.34192,0.59153
5375.41317,0.59099
5373.48443,0.59033
5371.55568,0.58974
5369.62694,0.58928
5367.69819,0.58886
5365.76944,0.58816
5363.84070,0.58731
5361.91195,0.58702
5359.98321,0.58754
5358.05446,0.58839
5356.12572,0.58892
5354.19697,0.58901
5352.26823,0.58830
5350.33948,0.58678
5348.41074,0.58566
5346.48199,0.58533
5344.55325,0.58526
5342.62450,0.58536
5340.69576,0.58573
5338.76701,0.58602
5336.83827,0.58591
5334.90952,0.58554
5332.98077,0.58527
5331.05203,0.58507
5329.12328,0.58456
5327.19454,0.58372
5325.26579,0.58286
5323.33705,0.58198
5321.40830,0.58118
5319.47956,0.58069
5317.55081,0.58005
5315.62207,0.57887
5313.69332,0.57767
5311.76458,0.57662
5309.83583,0.57539
5307.90709,0.57396
5305.97834,0.57232
5304.04959,0.57072
5302.12085,0.56963
5300.19210,0.56862
5298.26336,0.56693
5296.33461,0.56482
5294.40587,0.56293
5292.47712,0.56118
5290.54838,0.55924
5288.61963,0.55704
5286.69089,0.55460
5284.76214,0.55197
5282.83340,0.54938
5280.90465,0.54731
5278.97591,0.54562
5277.04716,0.54356
5275.11842,0.54120
5273.18967,0.53902
5271.26092,0.53640
5269.33218,0.53298
5267.40343,0.52956
5265.47469,0.52645
5263.54594,0.52343
5261.61720,0.52052
5259.68845,0.51764
5257.75971,0.51476
5255.83096,0.51225
5253.90222,0.51020
5251.97347,0.50814
5250.04473,0.50589
5248.11598,0.50348
5246.18724,0.50070
5244.25849,0.49774
5242.32975,0.49539
5240.40100,0.49387
5238.47225,0.49247
5236.54351,0.49051
5234.61476,0.48824
5232.68602,0.48673
5230.75727,0.48616
5228.82853,0.48539
5226.89978,0.48392
5224.97104,0.48230
5223.04229,0.48068
5221.11355,0.47876
5219.18480,0.47681
5217.25606,0.47541
5215.32731,0.47462
5213.39857,0.47397
5211.46982,0.47303
5209.54107,0.47191
5207.61233,0.47094
5205.68358,0.47051
5203.75484,0.47037
5201.82609,0.46953
5199.89735,0.46816
5197.96860,0.46715
5196.03986,0.46698
5194.11111,0.46763
5192.18237,0.46802
5190.25362,0.46713
5188.32488,0.46579
5186.39613,0.46539
5184.46739,0.46623
5182.53864,0.46728
5180.60990,0.46728
5178.68115,0.46635
5176.75240,0.46592
5174.82366,0.46649
5172.89491,0.46721
5170.96617,0.46753
5169.03742,0.46755
5167.10868,0.46756
5165.17993,0.46747
5163.25119,0.46708
5161.32244,0.46694
5159.39370,0.46721
5157.46495,0.46733
5155.53621,0.46768
5153.60746,0.46862
5151.67872,0.46955
5149.74997,0.47053
5147.82123,0.47129
5145.89248,0.47084
5143.96373,0.47014
5142.03499,0.47081
5140.10624,0.47246
5138.17750,0.47372
5136.24875,0.47416
5134.32001,0.47450
5132.39126,0.47512
5130.46252,0.47597
5128.53377,0.47720
5126.60503,0.47837
5124.67628,0.47891
5122.74754,0.47900
5120.81879,0.47947
5118.89005,0.48054
5116.96130,0.48128
5115.03255,0.48153
5113.10381,0.48210
5111.17506,0.48334
5109.24632,0.48509
5107.31757,0.48652
5105.38883,0.48707
5103.46008,0.48746
5101.53134,0.48812
5099.60259,0.48872
5097.67385,0.48950
5095.74510,0.49055
5093.81636,0.49155
5091.88761,0.49272
5089.95887,0.49393
5088.03012,0.49465
5086.10138,0.49537
5084.17263,0.49683
5082.24388,0.49813
5080.31514,0.49852
5078.38639,0.49894
5076.45765,0.49983
5074.52890,0.50048
5072.60016,0.50088
5070.67141,0.50174
5068.74267,0.50272
5066.81392,0.50307
5064.88518,0.50339
5062.95643,0.50453
5061.02769,0.50644
5059.09894,0.50834
5057.17020,0.50915
5055.24145,0.50894
5053.31270,0.50910
5051.38396,0.50998
5049.45521,0.51045
5047.52647,0.51042
5045.59772,0.51087
5043.66898,0.51159
5041.74023,0.51170
5039.81149,0.51160
5037.88274,0.51216
5035.95400,0.51314
5034.02525,0.51388
5032.09651,0.51432
5030.16776,0.51468
5028.23902,0.51519
5026.31027,0.51592
5024.38153,0.51642
5022.45278,0.51644
5020.52403,0.51672
5018.59529,0.51761
5016.66654,0.51830
5014.73780,0.51867
5012.80905,0.51948
5010.88031,0.52027
5008.95156,0.52036
5007.02282,0.52033
5005.09407,0.52058
5003.16533,0.52126
5001.23658,0.52242
4999.30784,0.52315
4997.37909,0.52272
4995.45035,0.52186
4993.52160,0.52152
4991.59286,0.52169
4989.66411,0.52210
4987.73536,0.52256
4985.80662,0.52298
4983.87787,0.52351
4981.94913,0.52368
4980.02038,0.52304
4978.09164,0.52246
4976.16289,0.52243
4974.23415,0.52215
4972.30540,0.52163
4970.37666,0.52147
4968.44791,0.52160
4966.51917,0.52183
4964.59042,0.52182
4962.66168,0.52116
4960.73293,0.52029
4958.80418,0.51970
4956.87544,0.51912
4954.94669,0.51821
4953.01795,0.51696
4951.08920,0.51569
4949.16046,0.51471
4947.23171,0.51421
4945.30297,0.51390
4943.37422,0.51332
4941.44548,0.51264
4939.51673,0.51196
4937.58799,0.51088
4935.65924,0.50937
4933.73050,0.50786
4931.80175,0.50658
4929.87301,0.50541
4927.94426,0.50404
4926.01551,0.50253
4924.08677,0.50116
4922.15802,0.50001
4920.22928,0.49891
4918.30053,0.49757
4916.37179,0.49599
4914.44304,0.49437
4912.51430,0.49296
4910.58555,0.49181
4908.65681,0.49032
4906.72806,0.48833
4904.79932,0.48675
4902.87057,0.48573
4900.94183,0.48419
4899.01308,0.48181
4897.08434,0.47940
4895.15559,0.47742
4893.22684,0.47584
4891.29810,0.47447
4889.36935,0.47302
4887.44061,0.47141
4885.51186,0.46967
4883.58312,0.46783
4881.65437,0.46582
4879.72563,0.46357
4877.79688,0.46158
4875.86814,0.46022
4873.93939,0.45898
4872.01065,0.45760
4870.08190,0.45650
4868.15316,0.45543
4866.22441,0.45396
4864.29566,0.45227
4862.36692,0.45047
4860.43817,0.44849
4858.50943,0.44674
4856.58068,0.44575
4854.65194,0.44518
4852.72319,0.44403
4850.79445,0.44231
4848.86570,0.44076
4846.93696,0.43913
4845.00821,0.43711
4843.07947,0.43569
4841.15072,0.43513
4839.22198,0.43440
4837.29323,0.43307
4835.36449,0.43154
4833.43574,0.42997
4831.50699,0.42816
4829.57825,0.42647
4827.64950,0.42524
4825.72076,0.42396
4823.79201,0.42237
4821.86327,0.42089
4819.93452,0.41988
4818.00578,0.41906
4816.07703,0.41803
4814.14829,0.41686
4812.21954,0.41571
4810.29080,0.41444
4808.36205,0.41315
4806.43331,0.41216
4804.50456,0.41130
4802.57582,0.41022
4800.64707,0.40917
4798.71832,0.40851
4796.78958,0.40798
4794.86083,0.40734
4792.93209,0.40650
4791.00334,0.40557
4789.07460,0.40513
4787.14585,0.40509
4785.21711,0.40457
4783.28836,0.40339
4781.35962,0.40245
4779.43087,0.40257
4777.50213,0.40318
4775.57338,0.40331
4773.64464,0.40300
4771.71589,0.40278
4769.78714,0.40264
4767.85840,0.40235
4765.92965,0.40192
4764.00091,0.40118
4762.07216,0.40023
4760.14342,0.39983
4758.21467,0.40006
4756.28593,0.39989
4754.35718,0.39893
4752.42844,0.39818
4750.49969,0.39826
4748.57095,0.39848
4746.64220,0.39812
4744.71346,0.39730
4742.78471,0.39662
4740.85597,0.39659
4738.92722,0.39704
4736.99847,0.39734
4735.06973,0.39730
4733.14098,0.39718
4731.21224,0.39718
4729.28349,0.39729
4727.35475,0.39714
4725.42600,0.39662
4723.49726,0.39616
4721.56851,0.39600
4719.63977,0.39593
4717.71102,0.39607
4715.78228,0.39673
4713.85353,0.39766
4711.92479,0.39839
4709.99604,0.39863
4708.06729,0.39887
4706.13855,0.39939
4704.20980,0.39943
4702.28106,0.39862
4700.35231,0.39765
4698.42357,0.39701
4696.49482,0.39643
4694.56608,0.39607
4692.63733,0.39619
4690.70859,0.39649
4688.77984,0.39693
4686.85110,0.39779
4684.92235,0.39920
4682.99361,0.40106
4681.06486,0.40304
4679.13612,0.40500
4677.20737,0.40709
4675.27862,0.40933
4673.34988,0.41132
4671.42113,0.41290
4669.49239,0.41417
4667.56364,0.41518
4665.63490,0.41610
4663.70615,0.41702
4661.77741,0.41781
4659.84866,0.41871
4657.91992,0.41981
4655.99117,0.42059
4654.06243,0.42097
4652.13368,0.42122
4650.20494,0.42114
4648.27619,0.42074
4646.34745,0.42043
4644.41870,0.42013
4642.48995,0.41932
4640.56121,0.41811
4638.63246,0.41732
4636.70372,0.41742
4634.77497,0.41824
4632.84623,0.41935
4630.91748,0.42077
4628.98874,0.42269
4627.05999,0.42477
4625.13125,0.42686
4623.20250,0.42926
4621.27376,0.43186
4619.34501,0.43410
4617.41627,0.43557
4615.48752,0.43645
4613.55877,0.43748
4611.63003,0.43899
4609.70128,0.44048
4607.77254,0.44161
4605.84379,0.44224
4603.91505,0.44236
4601.98630,0.44250
4600.05756,0.44284
4598.12881,0.44297
4596.20007,0.44279
4594.27132,0.44245
4592.34258,0.44211
4590.41383,0.44223
4588.48509,0.44296
4586.55634,0.44378
4584.62760,0.44414
4582.69885,0.44411
4580.77010,0.44399
4578.84136,0.44405
4576.91261,0.44494
4574.98387,0.44684
4573.05512,0.44903
4571.12638,0.45120
4569.19763,0.45354
4567.26889,0.45577
4565.34014,0.45737
4563.41140,0.45857
4561.48265,0.45984
4559.55391,0.46081
4557.62516,0.46131
4555.69642,0.46197
4553.76767,0.46301
4551.83893,0.46392
4549.91018,0.46440
4547.98143,0.46495
4546.05269,0.46570
4544.12394,0.46617
4542.19520,0.46639
4540.26645,0.46661
4538.33771,0.46682
4536.40896,0.46691
4534.48022,0.46697
4532.55147,0.46702
4530.62273,0.46706
4528.69398,0.46746
4526.76524,0.46820
4524.83649,0.46859
4522.90775,0.46843
4520.97900,0.46800
4519.05025,0.46731
4517.12151,0.46672
4515.19276,0.46681
4513.26402,0.46736
4511.33527,0.46766
4509.40653,0.46743
4507.47778,0.46670
4505.54904,0.46563
4503.62029,0.46456
4501.69155,0.46355
4499.76280,0.46223
4497.83406,0.46057
4495.90531,0.45885
4493.97657,0.45716
4492.04782,0.45568
4490.11908,0.45452
4488.19033,0.45332
4486.26158,0.45194
4484.33284,0.45084
4482.40409,0.45006
4480.47535,0.44926
4478.54660,0.44822
4476.61786,0.44682
4474.68911,0.44513
4472.76037,0.44303
4470.83162,0.44052
4468.90288,0.43786
4466.97413,0.43488
4465.04539,0.43147
4463.11664,0.42809
4461.18790,0.42498
4459.25915,0.42202
4457.33041,0.41927
4455.40166,0.41718
4453.47291,0.41594
4451.54417,0.41488
4449.61542,0.41332
4447.68668,0.41112
4445.75793,0.40859
4443.82919,0.40629
4441.90044,0.40423
4439.97170,0.40217
4438.04295,0.40010
4436.11421,0.39792
4434.18546,0.39573
4432.25672,0.39382
4430.32797,0.39212
4428.39923,0.39042
4426.47048,0.38878
4424.54173,0.38735
4422.61299,0.38616
4420.68424,0.38531
4418.75550,0.38468
4416.82675,0.38360
4414.89801,0.38163
4412.96926,0.37939
4411.04052,0.37755
4409.11177,0.37590
4407.18303,0.37415
4405.25428,0.37270
4403.32554,0.37177
4401.39679,0.37108
4399.46805,0.37070
4397.53930,0.37089
4395.61056,0.37148
4393.68181,0.37237
4391.75306,0.37379
4389.82432,0.37556
4387.89557,0.37716
4385.96683,0.37844
4384.03808,0.37965
4382.10934,0.38093
4380.18059,0.38221
4378.25185,0.38342
4376.32310,0.38436
4374.39436,0.38493
4372.46561,0.38564
4370.53687,0.38679
4368.60812,0.38776
4366.67938,0.38809
4364.75063,0.38791
4362.82189,0.38730
4360.89314,0.38636
4358.96439,0.38547
4357.03565,0.38486
4355.10690,0.38429
4353.17816,0.38350
4351.24941,0.38280
4349.32067,0.38226
4347.39192,0.38137
4345.46318,0.38007
4343.53443,0.37885
4341.60569,0.37785
4339.67694,0.37693
4337.74820,0.37612
4335.81945,0.37533
4333.89071,0.37441
4331.96196,0.37335
4330.03321,0.37200
4328.10447,0.37054
4326.17572,0.36934
4324.24698,0.36830
4322.31823,0.36725
4320.38949,0.36609
4318.46074,0.36482
4316.53200,0.36374
4314.60325,0.36310
4312.67451,0.36266
4310.74576,0.36192
4308.81702,0.36055
4306.88827,0.35875
4304.95953,0.35704
4303.03078,0.35564
4301.10204,0.35442
4299.17329,0.35341
4297.24454,0.35247
4295.31580,0.35120
4293.38705,0.34960
4291.45831,0.34807
4289.52956,0.34700
4287.60082,0.34650
4285.67207,0.34618
4283.74333,0.34585
4281.81458,0.34576
4279.88584,0.34593
4277.95709,0.34595
4276.02835,0.34583
4274.09960,0.34592
4272.17086,0.34591
4270.24211,0.34555
4268.31336,0.34557
4266.38462,0.34659
4264.45587,0.34790
4262.52713,0.34853
4260.59838,0.34842
4258.66964,0.34819
4256.74089,0.34827
4254.81215,0.34836
4252.88340,0.34825
4250.95466,0.34823
4249.02591,0.34836
4247.09717,0.34838
4245.16842,0.34830
4243.23968,0.34854
4241.31093,0.34914
4239.38219,0.34977
4237.45344,0.35045
4235.52469,0.35124
4233.59595,0.35198
4231.66720,0.35243
4229.73846,0.35254
4227.80971,0.35276
4225.88097,0.35332
4223.95222,0.35380
4222.02348,0.35407
4220.09473,0.35451
4218.16599,0.35527
4216.23724,0.35607
4214.30850,0.35676
4212.37975,0.35751
4210.45101,0.35839
4208.52226,0.35927
4206.59352,0.36019
4204.66477,0.36100
4202.73602,0.36168
4200.80728,0.36243
4198.87853,0.36302
4196.94979,0.36338
4195.02104,0.36370
4193.09230,0.36380
4191.16355,0.36349
4189.23481,0.36289
4187.30606,0.36227
4185.37732,0.36163
4183.44857,0.36080
4181.51983,0.35986
4179.59108,0.35910
4177.66234,0.35883
4175.73359,0.35906
4173.80484,0.35960
4171.87610,0.36045
4169.94735,0.36171
4168.01861,0.36322
4166.08986,0.36473
4164.16112,0.36603
4162.23237,0.36678
4160.30363,0.36710
4158.37488,0.36763
4156.44614,0.36831
4154.51739,0.36832
4152.58865,0.36755
4150.65990,0.36671
4148.73116,0.36619
4146.80241,0.36576
4144.87367,0.36507
4142.94492,0.36409
4141.01617,0.36298
4139.08743,0.36187
4137.15868,0.36093
4135.22994,0.36025
4133.30119,0.35968
4131.37245,0.35898
4129.44370,0.35824
4127.51496,0.35759
4125.58621,0.35669
4123.65747,0.35541
4121.72872,0.35398
4119.79998,0.35231
4117.87123,0.35043
4115.94249,0.34861
4114.01374,0.34694
4112.08500,0.34526
4110.15625,0.34353
4108.22750,0.34155
4106.29876,0.33902
4104.37001,0.33621
4102.44127,0.33335
4100.51252,0.32989
4098.58378,0.32572
4096.65503,0.32131
4094.72629,0.31690
4092.79754,0.31301
4090.86880,0.31057
4088.94005,0.30972
4087.01131,0.30972
4085.08256,0.30981
4083.15382,0.30977
4081.22507,0.30984
4079.29632,0.31028
4077.36758,0.31093
4075.43883,0.31149
4073.51009,0.31189
4071.58134,0.31199
4069.65260,0.31160
4067.72385,0.31075
4065.79511,0.30953
4063.86636,0.30808
4061.93762,0.30663
4060.00887,0.30513
4058.08013,0.30351
4056.15138,0.30187
4054.22264,0.30012
4052.29389,0.29829
4050.36515,0.29661
4048.43640,0.29509
4046.50765,0.29360
4044.57891,0.29220
4042.65016,0.29105
4040.72142,0.29004
4038.79267,0.28888
4036.86393,0.28749
4034.93518,0.28628
4033.00644,0.28572
4031.07769,0.28559
4029.14895,0.28529
4027.22020,0.28473
4025.29146,0.28434
4023.36271,0.28430
4021.43397,0.28431
4019.50522,0.28413
4017.57648,0.28393
4015.64773,0.28394
4013.71898,0.28425
4011.79024,0.28472
4009.86149,0.28517
4007.93275,0.28565
4006.00400,0.28634
4004.07526,0.28721
4002.14651,0.28810
4000.21777,0.28893
3998.28902,0.28979
3996.36028,0.29064
3994.43153,0.29125
3992.50279,0.29171
3990.57404,0.29238
3988.64530,0.29339
3986.71655,0.29454
3984.78780,0.29554
3982.85906,0.29621
3980.93031,0.29654
3979.00157,0.29679
3977.07282,0.29718
3975.14408,0.29777
3973.21533,0.29850
3971.28659,0.29921
3969.35784,0.29989
3967.42910,0.30072
3965.50035,0.30174
3963.57161,0.30271
3961.64286,0.30343
3959.71412,0.30391
3957.78537,0.30447
3955.85663,0.30526
3953.92788,0.30610
3951.99913,0.30688
3950.07039,0.30773
3948.14164,0.30862
3946.21290,0.30951
3944.28415,0.31045
3942.35541,0.31149
3940.42666,0.31257
3938.49792,0.31368
3936.56917,0.31494
3934.64043,0.31626
3932.71168,0.31728
3930.78294,0.31795
3928.85419,0.31857
3926.92545,0.31941
3924.99670,0.32040
3923.06795,0.32112
3921.13921,0.32171
3919.21046,0.32266
3917.28172,0.32371
3915.35297,0.32442
3913.42423,0.32500
3911.49548,0.32578
3909.56674,0.32679
3907.63799,0.32791
3905.70925,0.32897
3903.78050,0.32992
3901.85176,0.33080
3899.92301,0.33160
3897.99427,0.33241
3896.06552,0.33338
3894.13678,0.33445
3892.20803,0.33563
3890.27928,0.33678
3888.35054,0.33750
3886.42179,0.33789
3884.49305,0.33833
3882.56430,0.33903
3880.63556,0.33974
3878.70681,0.34005
3876.77807,0.34030
3874.84932,0.34115
3872.92058,0.34245
3870.99183,0.34376
3869.06309,0.34485
3867.13434,0.34574
3865.20560,0.34688
3863.27685,0.34827
3861.34811,0.34930
3859.41936,0.35007
3857.49061,0.35102
3855.56187,0.35208
3853.63312,0.35323
3851.70438,0.35436
3849.77563,0.35522
3847.84689,0.35586
3845.91814,0.35647
3843.98940,0.35735
3842.06065,0.35850
3840.13191,0.35933
3838.20316,0.35956
3836.27442,0.35981
3834.34567,0.36038
3832.41693,0.36087
3830.48818,0.36122
3828.55943,0.36158
3826.63069,0.36170
3824.70194,0.36149
3822.77320,0.36111
3820.84445,0.36054
3818.91571,0.35996
3816.98696,0.35953
3815.05822,0.35910
3813.12947,0.35854
3811.20073,0.35797
3809.27198,0.35765
3807.34324,0.35754
3805.41449,0.35732
3803.48575,0.35708
3801.55700,0.35721
3799.62826,0.35772
3797.69951,0.35832
3795.77076,0.35889
3793.84202,0.35917
3791.91327,0.35911
3789.98453,0.35917
3788.05578,0.35951
3786.12704,0.35965
3784.19829,0.35926
3782.26955,0.35866
3780.34080,0.35819
3778.41206,0.35801
3776.48331,0.35809
3774.55457,0.35779
3772.62582,0.35674
3770.69708,0.35555
3768.76833,0.35459
3766.83959,0.35376
3764.91084,0.35309
3762.98209,0.35246
3761.05335,0.35169
3759.12460,0.35083
3757.19586,0.35016
3755.26711,0.34985
3753.33837,0.34992
3751.40962,0.35014
3749.48088,0.35002
3747.55213,0.34973
3745.62339,0.34955
3743.69464,0.34917
3741.76590,0.34824
3739.83715,0.34716
3737.90841,0.34607
3735.97966,0.34450
3734.05091,0.34249
3732.12217,0.34067
3730.19342,0.33911
3728.26468,0.33763
3726.33593,0.33652
3724.40719,0.33595
3722.47844,0.33524
3720.54970,0.33371
3718.62095,0.33158
3716.69221,0.32946
3714.76346,0.32741
3712.83472,0.32504
3710.90597,0.32220
3708.97723,0.31925
3707.04848,0.31626
3705.11974,0.31298
3703.19099,0.30937
3701.26224,0.30547
3699.33350,0.30151
3697.40475,0.29771
3695.47601,0.29372
3693.54726,0.28929
3691.61852,0.28460
3689.68977,0.27933
3687.76103,0.27342
3685.83228,0.26793
3683.90354,0.26313
3681.97479,0.25870
3680.04605,0.25460
3678.11730,0.25050
3676.18856,0.24554
3674.25981,0.23987
3672.33107,0.23439
3670.40232,0.22851
3668.47357,0.22218
3666.54483,0.21609
3664.61608,0.20988
3662.68734,0.20369
3660.75859,0.19794
3658.82985,0.19238
3656.90110,0.18677
3654.97236,0.18139
3653.04361,0.17653
3651.11487,0.17161
3649.18612,0.16593
3647.25738,0.16033
3645.32863,0.15562
3643.39989,0.15132
3641.47114,0.14705
3639.54239,0.14304
3637.61365,0.13943
3635.68490,0.13597
3633.75616,0.13258
3631.82741,0.12940
3629.89867,0.12622
3627.96992,0.12273
3626.04118,0.11937
3624.11243,0.11641
3622.18369,0.11373
3620.25494,0.11117
3618.32620,0.10873
3616.39745,0.10643
3614.46871,0.10418
3612.53996,0.10196
3610.61122,0.09968
3608.68247,0.09720
3606.75372,0.09475
3604.82498,0.09262
3602.89623,0.09068
3600.96749,0.08874
3599.03874,0.08680
3597.11000,0.08487
3595.18125,0.08296
3593.25251,0.08110
3591.32376,0.07929
3589.39502,0.07770
3587.46627,0.07644
3585.53753,0.07532
3583.60878,0.07409
3581.68004,0.07273
3579.75129,0.07130
3577.82254,0.06980
3575.89380,0.06839
3573.96505,0.06725
3572.03631,0.06614
3570.10756,0.06480
3568.17882,0.06340
3566.25007,0.06219
3564.32133,0.06115
3562.39258,0.06013
3560.46384,0.05915
3558.53509,0.05820
3556.60635,0.05721
3554.67760,0.05641
3552.74886,0.05591
3550.82011,0.05534
3548.89137,0.05456
3546.96262,0.05372
3545.03387,0.05288
3543.10513,0.05205
3541.17638,0.05134
3539.24764,0.05093
3537.31889,0.05060
3535.39015,0.05003
3533.46140,0.04934
3531.53266,0.04882
3529.60391,0.04859
3527.67517,0.04856
3525.74642,0.04840
3523.81768,0.04789
3521.88893,0.04718
3519.96019,0.04656
3518.03144,0.04605
3516.10270,0.04573
3514.17395,0.04570
3512.24520,0.04564
3510.31646,0.04528
3508.38771,0.04474
3506.45897,0.04439
3504.53022,0.04418
3502.60148,0.04390
3500.67273,0.04365
3498.74399,0.04330
3496.81524,0.04279
3494.88650,0.04241
3492.95775,0.04212
3491.02901,0.04189
3489.10026,0.04184
3487.17152,0.04166
3485.24277,0.04130
3483.31402,0.04112
3481.38528,0.04119
3479.45653,0.04119
3477.52779,0.04098
3475.59904,0.04074
3473.67030,0.04060
3471.74155,0.04036
3469.81281,0.03994
3467.88406,0.03972
3465.95532,0.03965
3464.02657,0.03925
3462.09783,0.03861
3460.16908,0.03833
3458.24034,0.03836
3456.31159,0.03801
3454.38285,0.03718
3452.45410,0.03649
3450.52535,0.03625
3448.59661,0.03633
3446.66786,0.03640
3444.73912,0.03625
3442.81037,0.03592
3440.88163,0.03548
3438.95288,0.03514
3437.02414,0.03484
3435.09539,0.03436
3433.16665,0.03387
3431.23790,0.03375
3429.30916,0.03398
3427.38041,0.03434
3425.45167,0.03485
3423.52292,0.03543
3421.59418,0.03607
3419.66543,0.03668
3417.73668,0.03682
3415.80794,0.03657
3413.87919,0.03654
3411.95045,0.03682
3410.02170,0.03719
3408.09296,0.03756
3406.16421,0.03795
3404.23547,0.03835
3402.30672,0.03855
3400.37798,0.03850
3398.44923,0.03838
3396.52049,0.03829
3394.59174,0.03848
3392.66300,0.03898
3390.73425,0.03913
3388.80550,0.03887
3386.87676,0.03896
3384.94801,0.03928
3383.01927,0.03910
3381.09052,0.03855
3379.16178,0.03830
3377.23303,0.03854
3375.30429,0.03902
3373.37554,0.03953
3371.44680,0.03987
3369.51805,0.03988
3367.58931,0.03970
3365.66056,0.03957
3363.73182,0.03965
3361.80307,0.03988
3359.87433,0.03999
3357.94558,0.03988
3356.01683,0.03993
3354.08809,0.04026
3352.15934,0.04043
3350.23060,0.04021
3348.30185,0.04004
3346.37311,0.04022
3344.44436,0.04050
3342.51562,0.04060
3340.58687,0.04052
3338.65813,0.04056
3336.72938,0.04089
3334.80064,0.04138
3332.87189,0.04184
3330.94315,0.04217
3329.01440,0.04240
3327.08566,0.04257
3325.15691,0.04251
3323.22816,0.04226
3321.29942,0.04218
3319.37067,0.04235
3317.44193,0.04249
3315.51318,0.04243
3313.58444,0.04240
3311.65569,0.04248
3309.72695,0.04241
3307.79820,0.04224
3305.86946,0.04206
3303.94071,0.04190
3302.01197,0.04194
3300.08322,0.04220
3298.15448,0.04261
3296.22573,0.04284
3294.29698,0.04259
3292.36824,0.04248
3290.43949,0.04289
3288.51075,0.04331
3286.58200,0.04339
3284.65326,0.04327
3282.72451,0.04326
3280.79577,0.04348
3278.86702,0.04382
3276.93828,0.04423
3275.00953,0.04456
3273.08079,0.04465
3271.15204,0.04465
3269.22330,0.04470
3267.29455,0.04485
3265.36581,0.04528
3263.43706,0.04577
3261.50831,0.04600
3259.57957,0.04614
3257.65082,0.04618
3255.72208,0.04608
3253.79333,0.04617
3251.86459,0.04649
3249.93584,0.04687
3248.00710,0.04729
3246.07835,0.04754
3244.14961,0.04760
3242.22086,0.04774
3240.29212,0.04801
3238.36337,0.04829
3236.43463,0.04858
3234.50588,0.04897
3232.57713,0.04935
3230.64839,0.04941
3228.71964,0.04920
3226.79090,0.04932
3224.86215,0.04987
3222.93341,0.05032
3221.00466,0.05073
3219.07592,0.05129
3217.14717,0.05168
3215.21843,0.05165
3213.28968,0.05154
3211.36094,0.05181
3209.43219,0.05247
3207.50345,0.05312
3205.57470,0.05353
3203.64596,0.05383
3201.71721,0.05414
3199.78846,0.05438
3197.85972,0.05471
3195.93097,0.05517
3194.00223,0.05548
3192.07348,0.05561
3190.14474,0.05578
3188.21599,0.05617
3186.28725,0.05677
3184.35850,0.05742
3182.42976,0.05811
3180.50101,0.05875
3178.57227,0.05911
3176.64352,0.05934
3174.71478,0.05953
3172.78603,0.05966
3170.85729,0.05984
3168.92854,0.06022
3166.99979,0.06078
3165.07105,0.06133
3163.14230,0.06186
3161.21356,0.06250
3159.28481,0.06314
3157.35607,0.06353
3155.42732,0.06392
3153.49858,0.06451
3151.56983,0.06507
3149.64109,0.06549
3147.71234,0.06580
3145.78360,0.06610
3143.85485,0.06654
3141.92611,0.06702
3139.99736,0.06719
3138.06861,0.06712
3136.13987,0.06735
3134.21112,0.06803
3132.28238,0.06864
3130.35363,0.06904
3128.42489,0.06964
3126.49614,0.07041
3124.56740,0.07095
3122.63865,0.07137
3120.70991,0.07190
3118.78116,0.07238
3116.85242,0.07274
3114.92367,0.07312
3112.99493,0.07357
3111.06618,0.07391
3109.13744,0.07416
3107.20869,0.07446
3105.27994,0.07483
3103.35120,0.07546
3101.42245,0.07633
3099.49371,0.07700
3097.56496,0.07761
3095.63622,0.07851
3093.70747,0.07943
3091.77873,0.07996
3089.84998,0.08016
3087.92124,0.08039
3085.99249,0.08066
3084.06375,0.08087
3082.13500,0.08121
3080.20626,0.08185
3078.27751,0.08261
3076.34877,0.08346
3074.42002,0.08438
3072.49127,0.08504
3070.56253,0.08518
3068.63378,0.08524
3066.70504,0.08569
3064.77629,0.08644
3062.84755,0.08737
3060.91880,0.08832
3058.99006,0.08888
3057.06131,0.08899
3055.13257,0.08923
3053.20382,0.09009
3051.27508,0.09149
3049.34633,0.09313
3047.41759,0.09489
3045.48884,0.09669
3043.56009,0.09840
3041.63135,0.09986
3039.70260,0.10092
3037.77386,0.10154
3035.84511,0.10183
3033.91637,0.10192
3031.98762,0.10200
3030.05888,0.10226
3028.13013,0.10251
3026.20139,0.10243
3024.27264,0.10202
3022.34390,0.10141
3020.41515,0.10067
3018.48641,0.09999
3016.55766,0.09949
3014.62892,0.09909
3012.70017,0.09870
3010.77142,0.09836
3008.84268,0.09802
3006.91393,0.09774
3004.98519,0.09758
3003.05644,0.09728
3001.12770,0.09678
2999.19895,0.09625
2997.27021,0.09562
2995.34146,0.09471
2993.41272,0.09341
2991.48397,0.09180
2989.55523,0.08994
2987.62648,0.08774
2985.69774,0.08516
2983.76899,0.08239
2981.84025,0.07947
2979.91150,0.07622
2977.98275,0.07276
2976.05401,0.06920
2974.12526,0.06554
2972.19652,0.06210
2970.26777,0.05951
2968.33903,0.05811
2966.41028,0.05788
2964.48154,0.05844
2962.55279,0.05903
2960.62405,0.05917
2958.69530,0.05901
2956.76656,0.05870
2954.83781,0.05829
2952.90907,0.05784
2950.98032,0.05733
2949.05157,0.05684
2947.12283,0.05651
2945.19408,0.05644
2943.26534,0.05677
2941.33659,0.05739
2939.40785,0.05796
2937.47910,0.05833
2935.55036,0.05844
2933.62161,0.05809
2931.69287,0.05734
2929.76412,0.05649
2927.83538,0.05555
2925.90663,0.05434
2923.97789,0.05286
2922.04914,0.05136
2920.12040,0.04992
2918.19165,0.04868
2916.26290,0.04770
2914.33416,0.04664
2912.40541,0.04547
2910.47667,0.04453
2908.54792,0.04407
2906.61918,0.04409
2904.69043,0.04459
2902.76169,0.04548
2900.83294,0.04650
2898.90420,0.04740
2896.97545,0.04815
2895.04671,0.04884
2893.11796,0.04936
2891.18922,0.04965
2889.26047,0.05015
2887.33172,0.05114
2885.40298,0.05240
2883.47423,0.05358
2881.54549,0.05443
2879.61674,0.05494
2877.68800,0.05536
2875.75925,0.05587
2873.83051,0.05636
2871.90176,0.05684
2869.97302,0.05755
2868.04427,0.05837
2866.11553,0.05902
2864.18678,0.05966
2862.25804,0.06051
2860.32929,0.06133
2858.40055,0.06207
2856.47180,0.06292
2854.54305,0.06383
2852.61431,0.06461
2850.68556,0.06553
2848.75682,0.06725
2846.82807,0.07004
2844.89933,0.07338
2842.97058,0.07660
2841.04184,0.07945
2839.11309,0.08200
2837.18435,0.08423
2835.25560,0.08608
2833.32686,0.08785
2831.39811,0.08981
2829.46937,0.09166
2827.54062,0.09309
2825.61188,0.09434
2823.68313,0.09591
2821.75438,0.09776
2819.82564,0.09941
2817.89689,0.10082
2815.96815,0.10211
2814.03940,0.10331
2812.11066,0.10458
2810.18191,0.10581
2808.25317,0.10684
2806.32442,0.10796
2804.39568,0.10932
2802.46693,0.11077
2800.53819,0.11237
2798.60944,0.11405
2796.68070,0.11548
2794.75195,0.11675
2792.82320,0.11802
2790.89446,0.11908
2788.96571,0.11981
2787.03697,0.12049
2785.10822,0.12123
2783.17948,0.12177
2781.25073,0.12207
2779.32199,0.12244
2777.39324,0.12308
2775.46450,0.12376
2773.53575,0.12423
2771.60701,0.12453
2769.67826,0.12486
2767.74952,0.12536
2765.82077,0.12592
2763.89203,0.12639
2761.96328,0.12681
2760.03453,0.12715
2758.10579,0.12732
2756.17704,0.12750
2754.24830,0.12777
2752.31955,0.12808
2750.39081,0.12837
2748.46206,0.12835
2746.53332,0.12802
2744.60457,0.12784
2742.67583,0.12800
2740.74708,0.12820
2738.81834,0.12835
2736.88959,0.12872
2734.96085,0.12937
2733.03210,0.12994
2731.10336,0.13022
2729.17461,0.13049
2727.24586,0.13100
2725.31712,0.13179
2723.38837,0.13260
2721.45963,0.13323
2719.53088,0.13380
2717.60214,0.13447
2715.67339,0.13531
2713.74465,0.13624
2711.81590,0.13718
2709.88716,0.13822
2707.95841,0.13947
2706.02967,0.14077
2704.10092,0.14199
2702.17218,0.14319
2700.24343,0.14446
2698.31468,0.14574
2696.38594,0.14695
2694.45719,0.14805
2692.52845,0.14907
2690.59970,0.15020
2688.67096,0.15145
2686.74221,0.15265
2684.81347,0.15380
2682.88472,0.15495
2680.95598,0.15609
2679.02723,0.15721
2677.09849,0.15829
2675.16974,0.15915
2673.24100,0.15979
2671.31225,0.16047
2669.38351,0.16121
2667.45476,0.16179
2665.52601,0.16219
2663.59727,0.16258
2661.66852,0.16314
2659.73978,0.16383
2657.81103,0.16444
2655.88229,0.16504
2653.95354,0.16570
2652.02480,0.16629
2650.09605,0.16694
2648.16731,0.16764
2646.23856,0.16811
2644.30982,0.16844
2642.38107,0.16904
2640.45233,0.16979
2638.52358,0.17021
2636.59484,0.17047
2634.66609,0.17085
2632.73734,0.17130
2630.80860,0.17177
2628.87985,0.17229
2626.95111,0.17293
2625.02236,0.17372
2623.09362,0.17460
2621.16487,0.17550
2619.23613,0.17645
2617.30738,0.17735
2615.37864,0.17806
2613.44989,0.17866
2611.52115,0.17929
2609.59240,0.17987
2607.66366,0.18034
2605.73491,0.18093
2603.80616,0.18165
2601.87742,0.18213
2599.94867,0.18229
2598.01993,0.18265
2596.09118,0.18328
2594.16244,0.18362
2592.23369,0.18355
2590.30495,0.18351
2588.37620,0.18368
2586.44746,0.18396
2584.51871,0.18424
2582.58997,0.18443
2580.66122,0.18457
2578.73248,0.18485
2576.80373,0.18526
2574.87499,0.18547
2572.94624,0.18525
2571.01749,0.18502
2569.08875,0.18507
2567.16000,0.18513
2565.23126,0.18491
2563.30251,0.18456
2561.37377,0.18440
2559.44502,0.18435
2557.51628,0.18398
2555.58753,0.18342
2553.65879,0.18317
2551.73004,0.18313
2549.80130,0.18289
2547.87255,0.18257
2545.94381,0.18245
2544.01506,0.18236
2542.08631,0.18219
2540.15757,0.18210
2538.22882,0.18215
2536.30008,0.18230
2534.37133,0.18240
2532.44259,0.18248
2530.51384,0.18285
2528.58510,0.18354
2526.65635,0.18430
2524.72761,0.18500
2522.79886,0.18568
2520.87012,0.18636
2518.94137,0.18692
2517.01263,0.18740
2515.08388,0.18808
2513.15514,0.18906
2511.22639,0.19031
2509.29764,0.19152
2507.36890,0.19263
2505.44015,0.19399
2503.51141,0.19558
2501.58266,0.19699
2499.65392,0.19805
2497.72517,0.19903
2495.79643,0.20031
2493.86768,0.20187
2491.93894,0.20342
2490.01019,0.20477
2488.08145,0.20594
2486.15270,0.20708
2484.22396,0.20832
2482.29521,0.20957
2480.36647,0.21073
2478.43772,0.21178
2476.50897,0.21292
2474.58023,0.21431
2472.65148,0.21572
2470.72274,0.21684
2468.79399,0.21780
2466.86525,0.21864
2464.93650,0.21923
2463.00776,0.21974
2461.07901,0.22020
2459.15027,0.22061
2457.22152,0.22122
2455.29278,0.22196
2453.36403,0.22254
2451.43529,0.22303
2449.50654,0.22363
2447.57779,0.22432
2445.64905,0.22510
2443.72030,0.22594
2441.79156,0.22666
2439.86281,0.22731
2437.93407,0.22805
2436.00532,0.22872
2434.07658,0.22933
2432.14783,0.23000
2430.21909,0.23052
2428.29034,0.23080
2426.36160,0.23102
2424.43285,0.23132
2422.50411,0.23175
2420.57536,0.23212
2418.64662,0.23240
2416.71787,0.23286
2414.78912,0.23344
2412.86038,0.23376
2410.93163,0.23380
2409.00289,0.23381
2407.07414,0.23383
2405.14540,0.23389
2403.21665,0.23409
2401.28791,0.23437
2399.35916,0.23469
2397.43042,0.23507
2395.50167,0.23552
2393.57293,0.23602
2391.64418,0.23656
2389.71544,0.23723
2387.78669,0.23796
2385.85795,0.23846
2383.92920,0.23881
2382.00045,0.23948
2380.07171,0.24054
2378.14296,0.24176
2376.21422,0.24295
2374.28547,0.24409
2372.35673,0.24526
2370.42798,0.24654
2368.49924,0.24788
2366.57049,0.24918
2364.64175,0.25045
2362.71300,0.25185
2360.78426,0.25349
2358.85551,0.25508
2356.92677,0.25636
2354.99802,0.25754
2353.06927,0.25875
2351.14053,0.25994
2349.21178,0.26120
2347.28304,0.26262
2345.35429,0.26401
2343.42555,0.26503
2341.49680,0.26574
2339.56806,0.26638
2337.63931,0.26706
2335.71057,0.26778
2333.78182,0.26842
2331.85308,0.26890
2329.92433,0.26938
2327.99559,0.27003
2326.06684,0.27088
2324.13810,0.27182
2322.20935,0.27262
2320.28060,0.27333
2318.35186,0.27410
2316.42311,0.27475
2314.49437,0.27511
2312.56562,0.27522
2310.63688,0.27509
2308.70813,0.27469
2306.77939,0.27400
2304.85064,0.27314
2302.92190,0.27224
2300.99315,0.27109
2299.06441,0.26958
2297.13566,0.26790
2295.20692,0.26620
2293.27817,0.26456
2291.34943,0.26313
2289.42068,0.26197
2287.49193,0.26101
2285.56319,0.26030
2283.63444,0.25994
2281.70570,0.25983
2279.77695,0.25970
2277.84821,0.25941
2275.91946,0.25894
2273.99072,0.25819
2272.06197,0.25703
2270.13323,0.25553
2268.20448,0.25385
2266.27574,0.25208
2264.34699,0.25026
2262.41825,0.24842
2260.48950,0.24653
2258.56075,0.24431
2256.63201,0.24151
2254.70326,0.23828
2252.77452,0.23506
2250.84577,0.23200
2248.91703,0.22914
2246.98828,0.22683
2245.05954,0.22540
2243.13079,0.22486
2241.20205,0.22525
2239.27330,0.22679
2237.34456,0.22975
2235.41581,0.23379
2233.48707,0.23814
2231.55832,0.24205
2229.62958,0.24500
2227.70083,0.24697
2225.77208,0.24827
2223.84334,0.24914
2221.91459,0.24990
2219.98585,0.25088
2218.05710,0.25199
2216.12836,0.25289
2214.19961,0.25340
2212.27087,0.25377
2210.34212,0.25444
2208.41338,0.25534
2206.48463,0.25600
2204.55589,0.25619
2202.62714,0.25620
2200.69840,0.25629
2198.76965,0.25631
2196.84090,0.25594
2194.91216,0.25517
2192.98341,0.25425
2191.05467,0.25339
2189.12592,0.25248
2187.19718,0.25138
2185.26843,0.25019
2183.33969,0.24903
2181.41094,0.24760
2179.48220,0.24577
2177.55345,0.24389
2175.62471,0.24208
2173.69596,0.24028
2171.76722,0.23858
2169.83847,0.23689
2167.90973,0.23495
2165.98098,0.23288
2164.05223,0.23093
2162.12349,0.22909
2160.19474,0.22725
2158.26600,0.22547
2156.33725,0.22385
2154.40851,0.22240
2152.47976,0.22097
2150.55102,0.21966
2148.62227,0.21869
2146.69353,0.21791
2144.76478,0.21689
2142.83604,0.21561
2140.90729,0.21445
2138.97855,0.21347
2137.04980,0.21258
2135.12106,0.21189
2133.19231,0.21149
2131.26356,0.21133
2129.33482,0.21132
2127.40607,0.21133
2125.47733,0.21131
2123.54858,0.21134
2121.61984,0.21144
2119.69109,0.21167
2117.76235,0.21209
2115.83360,0.21257
2113.90486,0.21315
2111.97611,0.21394
2110.04737,0.21476
2108.11862,0.21557
2106.18988,0.21643
2104.26113,0.21734
2102.33238,0.21822
2100.40364,0.21906
2098.47489,0.21990
2096.54615,0.22072
2094.61740,0.22147
2092.68866,0.22224
2090.75991,0.22312
2088.83117,0.22409
2086.90242,0.22515
2084.97368,0.22637
2083.04493,0.22772
2081.11619,0.22891
2079.18744,0.22978
2077.25870,0.23056
2075.32995,0.23129
2073.40121,0.23186
2071.47246,0.23242
2069.54371,0.23309
2067.61497,0.23388
2065.68622,0.23490
2063.75748,0.23618
2061.82873,0.23755
2059.89999,0.23872
2057.97124,0.23958
2056.04250,0.24025
2054.11375,0.24086
2052.18501,0.24145
2050.25626,0.24206
2048.32752,0.24267
2046.39877,0.24322
2044.47003,0.24384
2042.54128,0.24455
2040.61254,0.24523
2038.68379,0.24590
2036.75504,0.24684
2034.82630,0.24805
2032.89755,0.24927
2030.96881,0.25045
2029.04006,0.25167
2027.11132,0.25281
2025.18257,0.25380
2023.25383,0.25485
2021.32508,0.25600
2019.39634,0.25701
2017.46759,0.25779
2015.53885,0.25839
2013.61010,0.25885
2011.68136,0.25932
2009.75261,0.25968
2007.82386,0.25954
2005.89512,0.25902
2003.96637,0.25849
2002.03763,0.25794
2000.10888,0.25728
1998.18014,0.25665
1996.25139,0.25617
1994.32265,0.25585
1992.39390,0.25565
1990.46516,0.25544
1988.53641,0.25521
1986.60767,0.25499
1984.67892,0.25467
1982.75018,0.25423
1980.82143,0.25366
1978.89269,0.25283
1976.96394,0.25175
1975.03519,0.25050
1973.10645,0.24900
1971.17770,0.24720
1969.24896,0.24511
1967.32021,0.24261
1965.39147,0.23969
1963.46272,0.23695
1961.53398,0.23508
1959.60523,0.23436
1957.67649,0.23482
1955.74774,0.23638
1953.81900,0.23867
1951.89025,0.24123
1949.96151,0.24394
1948.03276,0.24698
1946.10402,0.25029
1944.17527,0.25370
1942.24652,0.25707
1940.31778,0.26026
1938.38903,0.26335
1936.46029,0.26639
1934.53154,0.26925
1932.60280,0.27190
1930.67405,0.27437
1928.74531,0.27655
1926.81656,0.27846
1924.88782,0.28026
1922.95907,0.28185
1921.03033,0.28321
1919.10158,0.28460
1917.17284,0.28608
1915.24409,0.28750
1913.31534,0.28870
1911.38660,0.28966
1909.45785,0.29054
1907.52911,0.29144
1905.60036,0.29229
1903.67162,0.29298
1901.74287,0.29351
1899.81413,0.29394
1897.88538,0.29431
1895.95664,0.29463
1894.02789,0.29489
1892.09915,0.29490
1890.17040,0.29477
1888.24166,0.29468
1886.31291,0.29445
1884.38417,0.29402
1882.45542,0.29355
1880.52667,0.29315
1878.59793,0.29269
1876.66918,0.29203
1874.74044,0.29118
1872.81169,0.29019
1870.88295,0.28914
1868.95420,0.28786
1867.02546,0.28628
1865.09671,0.28448
1863.16797,0.28253
1861.23922,0.28051
1859.31048,0.27838
1857.38173,0.27596
1855.45299,0.27322
1853.52424,0.27013
1851.59549,0.26665
1849.66675,0.26308
1847.73800,0.25958
1845.80926,0.25592
1843.88051,0.25200
1841.95177,0.24839
1840.02302,0.24530
1838.09428,0.24240
1836.16553,0.23970
1834.23679,0.23721
1832.30804,0.23486
1830.37930,0.23277
1828.45055,0.23101
1826.52181,0.22938
1824.59306,0.22781
1822.66432,0.22656
1820.73557,0.22574
1818.80682,0.22501
1816.87808,0.22413
1814.94933,0.22314
1813.02059,0.22213
1811.09184,0.22095
1809.16310,0.21961
1807.23435,0.21834
1805.30561,0.21716
1803.37686,0.21603
1801.44812,0.21487
1799.51937,0.21365
1797.59063,0.21235
1795.66188,0.21089
1793.73314,0.20917
1791.80439,0.20711
1789.87565,0.20488
1787.94690,0.20270
1786.01815,0.20047
1784.08941,0.19804
1782.16066,0.19542
1780.23192,0.19265
1778.30317,0.18985
1776.37443,0.18708
1774.44568,0.18395
1772.51694,0.18014
1770.58819,0.17613
1768.65945,0.17226
1766.73070,0.16810
1764.80196,0.16364
1762.87321,0.15874
1760.94447,0.15313
1759.01572,0.14709
1757.08697,0.14052
1755.15823,0.13352
1753.22948,0.12635
1751.30074,0.11840
1749.37199,0.10999
1747.44325,0.10253
1745.51450,0.09654
1743.58576,0.09198
1741.65701,0.08886
1739.72827,0.08700
1737.79952,0.08598
1735.87078,0.08551
1733.94203,0.08574
1732.01329,0.08667
1730.08454,0.08770
1728.15580,0.08865
1726.22705,0.08964
1724.29830,0.09064
1722.36956,0.09160
1720.44081,0.09259
1718.51207,0.09361
1716.58332,0.09414
1714.65458,0.09387
1712.72583,0.09325
1710.79709,0.09281
1708.86834,0.09289
1706.93960,0.09364
1705.01085,0.09502
1703.08211,0.09680
1701.15336,0.09868
1699.22462,0.10017
1697.29587,0.10102
1695.36713,0.10152
1693.43838,0.10164
1691.50963,0.10123
1689.58089,0.10023
1687.65214,0.09893
1685.72340,0.09760
1683.79465,0.09617
1681.86591,0.09507
1679.93716,0.09467
1678.00842,0.09469
1676.07967,0.09464
1674.15093,0.09415
1672.22218,0.09345
1670.29344,0.09297
1668.36469,0.09280
1666.43595,0.09286
1664.50720,0.09301
1662.57845,0.09303
1660.64971,0.09285
1658.72096,0.09266
1656.79222,0.09263
1654.86347,0.09265
1652.93473,0.09223
1651.00598,0.09149
1649.07724,0.09114
1647.14849,0.09108
1645.21975,0.09100
1643.29100,0.09083
1641.36226,0.09082
1639.43351,0.09121
1637.50477,0.09190
1635.57602,0.09253
1633.64728,0.09289
1631.71853,0.09323
1629.78978,0.09386
1627.86104,0.09485
1625.93229,0.09601
1624.00355,0.09712
1622.07480,0.09807
1620.14606,0.09863
1618.21731,0.09875
1616.28857,0.09873
1614.35982,0.09927
1612.43108,0.10080
1610.50233,0.10313
1608.57359,0.10575
1606.64484,0.10836
1604.71610,0.11094
1602.78735,0.11336
1600.85861,0.11555
1598.92986,0.11738
1597.00111,0.11879
1595.07237,0.11996
1593.14362,0.12089
1591.21488,0.12133
1589.28613,0.12104
1587.35739,0.11994
1585.42864,0.11784
1583.49990,0.11455
1581.57115,0.11087
1579.64241,0.10850
1577.71366,0.10876
1575.78492,0.11202
1573.85617,0.11654
1571.92743,0.12065
1569.99868,0.12433
1568.06993,0.12726
1566.14119,0.12920
1564.21244,0.13057
1562.28370,0.13166
1560.35495,0.13250
1558.42621,0.13279
1556.49746,0.13270
1554.56872,0.13263
1552.63997,0.13239
1550.71123,0.13204
1548.78248,0.13187
1546.85374,0.13183
1544.92499,0.13172
1542.99625,0.13163
1541.06750,0.13152
1539.13876,0.13092
1537.21001,0.13011
1535.28126,0.12932
1533.35252,0.12806
1531.42377,0.12640
1529.49503,0.12477
1527.56628,0.12312
1525.63754,0.12171
1523.70879,0.12090
1521.78005,0.12034
1519.85130,0.11957
1517.92256,0.11838
1515.99381,0.11625
1514.06507,0.11265
1512.13632,0.10708
1510.20758,0.09960
1508.27883,0.09101
1506.35008,0.08383
1504.42134,0.08255
1502.49259,0.08649
1500.56385,0.09260
1498.63510,0.09842
1496.70636,0.10196
1494.77761,0.10252
1492.84887,0.10074
1490.92012,0.09704
1488.99138,0.09156
1487.06263,0.08515
1485.13389,0.07870
1483.20514,0.07279
1481.27640,0.06791
1479.34765,0.06427
1477.41891,0.06121
1475.49016,0.05805
1473.56141,0.05478
1471.63267,0.05193
1469.70392,0.05022
1467.77518,0.04920
1465.84643,0.04775
1463.91769,0.04551
1461.98894,0.04312
1460.06020,0.04115
1458.13145,0.03948
1456.20271,0.03811
1454.27396,0.03744
1452.34522,0.03725
1450.41647,0.03718
1448.48773,0.03714
1446.55898,0.03703
1444.63024,0.03682
1442.70149,0.03660
1440.77274,0.03644
1438.84400,0.03627
1436.91525,0.03598
1434.98651,0.03577
1433.05776,0.03589
1431.12902,0.03611
1429.20027,0.03633
1427.27153,0.03657
1425.34278,0.03666
1423.41404,0.03652
1421.48529,0.03628
1419.55655,0.03579
1417.62780,0.03488
1415.69906,0.03390
1413.77031,0.03323
1411.84156,0.03303
1409.91282,0.03327
1407.98407,0.03395
1406.05533,0.03500
1404.12658,0.03622
1402.19784,0.03746
1400.26909,0.03860
1398.34035,0.03935
1396.41160,0.03964
1394.48286,0.03953
1392.55411,0.03887
1390.62537,0.03776
1388.69662,0.03636
1386.76788,0.03465
1384.83913,0.03284
1382.91039,0.03120
1380.98164,0.02976
1379.05289,0.02853
1377.12415,0.02756
1375.19540,0.02679
1373.26666,0.02623
1371.33791,0.02611
1369.40917,0.02653
1367.48042,0.02715
1365.55168,0.02764
1363.62293,0.02815
1361.69419,0.02880
1359.76544,0.02922
1357.83670,0.02914
1355.90795,0.02888
1353.97921,0.02871
1352.05046,0.02864
1350.12172,0.02857
1348.19297,0.02830
1346.26422,0.02782
1344.33548,0.02740
1342.40673,0.02721
1340.47799,0.02716
1338.54924,0.02718
1336.62050,0.02727
1334.69175,0.02750
1332.76301,0.02796
1330.83426,0.02863
1328.90552,0.02919
1326.97677,0.02917
1325.04803,0.02848
1323.11928,0.02757
1321.19054,0.02676
1319.26179,0.02612
1317.33304,0.02571
1315.40430,0.02566
1313.47555,0.02602
1311.54681,0.02658
1309.61806,0.02717
1307.68932,0.02778
1305.76057,0.02842
1303.83183,0.02911
1301.90308,0.02979
1299.97434,0.03037
1298.04559,0.03070
1296.11685,0.03072
1294.18810,0.03066
1292.25936,0.03071
1290.33061,0.03091
1288.40187,0.03117
1286.47312,0.03132
1284.54437,0.03123
1282.61563,0.03123
1280.68688,0.03195
1278.75814,0.03346
1276.82939,0.03504
1274.90065,0.03636
1272.97190,0.03766
1271.04316,0.03879
1269.11441,0.03935
1267.18567,0.03936
1265.25692,0.03922
1263.32818,0.03910
1261.39943,0.03897
1259.47069,0.03882
1257.54194,0.03873
1255.61320,0.03865
1253.68445,0.03843
1251.75570,0.03820
1249.82696,0.03821
1247.89821,0.03833
1245.96947,0.03824
1244.04072,0.03789
1242.11198,0.03731
1240.18323,0.03670
1238.25449,0.03622
1236.32574,0.03591
1234.39700,0.03598
1232.46825,0.03659
1230.53951,0.03763
1228.61076,0.03882
1226.68202,0.03988
1224.75327,0.04077
1222.82452,0.04174
1220.89578,0.04280
1218.96703,0.04371
1217.03829,0.04427
1215.10954,0.04432
1213.18080,0.04356
1211.25205,0.04200
1209.32331,0.04026
1207.39456,0.03917
1205.46582,0.03898
1203.53707,0.03941
1201.60833,0.04001
1199.67958,0.04076
1197.75084,0.04179
1195.82209,0.04289
1193.89335,0.04374
1191.96460,0.04422
1190.03585,0.04415
1188.10711,0.04337
1186.17836,0.04182
1184.24962,0.03957
1182.32087,0.03711
1180.39213,0.03518
1178.46338,0.03386
1176.53464,0.03293
1174.60589,0.03236
1172.67715,0.03240
1170.74840,0.03327
1168.81966,0.03457
1166.89091,0.03536
1164.96217,0.03520
1163.03342,0.03442
1161.10467,0.03328
1159.17593,0.03174
1157.24718,0.03009
1155.31844,0.02883
1153.38969,0.02794
1151.46095,0.02687
1149.53220,0.02538
1147.60346,0.02392
1145.67471,0.02291
1143.74597,0.02223
1141.81722,0.02179
1139.88848,0.02147
1137.95973,0.02104
1136.03099,0.02068
1134.10224,0.02058
1132.17350,0.02056
1130.24475,0.02068
1128.31600,0.02121
1126.38726,0.02205
1124.45851,0.02280
1122.52977,0.02327
1120.60102,0.02359
1118.67228,0.02398
1116.74353,0.02443
1114.81479,0.02478
1112.88604,0.02505
1110.95730,0.02547
1109.02855,0.02590
1107.09981,0.02599
1105.17106,0.02581
1103.24232,0.02561
1101.31357,0.02530
1099.38483,0.02484
1097.45608,0.02459
1095.52733,0.02479
1093.59859,0.02523
1091.66984,0.02554
1089.74110,0.02574
1087.81235,0.02631
1085.88361,0.02731
1083.95486,0.02832
1082.02612,0.02953
1080.09737,0.03119
1078.16863,0.03301
1076.23988,0.03488
1074.31114,0.03676
1072.38239,0.03847
1070.45365,0.04027
1068.52490,0.04260
1066.59615,0.04525
1064.66741,0.04782
1062.73866,0.04982
1060.80992,0.05058
1058.88117,0.04987
1056.95243,0.04830
1055.02368,0.04658
1053.09494,0.04487
1051.16619,0.04315
1049.23745,0.04160
1047.30870,0.04023
1045.37996,0.03906
1043.45121,0.03827
1041.52247,0.03822
1039.59372,0.03926
1037.66498,0.04097
1035.73623,0.04234
1033.80748,0.04277
1031.87874,0.04233
1029.94999,0.04129
1028.02125,0.03992
1026.09250,0.03854
1024.16376,0.03755
1022.23501,0.03698
1020.30627,0.03671
1018.37752,0.03703
1016.44878,0.03850
1014.52003,0.04102
1012.59129,0.04383
1010.66254,0.04634
1008.73380,0.04844
1006.80505,0.05018
1004.87631,0.05139
1002.94756,0.05183
1001.01881,0.05196
999.09007,0.05261
997.16132,0.05370
995.23258,0.05458
993.30383,0.05500
991.37509,0.05499
989.44634,0.05476
987.51760,0.05483
985.58885,0.05571
983.66011,0.05727
981.73136,0.05915
979.80262,0.06125
977.87387,0.06334
975.94513,0.06513
974.01638,0.06656
972.08763,0.06804
970.15889,0.07024
968.23014,0.07348
966.30140,0.07761
964.37265,0.08230
962.44391,0.08727
960.51516,0.09234
958.58642,0.09744
956.65767,0.10259
954.72893,0.10782
952.80018,0.11272
950.87144,0.11682
948.94269,0.12019
947.01395,0.12294
945.08520,0.12520
943.15646,0.12690
941.22771,0.12794
939.29896,0.12855
937.37022,0.12891
935.44147,0.12919
933.51273,0.12952
931.58398,0.12971
929.65524,0.12991
927.72649,0.13027
925.79775,0.13040
923.86900,0.13000
921.94026,0.12916
920.01151,0.12791
918.08277,0.12586
916.15402,0.12257
914.22528,0.11826
912.29653,0.11357
910.36779,0.10865
908.43904,0.10364
906.51029,0.09900
904.58155,0.09479
902.65280,0.09096
900.72406,0.08792
898.79531,0.08627
896.86657,0.08621
894.93782,0.08752
893.00908,0.09000
891.08033,0.09323
889.15159,0.09662
887.22284,0.09955
885.29410,0.10132
883.36535,0.10179
881.43661,0.10138
879.50786,0.10019
877.57911,0.09822
875.65037,0.09625
873.72162,0.09592
871.79288,0.09884
869.86413,0.10469
867.93539,0.11085
866.00664,0.11491
864.07790,0.11630
862.14915,0.11579
860.22041,0.11422
858.29166,0.11191
856.36292,0.10900
854.43417,0.10596
852.50543,0.10300
850.57668,0.10047
848.64794,0.09937
846.71919,0.10008
844.79044,0.10201
842.86170,0.10432
840.93295,0.10647
839.00421,0.10830
837.07546,0.10999
835.14672,0.11171
833.21797,0.11311
831.28923,0.11390
829.36048,0.11439
827.43174,0.11471
825.50299,0.11461
823.57425,0.11395
821.64550,0.11283
819.71676,0.11166
817.78801,0.11087
815.85926,0.11002
813.93052,0.10852
812.00177,0.10683
810.07303,0.10549
808.14428,0.10435
806.21554,0.10305
804.28679,0.10151
802.35805,0.09985
800.42930,0.09777
798.50056,0.09475
796.57181,0.09106
794.64307,0.08797
792.71432,0.08687
790.78558,0.08791
788.85683,0.08974
786.92809,0.09122
784.99934,0.09214
783.07059,0.09251
781.14185,0.09251
779.21310,0.09219
777.28436,0.09152
775.35561,0.09064
773.42687,0.08969
771.49812,0.08885
769.56938,0.08812
767.64063,0.08706
765.71189,0.08565
763.78314,0.08447
761.85440,0.08347
759.92565,0.08197
757.99691,0.08006
756.06816,0.07819
754.13942,0.07631
752.21067,0.07397
750.28192,0.07099
748.35318,0.06781
746.42443,0.06463
744.49569,0.06082
742.56694,0.05594
740.63820,0.05060
738.70945,0.04580
736.78071,0.04225
734.85196,0.03996
732.92322,0.03852
730.99447,0.03797
729.06573,0.03824
727.13698,0.03880
725.20824,0.03984
723.27949,0.04218
721.35074,0.04589
719.42200,0.05000
717.49325,0.05341
715.56451,0.05563
713.63576,0.05654
711.70702,0.05626
709.77827,0.05575
707.84953,0.05588
705.92078,0.05642
703.99204,0.05695
702.06329,0.05760
700.13455,0.05860
698.20580,0.05970
696.27706,0.06070
694.34831,0.06173
692.41957,0.06251
690.49082,0.06248
688.56207,0.06177
686.63333,0.06102
684.70458,0.06038
682.77584,0.05929
680.84709,0.05770
678.91835,0.05635
676.98960,0.05557
675.06086,0.05535
673.13211,0.05563
671.20337,0.05574
669.27462,0.05536
667.34588,0.05523
665.41713,0.05601
663.48839,0.05716
661.55964,0.05736
659.63090,0.05683
657.70215,0.05724
655.77340,0.05835
653.84466,0.05863
651.91591,0.05852
649.98717,0.05908
648.05842,0.05941
646.12968,0.05828
644.20093,0.05643
642.27219,0.05489
640.34344,0.05349
638.41470,0.05271
636.48595,0.05273
634.55721,0.05177
632.62846,0.04990
630.69972,0.04987
628.77097,0.05184
626.84222,0.05286
624.91348,0.05222
622.98473,0.05159
621.05599,0.05164
619.12724,0.05188
617.19850,0.05208
615.26975,0.05227
613.34101,0.05207
611.41226,0.05172
609.48352,0.05233
607.55477,0.05407
605.62603,0.05600
603.69728,0.05631
601.76854,0.05484
599.83979,0.05415
