7497.03301,0.68334
7495.10426,0.68325
7493.17552,0.68580
7491.24677,0.68901
7489.31803,0.69038
7487.38928,0.68792
7485.46054,0.68493
7483.53179,0.68520
7481.60305,0.68547
7479.67430,0.68225
7477.74556,0.67881
7475.81681,0.67875
7473.88807,0.68138
7471.95932,0.68511
7470.03057,0.68698
7468.10183,0.68505
7466.17308,0.68439
7464.24434,0.68751
7462.31559,0.68862
7460.38685,0.68644
7458.45810,0.68467
7456.52936,0.68339
7454.60061,0.68072
7452.67187,0.67841
7450.74312,0.67884
7448.81438,0.67818
7446.88563,0.67528
7444.95689,0.67625
7443.02814,0.67949
7441.09940,0.67871
7439.17065,0.67581
7437.24190,0.67261
7435.31316,0.66949
7433.38441,0.67126
7431.45567,0.67577
7429.52692,0.67668
7427.59818,0.67669
7425.66943,0.67937
7423.74069,0.68095
7421.81194,0.67757
7419.88320,0.67354
7417.95445,0.67400
7416.02571,0.67655
7414.09696,0.67685
7412.16822,0.67410
7410.23947,0.67146
7408.31073,0.67030
7406.38198,0.67018
7404.45323,0.67515
7402.52449,0.68210
7400.59574,0.67930
7398.66700,0.66842
7396.73825,0.66256
7394.80951,0.66589
7392.88076,0.67192
7390.95202,0.67407
7389.02327,0.67268
7387.09453,0.67170
7385.16578,0.67089
7383.23704,0.66901
7381.30829,0.66777
7379.37955,0.66651
7377.45080,0.66314
7375.52205,0.65872
7373.59331,0.65533
7371.66456,0.65390
7369.73582,0.65406
7367.80707,0.65596
7365.87833,0.66078
7363.94958,0.66666
7362.02084,0.66903
7360.09209,0.66602
7358.16335,0.65952
7356.23460,0.65439
7354.30586,0.65669
7352.37711,0.66562
7350.44837,0.67043
7348.51962,0.66510
7346.59088,0.65841
7344.66213,0.65910
7342.73338,0.66318
7340.80464,0.66310
7338.87589,0.65983
7336.94715,0.65853
7335.01840,0.66076
7333.08966,0.66518
7331.16091,0.66870
7329.23217,0.66735
7327.30342,0.65963
7325.37468,0.65186
7323.44593,0.65237
7321.51719,0.65902
7319.58844,0.66243
7317.65970,0.65855
7315.73095,0.65307
7313.80221,0.65228
7311.87346,0.65381
7309.94471,0.65305
7308.01597,0.65020
7306.08722,0.64797
7304.15848,0.64931
7302.22973,0.65472
7300.30099,0.66044
7298.37224,0.66106
7296.44350,0.65516
7294.51475,0.64757
7292.58601,0.64505
7290.65726,0.64749
7288.72852,0.64786
7286.79977,0.64383
7284.87103,0.64122
7282.94228,0.64406
7281.01353,0.64818
7279.08479,0.64864
7277.15604,0.64710
7275.22730,0.64711
7273.29855,0.64961
7271.36981,0.65235
7269.44106,0.65192
7267.51232,0.64941
7265.58357,0.64847
7263.65483,0.64910
7261.72608,0.65012
7259.79734,0.65078
7257.86859,0.64993
7255.93985,0.65011
7254.01110,0.65354
7252.08236,0.65588
7250.15361,0.65375
7248.22486,0.64993
7246.29612,0.64726
7244.36737,0.64648
7242.43863,0.64799
7240.50988,0.64892
7238.58114,0.64664
7236.65239,0.64463
7234.72365,0.64517
7232.79490,0.64664
7230.86616,0.64840
7228.93741,0.64886
7227.00867,0.64690
7225.07992,0.64516
7223.15118,0.64521
7221.22243,0.64662
7219.29369,0.64987
7217.36494,0.65384
7215.43619,0.65500
7213.50745,0.65270
7211.57870,0.64958
7209.64996,0.64586
7207.72121,0.64198
7205.79247,0.64052
7203.86372,0.64129
7201.93498,0.64283
7200.00623,0.64379
7198.07749,0.64441
7196.14874,0.64697
7194.22000,0.64978
7192.29125,0.65009
7190.36251,0.65043
7188.43376,0.65222
7186.50501,0.65144
7184.57627,0.64814
7182.64752,0.64805
7180.71878,0.65080
7178.79003,0.64998
7176.86129,0.64512
7174.93254,0.64271
7173.00380,0.64365
7171.07505,0.64330
7169.14631,0.64249
7167.21756,0.64285
7165.28882,0.64241
7163.36007,0.64171
7161.43133,0.64246
7159.50258,0.64273
7157.57384,0.64159
7155.64509,0.64225
7153.71634,0.64394
7151.78760,0.64251
7149.85885,0.63920
7147.93011,0.63746
7146.00136,0.63726
7144.07262,0.63818
7142.14387,0.64067
7140.21513,0.64220
7138.28638,0.63986
7136.35764,0.63564
7134.42889,0.63253
7132.50015,0.63192
7130.57140,0.63458
7128.64266,0.63695
7126.71391,0.63474
7124.78516,0.63045
7122.85642,0.62783
7120.92767,0.62828
7118.99893,0.63218
7117.07018,0.63536
7115.14144,0.63329
7113.21269,0.62911
7111.28395,0.62813
7109.35520,0.62889
7107.42646,0.62758
7105.49771,0.62539
7103.56897,0.62413
7101.64022,0.62335
7099.71148,0.62280
7097.78273,0.62201
7095.85399,0.62055
7093.92524,0.61866
7091.99649,0.61707
7090.06775,0.61718
7088.13900,0.61795
7086.21026,0.61663
7084.28151,0.61482
7082.35277,0.61545
7080.42402,0.61640
7078.49528,0.61525
7076.56653,0.61351
7074.63779,0.61235
7072.70904,0.61131
7070.78030,0.61015
7068.85155,0.60788
7066.92281,0.60492
7064.99406,0.60284
7063.06532,0.60080
7061.13657,0.59936
7059.20782,0.59906
7057.27908,0.59740
7055.35033,0.59503
7053.42159,0.59484
7051.49284,0.59697
7049.56410,0.60009
7047.63535,0.60190
7045.70661,0.59935
7043.77786,0.59276
7041.84912,0.58860
7039.92037,0.59117
7037.99163,0.59421
7036.06288,0.59169
7034.13414,0.58712
7032.20539,0.58373
7030.27664,0.58043
7028.34790,0.57780
7026.41915,0.57760
7024.49041,0.57996
7022.56166,0.58396
7020.63292,0.58693
7018.70417,0.58577
7016.77543,0.58188
7014.84668,0.57845
7012.91794,0.57626
7010.98919,0.57651
7009.06045,0.58031
7007.13170,0.58453
7005.20296,0.58397
7003.27421,0.57857
7001.34547,0.57349
6999.41672,0.57166
6997.48797,0.57196
6995.55923,0.57228
6993.63048,0.57218
6991.70174,0.57292
6989.77299,0.57361
6987.84425,0.57245
6985.91550,0.57045
6983.98676,0.56905
6982.05801,0.56783
6980.12927,0.56601
6978.20052,0.56369
6976.27178,0.56346
6974.34303,0.56710
6972.41429,0.57020
6970.48554,0.56922
6968.55680,0.56680
6966.62805,0.56443
6964.69930,0.56147
6962.77056,0.55940
6960.84181,0.55880
6958.91307,0.55735
6956.98432,0.55480
6955.05558,0.55336
6953.12683,0.55448
6951.19809,0.55948
6949.26934,0.56591
6947.34060,0.56704
6945.41185,0.56266
6943.48311,0.55960
6941.55436,0.55974
6939.62562,0.55937
6937.69687,0.55733
6935.76812,0.55614
6933.83938,0.55770
6931.91063,0.56074
6929.98189,0.56212
6928.05314,0.56130
6926.12440,0.56078
6924.19565,0.55923
6922.26691,0.55342
6920.33816,0.54837
6918.40942,0.54994
6916.48067,0.55403
6914.55193,0.55516
6912.62318,0.55366
6910.69444,0.55194
6908.76569,0.55121
6906.83695,0.55104
6904.90820,0.55237
6902.97945,0.55603
6901.05071,0.55810
6899.12196,0.55550
6897.19322,0.55118
6895.26447,0.54842
6893.33573,0.54703
6891.40698,0.54658
6889.47824,0.54890
6887.54949,0.55315
6885.62075,0.55394
6883.69200,0.55122
6881.76326,0.55062
6879.83451,0.55281
6877.90577,0.55380
6875.97702,0.55302
6874.04828,0.55293
6872.11953,0.55258
6870.19078,0.54997
6868.26204,0.54632
6866.33329,0.54400
6864.40455,0.54513
6862.47580,0.54885
6860.54706,0.55186
6858.61831,0.55200
6856.68957,0.54888
6854.76082,0.54611
6852.83208,0.54740
6850.90333,0.54973
6848.97459,0.54900
6847.04584,0.54677
6845.11710,0.54566
6843.18835,0.54574
6841.25960,0.54588
6839.33086,0.54537
6837.40211,0.54518
6835.47337,0.54464
6833.54462,0.54194
6831.61588,0.53935
6829.68713,0.53946
6827.75839,0.54012
6825.82964,0.53908
6823.90090,0.53822
6821.97215,0.53887
6820.04341,0.53986
6818.11466,0.53992
6816.18592,0.53874
6814.25717,0.53810
6812.32843,0.53848
6810.39968,0.53798
6808.47093,0.53782
6806.54219,0.53994
6804.61344,0.54194
6802.68470,0.54069
6800.75595,0.53585
6798.82721,0.53086
6796.89846,0.52979
6794.96972,0.53058
6793.04097,0.52999
6791.11223,0.52947
6789.18348,0.52998
6787.25474,0.53064
6785.32599,0.53059
6783.39725,0.53008
6781.46850,0.53035
6779.53975,0.53117
6777.61101,0.53096
6775.68226,0.52953
6773.75352,0.52904
6771.82477,0.53002
6769.89603,0.53077
6767.96728,0.53012
6766.03854,0.52741
6764.10979,0.52420
6762.18105,0.52276
6760.25230,0.52254
6758.32356,0.52297
6756.39481,0.52514
6754.46607,0.52830
6752.53732,0.52918
6750.60858,0.52683
6748.67983,0.52496
6746.75108,0.52631
6744.82234,0.52907
6742.89359,0.53030
6740.96485,0.52949
6739.03610,0.52897
6737.10736,0.52989
6735.17861,0.52935
6733.24987,0.52664
6731.32112,0.52551
6729.39238,0.52704
6727.46363,0.52816
6725.53489,0.52631
6723.60614,0.52280
6721.67740,0.52138
6719.74865,0.52202
6717.81991,0.52213
6715.89116,0.52153
6713.96241,0.51968
6712.03367,0.51784
6710.10492,0.51954
6708.17618,0.52359
6706.24743,0.52639
6704.31869,0.52646
6702.38994,0.52538
6700.46120,0.52584
6698.53245,0.52640
6696.60371,0.52510
6694.67496,0.52388
6692.74622,0.52470
6690.81747,0.52599
6688.88873,0.52522
6686.95998,0.52389
6685.03123,0.52529
6683.10249,0.52763
6681.17374,0.52651
6679.24500,0.52260
6677.31625,0.52050
6675.38751,0.52234
6673.45876,0.52590
6671.53002,0.52860
6669.60127,0.53069
6667.67253,0.53135
6665.74378,0.52918
6663.81504,0.52705
6661.88629,0.52750
6659.95755,0.52899
6658.02880,0.53018
6656.10006,0.53141
6654.17131,0.53269
6652.24256,0.53358
6650.31382,0.53303
6648.38507,0.53119
6646.45633,0.53057
6644.52758,0.53128
6642.59884,0.53132
6640.67009,0.53078
6638.74135,0.52955
6636.81260,0.52810
6634.88386,0.52868
6632.95511,0.53082
6631.02637,0.53190
6629.09762,0.53140
6627.16888,0.53200
6625.24013,0.53499
6623.31139,0.53662
6621.38264,0.53557
6619.45389,0.53584
6617.52515,0.53743
6615.59640,0.53674
6613.66766,0.53433
6611.73891,0.53229
6609.81017,0.53166
6607.88142,0.53384
6605.95268,0.53797
6604.02393,0.54055
6602.09519,0.53948
6600.16644,0.53695
6598.23770,0.53689
6596.30895,0.53886
6594.38021,0.53909
6592.45146,0.53677
6590.52271,0.53540
6588.59397,0.53709
6586.66522,0.53974
6584.73648,0.54103
6582.80773,0.54044
6580.87899,0.53916
6578.95024,0.53878
6577.02150,0.53888
6575.09275,0.53839
6573.16401,0.53706
6571.23526,0.53652
6569.30652,0.53853
6567.37777,0.54037
6565.44903,0.53955
6563.52028,0.53946
6561.59154,0.54155
6559.66279,0.54151
6557.73404,0.53872
6555.80530,0.53779
6553.87655,0.53905
6551.94781,0.53930
6550.01906,0.53884
6548.09032,0.53926
6546.16157,0.53956
6544.23283,0.53865
6542.30408,0.53799
6540.37534,0.53941
6538.44659,0.54058
6536.51785,0.53879
6534.58910,0.53654
6532.66036,0.53645
6530.73161,0.53750
6528.80287,0.53820
6526.87412,0.53901
6524.94537,0.54077
6523.01663,0.54218
6521.08788,0.54117
6519.15914,0.53907
6517.23039,0.53889
6515.30165,0.53963
6513.37290,0.53910
6511.44416,0.53874
6509.51541,0.54015
6507.58667,0.54199
6505.65792,0.54189
6503.72918,0.54023
6501.80043,0.54023
6499.87169,0.54271
6497.94294,0.54546
6496.01419,0.54652
6494.08545,0.54507
6492.15670,0.54240
6490.22796,0.54025
6488.29921,0.53886
6486.37047,0.53942
6484.44172,0.54111
6482.51298,0.54058
6480.58423,0.53874
6478.65549,0.53757
6476.72674,0.53749
6474.79800,0.53994
6472.86925,0.54296
6470.94051,0.54301
6469.01176,0.54180
6467.08302,0.54158
6465.15427,0.54147
6463.22552,0.54078
6461.29678,0.53970
6459.36803,0.53827
6457.43929,0.53747
6455.51054,0.53874
6453.58180,0.54116
6451.65305,0.54251
6449.72431,0.54249
6447.79556,0.54193
6445.86682,0.54233
6443.93807,0.54394
6442.00933,0.54387
6440.08058,0.54145
6438.15184,0.54007
6436.22309,0.54116
6434.29434,0.54251
6432.36560,0.54290
6430.43685,0.54285
6428.50811,0.54219
6426.57936,0.54166
6424.65062,0.54170
6422.72187,0.54139
6420.79313,0.54114
6418.86438,0.54095
6416.93564,0.54075
6415.00689,0.54163
6413.07815,0.54320
6411.14940,0.54449
6409.22066,0.54493
6407.29191,0.54414
6405.36317,0.54289
6403.43442,0.54255
6401.50567,0.54316
6399.57693,0.54312
6397.64818,0.54183
6395.71944,0.54078
6393.79069,0.54128
6391.86195,0.54295
6389.93320,0.54416
6388.00446,0.54471
6386.07571,0.54558
6384.14697,0.54588
6382.21822,0.54549
6380.28948,0.54629
6378.36073,0.54761
6376.43199,0.54687
6374.50324,0.54515
6372.57450,0.54573
6370.64575,0.54675
6368.71700,0.54450
6366.78826,0.54182
6364.85951,0.54295
6362.93077,0.54611
6361.00202,0.54751
6359.07328,0.54630
6357.14453,0.54438
6355.21579,0.54412
6353.28704,0.54538
6351.35830,0.54606
6349.42955,0.54585
6347.50081,0.54642
6345.57206,0.54790
6343.64332,0.54859
6341.71457,0.54752
6339.78582,0.54567
6337.85708,0.54487
6335.92833,0.54485
6333.99959,0.54456
6332.07084,0.54421
6330.14210,0.54401
6328.21335,0.54505
6326.28461,0.54686
6324.35586,0.54751
6322.42712,0.54777
6320.49837,0.54801
6318.56963,0.54737
6316.64088,0.54715
6314.71214,0.54913
6312.78339,0.55224
6310.85465,0.55294
6308.92590,0.55069
6306.99715,0.54845
6305.06841,0.54718
6303.13966,0.54589
6301.21092,0.54483
6299.28217,0.54482
6297.35343,0.54582
6295.42468,0.54731
6293.49594,0.54887
6291.56719,0.55016
6289.63845,0.55063
6287.70970,0.55070
6285.78096,0.55176
6283.85221,0.55376
6281.92347,0.55506
6279.99472,0.55487
6278.06598,0.55444
6276.13723,0.55516
6274.20848,0.55682
6272.27974,0.55791
6270.35099,0.55728
6268.42225,0.55617
6266.49350,0.55581
6264.56476,0.55530
6262.63601,0.55468
6260.70727,0.55511
6258.77852,0.55580
6256.84978,0.55583
6254.92103,0.55666
6252.99229,0.55847
6251.06354,0.55913
6249.13480,0.55810
6247.20605,0.55713
6245.27730,0.55768
6243.34856,0.55889
6241.41981,0.55921
6239.49107,0.55966
6237.56232,0.56109
6235.63358,0.56208
6233.70483,0.56183
6231.77609,0.56166
6229.84734,0.56249
6227.91860,0.56392
6225.98985,0.56610
6224.06111,0.56814
6222.13236,0.56743
6220.20362,0.56488
6218.27487,0.56369
6216.34613,0.56448
6214.41738,0.56648
6212.48863,0.56886
6210.55989,0.57045
6208.63114,0.57074
6206.70240,0.56958
6204.77365,0.56759
6202.84491,0.56662
6200.91616,0.56779
6198.98742,0.57043
6197.05867,0.57293
6195.12993,0.57371
6193.20118,0.57261
6191.27244,0.57070
6189.34369,0.56972
6187.41495,0.57063
6185.48620,0.57230
6183.55746,0.57445
6181.62871,0.57679
6179.69996,0.57749
6177.77122,0.57697
6175.84247,0.57685
6173.91373,0.57682
6171.98498,0.57660
6170.05624,0.57717
6168.12749,0.57866
6166.19875,0.58057
6164.27000,0.58257
6162.34126,0.58378
6160.41251,0.58413
6158.48377,0.58437
6156.55502,0.58463
6154.62628,0.58444
6152.69753,0.58352
6150.76878,0.58272
6148.84004,0.58288
6146.91129,0.58380
6144.98255,0.58445
6143.05380,0.58479
6141.12506,0.58617
6139.19631,0.58750
6137.26757,0.58709
6135.33882,0.58662
6133.41008,0.58787
6131.48133,0.58982
6129.55259,0.59093
6127.62384,0.59129
6125.69510,0.59065
6123.76635,0.58877
6121.83761,0.58697
6119.90886,0.58643
6117.98011,0.58790
6116.05137,0.59073
6114.12262,0.59233
6112.19388,0.59164
6110.26513,0.59036
6108.33639,0.59011
6106.40764,0.59053
6104.47890,0.59006
6102.55015,0.58786
6100.62141,0.58518
6098.69266,0.58313
6096.76392,0.58174
6094.83517,0.58161
6092.90643,0.58169
6090.97768,0.58046
6089.04893,0.57912
6087.12019,0.57852
6085.19144,0.57818
6083.26270,0.57827
6081.33395,0.57882
6079.40521,0.57906
6077.47646,0.57834
6075.54772,0.57734
6073.61897,0.57704
6071.69023,0.57628
6069.76148,0.57451
6067.83274,0.57381
6065.90399,0.57357
6063.97525,0.57138
6062.04650,0.56869
6060.11776,0.56716
6058.18901,0.56514
6056.26026,0.56208
6054.33152,0.56056
6052.40277,0.56176
6050.47403,0.56265
6048.54528,0.56094
6046.61654,0.55923
6044.68779,0.55976
6042.75905,0.56057
6040.83030,0.55978
6038.90156,0.55780
6036.97281,0.55553
6035.04407,0.55350
6033.11532,0.55171
6031.18658,0.55066
6029.25783,0.54993
6027.32909,0.54878
6025.40034,0.54887
6023.47159,0.55029
6021.54285,0.55056
6019.61410,0.54973
6017.68536,0.54931
6015.75661,0.54922
6013.82787,0.54935
6011.89912,0.55045
6009.97038,0.55267
6008.04163,0.55500
6006.11289,0.55655
6004.18414,0.55750
6002.25540,0.55835
6000.32665,0.55961
5998.39791,0.56124
5996.46916,0.56301
5994.54041,0.56559
5992.61167,0.56866
5990.68292,0.57076
5988.75418,0.57142
5986.82543,0.57141
5984.89669,0.57188
5982.96794,0.57278
5981.03920,0.57363
5979.11045,0.57489
5977.18171,0.57589
5975.25296,0.57592
5973.32422,0.57596
5971.39547,0.57669
5969.46673,0.57789
5967.53798,0.57924
5965.60924,0.58025
5963.68049,0.58127
5961.75174,0.58282
5959.82300,0.58403
5957.89425,0.58388
5955.96551,0.58281
5954.03676,0.58190
5952.10802,0.58228
5950.17927,0.58415
5948.25053,0.58494
5946.32178,0.58332
5944.39304,0.58184
5942.46429,0.58118
5940.53555,0.58063
5938.60680,0.58206
5936.67806,0.58497
5934.74931,0.58603
5932.82057,0.58510
5930.89182,0.58432
5928.96307,0.58451
5927.03433,0.58514
5925.10558,0.58550
5923.17684,0.58628
5921.24809,0.58780
5919.31935,0.58846
5917.39060,0.58810
5915.46186,0.58825
5913.53311,0.58936
5911.60437,0.59101
5909.67562,0.59263
5907.74688,0.59310
5905.81813,0.59175
5903.88939,0.58985
5901.96064,0.58848
5900.03189,0.58734
5898.10315,0.58676
5896.17440,0.58682
5894.24566,0.58633
5892.31691,0.58535
5890.38817,0.58536
5888.45942,0.58601
5886.53068,0.58527
5884.60193,0.58282
5882.67319,0.58016
5880.74444,0.57864
5878.81570,0.57910
5876.88695,0.58058
5874.95821,0.58081
5873.02946,0.57979
5871.10072,0.57892
5869.17197,0.57792
5867.24322,0.57709
5865.31448,0.57760
5863.38573,0.57825
5861.45699,0.57732
5859.52824,0.57545
5857.59950,0.57453
5855.67075,0.57540
5853.74201,0.57710
5851.81326,0.57831
5849.88452,0.57845
5847.95577,0.57803
5846.02703,0.57786
5844.09828,0.57772
5842.16954,0.57754
5840.24079,0.57762
5838.31205,0.57775
5836.38330,0.57756
5834.45455,0.57664
5832.52581,0.57527
5830.59706,0.57452
5828.66832,0.57457
5826.73957,0.57442
5824.81083,0.57388
5822.88208,0.57387
5820.95334,0.57447
5819.02459,0.57498
5817.09585,0.57552
5815.16710,0.57617
5813.23836,0.57620
5811.30961,0.57558
5809.38087,0.57512
5807.45212,0.57514
5805.52337,0.57518
5803.59463,0.57418
5801.66588,0.57214
5799.73714,0.57108
5797.80839,0.57149
5795.87965,0.57203
5793.95090,0.57209
5792.02216,0.57173
5790.09341,0.57147
5788.16467,0.57163
5786.23592,0.57121
5784.30718,0.57032
5782.37843,0.57041
5780.44969,0.57116
5778.52094,0.57168
5776.59220,0.57203
5774.66345,0.57186
5772.73470,0.57112
5770.80596,0.57105
5768.87721,0.57212
5766.94847,0.57303
5765.01972,0.57258
5763.09098,0.57151
5761.16223,0.57162
5759.23349,0.57310
5757.30474,0.57412
5755.37600,0.57432
5753.44725,0.57481
5751.51851,0.57539
5749.58976,0.57532
5747.66102,0.57494
5745.73227,0.57485
5743.80352,0.57476
5741.87478,0.57478
5739.94603,0.57539
5738.01729,0.57577
5736.08854,0.57543
5734.15980,0.57532
5732.23105,0.57589
5730.30231,0.57602
5728.37356,0.57548
5726.44482,0.57640
5724.51607,0.57910
5722.58733,0.58081
5720.65858,0.58009
5718.72984,0.57843
5716.80109,0.57769
5714.87235,0.57750
5712.94360,0.57682
5711.01485,0.57676
5709.08611,0.57794
5707.15736,0.57874
5705.22862,0.57885
5703.29987,0.57938
5701.37113,0.57910
5699.44238,0.57736
5697.51364,0.57662
5695.58489,0.57728
5693.65615,0.57778
5691.72740,0.57807
5689.79866,0.57807
5687.86991,0.57756
5685.94117,0.57714
5684.01242,0.57728
5682.08368,0.57772
5680.15493,0.57782
5678.22618,0.57760
5676.29744,0.57791
5674.36869,0.57892
5672.43995,0.57941
5670.51120,0.57857
5668.58246,0.57763
5666.65371,0.57785
5664.72497,0.57877
5662.79622,0.57949
5660.86748,0.57929
5658.93873,0.57830
5657.00999,0.57802
5655.08124,0.57837
5653.15250,0.57809
5651.22375,0.57801
5649.29500,0.57840
5647.36626,0.57808
5645.43751,0.57779
5643.50877,0.57851
5641.58002,0.57939
5639.65128,0.57988
5637.72253,0.58003
5635.79379,0.57954
5633.86504,0.57870
5631.93630,0.57874
5630.00755,0.57983
5628.07881,0.58076
5626.15006,0.58101
5624.22132,0.58102
5622.29257,0.58109
5620.36383,0.58157
5618.43508,0.58231
5616.50633,0.58257
5614.57759,0.58243
5612.64884,0.58263
5610.72010,0.58312
5608.79135,0.58301
5606.86261,0.58266
5604.93386,0.58318
5603.00512,0.58399
5601.07637,0.58410
5599.14763,0.58400
5597.21888,0.58407
5595.29014,0.58399
5593.36139,0.58378
5591.43265,0.58363
5589.50390,0.58361
5587.57516,0.58369
5585.64641,0.58371
5583.71766,0.58303
5581.78892,0.58175
5579.86017,0.58126
5577.93143,0.58173
5576.00268,0.58213
5574.07394,0.58202
5572.14519,0.58180
5570.21645,0.58205
5568.28770,0.58214
5566.35896,0.58185
5564.43021,0.58191
5562.50147,0.58187
5560.57272,0.58171
5558.64398,0.58250
5556.71523,0.58394
5554.78648,0.58466
5552.85774,0.58440
5550.92899,0.58395
5549.00025,0.58356
5547.07150,0.58326
5545.14276,0.58307
5543.21401,0.58299
5541.28527,0.58320
5539.35652,0.58317
5537.42778,0.58272
5535.49903,0.58264
5533.57029,0.58316
5531.64154,0.58378
5529.71280,0.58407
5527.78405,0.58437
5525.85531,0.58479
5523.92656,0.58451
5521.99781,0.58387
5520.06907,0.58412
5518.14032,0.58494
5516.21158,0.58551
5514.28283,0.58586
5512.35409,0.58557
5510.42534,0.58421
5508.49660,0.58281
5506.56785,0.58239
5504.63911,0.58287
5502.71036,0.58385
5500.78162,0.58473
5498.85287,0.58479
5496.92413,0.58421
5494.99538,0.58384
5493.06664,0.58355
5491.13789,0.58306
5489.20914,0.58315
5487.28040,0.58380
5485.35165,0.58405
5483.42291,0.58412
5481.49416,0.58436
5479.56542,0.58407
5477.63667,0.58322
5475.70793,0.58273
5473.77918,0.58276
5471.85044,0.58282
5469.92169,0.58263
5467.99295,0.58240
5466.06420,0.58259
5464.13546,0.58335
5462.20671,0.58457
5460.27796,0.58533
5458.34922,0.58495
5456.42047,0.58453
5454.49173,0.58546
5452.56298,0.58749
5450.63424,0.58877
5448.70549,0.58822
5446.77675,0.58750
5444.84800,0.58830
5442.91926,0.58971
5440.99051,0.59041
5439.06177,0.59064
5437.13302,0.59100
5435.20428,0.59136
5433.27553,0.59145
5431.34679,0.59147
5429.41804,0.59201
5427.48929,0.59289
5425.56055,0.59342
5423.63180,0.59380
5421.70306,0.59444
5419.77431,0.59521
5417.84557,0.59561
5415.91682,0.59562
5413.98808,0.59580
5412.05933,0.59605
5410.13059,0.59602
5408.20184,0.59607
5406.27310,0.59660
5404.34435,0.59720
5402.41561,0.59727
5400.48686,0.59741
5398.55811,0.59817
5396.62937,0.59901
5394.70062,0.59989
5392.77188,0.60092
5390.84313,0.60126
5388.91439,0.60086
5386.98564,0.60058
5385.05690,0.60091
5383.12815,0.60126
5381.19941,0.60099
5379.27066,0.60066
5377.34192,0.60094
5375.41317,0.60127
5373.48443,0.60107
5371.55568,0.60110
5369.62694,0.60186
5367.69819,0.60195
5365.76944,0.60057
5363.84070,0.59930
5361.91195,0.59909
5359.98321,0.59943
5358.05446,0.60005
5356.12572,0.60082
5354.19697,0.60115
5352.26823,0.60077
5350.33948,0.60049
5348.41074,0.60085
5346.48199,0.60093
5344.55325,0.60056
5342.62450,0.60063
5340.69576,0.60062
5338.76701,0.59998
5336.83827,0.59962
5334.90952,0.59970
5332.98077,0.59944
5331.05203,0.59869
5329.12328,0.59799
5327.19454,0.59775
5325.26579,0.59758
5323.33705,0.59713
5321.40830,0.59686
5319.47956,0.59691
5317.55081,0.59686
5315.62207,0.59665
5313.69332,0.59630
5311.76458,0.59556
5309.83583,0.59451
5307.90709,0.59372
5305.97834,0.59297
5304.04959,0.59155
5302.12085,0.58978
5300.19210,0.58827
5298.26336,0.58707
5296.33461,0.58626
5294.40587,0.58567
5292.47712,0.58453
5290.54838,0.58300
5288.61963,0.58186
5286.69089,0.58068
5284.76214,0.57899
5282.83340,0.57714
5280.90465,0.57518
5278.97591,0.57310
5277.04716,0.57111
5275.11842,0.56913
5273.18967,0.56702
5271.26092,0.56471
5269.33218,0.56237
5267.40343,0.56074
5265.47469,0.55992
5263.54594,0.55826
5261.61720,0.55521
5259.68845,0.55220
5257.75971,0.55005
5255.83096,0.54841
5253.90222,0.54681
5251.97347,0.54503
5250.04473,0.54304
5248.11598,0.54102
5246.18724,0.53922
5244.25849,0.53734
5242.32975,0.53509
5240.40100,0.53285
5238.47225,0.53104
5236.54351,0.52980
5234.61476,0.52891
5232.68602,0.52785
5230.75727,0.52669
5228.82853,0.52550
5226.89978,0.52396
5224.97104,0.52217
5223.04229,0.52020
5221.11355,0.51845
5219.18480,0.51773
5217.25606,0.51757
5215.32731,0.51701
5213.39857,0.51637
5211.46982,0.51600
5209.54107,0.51530
5207.61233,0.51396
5205.68358,0.51282
5203.75484,0.51259
5201.82609,0.51285
5199.89735,0.51284
5197.96860,0.51219
5196.03986,0.51139
5194.11111,0.51121
5192.18237,0.51118
5190.25362,0.51018
5188.32488,0.50909
5186.39613,0.50961
5184.46739,0.51067
5182.53864,0.51037
5180.60990,0.50956
5178.68115,0.50948
5176.75240,0.50964
5174.82366,0.50967
5172.89491,0.50984
5170.96617,0.51015
5169.03742,0.51060
5167.10868,0.51095
5165.17993,0.51085
5163.25119,0.51074
5161.32244,0.51096
5159.39370,0.51131
5157.46495,0.51174
5155.53621,0.51209
5153.60746,0.51232
5151.67872,0.51275
5149.74997,0.51321
5147.82123,0.51338
5145.89248,0.51352
5143.96373,0.51398
5142.03499,0.51461
5140.10624,0.51482
5138.17750,0.51483
5136.24875,0.51555
5134.32001,0.51623
5132.39126,0.51579
5130.46252,0.51526
5128.53377,0.51600
5126.60503,0.51759
5124.67628,0.51867
5122.74754,0.51896
5120.81879,0.51953
5118.89005,0.52058
5116.96130,0.52124
5115.03255,0.52175
5113.10381,0.52280
5111.17506,0.52408
5109.24632,0.52510
5107.31757,0.52587
5105.38883,0.52664
5103.46008,0.52741
5101.53134,0.52825
5099.60259,0.52937
5097.67385,0.53019
5095.74510,0.53018
5093.81636,0.53031
5091.88761,0.53138
5089.95887,0.53271
5088.03012,0.53377
5086.10138,0.53494
5084.17263,0.53607
5082.24388,0.53660
5080.31514,0.53658
5078.38639,0.53642
5076.45765,0.53661
5074.52890,0.53764
5072.60016,0.53910
5070.67141,0.53990
5068.74267,0.53991
5066.81392,0.54004
5064.88518,0.54078
5062.95643,0.54178
5061.02769,0.54240
5059.09894,0.54235
5057.17020,0.54218
5055.24145,0.54280
5053.31270,0.54407
5051.38396,0.54509
5049.45521,0.54530
5047.52647,0.54476
5045.59772,0.54432
5043.66898,0.54504
5041.74023,0.54659
5039.81149,0.54746
5037.88274,0.54732
5035.95400,0.54723
5034.02525,0.54780
5032.09651,0.54860
5030.16776,0.54887
5028.23902,0.54858
5026.31027,0.54846
5024.38153,0.54895
5022.45278,0.54957
5020.52403,0.54976
5018.59529,0.54993
5016.66654,0.55052
5014.73780,0.55079
5012.80905,0.55005
5010.88031,0.54903
5008.95156,0.54877
5007.02282,0.54914
5005.09407,0.54981
5003.16533,0.55036
5001.23658,0.55036
4999.30784,0.55029
4997.37909,0.55041
4995.45035,0.55036
4993.52160,0.55029
4991.59286,0.54997
4989.66411,0.54912
4987.73536,0.54862
4985.80662,0.54873
4983.87787,0.54864
4981.94913,0.54814
4980.02038,0.54761
4978.09164,0.54725
4976.16289,0.54677
4974.23415,0.54618
4972.30540,0.54595
4970.37666,0.54571
4968.44791,0.54480
4966.51917,0.54332
4964.59042,0.54156
4962.66168,0.54007
4960.73293,0.53951
4958.80418,0.53951
4956.87544,0.53922
4954.94669,0.53844
4953.01795,0.53733
4951.08920,0.53614
4949.16046,0.53509
4947.23171,0.53402
4945.30297,0.53262
4943.37422,0.53097
4941.44548,0.52937
4939.51673,0.52795
4937.58799,0.52672
4935.65924,0.52538
4933.73050,0.52399
4931.80175,0.52305
4929.87301,0.52220
4927.94426,0.52081
4926.01551,0.51879
4924.08677,0.51629
4922.15802,0.51393
4920.22928,0.51216
4918.30053,0.51047
4916.37179,0.50836
4914.44304,0.50609
4912.51430,0.50375
4910.58555,0.50152
4908.65681,0.50000
4906.72806,0.49891
4904.79932,0.49755
4902.87057,0.49605
4900.94183,0.49429
4899.01308,0.49197
4897.08434,0.48949
4895.15559,0.48739
4893.22684,0.48533
4891.29810,0.48271
4889.36935,0.48015
4887.44061,0.47830
4885.51186,0.47677
4883.58312,0.47538
4881.65437,0.47407
4879.72563,0.47237
4877.79688,0.47040
4875.86814,0.46847
4873.93939,0.46676
4872.01065,0.46538
4870.08190,0.46418
4868.15316,0.46302
4866.22441,0.46134
4864.29566,0.45889
4862.36692,0.45651
4860.43817,0.45467
4858.50943,0.45306
4856.58068,0.45171
4854.65194,0.45066
4852.72319,0.44929
4850.79445,0.44737
4848.86570,0.44586
4846.93696,0.44526
4845.00821,0.44454
4843.07947,0.44298
4841.15072,0.44114
4839.22198,0.43954
4837.29323,0.43805
4835.36449,0.43655
4833.43574,0.43489
4831.50699,0.43294
4829.57825,0.43097
4827.64950,0.42930
4825.72076,0.42784
4823.79201,0.42648
4821.86327,0.42539
4819.93452,0.42465
4818.00578,0.42416
4816.07703,0.42354
4814.14829,0.42217
4812.21954,0.42018
4810.29080,0.41835
4808.36205,0.41703
4806.43331,0.41623
4804.50456,0.41565
4802.57582,0.41491
4800.64707,0.41422
4798.71832,0.41372
4796.78958,0.41299
4794.86083,0.41215
4792.93209,0.41145
4791.00334,0.41050
4789.07460,0.40953
4787.14585,0.40924
4785.21711,0.40934
4783.28836,0.40937
4781.35962,0.40937
4779.43087,0.40903
4777.50213,0.40802
4775.57338,0.40700
4773.64464,0.40689
4771.71589,0.40749
4769.78714,0.40762
4767.85840,0.40703
4765.92965,0.40654
4764.00091,0.40639
4762.07216,0.40602
4760.14342,0.40506
4758.21467,0.40384
4756.28593,0.40301
4754.35718,0.40301
4752.42844,0.40363
4750.49969,0.40395
4748.57095,0.40361
4746.64220,0.40314
4744.71346,0.40292
4742.78471,0.40305
4740.85597,0.40320
4738.92722,0.40297
4736.99847,0.40247
4735.06973,0.40218
4733.14098,0.40231
4731.21224,0.40245
4729.28349,0.40219
4727.35475,0.40162
4725.42600,0.40130
4723.49726,0.40154
4721.56851,0.40189
4719.63977,0.40191
4717.71102,0.40167
4715.78228,0.40146
4713.85353,0.40180
4711.92479,0.40266
4709.99604,0.40344
4708.06729,0.40380
4706.13855,0.40379
4704.20980,0.40380
4702.28106,0.40388
4700.35231,0.40351
4698.42357,0.40261
4696.49482,0.40167
4694.56608,0.40108
4692.63733,0.40110
4690.70859,0.40174
4688.77984,0.40276
4686.85110,0.40385
4684.92235,0.40492
4682.99361,0.40609
4681.06486,0.40755
4679.13612,0.40948
4677.20737,0.41183
4675.27862,0.41427
4673.34988,0.41672
4671.42113,0.41914
4669.49239,0.42113
4667.56364,0.42228
4665.63490,0.42287
4663.70615,0.42360
4661.77741,0.42446
4659.84866,0.42507
4657.91992,0.42569
4655.99117,0.42637
4654.06243,0.42674
4652.13368,0.42674
4650.20494,0.42669
4648.27619,0.42676
4646.34745,0.42649
4644.41870,0.42583
4642.48995,0.42546
4640.56121,0.42550
4638.63246,0.42555
4636.70372,0.42535
4634.77497,0.42517
4632.84623,0.42582
4630.91748,0.42758
4628.98874,0.42942
4627.05999,0.43063
4625.13125,0.43207
4623.20250,0.43433
4621.27376,0.43692
4619.34501,0.43943
4617.41627,0.44172
4615.48752,0.44375
4613.55877,0.44544
4611.63003,0.44665
4609.70128,0.44736
4607.77254,0.44772
4605.84379,0.44809
4603.91505,0.44869
4601.98630,0.44918
4600.05756,0.44916
4598.12881,0.44878
4596.20007,0.44863
4594.27132,0.44884
4592.34258,0.44876
4590.41383,0.44835
4588.48509,0.44842
4586.55634,0.44909
4584.62760,0.44982
4582.69885,0.45041
4580.77010,0.45092
4578.84136,0.45143
4576.91261,0.45209
4574.98387,0.45341
4573.05512,0.45557
4571.12638,0.45796
4569.19763,0.45995
4567.26889,0.46153
4565.34014,0.46294
4563.41140,0.46428
4561.48265,0.46568
4559.55391,0.46700
4557.62516,0.46782
4555.69642,0.46830
4553.76767,0.46887
4551.83893,0.46943
4549.91018,0.46983
4547.98143,0.47036
4546.05269,0.47121
4544.12394,0.47191
4542.19520,0.47220
4540.26645,0.47256
4538.33771,0.47304
4536.40896,0.47336
4534.48022,0.47379
4532.55147,0.47452
4530.62273,0.47505
4528.69398,0.47488
4526.76524,0.47429
4524.83649,0.47401
4522.90775,0.47424
4520.97900,0.47457
4519.05025,0.47460
4517.12151,0.47441
4515.19276,0.47428
4513.26402,0.47423
4511.33527,0.47420
4509.40653,0.47400
4507.47778,0.47326
4505.54904,0.47199
4503.62029,0.47073
4501.69155,0.46964
4499.76280,0.46825
4497.83406,0.46658
4495.90531,0.46495
4493.97657,0.46324
4492.04782,0.46153
4490.11908,0.46012
4488.19033,0.45886
4486.26158,0.45751
4484.33284,0.45619
4482.40409,0.45526
4480.47535,0.45469
4478.54660,0.45402
4476.61786,0.45267
4474.68911,0.45051
4472.76037,0.44816
4470.83162,0.44598
4468.90288,0.44357
4466.97413,0.44074
4465.04539,0.43742
4463.11664,0.43348
4461.18790,0.42945
4459.25915,0.42627
4457.33041,0.42381
4455.40166,0.42178
4453.47291,0.42065
4451.54417,0.42017
4449.61542,0.41911
4447.68668,0.41703
4445.75793,0.41469
4443.82919,0.41237
4441.90044,0.40953
4439.97170,0.40647
4438.04295,0.40401
4436.11421,0.40178
4434.18546,0.39927
4432.25672,0.39703
4430.32797,0.39544
4428.39923,0.39408
4426.47048,0.39283
4424.54173,0.39193
4422.61299,0.39111
4420.68424,0.39006
4418.75550,0.38878
4416.82675,0.38719
4414.89801,0.38556
4412.96926,0.38413
4411.04052,0.38242
4409.11177,0.38036
4407.18303,0.37845
4405.25428,0.37681
4403.32554,0.37547
4401.39679,0.37469
4399.46805,0.37457
4397.53930,0.37504
4395.61056,0.37585
4393.68181,0.37675
4391.75306,0.37780
4389.82432,0.37910
4387.89557,0.38036
4385.96683,0.38172
4384.03808,0.38340
4382.10934,0.38493
4380.18059,0.38611
4378.25185,0.38730
4376.32310,0.38834
4374.39436,0.38895
4372.46561,0.38923
4370.53687,0.38944
4368.60812,0.38962
4366.67938,0.38964
4364.75063,0.38947
4362.82189,0.38924
4360.89314,0.38887
4358.96439,0.38823
4357.03565,0.38762
4355.10690,0.38724
4353.17816,0.38685
4351.24941,0.38624
4349.32067,0.38546
4347.39192,0.38468
4345.46318,0.38405
4343.53443,0.38345
4341.60569,0.38274
4339.67694,0.38176
4337.74820,0.38039
4335.81945,0.37901
4333.89071,0.37816
4331.96196,0.37761
4330.03321,0.37650
4328.10447,0.37481
4326.17572,0.37332
4324.24698,0.37220
4322.31823,0.37131
4320.38949,0.37047
4318.46074,0.36951
4316.53200,0.36862
4314.60325,0.36767
4312.67451,0.36637
4310.74576,0.36502
4308.81702,0.36399
4306.88827,0.36299
4304.95953,0.36158
4303.03078,0.35993
4301.10204,0.35841
4299.17329,0.35716
4297.24454,0.35605
4295.31580,0.35467
4293.38705,0.35315
4291.45831,0.35212
4289.52956,0.35165
4287.60082,0.35125
4285.67207,0.35090
4283.74333,0.35082
4281.81458,0.35075
4279.88584,0.35032
4277.95709,0.34956
4276.02835,0.34905
4274.09960,0.34917
4272.17086,0.34952
4270.24211,0.34962
4268.31336,0.34978
4266.38462,0.35054
4264.45587,0.35169
4262.52713,0.35254
4260.59838,0.35294
4258.66964,0.35304
4256.74089,0.35290
4254.81215,0.35280
4252.88340,0.35296
4250.95466,0.35313
4249.02591,0.35313
4247.09717,0.35300
4245.16842,0.35287
4243.23968,0.35318
4241.31093,0.35396
4239.38219,0.35469
4237.45344,0.35527
4235.52469,0.35599
4233.59595,0.35670
4231.66720,0.35717
4229.73846,0.35762
4227.80971,0.35810
4225.88097,0.35835
4223.95222,0.35847
4222.02348,0.35881
4220.09473,0.35931
4218.16599,0.35983
4216.23724,0.36056
4214.30850,0.36162
4212.37975,0.36269
4210.45101,0.36346
4208.52226,0.36429
4206.59352,0.36546
4204.66477,0.36647
4202.73602,0.36694
4200.80728,0.36729
4198.87853,0.36786
4196.94979,0.36849
4195.02104,0.36904
4193.09230,0.36943
4191.16355,0.36948
4189.23481,0.36892
4187.30606,0.36788
4185.37732,0.36692
4183.44857,0.36605
4181.51983,0.36509
4179.59108,0.36440
4177.66234,0.36425
4175.73359,0.36458
4173.80484,0.36542
4171.87610,0.36668
4169.94735,0.36829
4168.01861,0.37016
4166.08986,0.37177
4164.16112,0.37284
4162.23237,0.37363
4160.30363,0.37432
4158.37488,0.37482
4156.44614,0.37500
4154.51739,0.37501
4152.58865,0.37491
4150.65990,0.37439
4148.73116,0.37361
4146.80241,0.37308
4144.87367,0.37249
4142.94492,0.37140
4141.01617,0.37021
4139.08743,0.36929
4137.15868,0.36845
4135.22994,0.36772
4133.30119,0.36711
4131.37245,0.36635
4129.44370,0.36540
4127.51496,0.36433
4125.58621,0.36308
4123.65747,0.36170
4121.72872,0.36032
4119.79998,0.35914
4117.87123,0.35794
4115.94249,0.35628
4114.01374,0.35425
4112.08500,0.35234
4110.15625,0.35043
4108.22750,0.34802
4106.29876,0.34525
4104.37001,0.34250
4102.44127,0.33961
4100.51252,0.33613
4098.58378,0.33180
4096.65503,0.32703
4094.72629,0.32259
4092.79754,0.31897
4090.86880,0.31648
4088.94005,0.31510
4087.01131,0.31448
4085.08256,0.31433
4083.15382,0.31452
4081.22507,0.31509
4079.29632,0.31592
4077.36758,0.31671
4075.43883,0.31730
4073.51009,0.31754
4071.58134,0.31720
4069.65260,0.31637
4067.72385,0.31549
4065.79511,0.31457
4063.86636,0.31333
4061.93762,0.31184
4060.00887,0.31042
4058.08013,0.30902
4056.15138,0.30742
4054.22264,0.30569
4052.29389,0.30400
4050.36515,0.30228
4048.43640,0.30048
4046.50765,0.29866
4044.57891,0.29689
4042.65016,0.29525
4040.72142,0.29402
4038.79267,0.29332
4036.86393,0.29268
4034.93518,0.29183
4033.00644,0.29121
4031.07769,0.29097
4029.14895,0.29072
4027.22020,0.29029
4025.29146,0.28978
4023.36271,0.28926
4021.43397,0.28871
4019.50522,0.28832
4017.57648,0.28844
4015.64773,0.28895
4013.71898,0.28952
4011.79024,0.29002
4009.86149,0.29044
4007.93275,0.29097
4006.00400,0.29170
4004.07526,0.29238
4002.14651,0.29296
4000.21777,0.29368
3998.28902,0.29457
3996.36028,0.29558
3994.43153,0.29691
3992.50279,0.29819
3990.57404,0.29883
3988.64530,0.29924
3986.71655,0.29991
3984.78780,0.30064
3982.85906,0.30149
3980.93031,0.30254
3979.00157,0.30342
3977.07282,0.30411
3975.14408,0.30466
3973.21533,0.30507
3971.28659,0.30550
3969.35784,0.30611
3967.42910,0.30685
3965.50035,0.30766
3963.57161,0.30854
3961.64286,0.30955
3959.71412,0.31076
3957.78537,0.31203
3955.85663,0.31309
3953.92788,0.31381
3951.99913,0.31442
3950.07039,0.31541
3948.14164,0.31670
3946.21290,0.31775
3944.28415,0.31835
3942.35541,0.31876
3940.42666,0.31946
3938.49792,0.32048
3936.56917,0.32149
3934.64043,0.32244
3932.71168,0.32354
3930.78294,0.32486
3928.85419,0.32608
3926.92545,0.32696
3924.99670,0.32770
3923.06795,0.32858
3921.13921,0.32975
3919.21046,0.33127
3917.28172,0.33260
3915.35297,0.33321
3913.42423,0.33364
3911.49548,0.33442
3909.56674,0.33541
3907.63799,0.33637
3905.70925,0.33747
3903.78050,0.33872
3901.85176,0.33977
3899.92301,0.34071
3897.99427,0.34165
3896.06552,0.34233
3894.13678,0.34287
3892.20803,0.34369
3890.27928,0.34485
3888.35054,0.34601
3886.42179,0.34699
3884.49305,0.34775
3882.56430,0.34825
3880.63556,0.34876
3878.70681,0.34955
3876.77807,0.35030
3874.84932,0.35093
3872.92058,0.35182
3870.99183,0.35305
3869.06309,0.35437
3867.13434,0.35557
3865.20560,0.35677
3863.27685,0.35817
3861.34811,0.35971
3859.41936,0.36108
3857.49061,0.36208
3855.56187,0.36295
3853.63312,0.36404
3851.70438,0.36527
3849.77563,0.36642
3847.84689,0.36752
3845.91814,0.36853
3843.98940,0.36938
3842.06065,0.36998
3840.13191,0.37051
3838.20316,0.37133
3836.27442,0.37211
3834.34567,0.37247
3832.41693,0.37269
3830.48818,0.37301
3828.55943,0.37341
3826.63069,0.37375
3824.70194,0.37380
3822.77320,0.37355
3820.84445,0.37326
3818.91571,0.37302
3816.98696,0.37266
3815.05822,0.37216
3813.12947,0.37165
3811.20073,0.37136
3809.27198,0.37136
3807.34324,0.37131
3805.41449,0.37093
3803.48575,0.37077
3801.55700,0.37139
3799.62826,0.37247
3797.69951,0.37339
3795.77076,0.37410
3793.84202,0.37469
3791.91327,0.37516
3789.98453,0.37548
3788.05578,0.37568
3786.12704,0.37558
3784.19829,0.37516
3782.26955,0.37462
3780.34080,0.37409
3778.41206,0.37372
3776.48331,0.37366
3774.55457,0.37386
3772.62582,0.37386
3770.69708,0.37326
3768.76833,0.37228
3766.83959,0.37138
3764.91084,0.37063
3762.98209,0.36981
3761.05335,0.36894
3759.12460,0.36823
3757.19586,0.36801
3755.26711,0.36827
3753.33837,0.36858
3751.40962,0.36879
3749.48088,0.36930
3747.55213,0.36982
3745.62339,0.36962
3743.69464,0.36895
3741.76590,0.36840
3739.83715,0.36773
3737.90841,0.36667
3735.97966,0.36525
3734.05091,0.36364
3732.12217,0.36210
3730.19342,0.36107
3728.26468,0.36048
3726.33593,0.35983
3724.40719,0.35895
3722.47844,0.35795
3720.54970,0.35689
3718.62095,0.35560
3716.69221,0.35384
3714.76346,0.35171
3712.83472,0.34937
3710.90597,0.34701
3708.97723,0.34470
3707.04848,0.34215
3705.11974,0.33929
3703.19099,0.33620
3701.26224,0.33296
3699.33350,0.32975
3697.40475,0.32635
3695.47601,0.32245
3693.54726,0.31809
3691.61852,0.31328
3689.68977,0.30824
3687.76103,0.30375
3685.83228,0.30011
3683.90354,0.29676
3681.97479,0.29331
3680.04605,0.28981
3678.11730,0.28627
3676.18856,0.28238
3674.25981,0.27819
3672.33107,0.27388
3670.40232,0.26883
3668.47357,0.26302
3666.54483,0.25740
3664.61608,0.25193
3662.68734,0.24631
3660.75859,0.24053
3658.82985,0.23473
3656.90110,0.22894
3654.97236,0.22345
3653.04361,0.21850
3651.11487,0.21338
3649.18612,0.20756
3647.25738,0.20174
3645.32863,0.19659
3643.39989,0.19214
3641.47114,0.18799
3639.54239,0.18366
3637.61365,0.17925
3635.68490,0.17498
3633.75616,0.17068
3631.82741,0.16646
3629.89867,0.16225
3627.96992,0.15795
3626.04118,0.15402
3624.11243,0.15028
3622.18369,0.14647
3620.25494,0.14271
3618.32620,0.13916
3616.39745,0.13615
3614.46871,0.13325
3612.53996,0.12996
3610.61122,0.12661
3608.68247,0.12343
3606.75372,0.12025
3604.82498,0.11713
3602.89623,0.11413
3600.96749,0.11113
3599.03874,0.10824
3597.11000,0.10571
3595.18125,0.10348
3593.25251,0.10123
3591.32376,0.09885
3589.39502,0.09626
3587.46627,0.09356
3585.53753,0.09115
3583.60878,0.08911
3581.68004,0.08721
3579.75129,0.08530
3577.82254,0.08337
3575.89380,0.08143
3573.96505,0.07955
3572.03631,0.07782
3570.10756,0.07610
3568.17882,0.07425
3566.25007,0.07257
3564.32133,0.07120
3562.39258,0.06981
3560.46384,0.06845
3558.53509,0.06755
3556.60635,0.06690
3554.67760,0.06579
3552.74886,0.06411
3550.82011,0.06248
3548.89137,0.06139
3546.96262,0.06058
3545.03387,0.05984
3543.10513,0.05905
3541.17638,0.05800
3539.24764,0.05699
3537.31889,0.05647
3535.39015,0.05604
3533.46140,0.05527
3531.53266,0.05431
3529.60391,0.05340
3527.67517,0.05266
3525.74642,0.05220
3523.81768,0.05182
3521.88893,0.05116
3519.96019,0.05025
3518.03144,0.04963
3516.10270,0.04939
3514.17395,0.04905
3512.24520,0.04855
3510.31646,0.04828
3508.38771,0.04818
3506.45897,0.04797
3504.53022,0.04754
3502.60148,0.04681
3500.67273,0.04599
3498.74399,0.04557
3496.81524,0.04550
3494.88650,0.04533
3492.95775,0.04505
3491.02901,0.04472
3489.10026,0.04419
3487.17152,0.04370
3485.24277,0.04346
3483.31402,0.04321
3481.38528,0.04288
3479.45653,0.04264
3477.52779,0.04236
3475.59904,0.04195
3473.67030,0.04160
3471.74155,0.04146
3469.81281,0.04133
3467.88406,0.04090
3465.95532,0.04029
3464.02657,0.03989
3462.09783,0.03979
3460.16908,0.03979
3458.24034,0.03977
3456.31159,0.03976
3454.38285,0.03959
3452.45410,0.03925
3450.52535,0.03890
3448.59661,0.03849
3446.66786,0.03785
3444.73912,0.03719
3442.81037,0.03674
3440.88163,0.03643
3438.95288,0.03617
3437.02414,0.03599
3435.09539,0.03591
3433.16665,0.03570
3431.23790,0.03526
3429.30916,0.03503
3427.38041,0.03520
3425.45167,0.03538
3423.52292,0.03548
3421.59418,0.03588
3419.66543,0.03653
3417.73668,0.03695
3415.80794,0.03734
3413.87919,0.03814
3411.95045,0.03876
3410.02170,0.03878
3408.09296,0.03882
3406.16421,0.03921
3404.23547,0.03967
3402.30672,0.03989
3400.37798,0.03985
3398.44923,0.03976
3396.52049,0.03978
3394.59174,0.03985
3392.66300,0.03969
3390.73425,0.03951
3388.80550,0.03978
3386.87676,0.04035
3384.94801,0.04083
3383.01927,0.04099
3381.09052,0.04067
3379.16178,0.04022
3377.23303,0.04011
3375.30429,0.04022
3373.37554,0.04039
3371.44680,0.04065
3369.51805,0.04083
3367.58931,0.04094
3365.66056,0.04096
3363.73182,0.04069
3361.80307,0.04036
3359.87433,0.04018
3357.94558,0.03989
3356.01683,0.03955
3354.08809,0.03974
3352.15934,0.04041
3350.23060,0.04087
3348.30185,0.04082
3346.37311,0.04073
3344.44436,0.04103
3342.51562,0.04151
3340.58687,0.04174
3338.65813,0.04157
3336.72938,0.04137
3334.80064,0.04163
3332.87189,0.04209
3330.94315,0.04214
3329.01440,0.04191
3327.08566,0.04196
3325.15691,0.04235
3323.22816,0.04283
3321.29942,0.04327
3319.37067,0.04340
3317.44193,0.04311
3315.51318,0.04290
3313.58444,0.04303
3311.65569,0.04326
3309.72695,0.04330
3307.79820,0.04309
3305.86946,0.04299
3303.94071,0.04323
3302.01197,0.04350
3300.08322,0.04354
3298.15448,0.04355
3296.22573,0.04354
3294.29698,0.04339
3292.36824,0.04337
3290.43949,0.04373
3288.51075,0.04429
3286.58200,0.04451
3284.65326,0.04434
3282.72451,0.04439
3280.79577,0.04479
3278.86702,0.04512
3276.93828,0.04514
3275.00953,0.04507
3273.08079,0.04537
3271.15204,0.04594
3269.22330,0.04627
3267.29455,0.04635
3265.36581,0.04650
3263.43706,0.04670
3261.50831,0.04682
3259.57957,0.04699
3257.65082,0.04743
3255.72208,0.04795
3253.79333,0.04819
3251.86459,0.04823
3249.93584,0.04835
3248.00710,0.04861
3246.07835,0.04898
3244.14961,0.04934
3242.22086,0.04952
3240.29212,0.04963
3238.36337,0.04995
3236.43463,0.05044
3234.50588,0.05086
3232.57713,0.05116
3230.64839,0.05148
3228.71964,0.05197
3226.79090,0.05236
3224.86215,0.05237
3222.93341,0.05242
3221.00466,0.05289
3219.07592,0.05342
3217.14717,0.05363
3215.21843,0.05373
3213.28968,0.05410
3211.36094,0.05495
3209.43219,0.05592
3207.50345,0.05652
3205.57470,0.05684
3203.64596,0.05708
3201.71721,0.05735
3199.78846,0.05789
3197.85972,0.05859
3195.93097,0.05900
3194.00223,0.05925
3192.07348,0.05976
3190.14474,0.06047
3188.21599,0.06100
3186.28725,0.06138
3184.35850,0.06186
3182.42976,0.06240
3180.50101,0.06291
3178.57227,0.06347
3176.64352,0.06404
3174.71478,0.06457
3172.78603,0.06502
3170.85729,0.06533
3168.92854,0.06568
3166.99979,0.06628
3165.07105,0.06700
3163.14230,0.06758
3161.21356,0.06798
3159.28481,0.06832
3157.35607,0.06872
3155.42732,0.06929
3153.49858,0.07000
3151.56983,0.07068
3149.64109,0.07134
3147.71234,0.07199
3145.78360,0.07255
3143.85485,0.07320
3141.92611,0.07398
3139.99736,0.07454
3138.06861,0.07470
3136.13987,0.07478
3134.21112,0.07515
3132.28238,0.07578
3130.35363,0.07644
3128.42489,0.07699
3126.49614,0.07763
3124.56740,0.07861
3122.63865,0.07964
3120.70991,0.08021
3118.78116,0.08049
3116.85242,0.08091
3114.92367,0.08148
3112.99493,0.08202
3111.06618,0.08247
3109.13744,0.08280
3107.20869,0.08310
3105.27994,0.08350
3103.35120,0.08397
3101.42245,0.08453
3099.49371,0.08546
3097.56496,0.08671
3095.63622,0.08780
3093.70747,0.08855
3091.77873,0.08911
3089.84998,0.08968
3087.92124,0.09034
3085.99249,0.09092
3084.06375,0.09119
3082.13500,0.09125
3080.20626,0.09154
3078.27751,0.09217
3076.34877,0.09294
3074.42002,0.09379
3072.49127,0.09459
3070.56253,0.09507
3068.63378,0.09531
3066.70504,0.09584
3064.77629,0.09666
3062.84755,0.09727
3060.91880,0.09767
3058.99006,0.09814
3057.06131,0.09858
3055.13257,0.09906
3053.20382,0.10014
3051.27508,0.10192
3049.34633,0.10396
3047.41759,0.10605
3045.48884,0.10797
3043.56009,0.10935
3041.63135,0.11022
3039.70260,0.11098
3037.77386,0.11181
3035.84511,0.11256
3033.91637,0.11303
3031.98762,0.11314
3030.05888,0.11300
3028.13013,0.11291
3026.20139,0.11293
3024.27264,0.11275
3022.34390,0.11226
3020.41515,0.11149
3018.48641,0.11025
3016.55766,0.10881
3014.62892,0.10778
3012.70017,0.10741
3010.77142,0.10740
3008.84268,0.10725
3006.91393,0.10672
3004.98519,0.10609
3003.05644,0.10563
3001.12770,0.10514
2999.19895,0.10438
2997.27021,0.10332
2995.34146,0.10198
2993.41272,0.10037
2991.48397,0.09836
2989.55523,0.09587
2987.62648,0.09312
2985.69774,0.09039
2983.76899,0.08756
2981.84025,0.08439
2979.91150,0.08081
2977.98275,0.07685
2976.05401,0.07264
2974.12526,0.06836
2972.19652,0.06443
2970.26777,0.06168
2968.33903,0.06041
2966.41028,0.06007
2964.48154,0.06020
2962.55279,0.06042
2960.62405,0.06037
2958.69530,0.06008
2956.76656,0.05958
2954.83781,0.05895
2952.90907,0.05845
2950.98032,0.05807
2949.05157,0.05770
2947.12283,0.05743
2945.19408,0.05747
2943.26534,0.05779
2941.33659,0.05820
2939.40785,0.05852
2937.47910,0.05866
2935.55036,0.05862
2933.62161,0.05845
2931.69287,0.05802
2929.76412,0.05722
2927.83538,0.05626
2925.90663,0.05528
2923.97789,0.05415
2922.04914,0.05274
2920.12040,0.05104
2918.19165,0.04924
2916.26290,0.04775
2914.33416,0.04667
2912.40541,0.04580
2910.47667,0.04509
2908.54792,0.04465
2906.61918,0.04465
2904.69043,0.04515
2902.76169,0.04600
2900.83294,0.04701
2898.90420,0.04802
2896.97545,0.04869
2895.04671,0.04909
2893.11796,0.04963
2891.18922,0.05036
2889.26047,0.05109
2887.33172,0.05189
2885.40298,0.05285
2883.47423,0.05392
2881.54549,0.05491
2879.61674,0.05566
2877.68800,0.05611
2875.75925,0.05643
2873.83051,0.05686
2871.90176,0.05735
2869.97302,0.05780
2868.04427,0.05822
2866.11553,0.05874
2864.18678,0.05975
2862.25804,0.06113
2860.32929,0.06230
2858.40055,0.06320
2856.47180,0.06403
2854.54305,0.06483
2852.61431,0.06567
2850.68556,0.06682
2848.75682,0.06883
2846.82807,0.07180
2844.89933,0.07518
2842.97058,0.07845
2841.04184,0.08139
2839.11309,0.08387
2837.18435,0.08615
2835.25560,0.08838
2833.32686,0.09031
2831.39811,0.09211
2829.46937,0.09407
2827.54062,0.09590
2825.61188,0.09743
2823.68313,0.09886
2821.75438,0.10035
2819.82564,0.10194
2817.89689,0.10348
2815.96815,0.10485
2814.03940,0.10632
2812.11066,0.10803
2810.18191,0.10956
2808.25317,0.11069
2806.32442,0.11172
2804.39568,0.11304
2802.46693,0.11469
2800.53819,0.11625
2798.60944,0.11767
2796.68070,0.11919
2794.75195,0.12069
2792.82320,0.12180
2790.89446,0.12264
2788.96571,0.12347
2787.03697,0.12425
2785.10822,0.12493
2783.17948,0.12559
2781.25073,0.12627
2779.32199,0.12680
2777.39324,0.12708
2775.46450,0.12737
2773.53575,0.12791
2771.60701,0.12850
2769.67826,0.12902
2767.74952,0.12955
2765.82077,0.13003
2763.89203,0.13045
2761.96328,0.13084
2760.03453,0.13119
2758.10579,0.13160
2756.17704,0.13209
2754.24830,0.13246
2752.31955,0.13246
2750.39081,0.13218
2748.46206,0.13191
2746.53332,0.13174
2744.60457,0.13176
2742.67583,0.13199
2740.74708,0.13226
2738.81834,0.13256
2736.88959,0.13293
2734.96085,0.13326
2733.03210,0.13359
2731.10336,0.13412
2729.17461,0.13476
2727.24586,0.13530
2725.31712,0.13567
2723.38837,0.13611
2721.45963,0.13687
2719.53088,0.13775
2717.60214,0.13853
2715.67339,0.13930
2713.74465,0.14021
2711.81590,0.14120
2709.88716,0.14221
2707.95841,0.14347
2706.02967,0.14502
2704.10092,0.14652
2702.17218,0.14773
2700.24343,0.14869
2698.31468,0.14966
2696.38594,0.15093
2694.45719,0.15243
2692.52845,0.15382
2690.59970,0.15499
2688.67096,0.15604
2686.74221,0.15710
2684.81347,0.15833
2682.88472,0.15959
2680.95598,0.16067
2679.02723,0.16163
2677.09849,0.16257
2675.16974,0.16345
2673.24100,0.16418
2671.31225,0.16478
2669.38351,0.16545
2667.45476,0.16630
2665.52601,0.16705
2663.59727,0.16745
2661.66852,0.16784
2659.73978,0.16844
2657.81103,0.16899
2655.88229,0.16949
2653.95354,0.17016
2652.02480,0.17094
2650.09605,0.17160
2648.16731,0.17210
2646.23856,0.17268
2644.30982,0.17334
2642.38107,0.17394
2640.45233,0.17445
2638.52358,0.17483
2636.59484,0.17512
2634.66609,0.17539
2632.73734,0.17565
2630.80860,0.17604
2628.87985,0.17676
2626.95111,0.17761
2625.02236,0.17851
2623.09362,0.17949
2621.16487,0.18038
2619.23613,0.18099
2617.30738,0.18142
2615.37864,0.18197
2613.44989,0.18275
2611.52115,0.18349
2609.59240,0.18403
2607.66366,0.18455
2605.73491,0.18517
2603.80616,0.18586
2601.87742,0.18649
2599.94867,0.18691
2598.01993,0.18712
2596.09118,0.18722
2594.16244,0.18741
2592.23369,0.18782
2590.30495,0.18814
2588.37620,0.18817
2586.44746,0.18818
2584.51871,0.18826
2582.58997,0.18833
2580.66122,0.18846
2578.73248,0.18867
2576.80373,0.18900
2574.87499,0.18935
2572.94624,0.18954
2571.01749,0.18954
2569.08875,0.18942
2567.16000,0.18913
2565.23126,0.18876
2563.30251,0.18851
2561.37377,0.18836
2559.44502,0.18824
2557.51628,0.18809
2555.58753,0.18783
2553.65879,0.18756
2551.73004,0.18734
2549.80130,0.18710
2547.87255,0.18672
2545.94381,0.18627
2544.01506,0.18599
2542.08631,0.18596
2540.15757,0.18598
2538.22882,0.18601
2536.30008,0.18618
2534.37133,0.18645
2532.44259,0.18679
2530.51384,0.18737
2528.58510,0.18815
2526.65635,0.18890
2524.72761,0.18958
2522.79886,0.19020
2520.87012,0.19063
2518.94137,0.19099
2517.01263,0.19168
2515.08388,0.19266
2513.15514,0.19357
2511.22639,0.19448
2509.29764,0.19562
2507.36890,0.19688
2505.44015,0.19828
2503.51141,0.19976
2501.58266,0.20107
2499.65392,0.20234
2497.72517,0.20373
2495.79643,0.20511
2493.86768,0.20628
2491.93894,0.20745
2490.01019,0.20884
2488.08145,0.21025
2486.15270,0.21146
2484.22396,0.21256
2482.29521,0.21376
2480.36647,0.21520
2478.43772,0.21665
2476.50897,0.21784
2474.58023,0.21898
2472.65148,0.22033
2470.72274,0.22161
2468.79399,0.22251
2466.86525,0.22318
2464.93650,0.22382
2463.00776,0.22432
2461.07901,0.22475
2459.15027,0.22528
2457.22152,0.22584
2455.29278,0.22641
2453.36403,0.22706
2451.43529,0.22771
2449.50654,0.22840
2447.57779,0.22924
2445.64905,0.23013
2443.72030,0.23091
2441.79156,0.23154
2439.86281,0.23218
2437.93407,0.23289
2436.00532,0.23343
2434.07658,0.23386
2432.14783,0.23442
2430.21909,0.23498
2428.29034,0.23541
2426.36160,0.23586
2424.43285,0.23633
2422.50411,0.23676
2420.57536,0.23733
2418.64662,0.23804
2416.71787,0.23853
2414.78912,0.23873
2412.86038,0.23876
2410.93163,0.23873
2409.00289,0.23878
2407.07414,0.23902
2405.14540,0.23935
2403.21665,0.23965
2401.28791,0.23990
2399.35916,0.24020
2397.43042,0.24065
2395.50167,0.24122
2393.57293,0.24181
2391.64418,0.24243
2389.71544,0.24310
2387.78669,0.24371
2385.85795,0.24422
2383.92920,0.24483
2382.00045,0.24582
2380.07171,0.24707
2378.14296,0.24818
2376.21422,0.24924
2374.28547,0.25063
2372.35673,0.25228
2370.42798,0.25388
2368.49924,0.25531
2366.57049,0.25677
2364.64175,0.25834
2362.71300,0.25989
2360.78426,0.26134
2358.85551,0.26269
2356.92677,0.26400
2354.99802,0.26534
2353.06927,0.26676
2351.14053,0.26815
2349.21178,0.26943
2347.28304,0.27068
2345.35429,0.27196
2343.42555,0.27319
2341.49680,0.27442
2339.56806,0.27555
2337.63931,0.27634
2335.71057,0.27702
2333.78182,0.27785
2331.85308,0.27859
2329.92433,0.27906
2327.99559,0.27956
2326.06684,0.28040
2324.13810,0.28145
2322.20935,0.28252
2320.28060,0.28349
2318.35186,0.28432
2316.42311,0.28501
2314.49437,0.28550
2312.56562,0.28569
2310.63688,0.28548
2308.70813,0.28497
2306.77939,0.28433
2304.85064,0.28347
2302.92190,0.28234
2300.99315,0.28116
2299.06441,0.27983
2297.13566,0.27817
2295.20692,0.27639
2293.27817,0.27467
2291.34943,0.27304
2289.42068,0.27176
2287.49193,0.27089
2285.56319,0.27033
2283.63444,0.26997
2281.70570,0.26972
2279.77695,0.26948
2277.84821,0.26922
2275.91946,0.26889
2273.99072,0.26839
2272.06197,0.26743
2270.13323,0.26595
2268.20448,0.26424
2266.27574,0.26248
2264.34699,0.26062
2262.41825,0.25877
2260.48950,0.25691
2258.56075,0.25465
2256.63201,0.25184
2254.70326,0.24870
2252.77452,0.24544
2250.84577,0.24203
2248.91703,0.23871
2246.98828,0.23609
2245.05954,0.23450
2243.13079,0.23399
2241.20205,0.23456
2239.27330,0.23634
2237.34456,0.23959
2235.41581,0.24409
2233.48707,0.24890
2231.55832,0.25315
2229.62958,0.25642
2227.70083,0.25857
2225.77208,0.25992
2223.84334,0.26110
2221.91459,0.26234
2219.98585,0.26349
2218.05710,0.26463
2216.12836,0.26574
2214.19961,0.26657
2212.27087,0.26697
2210.34212,0.26725
2208.41338,0.26787
2206.48463,0.26871
2204.55589,0.26934
2202.62714,0.26972
2200.69840,0.26991
2198.76965,0.26982
2196.84090,0.26948
2194.91216,0.26888
2192.98341,0.26811
2191.05467,0.26729
2189.12592,0.26631
2187.19718,0.26518
2185.26843,0.26406
2183.33969,0.26279
2181.41094,0.26113
2179.48220,0.25934
2177.55345,0.25766
2175.62471,0.25582
2173.69596,0.25383
2171.76722,0.25180
2169.83847,0.24975
2167.90973,0.24769
2165.98098,0.24562
2164.05223,0.24350
2162.12349,0.24143
2160.19474,0.23946
2158.26600,0.23760
2156.33725,0.23588
2154.40851,0.23432
2152.47976,0.23301
2150.55102,0.23190
2148.62227,0.23071
2146.69353,0.22938
2144.76478,0.22814
2142.83604,0.22704
2140.90729,0.22597
2138.97855,0.22492
2137.04980,0.22404
2135.12106,0.22339
2133.19231,0.22291
2131.26356,0.22258
2129.33482,0.22242
2127.40607,0.22243
2125.47733,0.22248
2123.54858,0.22250
2121.61984,0.22259
2119.69109,0.22272
2117.76235,0.22287
2115.83360,0.22325
2113.90486,0.22400
2111.97611,0.22505
2110.04737,0.22610
2108.11862,0.22689
2106.18988,0.22761
2104.26113,0.22856
2102.33238,0.22970
2100.40364,0.23070
2098.47489,0.23144
2096.54615,0.23220
2094.61740,0.23315
2092.68866,0.23422
2090.75991,0.23539
2088.83117,0.23661
2086.90242,0.23779
2084.97368,0.23890
2083.04493,0.23992
2081.11619,0.24090
2079.18744,0.24189
2077.25870,0.24284
2075.32995,0.24365
2073.40121,0.24440
2071.47246,0.24523
2069.54371,0.24609
2067.61497,0.24696
2065.68622,0.24797
2063.75748,0.24912
2061.82873,0.25025
2059.89999,0.25119
2057.97124,0.25200
2056.04250,0.25276
2054.11375,0.25350
2052.18501,0.25435
2050.25626,0.25527
2048.32752,0.25602
2046.39877,0.25658
2044.47003,0.25717
2042.54128,0.25789
2040.61254,0.25863
2038.68379,0.25934
2036.75504,0.26025
2034.82630,0.26143
2032.89755,0.26258
2030.96881,0.26353
2029.04006,0.26453
2027.11132,0.26578
2025.18257,0.26714
2023.25383,0.26844
2021.32508,0.26950
2019.39634,0.27032
2017.46759,0.27102
2015.53885,0.27167
2013.61010,0.27229
2011.68136,0.27282
2009.75261,0.27302
2007.82386,0.27283
2005.89512,0.27229
2003.96637,0.27148
2002.03763,0.27061
2000.10888,0.26986
1998.18014,0.26911
1996.25139,0.26838
1994.32265,0.26801
1992.39390,0.26789
1990.46516,0.26742
1988.53641,0.26662
1986.60767,0.26595
1984.67892,0.26559
1982.75018,0.26535
1980.82143,0.26496
1978.89269,0.26426
1976.96394,0.26329
1975.03519,0.26207
1973.10645,0.26047
1971.17770,0.25841
1969.24896,0.25599
1967.32021,0.25324
1965.39147,0.25017
1963.46272,0.24714
1961.53398,0.24492
1959.60523,0.24408
1957.67649,0.24458
1955.74774,0.24605
1953.81900,0.24821
1951.89025,0.25083
1949.96151,0.25378
1948.03276,0.25695
1946.10402,0.26020
1944.17527,0.26358
1942.24652,0.26718
1940.31778,0.27078
1938.38903,0.27423
1936.46029,0.27756
1934.53154,0.28065
1932.60280,0.28351
1930.67405,0.28615
1928.74531,0.28849
1926.81656,0.29048
1924.88782,0.29234
1922.95907,0.29425
1921.03033,0.29610
1919.10158,0.29774
1917.17284,0.29923
1915.24409,0.30065
1913.31534,0.30199
1911.38660,0.30323
1909.45785,0.30434
1907.52911,0.30520
1905.60036,0.30578
1903.67162,0.30637
1901.74287,0.30712
1899.81413,0.30774
1897.88538,0.30800
1895.95664,0.30802
1894.02789,0.30810
1892.09915,0.30824
1890.17040,0.30826
1888.24166,0.30815
1886.31291,0.30803
1884.38417,0.30776
1882.45542,0.30728
1880.52667,0.30682
1878.59793,0.30633
1876.66918,0.30557
1874.74044,0.30453
1872.81169,0.30338
1870.88295,0.30219
1868.95420,0.30074
1867.02546,0.29905
1865.09671,0.29736
1863.16797,0.29560
1861.23922,0.29357
1859.31048,0.29113
1857.38173,0.28823
1855.45299,0.28501
1853.52424,0.28167
1851.59549,0.27808
1849.66675,0.27403
1847.73800,0.26984
1845.80926,0.26584
1843.88051,0.26194
1841.95177,0.25829
1840.02302,0.25504
1838.09428,0.25201
1836.16553,0.24921
1834.23679,0.24664
1832.30804,0.24410
1830.37930,0.24155
1828.45055,0.23928
1826.52181,0.23750
1824.59306,0.23612
1822.66432,0.23507
1820.73557,0.23423
1818.80682,0.23338
1816.87808,0.23240
1814.94933,0.23135
1813.02059,0.23026
1811.09184,0.22905
1809.16310,0.22779
1807.23435,0.22666
1805.30561,0.22564
1803.37686,0.22455
1801.44812,0.22322
1799.51937,0.22171
1797.59063,0.22015
1795.66188,0.21852
1793.73314,0.21677
1791.80439,0.21481
1789.87565,0.21270
1787.94690,0.21063
1786.01815,0.20846
1784.08941,0.20595
1782.16066,0.20309
1780.23192,0.20003
1778.30317,0.19690
1776.37443,0.19381
1774.44568,0.19054
1772.51694,0.18672
1770.58819,0.18261
1768.65945,0.17845
1766.73070,0.17394
1764.80196,0.16921
1762.87321,0.16408
1760.94447,0.15818
1759.01572,0.15181
1757.08697,0.14485
1755.15823,0.13738
1753.22948,0.12962
1751.30074,0.12114
1749.37199,0.11243
1747.44325,0.10487
1745.51450,0.09885
1743.58576,0.09418
1741.65701,0.09085
1739.72827,0.08889
1737.79952,0.08812
1735.87078,0.08808
1733.94203,0.08851
1732.01329,0.08935
1730.08454,0.09042
1728.15580,0.09157
1726.22705,0.09278
1724.29830,0.09414
1722.36956,0.09559
1720.44081,0.09690
1718.51207,0.09788
1716.58332,0.09829
1714.65458,0.09818
1712.72583,0.09795
1710.79709,0.09802
1708.86834,0.09856
1706.93960,0.09989
1705.01085,0.10211
1703.08211,0.10472
1701.15336,0.10749
1699.22462,0.10980
1697.29587,0.11089
1695.36713,0.11126
1693.43838,0.11148
1691.50963,0.11151
1689.58089,0.11113
1687.65214,0.11031
1685.72340,0.10914
1683.79465,0.10779
1681.86591,0.10705
1679.93716,0.10715
1678.00842,0.10754
1676.07967,0.10769
1674.15093,0.10745
1672.22218,0.10718
1670.29344,0.10716
1668.36469,0.10741
1666.43595,0.10785
1664.50720,0.10843
1662.57845,0.10899
1660.64971,0.10928
1658.72096,0.10931
1656.79222,0.10922
1654.86347,0.10896
1652.93473,0.10831
1651.00598,0.10775
1649.07724,0.10772
1647.14849,0.10784
1645.21975,0.10791
1643.29100,0.10793
1641.36226,0.10792
1639.43351,0.10807
1637.50477,0.10850
1635.57602,0.10902
1633.64728,0.10946
1631.71853,0.10986
1629.78978,0.11036
1627.86104,0.11110
1625.93229,0.11198
1624.00355,0.11277
1622.07480,0.11329
1620.14606,0.11332
1618.21731,0.11288
1616.28857,0.11229
1614.35982,0.11230
1612.43108,0.11333
1610.50233,0.11529
1608.57359,0.11779
1606.64484,0.12047
1604.71610,0.12313
1602.78735,0.12551
1600.85861,0.12749
1598.92986,0.12918
1597.00111,0.13051
1595.07237,0.13137
1593.14362,0.13181
1591.21488,0.13189
1589.28613,0.13154
1587.35739,0.13042
1585.42864,0.12802
1583.49990,0.12424
1581.57115,0.11986
1579.64241,0.11662
1577.71366,0.11631
1575.78492,0.11946
1573.85617,0.12413
1571.92743,0.12856
1569.99868,0.13257
1568.06993,0.13568
1566.14119,0.13766
1564.21244,0.13893
1562.28370,0.13981
1560.35495,0.14033
1558.42621,0.14038
1556.49746,0.14012
1554.56872,0.13994
1552.63997,0.13990
1550.71123,0.13991
1548.78248,0.13987
1546.85374,0.13985
1544.92499,0.13973
1542.99625,0.13933
1541.06750,0.13858
1539.13876,0.13755
1537.21001,0.13666
1535.28126,0.13585
1533.35252,0.13465
1531.42377,0.13308
1529.49503,0.13141
1527.56628,0.12961
1525.63754,0.12791
1523.70879,0.12666
1521.78005,0.12570
1519.85130,0.12473
1517.92256,0.12344
1515.99381,0.12120
1514.06507,0.11727
1512.13632,0.11124
1510.20758,0.10344
1508.27883,0.09456
1506.35008,0.08701
1504.42134,0.08552
1502.49259,0.08953
1500.56385,0.09581
1498.63510,0.10171
1496.70636,0.10521
1494.77761,0.10586
1492.84887,0.10433
1490.92012,0.10077
1488.99138,0.09517
1487.06263,0.08847
1485.13389,0.08167
1483.20514,0.07538
1481.27640,0.07021
1479.34765,0.06630
1477.41891,0.06283
1475.49016,0.05913
1473.56141,0.05550
1471.63267,0.05279
1469.70392,0.05125
1467.77518,0.05006
1465.84643,0.04828
1463.91769,0.04586
1461.98894,0.04361
1460.06020,0.04189
1458.13145,0.04026
1456.20271,0.03858
1454.27396,0.03741
1452.34522,0.03693
1450.41647,0.03688
1448.48773,0.03697
1446.55898,0.03703
1444.63024,0.03706
1442.70149,0.03697
1440.77274,0.03666
1438.84400,0.03632
1436.91525,0.03608
1434.98651,0.03594
1433.05776,0.03589
1431.12902,0.03615
1429.20027,0.03673
1427.27153,0.03721
1425.34278,0.03728
1423.41404,0.03699
1421.48529,0.03647
1419.55655,0.03577
1417.62780,0.03488
1415.69906,0.03394
1413.77031,0.03319
1411.84156,0.03292
1409.91282,0.03310
1407.98407,0.03353
1406.05533,0.03434
1404.12658,0.03553
1402.19784,0.03671
1400.26909,0.03772
1398.34035,0.03858
1396.41160,0.03912
1394.48286,0.03919
1392.55411,0.03875
1390.62537,0.03782
1388.69662,0.03642
1386.76788,0.03462
1384.83913,0.03267
1382.91039,0.03087
1380.98164,0.02939
1379.05289,0.02834
1377.12415,0.02755
1375.19540,0.02686
1373.26666,0.02639
1371.33791,0.02627
1369.40917,0.02653
1367.48042,0.02705
1365.55168,0.02758
1363.62293,0.02804
1361.69419,0.02854
1359.76544,0.02893
1357.83670,0.02907
1355.90795,0.02913
1353.97921,0.02908
1352.05046,0.02868
1350.12172,0.02814
1348.19297,0.02782
1346.26422,0.02761
1344.33548,0.02735
1342.40673,0.02701
1340.47799,0.02667
1338.54924,0.02644
1336.62050,0.02653
1334.69175,0.02719
1332.76301,0.02817
1330.83426,0.02884
1328.90552,0.02899
1326.97677,0.02878
1325.04803,0.02821
1323.11928,0.02744
1321.19054,0.02676
1319.26179,0.02627
1317.33304,0.02592
1315.40430,0.02571
1313.47555,0.02567
1311.54681,0.02595
1309.61806,0.02657
1307.68932,0.02728
1305.76057,0.02793
1303.83183,0.02870
1301.90308,0.02959
1299.97434,0.03024
1298.04559,0.03046
1296.11685,0.03048
1294.18810,0.03064
1292.25936,0.03086
1290.33061,0.03096
1288.40187,0.03091
1286.47312,0.03084
1284.54437,0.03086
1282.61563,0.03113
1280.68688,0.03184
1278.75814,0.03300
1276.82939,0.03434
1274.90065,0.03566
1272.97190,0.03703
1271.04316,0.03821
1269.11441,0.03874
1267.18567,0.03868
1265.25692,0.03864
1263.32818,0.03882
1261.39943,0.03882
1259.47069,0.03858
1257.54194,0.03851
1255.61320,0.03868
1253.68445,0.03874
1251.75570,0.03854
1249.82696,0.03828
1247.89821,0.03793
1245.96947,0.03748
1244.04072,0.03711
1242.11198,0.03687
1240.18323,0.03662
1238.25449,0.03615
1236.32574,0.03563
1234.39700,0.03564
1232.46825,0.03645
1230.53951,0.03765
1228.61076,0.03868
1226.68202,0.03951
1224.75327,0.04046
1222.82452,0.04155
1220.89578,0.04259
1218.96703,0.04353
1217.03829,0.04417
1215.10954,0.04416
1213.18080,0.04331
1211.25205,0.04182
1209.32331,0.04025
1207.39456,0.03921
1205.46582,0.03885
1203.53707,0.03923
1201.60833,0.04009
1199.67958,0.04086
1197.75084,0.04154
1195.82209,0.04241
1193.89335,0.04338
1191.96460,0.04410
1190.03585,0.04419
1188.10711,0.04333
1186.17836,0.04161
1184.24962,0.03948
1182.32087,0.03734
1180.39213,0.03533
1178.46338,0.03367
1176.53464,0.03262
1174.60589,0.03229
1172.67715,0.03272
1170.74840,0.03380
1168.81966,0.03497
1166.89091,0.03556
1164.96217,0.03535
1163.03342,0.03438
1161.10467,0.03297
1159.17593,0.03154
1157.24718,0.03022
1155.31844,0.02891
1153.38969,0.02763
1151.46095,0.02646
1149.53220,0.02529
1147.60346,0.02412
1145.67471,0.02300
1143.74597,0.02205
1141.81722,0.02136
1139.88848,0.02075
1137.95973,0.02011
1136.03099,0.01968
1134.10224,0.01969
1132.17350,0.02015
1130.24475,0.02076
1128.31600,0.02129
1126.38726,0.02186
1124.45851,0.02246
1122.52977,0.02308
1120.60102,0.02373
1118.67228,0.02416
1116.74353,0.02435
1114.81479,0.02475
1112.88604,0.02541
1110.95730,0.02574
1109.02855,0.02560
1107.09981,0.02562
1105.17106,0.02602
1103.24232,0.02626
1101.31357,0.02607
1099.38483,0.02572
1097.45608,0.02543
1095.52733,0.02527
1093.59859,0.02524
1091.66984,0.02547
1089.74110,0.02579
1087.81235,0.02594
1085.88361,0.02618
1083.95486,0.02693
1082.02612,0.02835
1080.09737,0.03047
1078.16863,0.03289
1076.23988,0.03510
1074.31114,0.03703
1072.38239,0.03904
1070.45365,0.04131
1068.52490,0.04373
1066.59615,0.04599
1064.66741,0.04787
1062.73866,0.04923
1060.80992,0.04977
1058.88117,0.04946
1056.95243,0.04848
1055.02368,0.04698
1053.09494,0.04510
1051.16619,0.04295
1049.23745,0.04103
1047.30870,0.03967
1045.37996,0.03856
1043.45121,0.03785
1041.52247,0.03810
1039.59372,0.03933
1037.66498,0.04105
1035.73623,0.04253
1033.80748,0.04309
1031.87874,0.04256
1029.94999,0.04119
1028.02125,0.03941
1026.09250,0.03779
1024.16376,0.03680
1022.23501,0.03641
1020.30627,0.03630
1018.37752,0.03669
1016.44878,0.03810
1014.52003,0.04072
1012.59129,0.04384
1010.66254,0.04643
1008.73380,0.04839
1006.80505,0.04998
1004.87631,0.05105
1002.94756,0.05168
1001.01881,0.05228
999.09007,0.05311
997.16132,0.05409
995.23258,0.05488
993.30383,0.05528
991.37509,0.05526
989.44634,0.05490
987.51760,0.05469
985.58885,0.05517
983.66011,0.05643
981.73136,0.05835
979.80262,0.06070
977.87387,0.06304
975.94513,0.06481
974.01638,0.06604
972.08763,0.06765
970.15889,0.07021
968.23014,0.07359
966.30140,0.07773
964.37265,0.08263
962.44391,0.08791
960.51516,0.09315
958.58642,0.09831
956.65767,0.10364
954.72893,0.10899
952.80018,0.11381
950.87144,0.11796
948.94269,0.12165
947.01395,0.12475
945.08520,0.12708
943.15646,0.12887
941.22771,0.13046
939.29896,0.13200
937.37022,0.13317
935.44147,0.13373
933.51273,0.13377
931.58398,0.13372
929.65524,0.13401
927.72649,0.13460
925.79775,0.13505
923.86900,0.13515
921.94026,0.13484
920.01151,0.13365
918.08277,0.13097
916.15402,0.12702
914.22528,0.12255
912.29653,0.11802
910.36779,0.11334
908.43904,0.10839
906.51029,0.10335
904.58155,0.09875
902.65280,0.09487
900.72406,0.09174
898.79531,0.08977
896.86657,0.08949
894.93782,0.09076
893.00908,0.09324
891.08033,0.09676
889.15159,0.10060
887.22284,0.10373
885.29410,0.10567
883.36535,0.10646
881.43661,0.10625
879.50786,0.10526
877.57911,0.10382
875.65037,0.10256
873.72162,0.10281
871.79288,0.10624
869.86413,0.11269
867.93539,0.11962
866.00664,0.12455
864.07790,0.12673
862.14915,0.12661
860.22041,0.12508
858.29166,0.12268
856.36292,0.11965
854.43417,0.11635
852.50543,0.11337
850.57668,0.11117
848.64794,0.11025
846.71919,0.11098
844.79044,0.11301
842.86170,0.11547
840.93295,0.11788
839.00421,0.12004
837.07546,0.12179
835.14672,0.12340
833.21797,0.12511
831.28923,0.12670
829.36048,0.12785
827.43174,0.12823
825.50299,0.12806
823.57425,0.12786
821.64550,0.12750
819.71676,0.12659
817.78801,0.12520
815.85926,0.12361
813.93052,0.12206
812.00177,0.12067
810.07303,0.11937
808.14428,0.11834
806.21554,0.11756
804.28679,0.11624
802.35805,0.11412
800.42930,0.11171
798.50056,0.10882
796.57181,0.10480
794.64307,0.10074
792.71432,0.09894
790.78558,0.09982
788.85683,0.10179
786.92809,0.10351
784.99934,0.10461
783.07059,0.10489
781.14185,0.10434
779.21310,0.10348
777.28436,0.10278
775.35561,0.10195
773.42687,0.10078
771.49812,0.09981
769.56938,0.09924
767.64063,0.09839
765.71189,0.09698
763.78314,0.09527
761.85440,0.09345
759.92565,0.09140
757.99691,0.08904
756.06816,0.08672
754.13942,0.08452
752.21067,0.08201
750.28192,0.07901
748.35318,0.07568
746.42443,0.07198
744.49569,0.06763
742.56694,0.06242
740.63820,0.05657
738.70945,0.05075
736.78071,0.04601
734.85196,0.04314
732.92322,0.04205
730.99447,0.04189
729.06573,0.04186
727.13698,0.04201
725.20824,0.04263
723.27949,0.04410
721.35074,0.04704
719.42200,0.05124
717.49325,0.05531
715.56451,0.05803
713.63576,0.05931
711.70702,0.05964
709.77827,0.05970
707.84953,0.05998
705.92078,0.06034
703.99204,0.06068
702.06329,0.06133
700.13455,0.06252
698.20580,0.06410
696.27706,0.06542
694.34831,0.06570
692.41957,0.06491
690.49082,0.06373
688.56207,0.06294
686.63333,0.06248
684.70458,0.06164
682.77584,0.06038
680.84709,0.05931
678.91835,0.05869
676.98960,0.05820
675.06086,0.05775
673.13211,0.05789
671.20337,0.05842
669.27462,0.05859
667.34588,0.05835
665.41713,0.05780
663.48839,0.05737
661.55964,0.05755
659.63090,0.05858
657.70215,0.06001
655.77340,0.06103
653.84466,0.06136
651.91591,0.06100
649.98717,0.06026
648.05842,0.05961
646.12968,0.05851
644.20093,0.05688
642.27219,0.05593
640.34344,0.05564
638.41470,0.05509
636.48595,0.05402
634.55721,0.05196
632.62846,0.04976
630.69972,0.04952
628.77097,0.05073
626.84222,0.05190
624.91348,0.05311
622.98473,0.05342
621.05599,0.05166
619.12724,0.05004
617.19850,0.05082
615.26975,0.05243
613.34101,0.05291
611.41226,0.05261
609.48352,0.05285
607.55477,0.05397
605.62603,0.05502
603.69728,0.05554
601.76854,0.05586
599.83979,0.05597
