7497.03301,0.69246
7495.10426,0.69056
7493.17552,0.68657
7491.24677,0.68862
7489.31803,0.69289
7487.38928,0.69152
7485.46054,0.68754
7483.53179,0.68610
7481.60305,0.68415
7479.67430,0.67823
7477.74556,0.67259
7475.81681,0.67337
7473.88807,0.67933
7471.95932,0.68533
7470.03057,0.69002
7468.10183,0.69282
7466.17308,0.69126
7464.24434,0.68547
7462.31559,0.68030
7460.38685,0.68072
7458.45810,0.68439
7456.52936,0.68480
7454.60061,0.68114
7452.67187,0.67809
7450.74312,0.67795
7448.81438,0.67934
7446.88563,0.68030
7444.95689,0.67863
7443.02814,0.67602
7441.09940,0.67645
7439.17065,0.67806
7437.24190,0.67784
7435.31316,0.67693
7433.38441,0.67643
7431.45567,0.67536
7429.52692,0.67311
7427.59818,0.67275
7425.66943,0.67471
7423.74069,0.67264
7421.81194,0.66785
7419.88320,0.66860
7417.95445,0.67426
7416.02571,0.67929
7414.09696,0.68048
7412.16822,0.67680
7410.23947,0.67186
7408.31073,0.67122
7406.38198,0.67454
7404.45323,0.67454
7402.52449,0.67080
7400.59574,0.67138
7398.66700,0.67552
7396.73825,0.67653
7394.80951,0.67328
7392.88076,0.66715
7390.95202,0.66016
7389.02327,0.65639
7387.09453,0.65786
7385.16578,0.66140
7383.23704,0.66312
7381.30829,0.66363
7379.37955,0.66501
7377.45080,0.66711
7375.52205,0.66893
7373.59331,0.66967
7371.66456,0.66960
7369.73582,0.67022
7367.80707,0.67001
7365.87833,0.66537
7363.94958,0.65832
7362.02084,0.65404
7360.09209,0.65458
7358.16335,0.65763
7356.23460,0.65934
7354.30586,0.66069
7352.37711,0.66286
7350.44837,0.66186
7348.51962,0.65851
7346.59088,0.65741
7344.66213,0.65839
7342.73338,0.65917
7340.80464,0.65759
7338.87589,0.65399
7336.94715,0.65247
7335.01840,0.65331
7333.08966,0.65166
7331.16091,0.64864
7329.23217,0.65039
7327.30342,0.65400
7325.37468,0.65258
7323.44593,0.64918
7321.51719,0.64936
7319.58844,0.65022
7317.65970,0.64742
7315.73095,0.64433
7313.80221,0.64516
7311.87346,0.64800
7309.94471,0.64942
7308.01597,0.64787
7306.08722,0.64665
7304.15848,0.64977
7302.22973,0.65398
7300.30099,0.65625
7298.37224,0.65766
7296.44350,0.65828
7294.51475,0.65810
7292.58601,0.65647
7290.65726,0.65375
7288.72852,0.65241
7286.79977,0.65107
7284.87103,0.64735
7282.94228,0.64388
7281.01353,0.64339
7279.08479,0.64513
7277.15604,0.64648
7275.22730,0.64632
7273.29855,0.64731
7271.36981,0.64961
7269.44106,0.65039
7267.51232,0.64960
7265.58357,0.64785
7263.65483,0.64661
7261.72608,0.64683
7259.79734,0.64722
7257.86859,0.64782
7255.93985,0.64766
7254.01110,0.64580
7252.08236,0.64662
7250.15361,0.65280
7248.22486,0.65649
7246.29612,0.65017
7244.36737,0.64061
7242.43863,0.63928
7240.50988,0.64729
7238.58114,0.65496
7236.65239,0.65549
7234.72365,0.65364
7232.79490,0.65437
7230.86616,0.65533
7228.93741,0.65435
7227.00867,0.65140
7225.07992,0.64749
7223.15118,0.64606
7221.22243,0.64798
7219.29369,0.64901
7217.36494,0.64748
7215.43619,0.64692
7213.50745,0.64804
7211.57870,0.64664
7209.64996,0.64262
7207.72121,0.64129
7205.79247,0.64357
7203.86372,0.64569
7201.93498,0.64610
7200.00623,0.64648
7198.07749,0.64916
7196.14874,0.65377
7194.22000,0.65675
7192.29125,0.65510
7190.36251,0.65106
7188.43376,0.64883
7186.50501,0.64847
7184.57627,0.64929
7182.64752,0.65107
7180.71878,0.65176
7178.79003,0.65077
7176.86129,0.64866
7174.93254,0.64567
7173.00380,0.64328
7171.07505,0.64279
7169.14631,0.64213
7167.21756,0.64048
7165.28882,0.64062
7163.36007,0.64179
7161.43133,0.64351
7159.50258,0.64741
7157.57384,0.64945
7155.64509,0.64683
7153.71634,0.64370
7151.78760,0.64214
7149.85885,0.64038
7147.93011,0.63949
7146.00136,0.64017
7144.07262,0.63961
7142.14387,0.63880
7140.21513,0.64007
7138.28638,0.64138
7136.35764,0.64220
7134.42889,0.64289
7132.50015,0.64091
7130.57140,0.63717
7128.64266,0.63531
7126.71391,0.63443
7124.78516,0.63268
7122.85642,0.63204
7120.92767,0.63268
7118.99893,0.63040
7117.07018,0.62714
7115.14144,0.62813
7113.21269,0.62951
7111.28395,0.62988
7109.35520,0.63264
7107.42646,0.63343
7105.49771,0.62869
7103.56897,0.62246
7101.64022,0.62030
7099.71148,0.62286
7097.78273,0.62540
7095.85399,0.62587
7093.92524,0.62456
7091.99649,0.62164
7090.06775,0.61903
7088.13900,0.61756
7086.21026,0.61676
7084.28151,0.61664
7082.35277,0.61624
7080.42402,0.61373
7078.49528,0.61125
7076.56653,0.61231
7074.63779,0.61354
7072.70904,0.61128
7070.78030,0.60898
7068.85155,0.60857
7066.92281,0.60730
7064.99406,0.60452
7063.06532,0.60207
7061.13657,0.60096
7059.20782,0.60113
7057.27908,0.60125
7055.35033,0.60080
7053.42159,0.60194
7051.49284,0.60412
7049.56410,0.60345
7047.63535,0.60068
7045.70661,0.59901
7043.77786,0.59804
7041.84912,0.59728
7039.92037,0.59595
7037.99163,0.59113
7036.06288,0.58532
7034.13414,0.58525
7032.20539,0.58914
7030.27664,0.58889
7028.34790,0.58358
7026.41915,0.57961
7024.49041,0.58123
7022.56166,0.58460
7020.63292,0.58365
7018.70417,0.58016
7016.77543,0.57907
7014.84668,0.57951
7012.91794,0.57894
7010.98919,0.57774
7009.06045,0.57642
7007.13170,0.57523
7005.20296,0.57412
7003.27421,0.57266
7001.34547,0.57216
6999.41672,0.57270
6997.48797,0.57355
6995.55923,0.57477
6993.63048,0.57474
6991.70174,0.57308
6989.77299,0.57130
6987.84425,0.57050
6985.91550,0.57179
6983.98676,0.57342
6982.05801,0.57257
6980.12927,0.57042
6978.20052,0.56853
6976.27178,0.56649
6974.34303,0.56488
6972.41429,0.56410
6970.48554,0.56306
6968.55680,0.56221
6966.62805,0.56347
6964.69930,0.56520
6962.77056,0.56456
6960.84181,0.56284
6958.91307,0.56137
6956.98432,0.56019
6955.05558,0.55976
6953.12683,0.55972
6951.19809,0.55965
6949.26934,0.55903
6947.34060,0.55873
6945.41185,0.55950
6943.48311,0.55871
6941.55436,0.55652
6939.62562,0.55573
6937.69687,0.55590
6935.76812,0.55646
6933.83938,0.55765
6931.91063,0.55781
6929.98189,0.55659
6928.05314,0.55540
6926.12440,0.55495
6924.19565,0.55691
6922.26691,0.56077
6920.33816,0.56230
6918.40942,0.56115
6916.48067,0.55959
6914.55193,0.55715
6912.62318,0.55483
6910.69444,0.55465
6908.76569,0.55605
6906.83695,0.55825
6904.90820,0.55896
6902.97945,0.55543
6901.05071,0.55070
6899.12196,0.55029
6897.19322,0.55352
6895.26447,0.55553
6893.33573,0.55635
6891.40698,0.55783
6889.47824,0.55696
6887.54949,0.55296
6885.62075,0.55004
6883.69200,0.54924
6881.76326,0.54883
6879.83451,0.54856
6877.90577,0.54880
6875.97702,0.54950
6874.04828,0.54948
6872.11953,0.54845
6870.19078,0.54821
6868.26204,0.54818
6866.33329,0.54677
6864.40455,0.54535
6862.47580,0.54555
6860.54706,0.54712
6858.61831,0.54830
6856.68957,0.54806
6854.76082,0.54791
6852.83208,0.54875
6850.90333,0.54878
6848.97459,0.54623
6847.04584,0.54227
6845.11710,0.54034
6843.18835,0.54105
6841.25960,0.54115
6839.33086,0.54019
6837.40211,0.54054
6835.47337,0.54115
6833.54462,0.54058
6831.61588,0.54059
6829.68713,0.54139
6827.75839,0.54084
6825.82964,0.53937
6823.90090,0.53988
6821.97215,0.54091
6820.04341,0.53891
6818.11466,0.53659
6816.18592,0.53737
6814.25717,0.53871
6812.32843,0.53812
6810.39968,0.53664
6808.47093,0.53570
6806.54219,0.53526
6804.61344,0.53478
6802.68470,0.53362
6800.75595,0.53165
6798.82721,0.53057
6796.89846,0.53212
6794.96972,0.53458
6793.04097,0.53547
6791.11223,0.53577
6789.18348,0.53591
6787.25474,0.53551
6785.32599,0.53467
6783.39725,0.53124
6781.46850,0.52643
6779.53975,0.52540
6777.61101,0.52800
6775.68226,0.52988
6773.75352,0.52992
6771.82477,0.52930
6769.89603,0.52841
6767.96728,0.52828
6766.03854,0.52828
6764.10979,0.52658
6762.18105,0.52552
6760.25230,0.52784
6758.32356,0.53167
6756.39481,0.53393
6754.46607,0.53360
6752.53732,0.53124
6750.60858,0.52916
6748.67983,0.52844
6746.75108,0.52719
6744.82234,0.52536
6742.89359,0.52425
6740.96485,0.52377
6739.03610,0.52358
6737.10736,0.52358
6735.17861,0.52484
6733.24987,0.52760
6731.32112,0.52903
6729.39238,0.52691
6727.46363,0.52399
6725.53489,0.52302
6723.60614,0.52179
6721.67740,0.51994
6719.74865,0.52048
6717.81991,0.52339
6715.89116,0.52663
6713.96241,0.52844
6712.03367,0.52890
6710.10492,0.53003
6708.17618,0.53043
6706.24743,0.52798
6704.31869,0.52471
6702.38994,0.52185
6700.46120,0.52033
6698.53245,0.52212
6696.60371,0.52608
6694.67496,0.52966
6692.74622,0.53081
6690.81747,0.52884
6688.88873,0.52606
6686.95998,0.52511
6685.03123,0.52600
6683.10249,0.52709
6681.17374,0.52687
6679.24500,0.52511
6677.31625,0.52449
6675.38751,0.52662
6673.45876,0.52819
6671.53002,0.52738
6669.60127,0.52666
6667.67253,0.52739
6665.74378,0.52832
6663.81504,0.52872
6661.88629,0.52884
6659.95755,0.52830
6658.02880,0.52821
6656.10006,0.53040
6654.17131,0.53281
6652.24256,0.53191
6650.31382,0.52932
6648.38507,0.52966
6646.45633,0.53222
6644.52758,0.53302
6642.59884,0.53221
6640.67009,0.53111
6638.74135,0.53001
6636.81260,0.53001
6634.88386,0.53054
6632.95511,0.53111
6631.02637,0.53359
6629.09762,0.53685
6627.16888,0.53712
6625.24013,0.53522
6623.31139,0.53550
6621.38264,0.53852
6619.45389,0.54129
6617.52515,0.54210
6615.59640,0.54045
6613.66766,0.53676
6611.73891,0.53339
6609.81017,0.53181
6607.88142,0.53203
6605.95268,0.53359
6604.02393,0.53492
6602.09519,0.53554
6600.16644,0.53707
6598.23770,0.53992
6596.30895,0.54125
6594.38021,0.53862
6592.45146,0.53493
6590.52271,0.53446
6588.59397,0.53673
6586.66522,0.53901
6584.73648,0.53929
6582.80773,0.53790
6580.87899,0.53745
6578.95024,0.53791
6577.02150,0.53708
6575.09275,0.53569
6573.16401,0.53596
6571.23526,0.53825
6569.30652,0.54161
6567.37777,0.54397
6565.44903,0.54305
6563.52028,0.54063
6561.59154,0.54038
6559.66279,0.54161
6557.73404,0.54146
6555.80530,0.53961
6553.87655,0.53799
6551.94781,0.53776
6550.01906,0.53850
6548.09032,0.54013
6546.16157,0.54200
6544.23283,0.54272
6542.30408,0.54238
6540.37534,0.54164
6538.44659,0.54085
6536.51785,0.54122
6534.58910,0.54329
6532.66036,0.54477
6530.73161,0.54399
6528.80287,0.54219
6526.87412,0.54044
6524.94537,0.53953
6523.01663,0.53958
6521.08788,0.53962
6519.15914,0.53972
6517.23039,0.54061
6515.30165,0.54222
6513.37290,0.54368
6511.44416,0.54327
6509.51541,0.54068
6507.58667,0.53914
6505.65792,0.54057
6503.72918,0.54214
6501.80043,0.54166
6499.87169,0.54019
6497.94294,0.53951
6496.01419,0.53998
6494.08545,0.53959
6492.15670,0.53739
6490.22796,0.53662
6488.29921,0.53945
6486.37047,0.54270
6484.44172,0.54293
6482.51298,0.54073
6480.58423,0.53894
6478.65549,0.53966
6476.72674,0.54166
6474.79800,0.54216
6472.86925,0.54117
6470.94051,0.54020
6469.01176,0.53903
6467.08302,0.53801
6465.15427,0.53845
6463.22552,0.53923
6461.29678,0.53860
6459.36803,0.53831
6457.43929,0.54056
6455.51054,0.54347
6453.58180,0.54425
6451.65305,0.54270
6449.72431,0.54015
6447.79556,0.53905
6445.86682,0.54022
6443.93807,0.54111
6442.00933,0.54030
6440.08058,0.53964
6438.15184,0.54053
6436.22309,0.54172
6434.29434,0.54214
6432.36560,0.54173
6430.43685,0.54084
6428.50811,0.54042
6426.57936,0.54063
6424.65062,0.54084
6422.72187,0.54155
6420.79313,0.54339
6418.86438,0.54471
6416.93564,0.54435
6415.00689,0.54476
6413.07815,0.54684
6411.14940,0.54779
6409.22066,0.54659
6407.29191,0.54498
6405.36317,0.54432
6403.43442,0.54464
6401.50567,0.54620
6399.57693,0.54812
6397.64818,0.54751
6395.71944,0.54540
6393.79069,0.54541
6391.86195,0.54546
6389.93320,0.54327
6388.00446,0.54247
6386.07571,0.54494
6384.14697,0.54763
6382.21822,0.54801
6380.28948,0.54629
6378.36073,0.54475
6376.43199,0.54517
6374.50324,0.54551
6372.57450,0.54475
6370.64575,0.54492
6368.71700,0.54497
6366.78826,0.54425
6364.85951,0.54518
6362.93077,0.54712
6361.00202,0.54776
6359.07328,0.54713
6357.14453,0.54692
6355.21579,0.54795
6353.28704,0.54799
6351.35830,0.54595
6349.42955,0.54489
6347.50081,0.54627
6345.57206,0.54770
6343.64332,0.54741
6341.71457,0.54604
6339.78582,0.54534
6337.85708,0.54547
6335.92833,0.54468
6333.99959,0.54393
6332.07084,0.54572
6330.14210,0.54806
6328.21335,0.54722
6326.28461,0.54502
6324.35586,0.54554
6322.42712,0.54776
6320.49837,0.54801
6318.56963,0.54638
6316.64088,0.54531
6314.71214,0.54525
6312.78339,0.54557
6310.85465,0.54643
6308.92590,0.54748
6306.99715,0.54762
6305.06841,0.54753
6303.13966,0.54862
6301.21092,0.54956
6299.28217,0.54902
6297.35343,0.54885
6295.42468,0.54944
6293.49594,0.54930
6291.56719,0.54938
6289.63845,0.55038
6287.70970,0.55080
6285.78096,0.55041
6283.85221,0.55063
6281.92347,0.55189
6279.99472,0.55272
6278.06598,0.55219
6276.13723,0.55139
6274.20848,0.55104
6272.27974,0.55128
6270.35099,0.55242
6268.42225,0.55369
6266.49350,0.55457
6264.56476,0.55574
6262.63601,0.55626
6260.70727,0.55498
6258.77852,0.55366
6256.84978,0.55447
6254.92103,0.55726
6252.99229,0.55937
6251.06354,0.55884
6249.13480,0.55831
6247.20605,0.55971
6245.27730,0.56030
6243.34856,0.55967
6241.41981,0.56041
6239.49107,0.56218
6237.56232,0.56366
6235.63358,0.56519
6233.70483,0.56657
6231.77609,0.56705
6229.84734,0.56707
6227.91860,0.56743
6225.98985,0.56815
6224.06111,0.56835
6222.13236,0.56752
6220.20362,0.56626
6218.27487,0.56560
6216.34613,0.56648
6214.41738,0.56868
6212.48863,0.57030
6210.55989,0.57014
6208.63114,0.56951
6206.70240,0.57008
6204.77365,0.57169
6202.84491,0.57366
6200.91616,0.57533
6198.98742,0.57546
6197.05867,0.57414
6195.12993,0.57328
6193.20118,0.57376
6191.27244,0.57459
6189.34369,0.57555
6187.41495,0.57680
6185.48620,0.57685
6183.55746,0.57553
6181.62871,0.57530
6179.69996,0.57691
6177.77122,0.57856
6175.84247,0.57953
6173.91373,0.58014
6171.98498,0.57999
6170.05624,0.57963
6168.12749,0.58013
6166.19875,0.58107
6164.27000,0.58201
6162.34126,0.58306
6160.41251,0.58406
6158.48377,0.58485
6156.55502,0.58523
6154.62628,0.58492
6152.69753,0.58411
6150.76878,0.58378
6148.84004,0.58434
6146.91129,0.58564
6144.98255,0.58768
6143.05380,0.58860
6141.12506,0.58765
6139.19631,0.58691
6137.26757,0.58653
6135.33882,0.58585
6133.41008,0.58615
6131.48133,0.58768
6129.55259,0.58865
6127.62384,0.58823
6125.69510,0.58763
6123.76635,0.58693
6121.83761,0.58573
6119.90886,0.58513
6117.98011,0.58592
6116.05137,0.58732
6114.12262,0.58803
6112.19388,0.58786
6110.26513,0.58758
6108.33639,0.58743
6106.40764,0.58716
6104.47890,0.58652
6102.55015,0.58550
6100.62141,0.58403
6098.69266,0.58225
6096.76392,0.58086
6094.83517,0.58034
6092.90643,0.58000
6090.97768,0.57907
6089.04893,0.57799
6087.12019,0.57765
6085.19144,0.57811
6083.26270,0.57825
6081.33395,0.57772
6079.40521,0.57712
6077.47646,0.57651
6075.54772,0.57596
6073.61897,0.57518
6071.69023,0.57419
6069.76148,0.57370
6067.83274,0.57340
6065.90399,0.57201
6063.97525,0.56912
6062.04650,0.56659
6060.11776,0.56589
6058.18901,0.56559
6056.26026,0.56500
6054.33152,0.56487
6052.40277,0.56408
6050.47403,0.56220
6048.54528,0.56129
6046.61654,0.56145
6044.68779,0.56112
6042.75905,0.56039
6040.83030,0.55961
6038.90156,0.55862
6036.97281,0.55744
6035.04407,0.55587
6033.11532,0.55389
6031.18658,0.55283
6029.25783,0.55310
6027.32909,0.55248
6025.40034,0.55011
6023.47159,0.54790
6021.54285,0.54725
6019.61410,0.54747
6017.68536,0.54757
6015.75661,0.54828
6013.82787,0.55001
6011.89912,0.55142
6009.97038,0.55216
6008.04163,0.55331
6006.11289,0.55522
6004.18414,0.55725
6002.25540,0.55872
6000.32665,0.55927
5998.39791,0.56014
5996.46916,0.56324
5994.54041,0.56730
5992.61167,0.56961
5990.68292,0.57000
5988.75418,0.57027
5986.82543,0.57158
5984.89669,0.57327
5982.96794,0.57401
5981.03920,0.57342
5979.11045,0.57335
5977.18171,0.57520
5975.25296,0.57707
5973.32422,0.57773
5971.39547,0.57817
5969.46673,0.57854
5967.53798,0.57900
5965.60924,0.58004
5963.68049,0.58113
5961.75174,0.58174
5959.82300,0.58156
5957.89425,0.58083
5955.96551,0.58116
5954.03676,0.58253
5952.10802,0.58335
5950.17927,0.58336
5948.25053,0.58265
5946.32178,0.58108
5944.39304,0.57963
5942.46429,0.57944
5940.53555,0.58018
5938.60680,0.58099
5936.67806,0.58152
5934.74931,0.58190
5932.82057,0.58316
5930.89182,0.58559
5928.96307,0.58766
5927.03433,0.58820
5925.10558,0.58735
5923.17684,0.58632
5921.24809,0.58652
5919.31935,0.58803
5917.39060,0.58918
5915.46186,0.58912
5913.53311,0.58917
5911.60437,0.58952
5909.67562,0.58953
5907.74688,0.58998
5905.81813,0.59057
5903.88939,0.58967
5901.96064,0.58781
5900.03189,0.58757
5898.10315,0.58895
5896.17440,0.58923
5894.24566,0.58846
5892.31691,0.58776
5890.38817,0.58610
5888.45942,0.58326
5886.53068,0.58079
5884.60193,0.57997
5882.67319,0.58027
5880.74444,0.58036
5878.81570,0.58044
5876.88695,0.58053
5874.95821,0.57983
5873.02946,0.57859
5871.10072,0.57747
5869.17197,0.57678
5867.24322,0.57634
5865.31448,0.57553
5863.38573,0.57451
5861.45699,0.57434
5859.52824,0.57505
5857.59950,0.57493
5855.67075,0.57365
5853.74201,0.57328
5851.81326,0.57420
5849.88452,0.57524
5847.95577,0.57616
5846.02703,0.57631
5844.09828,0.57618
5842.16954,0.57745
5840.24079,0.57863
5838.31205,0.57798
5836.38330,0.57703
5834.45455,0.57666
5832.52581,0.57596
5830.59706,0.57524
5828.66832,0.57531
5826.73957,0.57539
5824.81083,0.57524
5822.88208,0.57569
5820.95334,0.57591
5819.02459,0.57504
5817.09585,0.57441
5815.16710,0.57466
5813.23836,0.57449
5811.30961,0.57413
5809.38087,0.57490
5807.45212,0.57550
5805.52337,0.57490
5803.59463,0.57465
5801.66588,0.57470
5799.73714,0.57404
5797.80839,0.57326
5795.87965,0.57322
5793.95090,0.57410
5792.02216,0.57468
5790.09341,0.57374
5788.16467,0.57235
5786.23592,0.57194
5784.30718,0.57250
5782.37843,0.57315
5780.44969,0.57290
5778.52094,0.57229
5776.59220,0.57278
5774.66345,0.57379
5772.73470,0.57375
5770.80596,0.57273
5768.87721,0.57168
5766.94847,0.57132
5765.01972,0.57184
5763.09098,0.57284
5761.16223,0.57345
5759.23349,0.57340
5757.30474,0.57335
5755.37600,0.57344
5753.44725,0.57368
5751.51851,0.57421
5749.58976,0.57476
5747.66102,0.57518
5745.73227,0.57526
5743.80352,0.57511
5741.87478,0.57552
5739.94603,0.57650
5738.01729,0.57740
5736.08854,0.57817
5734.15980,0.57855
5732.23105,0.57790
5730.30231,0.57679
5728.37356,0.57656
5726.44482,0.57722
5724.51607,0.57780
5722.58733,0.57824
5720.65858,0.57878
5718.72984,0.57850
5716.80109,0.57717
5714.87235,0.57632
5712.94360,0.57692
5711.01485,0.57828
5709.08611,0.57921
5707.15736,0.57925
5705.22862,0.57898
5703.29987,0.57881
5701.37113,0.57835
5699.44238,0.57769
5697.51364,0.57742
5695.58489,0.57778
5693.65615,0.57872
5691.72740,0.57929
5689.79866,0.57895
5687.86991,0.57861
5685.94117,0.57887
5684.01242,0.57899
5682.08368,0.57870
5680.15493,0.57829
5678.22618,0.57755
5676.29744,0.57726
5674.36869,0.57817
5672.43995,0.57894
5670.51120,0.57932
5668.58246,0.58009
5666.65371,0.58021
5664.72497,0.57956
5662.79622,0.57929
5660.86748,0.57905
5658.93873,0.57855
5657.00999,0.57843
5655.08124,0.57884
5653.15250,0.57983
5651.22375,0.58054
5649.29500,0.57949
5647.36626,0.57771
5645.43751,0.57697
5643.50877,0.57702
5641.58002,0.57745
5639.65128,0.57824
5637.72253,0.57868
5635.79379,0.57887
5633.86504,0.57980
5631.93630,0.58053
5630.00755,0.57988
5628.07881,0.57961
5626.15006,0.58091
5624.22132,0.58230
5622.29257,0.58295
5620.36383,0.58268
5618.43508,0.58143
5616.50633,0.58082
5614.57759,0.58211
5612.64884,0.58358
5610.72010,0.58342
5608.79135,0.58223
5606.86261,0.58133
5604.93386,0.58130
5603.00512,0.58184
5601.07637,0.58215
5599.14763,0.58214
5597.21888,0.58233
5595.29014,0.58261
5593.36139,0.58222
5591.43265,0.58152
5589.50390,0.58168
5587.57516,0.58235
5585.64641,0.58235
5583.71766,0.58184
5581.78892,0.58150
5579.86017,0.58132
5577.93143,0.58115
5576.00268,0.58117
5574.07394,0.58134
5572.14519,0.58138
5570.21645,0.58118
5568.28770,0.58095
5566.35896,0.58110
5564.43021,0.58175
5562.50147,0.58246
5560.57272,0.58240
5558.64398,0.58204
5556.71523,0.58283
5554.78648,0.58399
5552.85774,0.58385
5550.92899,0.58305
5549.00025,0.58300
5547.07150,0.58412
5545.14276,0.58541
5543.21401,0.58542
5541.28527,0.58430
5539.35652,0.58325
5537.42778,0.58285
5535.49903,0.58306
5533.57029,0.58326
5531.64154,0.58276
5529.71280,0.58185
5527.78405,0.58151
5525.85531,0.58213
5523.92656,0.58274
5521.99781,0.58232
5520.06907,0.58166
5518.14032,0.58187
5516.21158,0.58251
5514.28283,0.58286
5512.35409,0.58292
5510.42534,0.58310
5508.49660,0.58330
5506.56785,0.58350
5504.63911,0.58374
5502.71036,0.58366
5500.78162,0.58381
5498.85287,0.58480
5496.92413,0.58572
5494.99538,0.58577
5493.06664,0.58507
5491.13789,0.58420
5489.20914,0.58431
5487.28040,0.58539
5485.35165,0.58587
5483.42291,0.58548
5481.49416,0.58494
5479.56542,0.58449
5477.63667,0.58411
5475.70793,0.58359
5473.77918,0.58349
5471.85044,0.58442
5469.92169,0.58514
5467.99295,0.58459
5466.06420,0.58384
5464.13546,0.58395
5462.20671,0.58431
5460.27796,0.58458
5458.34922,0.58507
5456.42047,0.58561
5454.49173,0.58634
5452.56298,0.58763
5450.63424,0.58904
5448.70549,0.58975
5446.77675,0.58989
5444.84800,0.59006
5442.91926,0.58999
5440.99051,0.58952
5439.06177,0.58952
5437.13302,0.59015
5435.20428,0.59076
5433.27553,0.59126
5431.34679,0.59204
5429.41804,0.59314
5427.48929,0.59398
5425.56055,0.59414
5423.63180,0.59417
5421.70306,0.59461
5419.77431,0.59516
5417.84557,0.59546
5415.91682,0.59567
5413.98808,0.59605
5412.05933,0.59667
5410.13059,0.59717
5408.20184,0.59732
5406.27310,0.59754
5404.34435,0.59778
5402.41561,0.59760
5400.48686,0.59736
5398.55811,0.59727
5396.62937,0.59688
5394.70062,0.59679
5392.77188,0.59780
5390.84313,0.59930
5388.91439,0.60076
5386.98564,0.60154
5385.05690,0.60073
5383.12815,0.59943
5381.19941,0.59933
5379.27066,0.60032
5377.34192,0.60135
5375.41317,0.60162
5373.48443,0.60123
5371.55568,0.60090
5369.62694,0.60106
5367.69819,0.60119
5365.76944,0.60069
5363.84070,0.60030
5361.91195,0.60121
5359.98321,0.60260
5358.05446,0.60260
5356.12572,0.60135
5354.19697,0.60069
5352.26823,0.60103
5350.33948,0.60118
5348.41074,0.60092
5346.48199,0.60078
5344.55325,0.60089
5342.62450,0.60134
5340.69576,0.60150
5338.76701,0.60049
5336.83827,0.59920
5334.90952,0.59909
5332.98077,0.59941
5331.05203,0.59896
5329.12328,0.59813
5327.19454,0.59781
5325.26579,0.59815
5323.33705,0.59830
5321.40830,0.59773
5319.47956,0.59693
5317.55081,0.59616
5315.62207,0.59534
5313.69332,0.59461
5311.76458,0.59397
5309.83583,0.59331
5307.90709,0.59279
5305.97834,0.59230
5304.04959,0.59128
5302.12085,0.58961
5300.19210,0.58784
5298.26336,0.58691
5296.33461,0.58720
5294.40587,0.58747
5292.47712,0.58623
5290.54838,0.58403
5288.61963,0.58256
5286.69089,0.58192
5284.76214,0.58100
5282.83340,0.57922
5280.90465,0.57676
5278.97591,0.57424
5277.04716,0.57246
5275.11842,0.57136
5273.18967,0.56972
5271.26092,0.56722
5269.33218,0.56463
5267.40343,0.56240
5265.47469,0.56040
5263.54594,0.55849
5261.61720,0.55667
5259.68845,0.55481
5257.75971,0.55241
5255.83096,0.54940
5253.90222,0.54655
5251.97347,0.54429
5250.04473,0.54242
5248.11598,0.54131
5246.18724,0.54081
5244.25849,0.53962
5242.32975,0.53743
5240.40100,0.53537
5238.47225,0.53403
5236.54351,0.53284
5234.61476,0.53141
5232.68602,0.52988
5230.75727,0.52845
5228.82853,0.52729
5226.89978,0.52614
5224.97104,0.52442
5223.04229,0.52264
5221.11355,0.52164
5219.18480,0.52095
5217.25606,0.51975
5215.32731,0.51830
5213.39857,0.51741
5211.46982,0.51713
5209.54107,0.51699
5207.61233,0.51664
5205.68358,0.51609
5203.75484,0.51565
5201.82609,0.51544
5199.89735,0.51514
5197.96860,0.51470
5196.03986,0.51409
5194.11111,0.51343
5192.18237,0.51306
5190.25362,0.51297
5188.32488,0.51284
5186.39613,0.51262
5184.46739,0.51254
5182.53864,0.51302
5180.60990,0.51407
5178.68115,0.51473
5176.75240,0.51444
5174.82366,0.51397
5172.89491,0.51400
5170.96617,0.51421
5169.03742,0.51372
5167.10868,0.51258
5165.17993,0.51230
5163.25119,0.51303
5161.32244,0.51303
5159.39370,0.51262
5157.46495,0.51306
5155.53621,0.51391
5153.60746,0.51467
5151.67872,0.51552
5149.74997,0.51607
5147.82123,0.51599
5145.89248,0.51612
5143.96373,0.51699
5142.03499,0.51779
5140.10624,0.51813
5138.17750,0.51855
5136.24875,0.51928
5134.32001,0.52004
5132.39126,0.52091
5130.46252,0.52164
5128.53377,0.52171
5126.60503,0.52161
5124.67628,0.52185
5122.74754,0.52216
5120.81879,0.52238
5118.89005,0.52265
5116.96130,0.52309
5115.03255,0.52352
5113.10381,0.52395
5111.17506,0.52478
5109.24632,0.52614
5107.31757,0.52773
5105.38883,0.52899
5103.46008,0.52945
5101.53134,0.52971
5099.60259,0.53049
5097.67385,0.53170
5095.74510,0.53304
5093.81636,0.53431
5091.88761,0.53551
5089.95887,0.53676
5088.03012,0.53746
5086.10138,0.53710
5084.17263,0.53667
5082.24388,0.53739
5080.31514,0.53858
5078.38639,0.53895
5076.45765,0.53907
5074.52890,0.54007
5072.60016,0.54115
5070.67141,0.54147
5068.74267,0.54169
5066.81392,0.54235
5064.88518,0.54315
5062.95643,0.54381
5061.02769,0.54456
5059.09894,0.54538
5057.17020,0.54579
5055.24145,0.54578
5053.31270,0.54588
5051.38396,0.54646
5049.45521,0.54727
5047.52647,0.54779
5045.59772,0.54833
5043.66898,0.54922
5041.74023,0.54976
5039.81149,0.54980
5037.88274,0.55005
5035.95400,0.55023
5034.02525,0.55014
5032.09651,0.55015
5030.16776,0.54996
5028.23902,0.54969
5026.31027,0.55001
5024.38153,0.55063
5022.45278,0.55086
5020.52403,0.55057
5018.59529,0.55024
5016.66654,0.55069
5014.73780,0.55175
5012.80905,0.55229
5010.88031,0.55219
5008.95156,0.55207
5007.02282,0.55192
5005.09407,0.55132
5003.16533,0.55053
5001.23658,0.55057
4999.30784,0.55116
4997.37909,0.55099
4995.45035,0.55057
4993.52160,0.55078
4991.59286,0.55104
4989.66411,0.55096
4987.73536,0.55058
4985.80662,0.54998
4983.87787,0.54973
4981.94913,0.54986
4980.02038,0.54975
4978.09164,0.54929
4976.16289,0.54868
4974.23415,0.54783
4972.30540,0.54667
4970.37666,0.54549
4968.44791,0.54450
4966.51917,0.54373
4964.59042,0.54311
4962.66168,0.54250
4960.73293,0.54158
4958.80418,0.54041
4956.87544,0.53936
4954.94669,0.53833
4953.01795,0.53719
4951.08920,0.53616
4949.16046,0.53513
4947.23171,0.53386
4945.30297,0.53255
4943.37422,0.53130
4941.44548,0.52979
4939.51673,0.52823
4937.58799,0.52678
4935.65924,0.52513
4933.73050,0.52321
4931.80175,0.52146
4929.87301,0.52026
4927.94426,0.51916
4926.01551,0.51759
4924.08677,0.51583
4922.15802,0.51404
4920.22928,0.51206
4918.30053,0.51034
4916.37179,0.50931
4914.44304,0.50828
4912.51430,0.50632
4910.58555,0.50376
4908.65681,0.50157
4906.72806,0.49988
4904.79932,0.49830
4902.87057,0.49660
4900.94183,0.49464
4899.01308,0.49242
4897.08434,0.48996
4895.15559,0.48726
4893.22684,0.48479
4891.29810,0.48289
4889.36935,0.48114
4887.44061,0.47931
4885.51186,0.47788
4883.58312,0.47658
4881.65437,0.47438
4879.72563,0.47176
4877.79688,0.46996
4875.86814,0.46823
4873.93939,0.46551
4872.01065,0.46301
4870.08190,0.46194
4868.15316,0.46138
4866.22441,0.46002
4864.29566,0.45783
4862.36692,0.45578
4860.43817,0.45442
4858.50943,0.45318
4856.58068,0.45160
4854.65194,0.45002
4852.72319,0.44873
4850.79445,0.44747
4848.86570,0.44604
4846.93696,0.44455
4845.00821,0.44298
4843.07947,0.44122
4841.15072,0.43967
4839.22198,0.43870
4837.29323,0.43797
4835.36449,0.43678
4833.43574,0.43465
4831.50699,0.43203
4829.57825,0.42989
4827.64950,0.42864
4825.72076,0.42778
4823.79201,0.42676
4821.86327,0.42563
4819.93452,0.42423
4818.00578,0.42243
4816.07703,0.42080
4814.14829,0.41977
4812.21954,0.41916
4810.29080,0.41853
4808.36205,0.41749
4806.43331,0.41621
4804.50456,0.41501
4802.57582,0.41393
4800.64707,0.41309
4798.71832,0.41266
4796.78958,0.41235
4794.86083,0.41157
4792.93209,0.41051
4791.00334,0.41008
4789.07460,0.41019
4787.14585,0.40981
4785.21711,0.40897
4783.28836,0.40831
4781.35962,0.40770
4779.43087,0.40720
4777.50213,0.40703
4775.57338,0.40684
4773.64464,0.40666
4771.71589,0.40690
4769.78714,0.40721
4767.85840,0.40730
4765.92965,0.40737
4764.00091,0.40710
4762.07216,0.40615
4760.14342,0.40505
4758.21467,0.40420
4756.28593,0.40365
4754.35718,0.40336
4752.42844,0.40321
4750.49969,0.40299
4748.57095,0.40262
4746.64220,0.40243
4744.71346,0.40239
4742.78471,0.40205
4740.85597,0.40175
4738.92722,0.40204
4736.99847,0.40235
4735.06973,0.40230
4733.14098,0.40236
4731.21224,0.40249
4729.28349,0.40215
4727.35475,0.40146
4725.42600,0.40117
4723.49726,0.40113
4721.56851,0.40078
4719.63977,0.40041
4717.71102,0.40056
4715.78228,0.40127
4713.85353,0.40216
4711.92479,0.40290
4709.99604,0.40353
4708.06729,0.40394
4706.13855,0.40382
4704.20980,0.40325
4702.28106,0.40270
4700.35231,0.40237
4698.42357,0.40172
4696.49482,0.40070
4694.56608,0.40029
4692.63733,0.40096
4690.70859,0.40192
4688.77984,0.40261
4686.85110,0.40322
4684.92235,0.40417
4682.99361,0.40591
4681.06486,0.40796
4679.13612,0.40961
4677.20737,0.41142
4675.27862,0.41389
4673.34988,0.41632
4671.42113,0.41812
4669.49239,0.41958
4667.56364,0.42093
4665.63490,0.42199
4663.70615,0.42298
4661.77741,0.42417
4659.84866,0.42513
4657.91992,0.42558
4655.99117,0.42597
4654.06243,0.42625
4652.13368,0.42627
4650.20494,0.42637
4648.27619,0.42646
4646.34745,0.42596
4644.41870,0.42510
4642.48995,0.42474
4640.56121,0.42478
4638.63246,0.42467
4636.70372,0.42465
4634.77497,0.42492
4632.84623,0.42543
4630.91748,0.42651
4628.98874,0.42831
4627.05999,0.43055
4625.13125,0.43280
4623.20250,0.43501
4621.27376,0.43755
4619.34501,0.44010
4617.41627,0.44189
4615.48752,0.44285
4613.55877,0.44372
4611.63003,0.44528
4609.70128,0.44702
4607.77254,0.44791
4605.84379,0.44810
4603.91505,0.44847
4601.98630,0.44908
4600.05756,0.44945
4598.12881,0.44929
4596.20007,0.44878
4594.27132,0.44844
4592.34258,0.44844
4590.41383,0.44865
4588.48509,0.44904
4586.55634,0.44940
4584.62760,0.44953
4582.69885,0.44957
4580.77010,0.45006
4578.84136,0.45126
4576.91261,0.45238
4574.98387,0.45323
4573.05512,0.45483
4571.12638,0.45728
4569.19763,0.45968
4567.26889,0.46157
4565.34014,0.46304
4563.41140,0.46425
4561.48265,0.46540
4559.55391,0.46656
4557.62516,0.46775
4555.69642,0.46898
4553.76767,0.46989
4551.83893,0.47019
4549.91018,0.47013
4547.98143,0.47023
4546.05269,0.47092
4544.12394,0.47207
4542.19520,0.47308
4540.26645,0.47357
4538.33771,0.47369
4536.40896,0.47366
4534.48022,0.47376
4532.55147,0.47443
4530.62273,0.47539
4528.69398,0.47592
4526.76524,0.47589
4524.83649,0.47555
4522.90775,0.47518
4520.97900,0.47508
4519.05025,0.47519
4517.12151,0.47503
4515.19276,0.47444
4513.26402,0.47396
4511.33527,0.47374
4509.40653,0.47329
4507.47778,0.47254
4505.54904,0.47162
4503.62029,0.47055
4501.69155,0.46931
4499.76280,0.46781
4497.83406,0.46619
4495.90531,0.46486
4493.97657,0.46373
4492.04782,0.46231
4490.11908,0.46082
4488.19033,0.45949
4486.26158,0.45820
4484.33284,0.45698
4482.40409,0.45599
4480.47535,0.45515
4478.54660,0.45420
4476.61786,0.45293
4474.68911,0.45111
4472.76037,0.44857
4470.83162,0.44578
4468.90288,0.44312
4466.97413,0.44003
4465.04539,0.43620
4463.11664,0.43225
4461.18790,0.42879
4459.25915,0.42601
4457.33041,0.42396
4455.40166,0.42236
4453.47291,0.42089
4451.54417,0.41945
4449.61542,0.41810
4447.68668,0.41682
4445.75793,0.41520
4443.82919,0.41292
4441.90044,0.41013
4439.97170,0.40702
4438.04295,0.40395
4436.11421,0.40141
4434.18546,0.39941
4432.25672,0.39747
4430.32797,0.39524
4428.39923,0.39315
4426.47048,0.39212
4424.54173,0.39183
4422.61299,0.39116
4420.68424,0.38994
4418.75550,0.38848
4416.82675,0.38696
4414.89801,0.38544
4412.96926,0.38371
4411.04052,0.38193
4409.11177,0.38047
4407.18303,0.37905
4405.25428,0.37718
4403.32554,0.37527
4401.39679,0.37413
4399.46805,0.37394
4397.53930,0.37440
4395.61056,0.37529
4393.68181,0.37636
4391.75306,0.37765
4389.82432,0.37926
4387.89557,0.38078
4385.96683,0.38192
4384.03808,0.38306
4382.10934,0.38419
4380.18059,0.38508
4378.25185,0.38609
4376.32310,0.38738
4374.39436,0.38838
4372.46561,0.38875
4370.53687,0.38896
4368.60812,0.38940
4366.67938,0.38985
4364.75063,0.38999
4362.82189,0.38982
4360.89314,0.38931
4358.96439,0.38840
4357.03565,0.38737
4355.10690,0.38666
4353.17816,0.38639
4351.24941,0.38628
4349.32067,0.38595
4347.39192,0.38522
4345.46318,0.38422
4343.53443,0.38313
4341.60569,0.38227
4339.67694,0.38177
4337.74820,0.38108
4335.81945,0.37994
4333.89071,0.37857
4331.96196,0.37708
4330.03321,0.37569
4328.10447,0.37452
4326.17572,0.37339
4324.24698,0.37214
4322.31823,0.37087
4320.38949,0.36976
4318.46074,0.36878
4316.53200,0.36782
4314.60325,0.36688
4312.67451,0.36599
4310.74576,0.36508
4308.81702,0.36394
4306.88827,0.36254
4304.95953,0.36122
4303.03078,0.35990
4301.10204,0.35835
4299.17329,0.35667
4297.24454,0.35504
4295.31580,0.35389
4293.38705,0.35320
4291.45831,0.35230
4289.52956,0.35101
4287.60082,0.35002
4285.67207,0.34963
4283.74333,0.34955
4281.81458,0.34979
4279.88584,0.35013
4277.95709,0.35001
4276.02835,0.34979
4274.09960,0.34994
4272.17086,0.35012
4270.24211,0.35017
4268.31336,0.35049
4266.38462,0.35117
4264.45587,0.35187
4262.52713,0.35233
4260.59838,0.35251
4258.66964,0.35259
4256.74089,0.35267
4254.81215,0.35273
4252.88340,0.35277
4250.95466,0.35285
4249.02591,0.35303
4247.09717,0.35325
4245.16842,0.35349
4243.23968,0.35392
4241.31093,0.35461
4239.38219,0.35526
4237.45344,0.35569
4235.52469,0.35594
4233.59595,0.35619
4231.66720,0.35650
4229.73846,0.35676
4227.80971,0.35714
4225.88097,0.35782
4223.95222,0.35856
4222.02348,0.35908
4220.09473,0.35942
4218.16599,0.35990
4216.23724,0.36083
4214.30850,0.36200
4212.37975,0.36297
4210.45101,0.36387
4208.52226,0.36469
4206.59352,0.36537
4204.66477,0.36622
4202.73602,0.36716
4200.80728,0.36783
4198.87853,0.36822
4196.94979,0.36857
4195.02104,0.36897
4193.09230,0.36911
4191.16355,0.36893
4189.23481,0.36869
4187.30606,0.36828
4185.37732,0.36768
4183.44857,0.36694
4181.51983,0.36590
4179.59108,0.36491
4177.66234,0.36469
4175.73359,0.36529
4173.80484,0.36631
4171.87610,0.36765
4169.94735,0.36921
4168.01861,0.37065
4166.08986,0.37177
4164.16112,0.37260
4162.23237,0.37326
4160.30363,0.37394
4158.37488,0.37443
4156.44614,0.37461
4154.51739,0.37465
4152.58865,0.37451
4150.65990,0.37412
4148.73116,0.37357
4146.80241,0.37281
4144.87367,0.37189
4142.94492,0.37097
4141.01617,0.37014
4139.08743,0.36944
4137.15868,0.36860
4135.22994,0.36746
4133.30119,0.36632
4131.37245,0.36538
4129.44370,0.36456
4127.51496,0.36368
4125.58621,0.36269
4123.65747,0.36162
4121.72872,0.36046
4119.79998,0.35911
4117.87123,0.35763
4115.94249,0.35627
4114.01374,0.35481
4112.08500,0.35258
4110.15625,0.34983
4108.22750,0.34735
4106.29876,0.34497
4104.37001,0.34227
4102.44127,0.33935
4100.51252,0.33599
4098.58378,0.33194
4096.65503,0.32756
4094.72629,0.32323
4092.79754,0.31938
4090.86880,0.31679
4088.94005,0.31556
4087.01131,0.31484
4085.08256,0.31425
4083.15382,0.31411
4081.22507,0.31475
4079.29632,0.31591
4077.36758,0.31682
4075.43883,0.31718
4073.51009,0.31721
4071.58134,0.31698
4069.65260,0.31667
4067.72385,0.31625
4065.79511,0.31524
4063.86636,0.31363
4061.93762,0.31193
4060.00887,0.31035
4058.08013,0.30880
4056.15138,0.30726
4054.22264,0.30567
4052.29389,0.30383
4050.36515,0.30169
4048.43640,0.29969
4046.50765,0.29824
4044.57891,0.29707
4042.65016,0.29575
4040.72142,0.29427
4038.79267,0.29307
4036.86393,0.29242
4034.93518,0.29182
4033.00644,0.29111
4031.07769,0.29075
4029.14895,0.29050
4027.22020,0.28996
4025.29146,0.28936
4023.36271,0.28900
4021.43397,0.28891
4019.50522,0.28895
4017.57648,0.28904
4015.64773,0.28910
4013.71898,0.28911
4011.79024,0.28949
4009.86149,0.29046
4007.93275,0.29148
4006.00400,0.29213
4004.07526,0.29277
4002.14651,0.29357
4000.21777,0.29428
3998.28902,0.29508
3996.36028,0.29620
3994.43153,0.29740
3992.50279,0.29848
3990.57404,0.29947
3988.64530,0.30036
3986.71655,0.30112
3984.78780,0.30171
3982.85906,0.30198
3980.93031,0.30237
3979.00157,0.30341
3977.07282,0.30456
3975.14408,0.30518
3973.21533,0.30543
3971.28659,0.30568
3969.35784,0.30608
3967.42910,0.30688
3965.50035,0.30813
3963.57161,0.30938
3961.64286,0.31031
3959.71412,0.31094
3957.78537,0.31140
3955.85663,0.31200
3953.92788,0.31291
3951.99913,0.31397
3950.07039,0.31507
3948.14164,0.31624
3946.21290,0.31731
3944.28415,0.31818
3942.35541,0.31907
3940.42666,0.32011
3938.49792,0.32113
3936.56917,0.32210
3934.64043,0.32315
3932.71168,0.32428
3930.78294,0.32525
3928.85419,0.32602
3926.92545,0.32690
3924.99670,0.32793
3923.06795,0.32896
3921.13921,0.32990
3919.21046,0.33075
3917.28172,0.33165
3915.35297,0.33259
3913.42423,0.33344
3911.49548,0.33438
3909.56674,0.33559
3907.63799,0.33674
3905.70925,0.33763
3903.78050,0.33846
3901.85176,0.33943
3899.92301,0.34060
3897.99427,0.34170
3896.06552,0.34263
3894.13678,0.34364
3892.20803,0.34478
3890.27928,0.34593
3888.35054,0.34695
3886.42179,0.34771
3884.49305,0.34825
3882.56430,0.34886
3880.63556,0.34966
3878.70681,0.35018
3876.77807,0.35052
3874.84932,0.35129
3872.92058,0.35233
3870.99183,0.35336
3869.06309,0.35477
3867.13434,0.35649
3865.20560,0.35803
3863.27685,0.35913
3861.34811,0.35996
3859.41936,0.36116
3857.49061,0.36253
3855.56187,0.36336
3853.63312,0.36407
3851.70438,0.36549
3849.77563,0.36696
3847.84689,0.36797
3845.91814,0.36874
3843.98940,0.36951
3842.06065,0.37028
3840.13191,0.37102
3838.20316,0.37176
3836.27442,0.37242
3834.34567,0.37300
3832.41693,0.37349
3830.48818,0.37391
3828.55943,0.37433
3826.63069,0.37466
3824.70194,0.37461
3822.77320,0.37413
3820.84445,0.37363
3818.91571,0.37345
3816.98696,0.37333
3815.05822,0.37298
3813.12947,0.37236
3811.20073,0.37182
3809.27198,0.37169
3807.34324,0.37197
3805.41449,0.37238
3803.48575,0.37267
3801.55700,0.37276
3799.62826,0.37285
3797.69951,0.37321
3795.77076,0.37406
3793.84202,0.37494
3791.91327,0.37533
3789.98453,0.37539
3788.05578,0.37552
3786.12704,0.37582
3784.19829,0.37599
3782.26955,0.37574
3780.34080,0.37533
3778.41206,0.37506
3776.48331,0.37478
3774.55457,0.37430
3772.62582,0.37371
3770.69708,0.37324
3768.76833,0.37276
3766.83959,0.37202
3764.91084,0.37119
3762.98209,0.37044
3761.05335,0.36978
3759.12460,0.36941
3757.19586,0.36958
3755.26711,0.37003
3753.33837,0.37040
3751.40962,0.37056
3749.48088,0.37054
3747.55213,0.37036
3745.62339,0.37010
3743.69464,0.36974
3741.76590,0.36893
3739.83715,0.36773
3737.90841,0.36656
3735.97966,0.36563
3734.05091,0.36462
3732.12217,0.36331
3730.19342,0.36185
3728.26468,0.36050
3726.33593,0.35969
3724.40719,0.35937
3722.47844,0.35883
3720.54970,0.35782
3718.62095,0.35640
3716.69221,0.35477
3714.76346,0.35319
3712.83472,0.35134
3710.90597,0.34890
3708.97723,0.34625
3707.04848,0.34365
3705.11974,0.34096
3703.19099,0.33790
3701.26224,0.33422
3699.33350,0.33029
3697.40475,0.32672
3695.47601,0.32340
3693.54726,0.31970
3691.61852,0.31528
3689.68977,0.31051
3687.76103,0.30599
3685.83228,0.30190
3683.90354,0.29826
3681.97479,0.29499
3680.04605,0.29175
3678.11730,0.28837
3676.18856,0.28493
3674.25981,0.28127
3672.33107,0.27704
3670.40232,0.27178
3668.47357,0.26587
3666.54483,0.26024
3664.61608,0.25476
3662.68734,0.24924
3660.75859,0.24376
3658.82985,0.23830
3656.90110,0.23261
3654.97236,0.22694
3653.04361,0.22199
3651.11487,0.21721
3649.18612,0.21163
3647.25738,0.20559
3645.32863,0.20022
3643.39989,0.19570
3641.47114,0.19138
3639.54239,0.18675
3637.61365,0.18193
3635.68490,0.17721
3633.75616,0.17288
3631.82741,0.16895
3629.89867,0.16477
3627.96992,0.16033
3626.04118,0.15651
3624.11243,0.15331
3622.18369,0.15022
3620.25494,0.14649
3618.32620,0.14199
3616.39745,0.13789
3614.46871,0.13484
3612.53996,0.13228
3610.61122,0.12936
3608.68247,0.12589
3606.75372,0.12243
3604.82498,0.11926
3602.89623,0.11614
3600.96749,0.11304
3599.03874,0.11023
3597.11000,0.10756
3595.18125,0.10476
3593.25251,0.10195
3591.32376,0.09942
3589.39502,0.09706
3587.46627,0.09477
3585.53753,0.09275
3583.60878,0.09081
3581.68004,0.08866
3579.75129,0.08645
3577.82254,0.08441
3575.89380,0.08253
3573.96505,0.08061
3572.03631,0.07875
3570.10756,0.07711
3568.17882,0.07552
3566.25007,0.07401
3564.32133,0.07282
3562.39258,0.07150
3560.46384,0.06975
3558.53509,0.06794
3556.60635,0.06643
3554.67760,0.06534
3552.74886,0.06459
3550.82011,0.06379
3548.89137,0.06258
3546.96262,0.06112
3545.03387,0.05992
3543.10513,0.05906
3541.17638,0.05836
3539.24764,0.05796
3537.31889,0.05774
3535.39015,0.05703
3533.46140,0.05571
3531.53266,0.05462
3529.60391,0.05416
3527.67517,0.05363
3525.74642,0.05284
3523.81768,0.05231
3521.88893,0.05192
3519.96019,0.05144
3518.03144,0.05094
3516.10270,0.05041
3514.17395,0.04996
3512.24520,0.04953
3510.31646,0.04884
3508.38771,0.04808
3506.45897,0.04779
3504.53022,0.04783
3502.60148,0.04754
3500.67273,0.04689
3498.74399,0.04638
3496.81524,0.04595
3494.88650,0.04537
3492.95775,0.04497
3491.02901,0.04484
3489.10026,0.04462
3487.17152,0.04421
3485.24277,0.04384
3483.31402,0.04370
3481.38528,0.04377
3479.45653,0.04351
3477.52779,0.04275
3475.59904,0.04212
3473.67030,0.04200
3471.74155,0.04197
3469.81281,0.04156
3467.88406,0.04077
3465.95532,0.04011
3464.02657,0.03995
3462.09783,0.03992
3460.16908,0.03965
3458.24034,0.03914
3456.31159,0.03856
3454.38285,0.03836
3452.45410,0.03856
3450.52535,0.03854
3448.59661,0.03819
3446.66786,0.03779
3444.73912,0.03745
3442.81037,0.03719
3440.88163,0.03710
3438.95288,0.03717
3437.02414,0.03696
3435.09539,0.03628
3433.16665,0.03560
3431.23790,0.03538
3429.30916,0.03558
3427.38041,0.03577
3425.45167,0.03585
3423.52292,0.03598
3421.59418,0.03628
3419.66543,0.03684
3417.73668,0.03745
3415.80794,0.03785
3413.87919,0.03815
3411.95045,0.03855
3410.02170,0.03905
3408.09296,0.03943
3406.16421,0.03954
3404.23547,0.03975
3402.30672,0.04030
3400.37798,0.04067
3398.44923,0.04058
3396.52049,0.04040
3394.59174,0.04033
3392.66300,0.04016
3390.73425,0.03990
3388.80550,0.03999
3386.87676,0.04042
3384.94801,0.04051
3383.01927,0.04021
3381.09052,0.04023
3379.16178,0.04058
3377.23303,0.04075
3375.30429,0.04078
3373.37554,0.04088
3371.44680,0.04093
3369.51805,0.04079
3367.58931,0.04057
3365.66056,0.04025
3363.73182,0.03985
3361.80307,0.03976
3359.87433,0.04020
3357.94558,0.04089
3356.01683,0.04135
3354.08809,0.04147
3352.15934,0.04133
3350.23060,0.04099
3348.30185,0.04062
3346.37311,0.04033
3344.44436,0.04013
3342.51562,0.04037
3340.58687,0.04121
3338.65813,0.04205
3336.72938,0.04222
3334.80064,0.04201
3332.87189,0.04205
3330.94315,0.04244
3329.01440,0.04269
3327.08566,0.04256
3325.15691,0.04245
3323.22816,0.04259
3321.29942,0.04287
3319.37067,0.04312
3317.44193,0.04319
3315.51318,0.04311
3313.58444,0.04307
3311.65569,0.04305
3309.72695,0.04297
3307.79820,0.04286
3305.86946,0.04281
3303.94071,0.04273
3302.01197,0.04267
3300.08322,0.04276
3298.15448,0.04301
3296.22573,0.04341
3294.29698,0.04362
3292.36824,0.04343
3290.43949,0.04337
3288.51075,0.04386
3286.58200,0.04448
3284.65326,0.04476
3282.72451,0.04475
3280.79577,0.04460
3278.86702,0.04456
3276.93828,0.04477
3275.00953,0.04505
3273.08079,0.04537
3271.15204,0.04577
3269.22330,0.04613
3267.29455,0.04643
3265.36581,0.04664
3263.43706,0.04679
3261.50831,0.04693
3259.57957,0.04712
3257.65082,0.04745
3255.72208,0.04784
3253.79333,0.04807
3251.86459,0.04822
3249.93584,0.04855
3248.00710,0.04897
3246.07835,0.04918
3244.14961,0.04923
3242.22086,0.04923
3240.29212,0.04939
3238.36337,0.04993
3236.43463,0.05066
3234.50588,0.05115
3232.57713,0.05140
3230.64839,0.05153
3228.71964,0.05148
3226.79090,0.05162
3224.86215,0.05221
3222.93341,0.05292
3221.00466,0.05350
3219.07592,0.05392
3217.14717,0.05434
3215.21843,0.05489
3213.28968,0.05534
3211.36094,0.05556
3209.43219,0.05580
3207.50345,0.05619
3205.57470,0.05665
3203.64596,0.05709
3201.71721,0.05757
3199.78846,0.05811
3197.85972,0.05867
3195.93097,0.05914
3194.00223,0.05956
3192.07348,0.06004
3190.14474,0.06066
3188.21599,0.06122
3186.28725,0.06161
3184.35850,0.06210
3182.42976,0.06266
3180.50101,0.06301
3178.57227,0.06348
3176.64352,0.06420
3174.71478,0.06469
3172.78603,0.06495
3170.85729,0.06538
3168.92854,0.06592
3166.99979,0.06640
3165.07105,0.06696
3163.14230,0.06765
3161.21356,0.06822
3159.28481,0.06868
3157.35607,0.06915
3155.42732,0.06961
3153.49858,0.07021
3151.56983,0.07094
3149.64109,0.07152
3147.71234,0.07183
3145.78360,0.07216
3143.85485,0.07282
3141.92611,0.07363
3139.99736,0.07420
3138.06861,0.07464
3136.13987,0.07524
3134.21112,0.07593
3132.28238,0.07665
3130.35363,0.07736
3128.42489,0.07788
3126.49614,0.07836
3124.56740,0.07927
3122.63865,0.08035
3120.70991,0.08092
3118.78116,0.08120
3116.85242,0.08165
3114.92367,0.08224
3112.99493,0.08270
3111.06618,0.08293
3109.13744,0.08318
3107.20869,0.08356
3105.27994,0.08385
3103.35120,0.08410
3101.42245,0.08474
3099.49371,0.08604
3097.56496,0.08753
3095.63622,0.08878
3093.70747,0.08969
3091.77873,0.09007
3089.84998,0.09026
3087.92124,0.09068
3085.99249,0.09109
3084.06375,0.09124
3082.13500,0.09144
3080.20626,0.09196
3078.27751,0.09278
3076.34877,0.09373
3074.42002,0.09459
3072.49127,0.09520
3070.56253,0.09576
3068.63378,0.09651
3066.70504,0.09739
3064.77629,0.09823
3062.84755,0.09878
3060.91880,0.09880
3058.99006,0.09857
3057.06131,0.09857
3055.13257,0.09898
3053.20382,0.09998
3051.27508,0.10168
3049.34633,0.10383
3047.41759,0.10610
3045.48884,0.10819
3043.56009,0.10984
3041.63135,0.11093
3039.70260,0.11155
3037.77386,0.11206
3035.84511,0.11276
3033.91637,0.11345
3031.98762,0.11373
3030.05888,0.11373
3028.13013,0.11385
3026.20139,0.11384
3024.27264,0.11331
3022.34390,0.11251
3020.41515,0.11167
3018.48641,0.11068
3016.55766,0.10965
3014.62892,0.10887
3012.70017,0.10832
3010.77142,0.10780
3008.84268,0.10725
3006.91393,0.10678
3004.98519,0.10647
3003.05644,0.10621
3001.12770,0.10576
2999.19895,0.10482
2997.27021,0.10342
2995.34146,0.10198
2993.41272,0.10065
2991.48397,0.09906
2989.55523,0.09681
2987.62648,0.09401
2985.69774,0.09098
2983.76899,0.08796
2981.84025,0.08483
2979.91150,0.08118
2977.98275,0.07696
2976.05401,0.07250
2974.12526,0.06816
2972.19652,0.06441
2970.26777,0.06185
2968.33903,0.06073
2966.41028,0.06063
2964.48154,0.06080
2962.55279,0.06084
2960.62405,0.06079
2958.69530,0.06062
2956.76656,0.06016
2954.83781,0.05952
2952.90907,0.05889
2950.98032,0.05830
2949.05157,0.05786
2947.12283,0.05775
2945.19408,0.05789
2943.26534,0.05795
2941.33659,0.05797
2939.40785,0.05825
2937.47910,0.05870
2935.55036,0.05898
2933.62161,0.05881
2931.69287,0.05806
2929.76412,0.05694
2927.83538,0.05586
2925.90663,0.05493
2923.97789,0.05389
2922.04914,0.05256
2920.12040,0.05101
2918.19165,0.04946
2916.26290,0.04806
2914.33416,0.04685
2912.40541,0.04584
2910.47667,0.04511
2908.54792,0.04458
2906.61918,0.04429
2904.69043,0.04457
2902.76169,0.04553
2900.83294,0.04666
2898.90420,0.04754
2896.97545,0.04831
2895.04671,0.04917
2893.11796,0.05005
2891.18922,0.05084
2889.26047,0.05141
2887.33172,0.05182
2885.40298,0.05265
2883.47423,0.05405
2881.54549,0.05523
2879.61674,0.05578
2877.68800,0.05612
2875.75925,0.05649
2873.83051,0.05689
2871.90176,0.05740
2869.97302,0.05793
2868.04427,0.05851
2866.11553,0.05929
2864.18678,0.06014
2862.25804,0.06097
2860.32929,0.06182
2858.40055,0.06265
2856.47180,0.06347
2854.54305,0.06449
2852.61431,0.06585
2850.68556,0.06740
2848.75682,0.06929
2846.82807,0.07179
2844.89933,0.07476
2842.97058,0.07793
2841.04184,0.08110
2839.11309,0.08394
2837.18435,0.08636
2835.25560,0.08859
2833.32686,0.09080
2831.39811,0.09277
2829.46937,0.09441
2827.54062,0.09591
2825.61188,0.09746
2823.68313,0.09920
2821.75438,0.10105
2819.82564,0.10268
2817.89689,0.10414
2815.96815,0.10559
2814.03940,0.10698
2812.11066,0.10844
2810.18191,0.10987
2808.25317,0.11111
2806.32442,0.11236
2804.39568,0.11364
2802.46693,0.11482
2800.53819,0.11611
2798.60944,0.11764
2796.68070,0.11913
2794.75195,0.12040
2792.82320,0.12157
2790.89446,0.12270
2788.96571,0.12364
2787.03697,0.12434
2785.10822,0.12504
2783.17948,0.12576
2781.25073,0.12632
2779.32199,0.12683
2777.39324,0.12760
2775.46450,0.12845
2773.53575,0.12899
2771.60701,0.12933
2769.67826,0.12959
2767.74952,0.12990
2765.82077,0.13042
2763.89203,0.13092
2761.96328,0.13117
2760.03453,0.13140
2758.10579,0.13182
2756.17704,0.13232
2754.24830,0.13267
2752.31955,0.13283
2750.39081,0.13276
2748.46206,0.13251
2746.53332,0.13228
2744.60457,0.13217
2742.67583,0.13212
2740.74708,0.13222
2738.81834,0.13262
2736.88959,0.13313
2734.96085,0.13352
2733.03210,0.13389
2731.10336,0.13442
2729.17461,0.13498
2727.24586,0.13566
2725.31712,0.13653
2723.38837,0.13735
2721.45963,0.13794
2719.53088,0.13852
2717.60214,0.13927
2715.67339,0.14007
2713.74465,0.14087
2711.81590,0.14182
2709.88716,0.14289
2707.95841,0.14390
2706.02967,0.14491
2704.10092,0.14608
2702.17218,0.14742
2700.24343,0.14884
2698.31468,0.15028
2696.38594,0.15164
2694.45719,0.15285
2692.52845,0.15399
2690.59970,0.15507
2688.67096,0.15621
2686.74221,0.15742
2684.81347,0.15849
2682.88472,0.15949
2680.95598,0.16055
2679.02723,0.16150
2677.09849,0.16252
2675.16974,0.16370
2673.24100,0.16465
2671.31225,0.16529
2669.38351,0.16591
2667.45476,0.16657
2665.52601,0.16708
2663.59727,0.16748
2661.66852,0.16796
2659.73978,0.16846
2657.81103,0.16884
2655.88229,0.16931
2653.95354,0.17000
2652.02480,0.17077
2650.09605,0.17156
2648.16731,0.17227
2646.23856,0.17279
2644.30982,0.17314
2642.38107,0.17350
2640.45233,0.17399
2638.52358,0.17442
2636.59484,0.17468
2634.66609,0.17507
2632.73734,0.17563
2630.80860,0.17611
2628.87985,0.17662
2626.95111,0.17746
2625.02236,0.17856
2623.09362,0.17960
2621.16487,0.18057
2619.23613,0.18146
2617.30738,0.18203
2615.37864,0.18235
2613.44989,0.18278
2611.52115,0.18325
2609.59240,0.18366
2607.66366,0.18431
2605.73491,0.18511
2603.80616,0.18563
2601.87742,0.18601
2599.94867,0.18661
2598.01993,0.18734
2596.09118,0.18781
2594.16244,0.18789
2592.23369,0.18782
2590.30495,0.18777
2588.37620,0.18779
2586.44746,0.18802
2584.51871,0.18836
2582.58997,0.18858
2580.66122,0.18869
2578.73248,0.18894
2576.80373,0.18935
2574.87499,0.18963
2572.94624,0.18972
2571.01749,0.18973
2569.08875,0.18962
2567.16000,0.18947
2565.23126,0.18943
2563.30251,0.18932
2561.37377,0.18893
2559.44502,0.18846
2557.51628,0.18813
2555.58753,0.18796
2553.65879,0.18776
2551.73004,0.18747
2549.80130,0.18720
2547.87255,0.18691
2545.94381,0.18664
2544.01506,0.18651
2542.08631,0.18635
2540.15757,0.18608
2538.22882,0.18595
2536.30008,0.18616
2534.37133,0.18669
2532.44259,0.18731
2530.51384,0.18783
2528.58510,0.18829
2526.65635,0.18879
2524.72761,0.18944
2522.79886,0.19011
2520.87012,0.19065
2518.94137,0.19116
2517.01263,0.19176
2515.08388,0.19251
2513.15514,0.19340
2511.22639,0.19442
2509.29764,0.19566
2507.36890,0.19715
2505.44015,0.19883
2503.51141,0.20045
2501.58266,0.20183
2499.65392,0.20308
2497.72517,0.20436
2495.79643,0.20564
2493.86768,0.20686
2491.93894,0.20799
2490.01019,0.20907
2488.08145,0.21024
2486.15270,0.21156
2484.22396,0.21287
2482.29521,0.21398
2480.36647,0.21496
2478.43772,0.21612
2476.50897,0.21750
2474.58023,0.21882
2472.65148,0.21999
2470.72274,0.22105
2468.79399,0.22199
2466.86525,0.22283
2464.93650,0.22358
2463.00776,0.22421
2461.07901,0.22481
2459.15027,0.22550
2457.22152,0.22613
2455.29278,0.22664
2453.36403,0.22727
2451.43529,0.22800
2449.50654,0.22858
2447.57779,0.22912
2445.64905,0.22989
2443.72030,0.23083
2441.79156,0.23170
2439.86281,0.23234
2437.93407,0.23287
2436.00532,0.23353
2434.07658,0.23427
2432.14783,0.23492
2430.21909,0.23547
2428.29034,0.23586
2426.36160,0.23613
2424.43285,0.23647
2422.50411,0.23687
2420.57536,0.23731
2418.64662,0.23782
2416.71787,0.23834
2414.78912,0.23885
2412.86038,0.23924
2410.93163,0.23936
2409.00289,0.23932
2407.07414,0.23937
2405.14540,0.23947
2403.21665,0.23958
2401.28791,0.23989
2399.35916,0.24038
2397.43042,0.24086
2395.50167,0.24135
2393.57293,0.24198
2391.64418,0.24261
2389.71544,0.24313
2387.78669,0.24373
2385.85795,0.24456
2383.92920,0.24557
2382.00045,0.24659
2380.07171,0.24751
2378.14296,0.24852
2376.21422,0.24968
2374.28547,0.25088
2372.35673,0.25221
2370.42798,0.25371
2368.49924,0.25525
2366.57049,0.25677
2364.64175,0.25821
2362.71300,0.25958
2360.78426,0.26097
2358.85551,0.26239
2356.92677,0.26387
2354.99802,0.26540
2353.06927,0.26686
2351.14053,0.26813
2349.21178,0.26940
2347.28304,0.27095
2345.35429,0.27263
2343.42555,0.27402
2341.49680,0.27499
2339.56806,0.27588
2337.63931,0.27681
2335.71057,0.27763
2333.78182,0.27827
2331.85308,0.27880
2329.92433,0.27940
2327.99559,0.28019
2326.06684,0.28095
2324.13810,0.28162
2322.20935,0.28240
2320.28060,0.28323
2318.35186,0.28389
2316.42311,0.28454
2314.49437,0.28523
2312.56562,0.28564
2310.63688,0.28555
2308.70813,0.28509
2306.77939,0.28443
2304.85064,0.28366
2302.92190,0.28268
2300.99315,0.28149
2299.06441,0.28011
2297.13566,0.27848
2295.20692,0.27669
2293.27817,0.27497
2291.34943,0.27350
2289.42068,0.27234
2287.49193,0.27153
2285.56319,0.27104
2283.63444,0.27069
2281.70570,0.27036
2279.77695,0.27007
2277.84821,0.26976
2275.91946,0.26932
2273.99072,0.26866
2272.06197,0.26766
2270.13323,0.26638
2268.20448,0.26490
2266.27574,0.26309
2264.34699,0.26089
2262.41825,0.25867
2260.48950,0.25659
2258.56075,0.25438
2256.63201,0.25179
2254.70326,0.24876
2252.77452,0.24547
2250.84577,0.24221
2248.91703,0.23925
2246.98828,0.23688
2245.05954,0.23524
2243.13079,0.23446
2241.20205,0.23478
2239.27330,0.23654
2237.34456,0.23993
2235.41581,0.24449
2233.48707,0.24927
2231.55832,0.25343
2229.62958,0.25658
2227.70083,0.25871
2225.77208,0.26018
2223.84334,0.26135
2221.91459,0.26243
2219.98585,0.26345
2218.05710,0.26442
2216.12836,0.26543
2214.19961,0.26647
2212.27087,0.26734
2210.34212,0.26800
2208.41338,0.26863
2206.48463,0.26931
2204.55589,0.26999
2202.62714,0.27042
2200.69840,0.27042
2198.76965,0.27018
2196.84090,0.26982
2194.91216,0.26930
2192.98341,0.26865
2191.05467,0.26790
2189.12592,0.26711
2187.19718,0.26619
2185.26843,0.26491
2183.33969,0.26331
2181.41094,0.26163
2179.48220,0.26000
2177.55345,0.25821
2175.62471,0.25623
2173.69596,0.25428
2171.76722,0.25225
2169.83847,0.25001
2167.90973,0.24781
2165.98098,0.24569
2164.05223,0.24349
2162.12349,0.24140
2160.19474,0.23957
2158.26600,0.23787
2156.33725,0.23622
2154.40851,0.23470
2152.47976,0.23328
2150.55102,0.23193
2148.62227,0.23078
2146.69353,0.22977
2144.76478,0.22866
2142.83604,0.22747
2140.90729,0.22631
2138.97855,0.22522
2137.04980,0.22436
2135.12106,0.22375
2133.19231,0.22336
2131.26356,0.22311
2129.33482,0.22287
2127.40607,0.22265
2125.47733,0.22259
2123.54858,0.22278
2121.61984,0.22306
2119.69109,0.22322
2117.76235,0.22345
2115.83360,0.22400
2113.90486,0.22483
2111.97611,0.22566
2110.04737,0.22643
2108.11862,0.22735
2106.18988,0.22842
2104.26113,0.22935
2102.33238,0.23008
2100.40364,0.23081
2098.47489,0.23168
2096.54615,0.23266
2094.61740,0.23368
2092.68866,0.23476
2090.75991,0.23595
2088.83117,0.23723
2086.90242,0.23847
2084.97368,0.23961
2083.04493,0.24070
2081.11619,0.24166
2079.18744,0.24250
2077.25870,0.24334
2075.32995,0.24426
2073.40121,0.24518
2071.47246,0.24595
2069.54371,0.24658
2067.61497,0.24739
2065.68622,0.24850
2063.75748,0.24966
2061.82873,0.25076
2059.89999,0.25185
2057.97124,0.25281
2056.04250,0.25359
2054.11375,0.25433
2052.18501,0.25506
2050.25626,0.25567
2048.32752,0.25613
2046.39877,0.25671
2044.47003,0.25753
2042.54128,0.25838
2040.61254,0.25916
2038.68379,0.25999
2036.75504,0.26090
2034.82630,0.26183
2032.89755,0.26295
2030.96881,0.26431
2029.04006,0.26573
2027.11132,0.26705
2025.18257,0.26812
2023.25383,0.26895
2021.32508,0.26977
2019.39634,0.27075
2017.46759,0.27185
2015.53885,0.27271
2013.61010,0.27301
2011.68136,0.27293
2009.75261,0.27279
2007.82386,0.27268
2005.89512,0.27251
2003.96637,0.27209
2002.03763,0.27143
2000.10888,0.27067
1998.18014,0.26992
1996.25139,0.26928
1994.32265,0.26871
1992.39390,0.26805
1990.46516,0.26743
1988.53641,0.26704
1986.60767,0.26682
1984.67892,0.26656
1982.75018,0.26611
1980.82143,0.26546
1978.89269,0.26469
1976.96394,0.26370
1975.03519,0.26234
1973.10645,0.26061
1971.17770,0.25864
1969.24896,0.25633
1967.32021,0.25352
1965.39147,0.25033
1963.46272,0.24733
1961.53398,0.24520
1959.60523,0.24438
1957.67649,0.24490
1955.74774,0.24650
1953.81900,0.24871
1951.89025,0.25120
1949.96151,0.25398
1948.03276,0.25711
1946.10402,0.26057
1944.17527,0.26425
1942.24652,0.26790
1940.31778,0.27136
1938.38903,0.27473
1936.46029,0.27800
1934.53154,0.28112
1932.60280,0.28407
1930.67405,0.28681
1928.74531,0.28923
1926.81656,0.29135
1924.88782,0.29323
1922.95907,0.29495
1921.03033,0.29653
1919.10158,0.29801
1917.17284,0.29957
1915.24409,0.30123
1913.31534,0.30274
1911.38660,0.30390
1909.45785,0.30482
1907.52911,0.30577
1905.60036,0.30672
1903.67162,0.30749
1901.74287,0.30808
1899.81413,0.30859
1897.88538,0.30896
1895.95664,0.30908
1894.02789,0.30897
1892.09915,0.30882
1890.17040,0.30878
1888.24166,0.30876
1886.31291,0.30851
1884.38417,0.30809
1882.45542,0.30772
1880.52667,0.30732
1878.59793,0.30683
1876.66918,0.30623
1874.74044,0.30535
1872.81169,0.30426
1870.88295,0.30316
1868.95420,0.30182
1867.02546,0.30008
1865.09671,0.29821
1863.16797,0.29628
1861.23922,0.29405
1859.31048,0.29145
1857.38173,0.28861
1855.45299,0.28543
1853.52424,0.28195
1851.59549,0.27827
1849.66675,0.27440
1847.73800,0.27055
1845.80926,0.26678
1843.88051,0.26281
1841.95177,0.25890
1840.02302,0.25547
1838.09428,0.25240
1836.16553,0.24948
1834.23679,0.24671
1832.30804,0.24418
1830.37930,0.24187
1828.45055,0.23974
1826.52181,0.23787
1824.59306,0.23628
1822.66432,0.23509
1820.73557,0.23427
1818.80682,0.23348
1816.87808,0.23262
1814.94933,0.23175
1813.02059,0.23079
1811.09184,0.22967
1809.16310,0.22836
1807.23435,0.22697
1805.30561,0.22563
1803.37686,0.22433
1801.44812,0.22313
1799.51937,0.22189
1797.59063,0.22043
1795.66188,0.21881
1793.73314,0.21701
1791.80439,0.21490
1789.87565,0.21271
1787.94690,0.21057
1786.01815,0.20832
1784.08941,0.20578
1782.16066,0.20298
1780.23192,0.20007
1778.30317,0.19712
1776.37443,0.19408
1774.44568,0.19077
1772.51694,0.18692
1770.58819,0.18271
1768.65945,0.17846
1766.73070,0.17404
1764.80196,0.16947
1762.87321,0.16429
1760.94447,0.15823
1759.01572,0.15184
1757.08697,0.14494
1755.15823,0.13759
1753.22948,0.13006
1751.30074,0.12165
1749.37199,0.11284
1747.44325,0.10518
1745.51450,0.09908
1743.58576,0.09446
1741.65701,0.09123
1739.72827,0.08914
1737.79952,0.08812
1735.87078,0.08805
1733.94203,0.08876
1732.01329,0.08988
1730.08454,0.09098
1728.15580,0.09200
1726.22705,0.09304
1724.29830,0.09428
1722.36956,0.09574
1720.44081,0.09718
1718.51207,0.09828
1716.58332,0.09876
1714.65458,0.09869
1712.72583,0.09848
1710.79709,0.09852
1708.86834,0.09909
1706.93960,0.10051
1705.01085,0.10269
1703.08211,0.10506
1701.15336,0.10750
1699.22462,0.10971
1697.29587,0.11107
1695.36713,0.11184
1693.43838,0.11233
1691.50963,0.11248
1689.58089,0.11202
1687.65214,0.11095
1685.72340,0.10959
1683.79465,0.10845
1681.86591,0.10803
1679.93716,0.10810
1678.00842,0.10833
1676.07967,0.10852
1674.15093,0.10849
1672.22218,0.10827
1670.29344,0.10813
1668.36469,0.10825
1666.43595,0.10877
1664.50720,0.10968
1662.57845,0.11052
1660.64971,0.11080
1658.72096,0.11070
1656.79222,0.11058
1654.86347,0.11036
1652.93473,0.10988
1651.00598,0.10945
1649.07724,0.10914
1647.14849,0.10877
1645.21975,0.10848
1643.29100,0.10841
1641.36226,0.10855
1639.43351,0.10893
1637.50477,0.10938
1635.57602,0.10974
1633.64728,0.11012
1631.71853,0.11062
1629.78978,0.11133
1627.86104,0.11225
1625.93229,0.11318
1624.00355,0.11390
1622.07480,0.11425
1620.14606,0.11416
1618.21731,0.11361
1616.28857,0.11284
1614.35982,0.11277
1612.43108,0.11396
1610.50233,0.11615
1608.57359,0.11881
1606.64484,0.12144
1604.71610,0.12378
1602.78735,0.12596
1600.85861,0.12804
1598.92986,0.12984
1597.00111,0.13118
1595.07237,0.13203
1593.14362,0.13249
1591.21488,0.13264
1589.28613,0.13225
1587.35739,0.13092
1585.42864,0.12821
1583.49990,0.12412
1581.57115,0.11973
1579.64241,0.11680
1577.71366,0.11663
1575.78492,0.11958
1573.85617,0.12424
1571.92743,0.12896
1569.99868,0.13332
1568.06993,0.13655
1566.14119,0.13850
1564.21244,0.13989
1562.28370,0.14105
1560.35495,0.14171
1558.42621,0.14149
1556.49746,0.14087
1554.56872,0.14058
1552.63997,0.14063
1550.71123,0.14061
1548.78248,0.14028
1546.85374,0.14001
1544.92499,0.13995
1542.99625,0.13979
1541.06750,0.13934
1539.13876,0.13859
1537.21001,0.13768
1535.28126,0.13664
1533.35252,0.13528
1531.42377,0.13361
1529.49503,0.13173
1527.56628,0.12974
1525.63754,0.12808
1523.70879,0.12697
1521.78005,0.12604
1519.85130,0.12497
1517.92256,0.12368
1515.99381,0.12163
1514.06507,0.11802
1512.13632,0.11221
1510.20758,0.10422
1508.27883,0.09465
1506.35008,0.08648
1504.42134,0.08524
1502.49259,0.08978
1500.56385,0.09625
1498.63510,0.10212
1496.70636,0.10558
1494.77761,0.10607
1492.84887,0.10423
1490.92012,0.10040
1488.99138,0.09487
1487.06263,0.08843
1485.13389,0.08168
1483.20514,0.07520
1481.27640,0.06982
1479.34765,0.06599
1477.41891,0.06294
1475.49016,0.05961
1473.56141,0.05600
1471.63267,0.05315
1469.70392,0.05158
1467.77518,0.05025
1465.84643,0.04823
1463.91769,0.04567
1461.98894,0.04336
1460.06020,0.04154
1458.13145,0.03994
1456.20271,0.03851
1454.27396,0.03763
1452.34522,0.03726
1450.41647,0.03721
1448.48773,0.03743
1446.55898,0.03774
1444.63024,0.03779
1442.70149,0.03745
1440.77274,0.03689
1438.84400,0.03642
1436.91525,0.03610
1434.98651,0.03588
1433.05776,0.03580
1431.12902,0.03599
1429.20027,0.03646
1427.27153,0.03695
1425.34278,0.03721
1423.41404,0.03722
1421.48529,0.03702
1419.55655,0.03635
1417.62780,0.03507
1415.69906,0.03377
1413.77031,0.03295
1411.84156,0.03277
1409.91282,0.03306
1407.98407,0.03365
1406.05533,0.03467
1404.12658,0.03602
1402.19784,0.03732
1400.26909,0.03839
1398.34035,0.03904
1396.41160,0.03926
1394.48286,0.03917
1392.55411,0.03879
1390.62537,0.03800
1388.69662,0.03661
1386.76788,0.03471
1384.83913,0.03283
1382.91039,0.03118
1380.98164,0.02968
1379.05289,0.02846
1377.12415,0.02761
1375.19540,0.02691
1373.26666,0.02634
1371.33791,0.02617
1369.40917,0.02645
1367.48042,0.02699
1365.55168,0.02760
1363.62293,0.02820
1361.69419,0.02865
1359.76544,0.02876
1357.83670,0.02862
1355.90795,0.02850
1353.97921,0.02852
1352.05046,0.02849
1350.12172,0.02824
1348.19297,0.02776
1346.26422,0.02713
1344.33548,0.02664
1342.40673,0.02650
1340.47799,0.02666
1338.54924,0.02685
1336.62050,0.02694
1334.69175,0.02713
1332.76301,0.02766
1330.83426,0.02845
1328.90552,0.02893
1326.97677,0.02878
1325.04803,0.02820
1323.11928,0.02743
1321.19054,0.02657
1319.26179,0.02587
1317.33304,0.02563
1315.40430,0.02569
1313.47555,0.02582
1311.54681,0.02615
1309.61806,0.02674
1307.68932,0.02739
1305.76057,0.02805
1303.83183,0.02868
1301.90308,0.02929
1299.97434,0.02996
1298.04559,0.03045
1296.11685,0.03054
1294.18810,0.03057
1292.25936,0.03082
1290.33061,0.03106
1288.40187,0.03111
1286.47312,0.03108
1284.54437,0.03109
1282.61563,0.03129
1280.68688,0.03197
1278.75814,0.03327
1276.82939,0.03487
1274.90065,0.03635
1272.97190,0.03754
1271.04316,0.03841
1269.11441,0.03895
1267.18567,0.03920
1265.25692,0.03926
1263.32818,0.03929
1261.39943,0.03926
1259.47069,0.03902
1257.54194,0.03874
1255.61320,0.03866
1253.68445,0.03865
1251.75570,0.03846
1249.82696,0.03813
1247.89821,0.03784
1245.96947,0.03764
1244.04072,0.03741
1242.11198,0.03715
1240.18323,0.03678
1238.25449,0.03615
1236.32574,0.03555
1234.39700,0.03560
1232.46825,0.03645
1230.53951,0.03756
1228.61076,0.03844
1226.68202,0.03919
1224.75327,0.04009
1222.82452,0.04122
1220.89578,0.04250
1218.96703,0.04365
1217.03829,0.04428
1215.10954,0.04413
1213.18080,0.04318
1211.25205,0.04173
1209.32331,0.04022
1207.39456,0.03911
1205.46582,0.03864
1203.53707,0.03882
1201.60833,0.03962
1199.67958,0.04080
1197.75084,0.04192
1195.82209,0.04274
1193.89335,0.04334
1191.96460,0.04369
1190.03585,0.04350
1188.10711,0.04276
1186.17836,0.04159
1184.24962,0.03983
1182.32087,0.03760
1180.39213,0.03552
1178.46338,0.03387
1176.53464,0.03271
1174.60589,0.03226
1172.67715,0.03260
1170.74840,0.03361
1168.81966,0.03490
1166.89091,0.03574
1164.96217,0.03558
1163.03342,0.03454
1161.10467,0.03311
1159.17593,0.03157
1157.24718,0.03010
1155.31844,0.02887
1153.38969,0.02775
1151.46095,0.02639
1149.53220,0.02487
1147.60346,0.02362
1145.67471,0.02274
1143.74597,0.02189
1141.81722,0.02102
1139.88848,0.02056
1137.95973,0.02055
1136.03099,0.02069
1134.10224,0.02082
1132.17350,0.02091
1130.24475,0.02110
1128.31600,0.02147
1126.38726,0.02200
1124.45851,0.02262
1122.52977,0.02323
1120.60102,0.02373
1118.67228,0.02401
1116.74353,0.02418
1114.81479,0.02448
1112.88604,0.02485
1110.95730,0.02515
1109.02855,0.02538
1107.09981,0.02547
1105.17106,0.02540
1103.24232,0.02529
1101.31357,0.02509
1099.38483,0.02477
1097.45608,0.02454
1095.52733,0.02467
1093.59859,0.02493
1091.66984,0.02487
1089.74110,0.02463
1087.81235,0.02483
1085.88361,0.02576
1083.95486,0.02708
1082.02612,0.02858
1080.09737,0.03055
1078.16863,0.03300
1076.23988,0.03524
1074.31114,0.03691
1072.38239,0.03856
1070.45365,0.04062
1068.52490,0.04305
1066.59615,0.04578
1064.66741,0.04830
1062.73866,0.04971
1060.80992,0.04987
1058.88117,0.04937
1056.95243,0.04847
1055.02368,0.04714
1053.09494,0.04551
1051.16619,0.04361
1049.23745,0.04172
1047.30870,0.04013
1045.37996,0.03876
1043.45121,0.03797
1041.52247,0.03839
1039.59372,0.03973
1037.66498,0.04108
1035.73623,0.04207
1033.80748,0.04271
1031.87874,0.04260
1029.94999,0.04144
1028.02125,0.03981
1026.09250,0.03852
1024.16376,0.03773
1022.23501,0.03733
1020.30627,0.03730
1018.37752,0.03772
1016.44878,0.03907
1014.52003,0.04151
1012.59129,0.04437
1010.66254,0.04693
1008.73380,0.04885
1006.80505,0.05017
1004.87631,0.05094
1002.94756,0.05126
1001.01881,0.05171
999.09007,0.05264
997.16132,0.05359
995.23258,0.05419
993.30383,0.05458
991.37509,0.05483
989.44634,0.05486
987.51760,0.05479
985.58885,0.05504
983.66011,0.05598
981.73136,0.05771
979.80262,0.06000
977.87387,0.06220
975.94513,0.06405
974.01638,0.06594
972.08763,0.06804
970.15889,0.07041
968.23014,0.07348
966.30140,0.07756
964.37265,0.08249
962.44391,0.08791
960.51516,0.09334
958.58642,0.09844
956.65767,0.10336
954.72893,0.10825
952.80018,0.11290
950.87144,0.11729
948.94269,0.12144
947.01395,0.12491
945.08520,0.12740
943.15646,0.12915
941.22771,0.13046
939.29896,0.13148
937.37022,0.13237
935.44147,0.13309
933.51273,0.13338
931.58398,0.13346
929.65524,0.13382
927.72649,0.13444
925.79775,0.13493
923.86900,0.13509
921.94026,0.13481
920.01151,0.13352
918.08277,0.13095
916.15402,0.12749
914.22528,0.12329
912.29653,0.11824
910.36779,0.11286
908.43904,0.10781
906.51029,0.10323
904.58155,0.09902
902.65280,0.09528
900.72406,0.09236
898.79531,0.09061
896.86657,0.09021
894.93782,0.09115
893.00908,0.09341
891.08033,0.09676
889.15159,0.10038
887.22284,0.10336
885.29410,0.10539
883.36535,0.10646
881.43661,0.10648
879.50786,0.10541
877.57911,0.10378
875.65037,0.10251
873.72162,0.10295
871.79288,0.10671
869.86413,0.11342
867.93539,0.12028
866.00664,0.12482
864.07790,0.12665
862.14915,0.12667
860.22041,0.12553
858.29166,0.12350
856.36292,0.12084
854.43417,0.11780
852.50543,0.11466
850.57668,0.11198
848.64794,0.11042
846.71919,0.11063
844.79044,0.11288
842.86170,0.11596
840.93295,0.11872
839.00421,0.12122
837.07546,0.12350
835.14672,0.12529
833.21797,0.12652
831.28923,0.12760
829.36048,0.12863
827.43174,0.12918
825.50299,0.12936
823.57425,0.12937
821.64550,0.12891
819.71676,0.12780
817.78801,0.12643
815.85926,0.12505
813.93052,0.12371
812.00177,0.12237
810.07303,0.12094
808.14428,0.11935
806.21554,0.11762
804.28679,0.11582
802.35805,0.11414
800.42930,0.11236
798.50056,0.10950
796.57181,0.10505
794.64307,0.10052
792.71432,0.09862
790.78558,0.10000
788.85683,0.10245
786.92809,0.10408
784.99934,0.10486
783.07059,0.10513
781.14185,0.10502
779.21310,0.10469
777.28436,0.10415
775.35561,0.10334
773.42687,0.10214
771.49812,0.10076
769.56938,0.09956
767.64063,0.09862
765.71189,0.09770
763.78314,0.09648
761.85440,0.09476
759.92565,0.09257
757.99691,0.09008
756.06816,0.08773
754.13942,0.08559
752.21067,0.08310
750.28192,0.08002
748.35318,0.07662
746.42443,0.07280
744.49569,0.06826
742.56694,0.06301
740.63820,0.05741
738.70945,0.05198
736.78071,0.04736
734.85196,0.04401
732.92322,0.04196
730.99447,0.04092
729.06573,0.04084
727.13698,0.04158
725.20824,0.04253
723.27949,0.04383
721.35074,0.04644
719.42200,0.05015
717.49325,0.05395
715.56451,0.05723
713.63576,0.05938
711.70702,0.05983
709.77827,0.05930
707.84953,0.05907
705.92078,0.05953
703.99204,0.06060
702.06329,0.06212
700.13455,0.06383
698.20580,0.06517
696.27706,0.06570
694.34831,0.06562
692.41957,0.06527
690.49082,0.06498
688.56207,0.06486
686.63333,0.06424
684.70458,0.06276
682.77584,0.06096
680.84709,0.05955
678.91835,0.05884
676.98960,0.05850
675.06086,0.05801
673.13211,0.05755
671.20337,0.05741
669.27462,0.05744
667.34588,0.05745
665.41713,0.05748
663.48839,0.05822
661.55964,0.05993
659.63090,0.06135
657.70215,0.06126
655.77340,0.06012
653.84466,0.05950
651.91591,0.05975
649.98717,0.05968
648.05842,0.05903
646.12968,0.05855
644.20093,0.05838
642.27219,0.05832
640.34344,0.05795
638.41470,0.05674
636.48595,0.05478
634.55721,0.05244
632.62846,0.05068
630.69972,0.05051
628.77097,0.05119
626.84222,0.05176
624.91348,0.05279
622.98473,0.05413
621.05599,0.05432
619.12724,0.05342
617.19850,0.05290
615.26975,0.05343
613.34101,0.05447
611.41226,0.05497
609.48352,0.05490
607.55477,0.05584
605.62603,0.05748
603.69728,0.05775
601.76854,0.05693
599.83979,0.05640
