7497.03301,0.19549
7495.10426,0.20202
7493.17552,0.20235
7491.24677,0.19949
7489.31803,0.19701
7487.38928,0.19379
7485.46054,0.19314
7483.53179,0.19722
7481.60305,0.20080
7479.67430,0.20072
7477.74556,0.19895
7475.81681,0.19562
7473.88807,0.18992
7471.95932,0.18569
7470.03057,0.18561
7468.10183,0.18754
7466.17308,0.18982
7464.24434,0.19112
7462.31559,0.18901
7460.38685,0.18517
7458.45810,0.18598
7456.52936,0.19337
7454.60061,0.20009
7452.67187,0.19951
7450.74312,0.19643
7448.81438,0.19801
7446.88563,0.20097
7444.95689,0.19927
7443.02814,0.19486
7441.09940,0.19348
7439.17065,0.19640
7437.24190,0.19963
7435.31316,0.19812
7433.38441,0.19475
7431.45567,0.19751
7429.52692,0.20467
7427.59818,0.20727
7425.66943,0.20344
7423.74069,0.19799
7421.81194,0.19629
7419.88320,0.19972
7417.95445,0.20272
7416.02571,0.19930
7414.09696,0.19297
7412.16822,0.19058
7410.23947,0.19261
7408.31073,0.19476
7406.38198,0.19495
7404.45323,0.19443
7402.52449,0.19303
7400.59574,0.19136
7398.66700,0.19133
7396.73825,0.19300
7394.80951,0.19688
7392.88076,0.20156
7390.95202,0.20449
7389.02327,0.20567
7387.09453,0.20456
7385.16578,0.20159
7383.23704,0.19803
7381.30829,0.19429
7379.37955,0.19429
7377.45080,0.19871
7375.52205,0.20028
7373.59331,0.19728
7371.66456,0.19610
7369.73582,0.19956
7367.80707,0.20346
7365.87833,0.20214
7363.94958,0.19672
7362.02084,0.19312
7360.09209,0.19373
7358.16335,0.19630
7356.23460,0.19878
7354.30586,0.19950
7352.37711,0.19688
7350.44837,0.19250
7348.51962,0.18924
7346.59088,0.18777
7344.66213,0.18817
7342.73338,0.19106
7340.80464,0.19503
7338.87589,0.19671
7336.94715,0.19387
7335.01840,0.18972
7333.08966,0.19081
7331.16091,0.19558
7329.23217,0.19661
7327.30342,0.19279
7325.37468,0.19005
7323.44593,0.19284
7321.51719,0.19814
7319.58844,0.20003
7317.65970,0.19809
7315.73095,0.19627
7313.80221,0.19616
7311.87346,0.19571
7309.94471,0.19489
7308.01597,0.19579
7306.08722,0.19905
7304.15848,0.20224
7302.22973,0.20139
7300.30099,0.19618
7298.37224,0.19125
7296.44350,0.19061
7294.51475,0.19374
7292.58601,0.19586
7290.65726,0.19490
7288.72852,0.19304
7286.79977,0.19047
7284.87103,0.18925
7282.94228,0.19417
7281.01353,0.20267
7279.08479,0.20698
7277.15604,0.20433
7275.22730,0.19992
7273.29855,0.19791
7271.36981,0.19652
7269.44106,0.19568
7267.51232,0.19686
7265.58357,0.19796
7263.65483,0.19628
7261.72608,0.19364
7259.79734,0.19365
7257.86859,0.19394
7255.93985,0.19297
7254.01110,0.19406
7252.08236,0.19553
7250.15361,0.19369
7248.22486,0.19298
7246.29612,0.19714
7244.36737,0.19993
7242.43863,0.19918
7240.50988,0.20068
7238.58114,0.20327
7236.65239,0.20239
7234.72365,0.19831
7232.79490,0.19392
7230.86616,0.19263
7228.93741,0.19409
7227.00867,0.19462
7225.07992,0.19306
7223.15118,0.19009
7221.22243,0.18852
7219.29369,0.19210
7217.36494,0.19701
7215.43619,0.19679
7213.50745,0.19447
7211.57870,0.19556
7209.64996,0.19821
7207.72121,0.19828
7205.79247,0.19690
7203.86372,0.19735
7201.93498,0.19864
7200.00623,0.19768
7198.07749,0.19575
7196.14874,0.19597
7194.22000,0.19613
7192.29125,0.19423
7190.36251,0.19527
7188.43376,0.20006
7186.50501,0.20249
7184.57627,0.20082
7182.64752,0.19899
7180.71878,0.19912
7178.79003,0.19804
7176.86129,0.19573
7174.93254,0.19699
7173.00380,0.20037
7171.07505,0.20006
7169.14631,0.19541
7167.21756,0.19222
7165.28882,0.19417
7163.36007,0.19739
7161.43133,0.19820
7159.50258,0.19728
7157.57384,0.19480
7155.64509,0.19176
7153.71634,0.19141
7151.78760,0.19371
7149.85885,0.19473
7147.93011,0.19342
7146.00136,0.19327
7144.07262,0.19475
7142.14387,0.19214
7140.21513,0.18647
7138.28638,0.18553
7136.35764,0.18854
7134.42889,0.19039
7132.50015,0.19364
7130.57140,0.20078
7128.64266,0.20462
7126.71391,0.20147
7124.78516,0.19670
7122.85642,0.19296
7120.92767,0.19175
7118.99893,0.19419
7117.07018,0.19792
7115.14144,0.19920
7113.21269,0.19722
7111.28395,0.19649
7109.35520,0.19730
7107.42646,0.19493
7105.49771,0.19182
7103.56897,0.19210
7101.64022,0.19205
7099.71148,0.18967
7097.78273,0.19037
7095.85399,0.19340
7093.92524,0.19254
7091.99649,0.18966
7090.06775,0.18856
7088.13900,0.18823
7086.21026,0.18843
7084.28151,0.19040
7082.35277,0.19516
7080.42402,0.19973
7078.49528,0.19776
7076.56653,0.19201
7074.63779,0.19234
7072.70904,0.19573
7070.78030,0.19313
7068.85155,0.18938
7066.92281,0.19038
7064.99406,0.19172
7063.06532,0.19235
7061.13657,0.19529
7059.20782,0.19741
7057.27908,0.19548
7055.35033,0.19317
7053.42159,0.19337
7051.49284,0.19445
7049.56410,0.19445
7047.63535,0.19326
7045.70661,0.19454
7043.77786,0.19985
7041.84912,0.20337
7039.92037,0.20139
7037.99163,0.19808
7036.06288,0.19677
7034.13414,0.19484
7032.20539,0.19165
7030.27664,0.19135
7028.34790,0.19419
7026.41915,0.19467
7024.49041,0.19160
7022.56166,0.19142
7020.63292,0.19534
7018.70417,0.19579
7016.77543,0.19117
7014.84668,0.18855
7012.91794,0.19092
7010.98919,0.19395
7009.06045,0.19373
7007.13170,0.19141
7005.20296,0.19094
7003.27421,0.19267
7001.34547,0.19293
6999.41672,0.19065
6997.48797,0.18868
6995.55923,0.18904
6993.63048,0.18967
6991.70174,0.18839
6989.77299,0.18825
6987.84425,0.18922
6985.91550,0.18757
6983.98676,0.18701
6982.05801,0.19206
6980.12927,0.19800
6978.20052,0.19941
6976.27178,0.19702
6974.34303,0.19433
6972.41429,0.19422
6970.48554,0.19571
6968.55680,0.19602
6966.62805,0.19622
6964.69930,0.19711
6962.77056,0.19568
6960.84181,0.19209
6958.91307,0.19079
6956.98432,0.19246
6955.05558,0.19382
6953.12683,0.19373
6951.19809,0.19473
6949.26934,0.19830
6947.34060,0.20090
6945.41185,0.19839
6943.48311,0.19245
6941.55436,0.18919
6939.62562,0.19222
6937.69687,0.19774
6935.76812,0.20080
6933.83938,0.20131
6931.91063,0.20098
6929.98189,0.20082
6928.05314,0.20006
6926.12440,0.19776
6924.19565,0.19554
6922.26691,0.19435
6920.33816,0.19378
6918.40942,0.19370
6916.48067,0.19347
6914.55193,0.19347
6912.62318,0.19530
6910.69444,0.19740
6908.76569,0.19616
6906.83695,0.19210
6904.90820,0.19022
6902.97945,0.19205
6901.05071,0.19435
6899.12196,0.19631
6897.19322,0.19802
6895.26447,0.19822
6893.33573,0.19740
6891.40698,0.19550
6889.47824,0.19358
6887.54949,0.19384
6885.62075,0.19324
6883.69200,0.18955
6881.76326,0.18857
6879.83451,0.19258
6877.90577,0.19518
6875.97702,0.19388
6874.04828,0.19243
6872.11953,0.19356
6870.19078,0.19601
6868.26204,0.19533
6866.33329,0.19145
6864.40455,0.18899
6862.47580,0.18927
6860.54706,0.19105
6858.61831,0.19375
6856.68957,0.19521
6854.76082,0.19389
6852.83208,0.19223
6850.90333,0.19273
6848.97459,0.19393
6847.04584,0.19320
6845.11710,0.19249
6843.18835,0.19394
6841.25960,0.19464
6839.33086,0.19355
6837.40211,0.19304
6835.47337,0.19431
6833.54462,0.19619
6831.61588,0.19677
6829.68713,0.19659
6827.75839,0.19607
6825.82964,0.19449
6823.90090,0.19333
6821.97215,0.19465
6820.04341,0.19777
6818.11466,0.20114
6816.18592,0.20330
6814.25717,0.20110
6812.32843,0.19549
6810.39968,0.19181
6808.47093,0.19198
6806.54219,0.19377
6804.61344,0.19513
6802.68470,0.19562
6800.75595,0.19529
6798.82721,0.19507
6796.89846,0.19582
6794.96972,0.19732
6793.04097,0.19951
6791.11223,0.19967
6789.18348,0.19623
6787.25474,0.19312
6785.32599,0.19250
6783.39725,0.19258
6781.46850,0.19158
6779.53975,0.19005
6777.61101,0.19020
6775.68226,0.19241
6773.75352,0.19502
6771.82477,0.19521
6769.89603,0.19202
6767.96728,0.18989
6766.03854,0.19114
6764.10979,0.19239
6762.18105,0.19257
6760.25230,0.19288
6758.32356,0.19286
6756.39481,0.19198
6754.46607,0.19011
6752.53732,0.18892
6750.60858,0.19074
6748.67983,0.19347
6746.75108,0.19395
6744.82234,0.19403
6742.89359,0.19560
6740.96485,0.19655
6739.03610,0.19603
6737.10736,0.19665
6735.17861,0.19895
6733.24987,0.19880
6731.32112,0.19462
6729.39238,0.19166
6727.46363,0.19250
6725.53489,0.19307
6723.60614,0.19195
6721.67740,0.19187
6719.74865,0.19348
6717.81991,0.19531
6715.89116,0.19656
6713.96241,0.19695
6712.03367,0.19587
6710.10492,0.19451
6708.17618,0.19478
6706.24743,0.19545
6704.31869,0.19546
6702.38994,0.19621
6700.46120,0.19856
6698.53245,0.20098
6696.60371,0.20071
6694.67496,0.19873
6692.74622,0.19799
6690.81747,0.19687
6688.88873,0.19496
6686.95998,0.19604
6685.03123,0.19985
6683.10249,0.20146
6681.17374,0.19823
6679.24500,0.19350
6677.31625,0.19214
6675.38751,0.19365
6673.45876,0.19585
6671.53002,0.19804
6669.60127,0.19812
6667.67253,0.19554
6665.74378,0.19398
6663.81504,0.19556
6661.88629,0.19701
6659.95755,0.19581
6658.02880,0.19448
6656.10006,0.19448
6654.17131,0.19540
6652.24256,0.19688
6650.31382,0.19714
6648.38507,0.19563
6646.45633,0.19349
6644.52758,0.19151
6642.59884,0.19152
6640.67009,0.19423
6638.74135,0.19541
6636.81260,0.19216
6634.88386,0.18949
6632.95511,0.19137
6631.02637,0.19426
6629.09762,0.19542
6627.16888,0.19651
6625.24013,0.19822
6623.31139,0.19881
6621.38264,0.19809
6619.45389,0.19714
6617.52515,0.19517
6615.59640,0.19297
6613.66766,0.19337
6611.73891,0.19638
6609.81017,0.19880
6607.88142,0.19889
6605.95268,0.19820
6604.02393,0.19759
6602.09519,0.19650
6600.16644,0.19591
6598.23770,0.19702
6596.30895,0.19852
6594.38021,0.19788
6592.45146,0.19614
6590.52271,0.19533
6588.59397,0.19474
6586.66522,0.19449
6584.73648,0.19548
6582.80773,0.19735
6580.87899,0.19908
6578.95024,0.19887
6577.02150,0.19740
6575.09275,0.19821
6573.16401,0.19969
6571.23526,0.19751
6569.30652,0.19432
6567.37777,0.19381
6565.44903,0.19420
6563.52028,0.19442
6561.59154,0.19511
6559.66279,0.19527
6557.73404,0.19462
6555.80530,0.19513
6553.87655,0.19723
6551.94781,0.19842
6550.01906,0.19806
6548.09032,0.19848
6546.16157,0.19963
6544.23283,0.19847
6542.30408,0.19517
6540.37534,0.19382
6538.44659,0.19469
6536.51785,0.19450
6534.58910,0.19457
6532.66036,0.19699
6530.73161,0.19801
6528.80287,0.19593
6526.87412,0.19420
6524.94537,0.19279
6523.01663,0.19091
6521.08788,0.19140
6519.15914,0.19334
6517.23039,0.19327
6515.30165,0.19291
6513.37290,0.19422
6511.44416,0.19564
6509.51541,0.19667
6507.58667,0.19726
6505.65792,0.19650
6503.72918,0.19528
6501.80043,0.19436
6499.87169,0.19264
6497.94294,0.19100
6496.01419,0.19247
6494.08545,0.19611
6492.15670,0.19816
6490.22796,0.19746
6488.29921,0.19430
6486.37047,0.19069
6484.44172,0.19045
6482.51298,0.19393
6480.58423,0.19746
6478.65549,0.19897
6476.72674,0.19961
6474.79800,0.19949
6472.86925,0.19845
6470.94051,0.19879
6469.01176,0.20056
6467.08302,0.20083
6465.15427,0.20009
6463.22552,0.19995
6461.29678,0.19905
6459.36803,0.19709
6457.43929,0.19576
6455.51054,0.19516
6453.58180,0.19432
6451.65305,0.19353
6449.72431,0.19356
6447.79556,0.19408
6445.86682,0.19495
6443.93807,0.19633
6442.00933,0.19687
6440.08058,0.19561
6438.15184,0.19497
6436.22309,0.19665
6434.29434,0.19734
6432.36560,0.19472
6430.43685,0.19133
6428.50811,0.18982
6426.57936,0.19062
6424.65062,0.19261
6422.72187,0.19445
6420.79313,0.19559
6418.86438,0.19552
6416.93564,0.19497
6415.00689,0.19530
6413.07815,0.19617
6411.14940,0.19753
6409.22066,0.19977
6407.29191,0.20142
6405.36317,0.20160
6403.43442,0.20078
6401.50567,0.19799
6399.57693,0.19467
6397.64818,0.19436
6395.71944,0.19607
6393.79069,0.19670
6391.86195,0.19673
6389.93320,0.19790
6388.00446,0.19922
6386.07571,0.19895
6384.14697,0.19757
6382.21822,0.19617
6380.28948,0.19521
6378.36073,0.19425
6376.43199,0.19332
6374.50324,0.19401
6372.57450,0.19544
6370.64575,0.19495
6368.71700,0.19348
6366.78826,0.19252
6364.85951,0.19160
6362.93077,0.19128
6361.00202,0.19220
6359.07328,0.19394
6357.14453,0.19555
6355.21579,0.19507
6353.28704,0.19292
6351.35830,0.19259
6349.42955,0.19436
6347.50081,0.19522
6345.57206,0.19466
6343.64332,0.19385
6341.71457,0.19300
6339.78582,0.19235
6337.85708,0.19228
6335.92833,0.19249
6333.99959,0.19299
6332.07084,0.19441
6330.14210,0.19619
6328.21335,0.19705
6326.28461,0.19685
6324.35586,0.19640
6322.42712,0.19700
6320.49837,0.19811
6318.56963,0.19756
6316.64088,0.19641
6314.71214,0.19723
6312.78339,0.19947
6310.85465,0.20138
6308.92590,0.20185
6306.99715,0.19969
6305.06841,0.19522
6303.13966,0.19202
6301.21092,0.19254
6299.28217,0.19489
6297.35343,0.19570
6295.42468,0.19380
6293.49594,0.19295
6291.56719,0.19595
6289.63845,0.19861
6287.70970,0.19832
6285.78096,0.19704
6283.85221,0.19569
6281.92347,0.19570
6279.99472,0.19805
6278.06598,0.20031
6276.13723,0.20013
6274.20848,0.19773
6272.27974,0.19563
6270.35099,0.19612
6268.42225,0.19809
6266.49350,0.19822
6264.56476,0.19621
6262.63601,0.19521
6260.70727,0.19585
6258.77852,0.19598
6256.84978,0.19614
6254.92103,0.19774
6252.99229,0.19913
6251.06354,0.19881
6249.13480,0.19736
6247.20605,0.19598
6245.27730,0.19563
6243.34856,0.19554
6241.41981,0.19491
6239.49107,0.19499
6237.56232,0.19629
6235.63358,0.19686
6233.70483,0.19562
6231.77609,0.19500
6229.84734,0.19694
6227.91860,0.19868
6225.98985,0.19756
6224.06111,0.19533
6222.13236,0.19507
6220.20362,0.19667
6218.27487,0.19745
6216.34613,0.19674
6214.41738,0.19597
6212.48863,0.19597
6210.55989,0.19695
6208.63114,0.19762
6206.70240,0.19683
6204.77365,0.19672
6202.84491,0.19834
6200.91616,0.19876
6198.98742,0.19678
6197.05867,0.19507
6195.12993,0.19571
6193.20118,0.19710
6191.27244,0.19701
6189.34369,0.19617
6187.41495,0.19624
6185.48620,0.19697
6183.55746,0.19710
6181.62871,0.19665
6179.69996,0.19696
6177.77122,0.19789
6175.84247,0.19801
6173.91373,0.19724
6171.98498,0.19663
6170.05624,0.19673
6168.12749,0.19712
6166.19875,0.19737
6164.27000,0.19775
6162.34126,0.19878
6160.41251,0.20044
6158.48377,0.20142
6156.55502,0.20155
6154.62628,0.20195
6152.69753,0.20103
6150.76878,0.19774
6148.84004,0.19483
6146.91129,0.19394
6144.98255,0.19401
6143.05380,0.19402
6141.12506,0.19361
6139.19631,0.19371
6137.26757,0.19514
6135.33882,0.19607
6133.41008,0.19501
6131.48133,0.19387
6129.55259,0.19446
6127.62384,0.19555
6125.69510,0.19553
6123.76635,0.19534
6121.83761,0.19667
6119.90886,0.19846
6117.98011,0.19865
6116.05137,0.19768
6114.12262,0.19728
6112.19388,0.19712
6110.26513,0.19598
6108.33639,0.19498
6106.40764,0.19519
6104.47890,0.19522
6102.55015,0.19507
6100.62141,0.19671
6098.69266,0.19912
6096.76392,0.19988
6094.83517,0.19961
6092.90643,0.19913
6090.97768,0.19787
6089.04893,0.19703
6087.12019,0.19761
6085.19144,0.19782
6083.26270,0.19701
6081.33395,0.19662
6079.40521,0.19683
6077.47646,0.19711
6075.54772,0.19761
6073.61897,0.19802
6071.69023,0.19756
6069.76148,0.19657
6067.83274,0.19666
6065.90399,0.19820
6063.97525,0.19881
6062.04650,0.19709
6060.11776,0.19509
6058.18901,0.19444
6056.26026,0.19419
6054.33152,0.19356
6052.40277,0.19348
6050.47403,0.19431
6048.54528,0.19472
6046.61654,0.19449
6044.68779,0.19474
6042.75905,0.19531
6040.83030,0.19572
6038.90156,0.19642
6036.97281,0.19710
6035.04407,0.19735
6033.11532,0.19761
6031.18658,0.19744
6029.25783,0.19639
6027.32909,0.19571
6025.40034,0.19601
6023.47159,0.19640
6021.54285,0.19674
6019.61410,0.19753
6017.68536,0.19803
6015.75661,0.19785
6013.82787,0.19825
6011.89912,0.19905
6009.97038,0.19880
6008.04163,0.19775
6006.11289,0.19715
6004.18414,0.19753
6002.25540,0.19815
6000.32665,0.19790
5998.39791,0.19686
5996.46916,0.19543
5994.54041,0.19387
5992.61167,0.19374
5990.68292,0.19558
5988.75418,0.19703
5986.82543,0.19712
5984.89669,0.19739
5982.96794,0.19768
5981.03920,0.19671
5979.11045,0.19536
5977.18171,0.19512
5975.25296,0.19618
5973.32422,0.19779
5971.39547,0.19878
5969.46673,0.19885
5967.53798,0.19879
5965.60924,0.19897
5963.68049,0.19883
5961.75174,0.19835
5959.82300,0.19782
5957.89425,0.19708
5955.96551,0.19717
5954.03676,0.19877
5952.10802,0.19948
5950.17927,0.19768
5948.25053,0.19612
5946.32178,0.19704
5944.39304,0.19847
5942.46429,0.19874
5940.53555,0.19827
5938.60680,0.19724
5936.67806,0.19673
5934.74931,0.19769
5932.82057,0.19916
5930.89182,0.20032
5928.96307,0.20078
5927.03433,0.20007
5925.10558,0.19879
5923.17684,0.19846
5921.24809,0.19912
5919.31935,0.19980
5917.39060,0.20021
5915.46186,0.19928
5913.53311,0.19733
5911.60437,0.19674
5909.67562,0.19726
5907.74688,0.19751
5905.81813,0.19723
5903.88939,0.19658
5901.96064,0.19615
5900.03189,0.19629
5898.10315,0.19741
5896.17440,0.19879
5894.24566,0.19893
5892.31691,0.19795
5890.38817,0.19754
5888.45942,0.19902
5886.53068,0.20098
5884.60193,0.20127
5882.67319,0.20055
5880.74444,0.20024
5878.81570,0.20004
5876.88695,0.19919
5874.95821,0.19826
5873.02946,0.19800
5871.10072,0.19810
5869.17197,0.19827
5867.24322,0.19829
5865.31448,0.19811
5863.38573,0.19776
5861.45699,0.19665
5859.52824,0.19533
5857.59950,0.19522
5855.67075,0.19604
5853.74201,0.19660
5851.81326,0.19655
5849.88452,0.19578
5847.95577,0.19467
5846.02703,0.19430
5844.09828,0.19508
5842.16954,0.19572
5840.24079,0.19556
5838.31205,0.19630
5836.38330,0.19813
5834.45455,0.19868
5832.52581,0.19801
5830.59706,0.19827
5828.66832,0.19890
5826.73957,0.19845
5824.81083,0.19823
5822.88208,0.19897
5820.95334,0.19931
5819.02459,0.19856
5817.09585,0.19701
5815.16710,0.19584
5813.23836,0.19615
5811.30961,0.19701
5809.38087,0.19671
5807.45212,0.19526
5805.52337,0.19443
5803.59463,0.19494
5801.66588,0.19582
5799.73714,0.19649
5797.80839,0.19689
5795.87965,0.19684
5793.95090,0.19683
5792.02216,0.19740
5790.09341,0.19829
5788.16467,0.19881
5786.23592,0.19869
5784.30718,0.19845
5782.37843,0.19842
5780.44969,0.19835
5778.52094,0.19780
5776.59220,0.19684
5774.66345,0.19689
5772.73470,0.19800
5770.80596,0.19870
5768.87721,0.19882
5766.94847,0.19845
5765.01972,0.19764
5763.09098,0.19711
5761.16223,0.19717
5759.23349,0.19750
5757.30474,0.19778
5755.37600,0.19823
5753.44725,0.19865
5751.51851,0.19839
5749.58976,0.19804
5747.66102,0.19865
5745.73227,0.19956
5743.80352,0.19967
5741.87478,0.19930
5739.94603,0.19881
5738.01729,0.19810
5736.08854,0.19756
5734.15980,0.19738
5732.23105,0.19712
5730.30231,0.19656
5728.37356,0.19637
5726.44482,0.19648
5724.51607,0.19613
5722.58733,0.19632
5720.65858,0.19755
5718.72984,0.19822
5716.80109,0.19809
5714.87235,0.19799
5712.94360,0.19769
5711.01485,0.19706
5709.08611,0.19638
5707.15736,0.19588
5705.22862,0.19576
5703.29987,0.19650
5701.37113,0.19791
5699.44238,0.19878
5697.51364,0.19868
5695.58489,0.19854
5693.65615,0.19874
5691.72740,0.19841
5689.79866,0.19741
5687.86991,0.19671
5685.94117,0.19683
5684.01242,0.19736
5682.08368,0.19691
5680.15493,0.19570
5678.22618,0.19595
5676.29744,0.19723
5674.36869,0.19732
5672.43995,0.19646
5670.51120,0.19615
5668.58246,0.19645
5666.65371,0.19656
5664.72497,0.19650
5662.79622,0.19676
5660.86748,0.19737
5658.93873,0.19864
5657.00999,0.20049
5655.08124,0.20170
5653.15250,0.20175
5651.22375,0.20102
5649.29500,0.19958
5647.36626,0.19855
5645.43751,0.19874
5643.50877,0.19903
5641.58002,0.19894
5639.65128,0.19920
5637.72253,0.19973
5635.79379,0.19959
5633.86504,0.19825
5631.93630,0.19635
5630.00755,0.19519
5628.07881,0.19537
5626.15006,0.19599
5624.22132,0.19591
5622.29257,0.19557
5620.36383,0.19582
5618.43508,0.19660
5616.50633,0.19755
5614.57759,0.19807
5612.64884,0.19797
5610.72010,0.19796
5608.79135,0.19806
5606.86261,0.19771
5604.93386,0.19747
5603.00512,0.19793
5601.07637,0.19827
5599.14763,0.19749
5597.21888,0.19596
5595.29014,0.19544
5593.36139,0.19653
5591.43265,0.19760
5589.50390,0.19783
5587.57516,0.19801
5585.64641,0.19852
5583.71766,0.19872
5581.78892,0.19809
5579.86017,0.19747
5577.93143,0.19730
5576.00268,0.19734
5574.07394,0.19835
5572.14519,0.19975
5570.21645,0.19969
5568.28770,0.19878
5566.35896,0.19855
5564.43021,0.19834
5562.50147,0.19770
5560.57272,0.19775
5558.64398,0.19854
5556.71523,0.19867
5554.78648,0.19786
5552.85774,0.19739
5550.92899,0.19785
5549.00025,0.19840
5547.07150,0.19849
5545.14276,0.19808
5543.21401,0.19758
5541.28527,0.19741
5539.35652,0.19726
5537.42778,0.19724
5535.49903,0.19779
5533.57029,0.19837
5531.64154,0.19830
5529.71280,0.19768
5527.78405,0.19707
5525.85531,0.19713
5523.92656,0.19749
5521.99781,0.19690
5520.06907,0.19575
5518.14032,0.19554
5516.21158,0.19604
5514.28283,0.19632
5512.35409,0.19640
5510.42534,0.19676
5508.49660,0.19751
5506.56785,0.19814
5504.63911,0.19838
5502.71036,0.19859
5500.78162,0.19902
5498.85287,0.19947
5496.92413,0.19945
5494.99538,0.19904
5493.06664,0.19918
5491.13789,0.19954
5489.20914,0.19895
5487.28040,0.19746
5485.35165,0.19622
5483.42291,0.19643
5481.49416,0.19768
5479.56542,0.19841
5477.63667,0.19846
5475.70793,0.19859
5473.77918,0.19895
5471.85044,0.19903
5469.92169,0.19872
5467.99295,0.19850
5466.06420,0.19838
5464.13546,0.19834
5462.20671,0.19855
5460.27796,0.19827
5458.34922,0.19699
5456.42047,0.19631
5454.49173,0.19706
5452.56298,0.19778
5450.63424,0.19781
5448.70549,0.19778
5446.77675,0.19799
5444.84800,0.19827
5442.91926,0.19842
5440.99051,0.19830
5439.06177,0.19773
5437.13302,0.19727
5435.20428,0.19740
5433.27553,0.19776
5431.34679,0.19801
5429.41804,0.19800
5427.48929,0.19785
5425.56055,0.19813
5423.63180,0.19867
5421.70306,0.19872
5419.77431,0.19851
5417.84557,0.19843
5415.91682,0.19811
5413.98808,0.19781
5412.05933,0.19810
5410.13059,0.19854
5408.20184,0.19847
5406.27310,0.19816
5404.34435,0.19824
5402.41561,0.19861
5400.48686,0.19884
5398.55811,0.19873
5396.62937,0.19831
5394.70062,0.19756
5392.77188,0.19652
5390.84313,0.19641
5388.91439,0.19742
5386.98564,0.19785
5385.05690,0.19770
5383.12815,0.19798
5381.19941,0.19842
5379.27066,0.19893
5377.34192,0.19914
5375.41317,0.19841
5373.48443,0.19773
5371.55568,0.19790
5369.62694,0.19815
5367.69819,0.19785
5365.76944,0.19715
5363.84070,0.19633
5361.91195,0.19610
5359.98321,0.19657
5358.05446,0.19664
5356.12572,0.19634
5354.19697,0.19631
5352.26823,0.19639
5350.33948,0.19685
5348.41074,0.19798
5346.48199,0.19895
5344.55325,0.19883
5342.62450,0.19786
5340.69576,0.19663
5338.76701,0.19586
5336.83827,0.19595
5334.90952,0.19635
5332.98077,0.19716
5331.05203,0.19840
5329.12328,0.19884
5327.19454,0.19818
5325.26579,0.19780
5323.33705,0.19797
5321.40830,0.19733
5319.47956,0.19618
5317.55081,0.19585
5315.62207,0.19606
5313.69332,0.19626
5311.76458,0.19666
5309.83583,0.19707
5307.90709,0.19673
5305.97834,0.19604
5304.04959,0.19571
5302.12085,0.19525
5300.19210,0.19485
5298.26336,0.19498
5296.33461,0.19493
5294.40587,0.19470
5292.47712,0.19516
5290.54838,0.19560
5288.61963,0.19499
5286.69089,0.19425
5284.76214,0.19417
5282.83340,0.19416
5280.90465,0.19411
5278.97591,0.19421
5277.04716,0.19380
5275.11842,0.19309
5273.18967,0.19302
5271.26092,0.19319
5269.33218,0.19301
5267.40343,0.19293
5265.47469,0.19315
5263.54594,0.19312
5261.61720,0.19244
5259.68845,0.19151
5257.75971,0.19101
5255.83096,0.19119
5253.90222,0.19184
5251.97347,0.19225
5250.04473,0.19195
5248.11598,0.19121
5246.18724,0.19051
5244.25849,0.19006
5242.32975,0.18982
5240.40100,0.18999
5238.47225,0.19026
5236.54351,0.18975
5234.61476,0.18891
5232.68602,0.18884
5230.75727,0.18926
5228.82853,0.18959
5226.89978,0.18996
5224.97104,0.19016
5223.04229,0.18995
5221.11355,0.18981
5219.18480,0.18963
5217.25606,0.18901
5215.32731,0.18841
5213.39857,0.18830
5211.46982,0.18862
5209.54107,0.18869
5207.61233,0.18814
5205.68358,0.18785
5203.75484,0.18830
5201.82609,0.18881
5199.89735,0.18864
5197.96860,0.18762
5196.03986,0.18670
5194.11111,0.18684
5192.18237,0.18733
5190.25362,0.18720
5188.32488,0.18672
5186.39613,0.18631
5184.46739,0.18592
5182.53864,0.18576
5180.60990,0.18635
5178.68115,0.18751
5176.75240,0.18811
5174.82366,0.18779
5172.89491,0.18750
5170.96617,0.18788
5169.03742,0.18806
5167.10868,0.18733
5165.17993,0.18645
5163.25119,0.18638
5161.32244,0.18713
5159.39370,0.18782
5157.46495,0.18782
5155.53621,0.18770
5153.60746,0.18810
5151.67872,0.18880
5149.74997,0.18898
5147.82123,0.18851
5145.89248,0.18811
5143.96373,0.18791
5142.03499,0.18772
5140.10624,0.18777
5138.17750,0.18800
5136.24875,0.18797
5134.32001,0.18765
5132.39126,0.18737
5130.46252,0.18736
5128.53377,0.18768
5126.60503,0.18819
5124.67628,0.18868
5122.74754,0.18893
5120.81879,0.18908
5118.89005,0.18963
5116.96130,0.19020
5115.03255,0.19015
5113.10381,0.18972
5111.17506,0.18954
5109.24632,0.18994
5107.31757,0.19017
5105.38883,0.18929
5103.46008,0.18801
5101.53134,0.18779
5099.60259,0.18863
5097.67385,0.18910
5095.74510,0.18908
5093.81636,0.18963
5091.88761,0.19016
5089.95887,0.18980
5088.03012,0.18926
5086.10138,0.18928
5084.17263,0.18962
5082.24388,0.18981
5080.31514,0.18977
5078.38639,0.18947
5076.45765,0.18910
5074.52890,0.18937
5072.60016,0.19028
5070.67141,0.19077
5068.74267,0.19071
5066.81392,0.19105
5064.88518,0.19168
5062.95643,0.19174
5061.02769,0.19122
5059.09894,0.19082
5057.17020,0.19082
5055.24145,0.19072
5053.31270,0.19050
5051.38396,0.19063
5049.45521,0.19076
5047.52647,0.19067
5045.59772,0.19074
5043.66898,0.19103
5041.74023,0.19147
5039.81149,0.19180
5037.88274,0.19139
5035.95400,0.19050
5034.02525,0.19008
5032.09651,0.19043
5030.16776,0.19103
5028.23902,0.19123
5026.31027,0.19079
5024.38153,0.19010
5022.45278,0.19007
5020.52403,0.19089
5018.59529,0.19150
5016.66654,0.19154
5014.73780,0.19162
5012.80905,0.19169
5010.88031,0.19139
5008.95156,0.19092
5007.02282,0.19067
5005.09407,0.19067
5003.16533,0.19113
5001.23658,0.19214
4999.30784,0.19308
4997.37909,0.19339
4995.45035,0.19312
4993.52160,0.19269
4991.59286,0.19235
4989.66411,0.19227
4987.73536,0.19220
4985.80662,0.19189
4983.87787,0.19180
4981.94913,0.19220
4980.02038,0.19265
4978.09164,0.19266
4976.16289,0.19222
4974.23415,0.19162
4972.30540,0.19143
4970.37666,0.19186
4968.44791,0.19231
4966.51917,0.19237
4964.59042,0.19219
4962.66168,0.19217
4960.73293,0.19249
4958.80418,0.19249
4956.87544,0.19220
4954.94669,0.19234
4953.01795,0.19264
4951.08920,0.19287
4949.16046,0.19328
4947.23171,0.19367
4945.30297,0.19348
4943.37422,0.19273
4941.44548,0.19217
4939.51673,0.19243
4937.58799,0.19310
4935.65924,0.19325
4933.73050,0.19277
4931.80175,0.19245
4929.87301,0.19278
4927.94426,0.19333
4926.01551,0.19367
4924.08677,0.19387
4922.15802,0.19388
4920.22928,0.19353
4918.30053,0.19312
4916.37179,0.19314
4914.44304,0.19305
4912.51430,0.19252
4910.58555,0.19250
4908.65681,0.19306
4906.72806,0.19319
4904.79932,0.19276
4902.87057,0.19258
4900.94183,0.19284
4899.01308,0.19310
4897.08434,0.19342
4895.15559,0.19391
4893.22684,0.19423
4891.29810,0.19438
4889.36935,0.19445
4887.44061,0.19441
4885.51186,0.19432
4883.58312,0.19425
4881.65437,0.19421
4879.72563,0.19425
4877.79688,0.19421
4875.86814,0.19392
4873.93939,0.19352
4872.01065,0.19313
4870.08190,0.19293
4868.15316,0.19320
4866.22441,0.19386
4864.29566,0.19445
4862.36692,0.19470
4860.43817,0.19466
4858.50943,0.19448
4856.58068,0.19418
4854.65194,0.19389
4852.72319,0.19387
4850.79445,0.19402
4848.86570,0.19418
4846.93696,0.19414
4845.00821,0.19369
4843.07947,0.19329
4841.15072,0.19324
4839.22198,0.19287
4837.29323,0.19209
4835.36449,0.19187
4833.43574,0.19252
4831.50699,0.19334
4829.57825,0.19371
4827.64950,0.19353
4825.72076,0.19318
4823.79201,0.19318
4821.86327,0.19362
4819.93452,0.19414
4818.00578,0.19447
4816.07703,0.19469
4814.14829,0.19487
4812.21954,0.19489
4810.29080,0.19456
4808.36205,0.19404
4806.43331,0.19379
4804.50456,0.19380
4802.57582,0.19367
4800.64707,0.19347
4798.71832,0.19358
4796.78958,0.19387
4794.86083,0.19424
4792.93209,0.19473
4791.00334,0.19501
4789.07460,0.19502
4787.14585,0.19505
4785.21711,0.19510
4783.28836,0.19499
4781.35962,0.19473
4779.43087,0.19438
4777.50213,0.19389
4775.57338,0.19349
4773.64464,0.19327
4771.71589,0.19305
4769.78714,0.19302
4767.85840,0.19344
4765.92965,0.19390
4764.00091,0.19413
4762.07216,0.19446
4760.14342,0.19506
4758.21467,0.19545
4756.28593,0.19516
4754.35718,0.19446
4752.42844,0.19394
4750.49969,0.19371
4748.57095,0.19378
4746.64220,0.19409
4744.71346,0.19413
4742.78471,0.19382
4740.85597,0.19358
4738.92722,0.19360
4736.99847,0.19387
4735.06973,0.19423
4733.14098,0.19449
4731.21224,0.19461
4729.28349,0.19440
4727.35475,0.19429
4725.42600,0.19481
4723.49726,0.19522
4721.56851,0.19507
4719.63977,0.19492
4717.71102,0.19485
4715.78228,0.19466
4713.85353,0.19460
4711.92479,0.19460
4709.99604,0.19442
4708.06729,0.19455
4706.13855,0.19500
4704.20980,0.19503
4702.28106,0.19457
4700.35231,0.19426
4698.42357,0.19434
4696.49482,0.19445
4694.56608,0.19409
4692.63733,0.19360
4690.70859,0.19391
4688.77984,0.19484
4686.85110,0.19547
4684.92235,0.19533
4682.99361,0.19467
4681.06486,0.19430
4679.13612,0.19463
4677.20737,0.19515
4675.27862,0.19529
4673.34988,0.19518
4671.42113,0.19499
4669.49239,0.19458
4667.56364,0.19431
4665.63490,0.19427
4663.70615,0.19406
4661.77741,0.19390
4659.84866,0.19392
4657.91992,0.19394
4655.99117,0.19425
4654.06243,0.19487
4652.13368,0.19528
4650.20494,0.19547
4648.27619,0.19534
4646.34745,0.19484
4644.41870,0.19451
4642.48995,0.19437
4640.56121,0.19408
4638.63246,0.19380
4636.70372,0.19373
4634.77497,0.19355
4632.84623,0.19314
4630.91748,0.19295
4628.98874,0.19307
4627.05999,0.19323
4625.13125,0.19326
4623.20250,0.19314
4621.27376,0.19337
4619.34501,0.19395
4617.41627,0.19444
4615.48752,0.19489
4613.55877,0.19509
4611.63003,0.19467
4609.70128,0.19410
4607.77254,0.19386
4605.84379,0.19376
4603.91505,0.19360
4601.98630,0.19357
4600.05756,0.19378
4598.12881,0.19389
4596.20007,0.19367
4594.27132,0.19350
4592.34258,0.19352
4590.41383,0.19344
4588.48509,0.19349
4586.55634,0.19375
4584.62760,0.19356
4582.69885,0.19319
4580.77010,0.19334
4578.84136,0.19354
4576.91261,0.19349
4574.98387,0.19369
4573.05512,0.19398
4571.12638,0.19387
4569.19763,0.19344
4567.26889,0.19298
4565.34014,0.19273
4563.41140,0.19273
4561.48265,0.19270
4559.55391,0.19266
4557.62516,0.19289
4555.69642,0.19321
4553.76767,0.19337
4551.83893,0.19350
4549.91018,0.19364
4547.98143,0.19360
4546.05269,0.19317
4544.12394,0.19267
4542.19520,0.19268
4540.26645,0.19305
4538.33771,0.19302
4536.40896,0.19263
4534.48022,0.19260
4532.55147,0.19271
4530.62273,0.19240
4528.69398,0.19184
4526.76524,0.19139
4524.83649,0.19115
4522.90775,0.19117
4520.97900,0.19157
4519.05025,0.19219
4517.12151,0.19239
4515.19276,0.19215
4513.26402,0.19197
4511.33527,0.19187
4509.40653,0.19174
4507.47778,0.19148
4505.54904,0.19110
4503.62029,0.19099
4501.69155,0.19119
4499.76280,0.19132
4497.83406,0.19129
4495.90531,0.19118
4493.97657,0.19105
4492.04782,0.19098
4490.11908,0.19108
4488.19033,0.19142
4486.26158,0.19178
4484.33284,0.19189
4482.40409,0.19181
4480.47535,0.19165
4478.54660,0.19162
4476.61786,0.19167
4474.68911,0.19157
4472.76037,0.19156
4470.83162,0.19180
4468.90288,0.19197
4466.97413,0.19184
4465.04539,0.19165
4463.11664,0.19165
4461.18790,0.19161
4459.25915,0.19150
4457.33041,0.19159
4455.40166,0.19181
4453.47291,0.19182
4451.54417,0.19158
4449.61542,0.19142
4447.68668,0.19135
4445.75793,0.19109
4443.82919,0.19106
4441.90044,0.19144
4439.97170,0.19163
4438.04295,0.19153
4436.11421,0.19161
4434.18546,0.19189
4432.25672,0.19224
4430.32797,0.19250
4428.39923,0.19231
4426.47048,0.19174
4424.54173,0.19125
4422.61299,0.19085
4420.68424,0.19043
4418.75550,0.19022
4416.82675,0.19045
4414.89801,0.19095
4412.96926,0.19125
4411.04052,0.19128
4409.11177,0.19118
4407.18303,0.19093
4405.25428,0.19077
4403.32554,0.19086
4401.39679,0.19092
4399.46805,0.19072
4397.53930,0.19030
4395.61056,0.19008
4393.68181,0.19019
4391.75306,0.19030
4389.82432,0.19032
4387.89557,0.19052
4385.96683,0.19074
4384.03808,0.19047
4382.10934,0.18987
4380.18059,0.18949
4378.25185,0.18939
4376.32310,0.18951
4374.39436,0.18949
4372.46561,0.18909
4370.53687,0.18875
4368.60812,0.18867
4366.67938,0.18872
4364.75063,0.18889
4362.82189,0.18922
4360.89314,0.18956
4358.96439,0.18950
4357.03565,0.18907
4355.10690,0.18875
4353.17816,0.18858
4351.24941,0.18867
4349.32067,0.18924
4347.39192,0.18964
4345.46318,0.18924
4343.53443,0.18854
4341.60569,0.18837
4339.67694,0.18845
4337.74820,0.18807
4335.81945,0.18741
4333.89071,0.18717
4331.96196,0.18740
4330.03321,0.18766
4328.10447,0.18779
4326.17572,0.18778
4324.24698,0.18755
4322.31823,0.18724
4320.38949,0.18716
4318.46074,0.18732
4316.53200,0.18751
4314.60325,0.18752
4312.67451,0.18722
4310.74576,0.18688
4308.81702,0.18665
4306.88827,0.18622
4304.95953,0.18565
4303.03078,0.18546
4301.10204,0.18571
4299.17329,0.18613
4297.24454,0.18624
4295.31580,0.18578
4293.38705,0.18522
4291.45831,0.18493
4289.52956,0.18480
4287.60082,0.18469
4285.67207,0.18460
4283.74333,0.18445
4281.81458,0.18435
4279.88584,0.18444
4277.95709,0.18465
4276.02835,0.18493
4274.09960,0.18509
4272.17086,0.18486
4270.24211,0.18446
4268.31336,0.18423
4266.38462,0.18429
4264.45587,0.18452
4262.52713,0.18451
4260.59838,0.18423
4258.66964,0.18394
4256.74089,0.18381
4254.81215,0.18424
4252.88340,0.18517
4250.95466,0.18575
4249.02591,0.18569
4247.09717,0.18544
4245.16842,0.18533
4243.23968,0.18542
4241.31093,0.18563
4239.38219,0.18581
4237.45344,0.18592
4235.52469,0.18617
4233.59595,0.18658
4231.66720,0.18689
4229.73846,0.18707
4227.80971,0.18719
4225.88097,0.18717
4223.95222,0.18718
4222.02348,0.18741
4220.09473,0.18752
4218.16599,0.18728
4216.23724,0.18704
4214.30850,0.18706
4212.37975,0.18731
4210.45101,0.18753
4208.52226,0.18742
4206.59352,0.18710
4204.66477,0.18699
4202.73602,0.18709
4200.80728,0.18723
4198.87853,0.18739
4196.94979,0.18755
4195.02104,0.18763
4193.09230,0.18763
4191.16355,0.18752
4189.23481,0.18729
4187.30606,0.18705
4185.37732,0.18703
4183.44857,0.18727
4181.51983,0.18747
4179.59108,0.18738
4177.66234,0.18706
4175.73359,0.18674
4173.80484,0.18660
4171.87610,0.18648
4169.94735,0.18631
4168.01861,0.18622
4166.08986,0.18617
4164.16112,0.18607
4162.23237,0.18597
4160.30363,0.18581
4158.37488,0.18550
4156.44614,0.18519
4154.51739,0.18498
4152.58865,0.18484
4150.65990,0.18486
4148.73116,0.18516
4146.80241,0.18542
4144.87367,0.18514
4142.94492,0.18452
4141.01617,0.18420
4139.08743,0.18435
4137.15868,0.18476
4135.22994,0.18502
4133.30119,0.18485
4131.37245,0.18449
4129.44370,0.18423
4127.51496,0.18398
4125.58621,0.18352
4123.65747,0.18307
4121.72872,0.18296
4119.79998,0.18301
4117.87123,0.18296
4115.94249,0.18287
4114.01374,0.18276
4112.08500,0.18257
4110.15625,0.18233
4108.22750,0.18205
4106.29876,0.18196
4104.37001,0.18216
4102.44127,0.18235
4100.51252,0.18230
4098.58378,0.18210
4096.65503,0.18169
4094.72629,0.18121
4092.79754,0.18121
4090.86880,0.18167
4088.94005,0.18188
4087.01131,0.18147
4085.08256,0.18084
4083.15382,0.18060
4081.22507,0.18059
4079.29632,0.18037
4077.36758,0.18003
4075.43883,0.17968
4073.51009,0.17933
4071.58134,0.17911
4069.65260,0.17908
4067.72385,0.17911
4065.79511,0.17905
4063.86636,0.17883
4061.93762,0.17854
4060.00887,0.17833
4058.08013,0.17800
4056.15138,0.17749
4054.22264,0.17723
4052.29389,0.17727
4050.36515,0.17723
4048.43640,0.17706
4046.50765,0.17674
4044.57891,0.17612
4042.65016,0.17547
4040.72142,0.17523
4038.79267,0.17521
4036.86393,0.17500
4034.93518,0.17477
4033.00644,0.17474
4031.07769,0.17467
4029.14895,0.17450
4027.22020,0.17442
4025.29146,0.17441
4023.36271,0.17441
4021.43397,0.17435
4019.50522,0.17417
4017.57648,0.17392
4015.64773,0.17369
4013.71898,0.17353
4011.79024,0.17329
4009.86149,0.17302
4007.93275,0.17295
4006.00400,0.17294
4004.07526,0.17281
4002.14651,0.17266
4000.21777,0.17273
3998.28902,0.17294
3996.36028,0.17283
3994.43153,0.17240
3992.50279,0.17211
3990.57404,0.17197
3988.64530,0.17175
3986.71655,0.17155
3984.78780,0.17153
3982.85906,0.17160
3980.93031,0.17158
3979.00157,0.17145
3977.07282,0.17142
3975.14408,0.17146
3973.21533,0.17109
3971.28659,0.17035
3969.35784,0.17000
3967.42910,0.17021
3965.50035,0.17039
3963.57161,0.17039
3961.64286,0.17034
3959.71412,0.17004
3957.78537,0.16951
3955.85663,0.16895
3953.92788,0.16852
3951.99913,0.16832
3950.07039,0.16820
3948.14164,0.16800
3946.21290,0.16776
3944.28415,0.16764
3942.35541,0.16778
3940.42666,0.16812
3938.49792,0.16838
3936.56917,0.16837
3934.64043,0.16840
3932.71168,0.16870
3930.78294,0.16906
3928.85419,0.16937
3926.92545,0.16986
3924.99670,0.17060
3923.06795,0.17148
3921.13921,0.17237
3919.21046,0.17297
3917.28172,0.17306
3915.35297,0.17306
3913.42423,0.17341
3911.49548,0.17383
3909.56674,0.17403
3907.63799,0.17419
3905.70925,0.17455
3903.78050,0.17495
3901.85176,0.17524
3899.92301,0.17553
3897.99427,0.17585
3896.06552,0.17613
3894.13678,0.17627
3892.20803,0.17611
3890.27928,0.17569
3888.35054,0.17531
3886.42179,0.17533
3884.49305,0.17570
3882.56430,0.17607
3880.63556,0.17639
3878.70681,0.17653
3876.77807,0.17641
3874.84932,0.17641
3872.92058,0.17668
3870.99183,0.17687
3869.06309,0.17676
3867.13434,0.17648
3865.20560,0.17634
3863.27685,0.17656
3861.34811,0.17686
3859.41936,0.17698
3857.49061,0.17692
3855.56187,0.17664
3853.63312,0.17622
3851.70438,0.17602
3849.77563,0.17609
3847.84689,0.17630
3845.91814,0.17652
3843.98940,0.17654
3842.06065,0.17635
3840.13191,0.17605
3838.20316,0.17553
3836.27442,0.17508
3834.34567,0.17501
3832.41693,0.17512
3830.48818,0.17517
3828.55943,0.17515
3826.63069,0.17517
3824.70194,0.17543
3822.77320,0.17583
3820.84445,0.17601
3818.91571,0.17594
3816.98696,0.17575
3815.05822,0.17536
3813.12947,0.17489
3811.20073,0.17466
3809.27198,0.17467
3807.34324,0.17456
3805.41449,0.17442
3803.48575,0.17443
3801.55700,0.17434
3799.62826,0.17409
3797.69951,0.17386
3795.77076,0.17359
3793.84202,0.17323
3791.91327,0.17311
3789.98453,0.17322
3788.05578,0.17300
3786.12704,0.17236
3784.19829,0.17188
3782.26955,0.17172
3780.34080,0.17156
3778.41206,0.17124
3776.48331,0.17097
3774.55457,0.17106
3772.62582,0.17122
3770.69708,0.17092
3768.76833,0.17038
3766.83959,0.17012
3764.91084,0.16993
3762.98209,0.16943
3761.05335,0.16878
3759.12460,0.16832
3757.19586,0.16814
3755.26711,0.16789
3753.33837,0.16732
3751.40962,0.16666
3749.48088,0.16614
3747.55213,0.16564
3745.62339,0.16480
3743.69464,0.16346
3741.76590,0.16226
3739.83715,0.16145
3737.90841,0.16080
3735.97966,0.16019
3734.05091,0.15933
3732.12217,0.15825
3730.19342,0.15728
3728.26468,0.15608
3726.33593,0.15448
3724.40719,0.15285
3722.47844,0.15110
3720.54970,0.14899
3718.62095,0.14683
3716.69221,0.14491
3714.76346,0.14329
3712.83472,0.14168
3710.90597,0.13982
3708.97723,0.13798
3707.04848,0.13631
3705.11974,0.13464
3703.19099,0.13295
3701.26224,0.13139
3699.33350,0.12980
3697.40475,0.12812
3695.47601,0.12662
3693.54726,0.12511
3691.61852,0.12328
3689.68977,0.12123
3687.76103,0.11905
3685.83228,0.11682
3683.90354,0.11461
3681.97479,0.11242
3680.04605,0.11051
3678.11730,0.10899
3676.18856,0.10723
3674.25981,0.10507
3672.33107,0.10313
3670.40232,0.10117
3668.47357,0.09888
3666.54483,0.09660
3664.61608,0.09443
3662.68734,0.09231
3660.75859,0.09047
3658.82985,0.08900
3656.90110,0.08756
3654.97236,0.08602
3653.04361,0.08452
3651.11487,0.08269
3649.18612,0.08025
3647.25738,0.07808
3645.32863,0.07686
3643.39989,0.07600
3641.47114,0.07482
3639.54239,0.07333
3637.61365,0.07187
3635.68490,0.07042
3633.75616,0.06908
3631.82741,0.06821
3629.89867,0.06755
3627.96992,0.06676
3626.04118,0.06601
3624.11243,0.06528
3622.18369,0.06444
3620.25494,0.06369
3618.32620,0.06320
3616.39745,0.06281
3614.46871,0.06229
3612.53996,0.06179
3610.61122,0.06143
3608.68247,0.06119
3606.75372,0.06109
3604.82498,0.06085
3602.89623,0.06025
3600.96749,0.05970
3599.03874,0.05945
3597.11000,0.05928
3595.18125,0.05918
3593.25251,0.05922
3591.32376,0.05924
3589.39502,0.05913
3587.46627,0.05874
3585.53753,0.05835
3583.60878,0.05840
3581.68004,0.05847
3579.75129,0.05833
3577.82254,0.05819
3575.89380,0.05797
3573.96505,0.05766
3572.03631,0.05748
3570.10756,0.05738
3568.17882,0.05719
3566.25007,0.05686
3564.32133,0.05646
3562.39258,0.05616
3560.46384,0.05603
3558.53509,0.05595
3556.60635,0.05587
3554.67760,0.05585
3552.74886,0.05591
3550.82011,0.05583
3548.89137,0.05546
3546.96262,0.05498
3545.03387,0.05466
3543.10513,0.05445
3541.17638,0.05417
3539.24764,0.05389
3537.31889,0.05376
3535.39015,0.05383
3533.46140,0.05402
3531.53266,0.05406
3529.60391,0.05364
3527.67517,0.05290
3525.74642,0.05239
3523.81768,0.05236
3521.88893,0.05257
3519.96019,0.05275
3518.03144,0.05286
3516.10270,0.05287
3514.17395,0.05271
3512.24520,0.05237
3510.31646,0.05203
3508.38771,0.05196
3506.45897,0.05217
3504.53022,0.05227
3502.60148,0.05195
3500.67273,0.05151
3498.74399,0.05148
3496.81524,0.05178
3494.88650,0.05184
3492.95775,0.05145
3491.02901,0.05103
3489.10026,0.05096
3487.17152,0.05102
3485.24277,0.05090
3483.31402,0.05072
3481.38528,0.05071
3479.45653,0.05091
3477.52779,0.05134
3475.59904,0.05159
3473.67030,0.05132
3471.74155,0.05098
3469.81281,0.05102
3467.88406,0.05112
3465.95532,0.05088
3464.02657,0.05061
3462.09783,0.05072
3460.16908,0.05089
3458.24034,0.05057
3456.31159,0.05005
3454.38285,0.04991
3452.45410,0.04986
3450.52535,0.04963
3448.59661,0.04955
3446.66786,0.04978
3444.73912,0.04996
3442.81037,0.04965
3440.88163,0.04914
3438.95288,0.04905
3437.02414,0.04927
3435.09539,0.04944
3433.16665,0.04948
3431.23790,0.04917
3429.30916,0.04871
3427.38041,0.04854
3425.45167,0.04869
3423.52292,0.04898
3421.59418,0.04914
3419.66543,0.04910
3417.73668,0.04904
3415.80794,0.04893
3413.87919,0.04879
3411.95045,0.04868
3410.02170,0.04857
3408.09296,0.04844
3406.16421,0.04843
3404.23547,0.04859
3402.30672,0.04860
3400.37798,0.04827
3398.44923,0.04802
3396.52049,0.04805
3394.59174,0.04822
3392.66300,0.04851
3390.73425,0.04886
3388.80550,0.04910
3386.87676,0.04905
3384.94801,0.04869
3383.01927,0.04847
3381.09052,0.04877
3379.16178,0.04921
3377.23303,0.04938
3375.30429,0.04920
3373.37554,0.04880
3371.44680,0.04854
3369.51805,0.04848
3367.58931,0.04856
3365.66056,0.04873
3363.73182,0.04878
3361.80307,0.04881
3359.87433,0.04911
3357.94558,0.04955
3356.01683,0.04991
3354.08809,0.05014
3352.15934,0.05011
3350.23060,0.04978
3348.30185,0.04953
3346.37311,0.04963
3344.44436,0.04976
3342.51562,0.04971
3340.58687,0.04967
3338.65813,0.04972
3336.72938,0.04961
3334.80064,0.04948
3332.87189,0.04958
3330.94315,0.04984
3329.01440,0.05008
3327.08566,0.05013
3325.15691,0.05011
3323.22816,0.05012
3321.29942,0.04990
3319.37067,0.04957
3317.44193,0.04961
3315.51318,0.05007
3313.58444,0.05057
3311.65569,0.05078
3309.72695,0.05057
3307.79820,0.05029
3305.86946,0.05037
3303.94071,0.05060
3302.01197,0.05069
3300.08322,0.05086
3298.15448,0.05118
3296.22573,0.05147
3294.29698,0.05172
3292.36824,0.05179
3290.43949,0.05162
3288.51075,0.05150
3286.58200,0.05161
3284.65326,0.05169
3282.72451,0.05161
3280.79577,0.05161
3278.86702,0.05176
3276.93828,0.05192
3275.00953,0.05189
3273.08079,0.05152
3271.15204,0.05114
3269.22330,0.05130
3267.29455,0.05174
3265.36581,0.05195
3263.43706,0.05203
3261.50831,0.05228
3259.57957,0.05263
3257.65082,0.05283
3255.72208,0.05278
3253.79333,0.05270
3251.86459,0.05290
3249.93584,0.05324
3248.00710,0.05337
3246.07835,0.05326
3244.14961,0.05305
3242.22086,0.05299
3240.29212,0.05328
3238.36337,0.05375
3236.43463,0.05405
3234.50588,0.05417
3232.57713,0.05438
3230.64839,0.05465
3228.71964,0.05477
3226.79090,0.05475
3224.86215,0.05486
3222.93341,0.05531
3221.00466,0.05581
3219.07592,0.05583
3217.14717,0.05554
3215.21843,0.05549
3213.28968,0.05574
3211.36094,0.05584
3209.43219,0.05585
3207.50345,0.05621
3205.57470,0.05674
3203.64596,0.05682
3201.71721,0.05662
3199.78846,0.05682
3197.85972,0.05738
3195.93097,0.05766
3194.00223,0.05751
3192.07348,0.05741
3190.14474,0.05759
3188.21599,0.05782
3186.28725,0.05793
3184.35850,0.05791
3182.42976,0.05794
3180.50101,0.05816
3178.57227,0.05838
3176.64352,0.05855
3174.71478,0.05884
3172.78603,0.05920
3170.85729,0.05955
3168.92854,0.05960
3166.99979,0.05935
3165.07105,0.05934
3163.14230,0.05963
3161.21356,0.05981
3159.28481,0.05985
3157.35607,0.06005
3155.42732,0.06049
3153.49858,0.06083
3151.56983,0.06085
3149.64109,0.06083
3147.71234,0.06101
3145.78360,0.06135
3143.85485,0.06167
3141.92611,0.06189
3139.99736,0.06206
3138.06861,0.06204
3136.13987,0.06180
3134.21112,0.06182
3132.28238,0.06238
3130.35363,0.06288
3128.42489,0.06293
3126.49614,0.06302
3124.56740,0.06328
3122.63865,0.06325
3120.70991,0.06305
3118.78116,0.06310
3116.85242,0.06333
3114.92367,0.06363
3112.99493,0.06403
3111.06618,0.06425
3109.13744,0.06415
3107.20869,0.06399
3105.27994,0.06400
3103.35120,0.06424
3101.42245,0.06460
3099.49371,0.06480
3097.56496,0.06472
3095.63622,0.06458
3093.70747,0.06472
3091.77873,0.06521
3089.84998,0.06568
3087.92124,0.06582
3085.99249,0.06563
3084.06375,0.06532
3082.13500,0.06521
3080.20626,0.06548
3078.27751,0.06582
3076.34877,0.06582
3074.42002,0.06569
3072.49127,0.06575
3070.56253,0.06599
3068.63378,0.06632
3066.70504,0.06660
3064.77629,0.06671
3062.84755,0.06676
3060.91880,0.06681
3058.99006,0.06670
3057.06131,0.06648
3055.13257,0.06651
3053.20382,0.06687
3051.27508,0.06727
3049.34633,0.06741
3047.41759,0.06740
3045.48884,0.06735
3043.56009,0.06728
3041.63135,0.06727
3039.70260,0.06731
3037.77386,0.06730
3035.84511,0.06734
3033.91637,0.06738
3031.98762,0.06722
3030.05888,0.06696
3028.13013,0.06699
3026.20139,0.06722
3024.27264,0.06731
3022.34390,0.06738
3020.41515,0.06762
3018.48641,0.06766
3016.55766,0.06724
3014.62892,0.06675
3012.70017,0.06657
3010.77142,0.06648
3008.84268,0.06621
3006.91393,0.06591
3004.98519,0.06582
3003.05644,0.06589
3001.12770,0.06589
2999.19895,0.06554
2997.27021,0.06482
2995.34146,0.06386
2993.41272,0.06272
2991.48397,0.06155
2989.55523,0.06048
2987.62648,0.05960
2985.69774,0.05903
2983.76899,0.05900
2981.84025,0.05925
2979.91150,0.05926
2977.98275,0.05905
2976.05401,0.05892
2974.12526,0.05895
2972.19652,0.05910
2970.26777,0.05918
2968.33903,0.05921
2966.41028,0.05940
2964.48154,0.05975
2962.55279,0.06009
2960.62405,0.06022
2958.69530,0.06008
2956.76656,0.05981
2954.83781,0.05972
2952.90907,0.05980
2950.98032,0.05979
2949.05157,0.05965
2947.12283,0.05955
2945.19408,0.05956
2943.26534,0.05973
2941.33659,0.05992
2939.40785,0.05988
2937.47910,0.05970
2935.55036,0.05961
2933.62161,0.05954
2931.69287,0.05946
2929.76412,0.05937
2927.83538,0.05935
2925.90663,0.05948
2923.97789,0.05950
2922.04914,0.05937
2920.12040,0.05952
2918.19165,0.06008
2916.26290,0.06074
2914.33416,0.06105
2912.40541,0.06099
2910.47667,0.06092
2908.54792,0.06092
2906.61918,0.06083
2904.69043,0.06082
2902.76169,0.06099
2900.83294,0.06120
2898.90420,0.06126
2896.97545,0.06110
2895.04671,0.06091
2893.11796,0.06073
2891.18922,0.06036
2889.26047,0.06000
2887.33172,0.05983
2885.40298,0.05951
2883.47423,0.05872
2881.54549,0.05770
2879.61674,0.05692
2877.68800,0.05650
2875.75925,0.05636
2873.83051,0.05656
2871.90176,0.05698
2869.97302,0.05732
2868.04427,0.05767
2866.11553,0.05815
2864.18678,0.05866
2862.25804,0.05922
2860.32929,0.05976
2858.40055,0.06019
2856.47180,0.06073
2854.54305,0.06151
2852.61431,0.06240
2850.68556,0.06325
2848.75682,0.06391
2846.82807,0.06463
2844.89933,0.06577
2842.97058,0.06721
2841.04184,0.06862
2839.11309,0.07004
2837.18435,0.07164
2835.25560,0.07325
2833.32686,0.07450
2831.39811,0.07548
2829.46937,0.07652
2827.54062,0.07761
2825.61188,0.07845
2823.68313,0.07909
2821.75438,0.07961
2819.82564,0.08011
2817.89689,0.08076
2815.96815,0.08153
2814.03940,0.08219
2812.11066,0.08263
2810.18191,0.08302
2808.25317,0.08347
2806.32442,0.08378
2804.39568,0.08396
2802.46693,0.08415
2800.53819,0.08431
2798.60944,0.08445
2796.68070,0.08480
2794.75195,0.08543
2792.82320,0.08608
2790.89446,0.08678
2788.96571,0.08760
2787.03697,0.08814
2785.10822,0.08824
2783.17948,0.08831
2781.25073,0.08853
2779.32199,0.08891
2777.39324,0.08949
2775.46450,0.09013
2773.53575,0.09060
2771.60701,0.09077
2769.67826,0.09081
2767.74952,0.09098
2765.82077,0.09120
2763.89203,0.09135
2761.96328,0.09158
2760.03453,0.09190
2758.10579,0.09214
2756.17704,0.09230
2754.24830,0.09244
2752.31955,0.09260
2750.39081,0.09297
2748.46206,0.09351
2746.53332,0.09395
2744.60457,0.09410
2742.67583,0.09399
2740.74708,0.09388
2738.81834,0.09399
2736.88959,0.09431
2734.96085,0.09466
2733.03210,0.09482
2731.10336,0.09486
2729.17461,0.09494
2727.24586,0.09507
2725.31712,0.09527
2723.38837,0.09557
2721.45963,0.09579
2719.53088,0.09594
2717.60214,0.09615
2715.67339,0.09635
2713.74465,0.09642
2711.81590,0.09637
2709.88716,0.09639
2707.95841,0.09658
2706.02967,0.09682
2704.10092,0.09700
2702.17218,0.09721
2700.24343,0.09736
2698.31468,0.09732
2696.38594,0.09723
2694.45719,0.09721
2692.52845,0.09731
2690.59970,0.09749
2688.67096,0.09770
2686.74221,0.09785
2684.81347,0.09789
2682.88472,0.09786
2680.95598,0.09792
2679.02723,0.09800
2677.09849,0.09791
2675.16974,0.09776
2673.24100,0.09769
2671.31225,0.09758
2669.38351,0.09748
2667.45476,0.09752
2665.52601,0.09743
2663.59727,0.09712
2661.66852,0.09693
2659.73978,0.09689
2657.81103,0.09676
2655.88229,0.09658
2653.95354,0.09646
2652.02480,0.09624
2650.09605,0.09573
2648.16731,0.09511
2646.23856,0.09468
2644.30982,0.09431
2642.38107,0.09366
2640.45233,0.09274
2638.52358,0.09164
2636.59484,0.09037
2634.66609,0.08898
2632.73734,0.08763
2630.80860,0.08641
2628.87985,0.08520
2626.95111,0.08391
2625.02236,0.08268
2623.09362,0.08170
2621.16487,0.08108
2619.23613,0.08052
2617.30738,0.07973
2615.37864,0.07876
2613.44989,0.07779
2611.52115,0.07688
2609.59240,0.07612
2607.66366,0.07553
2605.73491,0.07493
2603.80616,0.07423
2601.87742,0.07357
2599.94867,0.07312
2598.01993,0.07285
2596.09118,0.07271
2594.16244,0.07263
2592.23369,0.07250
2590.30495,0.07219
2588.37620,0.07180
2586.44746,0.07154
2584.51871,0.07137
2582.58997,0.07114
2580.66122,0.07094
2578.73248,0.07087
2576.80373,0.07078
2574.87499,0.07062
2572.94624,0.07038
2571.01749,0.07008
2569.08875,0.06982
2567.16000,0.06962
2565.23126,0.06946
2563.30251,0.06938
2561.37377,0.06916
2559.44502,0.06876
2557.51628,0.06831
2555.58753,0.06784
2553.65879,0.06735
2551.73004,0.06688
2549.80130,0.06645
2547.87255,0.06593
2545.94381,0.06531
2544.01506,0.06471
2542.08631,0.06404
2540.15757,0.06317
2538.22882,0.06210
2536.30008,0.06091
2534.37133,0.05962
2532.44259,0.05817
2530.51384,0.05660
2528.58510,0.05517
2526.65635,0.05404
2524.72761,0.05312
2522.79886,0.05236
2520.87012,0.05191
2518.94137,0.05179
2517.01263,0.05177
2515.08388,0.05159
2513.15514,0.05139
2511.22639,0.05162
2509.29764,0.05232
2507.36890,0.05317
2505.44015,0.05412
2503.51141,0.05546
2501.58266,0.05722
2499.65392,0.05918
2497.72517,0.06116
2495.79643,0.06311
2493.86768,0.06488
2491.93894,0.06648
2490.01019,0.06825
2488.08145,0.07026
2486.15270,0.07218
2484.22396,0.07393
2482.29521,0.07564
2480.36647,0.07733
2478.43772,0.07911
2476.50897,0.08098
2474.58023,0.08287
2472.65148,0.08469
2470.72274,0.08632
2468.79399,0.08769
2466.86525,0.08890
2464.93650,0.09008
2463.00776,0.09133
2461.07901,0.09255
2459.15027,0.09356
2457.22152,0.09442
2455.29278,0.09526
2453.36403,0.09613
2451.43529,0.09692
2449.50654,0.09752
2447.57779,0.09801
2445.64905,0.09853
2443.72030,0.09897
2441.79156,0.09914
2439.86281,0.09932
2437.93407,0.09977
2436.00532,0.10041
2434.07658,0.10087
2432.14783,0.10110
2430.21909,0.10135
2428.29034,0.10178
2426.36160,0.10238
2424.43285,0.10284
2422.50411,0.10302
2420.57536,0.10321
2418.64662,0.10350
2416.71787,0.10360
2414.78912,0.10356
2412.86038,0.10369
2410.93163,0.10397
2409.00289,0.10417
2407.07414,0.10421
2405.14540,0.10417
2403.21665,0.10418
2401.28791,0.10422
2399.35916,0.10429
2397.43042,0.10454
2395.50167,0.10485
2393.57293,0.10498
2391.64418,0.10487
2389.71544,0.10470
2387.78669,0.10466
2385.85795,0.10471
2383.92920,0.10469
2382.00045,0.10464
2380.07171,0.10471
2378.14296,0.10480
2376.21422,0.10467
2374.28547,0.10449
2372.35673,0.10448
2370.42798,0.10450
2368.49924,0.10439
2366.57049,0.10421
2364.64175,0.10407
2362.71300,0.10396
2360.78426,0.10391
2358.85551,0.10397
2356.92677,0.10411
2354.99802,0.10423
2353.06927,0.10424
2351.14053,0.10411
2349.21178,0.10388
2347.28304,0.10366
2345.35429,0.10358
2343.42555,0.10354
2341.49680,0.10337
2339.56806,0.10321
2337.63931,0.10312
2335.71057,0.10305
2333.78182,0.10310
2331.85308,0.10322
2329.92433,0.10315
2327.99559,0.10284
2326.06684,0.10252
2324.13810,0.10219
2322.20935,0.10186
2320.28060,0.10158
2318.35186,0.10138
2316.42311,0.10135
2314.49437,0.10154
2312.56562,0.10171
2310.63688,0.10172
2308.70813,0.10156
2306.77939,0.10126
2304.85064,0.10092
2302.92190,0.10070
2300.99315,0.10064
2299.06441,0.10068
2297.13566,0.10068
2295.20692,0.10057
2293.27817,0.10048
2291.34943,0.10055
2289.42068,0.10067
2287.49193,0.10058
2285.56319,0.10032
2283.63444,0.10019
2281.70570,0.10014
2279.77695,0.09997
2277.84821,0.09970
2275.91946,0.09942
2273.99072,0.09916
2272.06197,0.09891
2270.13323,0.09862
2268.20448,0.09840
2266.27574,0.09820
2264.34699,0.09795
2262.41825,0.09786
2260.48950,0.09791
2258.56075,0.09774
2256.63201,0.09729
2254.70326,0.09685
2252.77452,0.09662
2250.84577,0.09642
2248.91703,0.09605
2246.98828,0.09569
2245.05954,0.09554
2243.13079,0.09552
2241.20205,0.09550
2239.27330,0.09533
2237.34456,0.09501
2235.41581,0.09473
2233.48707,0.09451
2231.55832,0.09431
2229.62958,0.09404
2227.70083,0.09373
2225.77208,0.09355
2223.84334,0.09346
2221.91459,0.09326
2219.98585,0.09302
2218.05710,0.09291
2216.12836,0.09294
2214.19961,0.09295
2212.27087,0.09287
2210.34212,0.09272
2208.41338,0.09254
2206.48463,0.09246
2204.55589,0.09248
2202.62714,0.09246
2200.69840,0.09240
2198.76965,0.09231
2196.84090,0.09217
2194.91216,0.09201
2192.98341,0.09183
2191.05467,0.09174
2189.12592,0.09176
2187.19718,0.09174
2185.26843,0.09165
2183.33969,0.09157
2181.41094,0.09154
2179.48220,0.09155
2177.55345,0.09148
2175.62471,0.09114
2173.69596,0.09064
2171.76722,0.09023
2169.83847,0.09002
2167.90973,0.08985
2165.98098,0.08949
2164.05223,0.08906
2162.12349,0.08864
2160.19474,0.08807
2158.26600,0.08734
2156.33725,0.08657
2154.40851,0.08582
2152.47976,0.08521
2150.55102,0.08473
2148.62227,0.08433
2146.69353,0.08399
2144.76478,0.08360
2142.83604,0.08318
2140.90729,0.08298
2138.97855,0.08303
2137.04980,0.08325
2135.12106,0.08354
2133.19231,0.08380
2131.26356,0.08412
2129.33482,0.08464
2127.40607,0.08532
2125.47733,0.08605
2123.54858,0.08667
2121.61984,0.08715
2119.69109,0.08772
2117.76235,0.08838
2115.83360,0.08888
2113.90486,0.08921
2111.97611,0.08956
2110.04737,0.08988
2108.11862,0.09004
2106.18988,0.09012
2104.26113,0.09025
2102.33238,0.09035
2100.40364,0.09043
2098.47489,0.09056
2096.54615,0.09072
2094.61740,0.09087
2092.68866,0.09103
2090.75991,0.09113
2088.83117,0.09099
2086.90242,0.09068
2084.97368,0.09047
2083.04493,0.09046
2081.11619,0.09052
2079.18744,0.09046
2077.25870,0.09035
2075.32995,0.09028
2073.40121,0.09016
2071.47246,0.08991
2069.54371,0.08968
2067.61497,0.08962
2065.68622,0.08964
2063.75748,0.08955
2061.82873,0.08934
2059.89999,0.08917
2057.97124,0.08906
2056.04250,0.08894
2054.11375,0.08871
2052.18501,0.08843
2050.25626,0.08823
2048.32752,0.08808
2046.39877,0.08793
2044.47003,0.08780
2042.54128,0.08765
2040.61254,0.08739
2038.68379,0.08700
2036.75504,0.08659
2034.82630,0.08626
2032.89755,0.08598
2030.96881,0.08570
2029.04006,0.08544
2027.11132,0.08517
2025.18257,0.08489
2023.25383,0.08473
2021.32508,0.08470
2019.39634,0.08459
2017.46759,0.08431
2015.53885,0.08399
2013.61010,0.08370
2011.68136,0.08334
2009.75261,0.08294
2007.82386,0.08272
2005.89512,0.08260
2003.96637,0.08235
2002.03763,0.08200
2000.10888,0.08170
1998.18014,0.08152
1996.25139,0.08142
1994.32265,0.08127
1992.39390,0.08113
1990.46516,0.08109
1988.53641,0.08105
1986.60767,0.08097
1984.67892,0.08093
1982.75018,0.08083
1980.82143,0.08063
1978.89269,0.08044
1976.96394,0.08029
1975.03519,0.08012
1973.10645,0.07990
1971.17770,0.07964
1969.24896,0.07940
1967.32021,0.07917
1965.39147,0.07884
1963.46272,0.07823
1961.53398,0.07756
1959.60523,0.07736
1957.67649,0.07779
1955.74774,0.07835
1953.81900,0.07862
1951.89025,0.07871
1949.96151,0.07884
1948.03276,0.07884
1946.10402,0.07850
1944.17527,0.07816
1942.24652,0.07812
1940.31778,0.07816
1938.38903,0.07801
1936.46029,0.07768
1934.53154,0.07742
1932.60280,0.07724
1930.67405,0.07700
1928.74531,0.07690
1926.81656,0.07701
1924.88782,0.07701
1922.95907,0.07668
1921.03033,0.07628
1919.10158,0.07597
1917.17284,0.07560
1915.24409,0.07522
1913.31534,0.07496
1911.38660,0.07471
1909.45785,0.07420
1907.52911,0.07343
1905.60036,0.07273
1903.67162,0.07227
1901.74287,0.07190
1899.81413,0.07148
1897.88538,0.07101
1895.95664,0.07055
1894.02789,0.07018
1892.09915,0.06985
1890.17040,0.06959
1888.24166,0.06940
1886.31291,0.06923
1884.38417,0.06903
1882.45542,0.06868
1880.52667,0.06815
1878.59793,0.06766
1876.66918,0.06731
1874.74044,0.06691
1872.81169,0.06651
1870.88295,0.06628
1868.95420,0.06616
1867.02546,0.06597
1865.09671,0.06568
1863.16797,0.06540
1861.23922,0.06524
1859.31048,0.06520
1857.38173,0.06515
1855.45299,0.06503
1853.52424,0.06489
1851.59549,0.06476
1849.66675,0.06464
1847.73800,0.06442
1845.80926,0.06395
1843.88051,0.06340
1841.95177,0.06302
1840.02302,0.06266
1838.09428,0.06209
1836.16553,0.06134
1834.23679,0.06050
1832.30804,0.05970
1830.37930,0.05885
1828.45055,0.05785
1826.52181,0.05681
1824.59306,0.05583
1822.66432,0.05494
1820.73557,0.05410
1818.80682,0.05329
1816.87808,0.05244
1814.94933,0.05133
1813.02059,0.04994
1811.09184,0.04841
1809.16310,0.04675
1807.23435,0.04467
1805.30561,0.04204
1803.37686,0.03925
1801.44812,0.03681
1799.51937,0.03507
1797.59063,0.03417
1795.66188,0.03400
1793.73314,0.03442
1791.80439,0.03541
1789.87565,0.03696
1787.94690,0.03889
1786.01815,0.04091
1784.08941,0.04272
1782.16066,0.04418
1780.23192,0.04538
1778.30317,0.04636
1776.37443,0.04709
1774.44568,0.04763
1772.51694,0.04795
1770.58819,0.04799
1768.65945,0.04787
1766.73070,0.04768
1764.80196,0.04744
1762.87321,0.04715
1760.94447,0.04684
1759.01572,0.04651
1757.08697,0.04624
1755.15823,0.04604
1753.22948,0.04569
1751.30074,0.04512
1749.37199,0.04460
1747.44325,0.04425
1745.51450,0.04389
1743.58576,0.04345
1741.65701,0.04305
1739.72827,0.04285
1737.79952,0.04284
1735.87078,0.04279
1733.94203,0.04268
1732.01329,0.04267
1730.08454,0.04270
1728.15580,0.04263
1726.22705,0.04247
1724.29830,0.04232
1722.36956,0.04223
1720.44081,0.04207
1718.51207,0.04180
1716.58332,0.04148
1714.65458,0.04118
1712.72583,0.04090
1710.79709,0.04066
1708.86834,0.04050
1706.93960,0.04032
1705.01085,0.04004
1703.08211,0.03974
1701.15336,0.03942
1699.22462,0.03907
1697.29587,0.03867
1695.36713,0.03806
1693.43838,0.03742
1691.50963,0.03684
1689.58089,0.03621
1687.65214,0.03567
1685.72340,0.03544
1683.79465,0.03534
1681.86591,0.03517
1679.93716,0.03493
1678.00842,0.03473
1676.07967,0.03453
1674.15093,0.03432
1672.22218,0.03420
1670.29344,0.03411
1668.36469,0.03396
1666.43595,0.03384
1664.50720,0.03376
1662.57845,0.03368
1660.64971,0.03362
1658.72096,0.03358
1656.79222,0.03352
1654.86347,0.03345
1652.93473,0.03336
1651.00598,0.03341
1649.07724,0.03351
1647.14849,0.03347
1645.21975,0.03337
1643.29100,0.03333
1641.36226,0.03326
1639.43351,0.03326
1637.50477,0.03342
1635.57602,0.03350
1633.64728,0.03358
1631.71853,0.03380
1629.78978,0.03390
1627.86104,0.03385
1625.93229,0.03401
1624.00355,0.03449
1622.07480,0.03492
1620.14606,0.03530
1618.21731,0.03594
1616.28857,0.03673
1614.35982,0.03737
1612.43108,0.03788
1610.50233,0.03827
1608.57359,0.03866
1606.64484,0.03925
1604.71610,0.03995
1602.78735,0.04044
1600.85861,0.04066
1598.92986,0.04090
1597.00111,0.04135
1595.07237,0.04189
1593.14362,0.04235
1591.21488,0.04283
1589.28613,0.04350
1587.35739,0.04443
1585.42864,0.04557
1583.49990,0.04686
1581.57115,0.04832
1579.64241,0.04999
1577.71366,0.05205
1575.78492,0.05454
1573.85617,0.05684
1571.92743,0.05875
1569.99868,0.06063
1568.06993,0.06247
1566.14119,0.06429
1564.21244,0.06615
1562.28370,0.06792
1560.35495,0.06977
1558.42621,0.07188
1556.49746,0.07389
1554.56872,0.07583
1552.63997,0.07780
1550.71123,0.07957
1548.78248,0.08116
1546.85374,0.08261
1544.92499,0.08380
1542.99625,0.08483
1541.06750,0.08603
1539.13876,0.08737
1537.21001,0.08846
1535.28126,0.08929
1533.35252,0.08992
1531.42377,0.09038
1529.49503,0.09076
1527.56628,0.09115
1525.63754,0.09150
1523.70879,0.09169
1521.78005,0.09154
1519.85130,0.09112
1517.92256,0.09081
1515.99381,0.09074
1514.06507,0.09078
1512.13632,0.09081
1510.20758,0.09079
1508.27883,0.09069
1506.35008,0.09046
1504.42134,0.09031
1502.49259,0.09031
1500.56385,0.09029
1498.63510,0.09018
1496.70636,0.09012
1494.77761,0.09021
1492.84887,0.09033
1490.92012,0.09029
1488.99138,0.09012
1487.06263,0.08999
1485.13389,0.08990
1483.20514,0.08974
1481.27640,0.08947
1479.34765,0.08920
1477.41891,0.08914
1475.49016,0.08919
1473.56141,0.08914
1471.63267,0.08902
1469.70392,0.08885
1467.77518,0.08864
1465.84643,0.08847
1463.91769,0.08838
1461.98894,0.08837
1460.06020,0.08837
1458.13145,0.08836
1456.20271,0.08840
1454.27396,0.08841
1452.34522,0.08829
1450.41647,0.08816
1448.48773,0.08813
1446.55898,0.08811
1444.63024,0.08802
1442.70149,0.08802
1440.77274,0.08820
1438.84400,0.08849
1436.91525,0.08876
1434.98651,0.08907
1433.05776,0.08959
1431.12902,0.09037
1429.20027,0.09127
1427.27153,0.09215
1425.34278,0.09303
1423.41404,0.09405
1421.48529,0.09531
1419.55655,0.09671
1417.62780,0.09815
1415.69906,0.09962
1413.77031,0.10095
1411.84156,0.10196
1409.91282,0.10257
1407.98407,0.10247
1406.05533,0.10139
1404.12658,0.09947
1402.19784,0.09730
1400.26909,0.09549
1398.34035,0.09424
1396.41160,0.09319
1394.48286,0.09194
1392.55411,0.09055
1390.62537,0.08931
1388.69662,0.08819
1386.76788,0.08703
1384.83913,0.08592
1382.91039,0.08504
1380.98164,0.08432
1379.05289,0.08352
1377.12415,0.08264
1375.19540,0.08204
1373.26666,0.08185
1371.33791,0.08182
1369.40917,0.08183
1367.48042,0.08205
1365.55168,0.08242
1363.62293,0.08273
1361.69419,0.08307
1359.76544,0.08350
1357.83670,0.08379
1355.90795,0.08397
1353.97921,0.08414
1352.05046,0.08424
1350.12172,0.08433
1348.19297,0.08447
1346.26422,0.08449
1344.33548,0.08437
1342.40673,0.08433
1340.47799,0.08440
1338.54924,0.08447
1336.62050,0.08443
1334.69175,0.08441
1332.76301,0.08452
1330.83426,0.08454
1328.90552,0.08422
1326.97677,0.08376
1325.04803,0.08342
1323.11928,0.08319
1321.19054,0.08304
1319.26179,0.08292
1317.33304,0.08275
1315.40430,0.08280
1313.47555,0.08323
1311.54681,0.08381
1309.61806,0.08426
1307.68932,0.08463
1305.76057,0.08505
1303.83183,0.08552
1301.90308,0.08595
1299.97434,0.08630
1298.04559,0.08664
1296.11685,0.08695
1294.18810,0.08695
1292.25936,0.08665
1290.33061,0.08649
1288.40187,0.08646
1286.47312,0.08621
1284.54437,0.08583
1282.61563,0.08563
1280.68688,0.08561
1278.75814,0.08559
1276.82939,0.08553
1274.90065,0.08555
1272.97190,0.08560
1271.04316,0.08538
1269.11441,0.08482
1267.18567,0.08435
1265.25692,0.08423
1263.32818,0.08414
1261.39943,0.08399
1259.47069,0.08400
1257.54194,0.08403
1255.61320,0.08388
1253.68445,0.08369
1251.75570,0.08354
1249.82696,0.08327
1247.89821,0.08268
1245.96947,0.08198
1244.04072,0.08157
1242.11198,0.08139
1240.18323,0.08111
1238.25449,0.08074
1236.32574,0.08053
1234.39700,0.08030
1232.46825,0.07977
1230.53951,0.07910
1228.61076,0.07853
1226.68202,0.07816
1224.75327,0.07792
1222.82452,0.07761
1220.89578,0.07708
1218.96703,0.07643
1217.03829,0.07579
1215.10954,0.07511
1213.18080,0.07426
1211.25205,0.07321
1209.32331,0.07218
1207.39456,0.07132
1205.46582,0.07055
1203.53707,0.06983
1201.60833,0.06930
1199.67958,0.06880
1197.75084,0.06792
1195.82209,0.06672
1193.89335,0.06566
1191.96460,0.06496
1190.03585,0.06457
1188.10711,0.06426
1186.17836,0.06386
1184.24962,0.06347
1182.32087,0.06309
1180.39213,0.06255
1178.46338,0.06193
1176.53464,0.06136
1174.60589,0.06086
1172.67715,0.06054
1170.74840,0.06035
1168.81966,0.06008
1166.89091,0.05973
1164.96217,0.05947
1163.03342,0.05937
1161.10467,0.05946
1159.17593,0.05978
1157.24718,0.06013
1155.31844,0.06039
1153.38969,0.06061
1151.46095,0.06069
1149.53220,0.06051
1147.60346,0.06043
1145.67471,0.06074
1143.74597,0.06108
1141.81722,0.06124
1139.88848,0.06128
1137.95973,0.06110
1136.03099,0.06073
1134.10224,0.06036
1132.17350,0.06027
1130.24475,0.06053
1128.31600,0.06055
1126.38726,0.06000
1124.45851,0.05941
1122.52977,0.05903
1120.60102,0.05857
1118.67228,0.05807
1116.74353,0.05766
1114.81479,0.05722
1112.88604,0.05663
1110.95730,0.05593
1109.02855,0.05522
1107.09981,0.05465
1105.17106,0.05420
1103.24232,0.05383
1101.31357,0.05340
1099.38483,0.05271
1097.45608,0.05200
1095.52733,0.05175
1093.59859,0.05187
1091.66984,0.05190
1089.74110,0.05158
1087.81235,0.05113
1085.88361,0.05085
1083.95486,0.05071
1082.02612,0.05063
1080.09737,0.05085
1078.16863,0.05134
1076.23988,0.05159
1074.31114,0.05145
1072.38239,0.05113
1070.45365,0.05067
1068.52490,0.05017
1066.59615,0.04980
1064.66741,0.04943
1062.73866,0.04873
1060.80992,0.04799
1058.88117,0.04774
1056.95243,0.04784
1055.02368,0.04789
1053.09494,0.04795
1051.16619,0.04810
1049.23745,0.04799
1047.30870,0.04750
1045.37996,0.04698
1043.45121,0.04681
1041.52247,0.04703
1039.59372,0.04724
1037.66498,0.04716
1035.73623,0.04694
1033.80748,0.04679
1031.87874,0.04673
1029.94999,0.04667
1028.02125,0.04664
1026.09250,0.04644
1024.16376,0.04589
1022.23501,0.04551
1020.30627,0.04565
1018.37752,0.04587
1016.44878,0.04598
1014.52003,0.04604
1012.59129,0.04599
1010.66254,0.04592
1008.73380,0.04603
1006.80505,0.04633
1004.87631,0.04655
1002.94756,0.04641
1001.01881,0.04618
999.09007,0.04623
997.16132,0.04633
995.23258,0.04619
993.30383,0.04598
991.37509,0.04584
989.44634,0.04578
987.51760,0.04579
985.58885,0.04586
983.66011,0.04589
981.73136,0.04579
979.80262,0.04563
977.87387,0.04560
975.94513,0.04574
974.01638,0.04586
972.08763,0.04581
970.15889,0.04567
968.23014,0.04564
966.30140,0.04567
964.37265,0.04570
962.44391,0.04586
960.51516,0.04612
958.58642,0.04624
956.65767,0.04630
954.72893,0.04639
952.80018,0.04631
950.87144,0.04606
948.94269,0.04580
947.01395,0.04577
945.08520,0.04622
943.15646,0.04685
941.22771,0.04707
939.29896,0.04673
937.37022,0.04621
935.44147,0.04602
933.51273,0.04624
931.58398,0.04651
929.65524,0.04655
927.72649,0.04634
925.79775,0.04616
923.86900,0.04619
921.94026,0.04615
920.01151,0.04583
918.08277,0.04543
916.15402,0.04521
914.22528,0.04524
912.29653,0.04545
910.36779,0.04551
908.43904,0.04531
906.51029,0.04528
904.58155,0.04564
902.65280,0.04616
900.72406,0.04680
898.79531,0.04764
896.86657,0.04851
894.93782,0.04942
893.00908,0.05049
891.08033,0.05125
889.15159,0.05083
887.22284,0.04890
885.29410,0.04617
883.36535,0.04441
881.43661,0.04509
879.50786,0.04780
877.57911,0.05124
875.65037,0.05509
873.72162,0.05942
871.79288,0.06292
869.86413,0.06368
867.93539,0.06165
866.00664,0.05870
864.07790,0.05624
862.14915,0.05433
860.22041,0.05282
858.29166,0.05168
856.36292,0.05073
854.43417,0.04974
852.50543,0.04863
850.57668,0.04739
848.64794,0.04654
846.71919,0.04659
844.79044,0.04700
842.86170,0.04719
840.93295,0.04713
839.00421,0.04689
837.07546,0.04673
835.14672,0.04659
833.21797,0.04611
831.28923,0.04532
829.36048,0.04469
827.43174,0.04455
825.50299,0.04460
823.57425,0.04444
821.64550,0.04434
819.71676,0.04452
817.78801,0.04461
815.85926,0.04440
813.93052,0.04420
812.00177,0.04419
810.07303,0.04427
808.14428,0.04430
806.21554,0.04411
804.28679,0.04357
802.35805,0.04303
800.42930,0.04286
798.50056,0.04294
796.57181,0.04302
794.64307,0.04306
792.71432,0.04296
790.78558,0.04268
788.85683,0.04246
786.92809,0.04244
784.99934,0.04258
783.07059,0.04265
781.14185,0.04234
779.21310,0.04199
777.28436,0.04204
775.35561,0.04211
773.42687,0.04197
771.49812,0.04197
769.56938,0.04212
767.64063,0.04208
765.71189,0.04183
763.78314,0.04165
761.85440,0.04151
759.92565,0.04107
757.99691,0.04060
756.06816,0.04055
754.13942,0.04068
752.21067,0.04073
750.28192,0.04081
748.35318,0.04076
746.42443,0.04039
744.49569,0.03994
742.56694,0.03947
740.63820,0.03892
738.70945,0.03854
736.78071,0.03821
734.85196,0.03765
732.92322,0.03720
730.99447,0.03703
729.06573,0.03699
727.13698,0.03707
725.20824,0.03687
723.27949,0.03595
721.35074,0.03460
719.42200,0.03314
717.49325,0.03192
715.56451,0.03215
713.63576,0.03443
711.70702,0.03752
709.77827,0.03984
707.84953,0.04085
705.92078,0.04095
703.99204,0.04076
702.06329,0.04059
700.13455,0.04018
698.20580,0.03955
696.27706,0.03933
694.34831,0.03957
692.41957,0.03963
690.49082,0.03928
688.56207,0.03908
686.63333,0.03932
684.70458,0.03915
682.77584,0.03832
680.84709,0.03775
678.91835,0.03794
676.98960,0.03815
675.06086,0.03769
673.13211,0.03734
671.20337,0.03771
669.27462,0.03814
667.34588,0.03823
665.41713,0.03808
663.48839,0.03773
661.55964,0.03747
659.63090,0.03730
657.70215,0.03700
655.77340,0.03699
653.84466,0.03701
651.91591,0.03636
649.98717,0.03568
648.05842,0.03536
646.12968,0.03492
644.20093,0.03480
642.27219,0.03535
640.34344,0.03568
638.41470,0.03536
636.48595,0.03481
634.55721,0.03421
632.62846,0.03366
630.69972,0.03370
628.77097,0.03449
626.84222,0.03492
624.91348,0.03408
622.98473,0.03305
621.05599,0.03313
619.12724,0.03374
617.19850,0.03387
615.26975,0.03376
613.34101,0.03396
611.41226,0.03453
609.48352,0.03509
607.55477,0.03463
605.62603,0.03331
603.69728,0.03282
601.76854,0.03384
599.83979,0.03508
