7497.03301,0.19740
7495.10426,0.19548
7493.17552,0.19292
7491.24677,0.18980
7489.31803,0.18841
7487.38928,0.19135
7485.46054,0.19457
7483.53179,0.19222
7481.60305,0.18665
7479.67430,0.18398
7477.74556,0.18584
7475.81681,0.19149
7473.88807,0.19708
7471.95932,0.19718
7470.03057,0.19334
7468.10183,0.19192
7466.17308,0.19498
7464.24434,0.19941
7462.31559,0.20245
7460.38685,0.20395
7458.45810,0.20315
7456.52936,0.20092
7454.60061,0.20100
7452.67187,0.20220
7450.74312,0.19887
7448.81438,0.19181
7446.88563,0.18751
7444.95689,0.18927
7443.02814,0.19324
7441.09940,0.19599
7439.17065,0.19916
7437.24190,0.20084
7435.31316,0.19621
7433.38441,0.18801
7431.45567,0.18471
7429.52692,0.18861
7427.59818,0.19325
7425.66943,0.19441
7423.74069,0.19312
7421.81194,0.19223
7419.88320,0.19328
7417.95445,0.19528
7416.02571,0.19784
7414.09696,0.20012
7412.16822,0.20060
7410.23947,0.20022
7408.31073,0.19943
7406.38198,0.19533
7404.45323,0.18869
7402.52449,0.18583
7400.59574,0.18819
7398.66700,0.19247
7396.73825,0.19537
7394.80951,0.19412
7392.88076,0.18983
7390.95202,0.18740
7389.02327,0.18987
7387.09453,0.19408
7385.16578,0.19531
7383.23704,0.19397
7381.30829,0.19201
7379.37955,0.19065
7377.45080,0.19196
7375.52205,0.19377
7373.59331,0.19264
7371.66456,0.19062
7369.73582,0.18999
7367.80707,0.19039
7365.87833,0.19124
7363.94958,0.19238
7362.02084,0.19371
7360.09209,0.19526
7358.16335,0.19666
7356.23460,0.19597
7354.30586,0.19323
7352.37711,0.19110
7350.44837,0.19018
7348.51962,0.18968
7346.59088,0.18894
7344.66213,0.19028
7342.73338,0.19458
7340.80464,0.19664
7338.87589,0.19583
7336.94715,0.19508
7335.01840,0.19259
7333.08966,0.18882
7331.16091,0.18651
7329.23217,0.18647
7327.30342,0.19021
7325.37468,0.19577
7323.44593,0.19703
7321.51719,0.19306
7319.58844,0.18935
7317.65970,0.19067
7315.73095,0.19530
7313.80221,0.19807
7311.87346,0.19771
7309.94471,0.19662
7308.01597,0.19606
7306.08722,0.19666
7304.15848,0.19829
7302.22973,0.19862
7300.30099,0.19718
7298.37224,0.19644
7296.44350,0.19684
7294.51475,0.19700
7292.58601,0.19746
7290.65726,0.19860
7288.72852,0.19838
7286.79977,0.19694
7284.87103,0.19633
7282.94228,0.19609
7281.01353,0.19378
7279.08479,0.19041
7277.15604,0.19081
7275.22730,0.19419
7273.29855,0.19572
7271.36981,0.19662
7269.44106,0.19871
7267.51232,0.19990
7265.58357,0.19909
7263.65483,0.19716
7261.72608,0.19576
7259.79734,0.19644
7257.86859,0.19813
7255.93985,0.19882
7254.01110,0.19607
7252.08236,0.19064
7250.15361,0.18859
7248.22486,0.19138
7246.29612,0.19422
7244.36737,0.19454
7242.43863,0.19286
7240.50988,0.19086
7238.58114,0.18821
7236.65239,0.18541
7234.72365,0.18612
7232.79490,0.18966
7230.86616,0.19202
7228.93741,0.19260
7227.00867,0.19293
7225.07992,0.19319
7223.15118,0.19214
7221.22243,0.19070
7219.29369,0.19055
7217.36494,0.19216
7215.43619,0.19494
7213.50745,0.19747
7211.57870,0.19962
7209.64996,0.20036
7207.72121,0.19710
7205.79247,0.19290
7203.86372,0.19222
7201.93498,0.19215
7200.00623,0.18886
7198.07749,0.18430
7196.14874,0.18203
7194.22000,0.18515
7192.29125,0.19312
7190.36251,0.19929
7188.43376,0.19859
7186.50501,0.19388
7184.57627,0.19161
7182.64752,0.19334
7180.71878,0.19565
7178.79003,0.19748
7176.86129,0.19799
7174.93254,0.19542
7173.00380,0.19317
7171.07505,0.19354
7169.14631,0.19286
7167.21756,0.19020
7165.28882,0.18860
7163.36007,0.18955
7161.43133,0.19161
7159.50258,0.19370
7157.57384,0.19628
7155.64509,0.19834
7153.71634,0.19834
7151.78760,0.19640
7149.85885,0.19331
7147.93011,0.19195
7146.00136,0.19301
7144.07262,0.19301
7142.14387,0.19228
7140.21513,0.19378
7138.28638,0.19556
7136.35764,0.19534
7134.42889,0.19414
7132.50015,0.19251
7130.57140,0.19232
7128.64266,0.19560
7126.71391,0.19914
7124.78516,0.19927
7122.85642,0.19767
7120.92767,0.19669
7118.99893,0.19635
7117.07018,0.19720
7115.14144,0.19828
7113.21269,0.19633
7111.28395,0.19125
7109.35520,0.18755
7107.42646,0.18865
7105.49771,0.19231
7103.56897,0.19462
7101.64022,0.19446
7099.71148,0.19228
7097.78273,0.19123
7095.85399,0.19270
7093.92524,0.19369
7091.99649,0.19344
7090.06775,0.19193
7088.13900,0.18987
7086.21026,0.19010
7084.28151,0.19175
7082.35277,0.19328
7080.42402,0.19479
7078.49528,0.19580
7076.56653,0.19676
7074.63779,0.19821
7072.70904,0.20016
7070.78030,0.20078
7068.85155,0.19782
7066.92281,0.19431
7064.99406,0.19370
7063.06532,0.19299
7061.13657,0.18994
7059.20782,0.18822
7057.27908,0.18918
7055.35033,0.18973
7053.42159,0.18907
7051.49284,0.18894
7049.56410,0.18972
7047.63535,0.19123
7045.70661,0.19420
7043.77786,0.19692
7041.84912,0.19657
7039.92037,0.19405
7037.99163,0.19167
7036.06288,0.19117
7034.13414,0.19204
7032.20539,0.19278
7030.27664,0.19427
7028.34790,0.19620
7026.41915,0.19801
7024.49041,0.20070
7022.56166,0.20147
7020.63292,0.19737
7018.70417,0.19214
7016.77543,0.19101
7014.84668,0.19273
7012.91794,0.19285
7010.98919,0.19170
7009.06045,0.19100
7007.13170,0.19061
7005.20296,0.19145
7003.27421,0.19379
7001.34547,0.19625
6999.41672,0.19777
6997.48797,0.19802
6995.55923,0.19634
6993.63048,0.19247
6991.70174,0.18961
6989.77299,0.19105
6987.84425,0.19513
6985.91550,0.19800
6983.98676,0.19800
6982.05801,0.19742
6980.12927,0.19738
6978.20052,0.19629
6976.27178,0.19516
6974.34303,0.19504
6972.41429,0.19575
6970.48554,0.19742
6968.55680,0.19900
6966.62805,0.19910
6964.69930,0.19525
6962.77056,0.18802
6960.84181,0.18386
6958.91307,0.18593
6956.98432,0.19072
6955.05558,0.19405
6953.12683,0.19381
6951.19809,0.19140
6949.26934,0.19137
6947.34060,0.19482
6945.41185,0.19765
6943.48311,0.19748
6941.55436,0.19615
6939.62562,0.19521
6937.69687,0.19480
6935.76812,0.19522
6933.83938,0.19434
6931.91063,0.19143
6929.98189,0.19030
6928.05314,0.19214
6926.12440,0.19509
6924.19565,0.19756
6922.26691,0.19855
6920.33816,0.19762
6918.40942,0.19452
6916.48067,0.19176
6914.55193,0.19162
6912.62318,0.19259
6910.69444,0.19264
6908.76569,0.19162
6906.83695,0.19126
6904.90820,0.19261
6902.97945,0.19365
6901.05071,0.19315
6899.12196,0.19377
6897.19322,0.19571
6895.26447,0.19495
6893.33573,0.19256
6891.40698,0.19238
6889.47824,0.19371
6887.54949,0.19479
6885.62075,0.19467
6883.69200,0.19318
6881.76326,0.19304
6879.83451,0.19502
6877.90577,0.19495
6875.97702,0.19246
6874.04828,0.19137
6872.11953,0.19167
6870.19078,0.19141
6868.26204,0.19004
6866.33329,0.19010
6864.40455,0.19348
6862.47580,0.19625
6860.54706,0.19555
6858.61831,0.19343
6856.68957,0.19269
6854.76082,0.19462
6852.83208,0.19664
6850.90333,0.19496
6848.97459,0.19045
6847.04584,0.18843
6845.11710,0.19147
6843.18835,0.19475
6841.25960,0.19381
6839.33086,0.19175
6837.40211,0.19205
6835.47337,0.19341
6833.54462,0.19516
6831.61588,0.19754
6829.68713,0.19913
6827.75839,0.20002
6825.82964,0.20097
6823.90090,0.20016
6821.97215,0.19691
6820.04341,0.19359
6818.11466,0.19241
6816.18592,0.19369
6814.25717,0.19424
6812.32843,0.19179
6810.39968,0.18962
6808.47093,0.19089
6806.54219,0.19470
6804.61344,0.19847
6802.68470,0.19935
6800.75595,0.19679
6798.82721,0.19360
6796.89846,0.19221
6794.96972,0.19227
6793.04097,0.19355
6791.11223,0.19562
6789.18348,0.19582
6787.25474,0.19347
6785.32599,0.19223
6783.39725,0.19352
6781.46850,0.19416
6779.53975,0.19382
6777.61101,0.19476
6775.68226,0.19638
6773.75352,0.19747
6771.82477,0.19789
6769.89603,0.19754
6767.96728,0.19583
6766.03854,0.19221
6764.10979,0.18872
6762.18105,0.18855
6760.25230,0.19081
6758.32356,0.19203
6756.39481,0.19212
6754.46607,0.19282
6752.53732,0.19372
6750.60858,0.19416
6748.67983,0.19438
6746.75108,0.19508
6744.82234,0.19669
6742.89359,0.19835
6740.96485,0.19847
6739.03610,0.19647
6737.10736,0.19352
6735.17861,0.19255
6733.24987,0.19524
6731.32112,0.19849
6729.39238,0.19919
6727.46363,0.19759
6725.53489,0.19361
6723.60614,0.18983
6721.67740,0.19137
6719.74865,0.19651
6717.81991,0.19871
6715.89116,0.19675
6713.96241,0.19426
6712.03367,0.19282
6710.10492,0.19112
6708.17618,0.18996
6706.24743,0.19123
6704.31869,0.19391
6702.38994,0.19622
6700.46120,0.19786
6698.53245,0.19849
6696.60371,0.19840
6694.67496,0.19837
6692.74622,0.19810
6690.81747,0.19804
6688.88873,0.19881
6686.95998,0.19932
6685.03123,0.19881
6683.10249,0.19790
6681.17374,0.19766
6679.24500,0.19755
6677.31625,0.19646
6675.38751,0.19539
6673.45876,0.19535
6671.53002,0.19636
6669.60127,0.19840
6667.67253,0.19980
6665.74378,0.19944
6663.81504,0.19904
6661.88629,0.19868
6659.95755,0.19698
6658.02880,0.19567
6656.10006,0.19561
6654.17131,0.19516
6652.24256,0.19463
6650.31382,0.19549
6648.38507,0.19674
6646.45633,0.19627
6644.52758,0.19466
6642.59884,0.19434
6640.67009,0.19592
6638.74135,0.19823
6636.81260,0.19900
6634.88386,0.19617
6632.95511,0.19183
6631.02637,0.19062
6629.09762,0.19244
6627.16888,0.19445
6625.24013,0.19588
6623.31139,0.19642
6621.38264,0.19614
6619.45389,0.19495
6617.52515,0.19310
6615.59640,0.19306
6613.66766,0.19476
6611.73891,0.19546
6609.81017,0.19487
6607.88142,0.19405
6605.95268,0.19346
6604.02393,0.19399
6602.09519,0.19550
6600.16644,0.19592
6598.23770,0.19449
6596.30895,0.19340
6594.38021,0.19414
6592.45146,0.19578
6590.52271,0.19710
6588.59397,0.19766
6586.66522,0.19810
6584.73648,0.19930
6582.80773,0.19992
6580.87899,0.19874
6578.95024,0.19727
6577.02150,0.19657
6575.09275,0.19636
6573.16401,0.19565
6571.23526,0.19415
6569.30652,0.19398
6567.37777,0.19458
6565.44903,0.19308
6563.52028,0.19134
6561.59154,0.19216
6559.66279,0.19359
6557.73404,0.19293
6555.80530,0.19171
6553.87655,0.19251
6551.94781,0.19415
6550.01906,0.19530
6548.09032,0.19770
6546.16157,0.20020
6544.23283,0.19932
6542.30408,0.19653
6540.37534,0.19455
6538.44659,0.19341
6536.51785,0.19370
6534.58910,0.19545
6532.66036,0.19672
6530.73161,0.19692
6528.80287,0.19763
6526.87412,0.19874
6524.94537,0.19876
6523.01663,0.19833
6521.08788,0.19802
6519.15914,0.19711
6517.23039,0.19588
6515.30165,0.19524
6513.37290,0.19528
6511.44416,0.19522
6509.51541,0.19460
6507.58667,0.19423
6505.65792,0.19503
6503.72918,0.19606
6501.80043,0.19617
6499.87169,0.19650
6497.94294,0.19689
6496.01419,0.19589
6494.08545,0.19501
6492.15670,0.19602
6490.22796,0.19692
6488.29921,0.19578
6486.37047,0.19509
6484.44172,0.19639
6482.51298,0.19695
6480.58423,0.19553
6478.65549,0.19347
6476.72674,0.19193
6474.79800,0.19143
6472.86925,0.19135
6470.94051,0.19178
6469.01176,0.19333
6467.08302,0.19451
6465.15427,0.19478
6463.22552,0.19620
6461.29678,0.19822
6459.36803,0.19811
6457.43929,0.19658
6455.51054,0.19640
6453.58180,0.19786
6451.65305,0.19845
6449.72431,0.19714
6447.79556,0.19532
6445.86682,0.19324
6443.93807,0.19116
6442.00933,0.19099
6440.08058,0.19359
6438.15184,0.19755
6436.22309,0.19983
6434.29434,0.19889
6432.36560,0.19744
6430.43685,0.19796
6428.50811,0.19885
6426.57936,0.19855
6424.65062,0.19794
6422.72187,0.19810
6420.79313,0.19847
6418.86438,0.19700
6416.93564,0.19435
6415.00689,0.19341
6413.07815,0.19488
6411.14940,0.19776
6409.22066,0.19981
6407.29191,0.20001
6405.36317,0.19980
6403.43442,0.19909
6401.50567,0.19761
6399.57693,0.19638
6397.64818,0.19502
6395.71944,0.19375
6393.79069,0.19409
6391.86195,0.19568
6389.93320,0.19672
6388.00446,0.19629
6386.07571,0.19511
6384.14697,0.19428
6382.21822,0.19392
6380.28948,0.19351
6378.36073,0.19263
6376.43199,0.19193
6374.50324,0.19245
6372.57450,0.19408
6370.64575,0.19624
6368.71700,0.19811
6366.78826,0.19827
6364.85951,0.19653
6362.93077,0.19515
6361.00202,0.19495
6359.07328,0.19550
6357.14453,0.19744
6355.21579,0.19836
6353.28704,0.19694
6351.35830,0.19715
6349.42955,0.19932
6347.50081,0.19920
6345.57206,0.19676
6343.64332,0.19582
6341.71457,0.19660
6339.78582,0.19613
6337.85708,0.19437
6335.92833,0.19339
6333.99959,0.19336
6332.07084,0.19331
6330.14210,0.19414
6328.21335,0.19649
6326.28461,0.19847
6324.35586,0.19902
6322.42712,0.19907
6320.49837,0.19877
6318.56963,0.19768
6316.64088,0.19643
6314.71214,0.19606
6312.78339,0.19690
6310.85465,0.19775
6308.92590,0.19725
6306.99715,0.19639
6305.06841,0.19593
6303.13966,0.19577
6301.21092,0.19595
6299.28217,0.19555
6297.35343,0.19543
6295.42468,0.19664
6293.49594,0.19768
6291.56719,0.19757
6289.63845,0.19642
6287.70970,0.19471
6285.78096,0.19359
6283.85221,0.19389
6281.92347,0.19501
6279.99472,0.19513
6278.06598,0.19448
6276.13723,0.19528
6274.20848,0.19669
6272.27974,0.19671
6270.35099,0.19701
6268.42225,0.19873
6266.49350,0.19971
6264.56476,0.19928
6262.63601,0.19883
6260.70727,0.19864
6258.77852,0.19859
6256.84978,0.19920
6254.92103,0.19954
6252.99229,0.19891
6251.06354,0.19821
6249.13480,0.19730
6247.20605,0.19628
6245.27730,0.19589
6243.34856,0.19593
6241.41981,0.19622
6239.49107,0.19686
6237.56232,0.19835
6235.63358,0.19998
6233.70483,0.19956
6231.77609,0.19780
6229.84734,0.19688
6227.91860,0.19653
6225.98985,0.19620
6224.06111,0.19593
6222.13236,0.19590
6220.20362,0.19678
6218.27487,0.19812
6216.34613,0.19998
6214.41738,0.20257
6212.48863,0.20334
6210.55989,0.20139
6208.63114,0.19911
6206.70240,0.19778
6204.77365,0.19733
6202.84491,0.19669
6200.91616,0.19496
6198.98742,0.19428
6197.05867,0.19604
6195.12993,0.19743
6193.20118,0.19686
6191.27244,0.19645
6189.34369,0.19717
6187.41495,0.19716
6185.48620,0.19605
6183.55746,0.19531
6181.62871,0.19477
6179.69996,0.19391
6177.77122,0.19358
6175.84247,0.19483
6173.91373,0.19700
6171.98498,0.19805
6170.05624,0.19754
6168.12749,0.19676
6166.19875,0.19748
6164.27000,0.19991
6162.34126,0.20154
6160.41251,0.20140
6158.48377,0.20101
6156.55502,0.20099
6154.62628,0.20101
6152.69753,0.20003
6150.76878,0.19788
6148.84004,0.19684
6146.91129,0.19688
6144.98255,0.19583
6143.05380,0.19527
6141.12506,0.19732
6139.19631,0.19993
6137.26757,0.20047
6135.33882,0.19939
6133.41008,0.19790
6131.48133,0.19611
6129.55259,0.19515
6127.62384,0.19555
6125.69510,0.19610
6123.76635,0.19662
6121.83761,0.19735
6119.90886,0.19738
6117.98011,0.19643
6116.05137,0.19565
6114.12262,0.19552
6112.19388,0.19607
6110.26513,0.19739
6108.33639,0.19850
6106.40764,0.19827
6104.47890,0.19723
6102.55015,0.19728
6100.62141,0.19883
6098.69266,0.19995
6096.76392,0.19974
6094.83517,0.19971
6092.90643,0.20029
6090.97768,0.20053
6089.04893,0.20008
6087.12019,0.19850
6085.19144,0.19671
6083.26270,0.19688
6081.33395,0.19883
6079.40521,0.20034
6077.47646,0.19979
6075.54772,0.19819
6073.61897,0.19751
6071.69023,0.19774
6069.76148,0.19804
6067.83274,0.19802
6065.90399,0.19772
6063.97525,0.19782
6062.04650,0.19876
6060.11776,0.20006
6058.18901,0.20059
6056.26026,0.19961
6054.33152,0.19803
6052.40277,0.19635
6050.47403,0.19481
6048.54528,0.19560
6046.61654,0.19869
6044.68779,0.20030
6042.75905,0.19881
6040.83030,0.19677
6038.90156,0.19626
6036.97281,0.19638
6035.04407,0.19651
6033.11532,0.19702
6031.18658,0.19706
6029.25783,0.19596
6027.32909,0.19480
6025.40034,0.19488
6023.47159,0.19581
6021.54285,0.19695
6019.61410,0.19792
6017.68536,0.19804
6015.75661,0.19765
6013.82787,0.19678
6011.89912,0.19522
6009.97038,0.19399
6008.04163,0.19410
6006.11289,0.19591
6004.18414,0.19848
6002.25540,0.19988
6000.32665,0.19931
5998.39791,0.19729
5996.46916,0.19554
5994.54041,0.19561
5992.61167,0.19706
5990.68292,0.19898
5988.75418,0.20024
5986.82543,0.19998
5984.89669,0.19970
5982.96794,0.19968
5981.03920,0.19814
5979.11045,0.19663
5977.18171,0.19736
5975.25296,0.19886
5973.32422,0.19976
5971.39547,0.19996
5969.46673,0.19856
5967.53798,0.19636
5965.60924,0.19621
5963.68049,0.19799
5961.75174,0.19935
5959.82300,0.19959
5957.89425,0.19870
5955.96551,0.19707
5954.03676,0.19592
5952.10802,0.19556
5950.17927,0.19595
5948.25053,0.19731
5946.32178,0.19891
5944.39304,0.19927
5942.46429,0.19881
5940.53555,0.19912
5938.60680,0.19922
5936.67806,0.19830
5934.74931,0.19794
5932.82057,0.19867
5930.89182,0.19953
5928.96307,0.19986
5927.03433,0.19902
5925.10558,0.19736
5923.17684,0.19623
5921.24809,0.19561
5919.31935,0.19529
5917.39060,0.19633
5915.46186,0.19828
5913.53311,0.19916
5911.60437,0.19879
5909.67562,0.19829
5907.74688,0.19756
5905.81813,0.19735
5903.88939,0.19843
5901.96064,0.19870
5900.03189,0.19789
5898.10315,0.19779
5896.17440,0.19791
5894.24566,0.19813
5892.31691,0.19924
5890.38817,0.20019
5888.45942,0.20027
5886.53068,0.20009
5884.60193,0.19906
5882.67319,0.19711
5880.74444,0.19638
5878.81570,0.19680
5876.88695,0.19636
5874.95821,0.19585
5873.02946,0.19700
5871.10072,0.19852
5869.17197,0.19892
5867.24322,0.19858
5865.31448,0.19760
5863.38573,0.19677
5861.45699,0.19758
5859.52824,0.19937
5857.59950,0.19995
5855.67075,0.19897
5853.74201,0.19779
5851.81326,0.19739
5849.88452,0.19842
5847.95577,0.20010
5846.02703,0.20054
5844.09828,0.20019
5842.16954,0.20011
5840.24079,0.19903
5838.31205,0.19676
5836.38330,0.19559
5834.45455,0.19609
5832.52581,0.19662
5830.59706,0.19683
5828.66832,0.19706
5826.73957,0.19700
5824.81083,0.19720
5822.88208,0.19819
5820.95334,0.19856
5819.02459,0.19758
5817.09585,0.19692
5815.16710,0.19756
5813.23836,0.19853
5811.30961,0.19865
5809.38087,0.19786
5807.45212,0.19718
5805.52337,0.19787
5803.59463,0.19956
5801.66588,0.20054
5799.73714,0.20003
5797.80839,0.19869
5795.87965,0.19759
5793.95090,0.19688
5792.02216,0.19660
5790.09341,0.19685
5788.16467,0.19687
5786.23592,0.19688
5784.30718,0.19763
5782.37843,0.19830
5780.44969,0.19839
5778.52094,0.19850
5776.59220,0.19874
5774.66345,0.19857
5772.73470,0.19766
5770.80596,0.19678
5768.87721,0.19648
5766.94847,0.19626
5765.01972,0.19611
5763.09098,0.19599
5761.16223,0.19598
5759.23349,0.19661
5757.30474,0.19744
5755.37600,0.19808
5753.44725,0.19862
5751.51851,0.19847
5749.58976,0.19822
5747.66102,0.19902
5745.73227,0.19933
5743.80352,0.19784
5741.87478,0.19655
5739.94603,0.19677
5738.01729,0.19737
5736.08854,0.19781
5734.15980,0.19846
5732.23105,0.19876
5730.30231,0.19813
5728.37356,0.19716
5726.44482,0.19709
5724.51607,0.19826
5722.58733,0.19955
5720.65858,0.20038
5718.72984,0.20112
5716.80109,0.20137
5714.87235,0.20058
5712.94360,0.19908
5711.01485,0.19806
5709.08611,0.19844
5707.15736,0.19955
5705.22862,0.20037
5703.29987,0.20053
5701.37113,0.20008
5699.44238,0.19986
5697.51364,0.20004
5695.58489,0.19949
5693.65615,0.19845
5691.72740,0.19790
5689.79866,0.19757
5687.86991,0.19704
5685.94117,0.19642
5684.01242,0.19646
5682.08368,0.19747
5680.15493,0.19863
5678.22618,0.19952
5676.29744,0.19975
5674.36869,0.19926
5672.43995,0.19900
5670.51120,0.19904
5668.58246,0.19902
5666.65371,0.19922
5664.72497,0.19915
5662.79622,0.19855
5660.86748,0.19823
5658.93873,0.19848
5657.00999,0.19895
5655.08124,0.19951
5653.15250,0.20019
5651.22375,0.20055
5649.29500,0.20035
5647.36626,0.20032
5645.43751,0.20049
5643.50877,0.20022
5641.58002,0.19995
5639.65128,0.20018
5637.72253,0.20028
5635.79379,0.19958
5633.86504,0.19832
5631.93630,0.19758
5630.00755,0.19781
5628.07881,0.19838
5626.15006,0.19870
5624.22132,0.19853
5622.29257,0.19810
5620.36383,0.19791
5618.43508,0.19792
5616.50633,0.19809
5614.57759,0.19875
5612.64884,0.19940
5610.72010,0.19918
5608.79135,0.19878
5606.86261,0.19919
5604.93386,0.19942
5603.00512,0.19859
5601.07637,0.19829
5599.14763,0.19916
5597.21888,0.19934
5595.29014,0.19875
5593.36139,0.19891
5591.43265,0.19932
5589.50390,0.19893
5587.57516,0.19775
5585.64641,0.19666
5583.71766,0.19689
5581.78892,0.19813
5579.86017,0.19891
5577.93143,0.19898
5576.00268,0.19916
5574.07394,0.19941
5572.14519,0.19951
5570.21645,0.19947
5568.28770,0.19896
5566.35896,0.19854
5564.43021,0.19883
5562.50147,0.19885
5560.57272,0.19824
5558.64398,0.19832
5556.71523,0.19945
5554.78648,0.20004
5552.85774,0.19916
5550.92899,0.19811
5549.00025,0.19822
5547.07150,0.19883
5545.14276,0.19875
5543.21401,0.19790
5541.28527,0.19736
5539.35652,0.19794
5537.42778,0.19877
5535.49903,0.19913
5533.57029,0.19930
5531.64154,0.19958
5529.71280,0.20001
5527.78405,0.20017
5525.85531,0.20032
5523.92656,0.20082
5521.99781,0.20118
5520.06907,0.20103
5518.14032,0.20004
5516.21158,0.19909
5514.28283,0.19944
5512.35409,0.20006
5510.42534,0.19993
5508.49660,0.19986
5506.56785,0.19989
5504.63911,0.19934
5502.71036,0.19857
5500.78162,0.19837
5498.85287,0.19901
5496.92413,0.19983
5494.99538,0.19993
5493.06664,0.19956
5491.13789,0.19987
5489.20914,0.20077
5487.28040,0.20098
5485.35165,0.20064
5483.42291,0.20038
5481.49416,0.20011
5479.56542,0.19989
5477.63667,0.19941
5475.70793,0.19860
5473.77918,0.19837
5471.85044,0.19891
5469.92169,0.19976
5467.99295,0.20077
5466.06420,0.20101
5464.13546,0.20001
5462.20671,0.19960
5460.27796,0.20066
5458.34922,0.20131
5456.42047,0.20072
5454.49173,0.20018
5452.56298,0.20061
5450.63424,0.20114
5448.70549,0.20076
5446.77675,0.20013
5444.84800,0.20013
5442.91926,0.20044
5440.99051,0.20062
5439.06177,0.20063
5437.13302,0.20014
5435.20428,0.19936
5433.27553,0.19932
5431.34679,0.19972
5429.41804,0.19946
5427.48929,0.19892
5425.56055,0.19891
5423.63180,0.19915
5421.70306,0.19926
5419.77431,0.19931
5417.84557,0.19933
5415.91682,0.19905
5413.98808,0.19856
5412.05933,0.19826
5410.13059,0.19822
5408.20184,0.19877
5406.27310,0.19956
5404.34435,0.19945
5402.41561,0.19887
5400.48686,0.19903
5398.55811,0.19989
5396.62937,0.20034
5394.70062,0.19989
5392.77188,0.19930
5390.84313,0.19918
5388.91439,0.19980
5386.98564,0.20075
5385.05690,0.20080
5383.12815,0.20013
5381.19941,0.19963
5379.27066,0.19968
5377.34192,0.20028
5375.41317,0.20024
5373.48443,0.19926
5371.55568,0.19885
5369.62694,0.19909
5367.69819,0.19920
5365.76944,0.19924
5363.84070,0.19913
5361.91195,0.19898
5359.98321,0.19908
5358.05446,0.19902
5356.12572,0.19855
5354.19697,0.19793
5352.26823,0.19735
5350.33948,0.19724
5348.41074,0.19799
5346.48199,0.19842
5344.55325,0.19767
5342.62450,0.19741
5340.69576,0.19829
5338.76701,0.19895
5336.83827,0.19886
5334.90952,0.19836
5332.98077,0.19782
5331.05203,0.19746
5329.12328,0.19715
5327.19454,0.19757
5325.26579,0.19890
5323.33705,0.19933
5321.40830,0.19828
5319.47956,0.19729
5317.55081,0.19738
5315.62207,0.19802
5313.69332,0.19839
5311.76458,0.19873
5309.83583,0.19907
5307.90709,0.19875
5305.97834,0.19787
5304.04959,0.19718
5302.12085,0.19707
5300.19210,0.19724
5298.26336,0.19726
5296.33461,0.19703
5294.40587,0.19654
5292.47712,0.19608
5290.54838,0.19608
5288.61963,0.19638
5286.69089,0.19650
5284.76214,0.19614
5282.83340,0.19528
5280.90465,0.19473
5278.97591,0.19504
5277.04716,0.19559
5275.11842,0.19585
5273.18967,0.19574
5271.26092,0.19561
5269.33218,0.19552
5267.40343,0.19518
5265.47469,0.19497
5263.54594,0.19482
5261.61720,0.19442
5259.68845,0.19389
5257.75971,0.19326
5255.83096,0.19301
5253.90222,0.19348
5251.97347,0.19389
5250.04473,0.19356
5248.11598,0.19265
5246.18724,0.19163
5244.25849,0.19088
5242.32975,0.19060
5240.40100,0.19111
5238.47225,0.19220
5236.54351,0.19258
5234.61476,0.19202
5232.68602,0.19179
5230.75727,0.19207
5228.82853,0.19178
5226.89978,0.19080
5224.97104,0.19036
5223.04229,0.19102
5221.11355,0.19155
5219.18480,0.19126
5217.25606,0.19058
5215.32731,0.19014
5213.39857,0.19026
5211.46982,0.19011
5209.54107,0.18915
5207.61233,0.18806
5205.68358,0.18753
5203.75484,0.18782
5201.82609,0.18854
5199.89735,0.18909
5197.96860,0.18917
5196.03986,0.18889
5194.11111,0.18866
5192.18237,0.18841
5190.25362,0.18823
5188.32488,0.18839
5186.39613,0.18867
5184.46739,0.18891
5182.53864,0.18926
5180.60990,0.18965
5178.68115,0.18983
5176.75240,0.18978
5174.82366,0.18950
5172.89491,0.18925
5170.96617,0.18951
5169.03742,0.19000
5167.10868,0.19015
5165.17993,0.19009
5163.25119,0.18982
5161.32244,0.18894
5159.39370,0.18804
5157.46495,0.18797
5155.53621,0.18836
5153.60746,0.18859
5151.67872,0.18853
5149.74997,0.18858
5147.82123,0.18914
5145.89248,0.18977
5143.96373,0.19001
5142.03499,0.18992
5140.10624,0.18981
5138.17750,0.19013
5136.24875,0.19057
5134.32001,0.19064
5132.39126,0.19074
5130.46252,0.19102
5128.53377,0.19094
5126.60503,0.19032
5124.67628,0.18960
5122.74754,0.18919
5120.81879,0.18915
5118.89005,0.18937
5116.96130,0.18967
5115.03255,0.19000
5113.10381,0.19024
5111.17506,0.19030
5109.24632,0.19069
5107.31757,0.19143
5105.38883,0.19179
5103.46008,0.19173
5101.53134,0.19140
5099.60259,0.19066
5097.67385,0.18961
5095.74510,0.18894
5093.81636,0.18956
5091.88761,0.19073
5089.95887,0.19091
5088.03012,0.19085
5086.10138,0.19142
5084.17263,0.19191
5082.24388,0.19193
5080.31514,0.19170
5078.38639,0.19162
5076.45765,0.19170
5074.52890,0.19180
5072.60016,0.19196
5070.67141,0.19181
5068.74267,0.19140
5066.81392,0.19132
5064.88518,0.19148
5062.95643,0.19159
5061.02769,0.19150
5059.09894,0.19100
5057.17020,0.19072
5055.24145,0.19133
5053.31270,0.19220
5051.38396,0.19265
5049.45521,0.19266
5047.52647,0.19233
5045.59772,0.19206
5043.66898,0.19194
5041.74023,0.19180
5039.81149,0.19194
5037.88274,0.19236
5035.95400,0.19259
5034.02525,0.19270
5032.09651,0.19288
5030.16776,0.19306
5028.23902,0.19334
5026.31027,0.19348
5024.38153,0.19299
5022.45278,0.19230
5020.52403,0.19217
5018.59529,0.19230
5016.66654,0.19236
5014.73780,0.19277
5012.80905,0.19337
5010.88031,0.19351
5008.95156,0.19327
5007.02282,0.19324
5005.09407,0.19353
5003.16533,0.19341
5001.23658,0.19252
4999.30784,0.19176
4997.37909,0.19194
4995.45035,0.19278
4993.52160,0.19360
4991.59286,0.19412
4989.66411,0.19436
4987.73536,0.19443
4985.80662,0.19449
4983.87787,0.19437
4981.94913,0.19379
4980.02038,0.19303
4978.09164,0.19260
4976.16289,0.19265
4974.23415,0.19316
4972.30540,0.19410
4970.37666,0.19480
4968.44791,0.19465
4966.51917,0.19398
4964.59042,0.19332
4962.66168,0.19330
4960.73293,0.19415
4958.80418,0.19507
4956.87544,0.19535
4954.94669,0.19495
4953.01795,0.19451
4951.08920,0.19472
4949.16046,0.19491
4947.23171,0.19431
4945.30297,0.19356
4943.37422,0.19352
4941.44548,0.19402
4939.51673,0.19438
4937.58799,0.19431
4935.65924,0.19403
4933.73050,0.19406
4931.80175,0.19452
4929.87301,0.19510
4927.94426,0.19535
4926.01551,0.19504
4924.08677,0.19481
4922.15802,0.19506
4920.22928,0.19503
4918.30053,0.19477
4916.37179,0.19509
4914.44304,0.19568
4912.51430,0.19562
4910.58555,0.19494
4908.65681,0.19452
4906.72806,0.19478
4904.79932,0.19514
4902.87057,0.19500
4900.94183,0.19447
4899.01308,0.19400
4897.08434,0.19407
4895.15559,0.19468
4893.22684,0.19525
4891.29810,0.19535
4889.36935,0.19525
4887.44061,0.19535
4885.51186,0.19548
4883.58312,0.19549
4881.65437,0.19549
4879.72563,0.19543
4877.79688,0.19531
4875.86814,0.19529
4873.93939,0.19517
4872.01065,0.19481
4870.08190,0.19477
4868.15316,0.19538
4866.22441,0.19612
4864.29566,0.19630
4862.36692,0.19609
4860.43817,0.19629
4858.50943,0.19669
4856.58068,0.19658
4854.65194,0.19599
4852.72319,0.19535
4850.79445,0.19494
4848.86570,0.19492
4846.93696,0.19512
4845.00821,0.19530
4843.07947,0.19541
4841.15072,0.19523
4839.22198,0.19449
4837.29323,0.19364
4835.36449,0.19356
4833.43574,0.19437
4831.50699,0.19529
4829.57825,0.19593
4827.64950,0.19635
4825.72076,0.19622
4823.79201,0.19570
4821.86327,0.19550
4819.93452,0.19553
4818.00578,0.19536
4816.07703,0.19504
4814.14829,0.19469
4812.21954,0.19463
4810.29080,0.19513
4808.36205,0.19571
4806.43331,0.19589
4804.50456,0.19584
4802.57582,0.19576
4800.64707,0.19572
4798.71832,0.19576
4796.78958,0.19586
4794.86083,0.19590
4792.93209,0.19595
4791.00334,0.19622
4789.07460,0.19654
4787.14585,0.19635
4785.21711,0.19562
4783.28836,0.19496
4781.35962,0.19472
4779.43087,0.19480
4777.50213,0.19533
4775.57338,0.19610
4773.64464,0.19645
4771.71589,0.19633
4769.78714,0.19595
4767.85840,0.19545
4765.92965,0.19524
4764.00091,0.19562
4762.07216,0.19637
4760.14342,0.19694
4758.21467,0.19700
4756.28593,0.19664
4754.35718,0.19618
4752.42844,0.19601
4750.49969,0.19604
4748.57095,0.19588
4746.64220,0.19568
4744.71346,0.19570
4742.78471,0.19598
4740.85597,0.19658
4738.92722,0.19683
4736.99847,0.19604
4735.06973,0.19510
4733.14098,0.19490
4731.21224,0.19510
4729.28349,0.19509
4727.35475,0.19500
4725.42600,0.19501
4723.49726,0.19506
4721.56851,0.19543
4719.63977,0.19613
4717.71102,0.19669
4715.78228,0.19679
4713.85353,0.19640
4711.92479,0.19601
4709.99604,0.19618
4708.06729,0.19643
4706.13855,0.19625
4704.20980,0.19623
4702.28106,0.19641
4700.35231,0.19612
4698.42357,0.19570
4696.49482,0.19574
4694.56608,0.19601
4692.63733,0.19625
4690.70859,0.19662
4688.77984,0.19687
4686.85110,0.19649
4684.92235,0.19589
4682.99361,0.19575
4681.06486,0.19599
4679.13612,0.19615
4677.20737,0.19602
4675.27862,0.19592
4673.34988,0.19626
4671.42113,0.19663
4669.49239,0.19639
4667.56364,0.19578
4665.63490,0.19563
4663.70615,0.19604
4661.77741,0.19634
4659.84866,0.19634
4657.91992,0.19640
4655.99117,0.19643
4654.06243,0.19633
4652.13368,0.19621
4650.20494,0.19589
4648.27619,0.19540
4646.34745,0.19510
4644.41870,0.19514
4642.48995,0.19541
4640.56121,0.19580
4638.63246,0.19627
4636.70372,0.19654
4634.77497,0.19640
4632.84623,0.19608
4630.91748,0.19582
4628.98874,0.19578
4627.05999,0.19594
4625.13125,0.19605
4623.20250,0.19611
4621.27376,0.19623
4619.34501,0.19636
4617.41627,0.19629
4615.48752,0.19577
4613.55877,0.19519
4611.63003,0.19520
4609.70128,0.19559
4607.77254,0.19583
4605.84379,0.19603
4603.91505,0.19622
4601.98630,0.19608
4600.05756,0.19576
4598.12881,0.19553
4596.20007,0.19534
4594.27132,0.19511
4592.34258,0.19515
4590.41383,0.19561
4588.48509,0.19585
4586.55634,0.19563
4584.62760,0.19555
4582.69885,0.19572
4580.77010,0.19580
4578.84136,0.19569
4576.91261,0.19531
4574.98387,0.19498
4573.05512,0.19517
4571.12638,0.19548
4569.19763,0.19564
4567.26889,0.19594
4565.34014,0.19592
4563.41140,0.19519
4561.48265,0.19463
4559.55391,0.19472
4557.62516,0.19489
4555.69642,0.19486
4553.76767,0.19473
4551.83893,0.19446
4549.91018,0.19441
4547.98143,0.19481
4546.05269,0.19510
4544.12394,0.19479
4542.19520,0.19424
4540.26645,0.19402
4538.33771,0.19418
4536.40896,0.19429
4534.48022,0.19421
4532.55147,0.19399
4530.62273,0.19348
4528.69398,0.19307
4526.76524,0.19324
4524.83649,0.19345
4522.90775,0.19324
4520.97900,0.19319
4519.05025,0.19351
4517.12151,0.19369
4515.19276,0.19381
4513.26402,0.19396
4511.33527,0.19377
4509.40653,0.19340
4507.47778,0.19308
4505.54904,0.19283
4503.62029,0.19280
4501.69155,0.19277
4499.76280,0.19273
4497.83406,0.19291
4495.90531,0.19312
4493.97657,0.19306
4492.04782,0.19284
4490.11908,0.19279
4488.19033,0.19304
4486.26158,0.19335
4484.33284,0.19342
4482.40409,0.19334
4480.47535,0.19332
4478.54660,0.19329
4476.61786,0.19331
4474.68911,0.19352
4472.76037,0.19368
4470.83162,0.19357
4468.90288,0.19337
4466.97413,0.19311
4465.04539,0.19294
4463.11664,0.19315
4461.18790,0.19345
4459.25915,0.19343
4457.33041,0.19322
4455.40166,0.19306
4453.47291,0.19304
4451.54417,0.19325
4449.61542,0.19354
4447.68668,0.19344
4445.75793,0.19300
4443.82919,0.19274
4441.90044,0.19277
4439.97170,0.19293
4438.04295,0.19309
4436.11421,0.19305
4434.18546,0.19268
4432.25672,0.19244
4430.32797,0.19278
4428.39923,0.19332
4426.47048,0.19359
4424.54173,0.19350
4422.61299,0.19312
4420.68424,0.19282
4418.75550,0.19275
4416.82675,0.19255
4414.89801,0.19227
4412.96926,0.19232
4411.04052,0.19268
4409.11177,0.19283
4407.18303,0.19259
4405.25428,0.19243
4403.32554,0.19238
4401.39679,0.19211
4399.46805,0.19182
4397.53930,0.19168
4395.61056,0.19158
4393.68181,0.19166
4391.75306,0.19183
4389.82432,0.19182
4387.89557,0.19173
4385.96683,0.19177
4384.03808,0.19198
4382.10934,0.19208
4380.18059,0.19196
4378.25185,0.19189
4376.32310,0.19185
4374.39436,0.19171
4372.46561,0.19156
4370.53687,0.19133
4368.60812,0.19093
4366.67938,0.19058
4364.75063,0.19044
4362.82189,0.19050
4360.89314,0.19074
4358.96439,0.19089
4357.03565,0.19054
4355.10690,0.18978
4353.17816,0.18920
4351.24941,0.18924
4349.32067,0.18957
4347.39192,0.18974
4345.46318,0.18995
4343.53443,0.19017
4341.60569,0.19014
4339.67694,0.19001
4337.74820,0.18991
4335.81945,0.18979
4333.89071,0.18974
4331.96196,0.18981
4330.03321,0.18984
4328.10447,0.18961
4326.17572,0.18930
4324.24698,0.18932
4322.31823,0.18949
4320.38949,0.18950
4318.46074,0.18917
4316.53200,0.18845
4314.60325,0.18785
4312.67451,0.18788
4310.74576,0.18824
4308.81702,0.18845
4306.88827,0.18841
4304.95953,0.18831
4303.03078,0.18824
4301.10204,0.18803
4299.17329,0.18766
4297.24454,0.18719
4295.31580,0.18676
4293.38705,0.18682
4291.45831,0.18723
4289.52956,0.18724
4287.60082,0.18678
4285.67207,0.18639
4283.74333,0.18627
4281.81458,0.18645
4279.88584,0.18655
4277.95709,0.18612
4276.02835,0.18564
4274.09960,0.18566
4272.17086,0.18570
4270.24211,0.18543
4268.31336,0.18532
4266.38462,0.18558
4264.45587,0.18580
4262.52713,0.18578
4260.59838,0.18585
4258.66964,0.18608
4256.74089,0.18614
4254.81215,0.18591
4252.88340,0.18579
4250.95466,0.18615
4249.02591,0.18650
4247.09717,0.18654
4245.16842,0.18670
4243.23968,0.18706
4241.31093,0.18734
4239.38219,0.18758
4237.45344,0.18791
4235.52469,0.18817
4233.59595,0.18807
4231.66720,0.18781
4229.73846,0.18783
4227.80971,0.18831
4225.88097,0.18882
4223.95222,0.18885
4222.02348,0.18878
4220.09473,0.18906
4218.16599,0.18920
4216.23724,0.18898
4214.30850,0.18895
4212.37975,0.18925
4210.45101,0.18939
4208.52226,0.18919
4206.59352,0.18893
4204.66477,0.18875
4202.73602,0.18871
4200.80728,0.18891
4198.87853,0.18917
4196.94979,0.18927
4195.02104,0.18920
4193.09230,0.18908
4191.16355,0.18904
4189.23481,0.18912
4187.30606,0.18905
4185.37732,0.18876
4183.44857,0.18858
4181.51983,0.18851
4179.59108,0.18833
4177.66234,0.18818
4175.73359,0.18823
4173.80484,0.18834
4171.87610,0.18823
4169.94735,0.18796
4168.01861,0.18791
4166.08986,0.18815
4164.16112,0.18812
4162.23237,0.18765
4160.30363,0.18727
4158.37488,0.18705
4156.44614,0.18684
4154.51739,0.18694
4152.58865,0.18737
4150.65990,0.18753
4148.73116,0.18708
4146.80241,0.18654
4144.87367,0.18653
4142.94492,0.18675
4141.01617,0.18654
4139.08743,0.18602
4137.15868,0.18579
4135.22994,0.18600
4133.30119,0.18614
4131.37245,0.18590
4129.44370,0.18564
4127.51496,0.18570
4125.58621,0.18578
4123.65747,0.18562
4121.72872,0.18535
4119.79998,0.18498
4117.87123,0.18458
4115.94249,0.18442
4114.01374,0.18442
4112.08500,0.18432
4110.15625,0.18423
4108.22750,0.18420
4106.29876,0.18392
4104.37001,0.18350
4102.44127,0.18340
4100.51252,0.18350
4098.58378,0.18326
4096.65503,0.18277
4094.72629,0.18249
4092.79754,0.18250
4090.86880,0.18253
4088.94005,0.18246
4087.01131,0.18238
4085.08256,0.18243
4083.15382,0.18249
4081.22507,0.18231
4079.29632,0.18207
4077.36758,0.18181
4075.43883,0.18122
4073.51009,0.18066
4071.58134,0.18079
4069.65260,0.18123
4067.72385,0.18113
4065.79511,0.18067
4063.86636,0.18032
4061.93762,0.18005
4060.00887,0.17974
4058.08013,0.17957
4056.15138,0.17950
4054.22264,0.17934
4052.29389,0.17903
4050.36515,0.17864
4048.43640,0.17839
4046.50765,0.17844
4044.57891,0.17844
4042.65016,0.17814
4040.72142,0.17790
4038.79267,0.17780
4036.86393,0.17755
4034.93518,0.17729
4033.00644,0.17708
4031.07769,0.17676
4029.14895,0.17656
4027.22020,0.17657
4025.29146,0.17654
4023.36271,0.17644
4021.43397,0.17621
4019.50522,0.17583
4017.57648,0.17550
4015.64773,0.17523
4013.71898,0.17499
4011.79024,0.17484
4009.86149,0.17464
4007.93275,0.17458
4006.00400,0.17495
4004.07526,0.17522
4002.14651,0.17484
4000.21777,0.17425
3998.28902,0.17397
3996.36028,0.17383
3994.43153,0.17374
3992.50279,0.17399
3990.57404,0.17431
3988.64530,0.17427
3986.71655,0.17406
3984.78780,0.17389
3982.85906,0.17360
3980.93031,0.17318
3979.00157,0.17294
3977.07282,0.17291
3975.14408,0.17289
3973.21533,0.17295
3971.28659,0.17298
3969.35784,0.17280
3967.42910,0.17255
3965.50035,0.17238
3963.57161,0.17229
3961.64286,0.17221
3959.71412,0.17195
3957.78537,0.17142
3955.85663,0.17074
3953.92788,0.17018
3951.99913,0.16997
3950.07039,0.16989
3948.14164,0.16972
3946.21290,0.16966
3944.28415,0.16981
3942.35541,0.17018
3940.42666,0.17058
3938.49792,0.17062
3936.56917,0.17034
3934.64043,0.17034
3932.71168,0.17080
3930.78294,0.17118
3928.85419,0.17128
3926.92545,0.17166
3924.99670,0.17243
3923.06795,0.17312
3921.13921,0.17341
3919.21046,0.17358
3917.28172,0.17397
3915.35297,0.17453
3913.42423,0.17518
3911.49548,0.17587
3909.56674,0.17642
3907.63799,0.17651
3905.70925,0.17633
3903.78050,0.17650
3901.85176,0.17702
3899.92301,0.17743
3897.99427,0.17775
3896.06552,0.17798
3894.13678,0.17797
3892.20803,0.17785
3890.27928,0.17776
3888.35054,0.17770
3886.42179,0.17770
3884.49305,0.17778
3882.56430,0.17788
3880.63556,0.17802
3878.70681,0.17829
3876.77807,0.17849
3874.84932,0.17854
3872.92058,0.17855
3870.99183,0.17832
3869.06309,0.17778
3867.13434,0.17740
3865.20560,0.17751
3863.27685,0.17779
3861.34811,0.17784
3859.41936,0.17794
3857.49061,0.17821
3855.56187,0.17827
3853.63312,0.17808
3851.70438,0.17808
3849.77563,0.17834
3847.84689,0.17855
3845.91814,0.17858
3843.98940,0.17839
3842.06065,0.17818
3840.13191,0.17806
3838.20316,0.17789
3836.27442,0.17777
3834.34567,0.17777
3832.41693,0.17764
3830.48818,0.17750
3828.55943,0.17742
3826.63069,0.17711
3824.70194,0.17675
3822.77320,0.17671
3820.84445,0.17688
3818.91571,0.17691
3816.98696,0.17665
3815.05822,0.17647
3813.12947,0.17672
3811.20073,0.17701
3809.27198,0.17684
3807.34324,0.17644
3805.41449,0.17622
3803.48575,0.17618
3801.55700,0.17611
3799.62826,0.17589
3797.69951,0.17563
3795.77076,0.17557
3793.84202,0.17556
3791.91327,0.17529
3789.98453,0.17485
3788.05578,0.17446
3786.12704,0.17422
3784.19829,0.17405
3782.26955,0.17392
3780.34080,0.17390
3778.41206,0.17389
3776.48331,0.17378
3774.55457,0.17356
3772.62582,0.17322
3770.69708,0.17279
3768.76833,0.17234
3766.83959,0.17200
3764.91084,0.17160
3762.98209,0.17097
3761.05335,0.17054
3759.12460,0.17043
3757.19586,0.17012
3755.26711,0.16947
3753.33837,0.16882
3751.40962,0.16829
3749.48088,0.16764
3747.55213,0.16675
3745.62339,0.16571
3743.69464,0.16471
3741.76590,0.16406
3739.83715,0.16350
3737.90841,0.16273
3735.97966,0.16172
3734.05091,0.16057
3732.12217,0.15948
3730.19342,0.15846
3728.26468,0.15716
3726.33593,0.15548
3724.40719,0.15364
3722.47844,0.15180
3720.54970,0.15004
3718.62095,0.14829
3716.69221,0.14654
3714.76346,0.14483
3712.83472,0.14305
3710.90597,0.14131
3708.97723,0.13978
3707.04848,0.13812
3705.11974,0.13630
3703.19099,0.13466
3701.26224,0.13315
3699.33350,0.13152
3697.40475,0.12975
3695.47601,0.12782
3693.54726,0.12582
3691.61852,0.12377
3689.68977,0.12166
3687.76103,0.11975
3685.83228,0.11799
3683.90354,0.11596
3681.97479,0.11368
3680.04605,0.11152
3678.11730,0.10967
3676.18856,0.10798
3674.25981,0.10623
3672.33107,0.10428
3670.40232,0.10229
3668.47357,0.10033
3666.54483,0.09811
3664.61608,0.09572
3662.68734,0.09366
3660.75859,0.09195
3658.82985,0.09013
3656.90110,0.08814
3654.97236,0.08632
3653.04361,0.08476
3651.11487,0.08322
3649.18612,0.08170
3647.25738,0.08022
3645.32863,0.07866
3643.39989,0.07708
3641.47114,0.07551
3639.54239,0.07389
3637.61365,0.07247
3635.68490,0.07135
3633.75616,0.07025
3631.82741,0.06913
3629.89867,0.06819
3627.96992,0.06740
3626.04118,0.06676
3624.11243,0.06624
3622.18369,0.06549
3620.25494,0.06453
3618.32620,0.06391
3616.39745,0.06361
3614.46871,0.06318
3612.53996,0.06280
3610.61122,0.06251
3608.68247,0.06189
3606.75372,0.06117
3604.82498,0.06078
3602.89623,0.06048
3600.96749,0.06020
3599.03874,0.06009
3597.11000,0.06006
3595.18125,0.05986
3593.25251,0.05954
3591.32376,0.05929
3589.39502,0.05918
3587.46627,0.05929
3585.53753,0.05936
3583.60878,0.05914
3581.68004,0.05886
3579.75129,0.05871
3577.82254,0.05861
3575.89380,0.05854
3573.96505,0.05837
3572.03631,0.05796
3570.10756,0.05749
3568.17882,0.05709
3566.25007,0.05681
3564.32133,0.05673
3562.39258,0.05666
3560.46384,0.05652
3558.53509,0.05651
3556.60635,0.05655
3554.67760,0.05641
3552.74886,0.05600
3550.82011,0.05559
3548.89137,0.05551
3546.96262,0.05560
3545.03387,0.05554
3543.10513,0.05536
3541.17638,0.05512
3539.24764,0.05487
3537.31889,0.05473
3535.39015,0.05461
3533.46140,0.05442
3531.53266,0.05422
3529.60391,0.05409
3527.67517,0.05402
3525.74642,0.05392
3523.81768,0.05364
3521.88893,0.05319
3519.96019,0.05277
3518.03144,0.05253
3516.10270,0.05260
3514.17395,0.05293
3512.24520,0.05302
3510.31646,0.05270
3508.38771,0.05234
3506.45897,0.05219
3504.53022,0.05227
3502.60148,0.05248
3500.67273,0.05259
3498.74399,0.05273
3496.81524,0.05286
3494.88650,0.05261
3492.95775,0.05221
3491.02901,0.05206
3489.10026,0.05202
3487.17152,0.05200
3485.24277,0.05203
3483.31402,0.05205
3481.38528,0.05207
3479.45653,0.05203
3477.52779,0.05169
3475.59904,0.05120
3473.67030,0.05101
3471.74155,0.05107
3469.81281,0.05094
3467.88406,0.05074
3465.95532,0.05074
3464.02657,0.05078
3462.09783,0.05077
3460.16908,0.05085
3458.24034,0.05078
3456.31159,0.05036
3454.38285,0.04993
3452.45410,0.04963
3450.52535,0.04940
3448.59661,0.04946
3446.66786,0.04960
3444.73912,0.04950
3442.81037,0.04952
3440.88163,0.04988
3438.95288,0.05014
3437.02414,0.04993
3435.09539,0.04943
3433.16665,0.04923
3431.23790,0.04953
3429.30916,0.04995
3427.38041,0.05007
3425.45167,0.04996
3423.52292,0.04976
3421.59418,0.04966
3419.66543,0.04989
3417.73668,0.05013
3415.80794,0.04987
3413.87919,0.04928
3411.95045,0.04892
3410.02170,0.04902
3408.09296,0.04931
3406.16421,0.04935
3404.23547,0.04903
3402.30672,0.04877
3400.37798,0.04884
3398.44923,0.04899
3396.52049,0.04900
3394.59174,0.04901
3392.66300,0.04903
3390.73425,0.04898
3388.80550,0.04903
3386.87676,0.04913
3384.94801,0.04907
3383.01927,0.04897
3381.09052,0.04892
3379.16178,0.04904
3377.23303,0.04926
3375.30429,0.04934
3373.37554,0.04946
3371.44680,0.04981
3369.51805,0.05010
3367.58931,0.05022
3365.66056,0.05023
3363.73182,0.05006
3361.80307,0.04978
3359.87433,0.04956
3357.94558,0.04950
3356.01683,0.04957
3354.08809,0.04969
3352.15934,0.04979
3350.23060,0.04978
3348.30185,0.04962
3346.37311,0.04944
3344.44436,0.04950
3342.51562,0.04980
3340.58687,0.05002
3338.65813,0.05012
3336.72938,0.05023
3334.80064,0.05044
3332.87189,0.05074
3330.94315,0.05094
3329.01440,0.05080
3327.08566,0.05045
3325.15691,0.05024
3323.22816,0.05029
3321.29942,0.05053
3319.37067,0.05096
3317.44193,0.05134
3315.51318,0.05135
3313.58444,0.05125
3311.65569,0.05132
3309.72695,0.05129
3307.79820,0.05110
3305.86946,0.05109
3303.94071,0.05108
3302.01197,0.05088
3300.08322,0.05078
3298.15448,0.05103
3296.22573,0.05151
3294.29698,0.05182
3292.36824,0.05187
3290.43949,0.05184
3288.51075,0.05186
3286.58200,0.05202
3284.65326,0.05210
3282.72451,0.05191
3280.79577,0.05181
3278.86702,0.05197
3276.93828,0.05210
3275.00953,0.05217
3273.08079,0.05245
3271.15204,0.05279
3269.22330,0.05288
3267.29455,0.05290
3265.36581,0.05308
3263.43706,0.05328
3261.50831,0.05330
3259.57957,0.05321
3257.65082,0.05316
3255.72208,0.05325
3253.79333,0.05352
3251.86459,0.05374
3249.93584,0.05372
3248.00710,0.05372
3246.07835,0.05390
3244.14961,0.05394
3242.22086,0.05379
3240.29212,0.05374
3238.36337,0.05382
3236.43463,0.05399
3234.50588,0.05425
3232.57713,0.05454
3230.64839,0.05494
3228.71964,0.05527
3226.79090,0.05530
3224.86215,0.05523
3222.93341,0.05534
3221.00466,0.05553
3219.07592,0.05567
3217.14717,0.05574
3215.21843,0.05569
3213.28968,0.05582
3211.36094,0.05638
3209.43219,0.05682
3207.50345,0.05685
3205.57470,0.05689
3203.64596,0.05708
3201.71721,0.05723
3199.78846,0.05729
3197.85972,0.05730
3195.93097,0.05737
3194.00223,0.05767
3192.07348,0.05804
3190.14474,0.05837
3188.21599,0.05877
3186.28725,0.05905
3184.35850,0.05897
3182.42976,0.05875
3180.50101,0.05868
3178.57227,0.05893
3176.64352,0.05924
3174.71478,0.05939
3172.78603,0.05961
3170.85729,0.05999
3168.92854,0.06027
3166.99979,0.06041
3165.07105,0.06057
3163.14230,0.06080
3161.21356,0.06106
3159.28481,0.06124
3157.35607,0.06120
3155.42732,0.06119
3153.49858,0.06135
3151.56983,0.06154
3149.64109,0.06173
3147.71234,0.06193
3145.78360,0.06202
3143.85485,0.06206
3141.92611,0.06217
3139.99736,0.06228
3138.06861,0.06224
3136.13987,0.06226
3134.21112,0.06270
3132.28238,0.06329
3130.35363,0.06355
3128.42489,0.06361
3126.49614,0.06381
3124.56740,0.06395
3122.63865,0.06388
3120.70991,0.06388
3118.78116,0.06409
3116.85242,0.06430
3114.92367,0.06447
3112.99493,0.06478
3111.06618,0.06514
3109.13744,0.06517
3107.20869,0.06498
3105.27994,0.06504
3103.35120,0.06531
3101.42245,0.06552
3099.49371,0.06569
3097.56496,0.06580
3095.63622,0.06600
3093.70747,0.06637
3091.77873,0.06661
3089.84998,0.06658
3087.92124,0.06652
3085.99249,0.06661
3084.06375,0.06678
3082.13500,0.06695
3080.20626,0.06697
3078.27751,0.06688
3076.34877,0.06696
3074.42002,0.06708
3072.49127,0.06697
3070.56253,0.06682
3068.63378,0.06679
3066.70504,0.06686
3064.77629,0.06699
3062.84755,0.06718
3060.91880,0.06737
3058.99006,0.06754
3057.06131,0.06777
3055.13257,0.06795
3053.20382,0.06795
3051.27508,0.06793
3049.34633,0.06799
3047.41759,0.06796
3045.48884,0.06776
3043.56009,0.06759
3041.63135,0.06763
3039.70260,0.06778
3037.77386,0.06794
3035.84511,0.06815
3033.91637,0.06833
3031.98762,0.06842
3030.05888,0.06828
3028.13013,0.06777
3026.20139,0.06729
3024.27264,0.06718
3022.34390,0.06712
3020.41515,0.06685
3018.48641,0.06683
3016.55766,0.06720
3014.62892,0.06752
3012.70017,0.06765
3010.77142,0.06772
3008.84268,0.06753
3006.91393,0.06708
3004.98519,0.06658
3003.05644,0.06617
3001.12770,0.06591
2999.19895,0.06556
2997.27021,0.06483
2995.34146,0.06381
2993.41272,0.06273
2991.48397,0.06174
2989.55523,0.06090
2987.62648,0.06014
2985.69774,0.05946
2983.76899,0.05904
2981.84025,0.05910
2979.91150,0.05949
2977.98275,0.05983
2976.05401,0.06004
2974.12526,0.06010
2972.19652,0.05994
2970.26777,0.05994
2968.33903,0.06022
2966.41028,0.06028
2964.48154,0.06013
2962.55279,0.06015
2960.62405,0.06006
2958.69530,0.05976
2956.76656,0.05969
2954.83781,0.05983
2952.90907,0.05998
2950.98032,0.06031
2949.05157,0.06078
2947.12283,0.06100
2945.19408,0.06081
2943.26534,0.06045
2941.33659,0.06031
2939.40785,0.06029
2937.47910,0.06007
2935.55036,0.05981
2933.62161,0.05987
2931.69287,0.06010
2929.76412,0.06017
2927.83538,0.06007
2925.90663,0.06004
2923.97789,0.05999
2922.04914,0.05986
2920.12040,0.06002
2918.19165,0.06050
2916.26290,0.06073
2914.33416,0.06076
2912.40541,0.06091
2910.47667,0.06111
2908.54792,0.06133
2906.61918,0.06155
2904.69043,0.06164
2902.76169,0.06157
2900.83294,0.06139
2898.90420,0.06118
2896.97545,0.06106
2895.04671,0.06114
2893.11796,0.06139
2891.18922,0.06150
2889.26047,0.06127
2887.33172,0.06074
2885.40298,0.06004
2883.47423,0.05931
2881.54549,0.05859
2879.61674,0.05791
2877.68800,0.05743
2875.75925,0.05730
2873.83051,0.05743
2871.90176,0.05767
2869.97302,0.05807
2868.04427,0.05867
2866.11553,0.05925
2864.18678,0.05962
2862.25804,0.06002
2860.32929,0.06064
2858.40055,0.06122
2856.47180,0.06162
2854.54305,0.06210
2852.61431,0.06281
2850.68556,0.06364
2848.75682,0.06443
2846.82807,0.06518
2844.89933,0.06603
2842.97058,0.06724
2841.04184,0.06892
2839.11309,0.07074
2837.18435,0.07223
2835.25560,0.07349
2833.32686,0.07481
2831.39811,0.07606
2829.46937,0.07708
2827.54062,0.07803
2825.61188,0.07903
2823.68313,0.07986
2821.75438,0.08045
2819.82564,0.08100
2817.89689,0.08159
2815.96815,0.08202
2814.03940,0.08247
2812.11066,0.08313
2810.18191,0.08373
2808.25317,0.08400
2806.32442,0.08413
2804.39568,0.08432
2802.46693,0.08461
2800.53819,0.08501
2798.60944,0.08562
2796.68070,0.08640
2794.75195,0.08700
2792.82320,0.08727
2790.89446,0.08749
2788.96571,0.08798
2787.03697,0.08865
2785.10822,0.08917
2783.17948,0.08951
2781.25073,0.08989
2779.32199,0.09037
2777.39324,0.09076
2775.46450,0.09092
2773.53575,0.09109
2771.60701,0.09136
2769.67826,0.09163
2767.74952,0.09203
2765.82077,0.09238
2763.89203,0.09248
2761.96328,0.09256
2760.03453,0.09273
2758.10579,0.09296
2756.17704,0.09329
2754.24830,0.09372
2752.31955,0.09420
2750.39081,0.09452
2748.46206,0.09445
2746.53332,0.09414
2744.60457,0.09405
2742.67583,0.09432
2740.74708,0.09471
2738.81834,0.09496
2736.88959,0.09512
2734.96085,0.09528
2733.03210,0.09551
2731.10336,0.09588
2729.17461,0.09626
2727.24586,0.09631
2725.31712,0.09607
2723.38837,0.09601
2721.45963,0.09622
2719.53088,0.09648
2717.60214,0.09660
2715.67339,0.09668
2713.74465,0.09696
2711.81590,0.09741
2709.88716,0.09774
2707.95841,0.09787
2706.02967,0.09787
2704.10092,0.09791
2702.17218,0.09799
2700.24343,0.09805
2698.31468,0.09824
2696.38594,0.09851
2694.45719,0.09867
2692.52845,0.09873
2690.59970,0.09872
2688.67096,0.09866
2686.74221,0.09866
2684.81347,0.09879
2682.88472,0.09896
2680.95598,0.09905
2679.02723,0.09902
2677.09849,0.09893
2675.16974,0.09872
2673.24100,0.09841
2671.31225,0.09829
2669.38351,0.09847
2667.45476,0.09872
2665.52601,0.09882
2663.59727,0.09882
2661.66852,0.09864
2659.73978,0.09822
2657.81103,0.09769
2655.88229,0.09715
2653.95354,0.09673
2652.02480,0.09656
2650.09605,0.09639
2648.16731,0.09594
2646.23856,0.09539
2644.30982,0.09483
2642.38107,0.09418
2640.45233,0.09337
2638.52358,0.09235
2636.59484,0.09124
2634.66609,0.09023
2632.73734,0.08913
2630.80860,0.08774
2628.87985,0.08634
2626.95111,0.08523
2625.02236,0.08417
2623.09362,0.08297
2621.16487,0.08197
2619.23613,0.08131
2617.30738,0.08056
2615.37864,0.07954
2613.44989,0.07863
2611.52115,0.07788
2609.59240,0.07699
2607.66366,0.07610
2605.73491,0.07542
2603.80616,0.07483
2601.87742,0.07432
2599.94867,0.07388
2598.01993,0.07349
2596.09118,0.07328
2594.16244,0.07314
2592.23369,0.07280
2590.30495,0.07241
2588.37620,0.07214
2586.44746,0.07198
2584.51871,0.07191
2582.58997,0.07186
2580.66122,0.07167
2578.73248,0.07132
2576.80373,0.07107
2574.87499,0.07102
2572.94624,0.07096
2571.01749,0.07078
2569.08875,0.07053
2567.16000,0.07034
2565.23126,0.07030
2563.30251,0.07040
2561.37377,0.07046
2559.44502,0.07008
2557.51628,0.06921
2555.58753,0.06830
2553.65879,0.06767
2551.73004,0.06722
2549.80130,0.06686
2547.87255,0.06652
2545.94381,0.06608
2544.01506,0.06556
2542.08631,0.06494
2540.15757,0.06401
2538.22882,0.06277
2536.30008,0.06146
2534.37133,0.06014
2532.44259,0.05869
2530.51384,0.05714
2528.58510,0.05557
2526.65635,0.05421
2524.72761,0.05339
2522.79886,0.05299
2520.87012,0.05258
2518.94137,0.05212
2517.01263,0.05176
2515.08388,0.05162
2513.15514,0.05177
2511.22639,0.05220
2509.29764,0.05284
2507.36890,0.05363
2505.44015,0.05461
2503.51141,0.05579
2501.58266,0.05721
2499.65392,0.05894
2497.72517,0.06094
2495.79643,0.06320
2493.86768,0.06548
2491.93894,0.06741
2490.01019,0.06907
2488.08145,0.07089
2486.15270,0.07287
2484.22396,0.07466
2482.29521,0.07628
2480.36647,0.07800
2478.43772,0.07994
2476.50897,0.08198
2474.58023,0.08396
2472.65148,0.08570
2470.72274,0.08718
2468.79399,0.08859
2466.86525,0.09006
2464.93650,0.09154
2463.00776,0.09277
2461.07901,0.09356
2459.15027,0.09417
2457.22152,0.09492
2455.29278,0.09587
2453.36403,0.09681
2451.43529,0.09755
2449.50654,0.09813
2447.57779,0.09864
2445.64905,0.09919
2443.72030,0.09981
2441.79156,0.10035
2439.86281,0.10067
2437.93407,0.10094
2436.00532,0.10132
2434.07658,0.10172
2432.14783,0.10201
2430.21909,0.10233
2428.29034,0.10272
2426.36160,0.10302
2424.43285,0.10318
2422.50411,0.10331
2420.57536,0.10356
2418.64662,0.10394
2416.71787,0.10436
2414.78912,0.10473
2412.86038,0.10494
2410.93163,0.10500
2409.00289,0.10511
2407.07414,0.10527
2405.14540,0.10544
2403.21665,0.10561
2401.28791,0.10570
2399.35916,0.10566
2397.43042,0.10565
2395.50167,0.10579
2393.57293,0.10604
2391.64418,0.10615
2389.71544,0.10601
2387.78669,0.10583
2385.85795,0.10588
2383.92920,0.10607
2382.00045,0.10616
2380.07171,0.10608
2378.14296,0.10592
2376.21422,0.10579
2374.28547,0.10585
2372.35673,0.10598
2370.42798,0.10582
2368.49924,0.10552
2366.57049,0.10539
2364.64175,0.10544
2362.71300,0.10554
2360.78426,0.10566
2358.85551,0.10569
2356.92677,0.10551
2354.99802,0.10521
2353.06927,0.10493
2351.14053,0.10473
2349.21178,0.10457
2347.28304,0.10436
2345.35429,0.10411
2343.42555,0.10391
2341.49680,0.10386
2339.56806,0.10404
2337.63931,0.10416
2335.71057,0.10394
2333.78182,0.10367
2331.85308,0.10363
2329.92433,0.10366
2327.99559,0.10362
2326.06684,0.10346
2324.13810,0.10313
2322.20935,0.10281
2320.28060,0.10264
2318.35186,0.10254
2316.42311,0.10236
2314.49437,0.10223
2312.56562,0.10219
2310.63688,0.10213
2308.70813,0.10202
2306.77939,0.10200
2304.85064,0.10213
2302.92190,0.10221
2300.99315,0.10212
2299.06441,0.10200
2297.13566,0.10191
2295.20692,0.10177
2293.27817,0.10154
2291.34943,0.10133
2289.42068,0.10119
2287.49193,0.10106
2285.56319,0.10106
2283.63444,0.10108
2281.70570,0.10092
2279.77695,0.10079
2277.84821,0.10083
2275.91946,0.10073
2273.99072,0.10048
2272.06197,0.10025
2270.13323,0.09996
2268.20448,0.09962
2266.27574,0.09938
2264.34699,0.09917
2262.41825,0.09891
2260.48950,0.09871
2258.56075,0.09851
2256.63201,0.09820
2254.70326,0.09791
2252.77452,0.09769
2250.84577,0.09745
2248.91703,0.09721
2246.98828,0.09700
2245.05954,0.09674
2243.13079,0.09643
2241.20205,0.09612
2239.27330,0.09590
2237.34456,0.09577
2235.41581,0.09569
2233.48707,0.09550
2231.55832,0.09516
2229.62958,0.09488
2227.70083,0.09474
2225.77208,0.09468
2223.84334,0.09462
2221.91459,0.09446
2219.98585,0.09429
2218.05710,0.09418
2216.12836,0.09413
2214.19961,0.09413
2212.27087,0.09411
2210.34212,0.09396
2208.41338,0.09376
2206.48463,0.09366
2204.55589,0.09360
2202.62714,0.09336
2200.69840,0.09297
2198.76965,0.09284
2196.84090,0.09310
2194.91216,0.09328
2192.98341,0.09312
2191.05467,0.09287
2189.12592,0.09274
2187.19718,0.09272
2185.26843,0.09276
2183.33969,0.09285
2181.41094,0.09284
2179.48220,0.09255
2177.55345,0.09215
2175.62471,0.09184
2173.69596,0.09155
2171.76722,0.09132
2169.83847,0.09115
2167.90973,0.09087
2165.98098,0.09053
2164.05223,0.09010
2162.12349,0.08936
2160.19474,0.08856
2158.26600,0.08798
2156.33725,0.08747
2154.40851,0.08687
2152.47976,0.08621
2150.55102,0.08555
2148.62227,0.08498
2146.69353,0.08464
2144.76478,0.08448
2142.83604,0.08430
2140.90729,0.08407
2138.97855,0.08394
2137.04980,0.08396
2135.12106,0.08411
2133.19231,0.08440
2131.26356,0.08487
2129.33482,0.08549
2127.40607,0.08620
2125.47733,0.08695
2123.54858,0.08772
2121.61984,0.08851
2119.69109,0.08920
2117.76235,0.08965
2115.83360,0.09002
2113.90486,0.09040
2111.97611,0.09065
2110.04737,0.09077
2108.11862,0.09088
2106.18988,0.09102
2104.26113,0.09123
2102.33238,0.09153
2100.40364,0.09180
2098.47489,0.09191
2096.54615,0.09192
2094.61740,0.09192
2092.68866,0.09191
2090.75991,0.09180
2088.83117,0.09162
2086.90242,0.09158
2084.97368,0.09174
2083.04493,0.09183
2081.11619,0.09171
2079.18744,0.09157
2077.25870,0.09144
2075.32995,0.09123
2073.40121,0.09099
2071.47246,0.09088
2069.54371,0.09089
2067.61497,0.09085
2065.68622,0.09064
2063.75748,0.09034
2061.82873,0.09017
2059.89999,0.09020
2057.97124,0.09025
2056.04250,0.09020
2054.11375,0.09007
2052.18501,0.08979
2050.25626,0.08940
2048.32752,0.08911
2046.39877,0.08894
2044.47003,0.08876
2042.54128,0.08853
2040.61254,0.08835
2038.68379,0.08812
2036.75504,0.08775
2034.82630,0.08738
2032.89755,0.08715
2030.96881,0.08691
2029.04006,0.08661
2027.11132,0.08635
2025.18257,0.08614
2023.25383,0.08600
2021.32508,0.08595
2019.39634,0.08578
2017.46759,0.08535
2015.53885,0.08487
2013.61010,0.08454
2011.68136,0.08431
2009.75261,0.08407
2007.82386,0.08382
2005.89512,0.08358
2003.96637,0.08329
2002.03763,0.08288
2000.10888,0.08251
1998.18014,0.08241
1996.25139,0.08244
1994.32265,0.08241
1992.39390,0.08233
1990.46516,0.08219
1988.53641,0.08192
1986.60767,0.08165
1984.67892,0.08148
1982.75018,0.08132
1980.82143,0.08112
1978.89269,0.08094
1976.96394,0.08082
1975.03519,0.08068
1973.10645,0.08051
1971.17770,0.08036
1969.24896,0.08024
1967.32021,0.08001
1965.39147,0.07946
1963.46272,0.07876
1961.53398,0.07829
1959.60523,0.07826
1957.67649,0.07864
1955.74774,0.07910
1953.81900,0.07931
1951.89025,0.07938
1949.96151,0.07949
1948.03276,0.07951
1946.10402,0.07942
1944.17527,0.07934
1942.24652,0.07924
1940.31778,0.07906
1938.38903,0.07889
1936.46029,0.07868
1934.53154,0.07842
1932.60280,0.07824
1930.67405,0.07813
1928.74531,0.07791
1926.81656,0.07764
1924.88782,0.07739
1922.95907,0.07715
1921.03033,0.07696
1919.10158,0.07674
1917.17284,0.07634
1915.24409,0.07591
1913.31534,0.07551
1911.38660,0.07511
1909.45785,0.07480
1907.52911,0.07448
1905.60036,0.07396
1903.67162,0.07334
1901.74287,0.07283
1899.81413,0.07241
1897.88538,0.07186
1895.95664,0.07130
1894.02789,0.07095
1892.09915,0.07065
1890.17040,0.07023
1888.24166,0.06982
1886.31291,0.06956
1884.38417,0.06923
1882.45542,0.06879
1880.52667,0.06845
1878.59793,0.06828
1876.66918,0.06806
1874.74044,0.06768
1872.81169,0.06725
1870.88295,0.06695
1868.95420,0.06682
1867.02546,0.06671
1865.09671,0.06648
1863.16797,0.06612
1861.23922,0.06574
1859.31048,0.06561
1857.38173,0.06576
1855.45299,0.06590
1853.52424,0.06586
1851.59549,0.06565
1849.66675,0.06526
1847.73800,0.06472
1845.80926,0.06424
1843.88051,0.06396
1841.95177,0.06371
1840.02302,0.06319
1838.09428,0.06241
1836.16553,0.06170
1834.23679,0.06114
1832.30804,0.06051
1830.37930,0.05962
1828.45055,0.05863
1826.52181,0.05761
1824.59306,0.05642
1822.66432,0.05519
1820.73557,0.05417
1818.80682,0.05334
1816.87808,0.05248
1814.94933,0.05141
1813.02059,0.05017
1811.09184,0.04873
1809.16310,0.04689
1807.23435,0.04465
1805.30561,0.04209
1803.37686,0.03931
1801.44812,0.03684
1799.51937,0.03526
1797.59063,0.03459
1795.66188,0.03440
1793.73314,0.03454
1791.80439,0.03539
1789.87565,0.03705
1787.94690,0.03913
1786.01815,0.04116
1784.08941,0.04290
1782.16066,0.04438
1780.23192,0.04569
1778.30317,0.04673
1776.37443,0.04743
1774.44568,0.04788
1772.51694,0.04812
1770.58819,0.04810
1768.65945,0.04802
1766.73070,0.04807
1764.80196,0.04811
1762.87321,0.04791
1760.94447,0.04743
1759.01572,0.04680
1757.08697,0.04620
1755.15823,0.04590
1753.22948,0.04592
1751.30074,0.04580
1749.37199,0.04519
1747.44325,0.04450
1745.51450,0.04419
1743.58576,0.04400
1741.65701,0.04365
1739.72827,0.04331
1737.79952,0.04314
1735.87078,0.04310
1733.94203,0.04300
1732.01329,0.04283
1730.08454,0.04276
1728.15580,0.04279
1726.22705,0.04276
1724.29830,0.04262
1722.36956,0.04243
1720.44081,0.04222
1718.51207,0.04206
1716.58332,0.04199
1714.65458,0.04188
1712.72583,0.04162
1710.79709,0.04120
1708.86834,0.04073
1706.93960,0.04034
1705.01085,0.04005
1703.08211,0.03982
1701.15336,0.03947
1699.22462,0.03900
1697.29587,0.03856
1695.36713,0.03794
1693.43838,0.03716
1691.50963,0.03653
1689.58089,0.03607
1687.65214,0.03579
1685.72340,0.03560
1683.79465,0.03530
1681.86591,0.03499
1679.93716,0.03484
1678.00842,0.03474
1676.07967,0.03464
1674.15093,0.03460
1672.22218,0.03450
1670.29344,0.03422
1668.36469,0.03398
1666.43595,0.03396
1664.50720,0.03399
1662.57845,0.03394
1660.64971,0.03386
1658.72096,0.03368
1656.79222,0.03350
1654.86347,0.03350
1652.93473,0.03351
1651.00598,0.03353
1649.07724,0.03369
1647.14849,0.03370
1645.21975,0.03355
1643.29100,0.03360
1641.36226,0.03377
1639.43351,0.03379
1637.50477,0.03366
1635.57602,0.03355
1633.64728,0.03363
1631.71853,0.03388
1629.78978,0.03417
1627.86104,0.03444
1625.93229,0.03468
1624.00355,0.03494
1622.07480,0.03531
1620.14606,0.03574
1618.21731,0.03608
1616.28857,0.03649
1614.35982,0.03715
1612.43108,0.03790
1610.50233,0.03855
1608.57359,0.03905
1606.64484,0.03948
1604.71610,0.03993
1602.78735,0.04044
1600.85861,0.04092
1598.92986,0.04133
1597.00111,0.04172
1595.07237,0.04220
1593.14362,0.04288
1591.21488,0.04362
1589.28613,0.04424
1587.35739,0.04495
1585.42864,0.04598
1583.49990,0.04727
1581.57115,0.04870
1579.64241,0.05032
1577.71366,0.05230
1575.78492,0.05460
1573.85617,0.05678
1571.92743,0.05877
1569.99868,0.06086
1568.06993,0.06291
1566.14119,0.06469
1564.21244,0.06649
1562.28370,0.06854
1560.35495,0.07079
1558.42621,0.07306
1556.49746,0.07501
1554.56872,0.07676
1552.63997,0.07852
1550.71123,0.08025
1548.78248,0.08181
1546.85374,0.08319
1544.92499,0.08445
1542.99625,0.08548
1541.06750,0.08642
1539.13876,0.08758
1537.21001,0.08872
1535.28126,0.08957
1533.35252,0.09018
1531.42377,0.09059
1529.49503,0.09099
1527.56628,0.09156
1525.63754,0.09209
1523.70879,0.09231
1521.78005,0.09224
1519.85130,0.09203
1517.92256,0.09183
1515.99381,0.09171
1514.06507,0.09160
1512.13632,0.09134
1510.20758,0.09099
1508.27883,0.09081
1506.35008,0.09082
1504.42134,0.09085
1502.49259,0.09083
1500.56385,0.09078
1498.63510,0.09078
1496.70636,0.09088
1494.77761,0.09091
1492.84887,0.09068
1490.92012,0.09033
1488.99138,0.09015
1487.06263,0.09024
1485.13389,0.09035
1483.20514,0.09024
1481.27640,0.09008
1479.34765,0.09014
1477.41891,0.09028
1475.49016,0.09015
1473.56141,0.08985
1471.63267,0.08958
1469.70392,0.08942
1467.77518,0.08933
1465.84643,0.08924
1463.91769,0.08916
1461.98894,0.08913
1460.06020,0.08920
1458.13145,0.08926
1456.20271,0.08920
1454.27396,0.08904
1452.34522,0.08884
1450.41647,0.08870
1448.48773,0.08859
1446.55898,0.08843
1444.63024,0.08844
1442.70149,0.08867
1440.77274,0.08885
1438.84400,0.08898
1436.91525,0.08931
1434.98651,0.08983
1433.05776,0.09047
1431.12902,0.09125
1429.20027,0.09213
1427.27153,0.09302
1425.34278,0.09386
1423.41404,0.09479
1421.48529,0.09592
1419.55655,0.09733
1417.62780,0.09883
1415.69906,0.10017
1413.77031,0.10142
1411.84156,0.10265
1409.91282,0.10350
1407.98407,0.10340
1406.05533,0.10218
1404.12658,0.10020
1402.19784,0.09809
1400.26909,0.09623
1398.34035,0.09480
1396.41160,0.09372
1394.48286,0.09260
1392.55411,0.09128
1390.62537,0.08999
1388.69662,0.08868
1386.76788,0.08724
1384.83913,0.08609
1382.91039,0.08532
1380.98164,0.08446
1379.05289,0.08353
1377.12415,0.08286
1375.19540,0.08255
1373.26666,0.08243
1371.33791,0.08243
1369.40917,0.08253
1367.48042,0.08260
1365.55168,0.08272
1363.62293,0.08312
1361.69419,0.08360
1359.76544,0.08391
1357.83670,0.08410
1355.90795,0.08430
1353.97921,0.08452
1352.05046,0.08473
1350.12172,0.08485
1348.19297,0.08491
1346.26422,0.08497
1344.33548,0.08507
1342.40673,0.08514
1340.47799,0.08513
1338.54924,0.08510
1336.62050,0.08506
1334.69175,0.08506
1332.76301,0.08497
1330.83426,0.08470
1328.90552,0.08441
1326.97677,0.08410
1325.04803,0.08374
1323.11928,0.08345
1321.19054,0.08325
1319.26179,0.08317
1317.33304,0.08331
1315.40430,0.08365
1313.47555,0.08405
1311.54681,0.08448
1309.61806,0.08494
1307.68932,0.08543
1305.76057,0.08591
1303.83183,0.08623
1301.90308,0.08637
1299.97434,0.08658
1298.04559,0.08699
1296.11685,0.08743
1294.18810,0.08778
1292.25936,0.08802
1290.33061,0.08791
1288.40187,0.08743
1286.47312,0.08690
1284.54437,0.08660
1282.61563,0.08648
1280.68688,0.08644
1278.75814,0.08651
1276.82939,0.08653
1274.90065,0.08638
1272.97190,0.08615
1271.04316,0.08586
1269.11441,0.08546
1267.18567,0.08499
1265.25692,0.08458
1263.32818,0.08450
1261.39943,0.08476
1259.47069,0.08495
1257.54194,0.08494
1255.61320,0.08489
1253.68445,0.08477
1251.75570,0.08444
1249.82696,0.08406
1247.89821,0.08361
1245.96947,0.08296
1244.04072,0.08228
1242.11198,0.08166
1240.18323,0.08108
1238.25449,0.08066
1236.32574,0.08039
1234.39700,0.08013
1232.46825,0.07985
1230.53951,0.07945
1228.61076,0.07897
1226.68202,0.07858
1224.75327,0.07819
1222.82452,0.07780
1220.89578,0.07736
1218.96703,0.07676
1217.03829,0.07605
1215.10954,0.07536
1213.18080,0.07458
1211.25205,0.07361
1209.32331,0.07265
1207.39456,0.07186
1205.46582,0.07120
1203.53707,0.07052
1201.60833,0.06963
1199.67958,0.06857
1197.75084,0.06766
1195.82209,0.06695
1193.89335,0.06630
1191.96460,0.06569
1190.03585,0.06510
1188.10711,0.06454
1186.17836,0.06402
1184.24962,0.06345
1182.32087,0.06278
1180.39213,0.06208
1178.46338,0.06149
1176.53464,0.06117
1174.60589,0.06107
1172.67715,0.06106
1170.74840,0.06098
1168.81966,0.06058
1166.89091,0.06000
1164.96217,0.05962
1163.03342,0.05944
1161.10467,0.05940
1159.17593,0.05959
1157.24718,0.05996
1155.31844,0.06031
1153.38969,0.06065
1151.46095,0.06091
1149.53220,0.06106
1147.60346,0.06131
1145.67471,0.06152
1143.74597,0.06148
1141.81722,0.06134
1139.88848,0.06118
1137.95973,0.06086
1136.03099,0.06044
1134.10224,0.06020
1132.17350,0.06015
1130.24475,0.06016
1128.31600,0.06014
1126.38726,0.05980
1124.45851,0.05916
1122.52977,0.05866
1120.60102,0.05839
1118.67228,0.05826
1116.74353,0.05805
1114.81479,0.05749
1112.88604,0.05667
1110.95730,0.05587
1109.02855,0.05524
1107.09981,0.05484
1105.17106,0.05451
1103.24232,0.05404
1101.31357,0.05341
1099.38483,0.05286
1097.45608,0.05262
1095.52733,0.05241
1093.59859,0.05211
1091.66984,0.05186
1089.74110,0.05168
1087.81235,0.05155
1085.88361,0.05151
1083.95486,0.05148
1082.02612,0.05125
1080.09737,0.05098
1078.16863,0.05093
1076.23988,0.05082
1074.31114,0.05056
1072.38239,0.05046
1070.45365,0.05041
1068.52490,0.05013
1066.59615,0.04963
1064.66741,0.04911
1062.73866,0.04878
1060.80992,0.04845
1058.88117,0.04807
1056.95243,0.04801
1055.02368,0.04813
1053.09494,0.04804
1051.16619,0.04771
1049.23745,0.04727
1047.30870,0.04686
1045.37996,0.04657
1043.45121,0.04631
1041.52247,0.04626
1039.59372,0.04652
1037.66498,0.04675
1035.73623,0.04673
1033.80748,0.04653
1031.87874,0.04629
1029.94999,0.04622
1028.02125,0.04633
1026.09250,0.04652
1024.16376,0.04665
1022.23501,0.04653
1020.30627,0.04624
1018.37752,0.04602
1016.44878,0.04607
1014.52003,0.04652
1012.59129,0.04699
1010.66254,0.04706
1008.73380,0.04680
1006.80505,0.04640
1004.87631,0.04617
1002.94756,0.04618
1001.01881,0.04601
999.09007,0.04553
997.16132,0.04514
995.23258,0.04521
993.30383,0.04562
991.37509,0.04610
989.44634,0.04648
987.51760,0.04661
985.58885,0.04634
983.66011,0.04599
981.73136,0.04593
979.80262,0.04605
977.87387,0.04603
975.94513,0.04588
974.01638,0.04583
972.08763,0.04595
970.15889,0.04613
968.23014,0.04622
966.30140,0.04617
964.37265,0.04609
962.44391,0.04616
960.51516,0.04638
958.58642,0.04658
956.65767,0.04660
954.72893,0.04636
952.80018,0.04600
950.87144,0.04600
948.94269,0.04653
947.01395,0.04703
945.08520,0.04699
943.15646,0.04662
941.22771,0.04630
939.29896,0.04625
937.37022,0.04646
935.44147,0.04644
933.51273,0.04602
931.58398,0.04575
929.65524,0.04579
927.72649,0.04584
925.79775,0.04584
923.86900,0.04580
921.94026,0.04575
920.01151,0.04563
918.08277,0.04538
916.15402,0.04538
914.22528,0.04575
912.29653,0.04599
910.36779,0.04573
908.43904,0.04525
906.51029,0.04506
904.58155,0.04532
902.65280,0.04563
900.72406,0.04585
898.79531,0.04668
896.86657,0.04809
894.93782,0.04921
893.00908,0.04994
891.08033,0.05063
889.15159,0.05070
887.22284,0.04917
885.29410,0.04661
883.36535,0.04500
881.43661,0.04573
879.50786,0.04850
877.57911,0.05220
875.65037,0.05634
873.72162,0.06087
871.79288,0.06438
869.86413,0.06464
867.93539,0.06170
866.00664,0.05807
864.07790,0.05573
862.14915,0.05445
860.22041,0.05324
858.29166,0.05188
856.36292,0.05051
854.43417,0.04926
852.50543,0.04821
850.57668,0.04726
848.64794,0.04671
846.71919,0.04712
844.79044,0.04787
842.86170,0.04807
840.93295,0.04795
839.00421,0.04766
837.07546,0.04701
835.14672,0.04628
833.21797,0.04575
831.28923,0.04560
829.36048,0.04564
827.43174,0.04534
825.50299,0.04478
823.57425,0.04443
821.64550,0.04420
819.71676,0.04400
817.78801,0.04393
815.85926,0.04391
813.93052,0.04383
812.00177,0.04373
810.07303,0.04346
808.14428,0.04316
806.21554,0.04324
804.28679,0.04358
802.35805,0.04380
800.42930,0.04393
798.50056,0.04395
796.57181,0.04364
794.64307,0.04323
792.71432,0.04299
790.78558,0.04289
788.85683,0.04284
786.92809,0.04273
784.99934,0.04257
783.07059,0.04250
781.14185,0.04262
779.21310,0.04289
777.28436,0.04301
775.35561,0.04279
773.42687,0.04239
771.49812,0.04196
769.56938,0.04153
767.64063,0.04121
765.71189,0.04104
763.78314,0.04084
761.85440,0.04077
759.92565,0.04099
757.99691,0.04111
756.06816,0.04105
754.13942,0.04103
752.21067,0.04084
750.28192,0.04031
748.35318,0.03990
746.42443,0.04006
744.49569,0.04067
742.56694,0.04103
740.63820,0.04051
738.70945,0.03935
736.78071,0.03841
734.85196,0.03801
732.92322,0.03764
730.99447,0.03706
729.06573,0.03652
727.13698,0.03616
725.20824,0.03581
723.27949,0.03538
721.35074,0.03470
719.42200,0.03348
717.49325,0.03224
715.56451,0.03237
713.63576,0.03458
711.70702,0.03760
709.77827,0.03965
707.84953,0.04026
705.92078,0.04016
703.99204,0.04013
702.06329,0.04015
700.13455,0.03978
698.20580,0.03923
696.27706,0.03917
694.34831,0.03942
692.41957,0.03928
690.49082,0.03902
688.56207,0.03911
686.63333,0.03915
684.70458,0.03879
682.77584,0.03852
680.84709,0.03856
678.91835,0.03851
676.98960,0.03861
675.06086,0.03908
673.13211,0.03926
671.20337,0.03889
669.27462,0.03852
667.34588,0.03823
665.41713,0.03781
663.48839,0.03745
661.55964,0.03713
659.63090,0.03668
657.70215,0.03632
655.77340,0.03634
653.84466,0.03638
651.91591,0.03597
649.98717,0.03539
648.05842,0.03523
646.12968,0.03544
644.20093,0.03524
642.27219,0.03453
640.34344,0.03419
638.41470,0.03430
636.48595,0.03414
634.55721,0.03373
632.62846,0.03355
630.69972,0.03335
628.77097,0.03276
626.84222,0.03236
624.91348,0.03282
622.98473,0.03410
621.05599,0.03517
619.12724,0.03449
617.19850,0.03231
615.26975,0.03104
613.34101,0.03191
611.41226,0.03365
609.48352,0.03465
607.55477,0.03456
605.62603,0.03456
603.69728,0.03523
601.76854,0.03525
599.83979,0.03467
