7497.03301,0.19425
7495.10426,0.19565
7493.17552,0.19485
7491.24677,0.19425
7489.31803,0.19324
7487.38928,0.19270
7485.46054,0.19494
7483.53179,0.19727
7481.60305,0.19727
7479.67430,0.19520
7477.74556,0.19118
7475.81681,0.18713
7473.88807,0.18445
7471.95932,0.18237
7470.03057,0.18263
7468.10183,0.18749
7466.17308,0.19425
7464.24434,0.19952
7462.31559,0.20066
7460.38685,0.19614
7458.45810,0.19042
7456.52936,0.19061
7454.60061,0.19446
7452.67187,0.19371
7450.74312,0.19082
7448.81438,0.19339
7446.88563,0.19663
7444.95689,0.19579
7443.02814,0.19542
7441.09940,0.19596
7439.17065,0.19340
7437.24190,0.18919
7435.31316,0.18821
7433.38441,0.19206
7431.45567,0.19915
7429.52692,0.20412
7427.59818,0.20071
7425.66943,0.19287
7423.74069,0.18775
7421.81194,0.18381
7419.88320,0.18226
7417.95445,0.18827
7416.02571,0.19725
7414.09696,0.19995
7412.16822,0.19613
7410.23947,0.19221
7408.31073,0.19137
7406.38198,0.19343
7404.45323,0.19666
7402.52449,0.19781
7400.59574,0.19575
7398.66700,0.19306
7396.73825,0.19190
7394.80951,0.19073
7392.88076,0.18840
7390.95202,0.18656
7389.02327,0.18522
7387.09453,0.18374
7385.16578,0.18298
7383.23704,0.18450
7381.30829,0.18950
7379.37955,0.19530
7377.45080,0.19732
7375.52205,0.19658
7373.59331,0.19585
7371.66456,0.19486
7369.73582,0.19489
7367.80707,0.19476
7365.87833,0.19035
7363.94958,0.18765
7362.02084,0.19166
7360.09209,0.19496
7358.16335,0.19396
7356.23460,0.19365
7354.30586,0.19598
7352.37711,0.19860
7350.44837,0.20018
7348.51962,0.20196
7346.59088,0.20441
7344.66213,0.20429
7342.73338,0.19876
7340.80464,0.19078
7338.87589,0.18475
7336.94715,0.18210
7335.01840,0.18373
7333.08966,0.18961
7331.16091,0.19436
7329.23217,0.19306
7327.30342,0.18918
7325.37468,0.18803
7323.44593,0.18968
7321.51719,0.19119
7319.58844,0.19040
7317.65970,0.18961
7315.73095,0.19045
7313.80221,0.19113
7311.87346,0.19250
7309.94471,0.19417
7308.01597,0.19276
7306.08722,0.19060
7304.15848,0.19135
7302.22973,0.19311
7300.30099,0.19458
7298.37224,0.19642
7296.44350,0.19640
7294.51475,0.19223
7292.58601,0.18833
7290.65726,0.18998
7288.72852,0.19513
7286.79977,0.19923
7284.87103,0.19817
7282.94228,0.19295
7281.01353,0.19096
7279.08479,0.19338
7277.15604,0.19346
7275.22730,0.18885
7273.29855,0.18497
7271.36981,0.18631
7269.44106,0.18873
7267.51232,0.18709
7265.58357,0.18539
7263.65483,0.18822
7261.72608,0.19152
7259.79734,0.19134
7257.86859,0.19005
7255.93985,0.18961
7254.01110,0.18930
7252.08236,0.18989
7250.15361,0.19195
7248.22486,0.19275
7246.29612,0.18998
7244.36737,0.18789
7242.43863,0.19260
7240.50988,0.19994
7238.58114,0.20130
7236.65239,0.19927
7234.72365,0.19857
7232.79490,0.19530
7230.86616,0.18967
7228.93741,0.18779
7227.00867,0.18936
7225.07992,0.19199
7223.15118,0.19612
7221.22243,0.19951
7219.29369,0.19930
7217.36494,0.19705
7215.43619,0.19481
7213.50745,0.19341
7211.57870,0.19388
7209.64996,0.19547
7207.72121,0.19713
7205.79247,0.19840
7203.86372,0.19822
7201.93498,0.19634
7200.00623,0.19076
7198.07749,0.18412
7196.14874,0.18413
7194.22000,0.18782
7192.29125,0.18958
7190.36251,0.19224
7188.43376,0.19475
7186.50501,0.19308
7184.57627,0.18959
7182.64752,0.18800
7180.71878,0.18705
7178.79003,0.18585
7176.86129,0.18705
7174.93254,0.18890
7173.00380,0.18841
7171.07505,0.18820
7169.14631,0.18978
7167.21756,0.19233
7165.28882,0.19457
7163.36007,0.19495
7161.43133,0.19462
7159.50258,0.19460
7157.57384,0.19522
7155.64509,0.19694
7153.71634,0.19731
7151.78760,0.19577
7149.85885,0.19545
7147.93011,0.19593
7146.00136,0.19458
7144.07262,0.19309
7142.14387,0.19392
7140.21513,0.19513
7138.28638,0.19435
7136.35764,0.19293
7134.42889,0.19264
7132.50015,0.19214
7130.57140,0.19057
7128.64266,0.19029
7126.71391,0.19236
7124.78516,0.19553
7122.85642,0.19840
7120.92767,0.19854
7118.99893,0.19469
7117.07018,0.18990
7115.14144,0.18743
7113.21269,0.18625
7111.28395,0.18509
7109.35520,0.18501
7107.42646,0.18532
7105.49771,0.18705
7103.56897,0.19165
7101.64022,0.19434
7099.71148,0.19254
7097.78273,0.19117
7095.85399,0.19355
7093.92524,0.19594
7091.99649,0.19418
7090.06775,0.19143
7088.13900,0.19135
7086.21026,0.19204
7084.28151,0.19237
7082.35277,0.19311
7080.42402,0.19272
7078.49528,0.19204
7076.56653,0.19437
7074.63779,0.19824
7072.70904,0.19937
7070.78030,0.19639
7068.85155,0.19249
7066.92281,0.19095
7064.99406,0.18907
7063.06532,0.18522
7061.13657,0.18365
7059.20782,0.18542
7057.27908,0.18687
7055.35033,0.18727
7053.42159,0.18829
7051.49284,0.19001
7049.56410,0.19116
7047.63535,0.19125
7045.70661,0.19170
7043.77786,0.19321
7041.84912,0.19395
7039.92037,0.19350
7037.99163,0.19410
7036.06288,0.19584
7034.13414,0.19619
7032.20539,0.19447
7030.27664,0.19183
7028.34790,0.19036
7026.41915,0.19171
7024.49041,0.19409
7022.56166,0.19520
7020.63292,0.19523
7018.70417,0.19463
7016.77543,0.19245
7014.84668,0.18972
7012.91794,0.19011
7010.98919,0.19387
7009.06045,0.19693
7007.13170,0.19642
7005.20296,0.19391
7003.27421,0.19171
7001.34547,0.19045
6999.41672,0.19137
6997.48797,0.19401
6995.55923,0.19571
6993.63048,0.19557
6991.70174,0.19435
6989.77299,0.19314
6987.84425,0.19400
6985.91550,0.19684
6983.98676,0.19724
6982.05801,0.19408
6980.12927,0.19233
6978.20052,0.19419
6976.27178,0.19590
6974.34303,0.19582
6972.41429,0.19618
6970.48554,0.19724
6968.55680,0.19815
6966.62805,0.19770
6964.69930,0.19417
6962.77056,0.18997
6960.84181,0.18982
6958.91307,0.19480
6956.98432,0.20032
6955.05558,0.20097
6953.12683,0.19744
6951.19809,0.19472
6949.26934,0.19395
6947.34060,0.19142
6945.41185,0.18816
6943.48311,0.19009
6941.55436,0.19525
6939.62562,0.19607
6937.69687,0.19179
6935.76812,0.18836
6933.83938,0.18957
6931.91063,0.19225
6929.98189,0.19338
6928.05314,0.19485
6926.12440,0.19505
6924.19565,0.19214
6922.26691,0.19122
6920.33816,0.19419
6918.40942,0.19537
6916.48067,0.19275
6914.55193,0.19084
6912.62318,0.19175
6910.69444,0.19366
6908.76569,0.19467
6906.83695,0.19383
6904.90820,0.19292
6902.97945,0.19313
6901.05071,0.19332
6899.12196,0.19439
6897.19322,0.19666
6895.26447,0.19764
6893.33573,0.19744
6891.40698,0.19663
6889.47824,0.19324
6887.54949,0.18876
6885.62075,0.18734
6883.69200,0.18925
6881.76326,0.19170
6879.83451,0.19345
6877.90577,0.19448
6875.97702,0.19352
6874.04828,0.19130
6872.11953,0.18959
6870.19078,0.18797
6868.26204,0.18645
6866.33329,0.18594
6864.40455,0.18797
6862.47580,0.19237
6860.54706,0.19513
6858.61831,0.19544
6856.68957,0.19647
6854.76082,0.19813
6852.83208,0.19786
6850.90333,0.19592
6848.97459,0.19489
6847.04584,0.19538
6845.11710,0.19617
6843.18835,0.19829
6841.25960,0.20057
6839.33086,0.19870
6837.40211,0.19554
6835.47337,0.19643
6833.54462,0.19898
6831.61588,0.19886
6829.68713,0.19681
6827.75839,0.19603
6825.82964,0.19636
6823.90090,0.19552
6821.97215,0.19338
6820.04341,0.19153
6818.11466,0.19103
6816.18592,0.19201
6814.25717,0.19348
6812.32843,0.19399
6810.39968,0.19512
6808.47093,0.19900
6806.54219,0.20224
6804.61344,0.20078
6802.68470,0.19653
6800.75595,0.19430
6798.82721,0.19437
6796.89846,0.19270
6794.96972,0.18984
6793.04097,0.19030
6791.11223,0.19301
6789.18348,0.19380
6787.25474,0.19305
6785.32599,0.19235
6783.39725,0.19106
6781.46850,0.19087
6779.53975,0.19312
6777.61101,0.19417
6775.68226,0.19283
6773.75352,0.19231
6771.82477,0.19302
6769.89603,0.19425
6767.96728,0.19528
6766.03854,0.19369
6764.10979,0.18993
6762.18105,0.18856
6760.25230,0.19098
6758.32356,0.19357
6756.39481,0.19403
6754.46607,0.19330
6752.53732,0.19288
6750.60858,0.19386
6748.67983,0.19526
6746.75108,0.19394
6744.82234,0.19058
6742.89359,0.18966
6740.96485,0.19106
6739.03610,0.19238
6737.10736,0.19334
6735.17861,0.19453
6733.24987,0.19734
6731.32112,0.20081
6729.39238,0.20164
6727.46363,0.19874
6725.53489,0.19466
6723.60614,0.19309
6721.67740,0.19406
6719.74865,0.19499
6717.81991,0.19462
6715.89116,0.19330
6713.96241,0.19252
6712.03367,0.19347
6710.10492,0.19525
6708.17618,0.19633
6706.24743,0.19734
6704.31869,0.19917
6702.38994,0.20027
6700.46120,0.19923
6698.53245,0.19662
6696.60371,0.19513
6694.67496,0.19612
6692.74622,0.19669
6690.81747,0.19499
6688.88873,0.19320
6686.95998,0.19310
6685.03123,0.19392
6683.10249,0.19459
6681.17374,0.19556
6679.24500,0.19685
6677.31625,0.19805
6675.38751,0.19918
6673.45876,0.19923
6671.53002,0.19859
6669.60127,0.19838
6667.67253,0.19652
6665.74378,0.19205
6663.81504,0.18831
6661.88629,0.18727
6659.95755,0.18781
6658.02880,0.18954
6656.10006,0.19226
6654.17131,0.19390
6652.24256,0.19292
6650.31382,0.19106
6648.38507,0.19046
6646.45633,0.19100
6644.52758,0.19241
6642.59884,0.19359
6640.67009,0.19293
6638.74135,0.19147
6636.81260,0.19201
6634.88386,0.19469
6632.95511,0.19565
6631.02637,0.19418
6629.09762,0.19358
6627.16888,0.19397
6625.24013,0.19416
6623.31139,0.19496
6621.38264,0.19666
6619.45389,0.19803
6617.52515,0.19841
6615.59640,0.19806
6613.66766,0.19760
6611.73891,0.19762
6609.81017,0.19653
6607.88142,0.19438
6605.95268,0.19515
6604.02393,0.19831
6602.09519,0.19899
6600.16644,0.19687
6598.23770,0.19537
6596.30895,0.19624
6594.38021,0.19779
6592.45146,0.19746
6590.52271,0.19602
6588.59397,0.19605
6586.66522,0.19680
6584.73648,0.19655
6582.80773,0.19541
6580.87899,0.19366
6578.95024,0.19286
6577.02150,0.19384
6575.09275,0.19377
6573.16401,0.19289
6571.23526,0.19506
6569.30652,0.19832
6567.37777,0.19737
6565.44903,0.19451
6563.52028,0.19449
6561.59154,0.19518
6559.66279,0.19413
6557.73404,0.19352
6555.80530,0.19348
6553.87655,0.19261
6551.94781,0.19252
6550.01906,0.19434
6548.09032,0.19738
6546.16157,0.19945
6544.23283,0.19823
6542.30408,0.19609
6540.37534,0.19587
6538.44659,0.19578
6536.51785,0.19548
6534.58910,0.19660
6532.66036,0.19794
6530.73161,0.19744
6528.80287,0.19552
6526.87412,0.19434
6524.94537,0.19431
6523.01663,0.19425
6521.08788,0.19423
6519.15914,0.19479
6517.23039,0.19579
6515.30165,0.19618
6513.37290,0.19496
6511.44416,0.19354
6509.51541,0.19326
6507.58667,0.19367
6505.65792,0.19345
6503.72918,0.19255
6501.80043,0.19337
6499.87169,0.19608
6497.94294,0.19803
6496.01419,0.19850
6494.08545,0.19888
6492.15670,0.19984
6490.22796,0.19997
6488.29921,0.19887
6486.37047,0.19827
6484.44172,0.19865
6482.51298,0.19860
6480.58423,0.19716
6478.65549,0.19475
6476.72674,0.19286
6474.79800,0.19302
6472.86925,0.19415
6470.94051,0.19436
6469.01176,0.19468
6467.08302,0.19642
6465.15427,0.19893
6463.22552,0.20008
6461.29678,0.19905
6459.36803,0.19764
6457.43929,0.19683
6455.51054,0.19607
6453.58180,0.19503
6451.65305,0.19401
6449.72431,0.19413
6447.79556,0.19485
6445.86682,0.19496
6443.93807,0.19524
6442.00933,0.19629
6440.08058,0.19724
6438.15184,0.19738
6436.22309,0.19658
6434.29434,0.19486
6432.36560,0.19285
6430.43685,0.19167
6428.50811,0.19118
6426.57936,0.19133
6424.65062,0.19362
6422.72187,0.19705
6420.79313,0.19847
6418.86438,0.19753
6416.93564,0.19631
6415.00689,0.19636
6413.07815,0.19723
6411.14940,0.19760
6409.22066,0.19706
6407.29191,0.19654
6405.36317,0.19689
6403.43442,0.19704
6401.50567,0.19664
6399.57693,0.19695
6397.64818,0.19816
6395.71944,0.19930
6393.79069,0.19889
6391.86195,0.19772
6389.93320,0.19758
6388.00446,0.19785
6386.07571,0.19777
6384.14697,0.19781
6382.21822,0.19852
6380.28948,0.19833
6378.36073,0.19541
6376.43199,0.19306
6374.50324,0.19376
6372.57450,0.19446
6370.64575,0.19451
6368.71700,0.19584
6366.78826,0.19692
6364.85951,0.19600
6362.93077,0.19463
6361.00202,0.19450
6359.07328,0.19521
6357.14453,0.19533
6355.21579,0.19412
6353.28704,0.19243
6351.35830,0.19149
6349.42955,0.19195
6347.50081,0.19296
6345.57206,0.19267
6343.64332,0.19137
6341.71457,0.19160
6339.78582,0.19443
6337.85708,0.19774
6335.92833,0.19910
6333.99959,0.19883
6332.07084,0.19814
6330.14210,0.19700
6328.21335,0.19578
6326.28461,0.19570
6324.35586,0.19638
6322.42712,0.19659
6320.49837,0.19639
6318.56963,0.19645
6316.64088,0.19773
6314.71214,0.19982
6312.78339,0.20038
6310.85465,0.19924
6308.92590,0.19809
6306.99715,0.19671
6305.06841,0.19509
6303.13966,0.19456
6301.21092,0.19462
6299.28217,0.19440
6297.35343,0.19495
6295.42468,0.19657
6293.49594,0.19822
6291.56719,0.19902
6289.63845,0.19876
6287.70970,0.19803
6285.78096,0.19696
6283.85221,0.19521
6281.92347,0.19415
6279.99472,0.19561
6278.06598,0.19766
6276.13723,0.19731
6274.20848,0.19646
6272.27974,0.19763
6270.35099,0.19921
6268.42225,0.19965
6266.49350,0.19976
6264.56476,0.19938
6262.63601,0.19760
6260.70727,0.19591
6258.77852,0.19529
6256.84978,0.19482
6254.92103,0.19512
6252.99229,0.19640
6251.06354,0.19666
6249.13480,0.19587
6247.20605,0.19557
6245.27730,0.19559
6243.34856,0.19507
6241.41981,0.19398
6239.49107,0.19337
6237.56232,0.19500
6235.63358,0.19881
6233.70483,0.20181
6231.77609,0.20229
6229.84734,0.20126
6227.91860,0.19937
6225.98985,0.19721
6224.06111,0.19496
6222.13236,0.19314
6220.20362,0.19420
6218.27487,0.19743
6216.34613,0.19923
6214.41738,0.19948
6212.48863,0.19966
6210.55989,0.19838
6208.63114,0.19522
6206.70240,0.19345
6204.77365,0.19455
6202.84491,0.19636
6200.91616,0.19670
6198.98742,0.19573
6197.05867,0.19541
6195.12993,0.19632
6193.20118,0.19682
6191.27244,0.19605
6189.34369,0.19522
6187.41495,0.19545
6185.48620,0.19587
6183.55746,0.19600
6181.62871,0.19643
6179.69996,0.19679
6177.77122,0.19674
6175.84247,0.19690
6173.91373,0.19694
6171.98498,0.19604
6170.05624,0.19444
6168.12749,0.19375
6166.19875,0.19544
6164.27000,0.19846
6162.34126,0.19945
6160.41251,0.19714
6158.48377,0.19518
6156.55502,0.19615
6154.62628,0.19689
6152.69753,0.19553
6150.76878,0.19474
6148.84004,0.19535
6146.91129,0.19618
6144.98255,0.19714
6143.05380,0.19747
6141.12506,0.19640
6139.19631,0.19565
6137.26757,0.19662
6135.33882,0.19816
6133.41008,0.19918
6131.48133,0.19863
6129.55259,0.19596
6127.62384,0.19383
6125.69510,0.19445
6123.76635,0.19670
6121.83761,0.19892
6119.90886,0.19988
6117.98011,0.19893
6116.05137,0.19714
6114.12262,0.19634
6112.19388,0.19600
6110.26513,0.19507
6108.33639,0.19516
6106.40764,0.19687
6104.47890,0.19761
6102.55015,0.19575
6100.62141,0.19369
6098.69266,0.19359
6096.76392,0.19448
6094.83517,0.19507
6092.90643,0.19504
6090.97768,0.19543
6089.04893,0.19648
6087.12019,0.19619
6085.19144,0.19470
6083.26270,0.19442
6081.33395,0.19563
6079.40521,0.19655
6077.47646,0.19697
6075.54772,0.19780
6073.61897,0.19793
6071.69023,0.19670
6069.76148,0.19625
6067.83274,0.19732
6065.90399,0.19795
6063.97525,0.19737
6062.04650,0.19674
6060.11776,0.19719
6058.18901,0.19777
6056.26026,0.19710
6054.33152,0.19643
6052.40277,0.19692
6050.47403,0.19758
6048.54528,0.19759
6046.61654,0.19680
6044.68779,0.19539
6042.75905,0.19483
6040.83030,0.19617
6038.90156,0.19773
6036.97281,0.19789
6035.04407,0.19702
6033.11532,0.19645
6031.18658,0.19727
6029.25783,0.19841
6027.32909,0.19785
6025.40034,0.19585
6023.47159,0.19460
6021.54285,0.19465
6019.61410,0.19541
6017.68536,0.19724
6015.75661,0.19931
6013.82787,0.20007
6011.89912,0.19981
6009.97038,0.19939
6008.04163,0.19874
6006.11289,0.19758
6004.18414,0.19633
6002.25540,0.19590
6000.32665,0.19608
5998.39791,0.19542
5996.46916,0.19433
5994.54041,0.19432
5992.61167,0.19532
5990.68292,0.19638
5988.75418,0.19655
5986.82543,0.19615
5984.89669,0.19616
5982.96794,0.19633
5981.03920,0.19625
5979.11045,0.19583
5977.18171,0.19505
5975.25296,0.19518
5973.32422,0.19695
5971.39547,0.19821
5969.46673,0.19707
5967.53798,0.19528
5965.60924,0.19528
5963.68049,0.19677
5961.75174,0.19838
5959.82300,0.19989
5957.89425,0.20091
5955.96551,0.19989
5954.03676,0.19717
5952.10802,0.19570
5950.17927,0.19619
5948.25053,0.19697
5946.32178,0.19748
5944.39304,0.19779
5942.46429,0.19781
5940.53555,0.19755
5938.60680,0.19735
5936.67806,0.19755
5934.74931,0.19719
5932.82057,0.19564
5930.89182,0.19452
5928.96307,0.19500
5927.03433,0.19588
5925.10558,0.19617
5923.17684,0.19645
5921.24809,0.19708
5919.31935,0.19783
5917.39060,0.19875
5915.46186,0.19932
5913.53311,0.19862
5911.60437,0.19742
5909.67562,0.19702
5907.74688,0.19737
5905.81813,0.19802
5903.88939,0.19867
5901.96064,0.19902
5900.03189,0.19909
5898.10315,0.19926
5896.17440,0.19910
5894.24566,0.19867
5892.31691,0.19953
5890.38817,0.20108
5888.45942,0.20068
5886.53068,0.19828
5884.60193,0.19588
5882.67319,0.19456
5880.74444,0.19473
5878.81570,0.19680
5876.88695,0.19997
5874.95821,0.20207
5873.02946,0.20219
5871.10072,0.20130
5869.17197,0.20020
5867.24322,0.19918
5865.31448,0.19836
5863.38573,0.19787
5861.45699,0.19815
5859.52824,0.19849
5857.59950,0.19793
5855.67075,0.19735
5853.74201,0.19793
5851.81326,0.19909
5849.88452,0.19913
5847.95577,0.19826
5846.02703,0.19822
5844.09828,0.19896
5842.16954,0.19905
5840.24079,0.19828
5838.31205,0.19776
5836.38330,0.19822
5834.45455,0.19903
5832.52581,0.19874
5830.59706,0.19757
5828.66832,0.19735
5826.73957,0.19750
5824.81083,0.19665
5822.88208,0.19602
5820.95334,0.19615
5819.02459,0.19620
5817.09585,0.19660
5815.16710,0.19741
5813.23836,0.19763
5811.30961,0.19761
5809.38087,0.19779
5807.45212,0.19750
5805.52337,0.19740
5803.59463,0.19840
5801.66588,0.19941
5799.73714,0.19932
5797.80839,0.19875
5795.87965,0.19863
5793.95090,0.19910
5792.02216,0.19932
5790.09341,0.19832
5788.16467,0.19628
5786.23592,0.19490
5784.30718,0.19518
5782.37843,0.19600
5780.44969,0.19663
5778.52094,0.19747
5776.59220,0.19819
5774.66345,0.19852
5772.73470,0.19852
5770.80596,0.19783
5768.87721,0.19679
5766.94847,0.19657
5765.01972,0.19744
5763.09098,0.19857
5761.16223,0.19882
5759.23349,0.19809
5757.30474,0.19754
5755.37600,0.19772
5753.44725,0.19788
5751.51851,0.19763
5749.58976,0.19754
5747.66102,0.19757
5745.73227,0.19731
5743.80352,0.19702
5741.87478,0.19687
5739.94603,0.19700
5738.01729,0.19748
5736.08854,0.19808
5734.15980,0.19882
5732.23105,0.19957
5730.30231,0.19994
5728.37356,0.19968
5726.44482,0.19896
5724.51607,0.19842
5722.58733,0.19837
5720.65858,0.19824
5718.72984,0.19797
5716.80109,0.19789
5714.87235,0.19797
5712.94360,0.19832
5711.01485,0.19854
5709.08611,0.19808
5707.15736,0.19775
5705.22862,0.19801
5703.29987,0.19812
5701.37113,0.19790
5699.44238,0.19779
5697.51364,0.19811
5695.58489,0.19808
5693.65615,0.19695
5691.72740,0.19634
5689.79866,0.19726
5687.86991,0.19820
5685.94117,0.19856
5684.01242,0.19863
5682.08368,0.19826
5680.15493,0.19789
5678.22618,0.19820
5676.29744,0.19864
5674.36869,0.19830
5672.43995,0.19788
5670.51120,0.19823
5668.58246,0.19858
5666.65371,0.19828
5664.72497,0.19782
5662.79622,0.19792
5660.86748,0.19852
5658.93873,0.19840
5657.00999,0.19739
5655.08124,0.19690
5653.15250,0.19679
5651.22375,0.19627
5649.29500,0.19605
5647.36626,0.19659
5645.43751,0.19746
5643.50877,0.19822
5641.58002,0.19851
5639.65128,0.19828
5637.72253,0.19777
5635.79379,0.19740
5633.86504,0.19744
5631.93630,0.19755
5630.00755,0.19748
5628.07881,0.19776
5626.15006,0.19829
5624.22132,0.19842
5622.29257,0.19853
5620.36383,0.19898
5618.43508,0.19979
5616.50633,0.20077
5614.57759,0.20059
5612.64884,0.19953
5610.72010,0.19942
5608.79135,0.19955
5606.86261,0.19864
5604.93386,0.19750
5603.00512,0.19725
5601.07637,0.19827
5599.14763,0.19947
5597.21888,0.19926
5595.29014,0.19829
5593.36139,0.19776
5591.43265,0.19733
5589.50390,0.19721
5587.57516,0.19755
5585.64641,0.19742
5583.71766,0.19715
5581.78892,0.19777
5579.86017,0.19883
5577.93143,0.19911
5576.00268,0.19889
5574.07394,0.19937
5572.14519,0.19974
5570.21645,0.19892
5568.28770,0.19777
5566.35896,0.19723
5564.43021,0.19731
5562.50147,0.19752
5560.57272,0.19782
5558.64398,0.19861
5556.71523,0.19937
5554.78648,0.19927
5552.85774,0.19898
5550.92899,0.19950
5549.00025,0.20048
5547.07150,0.20109
5545.14276,0.20065
5543.21401,0.19901
5541.28527,0.19736
5539.35652,0.19702
5537.42778,0.19794
5535.49903,0.19878
5533.57029,0.19827
5531.64154,0.19706
5529.71280,0.19687
5527.78405,0.19752
5525.85531,0.19732
5523.92656,0.19640
5521.99781,0.19644
5520.06907,0.19747
5518.14032,0.19798
5516.21158,0.19806
5514.28283,0.19884
5512.35409,0.19958
5510.42534,0.19957
5508.49660,0.19941
5506.56785,0.19913
5504.63911,0.19876
5502.71036,0.19869
5500.78162,0.19855
5498.85287,0.19801
5496.92413,0.19738
5494.99538,0.19727
5493.06664,0.19789
5491.13789,0.19847
5489.20914,0.19851
5487.28040,0.19848
5485.35165,0.19844
5483.42291,0.19784
5481.49416,0.19704
5479.56542,0.19726
5477.63667,0.19833
5475.70793,0.19869
5473.77918,0.19784
5471.85044,0.19699
5469.92169,0.19740
5467.99295,0.19831
5466.06420,0.19822
5464.13546,0.19752
5462.20671,0.19707
5460.27796,0.19717
5458.34922,0.19803
5456.42047,0.19888
5454.49173,0.19878
5452.56298,0.19794
5450.63424,0.19713
5448.70549,0.19710
5446.77675,0.19769
5444.84800,0.19778
5442.91926,0.19725
5440.99051,0.19723
5439.06177,0.19792
5437.13302,0.19842
5435.20428,0.19827
5433.27553,0.19793
5431.34679,0.19807
5429.41804,0.19871
5427.48929,0.19886
5425.56055,0.19815
5423.63180,0.19760
5421.70306,0.19812
5419.77431,0.19920
5417.84557,0.19961
5415.91682,0.19935
5413.98808,0.19933
5412.05933,0.19910
5410.13059,0.19834
5408.20184,0.19797
5406.27310,0.19816
5404.34435,0.19835
5402.41561,0.19817
5400.48686,0.19762
5398.55811,0.19720
5396.62937,0.19740
5394.70062,0.19768
5392.77188,0.19764
5390.84313,0.19776
5388.91439,0.19784
5386.98564,0.19753
5385.05690,0.19759
5383.12815,0.19823
5381.19941,0.19873
5379.27066,0.19875
5377.34192,0.19837
5375.41317,0.19781
5373.48443,0.19762
5371.55568,0.19790
5369.62694,0.19806
5367.69819,0.19812
5365.76944,0.19835
5363.84070,0.19837
5361.91195,0.19826
5359.98321,0.19866
5358.05446,0.19926
5356.12572,0.19940
5354.19697,0.19883
5352.26823,0.19747
5350.33948,0.19616
5348.41074,0.19606
5346.48199,0.19679
5344.55325,0.19744
5342.62450,0.19826
5340.69576,0.19890
5338.76701,0.19824
5336.83827,0.19707
5334.90952,0.19697
5332.98077,0.19759
5331.05203,0.19789
5329.12328,0.19760
5327.19454,0.19718
5325.26579,0.19735
5323.33705,0.19793
5321.40830,0.19820
5319.47956,0.19810
5317.55081,0.19773
5315.62207,0.19718
5313.69332,0.19690
5311.76458,0.19681
5309.83583,0.19639
5307.90709,0.19591
5305.97834,0.19575
5304.04959,0.19542
5302.12085,0.19476
5300.19210,0.19432
5298.26336,0.19427
5296.33461,0.19447
5294.40587,0.19476
5292.47712,0.19476
5290.54838,0.19454
5288.61963,0.19472
5286.69089,0.19549
5284.76214,0.19603
5282.83340,0.19585
5280.90465,0.19530
5278.97591,0.19465
5277.04716,0.19422
5275.11842,0.19432
5273.18967,0.19423
5271.26092,0.19331
5269.33218,0.19271
5267.40343,0.19302
5265.47469,0.19307
5263.54594,0.19263
5261.61720,0.19226
5259.68845,0.19167
5257.75971,0.19091
5255.83096,0.19080
5253.90222,0.19138
5251.97347,0.19157
5250.04473,0.19088
5248.11598,0.19005
5246.18724,0.18949
5244.25849,0.18933
5242.32975,0.18968
5240.40100,0.18995
5238.47225,0.18977
5236.54351,0.18962
5234.61476,0.18965
5232.68602,0.18953
5230.75727,0.18887
5228.82853,0.18778
5226.89978,0.18712
5224.97104,0.18734
5223.04229,0.18770
5221.11355,0.18752
5219.18480,0.18751
5217.25606,0.18829
5215.32731,0.18889
5213.39857,0.18880
5211.46982,0.18890
5209.54107,0.18926
5207.61233,0.18923
5205.68358,0.18874
5203.75484,0.18807
5201.82609,0.18764
5199.89735,0.18786
5197.96860,0.18801
5196.03986,0.18728
5194.11111,0.18665
5192.18237,0.18698
5190.25362,0.18762
5188.32488,0.18831
5186.39613,0.18912
5184.46739,0.18922
5182.53864,0.18811
5180.60990,0.18688
5178.68115,0.18654
5176.75240,0.18677
5174.82366,0.18714
5172.89491,0.18741
5170.96617,0.18706
5169.03742,0.18640
5167.10868,0.18593
5165.17993,0.18581
5163.25119,0.18647
5161.32244,0.18725
5159.39370,0.18711
5157.46495,0.18669
5155.53621,0.18669
5153.60746,0.18700
5151.67872,0.18710
5149.74997,0.18691
5147.82123,0.18712
5145.89248,0.18745
5143.96373,0.18734
5142.03499,0.18751
5140.10624,0.18813
5138.17750,0.18846
5136.24875,0.18830
5134.32001,0.18808
5132.39126,0.18810
5130.46252,0.18836
5128.53377,0.18867
5126.60503,0.18866
5124.67628,0.18832
5122.74754,0.18801
5120.81879,0.18801
5118.89005,0.18835
5116.96130,0.18857
5115.03255,0.18861
5113.10381,0.18883
5111.17506,0.18892
5109.24632,0.18868
5107.31757,0.18851
5105.38883,0.18861
5103.46008,0.18888
5101.53134,0.18934
5099.60259,0.18979
5097.67385,0.18991
5095.74510,0.18980
5093.81636,0.18956
5091.88761,0.18940
5089.95887,0.18958
5088.03012,0.18981
5086.10138,0.18992
5084.17263,0.19015
5082.24388,0.19058
5080.31514,0.19079
5078.38639,0.19038
5076.45765,0.18970
5074.52890,0.18951
5072.60016,0.18978
5070.67141,0.18988
5068.74267,0.18962
5066.81392,0.18949
5064.88518,0.18984
5062.95643,0.19021
5061.02769,0.19010
5059.09894,0.19003
5057.17020,0.19044
5055.24145,0.19080
5053.31270,0.19078
5051.38396,0.19061
5049.45521,0.19024
5047.52647,0.18982
5045.59772,0.18988
5043.66898,0.19016
5041.74023,0.19038
5039.81149,0.19081
5037.88274,0.19143
5035.95400,0.19173
5034.02525,0.19165
5032.09651,0.19156
5030.16776,0.19148
5028.23902,0.19115
5026.31027,0.19074
5024.38153,0.19052
5022.45278,0.19059
5020.52403,0.19097
5018.59529,0.19130
5016.66654,0.19113
5014.73780,0.19087
5012.80905,0.19125
5010.88031,0.19212
5008.95156,0.19264
5007.02282,0.19229
5005.09407,0.19154
5003.16533,0.19125
5001.23658,0.19178
4999.30784,0.19266
4997.37909,0.19288
4995.45035,0.19211
4993.52160,0.19143
4991.59286,0.19177
4989.66411,0.19254
4987.73536,0.19269
4985.80662,0.19221
4983.87787,0.19188
4981.94913,0.19182
4980.02038,0.19170
4978.09164,0.19171
4976.16289,0.19159
4974.23415,0.19127
4972.30540,0.19155
4970.37666,0.19250
4968.44791,0.19329
4966.51917,0.19354
4964.59042,0.19369
4962.66168,0.19373
4960.73293,0.19318
4958.80418,0.19258
4956.87544,0.19261
4954.94669,0.19273
4953.01795,0.19255
4951.08920,0.19239
4949.16046,0.19230
4947.23171,0.19222
4945.30297,0.19249
4943.37422,0.19325
4941.44548,0.19405
4939.51673,0.19423
4937.58799,0.19386
4935.65924,0.19361
4933.73050,0.19355
4931.80175,0.19318
4929.87301,0.19289
4927.94426,0.19290
4926.01551,0.19254
4924.08677,0.19236
4922.15802,0.19295
4920.22928,0.19361
4918.30053,0.19393
4916.37179,0.19407
4914.44304,0.19408
4912.51430,0.19396
4910.58555,0.19376
4908.65681,0.19379
4906.72806,0.19420
4904.79932,0.19460
4902.87057,0.19452
4900.94183,0.19383
4899.01308,0.19303
4897.08434,0.19299
4895.15559,0.19348
4893.22684,0.19364
4891.29810,0.19376
4889.36935,0.19424
4887.44061,0.19464
4885.51186,0.19497
4883.58312,0.19527
4881.65437,0.19497
4879.72563,0.19445
4877.79688,0.19449
4875.86814,0.19470
4873.93939,0.19457
4872.01065,0.19429
4870.08190,0.19416
4868.15316,0.19397
4866.22441,0.19358
4864.29566,0.19329
4862.36692,0.19324
4860.43817,0.19322
4858.50943,0.19334
4856.58068,0.19360
4854.65194,0.19374
4852.72319,0.19395
4850.79445,0.19439
4848.86570,0.19472
4846.93696,0.19473
4845.00821,0.19459
4843.07947,0.19434
4841.15072,0.19405
4839.22198,0.19424
4837.29323,0.19476
4835.36449,0.19479
4833.43574,0.19433
4831.50699,0.19397
4829.57825,0.19379
4827.64950,0.19366
4825.72076,0.19391
4823.79201,0.19413
4821.86327,0.19360
4819.93452,0.19292
4818.00578,0.19291
4816.07703,0.19335
4814.14829,0.19368
4812.21954,0.19405
4810.29080,0.19474
4808.36205,0.19546
4806.43331,0.19580
4804.50456,0.19549
4802.57582,0.19476
4800.64707,0.19425
4798.71832,0.19436
4796.78958,0.19490
4794.86083,0.19541
4792.93209,0.19548
4791.00334,0.19495
4789.07460,0.19432
4787.14585,0.19425
4785.21711,0.19465
4783.28836,0.19490
4781.35962,0.19485
4779.43087,0.19485
4777.50213,0.19489
4775.57338,0.19493
4773.64464,0.19497
4771.71589,0.19480
4769.78714,0.19452
4767.85840,0.19438
4765.92965,0.19441
4764.00091,0.19459
4762.07216,0.19467
4760.14342,0.19442
4758.21467,0.19440
4756.28593,0.19488
4754.35718,0.19500
4752.42844,0.19469
4750.49969,0.19483
4748.57095,0.19534
4746.64220,0.19540
4744.71346,0.19487
4742.78471,0.19466
4740.85597,0.19515
4738.92722,0.19538
4736.99847,0.19499
4735.06973,0.19464
4733.14098,0.19437
4731.21224,0.19418
4729.28349,0.19433
4727.35475,0.19448
4725.42600,0.19466
4723.49726,0.19503
4721.56851,0.19521
4719.63977,0.19513
4717.71102,0.19523
4715.78228,0.19544
4713.85353,0.19525
4711.92479,0.19479
4709.99604,0.19467
4708.06729,0.19499
4706.13855,0.19527
4704.20980,0.19518
4702.28106,0.19496
4700.35231,0.19484
4698.42357,0.19474
4696.49482,0.19480
4694.56608,0.19522
4692.63733,0.19568
4690.70859,0.19571
4688.77984,0.19530
4686.85110,0.19486
4684.92235,0.19475
4682.99361,0.19464
4681.06486,0.19432
4679.13612,0.19422
4677.20737,0.19460
4675.27862,0.19516
4673.34988,0.19537
4671.42113,0.19526
4669.49239,0.19522
4667.56364,0.19508
4665.63490,0.19486
4663.70615,0.19490
4661.77741,0.19504
4659.84866,0.19500
4657.91992,0.19499
4655.99117,0.19495
4654.06243,0.19472
4652.13368,0.19476
4650.20494,0.19528
4648.27619,0.19561
4646.34745,0.19536
4644.41870,0.19495
4642.48995,0.19461
4640.56121,0.19409
4638.63246,0.19362
4636.70372,0.19387
4634.77497,0.19475
4632.84623,0.19540
4630.91748,0.19528
4628.98874,0.19468
4627.05999,0.19427
4625.13125,0.19432
4623.20250,0.19463
4621.27376,0.19492
4619.34501,0.19486
4617.41627,0.19461
4615.48752,0.19481
4613.55877,0.19527
4611.63003,0.19532
4609.70128,0.19514
4607.77254,0.19500
4605.84379,0.19480
4603.91505,0.19469
4601.98630,0.19468
4600.05756,0.19460
4598.12881,0.19466
4596.20007,0.19488
4594.27132,0.19480
4592.34258,0.19437
4590.41383,0.19404
4588.48509,0.19418
4586.55634,0.19453
4584.62760,0.19448
4582.69885,0.19427
4580.77010,0.19451
4578.84136,0.19476
4576.91261,0.19457
4574.98387,0.19431
4573.05512,0.19422
4571.12638,0.19420
4569.19763,0.19426
4567.26889,0.19433
4565.34014,0.19431
4563.41140,0.19436
4561.48265,0.19464
4559.55391,0.19500
4557.62516,0.19518
4555.69642,0.19495
4553.76767,0.19448
4551.83893,0.19415
4549.91018,0.19408
4547.98143,0.19419
4546.05269,0.19409
4544.12394,0.19374
4542.19520,0.19355
4540.26645,0.19330
4538.33771,0.19282
4536.40896,0.19260
4534.48022,0.19256
4532.55147,0.19244
4530.62273,0.19239
4528.69398,0.19261
4526.76524,0.19283
4524.83649,0.19292
4522.90775,0.19321
4520.97900,0.19344
4519.05025,0.19316
4517.12151,0.19282
4515.19276,0.19274
4513.26402,0.19256
4511.33527,0.19232
4509.40653,0.19247
4507.47778,0.19286
4505.54904,0.19277
4503.62029,0.19202
4501.69155,0.19111
4499.76280,0.19085
4497.83406,0.19137
4495.90531,0.19212
4493.97657,0.19256
4492.04782,0.19220
4490.11908,0.19157
4488.19033,0.19160
4486.26158,0.19204
4484.33284,0.19232
4482.40409,0.19227
4480.47535,0.19196
4478.54660,0.19166
4476.61786,0.19147
4474.68911,0.19116
4472.76037,0.19090
4470.83162,0.19101
4468.90288,0.19141
4466.97413,0.19167
4465.04539,0.19170
4463.11664,0.19201
4461.18790,0.19261
4459.25915,0.19298
4457.33041,0.19300
4455.40166,0.19251
4453.47291,0.19172
4451.54417,0.19143
4449.61542,0.19174
4447.68668,0.19214
4445.75793,0.19240
4443.82919,0.19245
4441.90044,0.19231
4439.97170,0.19221
4438.04295,0.19216
4436.11421,0.19195
4434.18546,0.19164
4432.25672,0.19143
4430.32797,0.19141
4428.39923,0.19149
4426.47048,0.19165
4424.54173,0.19187
4422.61299,0.19166
4420.68424,0.19108
4418.75550,0.19092
4416.82675,0.19121
4414.89801,0.19155
4412.96926,0.19182
4411.04052,0.19183
4409.11177,0.19154
4407.18303,0.19114
4405.25428,0.19077
4403.32554,0.19072
4401.39679,0.19096
4399.46805,0.19120
4397.53930,0.19136
4395.61056,0.19115
4393.68181,0.19071
4391.75306,0.19066
4389.82432,0.19080
4387.89557,0.19064
4385.96683,0.19047
4384.03808,0.19033
4382.10934,0.18992
4380.18059,0.18978
4378.25185,0.19023
4376.32310,0.19063
4374.39436,0.19074
4372.46561,0.19081
4370.53687,0.19067
4368.60812,0.19011
4366.67938,0.18947
4364.75063,0.18908
4362.82189,0.18898
4360.89314,0.18900
4358.96439,0.18898
4357.03565,0.18885
4355.10690,0.18865
4353.17816,0.18865
4351.24941,0.18888
4349.32067,0.18894
4347.39192,0.18862
4345.46318,0.18817
4343.53443,0.18799
4341.60569,0.18819
4339.67694,0.18863
4337.74820,0.18903
4335.81945,0.18901
4333.89071,0.18868
4331.96196,0.18837
4330.03321,0.18814
4328.10447,0.18800
4326.17572,0.18795
4324.24698,0.18787
4322.31823,0.18782
4320.38949,0.18782
4318.46074,0.18765
4316.53200,0.18732
4314.60325,0.18715
4312.67451,0.18724
4310.74576,0.18745
4308.81702,0.18754
4306.88827,0.18733
4304.95953,0.18707
4303.03078,0.18698
4301.10204,0.18683
4299.17329,0.18654
4297.24454,0.18644
4295.31580,0.18653
4293.38705,0.18647
4291.45831,0.18620
4289.52956,0.18591
4287.60082,0.18564
4285.67207,0.18549
4283.74333,0.18563
4281.81458,0.18572
4279.88584,0.18534
4277.95709,0.18472
4276.02835,0.18428
4274.09960,0.18412
4272.17086,0.18412
4270.24211,0.18420
4268.31336,0.18437
4266.38462,0.18448
4264.45587,0.18455
4262.52713,0.18468
4260.59838,0.18470
4258.66964,0.18462
4256.74089,0.18463
4254.81215,0.18446
4252.88340,0.18427
4250.95466,0.18476
4249.02591,0.18578
4247.09717,0.18637
4245.16842,0.18607
4243.23968,0.18567
4241.31093,0.18582
4239.38219,0.18612
4237.45344,0.18625
4235.52469,0.18635
4233.59595,0.18646
4231.66720,0.18653
4229.73846,0.18666
4227.80971,0.18704
4225.88097,0.18760
4223.95222,0.18794
4222.02348,0.18787
4220.09473,0.18756
4218.16599,0.18748
4216.23724,0.18782
4214.30850,0.18817
4212.37975,0.18826
4210.45101,0.18818
4208.52226,0.18800
4206.59352,0.18787
4204.66477,0.18770
4202.73602,0.18745
4200.80728,0.18724
4198.87853,0.18711
4196.94979,0.18713
4195.02104,0.18735
4193.09230,0.18733
4191.16355,0.18686
4189.23481,0.18642
4187.30606,0.18635
4185.37732,0.18657
4183.44857,0.18689
4181.51983,0.18704
4179.59108,0.18692
4177.66234,0.18670
4175.73359,0.18674
4173.80484,0.18706
4171.87610,0.18719
4169.94735,0.18698
4168.01861,0.18668
4166.08986,0.18634
4164.16112,0.18615
4162.23237,0.18632
4160.30363,0.18660
4158.37488,0.18688
4156.44614,0.18705
4154.51739,0.18677
4152.58865,0.18618
4150.65990,0.18582
4148.73116,0.18578
4146.80241,0.18576
4144.87367,0.18560
4142.94492,0.18533
4141.01617,0.18484
4139.08743,0.18436
4137.15868,0.18440
4135.22994,0.18484
4133.30119,0.18519
4131.37245,0.18515
4129.44370,0.18474
4127.51496,0.18418
4125.58621,0.18378
4123.65747,0.18388
4121.72872,0.18410
4119.79998,0.18374
4117.87123,0.18320
4115.94249,0.18300
4114.01374,0.18301
4112.08500,0.18320
4110.15625,0.18343
4108.22750,0.18338
4106.29876,0.18309
4104.37001,0.18267
4102.44127,0.18222
4100.51252,0.18184
4098.58378,0.18168
4096.65503,0.18167
4094.72629,0.18168
4092.79754,0.18171
4090.86880,0.18167
4088.94005,0.18140
4087.01131,0.18106
4085.08256,0.18103
4083.15382,0.18102
4081.22507,0.18070
4079.29632,0.18041
4077.36758,0.18027
4075.43883,0.17993
4073.51009,0.17929
4071.58134,0.17871
4069.65260,0.17857
4067.72385,0.17879
4065.79511,0.17908
4063.86636,0.17904
4061.93762,0.17854
4060.00887,0.17802
4058.08013,0.17783
4056.15138,0.17776
4054.22264,0.17761
4052.29389,0.17748
4050.36515,0.17747
4048.43640,0.17749
4046.50765,0.17743
4044.57891,0.17713
4042.65016,0.17659
4040.72142,0.17616
4038.79267,0.17601
4036.86393,0.17602
4034.93518,0.17602
4033.00644,0.17596
4031.07769,0.17602
4029.14895,0.17604
4027.22020,0.17558
4025.29146,0.17480
4023.36271,0.17419
4021.43397,0.17388
4019.50522,0.17376
4017.57648,0.17375
4015.64773,0.17378
4013.71898,0.17362
4011.79024,0.17327
4009.86149,0.17308
4007.93275,0.17310
4006.00400,0.17309
4004.07526,0.17295
4002.14651,0.17282
4000.21777,0.17277
3998.28902,0.17277
3996.36028,0.17283
3994.43153,0.17277
3992.50279,0.17250
3990.57404,0.17237
3988.64530,0.17261
3986.71655,0.17278
3984.78780,0.17256
3982.85906,0.17205
3980.93031,0.17160
3979.00157,0.17151
3977.07282,0.17164
3975.14408,0.17168
3973.21533,0.17158
3971.28659,0.17125
3969.35784,0.17085
3967.42910,0.17064
3965.50035,0.17054
3963.57161,0.17032
3961.64286,0.17015
3959.71412,0.17009
3957.78537,0.16993
3955.85663,0.16970
3953.92788,0.16942
3951.99913,0.16891
3950.07039,0.16833
3948.14164,0.16810
3946.21290,0.16833
3944.28415,0.16869
3942.35541,0.16870
3940.42666,0.16842
3938.49792,0.16837
3936.56917,0.16856
3934.64043,0.16875
3932.71168,0.16916
3930.78294,0.16977
3928.85419,0.17029
3926.92545,0.17069
3924.99670,0.17103
3923.06795,0.17132
3921.13921,0.17168
3919.21046,0.17230
3917.28172,0.17300
3915.35297,0.17355
3913.42423,0.17384
3911.49548,0.17398
3909.56674,0.17424
3907.63799,0.17467
3905.70925,0.17522
3903.78050,0.17581
3901.85176,0.17602
3899.92301,0.17587
3897.99427,0.17582
3896.06552,0.17593
3894.13678,0.17616
3892.20803,0.17635
3890.27928,0.17635
3888.35054,0.17638
3886.42179,0.17672
3884.49305,0.17705
3882.56430,0.17700
3880.63556,0.17680
3878.70681,0.17662
3876.77807,0.17639
3874.84932,0.17625
3872.92058,0.17634
3870.99183,0.17652
3869.06309,0.17641
3867.13434,0.17609
3865.20560,0.17606
3863.27685,0.17640
3861.34811,0.17686
3859.41936,0.17718
3857.49061,0.17706
3855.56187,0.17642
3853.63312,0.17573
3851.70438,0.17563
3849.77563,0.17578
3847.84689,0.17573
3845.91814,0.17568
3843.98940,0.17586
3842.06065,0.17598
3840.13191,0.17598
3838.20316,0.17618
3836.27442,0.17643
3834.34567,0.17634
3832.41693,0.17618
3830.48818,0.17629
3828.55943,0.17640
3826.63069,0.17621
3824.70194,0.17594
3822.77320,0.17579
3820.84445,0.17541
3818.91571,0.17483
3816.98696,0.17451
3815.05822,0.17450
3813.12947,0.17450
3811.20073,0.17447
3809.27198,0.17447
3807.34324,0.17437
3805.41449,0.17424
3803.48575,0.17415
3801.55700,0.17403
3799.62826,0.17393
3797.69951,0.17374
3795.77076,0.17333
3793.84202,0.17311
3791.91327,0.17326
3789.98453,0.17343
3788.05578,0.17330
3786.12704,0.17292
3784.19829,0.17258
3782.26955,0.17227
3780.34080,0.17190
3778.41206,0.17162
3776.48331,0.17148
3774.55457,0.17129
3772.62582,0.17106
3770.69708,0.17077
3768.76833,0.17041
3766.83959,0.17020
3764.91084,0.17013
3762.98209,0.16974
3761.05335,0.16911
3759.12460,0.16860
3757.19586,0.16808
3755.26711,0.16745
3753.33837,0.16695
3751.40962,0.16657
3749.48088,0.16603
3747.55213,0.16534
3745.62339,0.16453
3743.69464,0.16364
3741.76590,0.16279
3739.83715,0.16191
3737.90841,0.16099
3735.97966,0.15997
3734.05091,0.15894
3732.12217,0.15815
3730.19342,0.15740
3728.26468,0.15625
3726.33593,0.15473
3724.40719,0.15303
3722.47844,0.15118
3720.54970,0.14922
3718.62095,0.14716
3716.69221,0.14510
3714.76346,0.14326
3712.83472,0.14165
3710.90597,0.14001
3708.97723,0.13810
3707.04848,0.13603
3705.11974,0.13418
3703.19099,0.13273
3701.26224,0.13143
3699.33350,0.12993
3697.40475,0.12817
3695.47601,0.12641
3693.54726,0.12493
3691.61852,0.12345
3689.68977,0.12139
3687.76103,0.11902
3685.83228,0.11696
3683.90354,0.11507
3681.97479,0.11308
3680.04605,0.11115
3678.11730,0.10946
3676.18856,0.10747
3674.25981,0.10501
3672.33107,0.10285
3670.40232,0.10098
3668.47357,0.09891
3666.54483,0.09659
3664.61608,0.09434
3662.68734,0.09245
3660.75859,0.09072
3658.82985,0.08883
3656.90110,0.08685
3654.97236,0.08506
3653.04361,0.08368
3651.11487,0.08239
3649.18612,0.08059
3647.25738,0.07843
3645.32863,0.07662
3643.39989,0.07522
3641.47114,0.07390
3639.54239,0.07278
3637.61365,0.07200
3635.68490,0.07120
3633.75616,0.07007
3631.82741,0.06883
3629.89867,0.06784
3627.96992,0.06712
3626.04118,0.06651
3624.11243,0.06586
3622.18369,0.06508
3620.25494,0.06427
3618.32620,0.06349
3616.39745,0.06273
3614.46871,0.06219
3612.53996,0.06173
3610.61122,0.06111
3608.68247,0.06058
3606.75372,0.06032
3604.82498,0.06026
3602.89623,0.06020
3600.96749,0.05995
3599.03874,0.05965
3597.11000,0.05938
3595.18125,0.05895
3593.25251,0.05841
3591.32376,0.05811
3589.39502,0.05816
3587.46627,0.05837
3585.53753,0.05853
3583.60878,0.05856
3581.68004,0.05839
3579.75129,0.05808
3577.82254,0.05777
3575.89380,0.05751
3573.96505,0.05728
3572.03631,0.05712
3570.10756,0.05700
3568.17882,0.05669
3566.25007,0.05615
3564.32133,0.05562
3562.39258,0.05537
3560.46384,0.05539
3558.53509,0.05528
3556.60635,0.05492
3554.67760,0.05467
3552.74886,0.05456
3550.82011,0.05447
3548.89137,0.05451
3546.96262,0.05453
3545.03387,0.05436
3543.10513,0.05416
3541.17638,0.05399
3539.24764,0.05363
3537.31889,0.05309
3535.39015,0.05277
3533.46140,0.05277
3531.53266,0.05286
3529.60391,0.05306
3527.67517,0.05338
3525.74642,0.05352
3523.81768,0.05339
3521.88893,0.05321
3519.96019,0.05295
3518.03144,0.05245
3516.10270,0.05192
3514.17395,0.05173
3512.24520,0.05184
3510.31646,0.05193
3508.38771,0.05195
3506.45897,0.05193
3504.53022,0.05179
3502.60148,0.05165
3500.67273,0.05168
3498.74399,0.05166
3496.81524,0.05135
3494.88650,0.05099
3492.95775,0.05089
3491.02901,0.05096
3489.10026,0.05105
3487.17152,0.05107
3485.24277,0.05095
3483.31402,0.05091
3481.38528,0.05107
3479.45653,0.05108
3477.52779,0.05079
3475.59904,0.05044
3473.67030,0.05037
3471.74155,0.05069
3469.81281,0.05090
3467.88406,0.05045
3465.95532,0.04982
3464.02657,0.04968
3462.09783,0.04973
3460.16908,0.04967
3458.24034,0.04969
3456.31159,0.04962
3454.38285,0.04937
3452.45410,0.04947
3450.52535,0.04977
3448.59661,0.04961
3446.66786,0.04917
3444.73912,0.04907
3442.81037,0.04950
3440.88163,0.05003
3438.95288,0.05002
3437.02414,0.04950
3435.09539,0.04898
3433.16665,0.04858
3431.23790,0.04831
3429.30916,0.04832
3427.38041,0.04867
3425.45167,0.04910
3423.52292,0.04916
3421.59418,0.04894
3419.66543,0.04884
3417.73668,0.04897
3415.80794,0.04911
3413.87919,0.04904
3411.95045,0.04887
3410.02170,0.04882
3408.09296,0.04889
3406.16421,0.04901
3404.23547,0.04912
3402.30672,0.04906
3400.37798,0.04865
3398.44923,0.04804
3396.52049,0.04758
3394.59174,0.04737
3392.66300,0.04746
3390.73425,0.04780
3388.80550,0.04816
3386.87676,0.04829
3384.94801,0.04829
3383.01927,0.04845
3381.09052,0.04871
3379.16178,0.04891
3377.23303,0.04917
3375.30429,0.04942
3373.37554,0.04958
3371.44680,0.04956
3369.51805,0.04928
3367.58931,0.04906
3365.66056,0.04921
3363.73182,0.04941
3361.80307,0.04934
3359.87433,0.04900
3357.94558,0.04868
3356.01683,0.04867
3354.08809,0.04876
3352.15934,0.04876
3350.23060,0.04897
3348.30185,0.04934
3346.37311,0.04943
3344.44436,0.04923
3342.51562,0.04910
3340.58687,0.04900
3338.65813,0.04878
3336.72938,0.04876
3334.80064,0.04911
3332.87189,0.04946
3330.94315,0.04957
3329.01440,0.04952
3327.08566,0.04944
3325.15691,0.04944
3323.22816,0.04953
3321.29942,0.04967
3319.37067,0.04995
3317.44193,0.05020
3315.51318,0.05017
3313.58444,0.05009
3311.65569,0.05021
3309.72695,0.05033
3307.79820,0.05028
3305.86946,0.05017
3303.94071,0.05023
3302.01197,0.05051
3300.08322,0.05089
3298.15448,0.05118
3296.22573,0.05131
3294.29698,0.05127
3292.36824,0.05124
3290.43949,0.05131
3288.51075,0.05128
3286.58200,0.05101
3284.65326,0.05069
3282.72451,0.05061
3280.79577,0.05088
3278.86702,0.05128
3276.93828,0.05153
3275.00953,0.05164
3273.08079,0.05158
3271.15204,0.05129
3269.22330,0.05114
3267.29455,0.05146
3265.36581,0.05189
3263.43706,0.05200
3261.50831,0.05190
3259.57957,0.05191
3257.65082,0.05196
3255.72208,0.05205
3253.79333,0.05237
3251.86459,0.05282
3249.93584,0.05315
3248.00710,0.05322
3246.07835,0.05323
3244.14961,0.05340
3242.22086,0.05349
3240.29212,0.05344
3238.36337,0.05348
3236.43463,0.05353
3234.50588,0.05365
3232.57713,0.05392
3230.64839,0.05415
3228.71964,0.05424
3226.79090,0.05430
3224.86215,0.05430
3222.93341,0.05441
3221.00466,0.05482
3219.07592,0.05517
3217.14717,0.05516
3215.21843,0.05504
3213.28968,0.05515
3211.36094,0.05549
3209.43219,0.05575
3207.50345,0.05586
3205.57470,0.05610
3203.64596,0.05646
3201.71721,0.05672
3199.78846,0.05688
3197.85972,0.05695
3195.93097,0.05694
3194.00223,0.05693
3192.07348,0.05708
3190.14474,0.05742
3188.21599,0.05770
3186.28725,0.05766
3184.35850,0.05745
3182.42976,0.05742
3180.50101,0.05773
3178.57227,0.05809
3176.64352,0.05820
3174.71478,0.05836
3172.78603,0.05892
3170.85729,0.05960
3168.92854,0.06002
3166.99979,0.06021
3165.07105,0.06020
3163.14230,0.06002
3161.21356,0.05990
3159.28481,0.05985
3157.35607,0.06000
3155.42732,0.06046
3153.49858,0.06075
3151.56983,0.06070
3149.64109,0.06080
3147.71234,0.06119
3145.78360,0.06165
3143.85485,0.06191
3141.92611,0.06184
3139.99736,0.06162
3138.06861,0.06167
3136.13987,0.06205
3134.21112,0.06239
3132.28238,0.06253
3130.35363,0.06252
3128.42489,0.06248
3126.49614,0.06243
3124.56740,0.06239
3122.63865,0.06260
3120.70991,0.06309
3118.78116,0.06346
3116.85242,0.06359
3114.92367,0.06358
3112.99493,0.06347
3111.06618,0.06342
3109.13744,0.06354
3107.20869,0.06384
3105.27994,0.06410
3103.35120,0.06416
3101.42245,0.06425
3099.49371,0.06448
3097.56496,0.06468
3095.63622,0.06476
3093.70747,0.06488
3091.77873,0.06513
3089.84998,0.06542
3087.92124,0.06568
3085.99249,0.06584
3084.06375,0.06588
3082.13500,0.06583
3080.20626,0.06579
3078.27751,0.06581
3076.34877,0.06584
3074.42002,0.06596
3072.49127,0.06614
3070.56253,0.06634
3068.63378,0.06662
3066.70504,0.06678
3064.77629,0.06658
3062.84755,0.06636
3060.91880,0.06646
3058.99006,0.06668
3057.06131,0.06672
3055.13257,0.06668
3053.20382,0.06672
3051.27508,0.06687
3049.34633,0.06709
3047.41759,0.06734
3045.48884,0.06756
3043.56009,0.06772
3041.63135,0.06785
3039.70260,0.06773
3037.77386,0.06739
3035.84511,0.06710
3033.91637,0.06696
3031.98762,0.06700
3030.05888,0.06712
3028.13013,0.06717
3026.20139,0.06713
3024.27264,0.06698
3022.34390,0.06690
3020.41515,0.06719
3018.48641,0.06750
3016.55766,0.06739
3014.62892,0.06705
3012.70017,0.06682
3010.77142,0.06668
3008.84268,0.06661
3006.91393,0.06657
3004.98519,0.06648
3003.05644,0.06620
3001.12770,0.06563
2999.19895,0.06486
2997.27021,0.06400
2995.34146,0.06297
2993.41272,0.06178
2991.48397,0.06075
2989.55523,0.06002
2987.62648,0.05940
2985.69774,0.05889
2983.76899,0.05858
2981.84025,0.05846
2979.91150,0.05863
2977.98275,0.05901
2976.05401,0.05928
2974.12526,0.05926
2972.19652,0.05920
2970.26777,0.05920
2968.33903,0.05919
2966.41028,0.05931
2964.48154,0.05953
2962.55279,0.05952
2960.62405,0.05945
2958.69530,0.05958
2956.76656,0.05983
2954.83781,0.05999
2952.90907,0.06003
2950.98032,0.06005
2949.05157,0.05997
2947.12283,0.05974
2945.19408,0.05957
2943.26534,0.05968
2941.33659,0.05986
2939.40785,0.05980
2937.47910,0.05959
2935.55036,0.05932
2933.62161,0.05900
2931.69287,0.05904
2929.76412,0.05942
2927.83538,0.05958
2925.90663,0.05949
2923.97789,0.05959
2922.04914,0.05987
2920.12040,0.05995
2918.19165,0.05992
2916.26290,0.06011
2914.33416,0.06043
2912.40541,0.06075
2910.47667,0.06109
2908.54792,0.06142
2906.61918,0.06154
2904.69043,0.06125
2902.76169,0.06096
2900.83294,0.06110
2898.90420,0.06129
2896.97545,0.06121
2895.04671,0.06110
2893.11796,0.06100
2891.18922,0.06071
2889.26047,0.06021
2887.33172,0.05969
2885.40298,0.05919
2883.47423,0.05858
2881.54549,0.05793
2879.61674,0.05742
2877.68800,0.05707
2875.75925,0.05698
2873.83051,0.05712
2871.90176,0.05736
2869.97302,0.05767
2868.04427,0.05803
2866.11553,0.05845
2864.18678,0.05891
2862.25804,0.05941
2860.32929,0.05992
2858.40055,0.06041
2856.47180,0.06096
2854.54305,0.06158
2852.61431,0.06220
2850.68556,0.06285
2848.75682,0.06375
2846.82807,0.06504
2844.89933,0.06649
2842.97058,0.06781
2841.04184,0.06906
2839.11309,0.07030
2837.18435,0.07147
2835.25560,0.07261
2833.32686,0.07388
2831.39811,0.07528
2829.46937,0.07663
2827.54062,0.07784
2825.61188,0.07887
2823.68313,0.07966
2821.75438,0.08023
2819.82564,0.08063
2817.89689,0.08084
2815.96815,0.08105
2814.03940,0.08145
2812.11066,0.08201
2810.18191,0.08262
2808.25317,0.08310
2806.32442,0.08331
2804.39568,0.08351
2802.46693,0.08398
2800.53819,0.08461
2798.60944,0.08508
2796.68070,0.08550
2794.75195,0.08604
2792.82320,0.08666
2790.89446,0.08724
2788.96571,0.08756
2787.03697,0.08776
2785.10822,0.08816
2783.17948,0.08870
2781.25073,0.08912
2779.32199,0.08943
2777.39324,0.08976
2775.46450,0.09007
2773.53575,0.09031
2771.60701,0.09054
2769.67826,0.09090
2767.74952,0.09131
2765.82077,0.09147
2763.89203,0.09143
2761.96328,0.09154
2760.03453,0.09184
2758.10579,0.09219
2756.17704,0.09260
2754.24830,0.09299
2752.31955,0.09323
2750.39081,0.09334
2748.46206,0.09339
2746.53332,0.09348
2744.60457,0.09361
2742.67583,0.09387
2740.74708,0.09423
2738.81834,0.09450
2736.88959,0.09457
2734.96085,0.09462
2733.03210,0.09483
2731.10336,0.09511
2729.17461,0.09532
2727.24586,0.09548
2725.31712,0.09563
2723.38837,0.09582
2721.45963,0.09594
2719.53088,0.09593
2717.60214,0.09586
2715.67339,0.09590
2713.74465,0.09616
2711.81590,0.09654
2709.88716,0.09686
2707.95841,0.09712
2706.02967,0.09726
2704.10092,0.09712
2702.17218,0.09693
2700.24343,0.09705
2698.31468,0.09740
2696.38594,0.09766
2694.45719,0.09772
2692.52845,0.09761
2690.59970,0.09754
2688.67096,0.09770
2686.74221,0.09800
2684.81347,0.09816
2682.88472,0.09811
2680.95598,0.09803
2679.02723,0.09795
2677.09849,0.09793
2675.16974,0.09803
2673.24100,0.09805
2671.31225,0.09788
2669.38351,0.09755
2667.45476,0.09713
2665.52601,0.09688
2663.59727,0.09699
2661.66852,0.09708
2659.73978,0.09686
2657.81103,0.09664
2655.88229,0.09661
2653.95354,0.09655
2652.02480,0.09626
2650.09605,0.09590
2648.16731,0.09555
2646.23856,0.09512
2644.30982,0.09467
2642.38107,0.09412
2640.45233,0.09310
2638.52358,0.09175
2636.59484,0.09053
2634.66609,0.08949
2632.73734,0.08838
2630.80860,0.08714
2628.87985,0.08581
2626.95111,0.08446
2625.02236,0.08314
2623.09362,0.08212
2621.16487,0.08150
2619.23613,0.08084
2617.30738,0.07994
2615.37864,0.07905
2613.44989,0.07831
2611.52115,0.07755
2609.59240,0.07669
2607.66366,0.07589
2605.73491,0.07538
2603.80616,0.07501
2601.87742,0.07453
2599.94867,0.07391
2598.01993,0.07324
2596.09118,0.07272
2594.16244,0.07245
2592.23369,0.07227
2590.30495,0.07214
2588.37620,0.07196
2586.44746,0.07165
2584.51871,0.07142
2582.58997,0.07121
2580.66122,0.07085
2578.73248,0.07055
2576.80373,0.07049
2574.87499,0.07049
2572.94624,0.07042
2571.01749,0.07033
2569.08875,0.07020
2567.16000,0.07000
2565.23126,0.06982
2563.30251,0.06966
2561.37377,0.06947
2559.44502,0.06923
2557.51628,0.06878
2555.58753,0.06815
2553.65879,0.06758
2551.73004,0.06713
2549.80130,0.06664
2547.87255,0.06615
2545.94381,0.06581
2544.01506,0.06545
2542.08631,0.06485
2540.15757,0.06389
2538.22882,0.06258
2536.30008,0.06116
2534.37133,0.05972
2532.44259,0.05812
2530.51384,0.05648
2528.58510,0.05512
2526.65635,0.05415
2524.72761,0.05339
2522.79886,0.05272
2520.87012,0.05220
2518.94137,0.05195
2517.01263,0.05185
2515.08388,0.05181
2513.15514,0.05192
2511.22639,0.05217
2509.29764,0.05262
2507.36890,0.05341
2505.44015,0.05454
2503.51141,0.05592
2501.58266,0.05742
2499.65392,0.05893
2497.72517,0.06068
2495.79643,0.06291
2493.86768,0.06521
2491.93894,0.06712
2490.01019,0.06885
2488.08145,0.07078
2486.15270,0.07279
2484.22396,0.07453
2482.29521,0.07604
2480.36647,0.07763
2478.43772,0.07942
2476.50897,0.08132
2474.58023,0.08323
2472.65148,0.08504
2470.72274,0.08675
2468.79399,0.08828
2466.86525,0.08946
2464.93650,0.09043
2463.00776,0.09146
2461.07901,0.09254
2459.15027,0.09356
2457.22152,0.09447
2455.29278,0.09529
2453.36403,0.09601
2451.43529,0.09661
2449.50654,0.09730
2447.57779,0.09805
2445.64905,0.09859
2443.72030,0.09896
2441.79156,0.09950
2439.86281,0.10020
2437.93407,0.10070
2436.00532,0.10094
2434.07658,0.10105
2432.14783,0.10121
2430.21909,0.10155
2428.29034,0.10202
2426.36160,0.10246
2424.43285,0.10283
2422.50411,0.10318
2420.57536,0.10346
2418.64662,0.10358
2416.71787,0.10356
2414.78912,0.10360
2412.86038,0.10381
2410.93163,0.10407
2409.00289,0.10424
2407.07414,0.10438
2405.14540,0.10458
2403.21665,0.10470
2401.28791,0.10465
2399.35916,0.10456
2397.43042,0.10450
2395.50167,0.10440
2393.57293,0.10425
2391.64418,0.10434
2389.71544,0.10466
2387.78669,0.10486
2385.85795,0.10486
2383.92920,0.10480
2382.00045,0.10474
2380.07171,0.10473
2378.14296,0.10474
2376.21422,0.10464
2374.28547,0.10451
2372.35673,0.10452
2370.42798,0.10451
2368.49924,0.10436
2366.57049,0.10432
2364.64175,0.10446
2362.71300,0.10448
2360.78426,0.10428
2358.85551,0.10407
2356.92677,0.10393
2354.99802,0.10365
2353.06927,0.10326
2351.14053,0.10312
2349.21178,0.10330
2347.28304,0.10349
2345.35429,0.10344
2343.42555,0.10316
2341.49680,0.10292
2339.56806,0.10295
2337.63931,0.10321
2335.71057,0.10340
2333.78182,0.10330
2331.85308,0.10297
2329.92433,0.10253
2327.99559,0.10223
2326.06684,0.10221
2324.13810,0.10218
2322.20935,0.10197
2320.28060,0.10169
2318.35186,0.10145
2316.42311,0.10125
2314.49437,0.10118
2312.56562,0.10121
2310.63688,0.10118
2308.70813,0.10107
2306.77939,0.10094
2304.85064,0.10090
2302.92190,0.10092
2300.99315,0.10077
2299.06441,0.10050
2297.13566,0.10039
2295.20692,0.10050
2293.27817,0.10072
2291.34943,0.10085
2289.42068,0.10074
2287.49193,0.10039
2285.56319,0.09994
2283.63444,0.09968
2281.70570,0.09973
2279.77695,0.09969
2277.84821,0.09937
2275.91946,0.09906
2273.99072,0.09888
2272.06197,0.09864
2270.13323,0.09839
2268.20448,0.09832
2266.27574,0.09838
2264.34699,0.09823
2262.41825,0.09778
2260.48950,0.09734
2258.56075,0.09714
2256.63201,0.09710
2254.70326,0.09707
2252.77452,0.09686
2250.84577,0.09647
2248.91703,0.09610
2246.98828,0.09579
2245.05954,0.09548
2243.13079,0.09529
2241.20205,0.09529
2239.27330,0.09520
2237.34456,0.09498
2235.41581,0.09485
2233.48707,0.09470
2231.55832,0.09444
2229.62958,0.09416
2227.70083,0.09388
2225.77208,0.09359
2223.84334,0.09337
2221.91459,0.09328
2219.98585,0.09319
2218.05710,0.09299
2216.12836,0.09279
2214.19961,0.09265
2212.27087,0.09257
2210.34212,0.09249
2208.41338,0.09241
2206.48463,0.09239
2204.55589,0.09244
2202.62714,0.09247
2200.69840,0.09244
2198.76965,0.09233
2196.84090,0.09218
2194.91216,0.09192
2192.98341,0.09155
2191.05467,0.09136
2189.12592,0.09145
2187.19718,0.09154
2185.26843,0.09145
2183.33969,0.09126
2181.41094,0.09104
2179.48220,0.09080
2177.55345,0.09068
2175.62471,0.09058
2173.69596,0.09034
2171.76722,0.09003
2169.83847,0.08971
2167.90973,0.08938
2165.98098,0.08910
2164.05223,0.08885
2162.12349,0.08845
2160.19474,0.08788
2158.26600,0.08721
2156.33725,0.08654
2154.40851,0.08592
2152.47976,0.08517
2150.55102,0.08430
2148.62227,0.08364
2146.69353,0.08331
2144.76478,0.08307
2142.83604,0.08287
2140.90729,0.08289
2138.97855,0.08305
2137.04980,0.08316
2135.12106,0.08329
2133.19231,0.08365
2131.26356,0.08426
2129.33482,0.08482
2127.40607,0.08529
2125.47733,0.08586
2123.54858,0.08656
2121.61984,0.08727
2119.69109,0.08785
2117.76235,0.08825
2115.83360,0.08855
2113.90486,0.08891
2111.97611,0.08936
2110.04737,0.08968
2108.11862,0.08979
2106.18988,0.08987
2104.26113,0.09000
2102.33238,0.09014
2100.40364,0.09026
2098.47489,0.09040
2096.54615,0.09057
2094.61740,0.09074
2092.68866,0.09082
2090.75991,0.09086
2088.83117,0.09086
2086.90242,0.09078
2084.97368,0.09066
2083.04493,0.09057
2081.11619,0.09043
2079.18744,0.09033
2077.25870,0.09033
2075.32995,0.09028
2073.40121,0.09008
2071.47246,0.08984
2069.54371,0.08968
2067.61497,0.08957
2065.68622,0.08945
2063.75748,0.08936
2061.82873,0.08929
2059.89999,0.08921
2057.97124,0.08915
2056.04250,0.08898
2054.11375,0.08860
2052.18501,0.08817
2050.25626,0.08793
2048.32752,0.08791
2046.39877,0.08783
2044.47003,0.08751
2042.54128,0.08714
2040.61254,0.08681
2038.68379,0.08649
2036.75504,0.08627
2034.82630,0.08615
2032.89755,0.08600
2030.96881,0.08584
2029.04006,0.08572
2027.11132,0.08553
2025.18257,0.08529
2023.25383,0.08511
2021.32508,0.08494
2019.39634,0.08469
2017.46759,0.08445
2015.53885,0.08422
2013.61010,0.08388
2011.68136,0.08345
2009.75261,0.08311
2007.82386,0.08289
2005.89512,0.08273
2003.96637,0.08255
2002.03763,0.08237
2000.10888,0.08215
1998.18014,0.08187
1996.25139,0.08159
1994.32265,0.08138
1992.39390,0.08122
1990.46516,0.08116
1988.53641,0.08114
1986.60767,0.08099
1984.67892,0.08074
1982.75018,0.08059
1980.82143,0.08047
1978.89269,0.08035
1976.96394,0.08027
1975.03519,0.08019
1973.10645,0.08009
1971.17770,0.07999
1969.24896,0.07974
1967.32021,0.07924
1965.39147,0.07861
1963.46272,0.07799
1961.53398,0.07755
1959.60523,0.07755
1957.67649,0.07800
1955.74774,0.07852
1953.81900,0.07882
1951.89025,0.07883
1949.96151,0.07870
1948.03276,0.07862
1946.10402,0.07853
1944.17527,0.07838
1942.24652,0.07826
1940.31778,0.07816
1938.38903,0.07811
1936.46029,0.07805
1934.53154,0.07783
1932.60280,0.07751
1930.67405,0.07730
1928.74531,0.07714
1926.81656,0.07698
1924.88782,0.07678
1922.95907,0.07644
1921.03033,0.07605
1919.10158,0.07574
1917.17284,0.07549
1915.24409,0.07534
1913.31534,0.07521
1911.38660,0.07487
1909.45785,0.07434
1907.52911,0.07384
1905.60036,0.07341
1903.67162,0.07287
1901.74287,0.07223
1899.81413,0.07171
1897.88538,0.07141
1895.95664,0.07111
1894.02789,0.07070
1892.09915,0.07029
1890.17040,0.06999
1888.24166,0.06967
1886.31291,0.06926
1884.38417,0.06886
1882.45542,0.06856
1880.52667,0.06823
1878.59793,0.06781
1876.66918,0.06742
1874.74044,0.06705
1872.81169,0.06675
1870.88295,0.06662
1868.95420,0.06661
1867.02546,0.06641
1865.09671,0.06598
1863.16797,0.06559
1861.23922,0.06539
1859.31048,0.06524
1857.38173,0.06499
1855.45299,0.06479
1853.52424,0.06486
1851.59549,0.06497
1849.66675,0.06482
1847.73800,0.06452
1845.80926,0.06420
1843.88051,0.06378
1841.95177,0.06326
1840.02302,0.06280
1838.09428,0.06233
1836.16553,0.06164
1834.23679,0.06078
1832.30804,0.05992
1830.37930,0.05912
1828.45055,0.05827
1826.52181,0.05721
1824.59306,0.05604
1822.66432,0.05494
1820.73557,0.05394
1818.80682,0.05305
1816.87808,0.05218
1814.94933,0.05118
1813.02059,0.04995
1811.09184,0.04845
1809.16310,0.04667
1807.23435,0.04455
1805.30561,0.04207
1803.37686,0.03944
1801.44812,0.03701
1799.51937,0.03519
1797.59063,0.03431
1795.66188,0.03421
1793.73314,0.03457
1791.80439,0.03546
1789.87565,0.03705
1787.94690,0.03902
1786.01815,0.04092
1784.08941,0.04262
1782.16066,0.04415
1780.23192,0.04543
1778.30317,0.04640
1776.37443,0.04706
1774.44568,0.04748
1772.51694,0.04778
1770.58819,0.04796
1768.65945,0.04786
1766.73070,0.04763
1764.80196,0.04756
1762.87321,0.04751
1760.94447,0.04718
1759.01572,0.04667
1757.08697,0.04625
1755.15823,0.04601
1753.22948,0.04574
1751.30074,0.04534
1749.37199,0.04487
1747.44325,0.04447
1745.51450,0.04422
1743.58576,0.04398
1741.65701,0.04357
1739.72827,0.04303
1737.79952,0.04264
1735.87078,0.04247
1733.94203,0.04232
1732.01329,0.04221
1730.08454,0.04225
1728.15580,0.04228
1726.22705,0.04226
1724.29830,0.04221
1722.36956,0.04209
1720.44081,0.04205
1718.51207,0.04210
1716.58332,0.04192
1714.65458,0.04165
1712.72583,0.04147
1710.79709,0.04112
1708.86834,0.04057
1706.93960,0.04008
1705.01085,0.03976
1703.08211,0.03951
1701.15336,0.03909
1699.22462,0.03856
1697.29587,0.03807
1695.36713,0.03753
1693.43838,0.03695
1691.50963,0.03636
1689.58089,0.03578
1687.65214,0.03538
1685.72340,0.03512
1683.79465,0.03480
1681.86591,0.03455
1679.93716,0.03447
1678.00842,0.03440
1676.07967,0.03435
1674.15093,0.03430
1672.22218,0.03418
1670.29344,0.03401
1668.36469,0.03388
1666.43595,0.03376
1664.50720,0.03354
1662.57845,0.03336
1660.64971,0.03336
1658.72096,0.03340
1656.79222,0.03340
1654.86347,0.03332
1652.93473,0.03317
1651.00598,0.03323
1649.07724,0.03341
1647.14849,0.03336
1645.21975,0.03315
1643.29100,0.03317
1641.36226,0.03339
1639.43351,0.03360
1637.50477,0.03367
1635.57602,0.03361
1633.64728,0.03366
1631.71853,0.03379
1629.78978,0.03385
1627.86104,0.03391
1625.93229,0.03421
1624.00355,0.03485
1622.07480,0.03547
1620.14606,0.03576
1618.21731,0.03601
1616.28857,0.03655
1614.35982,0.03720
1612.43108,0.03780
1610.50233,0.03842
1608.57359,0.03896
1606.64484,0.03933
1604.71610,0.03970
1602.78735,0.04018
1600.85861,0.04059
1598.92986,0.04099
1597.00111,0.04162
1595.07237,0.04239
1593.14362,0.04290
1591.21488,0.04314
1589.28613,0.04353
1587.35739,0.04425
1585.42864,0.04532
1583.49990,0.04679
1581.57115,0.04850
1579.64241,0.05019
1577.71366,0.05199
1575.78492,0.05419
1573.85617,0.05649
1571.92743,0.05858
1569.99868,0.06073
1568.06993,0.06278
1566.14119,0.06454
1564.21244,0.06633
1562.28370,0.06821
1560.35495,0.07002
1558.42621,0.07204
1556.49746,0.07416
1554.56872,0.07624
1552.63997,0.07829
1550.71123,0.08005
1548.78248,0.08149
1546.85374,0.08286
1544.92499,0.08421
1542.99625,0.08548
1541.06750,0.08673
1539.13876,0.08785
1537.21001,0.08875
1535.28126,0.08960
1533.35252,0.09031
1531.42377,0.09071
1529.49503,0.09094
1527.56628,0.09128
1525.63754,0.09176
1523.70879,0.09215
1521.78005,0.09220
1519.85130,0.09194
1517.92256,0.09157
1515.99381,0.09126
1514.06507,0.09121
1512.13632,0.09134
1510.20758,0.09134
1508.27883,0.09120
1506.35008,0.09102
1504.42134,0.09092
1502.49259,0.09089
1500.56385,0.09092
1498.63510,0.09092
1496.70636,0.09078
1494.77761,0.09055
1492.84887,0.09045
1490.92012,0.09043
1488.99138,0.09036
1487.06263,0.09026
1485.13389,0.09011
1483.20514,0.08992
1481.27640,0.08974
1479.34765,0.08958
1477.41891,0.08950
1475.49016,0.08947
1473.56141,0.08949
1471.63267,0.08944
1469.70392,0.08918
1467.77518,0.08892
1465.84643,0.08882
1463.91769,0.08864
1461.98894,0.08840
1460.06020,0.08841
1458.13145,0.08874
1456.20271,0.08904
1454.27396,0.08898
1452.34522,0.08870
1450.41647,0.08849
1448.48773,0.08851
1446.55898,0.08857
1444.63024,0.08862
1442.70149,0.08878
1440.77274,0.08886
1438.84400,0.08872
1436.91525,0.08871
1434.98651,0.08913
1433.05776,0.08988
1431.12902,0.09095
1429.20027,0.09213
1427.27153,0.09301
1425.34278,0.09375
1423.41404,0.09473
1421.48529,0.09584
1419.55655,0.09694
1417.62780,0.09814
1415.69906,0.09949
1413.77031,0.10097
1411.84156,0.10228
1409.91282,0.10303
1407.98407,0.10298
1406.05533,0.10198
1404.12658,0.10017
1402.19784,0.09819
1400.26909,0.09652
1398.34035,0.09515
1396.41160,0.09387
1394.48286,0.09246
1392.55411,0.09097
1390.62537,0.08970
1388.69662,0.08867
1386.76788,0.08754
1384.83913,0.08630
1382.91039,0.08524
1380.98164,0.08437
1379.05289,0.08361
1377.12415,0.08310
1375.19540,0.08285
1373.26666,0.08263
1371.33791,0.08241
1369.40917,0.08229
1367.48042,0.08237
1365.55168,0.08266
1363.62293,0.08298
1361.69419,0.08322
1359.76544,0.08353
1357.83670,0.08401
1355.90795,0.08442
1353.97921,0.08458
1352.05046,0.08474
1350.12172,0.08500
1348.19297,0.08517
1346.26422,0.08517
1344.33548,0.08523
1342.40673,0.08536
1340.47799,0.08525
1338.54924,0.08498
1336.62050,0.08488
1334.69175,0.08491
1332.76301,0.08484
1330.83426,0.08458
1328.90552,0.08422
1326.97677,0.08391
1325.04803,0.08367
1323.11928,0.08345
1321.19054,0.08328
1319.26179,0.08326
1317.33304,0.08332
1315.40430,0.08341
1313.47555,0.08365
1311.54681,0.08408
1309.61806,0.08471
1307.68932,0.08537
1305.76057,0.08580
1303.83183,0.08601
1301.90308,0.08621
1299.97434,0.08652
1298.04559,0.08692
1296.11685,0.08726
1294.18810,0.08739
1292.25936,0.08732
1290.33061,0.08719
1288.40187,0.08703
1286.47312,0.08686
1284.54437,0.08664
1282.61563,0.08629
1280.68688,0.08598
1278.75814,0.08588
1276.82939,0.08583
1274.90065,0.08572
1272.97190,0.08562
1271.04316,0.08544
1269.11441,0.08518
1267.18567,0.08496
1265.25692,0.08478
1263.32818,0.08468
1261.39943,0.08466
1259.47069,0.08465
1257.54194,0.08466
1255.61320,0.08456
1253.68445,0.08422
1251.75570,0.08377
1249.82696,0.08333
1247.89821,0.08293
1245.96947,0.08254
1244.04072,0.08203
1242.11198,0.08138
1240.18323,0.08075
1238.25449,0.08040
1236.32574,0.08027
1234.39700,0.08005
1232.46825,0.07972
1230.53951,0.07948
1228.61076,0.07926
1226.68202,0.07895
1224.75327,0.07841
1222.82452,0.07766
1220.89578,0.07695
1218.96703,0.07644
1217.03829,0.07604
1215.10954,0.07549
1213.18080,0.07456
1211.25205,0.07342
1209.32331,0.07240
1207.39456,0.07156
1205.46582,0.07071
1203.53707,0.06994
1201.60833,0.06937
1199.67958,0.06873
1197.75084,0.06792
1195.82209,0.06725
1193.89335,0.06670
1191.96460,0.06598
1190.03585,0.06506
1188.10711,0.06424
1186.17836,0.06369
1184.24962,0.06326
1182.32087,0.06283
1180.39213,0.06230
1178.46338,0.06177
1176.53464,0.06133
1174.60589,0.06094
1172.67715,0.06064
1170.74840,0.06040
1168.81966,0.06015
1166.89091,0.05988
1164.96217,0.05963
1163.03342,0.05947
1161.10467,0.05945
1159.17593,0.05954
1157.24718,0.05985
1155.31844,0.06039
1153.38969,0.06097
1151.46095,0.06123
1149.53220,0.06113
1147.60346,0.06099
1145.67471,0.06100
1143.74597,0.06106
1141.81722,0.06117
1139.88848,0.06118
1137.95973,0.06100
1136.03099,0.06083
1134.10224,0.06065
1132.17350,0.06022
1130.24475,0.05976
1128.31600,0.05957
1126.38726,0.05947
1124.45851,0.05937
1122.52977,0.05928
1120.60102,0.05903
1118.67228,0.05854
1116.74353,0.05801
1114.81479,0.05747
1112.88604,0.05681
1110.95730,0.05624
1109.02855,0.05582
1107.09981,0.05512
1105.17106,0.05409
1103.24232,0.05336
1101.31357,0.05329
1099.38483,0.05336
1097.45608,0.05310
1095.52733,0.05271
1093.59859,0.05246
1091.66984,0.05211
1089.74110,0.05153
1087.81235,0.05094
1085.88361,0.05057
1083.95486,0.05045
1082.02612,0.05053
1080.09737,0.05080
1078.16863,0.05124
1076.23988,0.05159
1074.31114,0.05150
1072.38239,0.05112
1070.45365,0.05070
1068.52490,0.05012
1066.59615,0.04951
1064.66741,0.04917
1062.73866,0.04914
1060.80992,0.04914
1058.88117,0.04877
1056.95243,0.04819
1055.02368,0.04784
1053.09494,0.04775
1051.16619,0.04766
1049.23745,0.04749
1047.30870,0.04729
1045.37996,0.04710
1043.45121,0.04690
1041.52247,0.04679
1039.59372,0.04690
1037.66498,0.04714
1035.73623,0.04712
1033.80748,0.04672
1031.87874,0.04644
1029.94999,0.04646
1028.02125,0.04642
1026.09250,0.04614
1024.16376,0.04596
1022.23501,0.04610
1020.30627,0.04634
1018.37752,0.04642
1016.44878,0.04637
1014.52003,0.04630
1012.59129,0.04627
1010.66254,0.04631
1008.73380,0.04630
1006.80505,0.04621
1004.87631,0.04625
1002.94756,0.04631
1001.01881,0.04624
999.09007,0.04618
997.16132,0.04627
995.23258,0.04640
993.30383,0.04639
991.37509,0.04628
989.44634,0.04619
987.51760,0.04616
985.58885,0.04616
983.66011,0.04612
981.73136,0.04603
979.80262,0.04601
977.87387,0.04609
975.94513,0.04621
974.01638,0.04617
972.08763,0.04589
970.15889,0.04571
968.23014,0.04594
966.30140,0.04622
964.37265,0.04609
962.44391,0.04571
960.51516,0.04560
958.58642,0.04575
956.65767,0.04579
954.72893,0.04590
952.80018,0.04644
950.87144,0.04694
948.94269,0.04690
947.01395,0.04667
945.08520,0.04657
943.15646,0.04643
941.22771,0.04621
939.29896,0.04596
937.37022,0.04574
935.44147,0.04573
933.51273,0.04595
931.58398,0.04619
929.65524,0.04628
927.72649,0.04627
925.79775,0.04612
923.86900,0.04586
921.94026,0.04571
920.01151,0.04566
918.08277,0.04543
916.15402,0.04501
914.22528,0.04488
912.29653,0.04502
910.36779,0.04485
908.43904,0.04456
906.51029,0.04476
904.58155,0.04531
902.65280,0.04595
900.72406,0.04674
898.79531,0.04758
896.86657,0.04837
894.93782,0.04924
893.00908,0.05031
891.08033,0.05108
889.15159,0.05068
887.22284,0.04877
885.29410,0.04607
883.36535,0.04432
881.43661,0.04487
879.50786,0.04762
877.57911,0.05155
875.65037,0.05592
873.72162,0.06038
871.79288,0.06394
869.86413,0.06461
867.93539,0.06200
866.00664,0.05861
864.07790,0.05625
862.14915,0.05456
860.22041,0.05304
858.29166,0.05164
856.36292,0.05045
854.43417,0.04945
852.50543,0.04840
850.57668,0.04734
848.64794,0.04660
846.71919,0.04654
844.79044,0.04692
842.86170,0.04715
840.93295,0.04710
839.00421,0.04690
837.07546,0.04653
835.14672,0.04591
833.21797,0.04521
831.28923,0.04465
829.36048,0.04449
827.43174,0.04476
825.50299,0.04492
823.57425,0.04470
821.64550,0.04456
819.71676,0.04468
817.78801,0.04466
815.85926,0.04444
813.93052,0.04445
812.00177,0.04442
810.07303,0.04416
808.14428,0.04406
806.21554,0.04394
804.28679,0.04350
802.35805,0.04318
800.42930,0.04312
798.50056,0.04306
796.57181,0.04316
794.64307,0.04339
792.71432,0.04333
790.78558,0.04318
788.85683,0.04318
786.92809,0.04287
784.99934,0.04220
783.07059,0.04178
781.14185,0.04174
779.21310,0.04170
777.28436,0.04151
775.35561,0.04137
773.42687,0.04145
771.49812,0.04177
769.56938,0.04213
767.64063,0.04207
765.71189,0.04147
763.78314,0.04096
761.85440,0.04083
759.92565,0.04069
757.99691,0.04043
756.06816,0.04042
754.13942,0.04071
752.21067,0.04078
750.28192,0.04034
748.35318,0.03979
746.42443,0.03947
744.49569,0.03922
742.56694,0.03890
740.63820,0.03866
738.70945,0.03850
736.78071,0.03828
734.85196,0.03789
732.92322,0.03731
730.99447,0.03684
729.06573,0.03672
727.13698,0.03650
725.20824,0.03601
723.27949,0.03538
721.35074,0.03428
719.42200,0.03268
717.49325,0.03167
715.56451,0.03242
713.63576,0.03492
711.70702,0.03775
709.77827,0.03943
707.84953,0.03978
705.92078,0.03943
703.99204,0.03903
702.06329,0.03872
700.13455,0.03811
698.20580,0.03769
696.27706,0.03831
694.34831,0.03936
692.41957,0.03952
690.49082,0.03888
688.56207,0.03865
686.63333,0.03903
684.70458,0.03895
682.77584,0.03816
680.84709,0.03793
678.91835,0.03882
676.98960,0.03970
675.06086,0.03965
673.13211,0.03924
671.20337,0.03926
669.27462,0.03934
667.34588,0.03874
665.41713,0.03778
663.48839,0.03712
661.55964,0.03688
659.63090,0.03660
657.70215,0.03588
655.77340,0.03533
653.84466,0.03546
651.91591,0.03557
649.98717,0.03509
648.05842,0.03444
646.12968,0.03407
644.20093,0.03385
642.27219,0.03382
640.34344,0.03465
638.41470,0.03597
636.48595,0.03606
634.55721,0.03490
632.62846,0.03393
630.69972,0.03306
628.77097,0.03191
626.84222,0.03134
624.91348,0.03204
622.98473,0.03340
621.05599,0.03375
619.12724,0.03249
617.19850,0.03129
615.26975,0.03150
613.34101,0.03250
611.41226,0.03335
609.48352,0.03446
607.55477,0.03607
605.62603,0.03708
603.69728,0.03693
601.76854,0.03645
599.83979,0.03592
