7497.03301,0.19259
7495.10426,0.19992
7493.17552,0.20411
7491.24677,0.20082
7489.31803,0.19130
7487.38928,0.18451
7485.46054,0.18662
7483.53179,0.19462
7481.60305,0.20142
7479.67430,0.20391
7477.74556,0.20281
7475.81681,0.19842
7473.88807,0.19269
7471.95932,0.19186
7470.03057,0.19788
7468.10183,0.20286
7466.17308,0.20216
7464.24434,0.20025
7462.31559,0.20147
7460.38685,0.20291
7458.45810,0.20050
7456.52936,0.19809
7454.60061,0.19842
7452.67187,0.19914
7450.74312,0.19844
7448.81438,0.19560
7446.88563,0.19256
7444.95689,0.19076
7443.02814,0.19026
7441.09940,0.19238
7439.17065,0.19511
7437.24190,0.19562
7435.31316,0.19581
7433.38441,0.19759
7431.45567,0.19682
7429.52692,0.19238
7427.59818,0.19055
7425.66943,0.19232
7423.74069,0.19243
7421.81194,0.19026
7419.88320,0.19022
7417.95445,0.19444
7416.02571,0.19975
7414.09696,0.20129
7412.16822,0.19828
7410.23947,0.19571
7408.31073,0.19582
7406.38198,0.19519
7404.45323,0.19206
7402.52449,0.18779
7400.59574,0.18475
7398.66700,0.18624
7396.73825,0.19112
7394.80951,0.19244
7392.88076,0.18885
7390.95202,0.18788
7389.02327,0.19116
7387.09453,0.19329
7385.16578,0.19336
7383.23704,0.19175
7381.30829,0.18939
7379.37955,0.19066
7377.45080,0.19278
7375.52205,0.19045
7373.59331,0.18777
7371.66456,0.18873
7369.73582,0.19120
7367.80707,0.19149
7365.87833,0.18995
7363.94958,0.19136
7362.02084,0.19434
7360.09209,0.19414
7358.16335,0.19190
7356.23460,0.18997
7354.30586,0.18875
7352.37711,0.18965
7350.44837,0.19303
7348.51962,0.19404
7346.59088,0.19008
7344.66213,0.18816
7342.73338,0.19268
7340.80464,0.19723
7338.87589,0.19553
7336.94715,0.19061
7335.01840,0.18613
7333.08966,0.18301
7331.16091,0.18338
7329.23217,0.18576
7327.30342,0.18770
7325.37468,0.19003
7323.44593,0.19217
7321.51719,0.19215
7319.58844,0.19081
7317.65970,0.19257
7315.73095,0.19674
7313.80221,0.19619
7311.87346,0.19157
7309.94471,0.19076
7308.01597,0.19251
7306.08722,0.19145
7304.15848,0.19160
7302.22973,0.19600
7300.30099,0.19971
7298.37224,0.20044
7296.44350,0.20004
7294.51475,0.19798
7292.58601,0.19287
7290.65726,0.18941
7288.72852,0.19074
7286.79977,0.19302
7284.87103,0.19473
7282.94228,0.19594
7281.01353,0.19461
7279.08479,0.19254
7277.15604,0.19322
7275.22730,0.19459
7273.29855,0.19326
7271.36981,0.19185
7269.44106,0.19422
7267.51232,0.19831
7265.58357,0.19877
7263.65483,0.19615
7261.72608,0.19584
7259.79734,0.19879
7257.86859,0.20163
7255.93985,0.20226
7254.01110,0.20136
7252.08236,0.19937
7250.15361,0.19577
7248.22486,0.19201
7246.29612,0.19060
7244.36737,0.19215
7242.43863,0.19395
7240.50988,0.19555
7238.58114,0.19800
7236.65239,0.19848
7234.72365,0.19703
7232.79490,0.19651
7230.86616,0.19775
7228.93741,0.19980
7227.00867,0.19923
7225.07992,0.19707
7223.15118,0.19785
7221.22243,0.19968
7219.29369,0.19920
7217.36494,0.19639
7215.43619,0.19101
7213.50745,0.18592
7211.57870,0.18575
7209.64996,0.18913
7207.72121,0.19090
7205.79247,0.18934
7203.86372,0.18820
7201.93498,0.19055
7200.00623,0.19317
7198.07749,0.19355
7196.14874,0.19369
7194.22000,0.19470
7192.29125,0.19367
7190.36251,0.18983
7188.43376,0.18732
7186.50501,0.18786
7184.57627,0.19029
7182.64752,0.19342
7180.71878,0.19664
7178.79003,0.20063
7176.86129,0.20364
7174.93254,0.20262
7173.00380,0.19727
7171.07505,0.19125
7169.14631,0.18999
7167.21756,0.19374
7165.28882,0.19755
7163.36007,0.19881
7161.43133,0.19846
7159.50258,0.19808
7157.57384,0.19768
7155.64509,0.19615
7153.71634,0.19371
7151.78760,0.19227
7149.85885,0.19253
7147.93011,0.19240
7146.00136,0.19006
7144.07262,0.18796
7142.14387,0.18950
7140.21513,0.19383
7138.28638,0.19794
7136.35764,0.19897
7134.42889,0.19573
7132.50015,0.19135
7130.57140,0.19033
7128.64266,0.19317
7126.71391,0.19607
7124.78516,0.19687
7122.85642,0.19573
7120.92767,0.19154
7118.99893,0.18594
7117.07018,0.18363
7115.14144,0.18467
7113.21269,0.18507
7111.28395,0.18421
7109.35520,0.18485
7107.42646,0.18843
7105.49771,0.19328
7103.56897,0.19579
7101.64022,0.19530
7099.71148,0.19307
7097.78273,0.18799
7095.85399,0.18240
7093.92524,0.18236
7091.99649,0.18843
7090.06775,0.19468
7088.13900,0.19576
7086.21026,0.19423
7084.28151,0.19450
7082.35277,0.19533
7080.42402,0.19567
7078.49528,0.19590
7076.56653,0.19452
7074.63779,0.19332
7072.70904,0.19453
7070.78030,0.19457
7068.85155,0.19196
7066.92281,0.18887
7064.99406,0.18706
7063.06532,0.18902
7061.13657,0.19142
7059.20782,0.19077
7057.27908,0.19063
7055.35033,0.19015
7053.42159,0.18926
7051.49284,0.19270
7049.56410,0.19748
7047.63535,0.19846
7045.70661,0.19600
7043.77786,0.19180
7041.84912,0.18836
7039.92037,0.18758
7037.99163,0.18910
7036.06288,0.19241
7034.13414,0.19626
7032.20539,0.19788
7030.27664,0.19574
7028.34790,0.19272
7026.41915,0.19286
7024.49041,0.19419
7022.56166,0.19367
7020.63292,0.19396
7018.70417,0.19672
7016.77543,0.19825
7014.84668,0.19417
7012.91794,0.18744
7010.98919,0.18652
7009.06045,0.19220
7007.13170,0.19783
7005.20296,0.19922
7003.27421,0.19723
7001.34547,0.19674
6999.41672,0.19816
6997.48797,0.19598
6995.55923,0.19153
6993.63048,0.19058
6991.70174,0.19340
6989.77299,0.19748
6987.84425,0.19908
6985.91550,0.19607
6983.98676,0.19221
6982.05801,0.19215
6980.12927,0.19435
6978.20052,0.19404
6976.27178,0.19234
6974.34303,0.19206
6972.41429,0.19066
6970.48554,0.18875
6968.55680,0.19101
6966.62805,0.19618
6964.69930,0.19839
6962.77056,0.19656
6960.84181,0.19494
6958.91307,0.19498
6956.98432,0.19413
6955.05558,0.19281
6953.12683,0.19300
6951.19809,0.19304
6949.26934,0.19208
6947.34060,0.19229
6945.41185,0.19323
6943.48311,0.19258
6941.55436,0.19126
6939.62562,0.19187
6937.69687,0.19364
6935.76812,0.19406
6933.83938,0.19230
6931.91063,0.19026
6929.98189,0.19086
6928.05314,0.19309
6926.12440,0.19394
6924.19565,0.19430
6922.26691,0.19617
6920.33816,0.19775
6918.40942,0.19688
6916.48067,0.19569
6914.55193,0.19523
6912.62318,0.19335
6910.69444,0.19142
6908.76569,0.19232
6906.83695,0.19373
6904.90820,0.19364
6902.97945,0.19499
6901.05071,0.19757
6899.12196,0.19678
6897.19322,0.19307
6895.26447,0.19160
6893.33573,0.19261
6891.40698,0.19153
6889.47824,0.18801
6887.54949,0.18546
6885.62075,0.18590
6883.69200,0.18994
6881.76326,0.19499
6879.83451,0.19619
6877.90577,0.19398
6875.97702,0.19257
6874.04828,0.19199
6872.11953,0.19122
6870.19078,0.19117
6868.26204,0.19155
6866.33329,0.19181
6864.40455,0.19146
6862.47580,0.19005
6860.54706,0.18915
6858.61831,0.19079
6856.68957,0.19446
6854.76082,0.19702
6852.83208,0.19660
6850.90333,0.19507
6848.97459,0.19507
6847.04584,0.19569
6845.11710,0.19499
6843.18835,0.19395
6841.25960,0.19285
6839.33086,0.19193
6837.40211,0.19199
6835.47337,0.19151
6833.54462,0.19175
6831.61588,0.19426
6829.68713,0.19491
6827.75839,0.19312
6825.82964,0.19277
6823.90090,0.19313
6821.97215,0.19252
6820.04341,0.19185
6818.11466,0.19048
6816.18592,0.18871
6814.25717,0.18951
6812.32843,0.19263
6810.39968,0.19509
6808.47093,0.19665
6806.54219,0.19760
6804.61344,0.19623
6802.68470,0.19358
6800.75595,0.19360
6798.82721,0.19665
6796.89846,0.19998
6794.96972,0.20093
6793.04097,0.19910
6791.11223,0.19596
6789.18348,0.19189
6787.25474,0.19009
6785.32599,0.19268
6783.39725,0.19431
6781.46850,0.19376
6779.53975,0.19432
6777.61101,0.19598
6775.68226,0.19841
6773.75352,0.19949
6771.82477,0.19779
6769.89603,0.19639
6767.96728,0.19548
6766.03854,0.19396
6764.10979,0.19452
6762.18105,0.19555
6760.25230,0.19261
6758.32356,0.18953
6756.39481,0.19204
6754.46607,0.19643
6752.53732,0.19625
6750.60858,0.19397
6748.67983,0.19482
6746.75108,0.19685
6744.82234,0.19634
6742.89359,0.19345
6740.96485,0.19056
6739.03610,0.19014
6737.10736,0.19264
6735.17861,0.19617
6733.24987,0.19737
6731.32112,0.19561
6729.39238,0.19501
6727.46363,0.19765
6725.53489,0.19931
6723.60614,0.19676
6721.67740,0.19268
6719.74865,0.19029
6717.81991,0.19026
6715.89116,0.19180
6713.96241,0.19295
6712.03367,0.19314
6710.10492,0.19356
6708.17618,0.19417
6706.24743,0.19367
6704.31869,0.19229
6702.38994,0.19251
6700.46120,0.19536
6698.53245,0.19819
6696.60371,0.19915
6694.67496,0.19929
6692.74622,0.19772
6690.81747,0.19490
6688.88873,0.19589
6686.95998,0.19941
6685.03123,0.19862
6683.10249,0.19487
6681.17374,0.19324
6679.24500,0.19399
6677.31625,0.19657
6675.38751,0.19900
6673.45876,0.19822
6671.53002,0.19611
6669.60127,0.19548
6667.67253,0.19556
6665.74378,0.19645
6663.81504,0.19815
6661.88629,0.19817
6659.95755,0.19577
6658.02880,0.19407
6656.10006,0.19491
6654.17131,0.19539
6652.24256,0.19465
6650.31382,0.19584
6648.38507,0.19818
6646.45633,0.19886
6644.52758,0.19805
6642.59884,0.19642
6640.67009,0.19418
6638.74135,0.19225
6636.81260,0.19240
6634.88386,0.19514
6632.95511,0.19802
6631.02637,0.19880
6629.09762,0.19883
6627.16888,0.19915
6625.24013,0.19762
6623.31139,0.19533
6621.38264,0.19529
6619.45389,0.19579
6617.52515,0.19519
6615.59640,0.19457
6613.66766,0.19527
6611.73891,0.19717
6609.81017,0.19817
6607.88142,0.19755
6605.95268,0.19569
6604.02393,0.19282
6602.09519,0.19130
6600.16644,0.19323
6598.23770,0.19601
6596.30895,0.19657
6594.38021,0.19628
6592.45146,0.19650
6590.52271,0.19577
6588.59397,0.19376
6586.66522,0.19240
6584.73648,0.19305
6582.80773,0.19462
6580.87899,0.19490
6578.95024,0.19340
6577.02150,0.19275
6575.09275,0.19403
6573.16401,0.19420
6571.23526,0.19325
6569.30652,0.19408
6567.37777,0.19484
6565.44903,0.19289
6563.52028,0.19101
6561.59154,0.19172
6559.66279,0.19383
6557.73404,0.19634
6555.80530,0.19759
6553.87655,0.19567
6551.94781,0.19245
6550.01906,0.19161
6548.09032,0.19434
6546.16157,0.19818
6544.23283,0.20068
6542.30408,0.20155
6540.37534,0.20040
6538.44659,0.19883
6536.51785,0.19901
6534.58910,0.19857
6532.66036,0.19679
6530.73161,0.19688
6528.80287,0.19693
6526.87412,0.19408
6524.94537,0.19142
6523.01663,0.19140
6521.08788,0.19315
6519.15914,0.19501
6517.23039,0.19513
6515.30165,0.19418
6513.37290,0.19480
6511.44416,0.19698
6509.51541,0.19754
6507.58667,0.19602
6505.65792,0.19562
6503.72918,0.19644
6501.80043,0.19674
6499.87169,0.19714
6497.94294,0.19733
6496.01419,0.19634
6494.08545,0.19543
6492.15670,0.19580
6490.22796,0.19708
6488.29921,0.19811
6486.37047,0.19796
6484.44172,0.19746
6482.51298,0.19751
6480.58423,0.19769
6478.65549,0.19780
6476.72674,0.19719
6474.79800,0.19527
6472.86925,0.19322
6470.94051,0.19238
6469.01176,0.19225
6467.08302,0.19146
6465.15427,0.19111
6463.22552,0.19340
6461.29678,0.19718
6459.36803,0.19939
6457.43929,0.19894
6455.51054,0.19743
6453.58180,0.19740
6451.65305,0.19923
6449.72431,0.20027
6447.79556,0.19937
6445.86682,0.19828
6443.93807,0.19804
6442.00933,0.19881
6440.08058,0.20057
6438.15184,0.20202
6436.22309,0.20238
6434.29434,0.20248
6432.36560,0.20216
6430.43685,0.20006
6428.50811,0.19687
6426.57936,0.19453
6424.65062,0.19376
6422.72187,0.19415
6420.79313,0.19463
6418.86438,0.19498
6416.93564,0.19640
6415.00689,0.19868
6413.07815,0.19952
6411.14940,0.19754
6409.22066,0.19467
6407.29191,0.19450
6405.36317,0.19648
6403.43442,0.19691
6401.50567,0.19597
6399.57693,0.19573
6397.64818,0.19605
6395.71944,0.19581
6393.79069,0.19429
6391.86195,0.19350
6389.93320,0.19520
6388.00446,0.19674
6386.07571,0.19575
6384.14697,0.19387
6382.21822,0.19368
6380.28948,0.19561
6378.36073,0.19712
6376.43199,0.19647
6374.50324,0.19583
6372.57450,0.19638
6370.64575,0.19591
6368.71700,0.19399
6366.78826,0.19239
6364.85951,0.19234
6362.93077,0.19503
6361.00202,0.19941
6359.07328,0.20109
6357.14453,0.19905
6355.21579,0.19730
6353.28704,0.19756
6351.35830,0.19842
6349.42955,0.19897
6347.50081,0.19892
6345.57206,0.19847
6343.64332,0.19742
6341.71457,0.19535
6339.78582,0.19437
6337.85708,0.19645
6335.92833,0.19930
6333.99959,0.20054
6332.07084,0.20038
6330.14210,0.19908
6328.21335,0.19718
6326.28461,0.19607
6324.35586,0.19636
6322.42712,0.19703
6320.49837,0.19677
6318.56963,0.19646
6316.64088,0.19680
6314.71214,0.19660
6312.78339,0.19657
6310.85465,0.19784
6308.92590,0.19808
6306.99715,0.19649
6305.06841,0.19583
6303.13966,0.19651
6301.21092,0.19687
6299.28217,0.19674
6297.35343,0.19602
6295.42468,0.19500
6293.49594,0.19523
6291.56719,0.19632
6289.63845,0.19643
6287.70970,0.19588
6285.78096,0.19610
6283.85221,0.19691
6281.92347,0.19671
6279.99472,0.19591
6278.06598,0.19647
6276.13723,0.19775
6274.20848,0.19743
6272.27974,0.19545
6270.35099,0.19428
6268.42225,0.19461
6266.49350,0.19462
6264.56476,0.19450
6262.63601,0.19474
6260.70727,0.19447
6258.77852,0.19445
6256.84978,0.19519
6254.92103,0.19505
6252.99229,0.19348
6251.06354,0.19288
6249.13480,0.19506
6247.20605,0.19748
6245.27730,0.19757
6243.34856,0.19650
6241.41981,0.19597
6239.49107,0.19556
6237.56232,0.19451
6235.63358,0.19330
6233.70483,0.19234
6231.77609,0.19241
6229.84734,0.19430
6227.91860,0.19655
6225.98985,0.19795
6224.06111,0.19870
6222.13236,0.19868
6220.20362,0.19801
6218.27487,0.19732
6216.34613,0.19705
6214.41738,0.19733
6212.48863,0.19830
6210.55989,0.19890
6208.63114,0.19807
6206.70240,0.19718
6204.77365,0.19611
6202.84491,0.19437
6200.91616,0.19442
6198.98742,0.19556
6197.05867,0.19515
6195.12993,0.19487
6193.20118,0.19572
6191.27244,0.19617
6189.34369,0.19720
6187.41495,0.19958
6185.48620,0.20141
6183.55746,0.20220
6181.62871,0.20238
6179.69996,0.20133
6177.77122,0.19956
6175.84247,0.19840
6173.91373,0.19777
6171.98498,0.19721
6170.05624,0.19724
6168.12749,0.19803
6166.19875,0.19924
6164.27000,0.20020
6162.34126,0.20016
6160.41251,0.19922
6158.48377,0.19769
6156.55502,0.19645
6154.62628,0.19654
6152.69753,0.19706
6150.76878,0.19665
6148.84004,0.19617
6146.91129,0.19673
6144.98255,0.19782
6143.05380,0.19910
6141.12506,0.20012
6139.19631,0.20001
6137.26757,0.19938
6135.33882,0.19822
6133.41008,0.19615
6131.48133,0.19442
6129.55259,0.19392
6127.62384,0.19502
6125.69510,0.19709
6123.76635,0.19835
6121.83761,0.19803
6119.90886,0.19682
6117.98011,0.19638
6116.05137,0.19695
6114.12262,0.19771
6112.19388,0.19853
6110.26513,0.19839
6108.33639,0.19733
6106.40764,0.19686
6104.47890,0.19681
6102.55015,0.19708
6100.62141,0.19813
6098.69266,0.19926
6096.76392,0.19990
6094.83517,0.19995
6092.90643,0.19933
6090.97768,0.19898
6089.04893,0.19941
6087.12019,0.19970
6085.19144,0.19919
6083.26270,0.19820
6081.33395,0.19732
6079.40521,0.19659
6077.47646,0.19635
6075.54772,0.19693
6073.61897,0.19714
6071.69023,0.19668
6069.76148,0.19683
6067.83274,0.19789
6065.90399,0.19891
6063.97525,0.19868
6062.04650,0.19688
6060.11776,0.19519
6058.18901,0.19573
6056.26026,0.19827
6054.33152,0.20033
6052.40277,0.19956
6050.47403,0.19641
6048.54528,0.19418
6046.61654,0.19469
6044.68779,0.19658
6042.75905,0.19778
6040.83030,0.19780
6038.90156,0.19782
6036.97281,0.19765
6035.04407,0.19675
6033.11532,0.19689
6031.18658,0.19817
6029.25783,0.19834
6027.32909,0.19743
6025.40034,0.19711
6023.47159,0.19799
6021.54285,0.19919
6019.61410,0.19959
6017.68536,0.19908
6015.75661,0.19830
6013.82787,0.19837
6011.89912,0.19888
6009.97038,0.19811
6008.04163,0.19663
6006.11289,0.19609
6004.18414,0.19639
6002.25540,0.19691
6000.32665,0.19768
5998.39791,0.19880
5996.46916,0.19957
5994.54041,0.19922
5992.61167,0.19858
5990.68292,0.19867
5988.75418,0.19873
5986.82543,0.19883
5984.89669,0.19945
5982.96794,0.19897
5981.03920,0.19704
5979.11045,0.19591
5977.18171,0.19661
5975.25296,0.19812
5973.32422,0.19938
5971.39547,0.19985
5969.46673,0.19922
5967.53798,0.19804
5965.60924,0.19789
5963.68049,0.19926
5961.75174,0.20049
5959.82300,0.20028
5957.89425,0.19861
5955.96551,0.19639
5954.03676,0.19555
5952.10802,0.19614
5950.17927,0.19665
5948.25053,0.19695
5946.32178,0.19740
5944.39304,0.19791
5942.46429,0.19873
5940.53555,0.19980
5938.60680,0.20000
5936.67806,0.19903
5934.74931,0.19819
5932.82057,0.19808
5930.89182,0.19854
5928.96307,0.19909
5927.03433,0.19951
5925.10558,0.19993
5923.17684,0.19931
5921.24809,0.19778
5919.31935,0.19764
5917.39060,0.19937
5915.46186,0.20133
5913.53311,0.20170
5911.60437,0.19991
5909.67562,0.19775
5907.74688,0.19718
5905.81813,0.19758
5903.88939,0.19697
5901.96064,0.19561
5900.03189,0.19530
5898.10315,0.19644
5896.17440,0.19844
5894.24566,0.20024
5892.31691,0.20055
5890.38817,0.19963
5888.45942,0.19859
5886.53068,0.19780
5884.60193,0.19781
5882.67319,0.19969
5880.74444,0.20214
5878.81570,0.20206
5876.88695,0.20005
5874.95821,0.19939
5873.02946,0.20040
5871.10072,0.20166
5869.17197,0.20242
5867.24322,0.20217
5865.31448,0.20073
5863.38573,0.19880
5861.45699,0.19791
5859.52824,0.19872
5857.59950,0.19974
5855.67075,0.19976
5853.74201,0.19983
5851.81326,0.20089
5849.88452,0.20159
5847.95577,0.20090
5846.02703,0.19985
5844.09828,0.19936
5842.16954,0.19908
5840.24079,0.19873
5838.31205,0.19874
5836.38330,0.19865
5834.45455,0.19756
5832.52581,0.19633
5830.59706,0.19650
5828.66832,0.19807
5826.73957,0.19957
5824.81083,0.19962
5822.88208,0.19850
5820.95334,0.19799
5819.02459,0.19953
5817.09585,0.20179
5815.16710,0.20191
5813.23836,0.20011
5811.30961,0.19895
5809.38087,0.19880
5807.45212,0.19860
5805.52337,0.19872
5803.59463,0.19959
5801.66588,0.19993
5799.73714,0.19922
5797.80839,0.19909
5795.87965,0.19962
5793.95090,0.19917
5792.02216,0.19825
5790.09341,0.19816
5788.16467,0.19840
5786.23592,0.19840
5784.30718,0.19827
5782.37843,0.19819
5780.44969,0.19863
5778.52094,0.19912
5776.59220,0.19874
5774.66345,0.19766
5772.73470,0.19673
5770.80596,0.19683
5768.87721,0.19789
5766.94847,0.19898
5765.01972,0.19993
5763.09098,0.20047
5761.16223,0.20018
5759.23349,0.19964
5757.30474,0.19930
5755.37600,0.19846
5753.44725,0.19707
5751.51851,0.19680
5749.58976,0.19763
5747.66102,0.19753
5745.73227,0.19690
5743.80352,0.19741
5741.87478,0.19827
5739.94603,0.19832
5738.01729,0.19816
5736.08854,0.19832
5734.15980,0.19844
5732.23105,0.19860
5730.30231,0.19860
5728.37356,0.19783
5726.44482,0.19727
5724.51607,0.19801
5722.58733,0.19889
5720.65858,0.19917
5718.72984,0.19941
5716.80109,0.19936
5714.87235,0.19871
5712.94360,0.19821
5711.01485,0.19828
5709.08611,0.19840
5707.15736,0.19858
5705.22862,0.19926
5703.29987,0.19971
5701.37113,0.19946
5699.44238,0.19945
5697.51364,0.19976
5695.58489,0.19980
5693.65615,0.20010
5691.72740,0.20063
5689.79866,0.20043
5687.86991,0.19960
5685.94117,0.19903
5684.01242,0.19925
5682.08368,0.19979
5680.15493,0.19966
5678.22618,0.19948
5676.29744,0.19994
5674.36869,0.19969
5672.43995,0.19848
5670.51120,0.19804
5668.58246,0.19877
5666.65371,0.19942
5664.72497,0.19925
5662.79622,0.19921
5660.86748,0.20023
5658.93873,0.20103
5657.00999,0.20042
5655.08124,0.19952
5653.15250,0.19955
5651.22375,0.20000
5649.29500,0.19964
5647.36626,0.19834
5645.43751,0.19794
5643.50877,0.19897
5641.58002,0.19938
5639.65128,0.19863
5637.72253,0.19785
5635.79379,0.19762
5633.86504,0.19845
5631.93630,0.19971
5630.00755,0.19994
5628.07881,0.19934
5626.15006,0.19907
5624.22132,0.19939
5622.29257,0.19980
5620.36383,0.19968
5618.43508,0.19908
5616.50633,0.19844
5614.57759,0.19814
5612.64884,0.19892
5610.72010,0.19992
5608.79135,0.19922
5606.86261,0.19772
5604.93386,0.19726
5603.00512,0.19769
5601.07637,0.19845
5599.14763,0.19931
5597.21888,0.19950
5595.29014,0.19879
5593.36139,0.19830
5591.43265,0.19853
5589.50390,0.19878
5587.57516,0.19862
5585.64641,0.19880
5583.71766,0.19979
5581.78892,0.19987
5579.86017,0.19834
5577.93143,0.19726
5576.00268,0.19760
5574.07394,0.19805
5572.14519,0.19812
5570.21645,0.19859
5568.28770,0.19924
5566.35896,0.19926
5564.43021,0.19902
5562.50147,0.19916
5560.57272,0.19943
5558.64398,0.19930
5556.71523,0.19873
5554.78648,0.19803
5552.85774,0.19779
5550.92899,0.19835
5549.00025,0.19895
5547.07150,0.19919
5545.14276,0.19968
5543.21401,0.20020
5541.28527,0.20012
5539.35652,0.19958
5537.42778,0.19877
5535.49903,0.19790
5533.57029,0.19708
5531.64154,0.19698
5529.71280,0.19829
5527.78405,0.20019
5525.85531,0.20130
5523.92656,0.20102
5521.99781,0.19983
5520.06907,0.19930
5518.14032,0.19951
5516.21158,0.19885
5514.28283,0.19752
5512.35409,0.19703
5510.42534,0.19755
5508.49660,0.19841
5506.56785,0.19898
5504.63911,0.19940
5502.71036,0.20043
5500.78162,0.20172
5498.85287,0.20187
5496.92413,0.20090
5494.99538,0.20004
5493.06664,0.19948
5491.13789,0.19887
5489.20914,0.19874
5487.28040,0.19953
5485.35165,0.20058
5483.42291,0.20091
5481.49416,0.20023
5479.56542,0.19900
5477.63667,0.19816
5475.70793,0.19860
5473.77918,0.19997
5471.85044,0.20094
5469.92169,0.20079
5467.99295,0.19981
5466.06420,0.19867
5464.13546,0.19817
5462.20671,0.19860
5460.27796,0.19909
5458.34922,0.19874
5456.42047,0.19811
5454.49173,0.19818
5452.56298,0.19849
5450.63424,0.19828
5448.70549,0.19792
5446.77675,0.19804
5444.84800,0.19868
5442.91926,0.19963
5440.99051,0.20039
5439.06177,0.20015
5437.13302,0.19919
5435.20428,0.19886
5433.27553,0.19941
5431.34679,0.19986
5429.41804,0.19996
5427.48929,0.20032
5425.56055,0.20037
5423.63180,0.19980
5421.70306,0.20003
5419.77431,0.20095
5417.84557,0.20087
5415.91682,0.19972
5413.98808,0.19861
5412.05933,0.19811
5410.13059,0.19799
5408.20184,0.19800
5406.27310,0.19795
5404.34435,0.19785
5402.41561,0.19814
5400.48686,0.19883
5398.55811,0.19932
5396.62937,0.19993
5394.70062,0.20105
5392.77188,0.20145
5390.84313,0.20014
5388.91439,0.19879
5386.98564,0.19903
5385.05690,0.19977
5383.12815,0.20007
5381.19941,0.20040
5379.27066,0.20033
5377.34192,0.19919
5375.41317,0.19767
5373.48443,0.19726
5371.55568,0.19848
5369.62694,0.20008
5367.69819,0.20067
5365.76944,0.20011
5363.84070,0.19918
5361.91195,0.19866
5359.98321,0.19876
5358.05446,0.19928
5356.12572,0.19975
5354.19697,0.19980
5352.26823,0.19970
5350.33948,0.19979
5348.41074,0.20001
5346.48199,0.20006
5344.55325,0.19960
5342.62450,0.19885
5340.69576,0.19834
5338.76701,0.19792
5336.83827,0.19761
5334.90952,0.19820
5332.98077,0.19911
5331.05203,0.19926
5329.12328,0.19884
5327.19454,0.19882
5325.26579,0.19945
5323.33705,0.19953
5321.40830,0.19858
5319.47956,0.19785
5317.55081,0.19820
5315.62207,0.19907
5313.69332,0.19923
5311.76458,0.19820
5309.83583,0.19697
5307.90709,0.19656
5305.97834,0.19673
5304.04959,0.19692
5302.12085,0.19701
5300.19210,0.19708
5298.26336,0.19733
5296.33461,0.19737
5294.40587,0.19703
5292.47712,0.19688
5290.54838,0.19680
5288.61963,0.19653
5286.69089,0.19660
5284.76214,0.19698
5282.83340,0.19678
5280.90465,0.19587
5278.97591,0.19513
5277.04716,0.19518
5275.11842,0.19580
5273.18967,0.19610
5271.26092,0.19581
5269.33218,0.19534
5267.40343,0.19493
5265.47469,0.19461
5263.54594,0.19405
5261.61720,0.19341
5259.68845,0.19329
5257.75971,0.19343
5255.83096,0.19329
5253.90222,0.19301
5251.97347,0.19253
5250.04473,0.19164
5248.11598,0.19128
5246.18724,0.19191
5244.25849,0.19220
5242.32975,0.19167
5240.40100,0.19137
5238.47225,0.19162
5236.54351,0.19155
5234.61476,0.19093
5232.68602,0.19049
5230.75727,0.19045
5228.82853,0.19051
5226.89978,0.19048
5224.97104,0.19007
5223.04229,0.18950
5221.11355,0.18969
5219.18480,0.19032
5217.25606,0.19010
5215.32731,0.18923
5213.39857,0.18892
5211.46982,0.18961
5209.54107,0.19054
5207.61233,0.19046
5205.68358,0.18933
5203.75484,0.18805
5201.82609,0.18762
5199.89735,0.18828
5197.96860,0.18907
5196.03986,0.18913
5194.11111,0.18876
5192.18237,0.18840
5190.25362,0.18794
5188.32488,0.18771
5186.39613,0.18835
5184.46739,0.18929
5182.53864,0.18964
5180.60990,0.18943
5178.68115,0.18897
5176.75240,0.18866
5174.82366,0.18882
5172.89491,0.18905
5170.96617,0.18870
5169.03742,0.18834
5167.10868,0.18879
5165.17993,0.18934
5163.25119,0.18900
5161.32244,0.18795
5159.39370,0.18728
5157.46495,0.18771
5155.53621,0.18866
5153.60746,0.18952
5151.67872,0.19015
5149.74997,0.19002
5147.82123,0.18915
5145.89248,0.18861
5143.96373,0.18877
5142.03499,0.18883
5140.10624,0.18863
5138.17750,0.18892
5136.24875,0.18936
5134.32001,0.18907
5132.39126,0.18881
5130.46252,0.18948
5128.53377,0.18999
5126.60503,0.18953
5124.67628,0.18934
5122.74754,0.19003
5120.81879,0.19027
5118.89005,0.18950
5116.96130,0.18878
5115.03255,0.18881
5113.10381,0.18925
5111.17506,0.18971
5109.24632,0.19016
5107.31757,0.19056
5105.38883,0.19090
5103.46008,0.19115
5101.53134,0.19114
5099.60259,0.19084
5097.67385,0.19081
5095.74510,0.19135
5093.81636,0.19141
5091.88761,0.19059
5089.95887,0.19019
5088.03012,0.19056
5086.10138,0.19069
5084.17263,0.19055
5082.24388,0.19062
5080.31514,0.19086
5078.38639,0.19107
5076.45765,0.19109
5074.52890,0.19113
5072.60016,0.19112
5070.67141,0.19067
5068.74267,0.19038
5066.81392,0.19050
5064.88518,0.19032
5062.95643,0.19009
5061.02769,0.19037
5059.09894,0.19079
5057.17020,0.19102
5055.24145,0.19119
5053.31270,0.19127
5051.38396,0.19096
5049.45521,0.19016
5047.52647,0.18953
5045.59772,0.18980
5043.66898,0.19078
5041.74023,0.19186
5039.81149,0.19261
5037.88274,0.19312
5035.95400,0.19315
5034.02525,0.19259
5032.09651,0.19221
5030.16776,0.19227
5028.23902,0.19244
5026.31027,0.19264
5024.38153,0.19255
5022.45278,0.19202
5020.52403,0.19165
5018.59529,0.19165
5016.66654,0.19149
5014.73780,0.19123
5012.80905,0.19127
5010.88031,0.19153
5008.95156,0.19173
5007.02282,0.19151
5005.09407,0.19121
5003.16533,0.19161
5001.23658,0.19237
4999.30784,0.19262
4997.37909,0.19263
4995.45035,0.19288
4993.52160,0.19293
4991.59286,0.19270
4989.66411,0.19237
4987.73536,0.19225
4985.80662,0.19295
4983.87787,0.19375
4981.94913,0.19346
4980.02038,0.19266
4978.09164,0.19242
4976.16289,0.19272
4974.23415,0.19314
4972.30540,0.19347
4970.37666,0.19372
4968.44791,0.19395
4966.51917,0.19383
4964.59042,0.19341
4962.66168,0.19341
4960.73293,0.19372
4958.80418,0.19360
4956.87544,0.19348
4954.94669,0.19391
4953.01795,0.19436
4951.08920,0.19443
4949.16046,0.19429
4947.23171,0.19413
4945.30297,0.19401
4943.37422,0.19369
4941.44548,0.19332
4939.51673,0.19336
4937.58799,0.19376
4935.65924,0.19418
4933.73050,0.19467
4931.80175,0.19532
4929.87301,0.19571
4927.94426,0.19538
4926.01551,0.19489
4924.08677,0.19504
4922.15802,0.19542
4920.22928,0.19540
4918.30053,0.19517
4916.37179,0.19504
4914.44304,0.19510
4912.51430,0.19516
4910.58555,0.19501
4908.65681,0.19471
4906.72806,0.19437
4904.79932,0.19437
4902.87057,0.19472
4900.94183,0.19476
4899.01308,0.19482
4897.08434,0.19519
4895.15559,0.19538
4893.22684,0.19543
4891.29810,0.19528
4889.36935,0.19496
4887.44061,0.19498
4885.51186,0.19537
4883.58312,0.19572
4881.65437,0.19555
4879.72563,0.19489
4877.79688,0.19455
4875.86814,0.19489
4873.93939,0.19493
4872.01065,0.19415
4870.08190,0.19363
4868.15316,0.19419
4866.22441,0.19489
4864.29566,0.19474
4862.36692,0.19432
4860.43817,0.19426
4858.50943,0.19455
4856.58068,0.19509
4854.65194,0.19537
4852.72319,0.19528
4850.79445,0.19524
4848.86570,0.19526
4846.93696,0.19529
4845.00821,0.19568
4843.07947,0.19612
4841.15072,0.19598
4839.22198,0.19586
4837.29323,0.19640
4835.36449,0.19682
4833.43574,0.19626
4831.50699,0.19508
4829.57825,0.19453
4827.64950,0.19519
4825.72076,0.19597
4823.79201,0.19584
4821.86327,0.19543
4819.93452,0.19557
4818.00578,0.19593
4816.07703,0.19590
4814.14829,0.19554
4812.21954,0.19521
4810.29080,0.19505
4808.36205,0.19523
4806.43331,0.19569
4804.50456,0.19553
4802.57582,0.19461
4800.64707,0.19408
4798.71832,0.19425
4796.78958,0.19433
4794.86083,0.19408
4792.93209,0.19405
4791.00334,0.19444
4789.07460,0.19495
4787.14585,0.19555
4785.21711,0.19619
4783.28836,0.19619
4781.35962,0.19549
4779.43087,0.19525
4777.50213,0.19577
4775.57338,0.19596
4773.64464,0.19550
4771.71589,0.19502
4769.78714,0.19495
4767.85840,0.19526
4765.92965,0.19563
4764.00091,0.19594
4762.07216,0.19626
4760.14342,0.19635
4758.21467,0.19622
4756.28593,0.19617
4754.35718,0.19613
4752.42844,0.19602
4750.49969,0.19611
4748.57095,0.19624
4746.64220,0.19604
4744.71346,0.19578
4742.78471,0.19575
4740.85597,0.19598
4738.92722,0.19644
4736.99847,0.19701
4735.06973,0.19735
4733.14098,0.19701
4731.21224,0.19629
4729.28349,0.19601
4727.35475,0.19623
4725.42600,0.19647
4723.49726,0.19648
4721.56851,0.19630
4719.63977,0.19609
4717.71102,0.19599
4715.78228,0.19587
4713.85353,0.19581
4711.92479,0.19612
4709.99604,0.19639
4708.06729,0.19637
4706.13855,0.19649
4704.20980,0.19660
4702.28106,0.19624
4700.35231,0.19577
4698.42357,0.19555
4696.49482,0.19548
4694.56608,0.19575
4692.63733,0.19639
4690.70859,0.19687
4688.77984,0.19683
4686.85110,0.19626
4684.92235,0.19553
4682.99361,0.19540
4681.06486,0.19599
4679.13612,0.19654
4677.20737,0.19671
4675.27862,0.19687
4673.34988,0.19709
4671.42113,0.19692
4669.49239,0.19640
4667.56364,0.19619
4665.63490,0.19633
4663.70615,0.19631
4661.77741,0.19584
4659.84866,0.19515
4657.91992,0.19488
4655.99117,0.19527
4654.06243,0.19562
4652.13368,0.19556
4650.20494,0.19560
4648.27619,0.19605
4646.34745,0.19649
4644.41870,0.19639
4642.48995,0.19603
4640.56121,0.19609
4638.63246,0.19600
4636.70372,0.19529
4634.77497,0.19479
4632.84623,0.19505
4630.91748,0.19554
4628.98874,0.19572
4627.05999,0.19562
4625.13125,0.19545
4623.20250,0.19523
4621.27376,0.19507
4619.34501,0.19516
4617.41627,0.19546
4615.48752,0.19587
4613.55877,0.19651
4611.63003,0.19703
4609.70128,0.19680
4607.77254,0.19628
4605.84379,0.19621
4603.91505,0.19623
4601.98630,0.19602
4600.05756,0.19588
4598.12881,0.19580
4596.20007,0.19555
4594.27132,0.19509
4592.34258,0.19455
4590.41383,0.19439
4588.48509,0.19470
4586.55634,0.19479
4584.62760,0.19446
4582.69885,0.19431
4580.77010,0.19462
4578.84136,0.19492
4576.91261,0.19489
4574.98387,0.19502
4573.05512,0.19540
4571.12638,0.19519
4569.19763,0.19474
4567.26889,0.19491
4565.34014,0.19504
4563.41140,0.19455
4561.48265,0.19411
4559.55391,0.19409
4557.62516,0.19406
4555.69642,0.19371
4553.76767,0.19350
4551.83893,0.19367
4549.91018,0.19382
4547.98143,0.19374
4546.05269,0.19375
4544.12394,0.19423
4542.19520,0.19482
4540.26645,0.19479
4538.33771,0.19425
4536.40896,0.19363
4534.48022,0.19330
4532.55147,0.19368
4530.62273,0.19432
4528.69398,0.19426
4526.76524,0.19355
4524.83649,0.19302
4522.90775,0.19318
4520.97900,0.19376
4519.05025,0.19395
4517.12151,0.19359
4515.19276,0.19335
4513.26402,0.19330
4511.33527,0.19317
4509.40653,0.19316
4507.47778,0.19323
4505.54904,0.19309
4503.62029,0.19286
4501.69155,0.19291
4499.76280,0.19314
4497.83406,0.19317
4495.90531,0.19311
4493.97657,0.19320
4492.04782,0.19330
4490.11908,0.19305
4488.19033,0.19260
4486.26158,0.19235
4484.33284,0.19239
4482.40409,0.19269
4480.47535,0.19300
4478.54660,0.19283
4476.61786,0.19234
4474.68911,0.19235
4472.76037,0.19286
4470.83162,0.19317
4468.90288,0.19314
4466.97413,0.19300
4465.04539,0.19288
4463.11664,0.19306
4461.18790,0.19345
4459.25915,0.19359
4457.33041,0.19354
4455.40166,0.19343
4453.47291,0.19339
4451.54417,0.19356
4449.61542,0.19368
4447.68668,0.19353
4445.75793,0.19331
4443.82919,0.19321
4441.90044,0.19314
4439.97170,0.19286
4438.04295,0.19251
4436.11421,0.19244
4434.18546,0.19255
4432.25672,0.19245
4430.32797,0.19232
4428.39923,0.19263
4426.47048,0.19305
4424.54173,0.19309
4422.61299,0.19297
4420.68424,0.19277
4418.75550,0.19217
4416.82675,0.19158
4414.89801,0.19170
4412.96926,0.19225
4411.04052,0.19241
4409.11177,0.19213
4407.18303,0.19174
4405.25428,0.19142
4403.32554,0.19143
4401.39679,0.19179
4399.46805,0.19230
4397.53930,0.19243
4395.61056,0.19199
4393.68181,0.19176
4391.75306,0.19210
4389.82432,0.19225
4387.89557,0.19183
4385.96683,0.19130
4384.03808,0.19098
4382.10934,0.19078
4380.18059,0.19060
4378.25185,0.19050
4376.32310,0.19064
4374.39436,0.19091
4372.46561,0.19100
4370.53687,0.19072
4368.60812,0.19047
4366.67938,0.19058
4364.75063,0.19063
4362.82189,0.19033
4360.89314,0.19021
4358.96439,0.19046
4357.03565,0.19059
4355.10690,0.19052
4353.17816,0.19061
4351.24941,0.19071
4349.32067,0.19048
4347.39192,0.19020
4345.46318,0.19009
4343.53443,0.18984
4341.60569,0.18952
4339.67694,0.18952
4337.74820,0.18958
4335.81945,0.18932
4333.89071,0.18912
4331.96196,0.18941
4330.03321,0.18990
4328.10447,0.18983
4326.17572,0.18910
4324.24698,0.18855
4322.31823,0.18861
4320.38949,0.18865
4318.46074,0.18838
4316.53200,0.18824
4314.60325,0.18843
4312.67451,0.18864
4310.74576,0.18868
4308.81702,0.18865
4306.88827,0.18863
4304.95953,0.18858
4303.03078,0.18838
4301.10204,0.18775
4299.17329,0.18710
4297.24454,0.18684
4295.31580,0.18665
4293.38705,0.18663
4291.45831,0.18696
4289.52956,0.18721
4287.60082,0.18716
4285.67207,0.18687
4283.74333,0.18633
4281.81458,0.18569
4279.88584,0.18522
4277.95709,0.18492
4276.02835,0.18497
4274.09960,0.18526
4272.17086,0.18522
4270.24211,0.18491
4268.31336,0.18477
4266.38462,0.18501
4264.45587,0.18558
4262.52713,0.18613
4260.59838,0.18625
4258.66964,0.18606
4256.74089,0.18590
4254.81215,0.18590
4252.88340,0.18613
4250.95466,0.18661
4249.02591,0.18698
4247.09717,0.18692
4245.16842,0.18667
4243.23968,0.18671
4241.31093,0.18694
4239.38219,0.18714
4237.45344,0.18740
4235.52469,0.18765
4233.59595,0.18769
4231.66720,0.18769
4229.73846,0.18785
4227.80971,0.18802
4225.88097,0.18797
4223.95222,0.18783
4222.02348,0.18795
4220.09473,0.18823
4218.16599,0.18843
4216.23724,0.18855
4214.30850,0.18867
4212.37975,0.18884
4210.45101,0.18896
4208.52226,0.18896
4206.59352,0.18899
4204.66477,0.18896
4202.73602,0.18876
4200.80728,0.18860
4198.87853,0.18869
4196.94979,0.18903
4195.02104,0.18930
4193.09230,0.18912
4191.16355,0.18847
4189.23481,0.18779
4187.30606,0.18749
4185.37732,0.18771
4183.44857,0.18817
4181.51983,0.18837
4179.59108,0.18807
4177.66234,0.18758
4175.73359,0.18742
4173.80484,0.18766
4171.87610,0.18799
4169.94735,0.18806
4168.01861,0.18774
4166.08986,0.18735
4164.16112,0.18736
4162.23237,0.18754
4160.30363,0.18729
4158.37488,0.18678
4156.44614,0.18660
4154.51739,0.18663
4152.58865,0.18649
4150.65990,0.18623
4148.73116,0.18615
4146.80241,0.18631
4144.87367,0.18659
4142.94492,0.18677
4141.01617,0.18665
4139.08743,0.18617
4137.15868,0.18570
4135.22994,0.18564
4133.30119,0.18578
4131.37245,0.18576
4129.44370,0.18555
4127.51496,0.18529
4125.58621,0.18525
4123.65747,0.18537
4121.72872,0.18537
4119.79998,0.18525
4117.87123,0.18504
4115.94249,0.18471
4114.01374,0.18428
4112.08500,0.18397
4110.15625,0.18389
4108.22750,0.18386
4106.29876,0.18363
4104.37001,0.18330
4102.44127,0.18331
4100.51252,0.18359
4098.58378,0.18342
4096.65503,0.18263
4094.72629,0.18186
4092.79754,0.18154
4090.86880,0.18138
4088.94005,0.18133
4087.01131,0.18162
4085.08256,0.18191
4083.15382,0.18192
4081.22507,0.18184
4079.29632,0.18164
4077.36758,0.18133
4075.43883,0.18116
4073.51009,0.18117
4071.58134,0.18093
4069.65260,0.18033
4067.72385,0.17996
4065.79511,0.18012
4063.86636,0.18035
4061.93762,0.18030
4060.00887,0.18003
4058.08013,0.17974
4056.15138,0.17962
4054.22264,0.17954
4052.29389,0.17903
4050.36515,0.17805
4048.43640,0.17730
4046.50765,0.17729
4044.57891,0.17749
4042.65016,0.17730
4040.72142,0.17700
4038.79267,0.17697
4036.86393,0.17710
4034.93518,0.17711
4033.00644,0.17690
4031.07769,0.17653
4029.14895,0.17623
4027.22020,0.17608
4025.29146,0.17568
4023.36271,0.17514
4021.43397,0.17493
4019.50522,0.17493
4017.57648,0.17478
4015.64773,0.17453
4013.71898,0.17435
4011.79024,0.17421
4009.86149,0.17413
4007.93275,0.17401
4006.00400,0.17361
4004.07526,0.17317
4002.14651,0.17321
4000.21777,0.17368
3998.28902,0.17405
3996.36028,0.17389
3994.43153,0.17349
3992.50279,0.17327
3990.57404,0.17329
3988.64530,0.17333
3986.71655,0.17336
3984.78780,0.17350
3982.85906,0.17364
3980.93031,0.17350
3979.00157,0.17308
3977.07282,0.17258
3975.14408,0.17219
3973.21533,0.17214
3971.28659,0.17231
3969.35784,0.17216
3967.42910,0.17164
3965.50035,0.17114
3963.57161,0.17080
3961.64286,0.17051
3959.71412,0.17030
3957.78537,0.17026
3955.85663,0.17019
3953.92788,0.16987
3951.99913,0.16942
3950.07039,0.16929
3948.14164,0.16952
3946.21290,0.16964
3944.28415,0.16970
3942.35541,0.16992
3940.42666,0.17000
3938.49792,0.16984
3936.56917,0.16976
3934.64043,0.16982
3932.71168,0.17008
3930.78294,0.17056
3928.85419,0.17095
3926.92545,0.17118
3924.99670,0.17148
3923.06795,0.17204
3921.13921,0.17292
3919.21046,0.17385
3917.28172,0.17438
3915.35297,0.17460
3913.42423,0.17495
3911.49548,0.17539
3909.56674,0.17559
3907.63799,0.17566
3905.70925,0.17586
3903.78050,0.17624
3901.85176,0.17665
3899.92301,0.17687
3897.99427,0.17692
3896.06552,0.17684
3894.13678,0.17662
3892.20803,0.17645
3890.27928,0.17659
3888.35054,0.17702
3886.42179,0.17743
3884.49305,0.17770
3882.56430,0.17785
3880.63556,0.17788
3878.70681,0.17784
3876.77807,0.17770
3874.84932,0.17730
3872.92058,0.17686
3870.99183,0.17679
3869.06309,0.17698
3867.13434,0.17701
3865.20560,0.17701
3863.27685,0.17721
3861.34811,0.17741
3859.41936,0.17745
3857.49061,0.17738
3855.56187,0.17735
3853.63312,0.17744
3851.70438,0.17754
3849.77563,0.17771
3847.84689,0.17797
3845.91814,0.17825
3843.98940,0.17831
3842.06065,0.17787
3840.13191,0.17726
3838.20316,0.17717
3836.27442,0.17746
3834.34567,0.17748
3832.41693,0.17724
3830.48818,0.17706
3828.55943,0.17693
3826.63069,0.17672
3824.70194,0.17655
3822.77320,0.17653
3820.84445,0.17645
3818.91571,0.17628
3816.98696,0.17621
3815.05822,0.17612
3813.12947,0.17577
3811.20073,0.17541
3809.27198,0.17542
3807.34324,0.17564
3805.41449,0.17563
3803.48575,0.17539
3801.55700,0.17520
3799.62826,0.17520
3797.69951,0.17511
3795.77076,0.17469
3793.84202,0.17424
3791.91327,0.17407
3789.98453,0.17404
3788.05578,0.17405
3786.12704,0.17417
3784.19829,0.17425
3782.26955,0.17403
3780.34080,0.17367
3778.41206,0.17343
3776.48331,0.17325
3774.55457,0.17293
3772.62582,0.17236
3770.69708,0.17173
3768.76833,0.17135
3766.83959,0.17107
3764.91084,0.17058
3762.98209,0.17005
3761.05335,0.16987
3759.12460,0.17004
3757.19586,0.17009
3755.26711,0.16969
3753.33837,0.16889
3751.40962,0.16780
3749.48088,0.16691
3747.55213,0.16651
3745.62339,0.16602
3743.69464,0.16514
3741.76590,0.16421
3739.83715,0.16326
3737.90841,0.16230
3735.97966,0.16143
3734.05091,0.16036
3732.12217,0.15900
3730.19342,0.15766
3728.26468,0.15647
3726.33593,0.15508
3724.40719,0.15328
3722.47844,0.15136
3720.54970,0.14960
3718.62095,0.14793
3716.69221,0.14628
3714.76346,0.14451
3712.83472,0.14255
3710.90597,0.14072
3708.97723,0.13926
3707.04848,0.13785
3705.11974,0.13603
3703.19099,0.13381
3701.26224,0.13167
3699.33350,0.12993
3697.40475,0.12847
3695.47601,0.12711
3693.54726,0.12566
3691.61852,0.12398
3689.68977,0.12209
3687.76103,0.12007
3685.83228,0.11801
3683.90354,0.11601
3681.97479,0.11399
3680.04605,0.11174
3678.11730,0.10939
3676.18856,0.10705
3674.25981,0.10505
3672.33107,0.10362
3670.40232,0.10193
3668.47357,0.09956
3666.54483,0.09711
3664.61608,0.09497
3662.68734,0.09319
3660.75859,0.09156
3658.82985,0.08985
3656.90110,0.08808
3654.97236,0.08643
3653.04361,0.08480
3651.11487,0.08280
3649.18612,0.08062
3647.25738,0.07886
3645.32863,0.07725
3643.39989,0.07551
3641.47114,0.07401
3639.54239,0.07287
3637.61365,0.07183
3635.68490,0.07066
3633.75616,0.06929
3631.82741,0.06812
3629.89867,0.06744
3627.96992,0.06692
3626.04118,0.06625
3624.11243,0.06560
3622.18369,0.06505
3620.25494,0.06436
3618.32620,0.06343
3616.39745,0.06259
3614.46871,0.06207
3612.53996,0.06189
3610.61122,0.06188
3608.68247,0.06169
3606.75372,0.06121
3604.82498,0.06071
3602.89623,0.06040
3600.96749,0.06018
3599.03874,0.05997
3597.11000,0.05997
3595.18125,0.06019
3593.25251,0.06033
3591.32376,0.06016
3589.39502,0.05951
3587.46627,0.05858
3585.53753,0.05818
3583.60878,0.05848
3581.68004,0.05859
3579.75129,0.05809
3577.82254,0.05750
3575.89380,0.05733
3573.96505,0.05741
3572.03631,0.05741
3570.10756,0.05756
3568.17882,0.05780
3566.25007,0.05758
3564.32133,0.05706
3562.39258,0.05666
3560.46384,0.05631
3558.53509,0.05591
3556.60635,0.05557
3554.67760,0.05534
3552.74886,0.05513
3550.82011,0.05500
3548.89137,0.05510
3546.96262,0.05519
3545.03387,0.05492
3543.10513,0.05455
3541.17638,0.05442
3539.24764,0.05433
3537.31889,0.05409
3535.39015,0.05384
3533.46140,0.05368
3531.53266,0.05371
3529.60391,0.05386
3527.67517,0.05376
3525.74642,0.05338
3523.81768,0.05298
3521.88893,0.05266
3519.96019,0.05258
3518.03144,0.05280
3516.10270,0.05296
3514.17395,0.05286
3512.24520,0.05260
3510.31646,0.05231
3508.38771,0.05219
3506.45897,0.05223
3504.53022,0.05216
3502.60148,0.05210
3500.67273,0.05214
3498.74399,0.05204
3496.81524,0.05183
3494.88650,0.05160
3492.95775,0.05141
3491.02901,0.05127
3489.10026,0.05111
3487.17152,0.05093
3485.24277,0.05089
3483.31402,0.05104
3481.38528,0.05122
3479.45653,0.05133
3477.52779,0.05126
3475.59904,0.05091
3473.67030,0.05055
3471.74155,0.05038
3469.81281,0.05036
3467.88406,0.05047
3465.95532,0.05052
3464.02657,0.05048
3462.09783,0.05055
3460.16908,0.05062
3458.24034,0.05049
3456.31159,0.05030
3454.38285,0.05025
3452.45410,0.05031
3450.52535,0.05032
3448.59661,0.05019
3446.66786,0.04997
3444.73912,0.04979
3442.81037,0.04984
3440.88163,0.04995
3438.95288,0.04988
3437.02414,0.04984
3435.09539,0.05000
3433.16665,0.05002
3431.23790,0.04972
3429.30916,0.04950
3427.38041,0.04971
3425.45167,0.05006
3423.52292,0.05019
3421.59418,0.04998
3419.66543,0.04946
3417.73668,0.04905
3415.80794,0.04905
3413.87919,0.04909
3411.95045,0.04881
3410.02170,0.04858
3408.09296,0.04854
3406.16421,0.04837
3404.23547,0.04836
3402.30672,0.04863
3400.37798,0.04876
3398.44923,0.04865
3396.52049,0.04848
3394.59174,0.04839
3392.66300,0.04830
3390.73425,0.04818
3388.80550,0.04828
3386.87676,0.04860
3384.94801,0.04885
3383.01927,0.04908
3381.09052,0.04940
3379.16178,0.04963
3377.23303,0.04950
3375.30429,0.04904
3373.37554,0.04869
3371.44680,0.04852
3369.51805,0.04839
3367.58931,0.04860
3365.66056,0.04901
3363.73182,0.04905
3361.80307,0.04887
3359.87433,0.04896
3357.94558,0.04922
3356.01683,0.04931
3354.08809,0.04930
3352.15934,0.04933
3350.23060,0.04921
3348.30185,0.04887
3346.37311,0.04875
3344.44436,0.04914
3342.51562,0.04958
3340.58687,0.04970
3338.65813,0.04964
3336.72938,0.04975
3334.80064,0.05009
3332.87189,0.05033
3330.94315,0.05032
3329.01440,0.05021
3327.08566,0.05018
3325.15691,0.05027
3323.22816,0.05040
3321.29942,0.05044
3319.37067,0.05049
3317.44193,0.05053
3315.51318,0.05044
3313.58444,0.05043
3311.65569,0.05063
3309.72695,0.05080
3307.79820,0.05075
3305.86946,0.05055
3303.94071,0.05050
3302.01197,0.05075
3300.08322,0.05101
3298.15448,0.05112
3296.22573,0.05132
3294.29698,0.05166
3292.36824,0.05173
3290.43949,0.05148
3288.51075,0.05127
3286.58200,0.05133
3284.65326,0.05159
3282.72451,0.05190
3280.79577,0.05224
3278.86702,0.05238
3276.93828,0.05214
3275.00953,0.05198
3273.08079,0.05213
3271.15204,0.05208
3269.22330,0.05185
3267.29455,0.05205
3265.36581,0.05240
3263.43706,0.05245
3261.50831,0.05254
3259.57957,0.05279
3257.65082,0.05289
3255.72208,0.05284
3253.79333,0.05278
3251.86459,0.05287
3249.93584,0.05326
3248.00710,0.05349
3246.07835,0.05310
3244.14961,0.05275
3242.22086,0.05317
3240.29212,0.05400
3238.36337,0.05446
3236.43463,0.05441
3234.50588,0.05429
3232.57713,0.05424
3230.64839,0.05405
3228.71964,0.05385
3226.79090,0.05397
3224.86215,0.05436
3222.93341,0.05475
3221.00466,0.05495
3219.07592,0.05509
3217.14717,0.05531
3215.21843,0.05570
3213.28968,0.05619
3211.36094,0.05649
3209.43219,0.05662
3207.50345,0.05679
3205.57470,0.05690
3203.64596,0.05699
3201.71721,0.05724
3199.78846,0.05757
3197.85972,0.05772
3195.93097,0.05756
3194.00223,0.05727
3192.07348,0.05719
3190.14474,0.05744
3188.21599,0.05788
3186.28725,0.05834
3184.35850,0.05865
3182.42976,0.05864
3180.50101,0.05847
3178.57227,0.05844
3176.64352,0.05849
3174.71478,0.05861
3172.78603,0.05893
3170.85729,0.05934
3168.92854,0.05962
3166.99979,0.05982
3165.07105,0.06005
3163.14230,0.06035
3161.21356,0.06069
3159.28481,0.06093
3157.35607,0.06097
3155.42732,0.06112
3153.49858,0.06145
3151.56983,0.06163
3149.64109,0.06178
3147.71234,0.06205
3145.78360,0.06233
3143.85485,0.06263
3141.92611,0.06271
3139.99736,0.06245
3138.06861,0.06227
3136.13987,0.06232
3134.21112,0.06250
3132.28238,0.06276
3130.35363,0.06283
3128.42489,0.06263
3126.49614,0.06268
3124.56740,0.06321
3122.63865,0.06367
3120.70991,0.06371
3118.78116,0.06366
3116.85242,0.06372
3114.92367,0.06372
3112.99493,0.06370
3111.06618,0.06390
3109.13744,0.06420
3107.20869,0.06436
3105.27994,0.06447
3103.35120,0.06457
3101.42245,0.06467
3099.49371,0.06486
3097.56496,0.06498
3095.63622,0.06487
3093.70747,0.06473
3091.77873,0.06482
3089.84998,0.06507
3087.92124,0.06531
3085.99249,0.06551
3084.06375,0.06566
3082.13500,0.06575
3080.20626,0.06582
3078.27751,0.06582
3076.34877,0.06570
3074.42002,0.06572
3072.49127,0.06607
3070.56253,0.06650
3068.63378,0.06679
3066.70504,0.06698
3064.77629,0.06701
3062.84755,0.06694
3060.91880,0.06693
3058.99006,0.06697
3057.06131,0.06705
3055.13257,0.06714
3053.20382,0.06712
3051.27508,0.06703
3049.34633,0.06703
3047.41759,0.06709
3045.48884,0.06718
3043.56009,0.06734
3041.63135,0.06742
3039.70260,0.06734
3037.77386,0.06737
3035.84511,0.06751
3033.91637,0.06753
3031.98762,0.06765
3030.05888,0.06777
3028.13013,0.06757
3026.20139,0.06731
3024.27264,0.06713
3022.34390,0.06702
3020.41515,0.06726
3018.48641,0.06750
3016.55766,0.06727
3014.62892,0.06688
3012.70017,0.06676
3010.77142,0.06677
3008.84268,0.06671
3006.91393,0.06668
3004.98519,0.06663
3003.05644,0.06632
3001.12770,0.06579
2999.19895,0.06509
2997.27021,0.06413
2995.34146,0.06317
2993.41272,0.06241
2991.48397,0.06158
2989.55523,0.06063
2987.62648,0.05981
2985.69774,0.05921
2983.76899,0.05885
2981.84025,0.05889
2979.91150,0.05924
2977.98275,0.05953
2976.05401,0.05968
2974.12526,0.05982
2972.19652,0.05988
2970.26777,0.05984
2968.33903,0.05989
2966.41028,0.05995
2964.48154,0.05981
2962.55279,0.05949
2960.62405,0.05926
2958.69530,0.05932
2956.76656,0.05950
2954.83781,0.05966
2952.90907,0.05995
2950.98032,0.06027
2949.05157,0.06037
2947.12283,0.06042
2945.19408,0.06041
2943.26534,0.06008
2941.33659,0.05969
2939.40785,0.05945
2937.47910,0.05951
2935.55036,0.05998
2933.62161,0.06045
2931.69287,0.06045
2929.76412,0.06019
2927.83538,0.05997
2925.90663,0.05994
2923.97789,0.06007
2922.04914,0.06011
2920.12040,0.06012
2918.19165,0.06035
2916.26290,0.06067
2914.33416,0.06088
2912.40541,0.06102
2910.47667,0.06117
2908.54792,0.06138
2906.61918,0.06169
2904.69043,0.06194
2902.76169,0.06176
2900.83294,0.06129
2898.90420,0.06105
2896.97545,0.06123
2895.04671,0.06156
2893.11796,0.06171
2891.18922,0.06150
2889.26047,0.06091
2887.33172,0.06012
2885.40298,0.05935
2883.47423,0.05858
2881.54549,0.05784
2879.61674,0.05734
2877.68800,0.05715
2875.75925,0.05709
2873.83051,0.05713
2871.90176,0.05736
2869.97302,0.05777
2868.04427,0.05836
2866.11553,0.05905
2864.18678,0.05963
2862.25804,0.06001
2860.32929,0.06033
2858.40055,0.06072
2856.47180,0.06129
2854.54305,0.06201
2852.61431,0.06273
2850.68556,0.06343
2848.75682,0.06423
2846.82807,0.06524
2844.89933,0.06637
2842.97058,0.06760
2841.04184,0.06905
2839.11309,0.07061
2837.18435,0.07201
2835.25560,0.07321
2833.32686,0.07439
2831.39811,0.07553
2829.46937,0.07663
2827.54062,0.07773
2825.61188,0.07867
2823.68313,0.07936
2821.75438,0.07990
2819.82564,0.08045
2817.89689,0.08108
2815.96815,0.08181
2814.03940,0.08244
2812.11066,0.08281
2810.18191,0.08307
2808.25317,0.08350
2806.32442,0.08419
2804.39568,0.08482
2802.46693,0.08507
2800.53819,0.08515
2798.60944,0.08547
2796.68070,0.08605
2794.75195,0.08659
2792.82320,0.08698
2790.89446,0.08739
2788.96571,0.08791
2787.03697,0.08844
2785.10822,0.08888
2783.17948,0.08924
2781.25073,0.08962
2779.32199,0.09005
2777.39324,0.09033
2775.46450,0.09047
2773.53575,0.09069
2771.60701,0.09095
2769.67826,0.09117
2767.74952,0.09152
2765.82077,0.09197
2763.89203,0.09220
2761.96328,0.09220
2760.03453,0.09233
2758.10579,0.09260
2756.17704,0.09279
2754.24830,0.09287
2752.31955,0.09301
2750.39081,0.09322
2748.46206,0.09347
2746.53332,0.09380
2744.60457,0.09409
2742.67583,0.09423
2740.74708,0.09444
2738.81834,0.09480
2736.88959,0.09516
2734.96085,0.09532
2733.03210,0.09517
2731.10336,0.09497
2729.17461,0.09516
2727.24586,0.09562
2725.31712,0.09597
2723.38837,0.09620
2721.45963,0.09649
2719.53088,0.09682
2717.60214,0.09712
2715.67339,0.09733
2713.74465,0.09733
2711.81590,0.09718
2709.88716,0.09718
2707.95841,0.09743
2706.02967,0.09769
2704.10092,0.09782
2702.17218,0.09784
2700.24343,0.09783
2698.31468,0.09792
2696.38594,0.09815
2694.45719,0.09833
2692.52845,0.09826
2690.59970,0.09811
2688.67096,0.09818
2686.74221,0.09833
2684.81347,0.09837
2682.88472,0.09845
2680.95598,0.09860
2679.02723,0.09860
2677.09849,0.09844
2675.16974,0.09840
2673.24100,0.09850
2671.31225,0.09849
2669.38351,0.09835
2667.45476,0.09815
2665.52601,0.09802
2663.59727,0.09800
2661.66852,0.09806
2659.73978,0.09813
2657.81103,0.09796
2655.88229,0.09742
2653.95354,0.09675
2652.02480,0.09620
2650.09605,0.09586
2648.16731,0.09556
2646.23856,0.09508
2644.30982,0.09461
2642.38107,0.09418
2640.45233,0.09340
2638.52358,0.09216
2636.59484,0.09088
2634.66609,0.08978
2632.73734,0.08872
2630.80860,0.08753
2628.87985,0.08617
2626.95111,0.08471
2625.02236,0.08343
2623.09362,0.08248
2621.16487,0.08171
2619.23613,0.08095
2617.30738,0.08012
2615.37864,0.07928
2613.44989,0.07849
2611.52115,0.07767
2609.59240,0.07684
2607.66366,0.07601
2605.73491,0.07515
2603.80616,0.07453
2601.87742,0.07434
2599.94867,0.07418
2598.01993,0.07377
2596.09118,0.07346
2594.16244,0.07336
2592.23369,0.07314
2590.30495,0.07273
2588.37620,0.07230
2586.44746,0.07205
2584.51871,0.07204
2582.58997,0.07213
2580.66122,0.07210
2578.73248,0.07185
2576.80373,0.07139
2574.87499,0.07092
2572.94624,0.07059
2571.01749,0.07033
2569.08875,0.07016
2567.16000,0.07000
2565.23126,0.06970
2563.30251,0.06944
2561.37377,0.06938
2559.44502,0.06925
2557.51628,0.06879
2555.58753,0.06816
2553.65879,0.06760
2551.73004,0.06715
2549.80130,0.06680
2547.87255,0.06650
2545.94381,0.06618
2544.01506,0.06571
2542.08631,0.06497
2540.15757,0.06388
2538.22882,0.06255
2536.30008,0.06110
2534.37133,0.05963
2532.44259,0.05823
2530.51384,0.05687
2528.58510,0.05552
2526.65635,0.05441
2524.72761,0.05358
2522.79886,0.05283
2520.87012,0.05222
2518.94137,0.05185
2517.01263,0.05167
2515.08388,0.05153
2513.15514,0.05140
2511.22639,0.05165
2509.29764,0.05252
2507.36890,0.05371
2505.44015,0.05491
2503.51141,0.05613
2501.58266,0.05753
2499.65392,0.05912
2497.72517,0.06095
2495.79643,0.06306
2493.86768,0.06526
2491.93894,0.06735
2490.01019,0.06926
2488.08145,0.07105
2486.15270,0.07282
2484.22396,0.07459
2482.29521,0.07636
2480.36647,0.07819
2478.43772,0.08002
2476.50897,0.08180
2474.58023,0.08359
2472.65148,0.08540
2470.72274,0.08707
2468.79399,0.08862
2466.86525,0.09004
2464.93650,0.09114
2463.00776,0.09204
2461.07901,0.09306
2459.15027,0.09404
2457.22152,0.09478
2455.29278,0.09551
2453.36403,0.09640
2451.43529,0.09730
2449.50654,0.09814
2447.57779,0.09887
2445.64905,0.09942
2443.72030,0.09992
2441.79156,0.10038
2439.86281,0.10063
2437.93407,0.10086
2436.00532,0.10125
2434.07658,0.10171
2432.14783,0.10215
2430.21909,0.10254
2428.29034,0.10272
2426.36160,0.10278
2424.43285,0.10306
2422.50411,0.10340
2420.57536,0.10355
2418.64662,0.10367
2416.71787,0.10391
2414.78912,0.10418
2412.86038,0.10435
2410.93163,0.10444
2409.00289,0.10454
2407.07414,0.10471
2405.14540,0.10487
2403.21665,0.10494
2401.28791,0.10500
2399.35916,0.10515
2397.43042,0.10532
2395.50167,0.10544
2393.57293,0.10548
2391.64418,0.10543
2389.71544,0.10539
2387.78669,0.10537
2385.85795,0.10538
2383.92920,0.10541
2382.00045,0.10535
2380.07171,0.10522
2378.14296,0.10513
2376.21422,0.10514
2374.28547,0.10525
2372.35673,0.10536
2370.42798,0.10535
2368.49924,0.10526
2366.57049,0.10501
2364.64175,0.10458
2362.71300,0.10427
2360.78426,0.10435
2358.85551,0.10450
2356.92677,0.10441
2354.99802,0.10430
2353.06927,0.10431
2351.14053,0.10424
2349.21178,0.10408
2347.28304,0.10393
2345.35429,0.10388
2343.42555,0.10390
2341.49680,0.10388
2339.56806,0.10388
2337.63931,0.10387
2335.71057,0.10365
2333.78182,0.10327
2331.85308,0.10303
2329.92433,0.10303
2327.99559,0.10307
2326.06684,0.10294
2324.13810,0.10268
2322.20935,0.10245
2320.28060,0.10229
2318.35186,0.10221
2316.42311,0.10218
2314.49437,0.10193
2312.56562,0.10152
2310.63688,0.10133
2308.70813,0.10133
2306.77939,0.10122
2304.85064,0.10106
2302.92190,0.10104
2300.99315,0.10111
2299.06441,0.10108
2297.13566,0.10102
2295.20692,0.10104
2293.27817,0.10100
2291.34943,0.10085
2289.42068,0.10071
2287.49193,0.10065
2285.56319,0.10070
2283.63444,0.10081
2281.70570,0.10082
2279.77695,0.10067
2277.84821,0.10041
2275.91946,0.10012
2273.99072,0.09988
2272.06197,0.09965
2270.13323,0.09937
2268.20448,0.09899
2266.27574,0.09850
2264.34699,0.09813
2262.41825,0.09797
2260.48950,0.09788
2258.56075,0.09774
2256.63201,0.09744
2254.70326,0.09713
2252.77452,0.09701
2250.84577,0.09692
2248.91703,0.09670
2246.98828,0.09646
2245.05954,0.09631
2243.13079,0.09616
2241.20205,0.09592
2239.27330,0.09562
2237.34456,0.09540
2235.41581,0.09528
2233.48707,0.09511
2231.55832,0.09488
2229.62958,0.09469
2227.70083,0.09455
2225.77208,0.09437
2223.84334,0.09412
2221.91459,0.09381
2219.98585,0.09358
2218.05710,0.09358
2216.12836,0.09371
2214.19961,0.09373
2212.27087,0.09363
2210.34212,0.09346
2208.41338,0.09327
2206.48463,0.09320
2204.55589,0.09319
2202.62714,0.09307
2200.69840,0.09289
2198.76965,0.09277
2196.84090,0.09261
2194.91216,0.09234
2192.98341,0.09216
2191.05467,0.09213
2189.12592,0.09210
2187.19718,0.09206
2185.26843,0.09208
2183.33969,0.09212
2181.41094,0.09202
2179.48220,0.09179
2177.55345,0.09153
2175.62471,0.09127
2173.69596,0.09100
2171.76722,0.09064
2169.83847,0.09023
2167.90973,0.08987
2165.98098,0.08949
2164.05223,0.08909
2162.12349,0.08879
2160.19474,0.08847
2158.26600,0.08799
2156.33725,0.08736
2154.40851,0.08660
2152.47976,0.08581
2150.55102,0.08515
2148.62227,0.08464
2146.69353,0.08421
2144.76478,0.08381
2142.83604,0.08360
2140.90729,0.08358
2138.97855,0.08355
2137.04980,0.08355
2135.12106,0.08374
2133.19231,0.08413
2131.26356,0.08471
2129.33482,0.08534
2127.40607,0.08580
2125.47733,0.08629
2123.54858,0.08699
2121.61984,0.08770
2119.69109,0.08818
2117.76235,0.08854
2115.83360,0.08890
2113.90486,0.08928
2111.97611,0.08960
2110.04737,0.08990
2108.11862,0.09035
2106.18988,0.09074
2104.26113,0.09088
2102.33238,0.09098
2100.40364,0.09119
2098.47489,0.09136
2096.54615,0.09141
2094.61740,0.09143
2092.68866,0.09139
2090.75991,0.09127
2088.83117,0.09122
2086.90242,0.09122
2084.97368,0.09105
2083.04493,0.09083
2081.11619,0.09080
2079.18744,0.09082
2077.25870,0.09064
2075.32995,0.09047
2073.40121,0.09043
2071.47246,0.09039
2069.54371,0.09036
2067.61497,0.09040
2065.68622,0.09035
2063.75748,0.09013
2061.82873,0.08992
2059.89999,0.08984
2057.97124,0.08981
2056.04250,0.08967
2054.11375,0.08936
2052.18501,0.08907
2050.25626,0.08878
2048.32752,0.08839
2046.39877,0.08801
2044.47003,0.08784
2042.54128,0.08775
2040.61254,0.08756
2038.68379,0.08728
2036.75504,0.08702
2034.82630,0.08674
2032.89755,0.08641
2030.96881,0.08607
2029.04006,0.08567
2027.11132,0.08529
2025.18257,0.08516
2023.25383,0.08522
2021.32508,0.08518
2019.39634,0.08511
2017.46759,0.08505
2015.53885,0.08481
2013.61010,0.08433
2011.68136,0.08386
2009.75261,0.08348
2007.82386,0.08315
2005.89512,0.08286
2003.96637,0.08264
2002.03763,0.08242
2000.10888,0.08220
1998.18014,0.08206
1996.25139,0.08208
1994.32265,0.08212
1992.39390,0.08199
1990.46516,0.08176
1988.53641,0.08158
1986.60767,0.08152
1984.67892,0.08145
1982.75018,0.08128
1980.82143,0.08112
1978.89269,0.08091
1976.96394,0.08059
1975.03519,0.08038
1973.10645,0.08030
1971.17770,0.08015
1969.24896,0.07999
1967.32021,0.07975
1965.39147,0.07919
1963.46272,0.07836
1961.53398,0.07781
1959.60523,0.07788
1957.67649,0.07838
1955.74774,0.07898
1953.81900,0.07937
1951.89025,0.07937
1949.96151,0.07913
1948.03276,0.07897
1946.10402,0.07895
1944.17527,0.07894
1942.24652,0.07881
1940.31778,0.07853
1938.38903,0.07821
1936.46029,0.07800
1934.53154,0.07791
1932.60280,0.07788
1930.67405,0.07779
1928.74531,0.07767
1926.81656,0.07753
1924.88782,0.07723
1922.95907,0.07682
1921.03033,0.07647
1919.10158,0.07617
1917.17284,0.07582
1915.24409,0.07546
1913.31534,0.07512
1911.38660,0.07468
1909.45785,0.07423
1907.52911,0.07393
1905.60036,0.07371
1903.67162,0.07337
1901.74287,0.07279
1899.81413,0.07210
1897.88538,0.07158
1895.95664,0.07122
1894.02789,0.07081
1892.09915,0.07038
1890.17040,0.07004
1888.24166,0.06973
1886.31291,0.06940
1884.38417,0.06898
1882.45542,0.06860
1880.52667,0.06843
1878.59793,0.06834
1876.66918,0.06808
1874.74044,0.06764
1872.81169,0.06720
1870.88295,0.06691
1868.95420,0.06670
1867.02546,0.06643
1865.09671,0.06613
1863.16797,0.06588
1861.23922,0.06572
1859.31048,0.06559
1857.38173,0.06544
1855.45299,0.06536
1853.52424,0.06532
1851.59549,0.06520
1849.66675,0.06500
1847.73800,0.06472
1845.80926,0.06427
1843.88051,0.06370
1841.95177,0.06321
1840.02302,0.06282
1838.09428,0.06234
1836.16553,0.06179
1834.23679,0.06116
1832.30804,0.06024
1830.37930,0.05913
1828.45055,0.05818
1826.52181,0.05738
1824.59306,0.05646
1822.66432,0.05540
1820.73557,0.05433
1818.80682,0.05329
1816.87808,0.05227
1814.94933,0.05129
1813.02059,0.05032
1811.09184,0.04904
1809.16310,0.04730
1807.23435,0.04510
1805.30561,0.04242
1803.37686,0.03951
1801.44812,0.03691
1799.51937,0.03517
1797.59063,0.03438
1795.66188,0.03426
1793.73314,0.03467
1791.80439,0.03569
1789.87565,0.03733
1787.94690,0.03928
1786.01815,0.04117
1784.08941,0.04293
1782.16066,0.04458
1780.23192,0.04596
1778.30317,0.04691
1776.37443,0.04747
1774.44568,0.04783
1772.51694,0.04806
1770.58819,0.04803
1768.65945,0.04773
1766.73070,0.04745
1764.80196,0.04745
1762.87321,0.04748
1760.94447,0.04728
1759.01572,0.04691
1757.08697,0.04650
1755.15823,0.04615
1753.22948,0.04585
1751.30074,0.04544
1749.37199,0.04492
1747.44325,0.04444
1745.51450,0.04413
1743.58576,0.04393
1741.65701,0.04376
1739.72827,0.04367
1737.79952,0.04352
1735.87078,0.04316
1733.94203,0.04264
1732.01329,0.04226
1730.08454,0.04225
1728.15580,0.04253
1726.22705,0.04275
1724.29830,0.04274
1722.36956,0.04263
1720.44081,0.04245
1718.51207,0.04221
1716.58332,0.04195
1714.65458,0.04150
1712.72583,0.04097
1710.79709,0.04071
1708.86834,0.04070
1706.93960,0.04060
1705.01085,0.04032
1703.08211,0.03996
1701.15336,0.03938
1699.22462,0.03858
1697.29587,0.03787
1695.36713,0.03732
1693.43838,0.03692
1691.50963,0.03660
1689.58089,0.03613
1687.65214,0.03562
1685.72340,0.03525
1683.79465,0.03506
1681.86591,0.03503
1679.93716,0.03499
1678.00842,0.03477
1676.07967,0.03448
1674.15093,0.03441
1672.22218,0.03452
1670.29344,0.03456
1668.36469,0.03441
1666.43595,0.03417
1664.50720,0.03394
1662.57845,0.03374
1660.64971,0.03369
1658.72096,0.03378
1656.79222,0.03379
1654.86347,0.03370
1652.93473,0.03366
1651.00598,0.03365
1649.07724,0.03360
1647.14849,0.03355
1645.21975,0.03359
1643.29100,0.03360
1641.36226,0.03346
1639.43351,0.03340
1637.50477,0.03365
1635.57602,0.03402
1633.64728,0.03413
1631.71853,0.03398
1629.78978,0.03384
1627.86104,0.03394
1625.93229,0.03424
1624.00355,0.03470
1622.07480,0.03525
1620.14606,0.03578
1618.21731,0.03629
1616.28857,0.03677
1614.35982,0.03730
1612.43108,0.03789
1610.50233,0.03840
1608.57359,0.03886
1606.64484,0.03936
1604.71610,0.03981
1602.78735,0.04017
1600.85861,0.04058
1598.92986,0.04110
1597.00111,0.04162
1595.07237,0.04199
1593.14362,0.04246
1591.21488,0.04323
1589.28613,0.04395
1587.35739,0.04455
1585.42864,0.04553
1583.49990,0.04706
1581.57115,0.04883
1579.64241,0.05068
1577.71366,0.05265
1575.78492,0.05483
1573.85617,0.05700
1571.92743,0.05891
1569.99868,0.06073
1568.06993,0.06272
1566.14119,0.06480
1564.21244,0.06662
1562.28370,0.06821
1560.35495,0.07011
1558.42621,0.07254
1556.49746,0.07475
1554.56872,0.07663
1552.63997,0.07845
1550.71123,0.08021
1548.78248,0.08180
1546.85374,0.08315
1544.92499,0.08437
1542.99625,0.08551
1541.06750,0.08654
1539.13876,0.08764
1537.21001,0.08883
1535.28126,0.08992
1533.35252,0.09076
1531.42377,0.09128
1529.49503,0.09155
1527.56628,0.09182
1525.63754,0.09209
1523.70879,0.09224
1521.78005,0.09229
1519.85130,0.09221
1517.92256,0.09205
1515.99381,0.09187
1514.06507,0.09174
1512.13632,0.09167
1510.20758,0.09170
1508.27883,0.09174
1506.35008,0.09159
1504.42134,0.09137
1502.49259,0.09127
1500.56385,0.09120
1498.63510,0.09106
1496.70636,0.09080
1494.77761,0.09064
1492.84887,0.09073
1490.92012,0.09090
1488.99138,0.09084
1487.06263,0.09056
1485.13389,0.09029
1483.20514,0.09012
1481.27640,0.08998
1479.34765,0.08985
1477.41891,0.08974
1475.49016,0.08967
1473.56141,0.08953
1471.63267,0.08922
1469.70392,0.08899
1467.77518,0.08895
1465.84643,0.08893
1463.91769,0.08887
1461.98894,0.08891
1460.06020,0.08908
1458.13145,0.08924
1456.20271,0.08931
1454.27396,0.08932
1452.34522,0.08929
1450.41647,0.08918
1448.48773,0.08903
1446.55898,0.08891
1444.63024,0.08874
1442.70149,0.08859
1440.77274,0.08871
1438.84400,0.08904
1436.91525,0.08939
1434.98651,0.08978
1433.05776,0.09042
1431.12902,0.09131
1429.20027,0.09218
1427.27153,0.09303
1425.34278,0.09397
1423.41404,0.09493
1421.48529,0.09596
1419.55655,0.09722
1417.62780,0.09875
1415.69906,0.10033
1413.77031,0.10172
1411.84156,0.10285
1409.91282,0.10356
1407.98407,0.10343
1406.05533,0.10220
1404.12658,0.10015
1402.19784,0.09804
1400.26909,0.09640
1398.34035,0.09527
1396.41160,0.09426
1394.48286,0.09296
1392.55411,0.09147
1390.62537,0.09011
1388.69662,0.08888
1386.76788,0.08767
1384.83913,0.08654
1382.91039,0.08559
1380.98164,0.08481
1379.05289,0.08415
1377.12415,0.08357
1375.19540,0.08303
1373.26666,0.08266
1371.33791,0.08259
1369.40917,0.08269
1367.48042,0.08277
1365.55168,0.08294
1363.62293,0.08331
1361.69419,0.08373
1359.76544,0.08406
1357.83670,0.08441
1355.90795,0.08473
1353.97921,0.08490
1352.05046,0.08497
1350.12172,0.08502
1348.19297,0.08505
1346.26422,0.08511
1344.33548,0.08519
1342.40673,0.08525
1340.47799,0.08533
1338.54924,0.08534
1336.62050,0.08520
1334.69175,0.08497
1332.76301,0.08476
1330.83426,0.08461
1328.90552,0.08444
1326.97677,0.08425
1325.04803,0.08403
1323.11928,0.08374
1321.19054,0.08346
1319.26179,0.08337
1317.33304,0.08347
1315.40430,0.08370
1313.47555,0.08412
1311.54681,0.08465
1309.61806,0.08509
1307.68932,0.08540
1305.76057,0.08568
1303.83183,0.08603
1301.90308,0.08644
1299.97434,0.08684
1298.04559,0.08726
1296.11685,0.08762
1294.18810,0.08781
1292.25936,0.08778
1290.33061,0.08750
1288.40187,0.08708
1286.47312,0.08665
1284.54437,0.08624
1282.61563,0.08599
1280.68688,0.08609
1278.75814,0.08637
1276.82939,0.08653
1274.90065,0.08648
1272.97190,0.08624
1271.04316,0.08588
1269.11441,0.08547
1267.18567,0.08513
1265.25692,0.08493
1263.32818,0.08480
1261.39943,0.08474
1259.47069,0.08489
1257.54194,0.08511
1255.61320,0.08502
1253.68445,0.08453
1251.75570,0.08390
1249.82696,0.08333
1247.89821,0.08286
1245.96947,0.08241
1244.04072,0.08193
1242.11198,0.08147
1240.18323,0.08107
1238.25449,0.08078
1236.32574,0.08059
1234.39700,0.08039
1232.46825,0.08018
1230.53951,0.07980
1228.61076,0.07916
1226.68202,0.07864
1224.75327,0.07838
1222.82452,0.07806
1220.89578,0.07758
1218.96703,0.07701
1217.03829,0.07640
1215.10954,0.07563
1213.18080,0.07463
1211.25205,0.07352
1209.32331,0.07249
1207.39456,0.07157
1205.46582,0.07080
1203.53707,0.07011
1201.60833,0.06935
1199.67958,0.06851
1197.75084,0.06766
1195.82209,0.06687
1193.89335,0.06607
1191.96460,0.06530
1190.03585,0.06463
1188.10711,0.06409
1186.17836,0.06384
1184.24962,0.06367
1182.32087,0.06302
1180.39213,0.06204
1178.46338,0.06145
1176.53464,0.06136
1174.60589,0.06127
1172.67715,0.06092
1170.74840,0.06045
1168.81966,0.06009
1166.89091,0.05979
1164.96217,0.05938
1163.03342,0.05904
1161.10467,0.05916
1159.17593,0.05979
1157.24718,0.06047
1155.31844,0.06066
1153.38969,0.06045
1151.46095,0.06040
1149.53220,0.06072
1147.60346,0.06119
1145.67471,0.06145
1143.74597,0.06130
1141.81722,0.06101
1139.88848,0.06078
1137.95973,0.06064
1136.03099,0.06056
1134.10224,0.06050
1132.17350,0.06045
1130.24475,0.06038
1128.31600,0.06024
1126.38726,0.06005
1124.45851,0.05991
1122.52977,0.05975
1120.60102,0.05935
1118.67228,0.05868
1116.74353,0.05793
1114.81479,0.05732
1112.88604,0.05685
1110.95730,0.05633
1109.02855,0.05584
1107.09981,0.05549
1105.17106,0.05509
1103.24232,0.05451
1101.31357,0.05393
1099.38483,0.05341
1097.45608,0.05273
1095.52733,0.05217
1093.59859,0.05198
1091.66984,0.05184
1089.74110,0.05168
1087.81235,0.05165
1085.88361,0.05152
1083.95486,0.05124
1082.02612,0.05098
1080.09737,0.05089
1078.16863,0.05091
1076.23988,0.05071
1074.31114,0.05036
1072.38239,0.05035
1070.45365,0.05045
1068.52490,0.05008
1066.59615,0.04951
1064.66741,0.04902
1062.73866,0.04856
1060.80992,0.04833
1058.88117,0.04831
1056.95243,0.04817
1055.02368,0.04800
1053.09494,0.04789
1051.16619,0.04759
1049.23745,0.04727
1047.30870,0.04715
1045.37996,0.04701
1043.45121,0.04699
1041.52247,0.04710
1039.59372,0.04699
1037.66498,0.04681
1035.73623,0.04684
1033.80748,0.04693
1031.87874,0.04691
1029.94999,0.04684
1028.02125,0.04678
1026.09250,0.04671
1024.16376,0.04661
1022.23501,0.04658
1020.30627,0.04663
1018.37752,0.04666
1016.44878,0.04688
1014.52003,0.04724
1012.59129,0.04724
1010.66254,0.04696
1008.73380,0.04667
1006.80505,0.04630
1004.87631,0.04586
1002.94756,0.04563
1001.01881,0.04570
999.09007,0.04590
997.16132,0.04614
995.23258,0.04632
993.30383,0.04634
991.37509,0.04617
989.44634,0.04604
987.51760,0.04611
985.58885,0.04626
983.66011,0.04631
981.73136,0.04630
979.80262,0.04629
977.87387,0.04616
975.94513,0.04583
974.01638,0.04559
972.08763,0.04564
970.15889,0.04580
968.23014,0.04594
966.30140,0.04606
964.37265,0.04605
962.44391,0.04608
960.51516,0.04630
958.58642,0.04642
956.65767,0.04636
954.72893,0.04622
952.80018,0.04603
950.87144,0.04591
948.94269,0.04590
947.01395,0.04598
945.08520,0.04603
943.15646,0.04593
941.22771,0.04579
939.29896,0.04583
937.37022,0.04597
935.44147,0.04595
933.51273,0.04571
931.58398,0.04556
929.65524,0.04561
927.72649,0.04568
925.79775,0.04566
923.86900,0.04563
921.94026,0.04555
920.01151,0.04540
918.08277,0.04524
916.15402,0.04528
914.22528,0.04556
912.29653,0.04572
910.36779,0.04544
908.43904,0.04499
906.51029,0.04499
904.58155,0.04560
902.65280,0.04641
900.72406,0.04708
898.79531,0.04767
896.86657,0.04830
894.93782,0.04899
893.00908,0.04975
891.08033,0.05048
889.15159,0.05048
887.22284,0.04874
885.29410,0.04568
883.36535,0.04384
881.43661,0.04487
879.50786,0.04807
877.57911,0.05218
875.65037,0.05648
873.72162,0.06064
871.79288,0.06368
869.86413,0.06399
867.93539,0.06168
866.00664,0.05853
864.07790,0.05573
862.14915,0.05375
860.22041,0.05267
858.29166,0.05187
856.36292,0.05083
854.43417,0.04963
852.50543,0.04842
850.57668,0.04724
848.64794,0.04655
846.71919,0.04693
844.79044,0.04768
842.86170,0.04774
840.93295,0.04707
839.00421,0.04625
837.07546,0.04566
835.14672,0.04539
833.21797,0.04535
831.28923,0.04525
829.36048,0.04492
827.43174,0.04452
825.50299,0.04433
823.57425,0.04421
821.64550,0.04406
819.71676,0.04418
817.78801,0.04465
815.85926,0.04492
813.93052,0.04473
812.00177,0.04439
810.07303,0.04414
808.14428,0.04405
806.21554,0.04416
804.28679,0.04422
802.35805,0.04400
800.42930,0.04356
798.50056,0.04320
796.57181,0.04320
794.64307,0.04321
792.71432,0.04281
790.78558,0.04238
788.85683,0.04232
786.92809,0.04251
784.99934,0.04251
783.07059,0.04222
781.14185,0.04198
779.21310,0.04189
777.28436,0.04186
775.35561,0.04193
773.42687,0.04214
771.49812,0.04236
769.56938,0.04218
767.64063,0.04154
765.71189,0.04106
763.78314,0.04084
761.85440,0.04046
759.92565,0.04018
757.99691,0.04032
756.06816,0.04052
754.13942,0.04034
752.21067,0.03982
750.28192,0.03952
748.35318,0.03979
746.42443,0.04010
744.49569,0.03992
742.56694,0.03945
740.63820,0.03911
738.70945,0.03879
736.78071,0.03803
734.85196,0.03699
732.92322,0.03628
730.99447,0.03599
729.06573,0.03600
727.13698,0.03619
725.20824,0.03606
723.27949,0.03542
721.35074,0.03441
719.42200,0.03321
717.49325,0.03249
715.56451,0.03333
713.63576,0.03582
711.70702,0.03814
709.77827,0.03890
707.84953,0.03897
705.92078,0.03925
703.99204,0.03947
702.06329,0.03948
700.13455,0.03950
698.20580,0.03938
696.27706,0.03909
694.34831,0.03911
692.41957,0.03932
690.49082,0.03934
688.56207,0.03925
686.63333,0.03918
684.70458,0.03928
682.77584,0.03964
680.84709,0.03976
678.91835,0.03943
676.98960,0.03916
675.06086,0.03897
673.13211,0.03863
671.20337,0.03868
669.27462,0.03904
667.34588,0.03842
665.41713,0.03705
663.48839,0.03617
661.55964,0.03595
659.63090,0.03624
657.70215,0.03645
655.77340,0.03585
653.84466,0.03509
651.91591,0.03505
649.98717,0.03537
648.05842,0.03568
646.12968,0.03600
644.20093,0.03585
642.27219,0.03511
640.34344,0.03453
638.41470,0.03449
636.48595,0.03449
634.55721,0.03452
632.62846,0.03500
630.69972,0.03482
628.77097,0.03331
626.84222,0.03201
624.91348,0.03206
622.98473,0.03277
621.05599,0.03310
619.12724,0.03307
617.19850,0.03351
615.26975,0.03445
613.34101,0.03527
611.41226,0.03551
609.48352,0.03517
607.55477,0.03430
605.62603,0.03326
603.69728,0.03315
601.76854,0.03454
599.83979,0.03608
