7497.03301,0.02764
7495.10426,0.02926
7493.17552,0.02965
7491.24677,0.02953
7489.31803,0.02959
7487.38928,0.02729
7485.46054,0.02459
7483.53179,0.02541
7481.60305,0.02637
7479.67430,0.02618
7477.74556,0.02776
7475.81681,0.03173
7473.88807,0.03392
7471.95932,0.03230
7470.03057,0.02748
7468.10183,0.02151
7466.17308,0.01833
7464.24434,0.02013
7462.31559,0.02325
7460.38685,0.02441
7458.45810,0.02420
7456.52936,0.02374
7454.60061,0.02194
7452.67187,0.01819
7450.74312,0.01549
7448.81438,0.01719
7446.88563,0.02089
7444.95689,0.02607
7443.02814,0.03035
7441.09940,0.03127
7439.17065,0.03061
7437.24190,0.02903
7435.31316,0.02515
7433.38441,0.02397
7431.45567,0.02708
7429.52692,0.02698
7427.59818,0.02182
7425.66943,0.01909
7423.74069,0.02155
7421.81194,0.02485
7419.88320,0.02619
7417.95445,0.02580
7416.02571,0.02211
7414.09696,0.01782
7412.16822,0.01792
7410.23947,0.02139
7408.31073,0.02217
7406.38198,0.02141
7404.45323,0.02315
7402.52449,0.02672
7400.59574,0.02981
7398.66700,0.03221
7396.73825,0.03228
7394.80951,0.03087
7392.88076,0.02876
7390.95202,0.02608
7389.02327,0.02461
7387.09453,0.02394
7385.16578,0.02328
7383.23704,0.02272
7381.30829,0.02259
7379.37955,0.02523
7377.45080,0.02612
7375.52205,0.02220
7373.59331,0.01935
7371.66456,0.02175
7369.73582,0.02519
7367.80707,0.02613
7365.87833,0.02363
7363.94958,0.02115
7362.02084,0.02304
7360.09209,0.02571
7358.16335,0.02584
7356.23460,0.02406
7354.30586,0.01820
7352.37711,0.01489
7350.44837,0.02076
7348.51962,0.02831
7346.59088,0.02760
7344.66213,0.02144
7342.73338,0.01864
7340.80464,0.02020
7338.87589,0.02099
7336.94715,0.02275
7335.01840,0.02591
7333.08966,0.02596
7331.16091,0.02407
7329.23217,0.02471
7327.30342,0.02787
7325.37468,0.02952
7323.44593,0.02751
7321.51719,0.02576
7319.58844,0.02500
7317.65970,0.02147
7315.73095,0.01707
7313.80221,0.01828
7311.87346,0.02434
7309.94471,0.02867
7308.01597,0.02772
7306.08722,0.02531
7304.15848,0.02542
7302.22973,0.02833
7300.30099,0.03255
7298.37224,0.03801
7296.44350,0.03967
7294.51475,0.03386
7292.58601,0.02697
7290.65726,0.02700
7288.72852,0.03162
7286.79977,0.03399
7284.87103,0.03125
7282.94228,0.02628
7281.01353,0.02355
7279.08479,0.02408
7277.15604,0.02598
7275.22730,0.02821
7273.29855,0.02821
7271.36981,0.02463
7269.44106,0.02056
7267.51232,0.02112
7265.58357,0.02496
7263.65483,0.02681
7261.72608,0.02716
7259.79734,0.02891
7257.86859,0.03020
7255.93985,0.02950
7254.01110,0.02749
7252.08236,0.02565
7250.15361,0.02623
7248.22486,0.02829
7246.29612,0.02757
7244.36737,0.02644
7242.43863,0.02724
7240.50988,0.02755
7238.58114,0.02535
7236.65239,0.02205
7234.72365,0.01966
7232.79490,0.02024
7230.86616,0.02118
7228.93741,0.01935
7227.00867,0.01876
7225.07992,0.02290
7223.15118,0.02605
7221.22243,0.02479
7219.29369,0.02231
7217.36494,0.02104
7215.43619,0.02040
7213.50745,0.02149
7211.57870,0.02353
7209.64996,0.02339
7207.72121,0.02184
7205.79247,0.02234
7203.86372,0.02432
7201.93498,0.02611
7200.00623,0.02594
7198.07749,0.02306
7196.14874,0.01986
7194.22000,0.01828
7192.29125,0.01718
7190.36251,0.01748
7188.43376,0.02023
7186.50501,0.02261
7184.57627,0.02006
7182.64752,0.01774
7180.71878,0.02169
7178.79003,0.02774
7176.86129,0.02957
7174.93254,0.02702
7173.00380,0.02258
7171.07505,0.01961
7169.14631,0.01978
7167.21756,0.02213
7165.28882,0.02494
7163.36007,0.02667
7161.43133,0.02708
7159.50258,0.02714
7157.57384,0.02616
7155.64509,0.02390
7153.71634,0.02206
7151.78760,0.02385
7149.85885,0.02752
7147.93011,0.02851
7146.00136,0.02658
7144.07262,0.02560
7142.14387,0.02600
7140.21513,0.02505
7138.28638,0.02307
7136.35764,0.02296
7134.42889,0.02429
7132.50015,0.02447
7130.57140,0.02259
7128.64266,0.02157
7126.71391,0.02279
7124.78516,0.02427
7122.85642,0.02456
7120.92767,0.02250
7118.99893,0.01849
7117.07018,0.01713
7115.14144,0.02100
7113.21269,0.02584
7111.28395,0.02602
7109.35520,0.02353
7107.42646,0.02374
7105.49771,0.02554
7103.56897,0.02532
7101.64022,0.02470
7099.71148,0.02437
7097.78273,0.02418
7095.85399,0.02317
7093.92524,0.02161
7091.99649,0.02269
7090.06775,0.02664
7088.13900,0.02797
7086.21026,0.02611
7084.28151,0.02472
7082.35277,0.02591
7080.42402,0.02777
7078.49528,0.02901
7076.56653,0.02907
7074.63779,0.02780
7072.70904,0.02757
7070.78030,0.02890
7068.85155,0.02900
7066.92281,0.02816
7064.99406,0.02631
7063.06532,0.02204
7061.13657,0.01815
7059.20782,0.01902
7057.27908,0.02457
7055.35033,0.03001
7053.42159,0.03046
7051.49284,0.02651
7049.56410,0.02266
7047.63535,0.02210
7045.70661,0.02297
7043.77786,0.02140
7041.84912,0.01870
7039.92037,0.01846
7037.99163,0.02082
7036.06288,0.02461
7034.13414,0.02764
7032.20539,0.02863
7030.27664,0.02823
7028.34790,0.02740
7026.41915,0.02711
7024.49041,0.02661
7022.56166,0.02526
7020.63292,0.02531
7018.70417,0.02640
7016.77543,0.02707
7014.84668,0.02696
7012.91794,0.02590
7010.98919,0.02444
7009.06045,0.02300
7007.13170,0.02244
7005.20296,0.02395
7003.27421,0.02546
7001.34547,0.02526
6999.41672,0.02472
6997.48797,0.02408
6995.55923,0.02360
6993.63048,0.02557
6991.70174,0.02813
6989.77299,0.02832
6987.84425,0.02679
6985.91550,0.02566
6983.98676,0.02519
6982.05801,0.02441
6980.12927,0.02424
6978.20052,0.02529
6976.27178,0.02605
6974.34303,0.02660
6972.41429,0.02668
6970.48554,0.02548
6968.55680,0.02423
6966.62805,0.02461
6964.69930,0.02614
6962.77056,0.02683
6960.84181,0.02446
6958.91307,0.02219
6956.98432,0.02379
6955.05558,0.02681
6953.12683,0.02713
6951.19809,0.02475
6949.26934,0.02263
6947.34060,0.02287
6945.41185,0.02402
6943.48311,0.02455
6941.55436,0.02375
6939.62562,0.02317
6937.69687,0.02342
6935.76812,0.02332
6933.83938,0.02201
6931.91063,0.02039
6929.98189,0.01992
6928.05314,0.02111
6926.12440,0.02267
6924.19565,0.02386
6922.26691,0.02331
6920.33816,0.02190
6918.40942,0.02299
6916.48067,0.02578
6914.55193,0.02745
6912.62318,0.02685
6910.69444,0.02436
6908.76569,0.02373
6906.83695,0.02570
6904.90820,0.02716
6902.97945,0.02663
6901.05071,0.02433
6899.12196,0.02314
6897.19322,0.02542
6895.26447,0.02938
6893.33573,0.03182
6891.40698,0.03133
6889.47824,0.02975
6887.54949,0.02883
6885.62075,0.02838
6883.69200,0.02708
6881.76326,0.02505
6879.83451,0.02354
6877.90577,0.02242
6875.97702,0.02086
6874.04828,0.01995
6872.11953,0.02057
6870.19078,0.02177
6868.26204,0.02330
6866.33329,0.02639
6864.40455,0.02948
6862.47580,0.02885
6860.54706,0.02524
6858.61831,0.02532
6856.68957,0.02761
6854.76082,0.02605
6852.83208,0.02325
6850.90333,0.02347
6848.97459,0.02642
6847.04584,0.02957
6845.11710,0.02956
6843.18835,0.02718
6841.25960,0.02466
6839.33086,0.02262
6837.40211,0.02108
6835.47337,0.02062
6833.54462,0.01981
6831.61588,0.01940
6829.68713,0.02105
6827.75839,0.02214
6825.82964,0.02049
6823.90090,0.01964
6821.97215,0.02092
6820.04341,0.02175
6818.11466,0.02195
6816.18592,0.02284
6814.25717,0.02388
6812.32843,0.02441
6810.39968,0.02392
6808.47093,0.02331
6806.54219,0.02410
6804.61344,0.02555
6802.68470,0.02726
6800.75595,0.02894
6798.82721,0.02774
6796.89846,0.02350
6794.96972,0.02056
6793.04097,0.02163
6791.11223,0.02313
6789.18348,0.02352
6787.25474,0.02501
6785.32599,0.02680
6783.39725,0.02641
6781.46850,0.02450
6779.53975,0.02267
6777.61101,0.02285
6775.68226,0.02543
6773.75352,0.02675
6771.82477,0.02545
6769.89603,0.02353
6767.96728,0.02203
6766.03854,0.02230
6764.10979,0.02279
6762.18105,0.02288
6760.25230,0.02352
6758.32356,0.02390
6756.39481,0.02375
6754.46607,0.02316
6752.53732,0.02155
6750.60858,0.01973
6748.67983,0.01962
6746.75108,0.02205
6744.82234,0.02430
6742.89359,0.02378
6740.96485,0.02181
6739.03610,0.02170
6737.10736,0.02484
6735.17861,0.02797
6733.24987,0.02656
6731.32112,0.02187
6729.39238,0.01834
6727.46363,0.01854
6725.53489,0.02112
6723.60614,0.02291
6721.67740,0.02347
6719.74865,0.02358
6717.81991,0.02180
6715.89116,0.01947
6713.96241,0.02090
6712.03367,0.02446
6710.10492,0.02390
6708.17618,0.02104
6706.24743,0.02105
6704.31869,0.02267
6702.38994,0.02227
6700.46120,0.01987
6698.53245,0.01855
6696.60371,0.01992
6694.67496,0.02155
6692.74622,0.02197
6690.81747,0.02175
6688.88873,0.02105
6686.95998,0.02015
6685.03123,0.01980
6683.10249,0.02015
6681.17374,0.02091
6679.24500,0.02104
6677.31625,0.02088
6675.38751,0.02189
6673.45876,0.02371
6671.53002,0.02591
6669.60127,0.02848
6667.67253,0.02857
6665.74378,0.02546
6663.81504,0.02352
6661.88629,0.02423
6659.95755,0.02500
6658.02880,0.02465
6656.10006,0.02293
6654.17131,0.02099
6652.24256,0.02027
6650.31382,0.02033
6648.38507,0.02135
6646.45633,0.02408
6644.52758,0.02695
6642.59884,0.02851
6640.67009,0.02833
6638.74135,0.02629
6636.81260,0.02369
6634.88386,0.02181
6632.95511,0.02045
6631.02637,0.02067
6629.09762,0.02263
6627.16888,0.02365
6625.24013,0.02354
6623.31139,0.02346
6621.38264,0.02285
6619.45389,0.02268
6617.52515,0.02301
6615.59640,0.02269
6613.66766,0.02110
6611.73891,0.01820
6609.81017,0.01731
6607.88142,0.02097
6605.95268,0.02496
6604.02393,0.02498
6602.09519,0.02197
6600.16644,0.01968
6598.23770,0.01961
6596.30895,0.02065
6594.38021,0.02077
6592.45146,0.02041
6590.52271,0.02105
6588.59397,0.02164
6586.66522,0.02140
6584.73648,0.02298
6582.80773,0.02545
6580.87899,0.02577
6578.95024,0.02448
6577.02150,0.02279
6575.09275,0.02130
6573.16401,0.02130
6571.23526,0.02211
6569.30652,0.02215
6567.37777,0.02130
6565.44903,0.02113
6563.52028,0.02247
6561.59154,0.02338
6559.66279,0.02307
6557.73404,0.02320
6555.80530,0.02392
6553.87655,0.02453
6551.94781,0.02412
6550.01906,0.02265
6548.09032,0.02205
6546.16157,0.02208
6544.23283,0.02134
6542.30408,0.02071
6540.37534,0.02093
6538.44659,0.02202
6536.51785,0.02298
6534.58910,0.02263
6532.66036,0.02198
6530.73161,0.02254
6528.80287,0.02287
6526.87412,0.02171
6524.94537,0.02044
6523.01663,0.02022
6521.08788,0.02022
6519.15914,0.02012
6517.23039,0.02045
6515.30165,0.02114
6513.37290,0.02192
6511.44416,0.02211
6509.51541,0.02092
6507.58667,0.01964
6505.65792,0.01930
6503.72918,0.01953
6501.80043,0.02075
6499.87169,0.02285
6497.94294,0.02466
6496.01419,0.02461
6494.08545,0.02298
6492.15670,0.02160
6490.22796,0.02051
6488.29921,0.02024
6486.37047,0.02104
6484.44172,0.02186
6482.51298,0.02229
6480.58423,0.02401
6478.65549,0.02725
6476.72674,0.02852
6474.79800,0.02634
6472.86925,0.02457
6470.94051,0.02505
6469.01176,0.02557
6467.08302,0.02426
6465.15427,0.02235
6463.22552,0.02237
6461.29678,0.02397
6459.36803,0.02410
6457.43929,0.02296
6455.51054,0.02239
6453.58180,0.02151
6451.65305,0.02005
6449.72431,0.02076
6447.79556,0.02294
6445.86682,0.02303
6443.93807,0.02169
6442.00933,0.02101
6440.08058,0.02033
6438.15184,0.01971
6436.22309,0.01981
6434.29434,0.02059
6432.36560,0.02184
6430.43685,0.02336
6428.50811,0.02341
6426.57936,0.02153
6424.65062,0.02046
6422.72187,0.02194
6420.79313,0.02340
6418.86438,0.02247
6416.93564,0.02028
6415.00689,0.01934
6413.07815,0.02021
6411.14940,0.02100
6409.22066,0.02038
6407.29191,0.02095
6405.36317,0.02341
6403.43442,0.02382
6401.50567,0.02118
6399.57693,0.01914
6397.64818,0.01943
6395.71944,0.02067
6393.79069,0.02178
6391.86195,0.02293
6389.93320,0.02343
6388.00446,0.02292
6386.07571,0.02266
6384.14697,0.02372
6382.21822,0.02498
6380.28948,0.02515
6378.36073,0.02395
6376.43199,0.02198
6374.50324,0.02089
6372.57450,0.02155
6370.64575,0.02244
6368.71700,0.02161
6366.78826,0.01957
6364.85951,0.01945
6362.93077,0.02201
6361.00202,0.02405
6359.07328,0.02353
6357.14453,0.02174
6355.21579,0.02102
6353.28704,0.02270
6351.35830,0.02486
6349.42955,0.02519
6347.50081,0.02431
6345.57206,0.02406
6343.64332,0.02382
6341.71457,0.02232
6339.78582,0.02096
6337.85708,0.02124
6335.92833,0.02238
6333.99959,0.02342
6332.07084,0.02302
6330.14210,0.02184
6328.21335,0.02180
6326.28461,0.02221
6324.35586,0.02175
6322.42712,0.02185
6320.49837,0.02305
6318.56963,0.02454
6316.64088,0.02578
6314.71214,0.02537
6312.78339,0.02294
6310.85465,0.02108
6308.92590,0.02098
6306.99715,0.02154
6305.06841,0.02223
6303.13966,0.02290
6301.21092,0.02335
6299.28217,0.02336
6297.35343,0.02280
6295.42468,0.02257
6293.49594,0.02314
6291.56719,0.02417
6289.63845,0.02502
6287.70970,0.02496
6285.78096,0.02438
6283.85221,0.02380
6281.92347,0.02254
6279.99472,0.02084
6278.06598,0.02000
6276.13723,0.02044
6274.20848,0.02143
6272.27974,0.02198
6270.35099,0.02127
6268.42225,0.02003
6266.49350,0.01985
6264.56476,0.02099
6262.63601,0.02251
6260.70727,0.02332
6258.77852,0.02235
6256.84978,0.02033
6254.92103,0.01998
6252.99229,0.02156
6251.06354,0.02241
6249.13480,0.02179
6247.20605,0.02013
6245.27730,0.01825
6243.34856,0.01792
6241.41981,0.01903
6239.49107,0.02023
6237.56232,0.02184
6235.63358,0.02408
6233.70483,0.02542
6231.77609,0.02385
6229.84734,0.02156
6227.91860,0.02233
6225.98985,0.02385
6224.06111,0.02241
6222.13236,0.01983
6220.20362,0.01887
6218.27487,0.01991
6216.34613,0.02158
6214.41738,0.02252
6212.48863,0.02212
6210.55989,0.02080
6208.63114,0.02017
6206.70240,0.02075
6204.77365,0.02129
6202.84491,0.02209
6200.91616,0.02346
6198.98742,0.02405
6197.05867,0.02297
6195.12993,0.02189
6193.20118,0.02246
6191.27244,0.02347
6189.34369,0.02332
6187.41495,0.02240
6185.48620,0.02080
6183.55746,0.01914
6181.62871,0.01916
6179.69996,0.02039
6177.77122,0.02106
6175.84247,0.02115
6173.91373,0.02118
6171.98498,0.02089
6170.05624,0.02021
6168.12749,0.01976
6166.19875,0.01957
6164.27000,0.01924
6162.34126,0.01892
6160.41251,0.01914
6158.48377,0.01996
6156.55502,0.02090
6154.62628,0.02114
6152.69753,0.02043
6150.76878,0.01937
6148.84004,0.01931
6146.91129,0.02045
6144.98255,0.02155
6143.05380,0.02193
6141.12506,0.02175
6139.19631,0.02031
6137.26757,0.01791
6135.33882,0.01710
6133.41008,0.01892
6131.48133,0.02119
6129.55259,0.02196
6127.62384,0.02178
6125.69510,0.02225
6123.76635,0.02334
6121.83761,0.02349
6119.90886,0.02263
6117.98011,0.02229
6116.05137,0.02258
6114.12262,0.02250
6112.19388,0.02182
6110.26513,0.02138
6108.33639,0.02170
6106.40764,0.02201
6104.47890,0.02215
6102.55015,0.02297
6100.62141,0.02390
6098.69266,0.02384
6096.76392,0.02267
6094.83517,0.02025
6092.90643,0.01787
6090.97768,0.01784
6089.04893,0.01938
6087.12019,0.02051
6085.19144,0.02095
6083.26270,0.02148
6081.33395,0.02253
6079.40521,0.02300
6077.47646,0.02211
6075.54772,0.02167
6073.61897,0.02255
6071.69023,0.02277
6069.76148,0.02182
6067.83274,0.02174
6065.90399,0.02237
6063.97525,0.02219
6062.04650,0.02203
6060.11776,0.02267
6058.18901,0.02338
6056.26026,0.02449
6054.33152,0.02556
6052.40277,0.02527
6050.47403,0.02407
6048.54528,0.02330
6046.61654,0.02300
6044.68779,0.02271
6042.75905,0.02268
6040.83030,0.02331
6038.90156,0.02418
6036.97281,0.02487
6035.04407,0.02510
6033.11532,0.02423
6031.18658,0.02208
6029.25783,0.02005
6027.32909,0.01932
6025.40034,0.01968
6023.47159,0.02026
6021.54285,0.02027
6019.61410,0.02009
6017.68536,0.02104
6015.75661,0.02285
6013.82787,0.02380
6011.89912,0.02334
6009.97038,0.02279
6008.04163,0.02302
6006.11289,0.02329
6004.18414,0.02243
6002.25540,0.02114
6000.32665,0.02079
5998.39791,0.02120
5996.46916,0.02196
5994.54041,0.02273
5992.61167,0.02273
5990.68292,0.02170
5988.75418,0.02039
5986.82543,0.02032
5984.89669,0.02101
5982.96794,0.02081
5981.03920,0.02001
5979.11045,0.01976
5977.18171,0.02026
5975.25296,0.02075
5973.32422,0.02020
5971.39547,0.01915
5969.46673,0.01909
5967.53798,0.02020
5965.60924,0.02170
5963.68049,0.02236
5961.75174,0.02149
5959.82300,0.02041
5957.89425,0.02042
5955.96551,0.02102
5954.03676,0.02141
5952.10802,0.02164
5950.17927,0.02158
5948.25053,0.02102
5946.32178,0.02078
5944.39304,0.02164
5942.46429,0.02281
5940.53555,0.02259
5938.60680,0.02085
5936.67806,0.01982
5934.74931,0.02040
5932.82057,0.02101
5930.89182,0.02110
5928.96307,0.02192
5927.03433,0.02295
5925.10558,0.02243
5923.17684,0.02087
5921.24809,0.01992
5919.31935,0.01994
5917.39060,0.02016
5915.46186,0.01995
5913.53311,0.01961
5911.60437,0.02011
5909.67562,0.02148
5907.74688,0.02236
5905.81813,0.02216
5903.88939,0.02133
5901.96064,0.02060
5900.03189,0.02055
5898.10315,0.02113
5896.17440,0.02194
5894.24566,0.02194
5892.31691,0.02105
5890.38817,0.02081
5888.45942,0.02118
5886.53068,0.02113
5884.60193,0.02090
5882.67319,0.02056
5880.74444,0.01956
5878.81570,0.01886
5876.88695,0.01938
5874.95821,0.02010
5873.02946,0.02037
5871.10072,0.02083
5869.17197,0.02154
5867.24322,0.02251
5865.31448,0.02380
5863.38573,0.02415
5861.45699,0.02288
5859.52824,0.02210
5857.59950,0.02289
5855.67075,0.02379
5853.74201,0.02395
5851.81326,0.02360
5849.88452,0.02302
5847.95577,0.02261
5846.02703,0.02273
5844.09828,0.02287
5842.16954,0.02221
5840.24079,0.02130
5838.31205,0.02109
5836.38330,0.02130
5834.45455,0.02156
5832.52581,0.02220
5830.59706,0.02278
5828.66832,0.02292
5826.73957,0.02343
5824.81083,0.02412
5822.88208,0.02334
5820.95334,0.02124
5819.02459,0.01987
5817.09585,0.02001
5815.16710,0.02025
5813.23836,0.01987
5811.30961,0.02012
5809.38087,0.02140
5807.45212,0.02207
5805.52337,0.02119
5803.59463,0.02012
5801.66588,0.02031
5799.73714,0.02159
5797.80839,0.02265
5795.87965,0.02243
5793.95090,0.02161
5792.02216,0.02190
5790.09341,0.02322
5788.16467,0.02408
5786.23592,0.02379
5784.30718,0.02259
5782.37843,0.02144
5780.44969,0.02180
5778.52094,0.02307
5776.59220,0.02297
5774.66345,0.02177
5772.73470,0.02135
5770.80596,0.02190
5768.87721,0.02317
5766.94847,0.02480
5765.01972,0.02495
5763.09098,0.02315
5761.16223,0.02114
5759.23349,0.02014
5757.30474,0.02053
5755.37600,0.02147
5753.44725,0.02140
5751.51851,0.02079
5749.58976,0.02110
5747.66102,0.02193
5745.73227,0.02189
5743.80352,0.02167
5741.87478,0.02246
5739.94603,0.02306
5738.01729,0.02248
5736.08854,0.02207
5734.15980,0.02225
5732.23105,0.02203
5730.30231,0.02143
5728.37356,0.02067
5726.44482,0.01997
5724.51607,0.02069
5722.58733,0.02277
5720.65858,0.02385
5718.72984,0.02329
5716.80109,0.02262
5714.87235,0.02228
5712.94360,0.02209
5711.01485,0.02202
5709.08611,0.02194
5707.15736,0.02236
5705.22862,0.02303
5703.29987,0.02322
5701.37113,0.02297
5699.44238,0.02201
5697.51364,0.02076
5695.58489,0.02048
5693.65615,0.02101
5691.72740,0.02121
5689.79866,0.02096
5687.86991,0.02066
5685.94117,0.02080
5684.01242,0.02192
5682.08368,0.02306
5680.15493,0.02298
5678.22618,0.02240
5676.29744,0.02221
5674.36869,0.02212
5672.43995,0.02200
5670.51120,0.02191
5668.58246,0.02150
5666.65371,0.02067
5664.72497,0.02018
5662.79622,0.02066
5660.86748,0.02129
5658.93873,0.02154
5657.00999,0.02182
5655.08124,0.02170
5653.15250,0.02103
5651.22375,0.02100
5649.29500,0.02182
5647.36626,0.02258
5645.43751,0.02275
5643.50877,0.02167
5641.58002,0.01963
5639.65128,0.01859
5637.72253,0.01889
5635.79379,0.01916
5633.86504,0.01923
5631.93630,0.02028
5630.00755,0.02253
5628.07881,0.02398
5626.15006,0.02373
5624.22132,0.02286
5622.29257,0.02178
5620.36383,0.02100
5618.43508,0.02050
5616.50633,0.01993
5614.57759,0.02009
5612.64884,0.02079
5610.72010,0.02105
5608.79135,0.02149
5606.86261,0.02233
5604.93386,0.02242
5603.00512,0.02090
5601.07637,0.01892
5599.14763,0.01832
5597.21888,0.01934
5595.29014,0.02107
5593.36139,0.02268
5591.43265,0.02323
5589.50390,0.02279
5587.57516,0.02243
5585.64641,0.02279
5583.71766,0.02345
5581.78892,0.02381
5579.86017,0.02359
5577.93143,0.02265
5576.00268,0.02145
5574.07394,0.02113
5572.14519,0.02191
5570.21645,0.02270
5568.28770,0.02297
5566.35896,0.02313
5564.43021,0.02310
5562.50147,0.02260
5560.57272,0.02212
5558.64398,0.02225
5556.71523,0.02255
5554.78648,0.02194
5552.85774,0.02099
5550.92899,0.02117
5549.00025,0.02214
5547.07150,0.02248
5545.14276,0.02192
5543.21401,0.02141
5541.28527,0.02135
5539.35652,0.02131
5537.42778,0.02138
5535.49903,0.02170
5533.57029,0.02172
5531.64154,0.02148
5529.71280,0.02151
5527.78405,0.02184
5525.85531,0.02235
5523.92656,0.02303
5521.99781,0.02344
5520.06907,0.02315
5518.14032,0.02265
5516.21158,0.02246
5514.28283,0.02216
5512.35409,0.02218
5510.42534,0.02304
5508.49660,0.02340
5506.56785,0.02258
5504.63911,0.02180
5502.71036,0.02161
5500.78162,0.02165
5498.85287,0.02181
5496.92413,0.02195
5494.99538,0.02171
5493.06664,0.02111
5491.13789,0.02067
5489.20914,0.02094
5487.28040,0.02174
5485.35165,0.02241
5483.42291,0.02251
5481.49416,0.02226
5479.56542,0.02193
5477.63667,0.02136
5475.70793,0.02099
5473.77918,0.02153
5471.85044,0.02242
5469.92169,0.02273
5467.99295,0.02243
5466.06420,0.02185
5464.13546,0.02127
5462.20671,0.02105
5460.27796,0.02103
5458.34922,0.02140
5456.42047,0.02274
5454.49173,0.02403
5452.56298,0.02397
5450.63424,0.02298
5448.70549,0.02188
5446.77675,0.02120
5444.84800,0.02119
5442.91926,0.02157
5440.99051,0.02221
5439.06177,0.02311
5437.13302,0.02372
5435.20428,0.02359
5433.27553,0.02294
5431.34679,0.02210
5429.41804,0.02107
5427.48929,0.02040
5425.56055,0.02078
5423.63180,0.02131
5421.70306,0.02074
5419.77431,0.01996
5417.84557,0.02020
5415.91682,0.02099
5413.98808,0.02154
5412.05933,0.02190
5410.13059,0.02225
5408.20184,0.02224
5406.27310,0.02201
5404.34435,0.02251
5402.41561,0.02312
5400.48686,0.02261
5398.55811,0.02203
5396.62937,0.02235
5394.70062,0.02225
5392.77188,0.02105
5390.84313,0.02013
5388.91439,0.02038
5386.98564,0.02102
5385.05690,0.02142
5383.12815,0.02184
5381.19941,0.02227
5379.27066,0.02227
5377.34192,0.02166
5375.41317,0.02090
5373.48443,0.02078
5371.55568,0.02088
5369.62694,0.02076
5367.69819,0.02109
5365.76944,0.02188
5363.84070,0.02229
5361.91195,0.02241
5359.98321,0.02262
5358.05446,0.02274
5356.12572,0.02304
5354.19697,0.02376
5352.26823,0.02413
5350.33948,0.02351
5348.41074,0.02240
5346.48199,0.02167
5344.55325,0.02159
5342.62450,0.02180
5340.69576,0.02177
5338.76701,0.02151
5336.83827,0.02155
5334.90952,0.02166
5332.98077,0.02143
5331.05203,0.02129
5329.12328,0.02150
5327.19454,0.02177
5325.26579,0.02178
5323.33705,0.02178
5321.40830,0.02204
5319.47956,0.02240
5317.55081,0.02247
5315.62207,0.02226
5313.69332,0.02202
5311.76458,0.02177
5309.83583,0.02159
5307.90709,0.02184
5305.97834,0.02224
5304.04959,0.02168
5302.12085,0.02023
5300.19210,0.01942
5298.26336,0.02004
5296.33461,0.02144
5294.40587,0.02240
5292.47712,0.02241
5290.54838,0.02199
5288.61963,0.02190
5286.69089,0.02237
5284.76214,0.02309
5282.83340,0.02362
5280.90465,0.02346
5278.97591,0.02263
5277.04716,0.02205
5275.11842,0.02231
5273.18967,0.02276
5271.26092,0.02274
5269.33218,0.02256
5267.40343,0.02276
5265.47469,0.02277
5263.54594,0.02184
5261.61720,0.02089
5259.68845,0.02108
5257.75971,0.02178
5255.83096,0.02182
5253.90222,0.02155
5251.97347,0.02206
5250.04473,0.02319
5248.11598,0.02368
5246.18724,0.02296
5244.25849,0.02195
5242.32975,0.02208
5240.40100,0.02351
5238.47225,0.02460
5236.54351,0.02406
5234.61476,0.02248
5232.68602,0.02115
5230.75727,0.02098
5228.82853,0.02178
5226.89978,0.02242
5224.97104,0.02224
5223.04229,0.02151
5221.11355,0.02117
5219.18480,0.02184
5217.25606,0.02253
5215.32731,0.02206
5213.39857,0.02098
5211.46982,0.02086
5209.54107,0.02180
5207.61233,0.02251
5205.68358,0.02293
5203.75484,0.02316
5201.82609,0.02286
5199.89735,0.02275
5197.96860,0.02334
5196.03986,0.02370
5194.11111,0.02305
5192.18237,0.02200
5190.25362,0.02130
5188.32488,0.02132
5186.39613,0.02184
5184.46739,0.02208
5182.53864,0.02194
5180.60990,0.02201
5178.68115,0.02234
5176.75240,0.02227
5174.82366,0.02182
5172.89491,0.02169
5170.96617,0.02181
5169.03742,0.02199
5167.10868,0.02234
5165.17993,0.02234
5163.25119,0.02206
5161.32244,0.02223
5159.39370,0.02253
5157.46495,0.02231
5155.53621,0.02197
5153.60746,0.02198
5151.67872,0.02200
5149.74997,0.02187
5147.82123,0.02170
5145.89248,0.02155
5143.96373,0.02159
5142.03499,0.02190
5140.10624,0.02207
5138.17750,0.02222
5136.24875,0.02268
5134.32001,0.02291
5132.39126,0.02258
5130.46252,0.02229
5128.53377,0.02246
5126.60503,0.02263
5124.67628,0.02228
5122.74754,0.02177
5120.81879,0.02140
5118.89005,0.02094
5116.96130,0.02062
5115.03255,0.02079
5113.10381,0.02125
5111.17506,0.02180
5109.24632,0.02206
5107.31757,0.02192
5105.38883,0.02203
5103.46008,0.02242
5101.53134,0.02272
5099.60259,0.02303
5097.67385,0.02299
5095.74510,0.02236
5093.81636,0.02194
5091.88761,0.02215
5089.95887,0.02254
5088.03012,0.02287
5086.10138,0.02296
5084.17263,0.02290
5082.24388,0.02261
5080.31514,0.02207
5078.38639,0.02189
5076.45765,0.02181
5074.52890,0.02110
5072.60016,0.02041
5070.67141,0.02040
5068.74267,0.02085
5066.81392,0.02132
5064.88518,0.02151
5062.95643,0.02159
5061.02769,0.02204
5059.09894,0.02266
5057.17020,0.02257
5055.24145,0.02181
5053.31270,0.02141
5051.38396,0.02160
5049.45521,0.02172
5047.52647,0.02161
5045.59772,0.02177
5043.66898,0.02201
5041.74023,0.02187
5039.81149,0.02172
5037.88274,0.02210
5035.95400,0.02247
5034.02525,0.02211
5032.09651,0.02171
5030.16776,0.02198
5028.23902,0.02219
5026.31027,0.02202
5024.38153,0.02230
5022.45278,0.02299
5020.52403,0.02323
5018.59529,0.02307
5016.66654,0.02272
5014.73780,0.02202
5012.80905,0.02131
5010.88031,0.02096
5008.95156,0.02092
5007.02282,0.02129
5005.09407,0.02208
5003.16533,0.02263
5001.23658,0.02245
4999.30784,0.02182
4997.37909,0.02122
4995.45035,0.02148
4993.52160,0.02268
4991.59286,0.02348
4989.66411,0.02326
4987.73536,0.02263
4985.80662,0.02203
4983.87787,0.02173
4981.94913,0.02178
4980.02038,0.02200
4978.09164,0.02213
4976.16289,0.02187
4974.23415,0.02138
4972.30540,0.02126
4970.37666,0.02173
4968.44791,0.02231
4966.51917,0.02252
4964.59042,0.02263
4962.66168,0.02284
4960.73293,0.02295
4958.80418,0.02303
4956.87544,0.02328
4954.94669,0.02347
4953.01795,0.02332
4951.08920,0.02294
4949.16046,0.02231
4947.23171,0.02151
4945.30297,0.02110
4943.37422,0.02119
4941.44548,0.02160
4939.51673,0.02199
4937.58799,0.02187
4935.65924,0.02163
4933.73050,0.02205
4931.80175,0.02248
4929.87301,0.02205
4927.94426,0.02149
4926.01551,0.02169
4924.08677,0.02233
4922.15802,0.02271
4920.22928,0.02273
4918.30053,0.02293
4916.37179,0.02308
4914.44304,0.02254
4912.51430,0.02194
4910.58555,0.02208
4908.65681,0.02270
4906.72806,0.02329
4904.79932,0.02352
4902.87057,0.02327
4900.94183,0.02308
4899.01308,0.02327
4897.08434,0.02334
4895.15559,0.02299
4893.22684,0.02236
4891.29810,0.02181
4889.36935,0.02141
4887.44061,0.02112
4885.51186,0.02151
4883.58312,0.02269
4881.65437,0.02362
4879.72563,0.02365
4877.79688,0.02307
4875.86814,0.02225
4873.93939,0.02134
4872.01065,0.02044
4870.08190,0.02032
4868.15316,0.02124
4866.22441,0.02187
4864.29566,0.02161
4862.36692,0.02147
4860.43817,0.02201
4858.50943,0.02242
4856.58068,0.02211
4854.65194,0.02180
4852.72319,0.02179
4850.79445,0.02163
4848.86570,0.02151
4846.93696,0.02187
4845.00821,0.02222
4843.07947,0.02202
4841.15072,0.02205
4839.22198,0.02271
4837.29323,0.02305
4835.36449,0.02270
4833.43574,0.02202
4831.50699,0.02154
4829.57825,0.02178
4827.64950,0.02259
4825.72076,0.02329
4823.79201,0.02352
4821.86327,0.02320
4819.93452,0.02235
4818.00578,0.02172
4816.07703,0.02197
4814.14829,0.02248
4812.21954,0.02249
4810.29080,0.02233
4808.36205,0.02262
4806.43331,0.02286
4804.50456,0.02238
4802.57582,0.02184
4800.64707,0.02225
4798.71832,0.02296
4796.78958,0.02280
4794.86083,0.02250
4792.93209,0.02309
4791.00334,0.02383
4789.07460,0.02377
4787.14585,0.02326
4785.21711,0.02275
4783.28836,0.02224
4781.35962,0.02209
4779.43087,0.02233
4777.50213,0.02237
4775.57338,0.02221
4773.64464,0.02202
4771.71589,0.02190
4769.78714,0.02228
4767.85840,0.02306
4765.92965,0.02342
4764.00091,0.02304
4762.07216,0.02225
4760.14342,0.02152
4758.21467,0.02132
4756.28593,0.02153
4754.35718,0.02157
4752.42844,0.02145
4750.49969,0.02154
4748.57095,0.02179
4746.64220,0.02187
4744.71346,0.02172
4742.78471,0.02153
4740.85597,0.02146
4738.92722,0.02175
4736.99847,0.02251
4735.06973,0.02300
4733.14098,0.02274
4731.21224,0.02222
4729.28349,0.02184
4727.35475,0.02200
4725.42600,0.02247
4723.49726,0.02233
4721.56851,0.02190
4719.63977,0.02185
4717.71102,0.02175
4715.78228,0.02151
4713.85353,0.02174
4711.92479,0.02231
4709.99604,0.02242
4708.06729,0.02208
4706.13855,0.02195
4704.20980,0.02218
4702.28106,0.02236
4700.35231,0.02252
4698.42357,0.02285
4696.49482,0.02312
4694.56608,0.02291
4692.63733,0.02243
4690.70859,0.02224
4688.77984,0.02221
4686.85110,0.02203
4684.92235,0.02178
4682.99361,0.02164
4681.06486,0.02181
4679.13612,0.02233
4677.20737,0.02275
4675.27862,0.02251
4673.34988,0.02180
4671.42113,0.02150
4669.49239,0.02159
4667.56364,0.02164
4665.63490,0.02183
4663.70615,0.02208
4661.77741,0.02197
4659.84866,0.02194
4657.91992,0.02240
4655.99117,0.02270
4654.06243,0.02245
4652.13368,0.02216
4650.20494,0.02209
4648.27619,0.02197
4646.34745,0.02182
4644.41870,0.02204
4642.48995,0.02246
4640.56121,0.02234
4638.63246,0.02189
4636.70372,0.02207
4634.77497,0.02267
4632.84623,0.02278
4630.91748,0.02241
4628.98874,0.02216
4627.05999,0.02219
4625.13125,0.02236
4623.20250,0.02254
4621.27376,0.02256
4619.34501,0.02235
4617.41627,0.02225
4615.48752,0.02255
4613.55877,0.02271
4611.63003,0.02231
4609.70128,0.02203
4607.77254,0.02229
4605.84379,0.02265
4603.91505,0.02268
4601.98630,0.02224
4600.05756,0.02176
4598.12881,0.02185
4596.20007,0.02198
4594.27132,0.02155
4592.34258,0.02103
4590.41383,0.02096
4588.48509,0.02147
4586.55634,0.02210
4584.62760,0.02233
4582.69885,0.02238
4580.77010,0.02238
4578.84136,0.02224
4576.91261,0.02225
4574.98387,0.02228
4573.05512,0.02212
4571.12638,0.02204
4569.19763,0.02213
4567.26889,0.02205
4565.34014,0.02160
4563.41140,0.02130
4561.48265,0.02145
4559.55391,0.02180
4557.62516,0.02213
4555.69642,0.02224
4553.76767,0.02217
4551.83893,0.02207
4549.91018,0.02196
4547.98143,0.02199
4546.05269,0.02203
4544.12394,0.02216
4542.19520,0.02259
4540.26645,0.02289
4538.33771,0.02270
4536.40896,0.02223
4534.48022,0.02179
4532.55147,0.02166
4530.62273,0.02192
4528.69398,0.02227
4526.76524,0.02234
4524.83649,0.02226
4522.90775,0.02230
4520.97900,0.02231
4519.05025,0.02213
4517.12151,0.02183
4515.19276,0.02178
4513.26402,0.02195
4511.33527,0.02188
4509.40653,0.02160
4507.47778,0.02150
4505.54904,0.02168
4503.62029,0.02194
4501.69155,0.02191
4499.76280,0.02149
4497.83406,0.02119
4495.90531,0.02146
4493.97657,0.02210
4492.04782,0.02244
4490.11908,0.02228
4488.19033,0.02212
4486.26158,0.02210
4484.33284,0.02190
4482.40409,0.02169
4480.47535,0.02177
4478.54660,0.02210
4476.61786,0.02275
4474.68911,0.02335
4472.76037,0.02330
4470.83162,0.02282
4468.90288,0.02233
4466.97413,0.02203
4465.04539,0.02206
4463.11664,0.02229
4461.18790,0.02254
4459.25915,0.02284
4457.33041,0.02293
4455.40166,0.02275
4453.47291,0.02251
4451.54417,0.02213
4449.61542,0.02191
4447.68668,0.02225
4445.75793,0.02274
4443.82919,0.02269
4441.90044,0.02215
4439.97170,0.02193
4438.04295,0.02238
4436.11421,0.02284
4434.18546,0.02277
4432.25672,0.02231
4430.32797,0.02192
4428.39923,0.02185
4426.47048,0.02185
4424.54173,0.02180
4422.61299,0.02188
4420.68424,0.02209
4418.75550,0.02239
4416.82675,0.02266
4414.89801,0.02248
4412.96926,0.02213
4411.04052,0.02227
4409.11177,0.02265
4407.18303,0.02273
4405.25428,0.02268
4403.32554,0.02266
4401.39679,0.02238
4399.46805,0.02187
4397.53930,0.02169
4395.61056,0.02189
4393.68181,0.02209
4391.75306,0.02240
4389.82432,0.02281
4387.89557,0.02254
4385.96683,0.02188
4384.03808,0.02191
4382.10934,0.02230
4380.18059,0.02231
4378.25185,0.02215
4376.32310,0.02221
4374.39436,0.02249
4372.46561,0.02273
4370.53687,0.02276
4368.60812,0.02283
4366.67938,0.02282
4364.75063,0.02242
4362.82189,0.02200
4360.89314,0.02212
4358.96439,0.02254
4357.03565,0.02278
4355.10690,0.02271
4353.17816,0.02230
4351.24941,0.02181
4349.32067,0.02181
4347.39192,0.02228
4345.46318,0.02262
4343.53443,0.02253
4341.60569,0.02224
4339.67694,0.02223
4337.74820,0.02244
4335.81945,0.02248
4333.89071,0.02248
4331.96196,0.02272
4330.03321,0.02301
4328.10447,0.02300
4326.17572,0.02279
4324.24698,0.02280
4322.31823,0.02289
4320.38949,0.02269
4318.46074,0.02227
4316.53200,0.02188
4314.60325,0.02185
4312.67451,0.02234
4310.74576,0.02286
4308.81702,0.02301
4306.88827,0.02279
4304.95953,0.02233
4303.03078,0.02194
4301.10204,0.02202
4299.17329,0.02238
4297.24454,0.02244
4295.31580,0.02216
4293.38705,0.02214
4291.45831,0.02235
4289.52956,0.02241
4287.60082,0.02253
4285.67207,0.02270
4283.74333,0.02261
4281.81458,0.02248
4279.88584,0.02255
4277.95709,0.02273
4276.02835,0.02269
4274.09960,0.02227
4272.17086,0.02194
4270.24211,0.02195
4268.31336,0.02196
4266.38462,0.02192
4264.45587,0.02214
4262.52713,0.02251
4260.59838,0.02264
4258.66964,0.02259
4256.74089,0.02261
4254.81215,0.02273
4252.88340,0.02280
4250.95466,0.02279
4249.02591,0.02285
4247.09717,0.02282
4245.16842,0.02260
4243.23968,0.02254
4241.31093,0.02256
4239.38219,0.02228
4237.45344,0.02196
4235.52469,0.02180
4233.59595,0.02175
4231.66720,0.02200
4229.73846,0.02255
4227.80971,0.02283
4225.88097,0.02262
4223.95222,0.02245
4222.02348,0.02266
4220.09473,0.02297
4218.16599,0.02317
4216.23724,0.02326
4214.30850,0.02314
4212.37975,0.02311
4210.45101,0.02340
4208.52226,0.02347
4206.59352,0.02297
4204.66477,0.02230
4202.73602,0.02197
4200.80728,0.02209
4198.87853,0.02222
4196.94979,0.02227
4195.02104,0.02246
4193.09230,0.02262
4191.16355,0.02250
4189.23481,0.02245
4187.30606,0.02282
4185.37732,0.02325
4183.44857,0.02343
4181.51983,0.02338
4179.59108,0.02296
4177.66234,0.02234
4175.73359,0.02213
4173.80484,0.02252
4171.87610,0.02300
4169.94735,0.02305
4168.01861,0.02275
4166.08986,0.02231
4164.16112,0.02192
4162.23237,0.02199
4160.30363,0.02245
4158.37488,0.02275
4156.44614,0.02270
4154.51739,0.02257
4152.58865,0.02243
4150.65990,0.02217
4148.73116,0.02206
4146.80241,0.02229
4144.87367,0.02251
4142.94492,0.02249
4141.01617,0.02240
4139.08743,0.02239
4137.15868,0.02239
4135.22994,0.02234
4133.30119,0.02216
4131.37245,0.02201
4129.44370,0.02226
4127.51496,0.02266
4125.58621,0.02276
4123.65747,0.02266
4121.72872,0.02256
4119.79998,0.02255
4117.87123,0.02252
4115.94249,0.02239
4114.01374,0.02232
4112.08500,0.02230
4110.15625,0.02223
4108.22750,0.02220
4106.29876,0.02243
4104.37001,0.02285
4102.44127,0.02310
4100.51252,0.02317
4098.58378,0.02322
4096.65503,0.02310
4094.72629,0.02268
4092.79754,0.02241
4090.86880,0.02263
4088.94005,0.02293
4087.01131,0.02300
4085.08256,0.02290
4083.15382,0.02271
4081.22507,0.02256
4079.29632,0.02257
4077.36758,0.02271
4075.43883,0.02282
4073.51009,0.02283
4071.58134,0.02277
4069.65260,0.02267
4067.72385,0.02268
4065.79511,0.02275
4063.86636,0.02261
4061.93762,0.02229
4060.00887,0.02207
4058.08013,0.02197
4056.15138,0.02183
4054.22264,0.02194
4052.29389,0.02230
4050.36515,0.02236
4048.43640,0.02202
4046.50765,0.02173
4044.57891,0.02177
4042.65016,0.02216
4040.72142,0.02262
4038.79267,0.02296
4036.86393,0.02300
4034.93518,0.02263
4033.00644,0.02217
4031.07769,0.02198
4029.14895,0.02201
4027.22020,0.02215
4025.29146,0.02224
4023.36271,0.02233
4021.43397,0.02266
4019.50522,0.02295
4017.57648,0.02274
4015.64773,0.02239
4013.71898,0.02244
4011.79024,0.02262
4009.86149,0.02270
4007.93275,0.02282
4006.00400,0.02284
4004.07526,0.02258
4002.14651,0.02229
4000.21777,0.02210
3998.28902,0.02194
3996.36028,0.02185
3994.43153,0.02193
3992.50279,0.02216
3990.57404,0.02231
3988.64530,0.02210
3986.71655,0.02185
3984.78780,0.02201
3982.85906,0.02242
3980.93031,0.02262
3979.00157,0.02241
3977.07282,0.02199
3975.14408,0.02174
3973.21533,0.02177
3971.28659,0.02209
3969.35784,0.02254
3967.42910,0.02276
3965.50035,0.02280
3963.57161,0.02307
3961.64286,0.02348
3959.71412,0.02341
3957.78537,0.02291
3955.85663,0.02250
3953.92788,0.02227
3951.99913,0.02210
3950.07039,0.02201
3948.14164,0.02202
3946.21290,0.02218
3944.28415,0.02247
3942.35541,0.02256
3940.42666,0.02242
3938.49792,0.02244
3936.56917,0.02255
3934.64043,0.02242
3932.71168,0.02233
3930.78294,0.02255
3928.85419,0.02269
3926.92545,0.02263
3924.99670,0.02264
3923.06795,0.02280
3921.13921,0.02288
3919.21046,0.02292
3917.28172,0.02302
3915.35297,0.02305
3913.42423,0.02297
3911.49548,0.02269
3909.56674,0.02230
3907.63799,0.02213
3905.70925,0.02230
3903.78050,0.02256
3901.85176,0.02262
3899.92301,0.02269
3897.99427,0.02295
3896.06552,0.02317
3894.13678,0.02326
3892.20803,0.02312
3890.27928,0.02271
3888.35054,0.02252
3886.42179,0.02282
3884.49305,0.02315
3882.56430,0.02300
3880.63556,0.02259
3878.70681,0.02257
3876.77807,0.02301
3874.84932,0.02330
3872.92058,0.02319
3870.99183,0.02301
3869.06309,0.02297
3867.13434,0.02303
3865.20560,0.02293
3863.27685,0.02257
3861.34811,0.02240
3859.41936,0.02274
3857.49061,0.02320
3855.56187,0.02320
3853.63312,0.02262
3851.70438,0.02212
3849.77563,0.02209
3847.84689,0.02235
3845.91814,0.02260
3843.98940,0.02268
3842.06065,0.02282
3840.13191,0.02296
3838.20316,0.02288
3836.27442,0.02279
3834.34567,0.02285
3832.41693,0.02277
3830.48818,0.02237
3828.55943,0.02211
3826.63069,0.02234
3824.70194,0.02273
3822.77320,0.02285
3820.84445,0.02253
3818.91571,0.02235
3816.98696,0.02268
3815.05822,0.02308
3813.12947,0.02313
3811.20073,0.02287
3809.27198,0.02248
3807.34324,0.02225
3805.41449,0.02230
3803.48575,0.02235
3801.55700,0.02227
3799.62826,0.02222
3797.69951,0.02219
3795.77076,0.02223
3793.84202,0.02257
3791.91327,0.02301
3789.98453,0.02319
3788.05578,0.02310
3786.12704,0.02291
3784.19829,0.02251
3782.26955,0.02200
3780.34080,0.02184
3778.41206,0.02213
3776.48331,0.02235
3774.55457,0.02225
3772.62582,0.02203
3770.69708,0.02189
3768.76833,0.02207
3766.83959,0.02263
3764.91084,0.02302
3762.98209,0.02303
3761.05335,0.02288
3759.12460,0.02242
3757.19586,0.02186
3755.26711,0.02198
3753.33837,0.02267
3751.40962,0.02306
3749.48088,0.02278
3747.55213,0.02230
3745.62339,0.02187
3743.69464,0.02168
3741.76590,0.02205
3739.83715,0.02263
3737.90841,0.02293
3735.97966,0.02267
3734.05091,0.02216
3732.12217,0.02199
3730.19342,0.02222
3728.26468,0.02247
3726.33593,0.02263
3724.40719,0.02275
3722.47844,0.02276
3720.54970,0.02266
3718.62095,0.02259
3716.69221,0.02263
3714.76346,0.02281
3712.83472,0.02287
3710.90597,0.02252
3708.97723,0.02223
3707.04848,0.02224
3705.11974,0.02220
3703.19099,0.02209
3701.26224,0.02221
3699.33350,0.02250
3697.40475,0.02266
3695.47601,0.02262
3693.54726,0.02248
3691.61852,0.02232
3689.68977,0.02221
3687.76103,0.02219
3685.83228,0.02229
3683.90354,0.02249
3681.97479,0.02278
3680.04605,0.02314
3678.11730,0.02328
3676.18856,0.02296
3674.25981,0.02248
3672.33107,0.02236
3670.40232,0.02238
3668.47357,0.02224
3666.54483,0.02218
3664.61608,0.02229
3662.68734,0.02231
3660.75859,0.02213
3658.82985,0.02194
3656.90110,0.02186
3654.97236,0.02191
3653.04361,0.02206
3651.11487,0.02208
3649.18612,0.02204
3647.25738,0.02218
3645.32863,0.02244
3643.39989,0.02267
3641.47114,0.02267
3639.54239,0.02240
3637.61365,0.02198
3635.68490,0.02150
3633.75616,0.02131
3631.82741,0.02160
3629.89867,0.02180
3627.96992,0.02148
3626.04118,0.02112
3624.11243,0.02116
3622.18369,0.02161
3620.25494,0.02202
3618.32620,0.02201
3616.39745,0.02191
3614.46871,0.02191
3612.53996,0.02183
3610.61122,0.02162
3608.68247,0.02137
3606.75372,0.02130
3604.82498,0.02143
3602.89623,0.02151
3600.96749,0.02139
3599.03874,0.02121
3597.11000,0.02120
3595.18125,0.02126
3593.25251,0.02120
3591.32376,0.02125
3589.39502,0.02157
3587.46627,0.02183
3585.53753,0.02185
3583.60878,0.02191
3581.68004,0.02195
3579.75129,0.02177
3577.82254,0.02156
3575.89380,0.02168
3573.96505,0.02189
3572.03631,0.02176
3570.10756,0.02146
3568.17882,0.02131
3566.25007,0.02131
3564.32133,0.02123
3562.39258,0.02092
3560.46384,0.02074
3558.53509,0.02094
3556.60635,0.02114
3554.67760,0.02108
3552.74886,0.02097
3550.82011,0.02099
3548.89137,0.02120
3546.96262,0.02146
3545.03387,0.02155
3543.10513,0.02143
3541.17638,0.02127
3539.24764,0.02128
3537.31889,0.02152
3535.39015,0.02171
3533.46140,0.02154
3531.53266,0.02123
3529.60391,0.02123
3527.67517,0.02145
3525.74642,0.02162
3523.81768,0.02166
3521.88893,0.02140
3519.96019,0.02107
3518.03144,0.02094
3516.10270,0.02086
3514.17395,0.02089
3512.24520,0.02117
3510.31646,0.02140
3508.38771,0.02127
3506.45897,0.02090
3504.53022,0.02070
3502.60148,0.02077
3500.67273,0.02097
3498.74399,0.02109
3496.81524,0.02094
3494.88650,0.02079
3492.95775,0.02080
3491.02901,0.02089
3489.10026,0.02103
3487.17152,0.02110
3485.24277,0.02105
3483.31402,0.02104
3481.38528,0.02103
3479.45653,0.02088
3477.52779,0.02066
3475.59904,0.02051
3473.67030,0.02035
3471.74155,0.02022
3469.81281,0.02028
3467.88406,0.02054
3465.95532,0.02097
3464.02657,0.02142
3462.09783,0.02158
3460.16908,0.02141
3458.24034,0.02109
3456.31159,0.02070
3454.38285,0.02036
3452.45410,0.02035
3450.52535,0.02065
3448.59661,0.02075
3446.66786,0.02052
3444.73912,0.02025
3442.81037,0.02014
3440.88163,0.02022
3438.95288,0.02038
3437.02414,0.02042
3435.09539,0.02040
3433.16665,0.02038
3431.23790,0.02026
3429.30916,0.02024
3427.38041,0.02040
3425.45167,0.02042
3423.52292,0.02028
3421.59418,0.02021
3419.66543,0.02026
3417.73668,0.02045
3415.80794,0.02057
3413.87919,0.02045
3411.95045,0.02034
3410.02170,0.02041
3408.09296,0.02055
3406.16421,0.02067
3404.23547,0.02076
3402.30672,0.02064
3400.37798,0.02036
3398.44923,0.02034
3396.52049,0.02063
3394.59174,0.02075
3392.66300,0.02050
3390.73425,0.02020
3388.80550,0.02001
3386.87676,0.01995
3384.94801,0.02022
3383.01927,0.02068
3381.09052,0.02066
3379.16178,0.02014
3377.23303,0.02001
3375.30429,0.02053
3373.37554,0.02086
3371.44680,0.02069
3369.51805,0.02041
3367.58931,0.02036
3365.66056,0.02052
3363.73182,0.02068
3361.80307,0.02070
3359.87433,0.02047
3357.94558,0.02011
3356.01683,0.02000
3354.08809,0.02015
3352.15934,0.02018
3350.23060,0.02014
3348.30185,0.02021
3346.37311,0.02039
3344.44436,0.02067
3342.51562,0.02083
3340.58687,0.02060
3338.65813,0.02021
3336.72938,0.02006
3334.80064,0.02012
3332.87189,0.02021
3330.94315,0.02016
3329.01440,0.01999
3327.08566,0.01993
3325.15691,0.02003
3323.22816,0.02006
3321.29942,0.01991
3319.37067,0.01982
3317.44193,0.02006
3315.51318,0.02052
3313.58444,0.02074
3311.65569,0.02050
3309.72695,0.02015
3307.79820,0.01998
3305.86946,0.01990
3303.94071,0.01995
3302.01197,0.02019
3300.08322,0.02042
3298.15448,0.02041
3296.22573,0.02020
3294.29698,0.01998
3292.36824,0.01993
3290.43949,0.02029
3288.51075,0.02081
3286.58200,0.02083
3284.65326,0.02039
3282.72451,0.02000
3280.79577,0.01969
3278.86702,0.01957
3276.93828,0.01983
3275.00953,0.02022
3273.08079,0.02048
3271.15204,0.02053
3269.22330,0.02033
3267.29455,0.02018
3265.36581,0.02016
3263.43706,0.02018
3261.50831,0.02033
3259.57957,0.02048
3257.65082,0.02040
3255.72208,0.02025
3253.79333,0.02022
3251.86459,0.02032
3249.93584,0.02053
3248.00710,0.02069
3246.07835,0.02066
3244.14961,0.02059
3242.22086,0.02046
3240.29212,0.02015
3238.36337,0.02002
3236.43463,0.02033
3234.50588,0.02064
3232.57713,0.02065
3230.64839,0.02066
3228.71964,0.02076
3226.79090,0.02080
3224.86215,0.02067
3222.93341,0.02044
3221.00466,0.02031
3219.07592,0.02038
3217.14717,0.02066
3215.21843,0.02099
3213.28968,0.02093
3211.36094,0.02060
3209.43219,0.02044
3207.50345,0.02035
3205.57470,0.02033
3203.64596,0.02056
3201.71721,0.02066
3199.78846,0.02036
3197.85972,0.02004
3195.93097,0.01997
3194.00223,0.02002
3192.07348,0.01986
3190.14474,0.01960
3188.21599,0.01971
3186.28725,0.02015
3184.35850,0.02046
3182.42976,0.02045
3180.50101,0.02014
3178.57227,0.01982
3176.64352,0.01979
3174.71478,0.02014
3172.78603,0.02081
3170.85729,0.02143
3168.92854,0.02162
3166.99979,0.02140
3165.07105,0.02091
3163.14230,0.02047
3161.21356,0.02025
3159.28481,0.02026
3157.35607,0.02041
3155.42732,0.02055
3153.49858,0.02069
3151.56983,0.02090
3149.64109,0.02111
3147.71234,0.02113
3145.78360,0.02099
3143.85485,0.02095
3141.92611,0.02100
3139.99736,0.02096
3138.06861,0.02091
3136.13987,0.02089
3134.21112,0.02074
3132.28238,0.02057
3130.35363,0.02053
3128.42489,0.02056
3126.49614,0.02079
3124.56740,0.02115
3122.63865,0.02126
3120.70991,0.02096
3118.78116,0.02051
3116.85242,0.02034
3114.92367,0.02065
3112.99493,0.02114
3111.06618,0.02118
3109.13744,0.02078
3107.20869,0.02055
3105.27994,0.02065
3103.35120,0.02082
3101.42245,0.02090
3099.49371,0.02082
3097.56496,0.02076
3095.63622,0.02087
3093.70747,0.02095
3091.77873,0.02077
3089.84998,0.02041
3087.92124,0.02015
3085.99249,0.02008
3084.06375,0.02012
3082.13500,0.02032
3080.20626,0.02069
3078.27751,0.02093
3076.34877,0.02082
3074.42002,0.02042
3072.49127,0.02005
3070.56253,0.01991
3068.63378,0.02006
3066.70504,0.02032
3064.77629,0.02038
3062.84755,0.02017
3060.91880,0.01998
3058.99006,0.02006
3057.06131,0.02046
3055.13257,0.02093
3053.20382,0.02106
3051.27508,0.02078
3049.34633,0.02035
3047.41759,0.01997
3045.48884,0.01981
3043.56009,0.01990
3041.63135,0.02012
3039.70260,0.02037
3037.77386,0.02058
3035.84511,0.02058
3033.91637,0.02029
3031.98762,0.01996
3030.05888,0.01984
3028.13013,0.01990
3026.20139,0.01999
3024.27264,0.02012
3022.34390,0.02032
3020.41515,0.02046
3018.48641,0.02047
3016.55766,0.02044
3014.62892,0.02044
3012.70017,0.02036
3010.77142,0.02013
3008.84268,0.02010
3006.91393,0.02039
3004.98519,0.02071
3003.05644,0.02090
3001.12770,0.02096
2999.19895,0.02079
2997.27021,0.02058
2995.34146,0.02046
2993.41272,0.02034
2991.48397,0.02021
2989.55523,0.02009
2987.62648,0.01992
2985.69774,0.01980
2983.76899,0.01969
2981.84025,0.01957
2979.91150,0.01960
2977.98275,0.01979
2976.05401,0.01990
2974.12526,0.01983
2972.19652,0.01961
2970.26777,0.01943
2968.33903,0.01957
2966.41028,0.01996
2964.48154,0.02010
2962.55279,0.01987
2960.62405,0.01954
2958.69530,0.01935
2956.76656,0.01932
2954.83781,0.01938
2952.90907,0.01940
2950.98032,0.01926
2949.05157,0.01927
2947.12283,0.01965
2945.19408,0.01985
2943.26534,0.01956
2941.33659,0.01925
2939.40785,0.01919
2937.47910,0.01927
2935.55036,0.01952
2933.62161,0.01983
2931.69287,0.02001
2929.76412,0.02006
2927.83538,0.02000
2925.90663,0.01987
2923.97789,0.01969
2922.04914,0.01952
2920.12040,0.01958
2918.19165,0.01985
2916.26290,0.02011
2914.33416,0.02031
2912.40541,0.02050
2910.47667,0.02055
2908.54792,0.02033
2906.61918,0.02011
2904.69043,0.02030
2902.76169,0.02061
2900.83294,0.02060
2898.90420,0.02046
2896.97545,0.02050
2895.04671,0.02065
2893.11796,0.02077
2891.18922,0.02073
2889.26047,0.02054
2887.33172,0.02050
2885.40298,0.02066
2883.47423,0.02066
2881.54549,0.02045
2879.61674,0.02032
2877.68800,0.02023
2875.75925,0.02004
2873.83051,0.01990
2871.90176,0.01995
2869.97302,0.01996
2868.04427,0.01977
2866.11553,0.01960
2864.18678,0.01972
2862.25804,0.02010
2860.32929,0.02049
2858.40055,0.02059
2856.47180,0.02031
2854.54305,0.02010
2852.61431,0.02029
2850.68556,0.02053
2848.75682,0.02055
2846.82807,0.02050
2844.89933,0.02059
2842.97058,0.02084
2841.04184,0.02101
2839.11309,0.02109
2837.18435,0.02126
2835.25560,0.02137
2833.32686,0.02136
2831.39811,0.02141
2829.46937,0.02145
2827.54062,0.02141
2825.61188,0.02125
2823.68313,0.02104
2821.75438,0.02106
2819.82564,0.02130
2817.89689,0.02139
2815.96815,0.02134
2814.03940,0.02134
2812.11066,0.02123
2810.18191,0.02100
2808.25317,0.02087
2806.32442,0.02082
2804.39568,0.02078
2802.46693,0.02078
2800.53819,0.02089
2798.60944,0.02114
2796.68070,0.02129
2794.75195,0.02119
2792.82320,0.02104
2790.89446,0.02093
2788.96571,0.02084
2787.03697,0.02090
2785.10822,0.02105
2783.17948,0.02100
2781.25073,0.02082
2779.32199,0.02077
2777.39324,0.02091
2775.46450,0.02107
2773.53575,0.02107
2771.60701,0.02099
2769.67826,0.02104
2767.74952,0.02102
2765.82077,0.02087
2763.89203,0.02094
2761.96328,0.02113
2760.03453,0.02108
2758.10579,0.02094
2756.17704,0.02090
2754.24830,0.02097
2752.31955,0.02113
2750.39081,0.02131
2748.46206,0.02137
2746.53332,0.02127
2744.60457,0.02114
2742.67583,0.02109
2740.74708,0.02107
2738.81834,0.02097
2736.88959,0.02087
2734.96085,0.02092
2733.03210,0.02111
2731.10336,0.02128
2729.17461,0.02134
2727.24586,0.02141
2725.31712,0.02154
2723.38837,0.02156
2721.45963,0.02152
2719.53088,0.02159
2717.60214,0.02164
2715.67339,0.02150
2713.74465,0.02129
2711.81590,0.02131
2709.88716,0.02149
2707.95841,0.02154
2706.02967,0.02145
2704.10092,0.02139
2702.17218,0.02139
2700.24343,0.02128
2698.31468,0.02098
2696.38594,0.02068
2694.45719,0.02072
2692.52845,0.02105
2690.59970,0.02126
2688.67096,0.02117
2686.74221,0.02119
2684.81347,0.02140
2682.88472,0.02147
2680.95598,0.02132
2679.02723,0.02118
2677.09849,0.02109
2675.16974,0.02102
2673.24100,0.02099
2671.31225,0.02102
2669.38351,0.02103
2667.45476,0.02100
2665.52601,0.02103
2663.59727,0.02107
2661.66852,0.02105
2659.73978,0.02095
2657.81103,0.02089
2655.88229,0.02100
2653.95354,0.02105
2652.02480,0.02092
2650.09605,0.02086
2648.16731,0.02097
2646.23856,0.02113
2644.30982,0.02123
2642.38107,0.02126
2640.45233,0.02122
2638.52358,0.02117
2636.59484,0.02113
2634.66609,0.02112
2632.73734,0.02117
2630.80860,0.02120
2628.87985,0.02117
2626.95111,0.02114
2625.02236,0.02120
2623.09362,0.02136
2621.16487,0.02148
2619.23613,0.02147
2617.30738,0.02135
2615.37864,0.02118
2613.44989,0.02110
2611.52115,0.02119
2609.59240,0.02130
2607.66366,0.02126
2605.73491,0.02104
2603.80616,0.02087
2601.87742,0.02089
2599.94867,0.02104
2598.01993,0.02118
2596.09118,0.02121
2594.16244,0.02118
2592.23369,0.02122
2590.30495,0.02126
2588.37620,0.02128
2586.44746,0.02127
2584.51871,0.02128
2582.58997,0.02127
2580.66122,0.02118
2578.73248,0.02117
2576.80373,0.02122
2574.87499,0.02111
2572.94624,0.02094
2571.01749,0.02091
2569.08875,0.02096
2567.16000,0.02106
2565.23126,0.02124
2563.30251,0.02127
2561.37377,0.02110
2559.44502,0.02103
2557.51628,0.02115
2555.58753,0.02115
2553.65879,0.02103
2551.73004,0.02109
2549.80130,0.02118
2547.87255,0.02104
2545.94381,0.02089
2544.01506,0.02092
2542.08631,0.02103
2540.15757,0.02102
2538.22882,0.02093
2536.30008,0.02090
2534.37133,0.02083
2532.44259,0.02067
2530.51384,0.02070
2528.58510,0.02096
2526.65635,0.02109
2524.72761,0.02115
2522.79886,0.02137
2520.87012,0.02150
2518.94137,0.02135
2517.01263,0.02122
2515.08388,0.02124
2513.15514,0.02123
2511.22639,0.02117
2509.29764,0.02119
2507.36890,0.02133
2505.44015,0.02141
2503.51141,0.02127
2501.58266,0.02112
2499.65392,0.02114
2497.72517,0.02125
2495.79643,0.02124
2493.86768,0.02119
2491.93894,0.02125
2490.01019,0.02131
2488.08145,0.02122
2486.15270,0.02109
2484.22396,0.02107
2482.29521,0.02108
2480.36647,0.02110
2478.43772,0.02111
2476.50897,0.02115
2474.58023,0.02125
2472.65148,0.02130
2470.72274,0.02119
2468.79399,0.02106
2466.86525,0.02106
2464.93650,0.02120
2463.00776,0.02137
2461.07901,0.02146
2459.15027,0.02141
2457.22152,0.02138
2455.29278,0.02146
2453.36403,0.02150
2451.43529,0.02139
2449.50654,0.02121
2447.57779,0.02105
2445.64905,0.02095
2443.72030,0.02090
2441.79156,0.02082
2439.86281,0.02079
2437.93407,0.02091
2436.00532,0.02102
2434.07658,0.02095
2432.14783,0.02094
2430.21909,0.02121
2428.29034,0.02140
2426.36160,0.02125
2424.43285,0.02095
2422.50411,0.02076
2420.57536,0.02078
2418.64662,0.02092
2416.71787,0.02105
2414.78912,0.02115
2412.86038,0.02123
2410.93163,0.02112
2409.00289,0.02087
2407.07414,0.02074
2405.14540,0.02094
2403.21665,0.02119
2401.28791,0.02123
2399.35916,0.02117
2397.43042,0.02111
2395.50167,0.02101
2393.57293,0.02104
2391.64418,0.02120
2389.71544,0.02137
2387.78669,0.02137
2385.85795,0.02116
2383.92920,0.02104
2382.00045,0.02112
2380.07171,0.02117
2378.14296,0.02106
2376.21422,0.02092
2374.28547,0.02101
2372.35673,0.02123
2370.42798,0.02132
2368.49924,0.02124
2366.57049,0.02108
2364.64175,0.02098
2362.71300,0.02117
2360.78426,0.02161
2358.85551,0.02181
2356.92677,0.02162
2354.99802,0.02128
2353.06927,0.02099
2351.14053,0.02087
2349.21178,0.02080
2347.28304,0.02069
2345.35429,0.02075
2343.42555,0.02106
2341.49680,0.02135
2339.56806,0.02143
2337.63931,0.02147
2335.71057,0.02160
2333.78182,0.02157
2331.85308,0.02134
2329.92433,0.02118
2327.99559,0.02118
2326.06684,0.02130
2324.13810,0.02142
2322.20935,0.02147
2320.28060,0.02154
2318.35186,0.02162
2316.42311,0.02155
2314.49437,0.02131
2312.56562,0.02105
2310.63688,0.02093
2308.70813,0.02098
2306.77939,0.02110
2304.85064,0.02114
2302.92190,0.02112
2300.99315,0.02117
2299.06441,0.02133
2297.13566,0.02143
2295.20692,0.02138
2293.27817,0.02125
2291.34943,0.02116
2289.42068,0.02103
2287.49193,0.02087
2285.56319,0.02087
2283.63444,0.02095
2281.70570,0.02080
2279.77695,0.02060
2277.84821,0.02072
2275.91946,0.02096
2273.99072,0.02104
2272.06197,0.02111
2270.13323,0.02121
2268.20448,0.02116
2266.27574,0.02101
2264.34699,0.02097
2262.41825,0.02107
2260.48950,0.02117
2258.56075,0.02113
2256.63201,0.02095
2254.70326,0.02077
2252.77452,0.02070
2250.84577,0.02077
2248.91703,0.02093
2246.98828,0.02098
2245.05954,0.02089
2243.13079,0.02091
2241.20205,0.02108
2239.27330,0.02121
2237.34456,0.02125
2235.41581,0.02126
2233.48707,0.02134
2231.55832,0.02139
2229.62958,0.02134
2227.70083,0.02122
2225.77208,0.02108
2223.84334,0.02087
2221.91459,0.02076
2219.98585,0.02088
2218.05710,0.02091
2216.12836,0.02074
2214.19961,0.02065
2212.27087,0.02075
2210.34212,0.02092
2208.41338,0.02099
2206.48463,0.02093
2204.55589,0.02087
2202.62714,0.02090
2200.69840,0.02103
2198.76965,0.02110
2196.84090,0.02113
2194.91216,0.02116
2192.98341,0.02114
2191.05467,0.02107
2189.12592,0.02101
2187.19718,0.02091
2185.26843,0.02085
2183.33969,0.02098
2181.41094,0.02116
2179.48220,0.02114
2177.55345,0.02097
2175.62471,0.02088
2173.69596,0.02094
2171.76722,0.02107
2169.83847,0.02104
2167.90973,0.02089
2165.98098,0.02082
2164.05223,0.02083
2162.12349,0.02083
2160.19474,0.02089
2158.26600,0.02095
2156.33725,0.02100
2154.40851,0.02109
2152.47976,0.02109
2150.55102,0.02089
2148.62227,0.02078
2146.69353,0.02097
2144.76478,0.02119
2142.83604,0.02108
2140.90729,0.02087
2138.97855,0.02079
2137.04980,0.02076
2135.12106,0.02075
2133.19231,0.02075
2131.26356,0.02067
2129.33482,0.02059
2127.40607,0.02065
2125.47733,0.02067
2123.54858,0.02060
2121.61984,0.02072
2119.69109,0.02093
2117.76235,0.02095
2115.83360,0.02086
2113.90486,0.02090
2111.97611,0.02104
2110.04737,0.02111
2108.11862,0.02105
2106.18988,0.02087
2104.26113,0.02063
2102.33238,0.02051
2100.40364,0.02051
2098.47489,0.02054
2096.54615,0.02059
2094.61740,0.02062
2092.68866,0.02064
2090.75991,0.02069
2088.83117,0.02072
2086.90242,0.02077
2084.97368,0.02081
2083.04493,0.02082
2081.11619,0.02095
2079.18744,0.02112
2077.25870,0.02110
2075.32995,0.02097
2073.40121,0.02081
2071.47246,0.02065
2069.54371,0.02060
2067.61497,0.02075
2065.68622,0.02087
2063.75748,0.02070
2061.82873,0.02047
2059.89999,0.02047
2057.97124,0.02056
2056.04250,0.02056
2054.11375,0.02057
2052.18501,0.02058
2050.25626,0.02054
2048.32752,0.02056
2046.39877,0.02074
2044.47003,0.02098
2042.54128,0.02109
2040.61254,0.02105
2038.68379,0.02105
2036.75504,0.02107
2034.82630,0.02096
2032.89755,0.02081
2030.96881,0.02069
2029.04006,0.02061
2027.11132,0.02063
2025.18257,0.02076
2023.25383,0.02091
2021.32508,0.02098
2019.39634,0.02089
2017.46759,0.02077
2015.53885,0.02078
2013.61010,0.02082
2011.68136,0.02081
2009.75261,0.02082
2007.82386,0.02080
2005.89512,0.02076
2003.96637,0.02085
2002.03763,0.02101
2000.10888,0.02109
1998.18014,0.02106
1996.25139,0.02091
1994.32265,0.02073
1992.39390,0.02062
1990.46516,0.02055
1988.53641,0.02063
1986.60767,0.02085
1984.67892,0.02095
1982.75018,0.02082
1980.82143,0.02059
1978.89269,0.02039
1976.96394,0.02025
1975.03519,0.02025
1973.10645,0.02049
1971.17770,0.02064
1969.24896,0.02050
1967.32021,0.02044
1965.39147,0.02065
1963.46272,0.02078
1961.53398,0.02067
1959.60523,0.02054
1957.67649,0.02054
1955.74774,0.02060
1953.81900,0.02070
1951.89025,0.02077
1949.96151,0.02078
1948.03276,0.02077
1946.10402,0.02079
1944.17527,0.02079
1942.24652,0.02082
1940.31778,0.02078
1938.38903,0.02051
1936.46029,0.02026
1934.53154,0.02023
1932.60280,0.02022
1930.67405,0.02019
1928.74531,0.02025
1926.81656,0.02043
1924.88782,0.02066
1922.95907,0.02082
1921.03033,0.02092
1919.10158,0.02103
1917.17284,0.02111
1915.24409,0.02102
1913.31534,0.02079
1911.38660,0.02056
1909.45785,0.02037
1907.52911,0.02026
1905.60036,0.02040
1903.67162,0.02068
1901.74287,0.02081
1899.81413,0.02080
1897.88538,0.02080
1895.95664,0.02075
1894.02789,0.02062
1892.09915,0.02052
1890.17040,0.02043
1888.24166,0.02033
1886.31291,0.02028
1884.38417,0.02030
1882.45542,0.02034
1880.52667,0.02035
1878.59793,0.02030
1876.66918,0.02026
1874.74044,0.02027
1872.81169,0.02037
1870.88295,0.02051
1868.95420,0.02057
1867.02546,0.02056
1865.09671,0.02049
1863.16797,0.02027
1861.23922,0.02006
1859.31048,0.02006
1857.38173,0.02009
1855.45299,0.02005
1853.52424,0.02015
1851.59549,0.02031
1849.66675,0.02032
1847.73800,0.02036
1845.80926,0.02049
1843.88051,0.02048
1841.95177,0.02033
1840.02302,0.02023
1838.09428,0.02012
1836.16553,0.02002
1834.23679,0.02012
1832.30804,0.02033
1830.37930,0.02036
1828.45055,0.02024
1826.52181,0.02019
1824.59306,0.02017
1822.66432,0.02010
1820.73557,0.02010
1818.80682,0.02025
1816.87808,0.02031
1814.94933,0.02011
1813.02059,0.01981
1811.09184,0.01962
1809.16310,0.01954
1807.23435,0.01945
1805.30561,0.01941
1803.37686,0.01944
1801.44812,0.01946
1799.51937,0.01943
1797.59063,0.01942
1795.66188,0.01941
1793.73314,0.01938
1791.80439,0.01938
1789.87565,0.01936
1787.94690,0.01923
1786.01815,0.01915
1784.08941,0.01913
1782.16066,0.01908
1780.23192,0.01914
1778.30317,0.01914
1776.37443,0.01894
1774.44568,0.01881
1772.51694,0.01892
1770.58819,0.01891
1768.65945,0.01855
1766.73070,0.01811
1764.80196,0.01792
1762.87321,0.01793
1760.94447,0.01780
1759.01572,0.01759
1757.08697,0.01755
1755.15823,0.01756
1753.22948,0.01736
1751.30074,0.01705
1749.37199,0.01695
1747.44325,0.01720
1745.51450,0.01762
1743.58576,0.01805
1741.65701,0.01843
1739.72827,0.01861
1737.79952,0.01872
1735.87078,0.01902
1733.94203,0.01940
1732.01329,0.01968
1730.08454,0.01998
1728.15580,0.02025
1726.22705,0.02038
1724.29830,0.02048
1722.36956,0.02068
1720.44081,0.02081
1718.51207,0.02079
1716.58332,0.02073
1714.65458,0.02066
1712.72583,0.02056
1710.79709,0.02049
1708.86834,0.02046
1706.93960,0.02046
1705.01085,0.02041
1703.08211,0.02019
1701.15336,0.01981
1699.22462,0.01949
1697.29587,0.01930
1695.36713,0.01907
1693.43838,0.01901
1691.50963,0.01915
1689.58089,0.01916
1687.65214,0.01914
1685.72340,0.01930
1683.79465,0.01929
1681.86591,0.01888
1679.93716,0.01860
1678.00842,0.01866
1676.07967,0.01884
1674.15093,0.01891
1672.22218,0.01883
1670.29344,0.01867
1668.36469,0.01861
1666.43595,0.01863
1664.50720,0.01849
1662.57845,0.01819
1660.64971,0.01808
1658.72096,0.01829
1656.79222,0.01868
1654.86347,0.01908
1652.93473,0.01913
1651.00598,0.01889
1649.07724,0.01872
1647.14849,0.01850
1645.21975,0.01817
1643.29100,0.01802
1641.36226,0.01811
1639.43351,0.01828
1637.50477,0.01840
1635.57602,0.01845
1633.64728,0.01838
1631.71853,0.01833
1629.78978,0.01849
1627.86104,0.01877
1625.93229,0.01889
1624.00355,0.01878
1622.07480,0.01871
1620.14606,0.01885
1618.21731,0.01898
1616.28857,0.01888
1614.35982,0.01876
1612.43108,0.01878
1610.50233,0.01881
1608.57359,0.01889
1606.64484,0.01896
1604.71610,0.01894
1602.78735,0.01884
1600.85861,0.01877
1598.92986,0.01883
1597.00111,0.01893
1595.07237,0.01880
1593.14362,0.01857
1591.21488,0.01858
1589.28613,0.01867
1587.35739,0.01861
1585.42864,0.01847
1583.49990,0.01844
1581.57115,0.01854
1579.64241,0.01859
1577.71366,0.01850
1575.78492,0.01841
1573.85617,0.01843
1571.92743,0.01845
1569.99868,0.01831
1568.06993,0.01813
1566.14119,0.01800
1564.21244,0.01787
1562.28370,0.01780
1560.35495,0.01784
1558.42621,0.01792
1556.49746,0.01814
1554.56872,0.01843
1552.63997,0.01855
1550.71123,0.01846
1548.78248,0.01840
1546.85374,0.01846
1544.92499,0.01857
1542.99625,0.01859
1541.06750,0.01847
1539.13876,0.01834
1537.21001,0.01848
1535.28126,0.01868
1533.35252,0.01861
1531.42377,0.01849
1529.49503,0.01857
1527.56628,0.01859
1525.63754,0.01841
1523.70879,0.01825
1521.78005,0.01825
1519.85130,0.01849
1517.92256,0.01881
1515.99381,0.01888
1514.06507,0.01869
1512.13632,0.01856
1510.20758,0.01864
1508.27883,0.01871
1506.35008,0.01861
1504.42134,0.01848
1502.49259,0.01839
1500.56385,0.01838
1498.63510,0.01851
1496.70636,0.01862
1494.77761,0.01868
1492.84887,0.01872
1490.92012,0.01874
1488.99138,0.01884
1487.06263,0.01900
1485.13389,0.01896
1483.20514,0.01863
1481.27640,0.01827
1479.34765,0.01806
1477.41891,0.01801
1475.49016,0.01812
1473.56141,0.01826
1471.63267,0.01825
1469.70392,0.01826
1467.77518,0.01838
1465.84643,0.01852
1463.91769,0.01855
1461.98894,0.01844
1460.06020,0.01838
1458.13145,0.01843
1456.20271,0.01838
1454.27396,0.01829
1452.34522,0.01841
1450.41647,0.01858
1448.48773,0.01863
1446.55898,0.01863
1444.63024,0.01862
1442.70149,0.01864
1440.77274,0.01872
1438.84400,0.01883
1436.91525,0.01883
1434.98651,0.01878
1433.05776,0.01879
1431.12902,0.01881
1429.20027,0.01878
1427.27153,0.01873
1425.34278,0.01872
1423.41404,0.01875
1421.48529,0.01876
1419.55655,0.01871
1417.62780,0.01857
1415.69906,0.01849
1413.77031,0.01843
1411.84156,0.01827
1409.91282,0.01816
1407.98407,0.01832
1406.05533,0.01852
1404.12658,0.01842
1402.19784,0.01822
1400.26909,0.01818
1398.34035,0.01814
1396.41160,0.01804
1394.48286,0.01794
1392.55411,0.01787
1390.62537,0.01789
1388.69662,0.01800
1386.76788,0.01810
1384.83913,0.01815
1382.91039,0.01816
1380.98164,0.01813
1379.05289,0.01817
1377.12415,0.01826
1375.19540,0.01821
1373.26666,0.01797
1371.33791,0.01779
1369.40917,0.01789
1367.48042,0.01819
1365.55168,0.01842
1363.62293,0.01839
1361.69419,0.01827
1359.76544,0.01827
1357.83670,0.01830
1355.90795,0.01828
1353.97921,0.01817
1352.05046,0.01791
1350.12172,0.01771
1348.19297,0.01784
1346.26422,0.01807
1344.33548,0.01810
1342.40673,0.01796
1340.47799,0.01778
1338.54924,0.01764
1336.62050,0.01758
1334.69175,0.01748
1332.76301,0.01739
1330.83426,0.01747
1328.90552,0.01760
1326.97677,0.01757
1325.04803,0.01742
1323.11928,0.01725
1321.19054,0.01713
1319.26179,0.01712
1317.33304,0.01706
1315.40430,0.01693
1313.47555,0.01697
1311.54681,0.01712
1309.61806,0.01713
1307.68932,0.01704
1305.76057,0.01706
1303.83183,0.01718
1301.90308,0.01731
1299.97434,0.01751
1298.04559,0.01771
1296.11685,0.01777
1294.18810,0.01771
1292.25936,0.01765
1290.33061,0.01770
1288.40187,0.01799
1286.47312,0.01844
1284.54437,0.01874
1282.61563,0.01879
1280.68688,0.01876
1278.75814,0.01883
1276.82939,0.01891
1274.90065,0.01890
1272.97190,0.01905
1271.04316,0.01937
1269.11441,0.01960
1267.18567,0.01975
1265.25692,0.01989
1263.32818,0.01993
1261.39943,0.01986
1259.47069,0.01981
1257.54194,0.01982
1255.61320,0.01992
1253.68445,0.02009
1251.75570,0.02016
1249.82696,0.02008
1247.89821,0.01997
1245.96947,0.01985
1244.04072,0.01982
1242.11198,0.01998
1240.18323,0.02009
1238.25449,0.02000
1236.32574,0.01987
1234.39700,0.01980
1232.46825,0.01960
1230.53951,0.01925
1228.61076,0.01898
1226.68202,0.01894
1224.75327,0.01909
1222.82452,0.01916
1220.89578,0.01895
1218.96703,0.01867
1217.03829,0.01872
1215.10954,0.01906
1213.18080,0.01929
1211.25205,0.01933
1209.32331,0.01933
1207.39456,0.01919
1205.46582,0.01889
1203.53707,0.01871
1201.60833,0.01860
1199.67958,0.01845
1197.75084,0.01845
1195.82209,0.01859
1193.89335,0.01847
1191.96460,0.01814
1190.03585,0.01809
1188.10711,0.01845
1186.17836,0.01871
1184.24962,0.01853
1182.32087,0.01812
1180.39213,0.01779
1178.46338,0.01768
1176.53464,0.01771
1174.60589,0.01764
1172.67715,0.01755
1170.74840,0.01755
1168.81966,0.01765
1166.89091,0.01789
1164.96217,0.01812
1163.03342,0.01808
1161.10467,0.01787
1159.17593,0.01759
1157.24718,0.01733
1155.31844,0.01727
1153.38969,0.01732
1151.46095,0.01722
1149.53220,0.01714
1147.60346,0.01729
1145.67471,0.01758
1143.74597,0.01775
1141.81722,0.01778
1139.88848,0.01778
1137.95973,0.01767
1136.03099,0.01746
1134.10224,0.01738
1132.17350,0.01755
1130.24475,0.01781
1128.31600,0.01813
1126.38726,0.01853
1124.45851,0.01880
1122.52977,0.01880
1120.60102,0.01865
1118.67228,0.01852
1116.74353,0.01855
1114.81479,0.01879
1112.88604,0.01902
1110.95730,0.01898
1109.02855,0.01885
1107.09981,0.01898
1105.17106,0.01917
1103.24232,0.01911
1101.31357,0.01882
1099.38483,0.01854
1097.45608,0.01835
1095.52733,0.01803
1093.59859,0.01760
1091.66984,0.01736
1089.74110,0.01742
1087.81235,0.01774
1085.88361,0.01802
1083.95486,0.01807
1082.02612,0.01813
1080.09737,0.01824
1078.16863,0.01831
1076.23988,0.01859
1074.31114,0.01909
1072.38239,0.01942
1070.45365,0.01944
1068.52490,0.01931
1066.59615,0.01924
1064.66741,0.01941
1062.73866,0.01966
1060.80992,0.01990
1058.88117,0.02018
1056.95243,0.02030
1055.02368,0.02021
1053.09494,0.02007
1051.16619,0.01992
1049.23745,0.01977
1047.30870,0.01968
1045.37996,0.01960
1043.45121,0.01940
1041.52247,0.01920
1039.59372,0.01912
1037.66498,0.01904
1035.73623,0.01911
1033.80748,0.01955
1031.87874,0.01991
1029.94999,0.01984
1028.02125,0.01968
1026.09250,0.01961
1024.16376,0.01938
1022.23501,0.01911
1020.30627,0.01900
1018.37752,0.01904
1016.44878,0.01919
1014.52003,0.01938
1012.59129,0.01954
1010.66254,0.01993
1008.73380,0.02056
1006.80505,0.02089
1004.87631,0.02073
1002.94756,0.02060
1001.01881,0.02078
999.09007,0.02096
997.16132,0.02102
995.23258,0.02105
993.30383,0.02087
991.37509,0.02057
989.44634,0.02053
987.51760,0.02074
985.58885,0.02093
983.66011,0.02096
981.73136,0.02092
979.80262,0.02089
977.87387,0.02072
975.94513,0.02045
974.01638,0.02045
972.08763,0.02065
970.15889,0.02065
968.23014,0.02048
966.30140,0.02036
964.37265,0.02037
962.44391,0.02034
960.51516,0.02012
958.58642,0.01986
956.65767,0.01991
954.72893,0.02020
952.80018,0.02034
950.87144,0.02022
948.94269,0.02000
947.01395,0.01969
945.08520,0.01926
943.15646,0.01903
941.22771,0.01924
939.29896,0.01944
937.37022,0.01943
935.44147,0.01948
933.51273,0.01946
931.58398,0.01920
929.65524,0.01901
927.72649,0.01904
925.79775,0.01915
923.86900,0.01930
921.94026,0.01942
920.01151,0.01949
918.08277,0.01955
916.15402,0.01947
914.22528,0.01945
912.29653,0.01953
910.36779,0.01949
908.43904,0.01938
906.51029,0.01919
904.58155,0.01892
902.65280,0.01879
900.72406,0.01890
898.79531,0.01896
896.86657,0.01875
894.93782,0.01870
893.00908,0.01902
891.08033,0.01910
889.15159,0.01894
887.22284,0.01918
885.29410,0.01967
883.36535,0.01982
881.43661,0.01972
879.50786,0.01983
877.57911,0.02016
875.65037,0.02018
873.72162,0.01954
871.79288,0.01860
869.86413,0.01807
867.93539,0.01819
866.00664,0.01860
864.07790,0.01894
862.14915,0.01911
860.22041,0.01911
858.29166,0.01895
856.36292,0.01879
854.43417,0.01868
852.50543,0.01848
850.57668,0.01841
848.64794,0.01861
846.71919,0.01871
844.79044,0.01858
842.86170,0.01863
840.93295,0.01895
839.00421,0.01921
837.07546,0.01924
835.14672,0.01910
833.21797,0.01891
831.28923,0.01878
829.36048,0.01866
827.43174,0.01867
825.50299,0.01903
823.57425,0.01952
821.64550,0.01979
819.71676,0.01963
817.78801,0.01913
815.85926,0.01882
813.93052,0.01881
812.00177,0.01879
810.07303,0.01870
808.14428,0.01852
806.21554,0.01831
804.28679,0.01843
802.35805,0.01877
800.42930,0.01894
798.50056,0.01883
796.57181,0.01855
794.64307,0.01831
792.71432,0.01832
790.78558,0.01861
788.85683,0.01894
786.92809,0.01913
784.99934,0.01927
783.07059,0.01920
781.14185,0.01871
779.21310,0.01812
777.28436,0.01783
775.35561,0.01779
773.42687,0.01774
771.49812,0.01753
769.56938,0.01739
767.64063,0.01764
765.71189,0.01803
763.78314,0.01823
761.85440,0.01817
759.92565,0.01801
757.99691,0.01796
756.06816,0.01794
754.13942,0.01777
752.21067,0.01772
750.28192,0.01795
748.35318,0.01810
746.42443,0.01806
744.49569,0.01808
742.56694,0.01827
740.63820,0.01854
738.70945,0.01855
736.78071,0.01801
734.85196,0.01739
732.92322,0.01722
730.99447,0.01747
729.06573,0.01792
727.13698,0.01825
725.20824,0.01842
723.27949,0.01882
721.35074,0.01950
719.42200,0.01969
717.49325,0.01889
715.56451,0.01786
713.63576,0.01744
711.70702,0.01757
709.77827,0.01785
707.84953,0.01807
705.92078,0.01815
703.99204,0.01818
702.06329,0.01827
700.13455,0.01814
698.20580,0.01768
696.27706,0.01746
694.34831,0.01778
692.41957,0.01821
690.49082,0.01842
688.56207,0.01831
686.63333,0.01805
684.70458,0.01799
682.77584,0.01813
680.84709,0.01782
678.91835,0.01720
676.98960,0.01710
675.06086,0.01744
673.13211,0.01771
671.20337,0.01807
669.27462,0.01857
667.34588,0.01874
665.41713,0.01823
663.48839,0.01724
661.55964,0.01612
659.63090,0.01568
657.70215,0.01644
655.77340,0.01750
653.84466,0.01762
651.91591,0.01686
649.98717,0.01635
648.05842,0.01681
646.12968,0.01728
644.20093,0.01661
642.27219,0.01527
640.34344,0.01459
638.41470,0.01488
636.48595,0.01577
634.55721,0.01684
632.62846,0.01748
630.69972,0.01728
628.77097,0.01636
626.84222,0.01527
624.91348,0.01493
622.98473,0.01528
621.05599,0.01531
619.12724,0.01497
617.19850,0.01516
615.26975,0.01568
613.34101,0.01619
611.41226,0.01659
609.48352,0.01635
607.55477,0.01505
605.62603,0.01400
603.69728,0.01459
601.76854,0.01543
599.83979,0.01470
