7497.03301,0.83010
7495.10426,0.82995
7493.17552,0.83216
7491.24677,0.83559
7489.31803,0.83453
7487.38928,0.82953
7485.46054,0.82815
7483.53179,0.83110
7481.60305,0.83343
7479.67430,0.83250
7477.74556,0.82971
7475.81681,0.82966
7473.88807,0.83111
7471.95932,0.83065
7470.03057,0.82998
7468.10183,0.82702
7466.17308,0.82224
7464.24434,0.82141
7462.31559,0.82201
7460.38685,0.82131
7458.45810,0.82302
7456.52936,0.82607
7454.60061,0.82645
7452.67187,0.82519
7450.74312,0.82440
7448.81438,0.82390
7446.88563,0.82224
7444.95689,0.81808
7443.02814,0.81543
7441.09940,0.81791
7439.17065,0.81997
7437.24190,0.81672
7435.31316,0.81216
7433.38441,0.81196
7431.45567,0.81573
7429.52692,0.81822
7427.59818,0.81771
7425.66943,0.81697
7423.74069,0.81599
7421.81194,0.81387
7419.88320,0.81224
7417.95445,0.80965
7416.02571,0.80527
7414.09696,0.80328
7412.16822,0.80366
7410.23947,0.80162
7408.31073,0.79714
7406.38198,0.79445
7404.45323,0.79547
7402.52449,0.79753
7400.59574,0.79632
7398.66700,0.79260
7396.73825,0.79248
7394.80951,0.79816
7392.88076,0.80174
7390.95202,0.79597
7389.02327,0.78720
7387.09453,0.78412
7385.16578,0.78683
7383.23704,0.79197
7381.30829,0.79700
7379.37955,0.80134
7377.45080,0.80207
7375.52205,0.79619
7373.59331,0.78919
7371.66456,0.78691
7369.73582,0.78780
7367.80707,0.78777
7365.87833,0.78592
7363.94958,0.78576
7362.02084,0.79008
7360.09209,0.79537
7358.16335,0.79500
7356.23460,0.78902
7354.30586,0.78513
7352.37711,0.78645
7350.44837,0.78487
7348.51962,0.77682
7346.59088,0.77347
7344.66213,0.77937
7342.73338,0.78290
7340.80464,0.77789
7338.87589,0.77112
7336.94715,0.76680
7335.01840,0.76353
7333.08966,0.76223
7331.16091,0.76608
7329.23217,0.77401
7327.30342,0.77842
7325.37468,0.77505
7323.44593,0.76977
7321.51719,0.76936
7319.58844,0.77303
7317.65970,0.77592
7315.73095,0.77647
7313.80221,0.77738
7311.87346,0.77907
7309.94471,0.77615
7308.01597,0.76823
7306.08722,0.76382
7304.15848,0.76648
7302.22973,0.77134
7300.30099,0.77318
7298.37224,0.77103
7296.44350,0.76887
7294.51475,0.76879
7292.58601,0.76786
7290.65726,0.76655
7288.72852,0.76741
7286.79977,0.76732
7284.87103,0.76538
7282.94228,0.76642
7281.01353,0.77009
7279.08479,0.77134
7277.15604,0.76921
7275.22730,0.76532
7273.29855,0.76206
7271.36981,0.76292
7269.44106,0.76569
7267.51232,0.76595
7265.58357,0.76554
7263.65483,0.76621
7261.72608,0.76850
7259.79734,0.77301
7257.86859,0.77556
7255.93985,0.77282
7254.01110,0.76834
7252.08236,0.76707
7250.15361,0.76670
7248.22486,0.76307
7246.29612,0.75945
7244.36737,0.75893
7242.43863,0.75947
7240.50988,0.76056
7238.58114,0.76390
7236.65239,0.76747
7234.72365,0.76795
7232.79490,0.76822
7230.86616,0.77021
7228.93741,0.76819
7227.00867,0.76054
7225.07992,0.75432
7223.15118,0.75386
7221.22243,0.75580
7219.29369,0.75602
7217.36494,0.75471
7215.43619,0.75470
7213.50745,0.75693
7211.57870,0.75876
7209.64996,0.75918
7207.72121,0.75998
7205.79247,0.76025
7203.86372,0.75748
7201.93498,0.75328
7200.00623,0.75177
7198.07749,0.75294
7196.14874,0.75340
7194.22000,0.75217
7192.29125,0.75180
7190.36251,0.75354
7188.43376,0.75445
7186.50501,0.75384
7184.57627,0.75400
7182.64752,0.75364
7180.71878,0.75224
7178.79003,0.75110
7176.86129,0.74975
7174.93254,0.74861
7173.00380,0.74750
7171.07505,0.74732
7169.14631,0.74970
7167.21756,0.75145
7165.28882,0.75056
7163.36007,0.74975
7161.43133,0.75007
7159.50258,0.74983
7157.57384,0.74799
7155.64509,0.74591
7153.71634,0.74363
7151.78760,0.73905
7149.85885,0.73382
7147.93011,0.73207
7146.00136,0.73337
7144.07262,0.73345
7142.14387,0.73170
7140.21513,0.73190
7138.28638,0.73502
7136.35764,0.73928
7134.42889,0.74207
7132.50015,0.73913
7130.57140,0.73187
7128.64266,0.72695
7126.71391,0.72591
7124.78516,0.72447
7122.85642,0.72011
7120.92767,0.71557
7118.99893,0.71309
7117.07018,0.71290
7115.14144,0.71522
7113.21269,0.71775
7111.28395,0.71759
7109.35520,0.71525
7107.42646,0.71450
7105.49771,0.71528
7103.56897,0.71286
7101.64022,0.70954
7099.71148,0.70991
7097.78273,0.70984
7095.85399,0.70582
7093.92524,0.70231
7091.99649,0.70180
7090.06775,0.70121
7088.13900,0.69898
7086.21026,0.69721
7084.28151,0.69771
7082.35277,0.69814
7080.42402,0.69587
7078.49528,0.69328
7076.56653,0.69141
7074.63779,0.68818
7072.70904,0.68481
7070.78030,0.68262
7068.85155,0.68053
7066.92281,0.67805
7064.99406,0.67556
7063.06532,0.67558
7061.13657,0.67846
7059.20782,0.67900
7057.27908,0.67546
7055.35033,0.67189
7053.42159,0.66961
7051.49284,0.66643
7049.56410,0.66300
7047.63535,0.66271
7045.70661,0.66663
7043.77786,0.66978
7041.84912,0.66574
7039.92037,0.65851
7037.99163,0.65558
7036.06288,0.65555
7034.13414,0.65525
7032.20539,0.65346
7030.27664,0.65029
7028.34790,0.64842
7026.41915,0.64667
7024.49041,0.64298
7022.56166,0.64075
7020.63292,0.64071
7018.70417,0.63975
7016.77543,0.63773
7014.84668,0.63612
7012.91794,0.63593
7010.98919,0.63593
7009.06045,0.63405
7007.13170,0.63239
7005.20296,0.63370
7003.27421,0.63542
7001.34547,0.63359
6999.41672,0.62930
6997.48797,0.62581
6995.55923,0.62446
6993.63048,0.62563
6991.70174,0.62708
6989.77299,0.62658
6987.84425,0.62548
6985.91550,0.62617
6983.98676,0.62921
6982.05801,0.63095
6980.12927,0.62890
6978.20052,0.62688
6976.27178,0.62629
6974.34303,0.62433
6972.41429,0.62157
6970.48554,0.62001
6968.55680,0.61951
6966.62805,0.62009
6964.69930,0.62146
6962.77056,0.62194
6960.84181,0.62148
6958.91307,0.62186
6956.98432,0.62276
6955.05558,0.62309
6953.12683,0.62386
6951.19809,0.62537
6949.26934,0.62590
6947.34060,0.62350
6945.41185,0.61864
6943.48311,0.61521
6941.55436,0.61589
6939.62562,0.61914
6937.69687,0.62202
6935.76812,0.62351
6933.83938,0.62367
6931.91063,0.62266
6929.98189,0.62198
6928.05314,0.62229
6926.12440,0.62166
6924.19565,0.61998
6922.26691,0.61908
6920.33816,0.61849
6918.40942,0.61625
6916.48067,0.61225
6914.55193,0.60899
6912.62318,0.60898
6910.69444,0.61193
6908.76569,0.61559
6906.83695,0.61787
6904.90820,0.61752
6902.97945,0.61554
6901.05071,0.61562
6899.12196,0.61888
6897.19322,0.62130
6895.26447,0.62075
6893.33573,0.61931
6891.40698,0.61846
6889.47824,0.61823
6887.54949,0.61809
6885.62075,0.61766
6883.69200,0.61673
6881.76326,0.61540
6879.83451,0.61440
6877.90577,0.61420
6875.97702,0.61582
6874.04828,0.61847
6872.11953,0.61772
6870.19078,0.61372
6868.26204,0.61190
6866.33329,0.61248
6864.40455,0.61164
6862.47580,0.61008
6860.54706,0.61134
6858.61831,0.61397
6856.68957,0.61472
6854.76082,0.61540
6852.83208,0.61652
6850.90333,0.61583
6848.97459,0.61367
6847.04584,0.61178
6845.11710,0.61231
6843.18835,0.61442
6841.25960,0.61513
6839.33086,0.61493
6837.40211,0.61511
6835.47337,0.61545
6833.54462,0.61534
6831.61588,0.61409
6829.68713,0.61236
6827.75839,0.61198
6825.82964,0.61361
6823.90090,0.61512
6821.97215,0.61494
6820.04341,0.61484
6818.11466,0.61479
6816.18592,0.61199
6814.25717,0.60787
6812.32843,0.60633
6810.39968,0.60759
6808.47093,0.61041
6806.54219,0.61378
6804.61344,0.61628
6802.68470,0.61759
6800.75595,0.61749
6798.82721,0.61547
6796.89846,0.61318
6794.96972,0.61332
6793.04097,0.61568
6791.11223,0.61697
6789.18348,0.61488
6787.25474,0.61160
6785.32599,0.61119
6783.39725,0.61374
6781.46850,0.61631
6779.53975,0.61803
6777.61101,0.61874
6775.68226,0.61663
6773.75352,0.61324
6771.82477,0.61206
6769.89603,0.61162
6767.96728,0.61094
6766.03854,0.61186
6764.10979,0.61423
6762.18105,0.61635
6760.25230,0.61649
6758.32356,0.61533
6756.39481,0.61459
6754.46607,0.61418
6752.53732,0.61349
6750.60858,0.61249
6748.67983,0.61239
6746.75108,0.61345
6744.82234,0.61409
6742.89359,0.61399
6740.96485,0.61446
6739.03610,0.61547
6737.10736,0.61574
6735.17861,0.61699
6733.24987,0.61907
6731.32112,0.61771
6729.39238,0.61505
6727.46363,0.61474
6725.53489,0.61395
6723.60614,0.61195
6721.67740,0.61179
6719.74865,0.61502
6717.81991,0.61983
6715.89116,0.62180
6713.96241,0.62089
6712.03367,0.62100
6710.10492,0.62153
6708.17618,0.62107
6706.24743,0.62096
6704.31869,0.61937
6702.38994,0.61576
6700.46120,0.61510
6698.53245,0.61808
6696.60371,0.62035
6694.67496,0.62054
6692.74622,0.62007
6690.81747,0.62013
6688.88873,0.62046
6686.95998,0.61990
6685.03123,0.61829
6683.10249,0.61693
6681.17374,0.61766
6679.24500,0.62003
6677.31625,0.62128
6675.38751,0.62112
6673.45876,0.62031
6671.53002,0.61907
6669.60127,0.61910
6667.67253,0.62034
6665.74378,0.62110
6663.81504,0.62114
6661.88629,0.62020
6659.95755,0.61853
6658.02880,0.61733
6656.10006,0.61792
6654.17131,0.62097
6652.24256,0.62372
6650.31382,0.62276
6648.38507,0.62037
6646.45633,0.62161
6644.52758,0.62579
6642.59884,0.62735
6640.67009,0.62490
6638.74135,0.62278
6636.81260,0.62367
6634.88386,0.62587
6632.95511,0.62677
6631.02637,0.62710
6629.09762,0.62890
6627.16888,0.62972
6625.24013,0.62755
6623.31139,0.62458
6621.38264,0.62269
6619.45389,0.62327
6617.52515,0.62643
6615.59640,0.63024
6613.66766,0.63338
6611.73891,0.63507
6609.81017,0.63487
6607.88142,0.63341
6605.95268,0.63176
6604.02393,0.62971
6602.09519,0.62758
6600.16644,0.62800
6598.23770,0.63063
6596.30895,0.63249
6594.38021,0.63391
6592.45146,0.63534
6590.52271,0.63516
6588.59397,0.63395
6586.66522,0.63423
6584.73648,0.63631
6582.80773,0.63796
6580.87899,0.63906
6578.95024,0.64045
6577.02150,0.64083
6575.09275,0.64076
6573.16401,0.64144
6571.23526,0.64148
6569.30652,0.64039
6567.37777,0.63822
6565.44903,0.63652
6563.52028,0.63851
6561.59154,0.64211
6559.66279,0.64333
6557.73404,0.64353
6555.80530,0.64393
6553.87655,0.64274
6551.94781,0.64071
6550.01906,0.64058
6548.09032,0.64104
6546.16157,0.63934
6544.23283,0.63763
6542.30408,0.63852
6540.37534,0.64069
6538.44659,0.64200
6536.51785,0.64136
6534.58910,0.64011
6532.66036,0.64083
6530.73161,0.64324
6528.80287,0.64452
6526.87412,0.64330
6524.94537,0.64146
6523.01663,0.64099
6521.08788,0.64166
6519.15914,0.64250
6517.23039,0.64273
6515.30165,0.64274
6513.37290,0.64262
6511.44416,0.64130
6509.51541,0.63969
6507.58667,0.63964
6505.65792,0.64069
6503.72918,0.64160
6501.80043,0.64224
6499.87169,0.64304
6497.94294,0.64320
6496.01419,0.64220
6494.08545,0.64205
6492.15670,0.64354
6490.22796,0.64449
6488.29921,0.64436
6486.37047,0.64462
6484.44172,0.64511
6482.51298,0.64529
6480.58423,0.64537
6478.65549,0.64476
6476.72674,0.64408
6474.79800,0.64469
6472.86925,0.64548
6470.94051,0.64564
6469.01176,0.64636
6467.08302,0.64837
6465.15427,0.65081
6463.22552,0.65101
6461.29678,0.64793
6459.36803,0.64513
6457.43929,0.64542
6455.51054,0.64746
6453.58180,0.64899
6451.65305,0.64922
6449.72431,0.64967
6447.79556,0.65050
6445.86682,0.64995
6443.93807,0.64850
6442.00933,0.64741
6440.08058,0.64710
6438.15184,0.64719
6436.22309,0.64648
6434.29434,0.64498
6432.36560,0.64416
6430.43685,0.64466
6428.50811,0.64528
6426.57936,0.64484
6424.65062,0.64408
6422.72187,0.64500
6420.79313,0.64758
6418.86438,0.64946
6416.93564,0.64993
6415.00689,0.64938
6413.07815,0.64897
6411.14940,0.65021
6409.22066,0.65196
6407.29191,0.65242
6405.36317,0.65102
6403.43442,0.64858
6401.50567,0.64717
6399.57693,0.64790
6397.64818,0.65016
6395.71944,0.65243
6393.79069,0.65305
6391.86195,0.65150
6389.93320,0.64906
6388.00446,0.64796
6386.07571,0.64991
6384.14697,0.65370
6382.21822,0.65571
6380.28948,0.65519
6378.36073,0.65398
6376.43199,0.65264
6374.50324,0.65171
6372.57450,0.65218
6370.64575,0.65289
6368.71700,0.65284
6366.78826,0.65345
6364.85951,0.65454
6362.93077,0.65452
6361.00202,0.65320
6359.07328,0.65169
6357.14453,0.65152
6355.21579,0.65217
6353.28704,0.65233
6351.35830,0.65201
6349.42955,0.65071
6347.50081,0.64887
6345.57206,0.64851
6343.64332,0.64989
6341.71457,0.65111
6339.78582,0.65149
6337.85708,0.65168
6335.92833,0.65188
6333.99959,0.65292
6332.07084,0.65474
6330.14210,0.65492
6328.21335,0.65311
6326.28461,0.65227
6324.35586,0.65342
6322.42712,0.65441
6320.49837,0.65444
6318.56963,0.65448
6316.64088,0.65460
6314.71214,0.65468
6312.78339,0.65487
6310.85465,0.65539
6308.92590,0.65670
6306.99715,0.65895
6305.06841,0.66144
6303.13966,0.66304
6301.21092,0.66282
6299.28217,0.66074
6297.35343,0.65848
6295.42468,0.65798
6293.49594,0.65838
6291.56719,0.65789
6289.63845,0.65764
6287.70970,0.65899
6285.78096,0.66050
6283.85221,0.66108
6281.92347,0.66124
6279.99472,0.66121
6278.06598,0.66155
6276.13723,0.66270
6274.20848,0.66344
6272.27974,0.66282
6270.35099,0.66229
6268.42225,0.66321
6266.49350,0.66428
6264.56476,0.66495
6262.63601,0.66623
6260.70727,0.66748
6258.77852,0.66824
6256.84978,0.66962
6254.92103,0.67138
6252.99229,0.67205
6251.06354,0.67196
6249.13480,0.67235
6247.20605,0.67254
6245.27730,0.67249
6243.34856,0.67340
6241.41981,0.67422
6239.49107,0.67421
6237.56232,0.67452
6235.63358,0.67481
6233.70483,0.67530
6231.77609,0.67717
6229.84734,0.67906
6227.91860,0.67965
6225.98985,0.67971
6224.06111,0.67979
6222.13236,0.67990
6220.20362,0.67988
6218.27487,0.67942
6216.34613,0.67892
6214.41738,0.67928
6212.48863,0.67985
6210.55989,0.67940
6208.63114,0.67874
6206.70240,0.67871
6204.77365,0.67927
6202.84491,0.68121
6200.91616,0.68386
6198.98742,0.68473
6197.05867,0.68370
6195.12993,0.68312
6193.20118,0.68348
6191.27244,0.68375
6189.34369,0.68407
6187.41495,0.68474
6185.48620,0.68481
6183.55746,0.68403
6181.62871,0.68463
6179.69996,0.68718
6177.77122,0.68863
6175.84247,0.68782
6173.91373,0.68677
6171.98498,0.68719
6170.05624,0.68873
6168.12749,0.69002
6166.19875,0.69056
6164.27000,0.69059
6162.34126,0.69090
6160.41251,0.69166
6158.48377,0.69154
6156.55502,0.69068
6154.62628,0.69151
6152.69753,0.69394
6150.76878,0.69563
6148.84004,0.69637
6146.91129,0.69629
6144.98255,0.69543
6143.05380,0.69483
6141.12506,0.69398
6139.19631,0.69292
6137.26757,0.69353
6135.33882,0.69575
6133.41008,0.69792
6131.48133,0.69986
6129.55259,0.70118
6127.62384,0.70021
6125.69510,0.69729
6123.76635,0.69477
6121.83761,0.69446
6119.90886,0.69610
6117.98011,0.69801
6116.05137,0.69929
6114.12262,0.70020
6112.19388,0.70158
6110.26513,0.70283
6108.33639,0.70249
6106.40764,0.70134
6104.47890,0.70039
6102.55015,0.69968
6100.62141,0.70015
6098.69266,0.70214
6096.76392,0.70378
6094.83517,0.70328
6092.90643,0.70103
6090.97768,0.69930
6089.04893,0.69921
6087.12019,0.69885
6085.19144,0.69725
6083.26270,0.69639
6081.33395,0.69733
6079.40521,0.69850
6077.47646,0.69848
6075.54772,0.69813
6073.61897,0.69825
6071.69023,0.69874
6069.76148,0.69965
6067.83274,0.70031
6065.90399,0.70029
6063.97525,0.69957
6062.04650,0.69834
6060.11776,0.69794
6058.18901,0.69901
6056.26026,0.69960
6054.33152,0.69781
6052.40277,0.69491
6050.47403,0.69395
6048.54528,0.69556
6046.61654,0.69741
6044.68779,0.69772
6042.75905,0.69673
6040.83030,0.69496
6038.90156,0.69283
6036.97281,0.69093
6035.04407,0.69012
6033.11532,0.69089
6031.18658,0.69206
6029.25783,0.69238
6027.32909,0.69222
6025.40034,0.69169
6023.47159,0.69052
6021.54285,0.68945
6019.61410,0.68882
6017.68536,0.68809
6015.75661,0.68773
6013.82787,0.68822
6011.89912,0.68853
6009.97038,0.68786
6008.04163,0.68621
6006.11289,0.68444
6004.18414,0.68382
6002.25540,0.68395
6000.32665,0.68374
5998.39791,0.68286
5996.46916,0.68158
5994.54041,0.68099
5992.61167,0.68124
5990.68292,0.68087
5988.75418,0.67998
5986.82543,0.68004
5984.89669,0.68095
5982.96794,0.68119
5981.03920,0.68039
5979.11045,0.67975
5977.18171,0.67984
5975.25296,0.68011
5973.32422,0.67999
5971.39547,0.67889
5969.46673,0.67751
5967.53798,0.67767
5965.60924,0.67825
5963.68049,0.67676
5961.75174,0.67433
5959.82300,0.67282
5957.89425,0.67142
5955.96551,0.67017
5954.03676,0.67016
5952.10802,0.67086
5950.17927,0.67149
5948.25053,0.67160
5946.32178,0.67082
5944.39304,0.67000
5942.46429,0.67031
5940.53555,0.67136
5938.60680,0.67211
5936.67806,0.67250
5934.74931,0.67292
5932.82057,0.67297
5930.89182,0.67217
5928.96307,0.67157
5927.03433,0.67213
5925.10558,0.67314
5923.17684,0.67326
5921.24809,0.67192
5919.31935,0.67009
5917.39060,0.66863
5915.46186,0.66794
5913.53311,0.66842
5911.60437,0.66925
5909.67562,0.66970
5907.74688,0.67005
5905.81813,0.67048
5903.88939,0.67031
5901.96064,0.66885
5900.03189,0.66715
5898.10315,0.66659
5896.17440,0.66655
5894.24566,0.66553
5892.31691,0.66411
5890.38817,0.66371
5888.45942,0.66319
5886.53068,0.66136
5884.60193,0.65969
5882.67319,0.65980
5880.74444,0.66125
5878.81570,0.66248
5876.88695,0.66218
5874.95821,0.66029
5873.02946,0.65879
5871.10072,0.65904
5869.17197,0.65982
5867.24322,0.65970
5865.31448,0.65912
5863.38573,0.65896
5861.45699,0.65841
5859.52824,0.65715
5857.59950,0.65666
5855.67075,0.65693
5853.74201,0.65645
5851.81326,0.65562
5849.88452,0.65566
5847.95577,0.65606
5846.02703,0.65579
5844.09828,0.65497
5842.16954,0.65436
5840.24079,0.65382
5838.31205,0.65276
5836.38330,0.65168
5834.45455,0.65096
5832.52581,0.65019
5830.59706,0.64893
5828.66832,0.64685
5826.73957,0.64508
5824.81083,0.64528
5822.88208,0.64625
5820.95334,0.64570
5819.02459,0.64416
5817.09585,0.64344
5815.16710,0.64305
5813.23836,0.64209
5811.30961,0.64173
5809.38087,0.64274
5807.45212,0.64374
5805.52337,0.64338
5803.59463,0.64234
5801.66588,0.64165
5799.73714,0.64107
5797.80839,0.64089
5795.87965,0.64168
5793.95090,0.64217
5792.02216,0.64172
5790.09341,0.64220
5788.16467,0.64393
5786.23592,0.64521
5784.30718,0.64608
5782.37843,0.64737
5780.44969,0.64845
5778.52094,0.64881
5776.59220,0.64894
5774.66345,0.64912
5772.73470,0.64930
5770.80596,0.64963
5768.87721,0.65049
5766.94847,0.65163
5765.01972,0.65228
5763.09098,0.65248
5761.16223,0.65264
5759.23349,0.65302
5757.30474,0.65393
5755.37600,0.65495
5753.44725,0.65547
5751.51851,0.65549
5749.58976,0.65555
5747.66102,0.65607
5745.73227,0.65654
5743.80352,0.65692
5741.87478,0.65793
5739.94603,0.65932
5738.01729,0.65974
5736.08854,0.65880
5734.15980,0.65774
5732.23105,0.65756
5730.30231,0.65778
5728.37356,0.65765
5726.44482,0.65718
5724.51607,0.65672
5722.58733,0.65667
5720.65858,0.65726
5718.72984,0.65801
5716.80109,0.65844
5714.87235,0.65869
5712.94360,0.65875
5711.01485,0.65823
5709.08611,0.65738
5707.15736,0.65675
5705.22862,0.65642
5703.29987,0.65646
5701.37113,0.65665
5699.44238,0.65657
5697.51364,0.65648
5695.58489,0.65657
5693.65615,0.65637
5691.72740,0.65566
5689.79866,0.65507
5687.86991,0.65518
5685.94117,0.65547
5684.01242,0.65535
5682.08368,0.65542
5680.15493,0.65589
5678.22618,0.65617
5676.29744,0.65622
5674.36869,0.65622
5672.43995,0.65615
5670.51120,0.65625
5668.58246,0.65656
5666.65371,0.65670
5664.72497,0.65689
5662.79622,0.65735
5660.86748,0.65726
5658.93873,0.65678
5657.00999,0.65676
5655.08124,0.65700
5653.15250,0.65753
5651.22375,0.65815
5649.29500,0.65821
5647.36626,0.65828
5645.43751,0.65818
5643.50877,0.65681
5641.58002,0.65575
5639.65128,0.65629
5637.72253,0.65683
5635.79379,0.65681
5633.86504,0.65706
5631.93630,0.65758
5630.00755,0.65824
5628.07881,0.65908
5626.15006,0.65962
5624.22132,0.65930
5622.29257,0.65835
5620.36383,0.65791
5618.43508,0.65884
5616.50633,0.66037
5614.57759,0.66115
5612.64884,0.66109
5610.72010,0.66050
5608.79135,0.65970
5606.86261,0.65944
5604.93386,0.65954
5603.00512,0.65918
5601.07637,0.65837
5599.14763,0.65741
5597.21888,0.65680
5595.29014,0.65734
5593.36139,0.65822
5591.43265,0.65829
5589.50390,0.65822
5587.57516,0.65865
5585.64641,0.65927
5583.71766,0.65991
5581.78892,0.66043
5579.86017,0.66043
5577.93143,0.66030
5576.00268,0.66090
5574.07394,0.66157
5572.14519,0.66126
5570.21645,0.66095
5568.28770,0.66165
5566.35896,0.66220
5564.43021,0.66187
5562.50147,0.66151
5560.57272,0.66199
5558.64398,0.66348
5556.71523,0.66489
5554.78648,0.66532
5552.85774,0.66484
5550.92899,0.66343
5549.00025,0.66192
5547.07150,0.66180
5545.14276,0.66266
5543.21401,0.66313
5541.28527,0.66339
5539.35652,0.66370
5537.42778,0.66322
5535.49903,0.66279
5533.57029,0.66380
5531.64154,0.66510
5529.71280,0.66549
5527.78405,0.66579
5525.85531,0.66631
5523.92656,0.66613
5521.99781,0.66542
5520.06907,0.66503
5518.14032,0.66487
5516.21158,0.66525
5514.28283,0.66663
5512.35409,0.66755
5510.42534,0.66716
5508.49660,0.66671
5506.56785,0.66662
5504.63911,0.66629
5502.71036,0.66607
5500.78162,0.66620
5498.85287,0.66602
5496.92413,0.66570
5494.99538,0.66613
5493.06664,0.66717
5491.13789,0.66772
5489.20914,0.66736
5487.28040,0.66666
5485.35165,0.66635
5483.42291,0.66664
5481.49416,0.66712
5479.56542,0.66742
5477.63667,0.66765
5475.70793,0.66811
5473.77918,0.66884
5471.85044,0.66915
5469.92169,0.66900
5467.99295,0.66909
5466.06420,0.66952
5464.13546,0.67034
5462.20671,0.67163
5460.27796,0.67225
5458.34922,0.67151
5456.42047,0.67067
5454.49173,0.67079
5452.56298,0.67139
5450.63424,0.67185
5448.70549,0.67237
5446.77675,0.67311
5444.84800,0.67361
5442.91926,0.67341
5440.99051,0.67302
5439.06177,0.67348
5437.13302,0.67432
5435.20428,0.67480
5433.27553,0.67581
5431.34679,0.67764
5429.41804,0.67902
5427.48929,0.67911
5425.56055,0.67838
5423.63180,0.67793
5421.70306,0.67830
5419.77431,0.67895
5417.84557,0.67911
5415.91682,0.67912
5413.98808,0.67948
5412.05933,0.67945
5410.13059,0.67867
5408.20184,0.67839
5406.27310,0.67931
5404.34435,0.68050
5402.41561,0.68139
5400.48686,0.68199
5398.55811,0.68158
5396.62937,0.68026
5394.70062,0.67971
5392.77188,0.68065
5390.84313,0.68165
5388.91439,0.68151
5386.98564,0.68093
5385.05690,0.68090
5383.12815,0.68119
5381.19941,0.68104
5379.27066,0.68063
5377.34192,0.68078
5375.41317,0.68162
5373.48443,0.68243
5371.55568,0.68226
5369.62694,0.68127
5367.69819,0.68057
5365.76944,0.68054
5363.84070,0.68100
5361.91195,0.68150
5359.98321,0.68157
5358.05446,0.68115
5356.12572,0.68014
5354.19697,0.67889
5352.26823,0.67823
5350.33948,0.67808
5348.41074,0.67803
5346.48199,0.67840
5344.55325,0.67905
5342.62450,0.67919
5340.69576,0.67891
5338.76701,0.67846
5336.83827,0.67767
5334.90952,0.67699
5332.98077,0.67638
5331.05203,0.67505
5329.12328,0.67341
5327.19454,0.67224
5325.26579,0.67149
5323.33705,0.67118
5321.40830,0.67102
5319.47956,0.67016
5317.55081,0.66841
5315.62207,0.66665
5313.69332,0.66557
5311.76458,0.66466
5309.83583,0.66308
5307.90709,0.66076
5305.97834,0.65860
5304.04959,0.65714
5302.12085,0.65562
5300.19210,0.65334
5298.26336,0.65053
5296.33461,0.64787
5294.40587,0.64577
5292.47712,0.64360
5290.54838,0.64063
5288.61963,0.63743
5286.69089,0.63490
5284.76214,0.63261
5282.83340,0.62975
5280.90465,0.62643
5278.97591,0.62327
5277.04716,0.62033
5275.11842,0.61727
5273.18967,0.61380
5271.26092,0.60988
5269.33218,0.60599
5267.40343,0.60223
5265.47469,0.59840
5263.54594,0.59518
5261.61720,0.59243
5259.68845,0.58903
5257.75971,0.58516
5255.83096,0.58184
5253.90222,0.57925
5251.97347,0.57677
5250.04473,0.57393
5248.11598,0.57108
5246.18724,0.56863
5244.25849,0.56622
5242.32975,0.56375
5240.40100,0.56149
5238.47225,0.55928
5236.54351,0.55722
5234.61476,0.55564
5232.68602,0.55416
5230.75727,0.55227
5228.82853,0.55072
5226.89978,0.55021
5224.97104,0.54976
5223.04229,0.54860
5221.11355,0.54716
5219.18480,0.54554
5217.25606,0.54404
5215.32731,0.54308
5213.39857,0.54233
5211.46982,0.54183
5209.54107,0.54191
5207.61233,0.54224
5205.68358,0.54228
5203.75484,0.54222
5201.82609,0.54235
5199.89735,0.54235
5197.96860,0.54188
5196.03986,0.54106
5194.11111,0.54035
5192.18237,0.54025
5190.25362,0.54081
5188.32488,0.54168
5186.39613,0.54232
5184.46739,0.54253
5182.53864,0.54261
5180.60990,0.54265
5178.68115,0.54273
5176.75240,0.54319
5174.82366,0.54408
5172.89491,0.54524
5170.96617,0.54674
5169.03742,0.54823
5167.10868,0.54874
5165.17993,0.54856
5163.25119,0.54919
5161.32244,0.55067
5159.39370,0.55199
5157.46495,0.55313
5155.53621,0.55422
5153.60746,0.55495
5151.67872,0.55533
5149.74997,0.55569
5147.82123,0.55657
5145.89248,0.55803
5143.96373,0.55910
5142.03499,0.55970
5140.10624,0.56088
5138.17750,0.56237
5136.24875,0.56322
5134.32001,0.56405
5132.39126,0.56559
5130.46252,0.56714
5128.53377,0.56829
5126.60503,0.56926
5124.67628,0.57026
5122.74754,0.57126
5120.81879,0.57189
5118.89005,0.57236
5116.96130,0.57334
5115.03255,0.57470
5113.10381,0.57571
5111.17506,0.57602
5109.24632,0.57650
5107.31757,0.57791
5105.38883,0.57959
5103.46008,0.58066
5101.53134,0.58106
5099.60259,0.58117
5097.67385,0.58142
5095.74510,0.58233
5093.81636,0.58380
5091.88761,0.58522
5089.95887,0.58653
5088.03012,0.58768
5086.10138,0.58848
5084.17263,0.58911
5082.24388,0.58960
5080.31514,0.59004
5078.38639,0.59063
5076.45765,0.59125
5074.52890,0.59206
5072.60016,0.59344
5070.67141,0.59524
5068.74267,0.59682
5066.81392,0.59772
5064.88518,0.59775
5062.95643,0.59751
5061.02769,0.59786
5059.09894,0.59882
5057.17020,0.60006
5055.24145,0.60102
5053.31270,0.60128
5051.38396,0.60156
5049.45521,0.60237
5047.52647,0.60306
5045.59772,0.60344
5043.66898,0.60371
5041.74023,0.60394
5039.81149,0.60430
5037.88274,0.60470
5035.95400,0.60517
5034.02525,0.60589
5032.09651,0.60667
5030.16776,0.60719
5028.23902,0.60760
5026.31027,0.60813
5024.38153,0.60888
5022.45278,0.60980
5020.52403,0.61016
5018.59529,0.60977
5016.66654,0.60974
5014.73780,0.61029
5012.80905,0.61075
5010.88031,0.61076
5008.95156,0.61028
5007.02282,0.60986
5005.09407,0.60987
5003.16533,0.61000
5001.23658,0.61013
4999.30784,0.61031
4997.37909,0.61000
4995.45035,0.60924
4993.52160,0.60869
4991.59286,0.60828
4989.66411,0.60776
4987.73536,0.60716
4985.80662,0.60643
4983.87787,0.60546
4981.94913,0.60460
4980.02038,0.60416
4978.09164,0.60365
4976.16289,0.60308
4974.23415,0.60276
4972.30540,0.60212
4970.37666,0.60095
4968.44791,0.59992
4966.51917,0.59927
4964.59042,0.59844
4962.66168,0.59696
4960.73293,0.59515
4958.80418,0.59356
4956.87544,0.59223
4954.94669,0.59096
4953.01795,0.58954
4951.08920,0.58785
4949.16046,0.58631
4947.23171,0.58502
4945.30297,0.58346
4943.37422,0.58160
4941.44548,0.57994
4939.51673,0.57845
4937.58799,0.57651
4935.65924,0.57408
4933.73050,0.57203
4931.80175,0.57089
4929.87301,0.56989
4927.94426,0.56796
4926.01551,0.56566
4924.08677,0.56408
4922.15802,0.56280
4920.22928,0.56097
4918.30053,0.55876
4916.37179,0.55675
4914.44304,0.55509
4912.51430,0.55322
4910.58555,0.55091
4908.65681,0.54887
4906.72806,0.54720
4904.79932,0.54522
4902.87057,0.54303
4900.94183,0.54114
4899.01308,0.53949
4897.08434,0.53781
4895.15559,0.53614
4893.22684,0.53464
4891.29810,0.53314
4889.36935,0.53127
4887.44061,0.52925
4885.51186,0.52783
4883.58312,0.52706
4881.65437,0.52615
4879.72563,0.52446
4877.79688,0.52200
4875.86814,0.51954
4873.93939,0.51753
4872.01065,0.51597
4870.08190,0.51495
4868.15316,0.51392
4866.22441,0.51201
4864.29566,0.50965
4862.36692,0.50779
4860.43817,0.50633
4858.50943,0.50519
4856.58068,0.50462
4854.65194,0.50414
4852.72319,0.50296
4850.79445,0.50070
4848.86570,0.49797
4846.93696,0.49621
4845.00821,0.49554
4843.07947,0.49490
4841.15072,0.49377
4839.22198,0.49223
4837.29323,0.49076
4835.36449,0.48951
4833.43574,0.48809
4831.50699,0.48666
4829.57825,0.48563
4827.64950,0.48486
4825.72076,0.48418
4823.79201,0.48345
4821.86327,0.48268
4819.93452,0.48204
4818.00578,0.48132
4816.07703,0.48025
4814.14829,0.47923
4812.21954,0.47854
4810.29080,0.47796
4808.36205,0.47729
4806.43331,0.47664
4804.50456,0.47631
4802.57582,0.47603
4800.64707,0.47546
4798.71832,0.47493
4796.78958,0.47437
4794.86083,0.47365
4792.93209,0.47305
4791.00334,0.47257
4789.07460,0.47226
4787.14585,0.47219
4785.21711,0.47196
4783.28836,0.47146
4781.35962,0.47108
4779.43087,0.47090
4777.50213,0.47046
4775.57338,0.46986
4773.64464,0.46981
4771.71589,0.47015
4769.78714,0.47002
4767.85840,0.46947
4765.92965,0.46927
4764.00091,0.46931
4762.07216,0.46900
4760.14342,0.46843
4758.21467,0.46800
4756.28593,0.46788
4754.35718,0.46819
4752.42844,0.46865
4750.49969,0.46870
4748.57095,0.46843
4746.64220,0.46818
4744.71346,0.46801
4742.78471,0.46819
4740.85597,0.46867
4738.92722,0.46902
4736.99847,0.46952
4735.06973,0.47026
4733.14098,0.47057
4731.21224,0.46995
4729.28349,0.46900
4727.35475,0.46852
4725.42600,0.46848
4723.49726,0.46877
4721.56851,0.46955
4719.63977,0.47048
4717.71102,0.47112
4715.78228,0.47139
4713.85353,0.47170
4711.92479,0.47227
4709.99604,0.47272
4708.06729,0.47279
4706.13855,0.47287
4704.20980,0.47309
4702.28106,0.47320
4700.35231,0.47356
4698.42357,0.47435
4696.49482,0.47495
4694.56608,0.47509
4692.63733,0.47541
4690.70859,0.47614
4688.77984,0.47682
4686.85110,0.47723
4684.92235,0.47751
4682.99361,0.47786
4681.06486,0.47832
4679.13612,0.47895
4677.20737,0.47970
4675.27862,0.48050
4673.34988,0.48164
4671.42113,0.48293
4669.49239,0.48370
4667.56364,0.48394
4665.63490,0.48451
4663.70615,0.48582
4661.77741,0.48688
4659.84866,0.48695
4657.91992,0.48702
4655.99117,0.48809
4654.06243,0.48962
4652.13368,0.49090
4650.20494,0.49201
4648.27619,0.49285
4646.34745,0.49354
4644.41870,0.49448
4642.48995,0.49534
4640.56121,0.49589
4638.63246,0.49652
4636.70372,0.49745
4634.77497,0.49854
4632.84623,0.49969
4630.91748,0.50063
4628.98874,0.50132
4627.05999,0.50190
4625.13125,0.50234
4623.20250,0.50298
4621.27376,0.50385
4619.34501,0.50461
4617.41627,0.50540
4615.48752,0.50639
4613.55877,0.50748
4611.63003,0.50833
4609.70128,0.50857
4607.77254,0.50870
4605.84379,0.50942
4603.91505,0.51043
4601.98630,0.51115
4600.05756,0.51163
4598.12881,0.51227
4596.20007,0.51314
4594.27132,0.51397
4592.34258,0.51459
4590.41383,0.51510
4588.48509,0.51570
4586.55634,0.51635
4584.62760,0.51682
4582.69885,0.51728
4580.77010,0.51782
4578.84136,0.51826
4576.91261,0.51859
4574.98387,0.51907
4573.05512,0.51990
4571.12638,0.52082
4569.19763,0.52116
4567.26889,0.52104
4565.34014,0.52113
4563.41140,0.52161
4561.48265,0.52233
4559.55391,0.52311
4557.62516,0.52370
4555.69642,0.52407
4553.76767,0.52443
4551.83893,0.52471
4549.91018,0.52480
4547.98143,0.52515
4546.05269,0.52596
4544.12394,0.52661
4542.19520,0.52681
4540.26645,0.52691
4538.33771,0.52702
4536.40896,0.52711
4534.48022,0.52724
4532.55147,0.52731
4530.62273,0.52733
4528.69398,0.52747
4526.76524,0.52769
4524.83649,0.52786
4522.90775,0.52792
4520.97900,0.52794
4519.05025,0.52803
4517.12151,0.52821
4515.19276,0.52831
4513.26402,0.52803
4511.33527,0.52727
4509.40653,0.52642
4507.47778,0.52585
4505.54904,0.52546
4503.62029,0.52481
4501.69155,0.52374
4499.76280,0.52251
4497.83406,0.52135
4495.90531,0.52015
4493.97657,0.51906
4492.04782,0.51829
4490.11908,0.51708
4488.19033,0.51506
4486.26158,0.51304
4484.33284,0.51123
4482.40409,0.50927
4480.47535,0.50711
4478.54660,0.50470
4476.61786,0.50194
4474.68911,0.49917
4472.76037,0.49667
4470.83162,0.49411
4468.90288,0.49130
4466.97413,0.48841
4465.04539,0.48545
4463.11664,0.48256
4461.18790,0.47993
4459.25915,0.47717
4457.33041,0.47408
4455.40166,0.47083
4453.47291,0.46741
4451.54417,0.46402
4449.61542,0.46121
4447.68668,0.45889
4445.75793,0.45620
4443.82919,0.45291
4441.90044,0.44981
4439.97170,0.44719
4438.04295,0.44456
4436.11421,0.44180
4434.18546,0.43930
4432.25672,0.43747
4430.32797,0.43596
4428.39923,0.43398
4426.47048,0.43169
4424.54173,0.42978
4422.61299,0.42829
4420.68424,0.42692
4418.75550,0.42548
4416.82675,0.42408
4414.89801,0.42307
4412.96926,0.42236
4411.04052,0.42131
4409.11177,0.41980
4407.18303,0.41841
4405.25428,0.41759
4403.32554,0.41725
4401.39679,0.41712
4399.46805,0.41700
4397.53930,0.41692
4395.61056,0.41704
4393.68181,0.41735
4391.75306,0.41773
4389.82432,0.41843
4387.89557,0.41939
4385.96683,0.42015
4384.03808,0.42062
4382.10934,0.42098
4380.18059,0.42131
4378.25185,0.42176
4376.32310,0.42242
4374.39436,0.42304
4372.46561,0.42363
4370.53687,0.42440
4368.60812,0.42526
4366.67938,0.42597
4364.75063,0.42640
4362.82189,0.42639
4360.89314,0.42615
4358.96439,0.42610
4357.03565,0.42594
4355.10690,0.42526
4353.17816,0.42441
4351.24941,0.42371
4349.32067,0.42286
4347.39192,0.42188
4345.46318,0.42124
4343.53443,0.42097
4341.60569,0.42070
4339.67694,0.42038
4337.74820,0.41992
4335.81945,0.41923
4333.89071,0.41862
4331.96196,0.41826
4330.03321,0.41792
4328.10447,0.41734
4326.17572,0.41675
4324.24698,0.41648
4322.31823,0.41615
4320.38949,0.41550
4318.46074,0.41494
4316.53200,0.41463
4314.60325,0.41428
4312.67451,0.41382
4310.74576,0.41334
4308.81702,0.41274
4306.88827,0.41203
4304.95953,0.41135
4303.03078,0.41076
4301.10204,0.41016
4299.17329,0.40940
4297.24454,0.40859
4295.31580,0.40791
4293.38705,0.40743
4291.45831,0.40709
4289.52956,0.40678
4287.60082,0.40664
4285.67207,0.40653
4283.74333,0.40612
4281.81458,0.40546
4279.88584,0.40472
4277.95709,0.40429
4276.02835,0.40429
4274.09960,0.40436
4272.17086,0.40435
4270.24211,0.40446
4268.31336,0.40478
4266.38462,0.40519
4264.45587,0.40538
4262.52713,0.40527
4260.59838,0.40529
4258.66964,0.40573
4256.74089,0.40633
4254.81215,0.40680
4252.88340,0.40717
4250.95466,0.40770
4249.02591,0.40837
4247.09717,0.40883
4245.16842,0.40896
4243.23968,0.40911
4241.31093,0.40955
4239.38219,0.41015
4237.45344,0.41083
4235.52469,0.41131
4233.59595,0.41150
4231.66720,0.41163
4229.73846,0.41166
4227.80971,0.41182
4225.88097,0.41241
4223.95222,0.41303
4222.02348,0.41325
4220.09473,0.41335
4218.16599,0.41351
4216.23724,0.41351
4214.30850,0.41368
4212.37975,0.41443
4210.45101,0.41523
4208.52226,0.41556
4206.59352,0.41562
4204.66477,0.41576
4202.73602,0.41605
4200.80728,0.41619
4198.87853,0.41625
4196.94979,0.41665
4195.02104,0.41725
4193.09230,0.41754
4191.16355,0.41738
4189.23481,0.41712
4187.30606,0.41703
4185.37732,0.41727
4183.44857,0.41790
4181.51983,0.41854
4179.59108,0.41900
4177.66234,0.41963
4175.73359,0.42057
4173.80484,0.42152
4171.87610,0.42205
4169.94735,0.42210
4168.01861,0.42219
4166.08986,0.42273
4164.16112,0.42337
4162.23237,0.42378
4160.30363,0.42405
4158.37488,0.42410
4156.44614,0.42379
4154.51739,0.42332
4152.58865,0.42298
4150.65990,0.42262
4148.73116,0.42208
4146.80241,0.42159
4144.87367,0.42124
4142.94492,0.42071
4141.01617,0.41985
4139.08743,0.41894
4137.15868,0.41821
4135.22994,0.41747
4133.30119,0.41654
4131.37245,0.41548
4129.44370,0.41448
4127.51496,0.41361
4125.58621,0.41259
4123.65747,0.41118
4121.72872,0.40964
4119.79998,0.40825
4117.87123,0.40693
4115.94249,0.40561
4114.01374,0.40434
4112.08500,0.40312
4110.15625,0.40198
4108.22750,0.40068
4106.29876,0.39899
4104.37001,0.39712
4102.44127,0.39540
4100.51252,0.39380
4098.58378,0.39213
4096.65503,0.39037
4094.72629,0.38862
4092.79754,0.38686
4090.86880,0.38509
4088.94005,0.38341
4087.01131,0.38179
4085.08256,0.38003
4083.15382,0.37807
4081.22507,0.37603
4079.29632,0.37419
4077.36758,0.37258
4075.43883,0.37087
4073.51009,0.36890
4071.58134,0.36689
4069.65260,0.36501
4067.72385,0.36312
4065.79511,0.36110
4063.86636,0.35913
4061.93762,0.35733
4060.00887,0.35582
4058.08013,0.35441
4056.15138,0.35273
4054.22264,0.35101
4052.29389,0.34948
4050.36515,0.34793
4048.43640,0.34634
4046.50765,0.34478
4044.57891,0.34321
4042.65016,0.34171
4040.72142,0.34022
4038.79267,0.33888
4036.86393,0.33801
4034.93518,0.33739
4033.00644,0.33649
4031.07769,0.33517
4029.14895,0.33396
4027.22020,0.33312
4025.29146,0.33237
4023.36271,0.33162
4021.43397,0.33108
4019.50522,0.33086
4017.57648,0.33099
4015.64773,0.33129
4013.71898,0.33145
4011.79024,0.33150
4009.86149,0.33166
4007.93275,0.33185
4006.00400,0.33202
4004.07526,0.33243
4002.14651,0.33320
4000.21777,0.33418
3998.28902,0.33515
3996.36028,0.33582
3994.43153,0.33634
3992.50279,0.33705
3990.57404,0.33771
3988.64530,0.33799
3986.71655,0.33832
3984.78780,0.33888
3982.85906,0.33928
3980.93031,0.33951
3979.00157,0.34004
3977.07282,0.34088
3975.14408,0.34152
3973.21533,0.34206
3971.28659,0.34285
3969.35784,0.34375
3967.42910,0.34453
3965.50035,0.34550
3963.57161,0.34680
3961.64286,0.34813
3959.71412,0.34918
3957.78537,0.35009
3955.85663,0.35108
3953.92788,0.35213
3951.99913,0.35307
3950.07039,0.35394
3948.14164,0.35485
3946.21290,0.35563
3944.28415,0.35638
3942.35541,0.35747
3940.42666,0.35867
3938.49792,0.35961
3936.56917,0.36053
3934.64043,0.36168
3932.71168,0.36292
3930.78294,0.36400
3928.85419,0.36487
3926.92545,0.36583
3924.99670,0.36693
3923.06795,0.36805
3921.13921,0.36926
3919.21046,0.37048
3917.28172,0.37146
3915.35297,0.37214
3913.42423,0.37268
3911.49548,0.37328
3909.56674,0.37405
3907.63799,0.37493
3905.70925,0.37586
3903.78050,0.37682
3901.85176,0.37777
3899.92301,0.37867
3897.99427,0.37953
3896.06552,0.38041
3894.13678,0.38132
3892.20803,0.38230
3890.27928,0.38329
3888.35054,0.38414
3886.42179,0.38489
3884.49305,0.38546
3882.56430,0.38592
3880.63556,0.38676
3878.70681,0.38780
3876.77807,0.38855
3874.84932,0.38913
3872.92058,0.38990
3870.99183,0.39109
3869.06309,0.39267
3867.13434,0.39404
3865.20560,0.39493
3863.27685,0.39563
3861.34811,0.39649
3859.41936,0.39766
3857.49061,0.39896
3855.56187,0.40019
3853.63312,0.40140
3851.70438,0.40256
3849.77563,0.40347
3847.84689,0.40429
3845.91814,0.40512
3843.98940,0.40579
3842.06065,0.40632
3840.13191,0.40693
3838.20316,0.40782
3836.27442,0.40884
3834.34567,0.40947
3832.41693,0.40976
3830.48818,0.41016
3828.55943,0.41076
3826.63069,0.41130
3824.70194,0.41140
3822.77320,0.41118
3820.84445,0.41123
3818.91571,0.41170
3816.98696,0.41227
3815.05822,0.41257
3813.12947,0.41255
3811.20073,0.41251
3809.27198,0.41266
3807.34324,0.41287
3805.41449,0.41301
3803.48575,0.41312
3801.55700,0.41309
3799.62826,0.41289
3797.69951,0.41283
3795.77076,0.41289
3793.84202,0.41289
3791.91327,0.41301
3789.98453,0.41324
3788.05578,0.41315
3786.12704,0.41270
3784.19829,0.41234
3782.26955,0.41229
3780.34080,0.41221
3778.41206,0.41185
3776.48331,0.41143
3774.55457,0.41106
3772.62582,0.41044
3770.69708,0.40956
3768.76833,0.40899
3766.83959,0.40878
3764.91084,0.40848
3762.98209,0.40802
3761.05335,0.40753
3759.12460,0.40698
3757.19586,0.40641
3755.26711,0.40587
3753.33837,0.40532
3751.40962,0.40476
3749.48088,0.40429
3747.55213,0.40383
3745.62339,0.40306
3743.69464,0.40190
3741.76590,0.40072
3739.83715,0.39969
3737.90841,0.39861
3735.97966,0.39743
3734.05091,0.39627
3732.12217,0.39499
3730.19342,0.39352
3728.26468,0.39195
3726.33593,0.39041
3724.40719,0.38893
3722.47844,0.38735
3720.54970,0.38545
3718.62095,0.38340
3716.69221,0.38144
3714.76346,0.37945
3712.83472,0.37723
3710.90597,0.37471
3708.97723,0.37184
3707.04848,0.36889
3705.11974,0.36607
3703.19099,0.36311
3701.26224,0.35965
3699.33350,0.35595
3697.40475,0.35223
3695.47601,0.34830
3693.54726,0.34401
3691.61852,0.33938
3689.68977,0.33436
3687.76103,0.32888
3685.83228,0.32316
3683.90354,0.31736
3681.97479,0.31134
3680.04605,0.30529
3678.11730,0.29944
3676.18856,0.29309
3674.25981,0.28623
3672.33107,0.27991
3670.40232,0.27338
3668.47357,0.26635
3666.54483,0.25990
3664.61608,0.25374
3662.68734,0.24734
3660.75859,0.24100
3658.82985,0.23497
3656.90110,0.22877
3654.97236,0.22256
3653.04361,0.21717
3651.11487,0.21201
3649.18612,0.20646
3647.25738,0.20093
3645.32863,0.19580
3643.39989,0.19113
3641.47114,0.18655
3639.54239,0.18177
3637.61365,0.17716
3635.68490,0.17286
3633.75616,0.16872
3631.82741,0.16485
3629.89867,0.16096
3627.96992,0.15688
3626.04118,0.15317
3624.11243,0.14964
3622.18369,0.14596
3620.25494,0.14219
3618.32620,0.13848
3616.39745,0.13511
3614.46871,0.13179
3612.53996,0.12815
3610.61122,0.12443
3608.68247,0.12095
3606.75372,0.11785
3604.82498,0.11500
3602.89623,0.11214
3600.96749,0.10928
3599.03874,0.10654
3597.11000,0.10382
3595.18125,0.10115
3593.25251,0.09859
3591.32376,0.09626
3589.39502,0.09412
3587.46627,0.09184
3585.53753,0.08957
3583.60878,0.08759
3581.68004,0.08563
3579.75129,0.08358
3577.82254,0.08156
3575.89380,0.07985
3573.96505,0.07855
3572.03631,0.07730
3570.10756,0.07581
3568.17882,0.07422
3566.25007,0.07279
3564.32133,0.07130
3562.39258,0.06960
3560.46384,0.06794
3558.53509,0.06646
3556.60635,0.06519
3554.67760,0.06417
3552.74886,0.06318
3550.82011,0.06217
3548.89137,0.06121
3546.96262,0.06025
3545.03387,0.05929
3543.10513,0.05846
3541.17638,0.05784
3539.24764,0.05716
3537.31889,0.05616
3535.39015,0.05523
3533.46140,0.05485
3531.53266,0.05458
3529.60391,0.05389
3527.67517,0.05290
3525.74642,0.05185
3523.81768,0.05100
3521.88893,0.05039
3519.96019,0.04976
3518.03144,0.04908
3516.10270,0.04855
3514.17395,0.04819
3512.24520,0.04789
3510.31646,0.04756
3508.38771,0.04697
3506.45897,0.04628
3504.53022,0.04578
3502.60148,0.04548
3500.67273,0.04530
3498.74399,0.04499
3496.81524,0.04442
3494.88650,0.04387
3492.95775,0.04338
3491.02901,0.04278
3489.10026,0.04232
3487.17152,0.04205
3485.24277,0.04184
3483.31402,0.04170
3481.38528,0.04155
3479.45653,0.04129
3477.52779,0.04099
3475.59904,0.04079
3473.67030,0.04058
3471.74155,0.04031
3469.81281,0.04033
3467.88406,0.04045
3465.95532,0.04010
3464.02657,0.03944
3462.09783,0.03903
3460.16908,0.03892
3458.24034,0.03886
3456.31159,0.03864
3454.38285,0.03824
3452.45410,0.03792
3450.52535,0.03798
3448.59661,0.03837
3446.66786,0.03846
3444.73912,0.03805
3442.81037,0.03782
3440.88163,0.03798
3438.95288,0.03799
3437.02414,0.03783
3435.09539,0.03784
3433.16665,0.03775
3431.23790,0.03732
3429.30916,0.03695
3427.38041,0.03691
3425.45167,0.03710
3423.52292,0.03730
3421.59418,0.03739
3419.66543,0.03732
3417.73668,0.03711
3415.80794,0.03693
3413.87919,0.03698
3411.95045,0.03722
3410.02170,0.03755
3408.09296,0.03789
3406.16421,0.03796
3404.23547,0.03780
3402.30672,0.03784
3400.37798,0.03798
3398.44923,0.03781
3396.52049,0.03743
3394.59174,0.03725
3392.66300,0.03730
3390.73425,0.03732
3388.80550,0.03725
3386.87676,0.03728
3384.94801,0.03740
3383.01927,0.03739
3381.09052,0.03721
3379.16178,0.03722
3377.23303,0.03761
3375.30429,0.03813
3373.37554,0.03838
3371.44680,0.03823
3369.51805,0.03797
3367.58931,0.03779
3365.66056,0.03761
3363.73182,0.03752
3361.80307,0.03748
3359.87433,0.03768
3357.94558,0.03821
3356.01683,0.03859
3354.08809,0.03867
3352.15934,0.03871
3350.23060,0.03881
3348.30185,0.03899
3346.37311,0.03911
3344.44436,0.03907
3342.51562,0.03897
3340.58687,0.03907
3338.65813,0.03936
3336.72938,0.03957
3334.80064,0.03970
3332.87189,0.03994
3330.94315,0.04030
3329.01440,0.04063
3327.08566,0.04091
3325.15691,0.04127
3323.22816,0.04161
3321.29942,0.04173
3319.37067,0.04179
3317.44193,0.04212
3315.51318,0.04260
3313.58444,0.04299
3311.65569,0.04318
3309.72695,0.04310
3307.79820,0.04304
3305.86946,0.04349
3303.94071,0.04420
3302.01197,0.04441
3300.08322,0.04414
3298.15448,0.04395
3296.22573,0.04404
3294.29698,0.04437
3292.36824,0.04482
3290.43949,0.04524
3288.51075,0.04547
3286.58200,0.04538
3284.65326,0.04532
3282.72451,0.04558
3280.79577,0.04611
3278.86702,0.04665
3276.93828,0.04703
3275.00953,0.04758
3273.08079,0.04850
3271.15204,0.04943
3269.22330,0.05001
3267.29455,0.05029
3265.36581,0.05061
3263.43706,0.05118
3261.50831,0.05185
3259.57957,0.05225
3257.65082,0.05238
3255.72208,0.05275
3253.79333,0.05351
3251.86459,0.05417
3249.93584,0.05463
3248.00710,0.05519
3246.07835,0.05590
3244.14961,0.05664
3242.22086,0.05724
3240.29212,0.05750
3238.36337,0.05785
3236.43463,0.05875
3234.50588,0.05972
3232.57713,0.06035
3230.64839,0.06106
3228.71964,0.06196
3226.79090,0.06286
3224.86215,0.06379
3222.93341,0.06467
3221.00466,0.06530
3219.07592,0.06562
3217.14717,0.06596
3215.21843,0.06669
3213.28968,0.06758
3211.36094,0.06814
3209.43219,0.06852
3207.50345,0.06932
3205.57470,0.07040
3203.64596,0.07116
3201.71721,0.07161
3199.78846,0.07219
3197.85972,0.07288
3195.93097,0.07349
3194.00223,0.07407
3192.07348,0.07486
3190.14474,0.07600
3188.21599,0.07717
3186.28725,0.07808
3184.35850,0.07891
3182.42976,0.07965
3180.50101,0.08020
3178.57227,0.08065
3176.64352,0.08136
3174.71478,0.08245
3172.78603,0.08360
3170.85729,0.08440
3168.92854,0.08480
3166.99979,0.08532
3165.07105,0.08623
3163.14230,0.08722
3161.21356,0.08822
3159.28481,0.08938
3157.35607,0.09036
3155.42732,0.09105
3153.49858,0.09180
3151.56983,0.09260
3149.64109,0.09339
3147.71234,0.09428
3145.78360,0.09506
3143.85485,0.09574
3141.92611,0.09654
3139.99736,0.09735
3138.06861,0.09818
3136.13987,0.09929
3134.21112,0.10048
3132.28238,0.10151
3130.35363,0.10256
3128.42489,0.10347
3126.49614,0.10395
3124.56740,0.10441
3122.63865,0.10510
3120.70991,0.10580
3118.78116,0.10663
3116.85242,0.10757
3114.92367,0.10827
3112.99493,0.10894
3111.06618,0.10991
3109.13744,0.11093
3107.20869,0.11175
3105.27994,0.11235
3103.35120,0.11278
3101.42245,0.11326
3099.49371,0.11403
3097.56496,0.11491
3095.63622,0.11563
3093.70747,0.11631
3091.77873,0.11703
3089.84998,0.11751
3087.92124,0.11777
3085.99249,0.11832
3084.06375,0.11914
3082.13500,0.11973
3080.20626,0.12028
3078.27751,0.12116
3076.34877,0.12212
3074.42002,0.12284
3072.49127,0.12338
3070.56253,0.12398
3068.63378,0.12482
3066.70504,0.12564
3064.77629,0.12607
3062.84755,0.12643
3060.91880,0.12714
3058.99006,0.12797
3057.06131,0.12865
3055.13257,0.12917
3053.20382,0.12970
3051.27508,0.13035
3049.34633,0.13085
3047.41759,0.13099
3045.48884,0.13113
3043.56009,0.13159
3041.63135,0.13214
3039.70260,0.13233
3037.77386,0.13220
3035.84511,0.13208
3033.91637,0.13202
3031.98762,0.13183
3030.05888,0.13135
3028.13013,0.13055
3026.20139,0.12959
3024.27264,0.12857
3022.34390,0.12760
3020.41515,0.12685
3018.48641,0.12610
3016.55766,0.12488
3014.62892,0.12341
3012.70017,0.12211
3010.77142,0.12084
3008.84268,0.11946
3006.91393,0.11811
3004.98519,0.11685
3003.05644,0.11564
3001.12770,0.11451
2999.19895,0.11344
2997.27021,0.11252
2995.34146,0.11173
2993.41272,0.11074
2991.48397,0.10933
2989.55523,0.10760
2987.62648,0.10579
2985.69774,0.10393
2983.76899,0.10178
2981.84025,0.09942
2979.91150,0.09695
2977.98275,0.09423
2976.05401,0.09129
2974.12526,0.08838
2972.19652,0.08570
2970.26777,0.08333
2968.33903,0.08122
2966.41028,0.07945
2964.48154,0.07806
2962.55279,0.07676
2960.62405,0.07539
2958.69530,0.07415
2956.76656,0.07311
2954.83781,0.07198
2952.90907,0.07063
2950.98032,0.06928
2949.05157,0.06811
2947.12283,0.06705
2945.19408,0.06608
2943.26534,0.06512
2941.33659,0.06416
2939.40785,0.06340
2937.47910,0.06300
2935.55036,0.06280
2933.62161,0.06259
2931.69287,0.06240
2929.76412,0.06237
2927.83538,0.06238
2925.90663,0.06228
2923.97789,0.06209
2922.04914,0.06195
2920.12040,0.06193
2918.19165,0.06204
2916.26290,0.06246
2914.33416,0.06320
2912.40541,0.06384
2910.47667,0.06417
2908.54792,0.06440
2906.61918,0.06462
2904.69043,0.06477
2902.76169,0.06496
2900.83294,0.06530
2898.90420,0.06573
2896.97545,0.06618
2895.04671,0.06673
2893.11796,0.06754
2891.18922,0.06848
2889.26047,0.06930
2887.33172,0.06985
2885.40298,0.07014
2883.47423,0.07038
2881.54549,0.07085
2879.61674,0.07146
2877.68800,0.07193
2875.75925,0.07225
2873.83051,0.07243
2871.90176,0.07256
2869.97302,0.07292
2868.04427,0.07361
2866.11553,0.07436
2864.18678,0.07491
2862.25804,0.07537
2860.32929,0.07572
2858.40055,0.07600
2856.47180,0.07637
2854.54305,0.07697
2852.61431,0.07803
2850.68556,0.07971
2848.75682,0.08195
2846.82807,0.08452
2844.89933,0.08704
2842.97058,0.08923
2841.04184,0.09125
2839.11309,0.09357
2837.18435,0.09634
2835.25560,0.09938
2833.32686,0.10253
2831.39811,0.10562
2829.46937,0.10853
2827.54062,0.11129
2825.61188,0.11403
2823.68313,0.11672
2821.75438,0.11927
2819.82564,0.12175
2817.89689,0.12414
2815.96815,0.12635
2814.03940,0.12830
2812.11066,0.12993
2810.18191,0.13149
2808.25317,0.13317
2806.32442,0.13486
2804.39568,0.13649
2802.46693,0.13815
2800.53819,0.13978
2798.60944,0.14110
2796.68070,0.14205
2794.75195,0.14294
2792.82320,0.14387
2790.89446,0.14478
2788.96571,0.14566
2787.03697,0.14644
2785.10822,0.14709
2783.17948,0.14770
2781.25073,0.14839
2779.32199,0.14908
2777.39324,0.14971
2775.46450,0.15026
2773.53575,0.15065
2771.60701,0.15101
2769.67826,0.15155
2767.74952,0.15218
2765.82077,0.15280
2763.89203,0.15339
2761.96328,0.15391
2760.03453,0.15429
2758.10579,0.15451
2756.17704,0.15461
2754.24830,0.15474
2752.31955,0.15497
2750.39081,0.15515
2748.46206,0.15521
2746.53332,0.15533
2744.60457,0.15553
2742.67583,0.15573
2740.74708,0.15592
2738.81834,0.15609
2736.88959,0.15624
2734.96085,0.15644
2733.03210,0.15665
2731.10336,0.15681
2729.17461,0.15712
2727.24586,0.15761
2725.31712,0.15810
2723.38837,0.15866
2721.45963,0.15939
2719.53088,0.16017
2717.60214,0.16095
2715.67339,0.16171
2713.74465,0.16244
2711.81590,0.16329
2709.88716,0.16437
2707.95841,0.16547
2706.02967,0.16636
2704.10092,0.16716
2702.17218,0.16805
2700.24343,0.16904
2698.31468,0.17011
2696.38594,0.17121
2694.45719,0.17205
2692.52845,0.17269
2690.59970,0.17355
2688.67096,0.17457
2686.74221,0.17537
2684.81347,0.17596
2682.88472,0.17656
2680.95598,0.17735
2679.02723,0.17821
2677.09849,0.17888
2675.16974,0.17932
2673.24100,0.17989
2671.31225,0.18062
2669.38351,0.18112
2667.45476,0.18139
2665.52601,0.18177
2663.59727,0.18225
2661.66852,0.18273
2659.73978,0.18327
2657.81103,0.18385
2655.88229,0.18427
2653.95354,0.18461
2652.02480,0.18505
2650.09605,0.18550
2648.16731,0.18596
2646.23856,0.18661
2644.30982,0.18737
2642.38107,0.18810
2640.45233,0.18877
2638.52358,0.18939
2636.59484,0.19007
2634.66609,0.19091
2632.73734,0.19180
2630.80860,0.19265
2628.87985,0.19348
2626.95111,0.19427
2625.02236,0.19486
2623.09362,0.19531
2621.16487,0.19591
2619.23613,0.19669
2617.30738,0.19735
2615.37864,0.19778
2613.44989,0.19833
2611.52115,0.19910
2609.59240,0.19971
2607.66366,0.20018
2605.73491,0.20076
2603.80616,0.20155
2601.87742,0.20242
2599.94867,0.20301
2598.01993,0.20337
2596.09118,0.20383
2594.16244,0.20443
2592.23369,0.20496
2590.30495,0.20534
2588.37620,0.20567
2586.44746,0.20607
2584.51871,0.20640
2582.58997,0.20664
2580.66122,0.20702
2578.73248,0.20749
2576.80373,0.20785
2574.87499,0.20814
2572.94624,0.20846
2571.01749,0.20875
2569.08875,0.20889
2567.16000,0.20888
2565.23126,0.20883
2563.30251,0.20898
2561.37377,0.20931
2559.44502,0.20961
2557.51628,0.20987
2555.58753,0.21015
2553.65879,0.21036
2551.73004,0.21041
2549.80130,0.21037
2547.87255,0.21046
2545.94381,0.21068
2544.01506,0.21087
2542.08631,0.21111
2540.15757,0.21158
2538.22882,0.21212
2536.30008,0.21253
2534.37133,0.21291
2532.44259,0.21338
2530.51384,0.21382
2528.58510,0.21416
2526.65635,0.21453
2524.72761,0.21497
2522.79886,0.21538
2520.87012,0.21588
2518.94137,0.21649
2517.01263,0.21702
2515.08388,0.21744
2513.15514,0.21788
2511.22639,0.21842
2509.29764,0.21909
2507.36890,0.21994
2505.44015,0.22093
2503.51141,0.22194
2501.58266,0.22294
2499.65392,0.22389
2497.72517,0.22472
2495.79643,0.22542
2493.86768,0.22619
2491.93894,0.22711
2490.01019,0.22809
2488.08145,0.22899
2486.15270,0.22968
2484.22396,0.23027
2482.29521,0.23096
2480.36647,0.23179
2478.43772,0.23258
2476.50897,0.23320
2474.58023,0.23369
2472.65148,0.23416
2470.72274,0.23465
2468.79399,0.23529
2466.86525,0.23607
2464.93650,0.23683
2463.00776,0.23759
2461.07901,0.23835
2459.15027,0.23890
2457.22152,0.23925
2455.29278,0.23971
2453.36403,0.24048
2451.43529,0.24135
2449.50654,0.24218
2447.57779,0.24310
2445.64905,0.24415
2443.72030,0.24518
2441.79156,0.24607
2439.86281,0.24692
2437.93407,0.24779
2436.00532,0.24863
2434.07658,0.24933
2432.14783,0.25013
2430.21909,0.25137
2428.29034,0.25270
2426.36160,0.25363
2424.43285,0.25428
2422.50411,0.25506
2420.57536,0.25609
2418.64662,0.25723
2416.71787,0.25838
2414.78912,0.25943
2412.86038,0.26042
2410.93163,0.26153
2409.00289,0.26277
2407.07414,0.26397
2405.14540,0.26508
2403.21665,0.26599
2401.28791,0.26679
2399.35916,0.26776
2397.43042,0.26893
2395.50167,0.27000
2393.57293,0.27086
2391.64418,0.27157
2389.71544,0.27224
2387.78669,0.27308
2385.85795,0.27406
2383.92920,0.27490
2382.00045,0.27566
2380.07171,0.27650
2378.14296,0.27732
2376.21422,0.27799
2374.28547,0.27859
2372.35673,0.27925
2370.42798,0.27997
2368.49924,0.28078
2366.57049,0.28166
2364.64175,0.28245
2362.71300,0.28315
2360.78426,0.28389
2358.85551,0.28466
2356.92677,0.28542
2354.99802,0.28613
2353.06927,0.28681
2351.14053,0.28754
2349.21178,0.28827
2347.28304,0.28893
2345.35429,0.28958
2343.42555,0.29027
2341.49680,0.29099
2339.56806,0.29165
2337.63931,0.29218
2335.71057,0.29253
2333.78182,0.29291
2331.85308,0.29340
2329.92433,0.29382
2327.99559,0.29406
2326.06684,0.29420
2324.13810,0.29443
2322.20935,0.29480
2320.28060,0.29515
2318.35186,0.29540
2316.42311,0.29559
2314.49437,0.29572
2312.56562,0.29567
2310.63688,0.29546
2308.70813,0.29523
2306.77939,0.29515
2304.85064,0.29519
2302.92190,0.29503
2300.99315,0.29470
2299.06441,0.29446
2297.13566,0.29426
2295.20692,0.29400
2293.27817,0.29386
2291.34943,0.29390
2289.42068,0.29397
2287.49193,0.29394
2285.56319,0.29379
2283.63444,0.29350
2281.70570,0.29330
2279.77695,0.29319
2277.84821,0.29292
2275.91946,0.29247
2273.99072,0.29195
2272.06197,0.29137
2270.13323,0.29079
2268.20448,0.29014
2266.27574,0.28944
2264.34699,0.28873
2262.41825,0.28795
2260.48950,0.28700
2258.56075,0.28599
2256.63201,0.28517
2254.70326,0.28468
2252.77452,0.28422
2250.84577,0.28360
2248.91703,0.28298
2246.98828,0.28250
2245.05954,0.28214
2243.13079,0.28200
2241.20205,0.28204
2239.27330,0.28196
2237.34456,0.28171
2235.41581,0.28160
2233.48707,0.28184
2231.55832,0.28219
2229.62958,0.28239
2227.70083,0.28250
2225.77208,0.28274
2223.84334,0.28319
2221.91459,0.28361
2219.98585,0.28377
2218.05710,0.28373
2216.12836,0.28364
2214.19961,0.28361
2212.27087,0.28370
2210.34212,0.28375
2208.41338,0.28363
2206.48463,0.28333
2204.55589,0.28280
2202.62714,0.28217
2200.69840,0.28168
2198.76965,0.28116
2196.84090,0.28037
2194.91216,0.27934
2192.98341,0.27813
2191.05467,0.27684
2189.12592,0.27555
2187.19718,0.27423
2185.26843,0.27278
2183.33969,0.27120
2181.41094,0.26954
2179.48220,0.26801
2177.55345,0.26663
2175.62471,0.26510
2173.69596,0.26334
2171.76722,0.26162
2169.83847,0.26009
2167.90973,0.25862
2165.98098,0.25714
2164.05223,0.25574
2162.12349,0.25454
2160.19474,0.25355
2158.26600,0.25270
2156.33725,0.25189
2154.40851,0.25112
2152.47976,0.25033
2150.55102,0.24955
2148.62227,0.24894
2146.69353,0.24849
2144.76478,0.24810
2142.83604,0.24773
2140.90729,0.24730
2138.97855,0.24685
2137.04980,0.24660
2135.12106,0.24666
2133.19231,0.24686
2131.26356,0.24703
2129.33482,0.24714
2127.40607,0.24727
2125.47733,0.24753
2123.54858,0.24801
2121.61984,0.24858
2119.69109,0.24903
2117.76235,0.24936
2115.83360,0.24972
2113.90486,0.25020
2111.97611,0.25087
2110.04737,0.25156
2108.11862,0.25209
2106.18988,0.25265
2104.26113,0.25341
2102.33238,0.25423
2100.40364,0.25489
2098.47489,0.25538
2096.54615,0.25590
2094.61740,0.25651
2092.68866,0.25712
2090.75991,0.25766
2088.83117,0.25810
2086.90242,0.25846
2084.97368,0.25860
2083.04493,0.25868
2081.11619,0.25882
2079.18744,0.25880
2077.25870,0.25860
2075.32995,0.25844
2073.40121,0.25827
2071.47246,0.25806
2069.54371,0.25793
2067.61497,0.25787
2065.68622,0.25781
2063.75748,0.25778
2061.82873,0.25784
2059.89999,0.25801
2057.97124,0.25824
2056.04250,0.25847
2054.11375,0.25872
2052.18501,0.25897
2050.25626,0.25919
2048.32752,0.25940
2046.39877,0.25963
2044.47003,0.25991
2042.54128,0.26035
2040.61254,0.26097
2038.68379,0.26169
2036.75504,0.26246
2034.82630,0.26326
2032.89755,0.26408
2030.96881,0.26494
2029.04006,0.26591
2027.11132,0.26697
2025.18257,0.26809
2023.25383,0.26929
2021.32508,0.27045
2019.39634,0.27169
2017.46759,0.27318
2015.53885,0.27466
2013.61010,0.27584
2011.68136,0.27688
2009.75261,0.27802
2007.82386,0.27924
2005.89512,0.28026
2003.96637,0.28096
2002.03763,0.28165
2000.10888,0.28252
1998.18014,0.28331
1996.25139,0.28391
1994.32265,0.28448
1992.39390,0.28517
1990.46516,0.28592
1988.53641,0.28652
1986.60767,0.28678
1984.67892,0.28685
1982.75018,0.28705
1980.82143,0.28734
1978.89269,0.28740
1976.96394,0.28719
1975.03519,0.28702
1973.10645,0.28691
1971.17770,0.28666
1969.24896,0.28630
1967.32021,0.28590
1965.39147,0.28553
1963.46272,0.28530
1961.53398,0.28522
1959.60523,0.28517
1957.67649,0.28514
1955.74774,0.28521
1953.81900,0.28540
1951.89025,0.28579
1949.96151,0.28640
1948.03276,0.28715
1946.10402,0.28797
1944.17527,0.28883
1942.24652,0.28987
1940.31778,0.29106
1938.38903,0.29219
1936.46029,0.29335
1934.53154,0.29463
1932.60280,0.29584
1930.67405,0.29689
1928.74531,0.29785
1926.81656,0.29867
1924.88782,0.29939
1922.95907,0.30019
1921.03033,0.30100
1919.10158,0.30169
1917.17284,0.30223
1915.24409,0.30265
1913.31534,0.30307
1911.38660,0.30352
1909.45785,0.30386
1907.52911,0.30406
1905.60036,0.30415
1903.67162,0.30408
1901.74287,0.30390
1899.81413,0.30378
1897.88538,0.30377
1895.95664,0.30372
1894.02789,0.30353
1892.09915,0.30325
1890.17040,0.30299
1888.24166,0.30275
1886.31291,0.30249
1884.38417,0.30221
1882.45542,0.30178
1880.52667,0.30125
1878.59793,0.30072
1876.66918,0.30013
1874.74044,0.29941
1872.81169,0.29877
1870.88295,0.29822
1868.95420,0.29750
1867.02546,0.29658
1865.09671,0.29557
1863.16797,0.29450
1861.23922,0.29343
1859.31048,0.29233
1857.38173,0.29110
1855.45299,0.28972
1853.52424,0.28831
1851.59549,0.28699
1849.66675,0.28575
1847.73800,0.28445
1845.80926,0.28293
1843.88051,0.28115
1841.95177,0.27928
1840.02302,0.27740
1838.09428,0.27539
1836.16553,0.27346
1834.23679,0.27171
1832.30804,0.26984
1830.37930,0.26761
1828.45055,0.26511
1826.52181,0.26259
1824.59306,0.25997
1822.66432,0.25725
1820.73557,0.25444
1818.80682,0.25145
1816.87808,0.24829
1814.94933,0.24497
1813.02059,0.24149
1811.09184,0.23763
1809.16310,0.23342
1807.23435,0.22919
1805.30561,0.22512
1803.37686,0.22105
1801.44812,0.21668
1799.51937,0.21196
1797.59063,0.20711
1795.66188,0.20231
1793.73314,0.19719
1791.80439,0.19139
1789.87565,0.18554
1787.94690,0.17999
1786.01815,0.17417
1784.08941,0.16781
1782.16066,0.16094
1780.23192,0.15332
1778.30317,0.14519
1776.37443,0.13707
1774.44568,0.12852
1772.51694,0.11878
1770.58819,0.10884
1768.65945,0.09980
1766.73070,0.09132
1764.80196,0.08365
1762.87321,0.07667
1760.94447,0.07037
1759.01572,0.06527
1757.08697,0.06092
1755.15823,0.05725
1753.22948,0.05448
1751.30074,0.05212
1749.37199,0.04996
1747.44325,0.04835
1745.51450,0.04736
1743.58576,0.04690
1741.65701,0.04690
1739.72827,0.04723
1737.79952,0.04794
1735.87078,0.04910
1733.94203,0.05066
1732.01329,0.05220
1730.08454,0.05363
1728.15580,0.05520
1726.22705,0.05688
1724.29830,0.05859
1722.36956,0.06042
1720.44081,0.06254
1718.51207,0.06509
1716.58332,0.06778
1714.65458,0.07014
1712.72583,0.07242
1710.79709,0.07506
1708.86834,0.07797
1706.93960,0.08106
1705.01085,0.08436
1703.08211,0.08761
1701.15336,0.09089
1699.22462,0.09417
1697.29587,0.09696
1695.36713,0.09928
1693.43838,0.10084
1691.50963,0.10168
1689.58089,0.10217
1687.65214,0.10225
1685.72340,0.10175
1683.79465,0.10053
1681.86591,0.09895
1679.93716,0.09730
1678.00842,0.09551
1676.07967,0.09350
1674.15093,0.09145
1672.22218,0.08976
1670.29344,0.08833
1668.36469,0.08699
1666.43595,0.08608
1664.50720,0.08557
1662.57845,0.08511
1660.64971,0.08455
1658.72096,0.08412
1656.79222,0.08396
1654.86347,0.08398
1652.93473,0.08399
1651.00598,0.08402
1649.07724,0.08424
1647.14849,0.08449
1645.21975,0.08446
1643.29100,0.08428
1641.36226,0.08425
1639.43351,0.08433
1637.50477,0.08432
1635.57602,0.08409
1633.64728,0.08374
1631.71853,0.08342
1629.78978,0.08315
1627.86104,0.08285
1625.93229,0.08246
1624.00355,0.08185
1622.07480,0.08119
1620.14606,0.08068
1618.21731,0.08000
1616.28857,0.07895
1614.35982,0.07783
1612.43108,0.07670
1610.50233,0.07527
1608.57359,0.07344
1606.64484,0.07151
1604.71610,0.06972
1602.78735,0.06802
1600.85861,0.06639
1598.92986,0.06484
1597.00111,0.06349
1595.07237,0.06267
1593.14362,0.06287
1591.21488,0.06448
1589.28613,0.06728
1587.35739,0.07087
1585.42864,0.07521
1583.49990,0.08020
1581.57115,0.08554
1579.64241,0.09077
1577.71366,0.09607
1575.78492,0.10178
1573.85617,0.10684
1571.92743,0.11080
1569.99868,0.11443
1568.06993,0.11769
1566.14119,0.12022
1564.21244,0.12208
1562.28370,0.12348
1560.35495,0.12471
1558.42621,0.12562
1556.49746,0.12589
1554.56872,0.12578
1552.63997,0.12549
1550.71123,0.12526
1548.78248,0.12513
1546.85374,0.12480
1544.92499,0.12425
1542.99625,0.12354
1541.06750,0.12246
1539.13876,0.12071
1537.21001,0.11889
1535.28126,0.11710
1533.35252,0.11474
1531.42377,0.11167
1529.49503,0.10807
1527.56628,0.10378
1525.63754,0.09892
1523.70879,0.09369
1521.78005,0.08734
1519.85130,0.08038
1517.92256,0.07448
1515.99381,0.06969
1514.06507,0.06588
1512.13632,0.06308
1510.20758,0.06101
1508.27883,0.05934
1506.35008,0.05804
1504.42134,0.05785
1502.49259,0.05886
1500.56385,0.06066
1498.63510,0.06308
1496.70636,0.06595
1494.77761,0.06870
1492.84887,0.07088
1490.92012,0.07270
1488.99138,0.07424
1487.06263,0.07500
1485.13389,0.07456
1483.20514,0.07302
1481.27640,0.07078
1479.34765,0.06812
1477.41891,0.06503
1475.49016,0.06136
1473.56141,0.05694
1471.63267,0.05226
1469.70392,0.04871
1467.77518,0.04660
1465.84643,0.04546
1463.91769,0.04504
1461.98894,0.04519
1460.06020,0.04560
1458.13145,0.04593
1456.20271,0.04606
1454.27396,0.04632
1452.34522,0.04694
1450.41647,0.04773
1448.48773,0.04835
1446.55898,0.04865
1444.63024,0.04874
1442.70149,0.04864
1440.77274,0.04825
1438.84400,0.04762
1436.91525,0.04666
1434.98651,0.04544
1433.05776,0.04442
1431.12902,0.04374
1429.20027,0.04329
1427.27153,0.04320
1425.34278,0.04362
1423.41404,0.04427
1421.48529,0.04499
1419.55655,0.04600
1417.62780,0.04722
1415.69906,0.04823
1413.77031,0.04902
1411.84156,0.04981
1409.91282,0.05066
1407.98407,0.05129
1406.05533,0.05145
1404.12658,0.05116
1402.19784,0.05077
1400.26909,0.05047
1398.34035,0.05010
1396.41160,0.04951
1394.48286,0.04861
1392.55411,0.04751
1390.62537,0.04644
1388.69662,0.04537
1386.76788,0.04417
1384.83913,0.04286
1382.91039,0.04169
1380.98164,0.04098
1379.05289,0.04066
1377.12415,0.04051
1375.19540,0.04047
1373.26666,0.04053
1371.33791,0.04079
1369.40917,0.04136
1367.48042,0.04210
1365.55168,0.04279
1363.62293,0.04330
1361.69419,0.04371
1359.76544,0.04428
1357.83670,0.04501
1355.90795,0.04562
1353.97921,0.04600
1352.05046,0.04607
1350.12172,0.04593
1348.19297,0.04574
1346.26422,0.04541
1344.33548,0.04489
1342.40673,0.04437
1340.47799,0.04397
1338.54924,0.04357
1336.62050,0.04310
1334.69175,0.04264
1332.76301,0.04239
1330.83426,0.04241
1328.90552,0.04258
1326.97677,0.04273
1325.04803,0.04279
1323.11928,0.04293
1321.19054,0.04326
1319.26179,0.04366
1317.33304,0.04405
1315.40430,0.04455
1313.47555,0.04510
1311.54681,0.04565
1309.61806,0.04637
1307.68932,0.04721
1305.76057,0.04784
1303.83183,0.04815
1301.90308,0.04832
1299.97434,0.04844
1298.04559,0.04839
1296.11685,0.04798
1294.18810,0.04731
1292.25936,0.04651
1290.33061,0.04556
1288.40187,0.04445
1286.47312,0.04332
1284.54437,0.04231
1282.61563,0.04147
1280.68688,0.04083
1278.75814,0.04029
1276.82939,0.03977
1274.90065,0.03928
1272.97190,0.03871
1271.04316,0.03805
1269.11441,0.03760
1267.18567,0.03749
1265.25692,0.03748
1263.32818,0.03730
1261.39943,0.03695
1259.47069,0.03663
1257.54194,0.03645
1255.61320,0.03630
1253.68445,0.03607
1251.75570,0.03589
1249.82696,0.03590
1247.89821,0.03601
1245.96947,0.03605
1244.04072,0.03607
1242.11198,0.03628
1240.18323,0.03663
1238.25449,0.03685
1236.32574,0.03702
1234.39700,0.03744
1232.46825,0.03805
1230.53951,0.03865
1228.61076,0.03927
1226.68202,0.03995
1224.75327,0.04054
1222.82452,0.04096
1220.89578,0.04139
1218.96703,0.04200
1217.03829,0.04277
1215.10954,0.04361
1213.18080,0.04436
1211.25205,0.04483
1209.32331,0.04507
1207.39456,0.04525
1205.46582,0.04541
1203.53707,0.04559
1201.60833,0.04583
1199.67958,0.04599
1197.75084,0.04597
1195.82209,0.04596
1193.89335,0.04586
1191.96460,0.04523
1190.03585,0.04415
1188.10711,0.04303
1186.17836,0.04196
1184.24962,0.04083
1182.32087,0.03962
1180.39213,0.03841
1178.46338,0.03723
1176.53464,0.03611
1174.60589,0.03510
1172.67715,0.03437
1170.74840,0.03412
1168.81966,0.03430
1166.89091,0.03468
1164.96217,0.03527
1163.03342,0.03597
1161.10467,0.03652
1159.17593,0.03690
1157.24718,0.03708
1155.31844,0.03701
1153.38969,0.03693
1151.46095,0.03701
1149.53220,0.03683
1147.60346,0.03615
1145.67471,0.03542
1143.74597,0.03480
1141.81722,0.03396
1139.88848,0.03289
1137.95973,0.03189
1136.03099,0.03115
1134.10224,0.03087
1132.17350,0.03113
1130.24475,0.03155
1128.31600,0.03168
1126.38726,0.03165
1124.45851,0.03179
1122.52977,0.03228
1120.60102,0.03296
1118.67228,0.03341
1116.74353,0.03347
1114.81479,0.03346
1112.88604,0.03360
1110.95730,0.03388
1109.02855,0.03435
1107.09981,0.03503
1105.17106,0.03588
1103.24232,0.03664
1101.31357,0.03688
1099.38483,0.03657
1097.45608,0.03598
1095.52733,0.03527
1093.59859,0.03473
1091.66984,0.03448
1089.74110,0.03442
1087.81235,0.03461
1085.88361,0.03497
1083.95486,0.03517
1082.02612,0.03518
1080.09737,0.03532
1078.16863,0.03579
1076.23988,0.03650
1074.31114,0.03738
1072.38239,0.03841
1070.45365,0.03943
1068.52490,0.04041
1066.59615,0.04172
1064.66741,0.04339
1062.73866,0.04502
1060.80992,0.04631
1058.88117,0.04729
1056.95243,0.04807
1055.02368,0.04854
1053.09494,0.04866
1051.16619,0.04889
1049.23745,0.04935
1047.30870,0.04955
1045.37996,0.04945
1043.45121,0.04952
1041.52247,0.04994
1039.59372,0.05073
1037.66498,0.05190
1035.73623,0.05317
1033.80748,0.05410
1031.87874,0.05468
1029.94999,0.05514
1028.02125,0.05554
1026.09250,0.05597
1024.16376,0.05645
1022.23501,0.05690
1020.30627,0.05742
1018.37752,0.05793
1016.44878,0.05845
1014.52003,0.05916
1012.59129,0.05980
1010.66254,0.06016
1008.73380,0.06046
1006.80505,0.06090
1004.87631,0.06140
1002.94756,0.06178
1001.01881,0.06215
999.09007,0.06282
997.16132,0.06372
995.23258,0.06450
993.30383,0.06508
991.37509,0.06567
989.44634,0.06674
987.51760,0.06849
985.58885,0.07074
983.66011,0.07339
981.73136,0.07610
979.80262,0.07861
977.87387,0.08109
975.94513,0.08327
974.01638,0.08474
972.08763,0.08594
970.15889,0.08742
968.23014,0.08902
966.30140,0.09043
964.37265,0.09195
962.44391,0.09397
960.51516,0.09651
958.58642,0.09949
956.65767,0.10271
954.72893,0.10582
952.80018,0.10879
950.87144,0.11131
948.94269,0.11290
947.01395,0.11393
945.08520,0.11504
943.15646,0.11604
941.22771,0.11652
939.29896,0.11656
937.37022,0.11638
935.44147,0.11610
933.51273,0.11579
931.58398,0.11547
929.65524,0.11527
927.72649,0.11515
925.79775,0.11485
923.86900,0.11425
921.94026,0.11345
920.01151,0.11259
918.08277,0.11185
916.15402,0.11105
914.22528,0.10987
912.29653,0.10830
910.36779,0.10656
908.43904,0.10463
906.51029,0.10250
904.58155,0.10042
902.65280,0.09859
900.72406,0.09693
898.79531,0.09606
896.86657,0.09679
894.93782,0.09877
893.00908,0.10117
891.08033,0.10383
889.15159,0.10687
887.22284,0.11001
885.29410,0.11277
883.36535,0.11472
881.43661,0.11580
879.50786,0.11653
877.57911,0.11741
875.65037,0.11835
873.72162,0.11925
871.79288,0.12037
869.86413,0.12174
867.93539,0.12298
866.00664,0.12397
864.07790,0.12470
862.14915,0.12517
860.22041,0.12552
858.29166,0.12563
856.36292,0.12549
854.43417,0.12530
852.50543,0.12491
850.57668,0.12411
848.64794,0.12317
846.71919,0.12229
844.79044,0.12130
842.86170,0.11985
840.93295,0.11819
839.00421,0.11724
837.07546,0.11697
835.14672,0.11668
833.21797,0.11628
831.28923,0.11609
829.36048,0.11626
827.43174,0.11673
825.50299,0.11748
823.57425,0.11835
821.64550,0.11911
819.71676,0.11968
817.78801,0.12011
815.85926,0.12042
813.93052,0.12067
812.00177,0.12097
810.07303,0.12116
808.14428,0.12104
806.21554,0.12064
804.28679,0.12036
802.35805,0.12045
800.42930,0.12055
798.50056,0.12034
796.57181,0.12017
794.64307,0.12015
792.71432,0.11986
790.78558,0.11925
788.85683,0.11864
786.92809,0.11797
784.99934,0.11704
783.07059,0.11612
781.14185,0.11541
779.21310,0.11473
777.28436,0.11399
775.35561,0.11317
773.42687,0.11202
771.49812,0.11048
769.56938,0.10881
767.64063,0.10731
765.71189,0.10602
763.78314,0.10477
761.85440,0.10337
759.92565,0.10167
757.99691,0.09991
756.06816,0.09836
754.13942,0.09693
752.21067,0.09559
750.28192,0.09450
748.35318,0.09384
746.42443,0.09337
744.49569,0.09248
742.56694,0.09115
740.63820,0.09001
738.70945,0.08910
736.78071,0.08798
734.85196,0.08665
732.92322,0.08532
730.99447,0.08396
729.06573,0.08280
727.13698,0.08197
725.20824,0.08094
723.27949,0.07963
721.35074,0.07868
719.42200,0.07809
717.49325,0.07755
715.56451,0.07698
713.63576,0.07640
711.70702,0.07607
709.77827,0.07605
707.84953,0.07600
705.92078,0.07576
703.99204,0.07571
702.06329,0.07600
700.13455,0.07615
698.20580,0.07596
696.27706,0.07574
694.34831,0.07521
692.41957,0.07417
690.49082,0.07308
688.56207,0.07211
686.63333,0.07157
684.70458,0.07128
682.77584,0.07014
680.84709,0.06824
678.91835,0.06668
676.98960,0.06577
675.06086,0.06515
673.13211,0.06446
671.20337,0.06371
669.27462,0.06349
667.34588,0.06386
665.41713,0.06433
663.48839,0.06498
661.55964,0.06583
659.63090,0.06654
657.70215,0.06711
655.77340,0.06767
653.84466,0.06767
651.91591,0.06656
649.98717,0.06493
648.05842,0.06393
646.12968,0.06364
644.20093,0.06341
642.27219,0.06313
640.34344,0.06297
638.41470,0.06277
636.48595,0.06221
634.55721,0.06101
632.62846,0.05985
630.69972,0.05957
628.77097,0.05950
626.84222,0.05905
624.91348,0.05846
622.98473,0.05737
621.05599,0.05591
619.12724,0.05572
617.19850,0.05707
615.26975,0.05850
613.34101,0.05901
611.41226,0.05808
609.48352,0.05671
607.55477,0.05731
605.62603,0.05969
603.69728,0.06161
601.76854,0.06252
599.83979,0.06279
