7497.03301,0.84367
7495.10426,0.83857
7493.17552,0.83485
7491.24677,0.83748
7489.31803,0.84033
7487.38928,0.83960
7485.46054,0.83811
7483.53179,0.83690
7481.60305,0.83661
7479.67430,0.83865
7477.74556,0.84098
7475.81681,0.84093
7473.88807,0.83922
7471.95932,0.83689
7470.03057,0.83241
7468.10183,0.82862
7466.17308,0.83149
7464.24434,0.83670
7462.31559,0.83568
7460.38685,0.83017
7458.45810,0.82551
7456.52936,0.82122
7454.60061,0.81597
7452.67187,0.81301
7450.74312,0.81626
7448.81438,0.82291
7446.88563,0.82651
7444.95689,0.82528
7443.02814,0.82020
7441.09940,0.81340
7439.17065,0.80989
7437.24190,0.81307
7435.31316,0.81773
7433.38441,0.81563
7431.45567,0.80944
7429.52692,0.80609
7427.59818,0.80676
7425.66943,0.81128
7423.74069,0.81544
7421.81194,0.81410
7419.88320,0.81016
7417.95445,0.80697
7416.02571,0.80555
7414.09696,0.80696
7412.16822,0.80838
7410.23947,0.80970
7408.31073,0.81332
7406.38198,0.81346
7404.45323,0.80725
7402.52449,0.80149
7400.59574,0.79880
7398.66700,0.79785
7396.73825,0.79821
7394.80951,0.79804
7392.88076,0.79431
7390.95202,0.78586
7389.02327,0.78179
7387.09453,0.79089
7385.16578,0.80226
7383.23704,0.80403
7381.30829,0.80085
7379.37955,0.79931
7377.45080,0.80008
7375.52205,0.79782
7373.59331,0.79008
7371.66456,0.78559
7369.73582,0.78991
7367.80707,0.79745
7365.87833,0.80048
7363.94958,0.79697
7362.02084,0.79264
7360.09209,0.79446
7358.16335,0.79811
7356.23460,0.79596
7354.30586,0.79179
7352.37711,0.78771
7350.44837,0.78164
7348.51962,0.77926
7346.59088,0.78338
7344.66213,0.78812
7342.73338,0.78849
7340.80464,0.78540
7338.87589,0.78347
7336.94715,0.78277
7335.01840,0.78007
7333.08966,0.77702
7331.16091,0.77543
7329.23217,0.77336
7327.30342,0.77254
7325.37468,0.77566
7323.44593,0.77778
7321.51719,0.77490
7319.58844,0.77206
7317.65970,0.77280
7315.73095,0.77342
7313.80221,0.77199
7311.87346,0.77125
7309.94471,0.77178
7308.01597,0.77200
7306.08722,0.77342
7304.15848,0.77547
7302.22973,0.77494
7300.30099,0.77394
7298.37224,0.77454
7296.44350,0.77472
7294.51475,0.77405
7292.58601,0.77204
7290.65726,0.76784
7288.72852,0.76616
7286.79977,0.77089
7284.87103,0.77553
7282.94228,0.77394
7281.01353,0.76899
7279.08479,0.76669
7277.15604,0.77010
7275.22730,0.77440
7273.29855,0.77428
7271.36981,0.77282
7269.44106,0.77307
7267.51232,0.77391
7265.58357,0.77400
7263.65483,0.77302
7261.72608,0.77386
7259.79734,0.77769
7257.86859,0.78007
7255.93985,0.77951
7254.01110,0.77639
7252.08236,0.77044
7250.15361,0.76514
7248.22486,0.76264
7246.29612,0.76198
7244.36737,0.76383
7242.43863,0.76786
7240.50988,0.77067
7238.58114,0.77125
7236.65239,0.77092
7234.72365,0.76981
7232.79490,0.76950
7230.86616,0.76917
7228.93741,0.76624
7227.00867,0.76389
7225.07992,0.76396
7223.15118,0.76459
7221.22243,0.76552
7219.29369,0.76635
7217.36494,0.76563
7215.43619,0.76340
7213.50745,0.76143
7211.57870,0.76047
7209.64996,0.75982
7207.72121,0.75919
7205.79247,0.75830
7203.86372,0.75667
7201.93498,0.75505
7200.00623,0.75486
7198.07749,0.75624
7196.14874,0.75754
7194.22000,0.75625
7192.29125,0.75288
7190.36251,0.75106
7188.43376,0.75188
7186.50501,0.75238
7184.57627,0.75078
7182.64752,0.75149
7180.71878,0.75637
7178.79003,0.75861
7176.86129,0.75673
7174.93254,0.75504
7173.00380,0.75249
7171.07505,0.74920
7169.14631,0.74830
7167.21756,0.74845
7165.28882,0.74869
7163.36007,0.74800
7161.43133,0.74316
7159.50258,0.73925
7157.57384,0.74179
7155.64509,0.74500
7153.71634,0.74416
7151.78760,0.74166
7149.85885,0.73983
7147.93011,0.73830
7146.00136,0.73531
7144.07262,0.73168
7142.14387,0.73124
7140.21513,0.73469
7138.28638,0.73903
7136.35764,0.74220
7134.42889,0.74177
7132.50015,0.73566
7130.57140,0.72803
7128.64266,0.72456
7126.71391,0.72502
7124.78516,0.72568
7122.85642,0.72379
7120.92767,0.72092
7118.99893,0.72024
7117.07018,0.72065
7115.14144,0.71957
7113.21269,0.71707
7111.28395,0.71449
7109.35520,0.71256
7107.42646,0.71060
7105.49771,0.70848
7103.56897,0.70683
7101.64022,0.70570
7099.71148,0.70556
7097.78273,0.70598
7095.85399,0.70524
7093.92524,0.70300
7091.99649,0.70066
7090.06775,0.69951
7088.13900,0.69882
7086.21026,0.69737
7084.28151,0.69516
7082.35277,0.69234
7080.42402,0.68854
7078.49528,0.68468
7076.56653,0.68403
7074.63779,0.68617
7072.70904,0.68630
7070.78030,0.68548
7068.85155,0.68760
7066.92281,0.68934
7064.99406,0.68711
7063.06532,0.68293
7061.13657,0.67794
7059.20782,0.67295
7057.27908,0.67089
7055.35033,0.67109
7053.42159,0.67061
7051.49284,0.66832
7049.56410,0.66469
7047.63535,0.66194
7045.70661,0.66121
7043.77786,0.66242
7041.84912,0.66488
7039.92037,0.66524
7037.99163,0.66237
7036.06288,0.66037
7034.13414,0.66031
7032.20539,0.65758
7030.27664,0.65136
7028.34790,0.64711
7026.41915,0.64784
7024.49041,0.65051
7022.56166,0.65052
7020.63292,0.64727
7018.70417,0.64410
7016.77543,0.64294
7014.84668,0.64276
7012.91794,0.64222
7010.98919,0.64138
7009.06045,0.63954
7007.13170,0.63526
7005.20296,0.63126
7003.27421,0.63110
7001.34547,0.63382
6999.41672,0.63632
6997.48797,0.63597
6995.55923,0.63291
6993.63048,0.62955
6991.70174,0.62889
6989.77299,0.63093
6987.84425,0.63087
6985.91550,0.62759
6983.98676,0.62423
6982.05801,0.62263
6980.12927,0.62221
6978.20052,0.62076
6976.27178,0.62047
6974.34303,0.62427
6972.41429,0.62755
6970.48554,0.62631
6968.55680,0.62422
6966.62805,0.62486
6964.69930,0.62580
6962.77056,0.62450
6960.84181,0.62314
6958.91307,0.62346
6956.98432,0.62456
6955.05558,0.62550
6953.12683,0.62363
6951.19809,0.61856
6949.26934,0.61590
6947.34060,0.61722
6945.41185,0.61861
6943.48311,0.61850
6941.55436,0.61718
6939.62562,0.61600
6937.69687,0.61626
6935.76812,0.61685
6933.83938,0.61812
6931.91063,0.62043
6929.98189,0.61922
6928.05314,0.61425
6926.12440,0.61199
6924.19565,0.61325
6922.26691,0.61498
6920.33816,0.61649
6918.40942,0.61674
6916.48067,0.61647
6914.55193,0.61754
6912.62318,0.61816
6910.69444,0.61771
6908.76569,0.61757
6906.83695,0.61651
6904.90820,0.61435
6902.97945,0.61304
6901.05071,0.61334
6899.12196,0.61547
6897.19322,0.61786
6895.26447,0.61764
6893.33573,0.61638
6891.40698,0.61715
6889.47824,0.61860
6887.54949,0.61879
6885.62075,0.61743
6883.69200,0.61489
6881.76326,0.61253
6879.83451,0.61149
6877.90577,0.61278
6875.97702,0.61620
6874.04828,0.61959
6872.11953,0.62036
6870.19078,0.61877
6868.26204,0.61796
6866.33329,0.61896
6864.40455,0.62050
6862.47580,0.62060
6860.54706,0.61823
6858.61831,0.61587
6856.68957,0.61524
6854.76082,0.61507
6852.83208,0.61498
6850.90333,0.61602
6848.97459,0.61775
6847.04584,0.61860
6845.11710,0.61872
6843.18835,0.61724
6841.25960,0.61305
6839.33086,0.60975
6837.40211,0.61052
6835.47337,0.61230
6833.54462,0.61164
6831.61588,0.61087
6829.68713,0.61314
6827.75839,0.61596
6825.82964,0.61522
6823.90090,0.61240
6821.97215,0.61138
6820.04341,0.61177
6818.11466,0.61181
6816.18592,0.61215
6814.25717,0.61349
6812.32843,0.61558
6810.39968,0.61766
6808.47093,0.61940
6806.54219,0.62000
6804.61344,0.61777
6802.68470,0.61511
6800.75595,0.61564
6798.82721,0.61644
6796.89846,0.61522
6794.96972,0.61505
6793.04097,0.61653
6791.11223,0.61718
6789.18348,0.61614
6787.25474,0.61398
6785.32599,0.61267
6783.39725,0.61338
6781.46850,0.61499
6779.53975,0.61582
6777.61101,0.61433
6775.68226,0.61198
6773.75352,0.61154
6771.82477,0.61176
6769.89603,0.61123
6767.96728,0.61189
6766.03854,0.61474
6764.10979,0.61757
6762.18105,0.61852
6760.25230,0.61917
6758.32356,0.62020
6756.39481,0.61904
6754.46607,0.61580
6752.53732,0.61328
6750.60858,0.61265
6748.67983,0.61497
6746.75108,0.61929
6744.82234,0.62139
6742.89359,0.61941
6740.96485,0.61567
6739.03610,0.61321
6737.10736,0.61271
6735.17861,0.61305
6733.24987,0.61436
6731.32112,0.61563
6729.39238,0.61443
6727.46363,0.61227
6725.53489,0.61231
6723.60614,0.61393
6721.67740,0.61553
6719.74865,0.61703
6717.81991,0.61760
6715.89116,0.61692
6713.96241,0.61575
6712.03367,0.61411
6710.10492,0.61270
6708.17618,0.61308
6706.24743,0.61494
6704.31869,0.61656
6702.38994,0.61840
6700.46120,0.62169
6698.53245,0.62336
6696.60371,0.62161
6694.67496,0.62049
6692.74622,0.62134
6690.81747,0.62219
6688.88873,0.62178
6686.95998,0.61967
6685.03123,0.61862
6683.10249,0.61973
6681.17374,0.61949
6679.24500,0.61775
6677.31625,0.61803
6675.38751,0.62076
6673.45876,0.62328
6671.53002,0.62367
6669.60127,0.62190
6667.67253,0.61985
6665.74378,0.61995
6663.81504,0.62244
6661.88629,0.62500
6659.95755,0.62506
6658.02880,0.62303
6656.10006,0.62144
6654.17131,0.62110
6652.24256,0.62124
6650.31382,0.62139
6648.38507,0.62198
6646.45633,0.62386
6644.52758,0.62703
6642.59884,0.62971
6640.67009,0.63032
6638.74135,0.62974
6636.81260,0.62880
6634.88386,0.62726
6632.95511,0.62686
6631.02637,0.62886
6629.09762,0.63045
6627.16888,0.62942
6625.24013,0.62814
6623.31139,0.62850
6621.38264,0.62918
6619.45389,0.62945
6617.52515,0.62953
6615.59640,0.62944
6613.66766,0.62997
6611.73891,0.63120
6609.81017,0.63134
6607.88142,0.63016
6605.95268,0.63017
6604.02393,0.63133
6602.09519,0.63148
6600.16644,0.63222
6598.23770,0.63456
6596.30895,0.63579
6594.38021,0.63522
6592.45146,0.63420
6590.52271,0.63360
6588.59397,0.63444
6586.66522,0.63699
6584.73648,0.63929
6582.80773,0.63847
6580.87899,0.63528
6578.95024,0.63375
6577.02150,0.63468
6575.09275,0.63554
6573.16401,0.63524
6571.23526,0.63414
6569.30652,0.63320
6567.37777,0.63379
6565.44903,0.63555
6563.52028,0.63677
6561.59154,0.63781
6559.66279,0.64026
6557.73404,0.64317
6555.80530,0.64343
6553.87655,0.64126
6551.94781,0.64064
6550.01906,0.64188
6548.09032,0.64180
6546.16157,0.64064
6544.23283,0.64028
6542.30408,0.64052
6540.37534,0.64133
6538.44659,0.64301
6536.51785,0.64399
6534.58910,0.64336
6532.66036,0.64274
6530.73161,0.64243
6528.80287,0.64165
6526.87412,0.64141
6524.94537,0.64170
6523.01663,0.64241
6521.08788,0.64477
6519.15914,0.64642
6517.23039,0.64496
6515.30165,0.64343
6513.37290,0.64474
6511.44416,0.64772
6509.51541,0.64980
6507.58667,0.64995
6505.65792,0.64896
6503.72918,0.64708
6501.80043,0.64429
6499.87169,0.64190
6497.94294,0.64093
6496.01419,0.64081
6494.08545,0.64146
6492.15670,0.64292
6490.22796,0.64402
6488.29921,0.64485
6486.37047,0.64637
6484.44172,0.64780
6482.51298,0.64846
6480.58423,0.64889
6478.65549,0.64838
6476.72674,0.64607
6474.79800,0.64414
6472.86925,0.64382
6470.94051,0.64303
6469.01176,0.64183
6467.08302,0.64247
6465.15427,0.64476
6463.22552,0.64624
6461.29678,0.64586
6459.36803,0.64586
6457.43929,0.64772
6455.51054,0.64965
6453.58180,0.65046
6451.65305,0.65093
6449.72431,0.65085
6447.79556,0.64984
6445.86682,0.64886
6443.93807,0.64860
6442.00933,0.64901
6440.08058,0.64999
6438.15184,0.65103
6436.22309,0.65115
6434.29434,0.64940
6432.36560,0.64671
6430.43685,0.64575
6428.50811,0.64724
6426.57936,0.64926
6424.65062,0.64983
6422.72187,0.64833
6420.79313,0.64706
6418.86438,0.64835
6416.93564,0.65037
6415.00689,0.65128
6413.07815,0.65162
6411.14940,0.65191
6409.22066,0.65192
6407.29191,0.65056
6405.36317,0.64872
6403.43442,0.64854
6401.50567,0.64923
6399.57693,0.65018
6397.64818,0.65257
6395.71944,0.65558
6393.79069,0.65645
6391.86195,0.65450
6389.93320,0.65238
6388.00446,0.65131
6386.07571,0.64953
6384.14697,0.64769
6382.21822,0.64884
6380.28948,0.65207
6378.36073,0.65322
6376.43199,0.65150
6374.50324,0.64973
6372.57450,0.64974
6370.64575,0.65075
6368.71700,0.65112
6366.78826,0.65074
6364.85951,0.65089
6362.93077,0.65221
6361.00202,0.65451
6359.07328,0.65669
6357.14453,0.65612
6355.21579,0.65267
6353.28704,0.65022
6351.35830,0.65033
6349.42955,0.65120
6347.50081,0.65209
6345.57206,0.65295
6343.64332,0.65347
6341.71457,0.65354
6339.78582,0.65315
6337.85708,0.65317
6335.92833,0.65385
6333.99959,0.65451
6332.07084,0.65521
6330.14210,0.65523
6328.21335,0.65437
6326.28461,0.65472
6324.35586,0.65645
6322.42712,0.65674
6320.49837,0.65478
6318.56963,0.65356
6316.64088,0.65503
6314.71214,0.65732
6312.78339,0.65865
6310.85465,0.65886
6308.92590,0.65745
6306.99715,0.65517
6305.06841,0.65478
6303.13966,0.65652
6301.21092,0.65807
6299.28217,0.65849
6297.35343,0.65792
6295.42468,0.65682
6293.49594,0.65604
6291.56719,0.65605
6289.63845,0.65681
6287.70970,0.65836
6285.78096,0.66048
6283.85221,0.66163
6281.92347,0.66148
6279.99472,0.66184
6278.06598,0.66219
6276.13723,0.66138
6274.20848,0.66145
6272.27974,0.66275
6270.35099,0.66315
6268.42225,0.66324
6266.49350,0.66415
6264.56476,0.66526
6262.63601,0.66618
6260.70727,0.66707
6258.77852,0.66838
6256.84978,0.66983
6254.92103,0.67044
6252.99229,0.67068
6251.06354,0.67184
6249.13480,0.67306
6247.20605,0.67265
6245.27730,0.67222
6243.34856,0.67395
6241.41981,0.67608
6239.49107,0.67602
6237.56232,0.67460
6235.63358,0.67394
6233.70483,0.67391
6231.77609,0.67387
6229.84734,0.67455
6227.91860,0.67644
6225.98985,0.67836
6224.06111,0.67856
6222.13236,0.67783
6220.20362,0.67770
6218.27487,0.67748
6216.34613,0.67770
6214.41738,0.67912
6212.48863,0.68012
6210.55989,0.68074
6208.63114,0.68216
6206.70240,0.68366
6204.77365,0.68441
6202.84491,0.68483
6200.91616,0.68547
6198.98742,0.68568
6197.05867,0.68481
6195.12993,0.68415
6193.20118,0.68473
6191.27244,0.68571
6189.34369,0.68624
6187.41495,0.68676
6185.48620,0.68733
6183.55746,0.68688
6181.62871,0.68617
6179.69996,0.68724
6177.77122,0.68917
6175.84247,0.69012
6173.91373,0.69004
6171.98498,0.68938
6170.05624,0.68903
6168.12749,0.68965
6166.19875,0.69120
6164.27000,0.69312
6162.34126,0.69437
6160.41251,0.69502
6158.48377,0.69557
6156.55502,0.69566
6154.62628,0.69492
6152.69753,0.69443
6150.76878,0.69497
6148.84004,0.69500
6146.91129,0.69438
6144.98255,0.69448
6143.05380,0.69462
6141.12506,0.69440
6139.19631,0.69440
6137.26757,0.69446
6135.33882,0.69484
6133.41008,0.69626
6131.48133,0.69842
6129.55259,0.69949
6127.62384,0.69878
6125.69510,0.69833
6123.76635,0.69900
6121.83761,0.69923
6119.90886,0.69894
6117.98011,0.69951
6116.05137,0.70078
6114.12262,0.70108
6112.19388,0.69979
6110.26513,0.69850
6108.33639,0.69887
6106.40764,0.69985
6104.47890,0.69957
6102.55015,0.69924
6100.62141,0.70038
6098.69266,0.70103
6096.76392,0.69944
6094.83517,0.69766
6092.90643,0.69805
6090.97768,0.69975
6089.04893,0.70071
6087.12019,0.70051
6085.19144,0.70009
6083.26270,0.69985
6081.33395,0.69877
6079.40521,0.69731
6077.47646,0.69817
6075.54772,0.70080
6073.61897,0.70125
6071.69023,0.69927
6069.76148,0.69836
6067.83274,0.69914
6065.90399,0.69971
6063.97525,0.69974
6062.04650,0.69970
6060.11776,0.69966
6058.18901,0.69930
6056.26026,0.69807
6054.33152,0.69668
6052.40277,0.69626
6050.47403,0.69652
6048.54528,0.69684
6046.61654,0.69703
6044.68779,0.69680
6042.75905,0.69624
6040.83030,0.69627
6038.90156,0.69654
6036.97281,0.69562
6035.04407,0.69393
6033.11532,0.69298
6031.18658,0.69283
6029.25783,0.69254
6027.32909,0.69186
6025.40034,0.69110
6023.47159,0.69027
6021.54285,0.68981
6019.61410,0.68998
6017.68536,0.68953
6015.75661,0.68868
6013.82787,0.68907
6011.89912,0.68981
6009.97038,0.68893
6008.04163,0.68635
6006.11289,0.68357
6004.18414,0.68237
6002.25540,0.68296
6000.32665,0.68402
5998.39791,0.68494
5996.46916,0.68563
5994.54041,0.68538
5992.61167,0.68408
5990.68292,0.68268
5988.75418,0.68144
5986.82543,0.68039
5984.89669,0.68030
5982.96794,0.68074
5981.03920,0.68060
5979.11045,0.68010
5977.18171,0.67974
5975.25296,0.67962
5973.32422,0.67983
5971.39547,0.68015
5969.46673,0.67998
5967.53798,0.67891
5965.60924,0.67754
5963.68049,0.67650
5961.75174,0.67613
5959.82300,0.67613
5957.89425,0.67525
5955.96551,0.67359
5954.03676,0.67266
5952.10802,0.67291
5950.17927,0.67354
5948.25053,0.67403
5946.32178,0.67422
5944.39304,0.67331
5942.46429,0.67187
5940.53555,0.67140
5938.60680,0.67175
5936.67806,0.67239
5934.74931,0.67335
5932.82057,0.67439
5930.89182,0.67478
5928.96307,0.67404
5927.03433,0.67291
5925.10558,0.67227
5923.17684,0.67232
5921.24809,0.67301
5919.31935,0.67359
5917.39060,0.67333
5915.46186,0.67293
5913.53311,0.67281
5911.60437,0.67224
5909.67562,0.67133
5907.74688,0.67093
5905.81813,0.67122
5903.88939,0.67128
5901.96064,0.67032
5900.03189,0.66895
5898.10315,0.66809
5896.17440,0.66713
5894.24566,0.66551
5892.31691,0.66475
5890.38817,0.66527
5888.45942,0.66515
5886.53068,0.66415
5884.60193,0.66343
5882.67319,0.66308
5880.74444,0.66248
5878.81570,0.66094
5876.88695,0.65859
5874.95821,0.65677
5873.02946,0.65688
5871.10072,0.65818
5869.17197,0.65849
5867.24322,0.65788
5865.31448,0.65776
5863.38573,0.65810
5861.45699,0.65837
5859.52824,0.65811
5857.59950,0.65753
5855.67075,0.65729
5853.74201,0.65713
5851.81326,0.65659
5849.88452,0.65615
5847.95577,0.65621
5846.02703,0.65617
5844.09828,0.65569
5842.16954,0.65537
5840.24079,0.65525
5838.31205,0.65497
5836.38330,0.65465
5834.45455,0.65464
5832.52581,0.65453
5830.59706,0.65318
5828.66832,0.65099
5826.73957,0.64979
5824.81083,0.64997
5822.88208,0.64999
5820.95334,0.64876
5819.02459,0.64699
5817.09585,0.64518
5815.16710,0.64339
5813.23836,0.64220
5811.30961,0.64166
5809.38087,0.64165
5807.45212,0.64220
5805.52337,0.64277
5803.59463,0.64314
5801.66588,0.64351
5799.73714,0.64378
5797.80839,0.64366
5795.87965,0.64371
5793.95090,0.64481
5792.02216,0.64632
5790.09341,0.64725
5788.16467,0.64749
5786.23592,0.64732
5784.30718,0.64711
5782.37843,0.64702
5780.44969,0.64739
5778.52094,0.64869
5776.59220,0.65045
5774.66345,0.65121
5772.73470,0.65123
5770.80596,0.65216
5768.87721,0.65298
5766.94847,0.65286
5765.01972,0.65325
5763.09098,0.65412
5761.16223,0.65514
5759.23349,0.65673
5757.30474,0.65816
5755.37600,0.65868
5753.44725,0.65849
5751.51851,0.65789
5749.58976,0.65710
5747.66102,0.65673
5745.73227,0.65749
5743.80352,0.65889
5741.87478,0.65949
5739.94603,0.65888
5738.01729,0.65831
5736.08854,0.65816
5734.15980,0.65754
5732.23105,0.65655
5730.30231,0.65645
5728.37356,0.65777
5726.44482,0.65912
5724.51607,0.65950
5722.58733,0.65970
5720.65858,0.65989
5718.72984,0.65965
5716.80109,0.65988
5714.87235,0.66095
5712.94360,0.66088
5711.01485,0.65900
5709.08611,0.65775
5707.15736,0.65822
5705.22862,0.65912
5703.29987,0.65936
5701.37113,0.65867
5699.44238,0.65785
5697.51364,0.65801
5695.58489,0.65925
5693.65615,0.66007
5691.72740,0.65879
5689.79866,0.65669
5687.86991,0.65610
5685.94117,0.65648
5684.01242,0.65638
5682.08368,0.65642
5680.15493,0.65736
5678.22618,0.65789
5676.29744,0.65720
5674.36869,0.65659
5672.43995,0.65678
5670.51120,0.65680
5668.58246,0.65609
5666.65371,0.65584
5664.72497,0.65659
5662.79622,0.65701
5660.86748,0.65700
5658.93873,0.65739
5657.00999,0.65764
5655.08124,0.65744
5653.15250,0.65751
5651.22375,0.65815
5649.29500,0.65837
5647.36626,0.65788
5645.43751,0.65808
5643.50877,0.65895
5641.58002,0.65894
5639.65128,0.65796
5637.72253,0.65745
5635.79379,0.65822
5633.86504,0.65988
5631.93630,0.66112
5630.00755,0.66062
5628.07881,0.65949
5626.15006,0.65957
5624.22132,0.66028
5622.29257,0.66025
5620.36383,0.65970
5618.43508,0.65978
5616.50633,0.66056
5614.57759,0.66124
5612.64884,0.66113
5610.72010,0.66021
5608.79135,0.65927
5606.86261,0.65862
5604.93386,0.65856
5603.00512,0.65956
5601.07637,0.66086
5599.14763,0.66132
5597.21888,0.66082
5595.29014,0.66016
5593.36139,0.65961
5591.43265,0.65900
5589.50390,0.65897
5587.57516,0.65985
5585.64641,0.66095
5583.71766,0.66138
5581.78892,0.66086
5579.86017,0.66002
5577.93143,0.65932
5576.00268,0.65899
5574.07394,0.65912
5572.14519,0.65933
5570.21645,0.65959
5568.28770,0.66009
5566.35896,0.66051
5564.43021,0.66091
5562.50147,0.66159
5560.57272,0.66212
5558.64398,0.66258
5556.71523,0.66345
5554.78648,0.66412
5552.85774,0.66363
5550.92899,0.66263
5549.00025,0.66270
5547.07150,0.66349
5545.14276,0.66375
5543.21401,0.66341
5541.28527,0.66288
5539.35652,0.66260
5537.42778,0.66269
5535.49903,0.66292
5533.57029,0.66316
5531.64154,0.66326
5529.71280,0.66347
5527.78405,0.66444
5525.85531,0.66566
5523.92656,0.66568
5521.99781,0.66471
5520.06907,0.66451
5518.14032,0.66531
5516.21158,0.66578
5514.28283,0.66600
5512.35409,0.66661
5510.42534,0.66667
5508.49660,0.66600
5506.56785,0.66573
5504.63911,0.66557
5502.71036,0.66538
5500.78162,0.66631
5498.85287,0.66759
5496.92413,0.66736
5494.99538,0.66657
5493.06664,0.66698
5491.13789,0.66797
5489.20914,0.66837
5487.28040,0.66829
5485.35165,0.66809
5483.42291,0.66793
5481.49416,0.66811
5479.56542,0.66850
5477.63667,0.66877
5475.70793,0.66908
5473.77918,0.66964
5471.85044,0.67011
5469.92169,0.67017
5467.99295,0.67020
5466.06420,0.67074
5464.13546,0.67166
5462.20671,0.67201
5460.27796,0.67130
5458.34922,0.67097
5456.42047,0.67188
5454.49173,0.67298
5452.56298,0.67318
5450.63424,0.67287
5448.70549,0.67310
5446.77675,0.67360
5444.84800,0.67359
5442.91926,0.67357
5440.99051,0.67426
5439.06177,0.67514
5437.13302,0.67568
5435.20428,0.67623
5433.27553,0.67682
5431.34679,0.67691
5429.41804,0.67648
5427.48929,0.67653
5425.56055,0.67801
5423.63180,0.67981
5421.70306,0.68031
5419.77431,0.68000
5417.84557,0.68005
5415.91682,0.68045
5413.98808,0.68069
5412.05933,0.68071
5410.13059,0.68046
5408.20184,0.67976
5406.27310,0.67938
5404.34435,0.68001
5402.41561,0.68106
5400.48686,0.68177
5398.55811,0.68185
5396.62937,0.68128
5394.70062,0.68066
5392.77188,0.68046
5390.84313,0.68054
5388.91439,0.68087
5386.98564,0.68141
5385.05690,0.68194
5383.12815,0.68192
5381.19941,0.68111
5379.27066,0.67997
5377.34192,0.67923
5375.41317,0.67990
5373.48443,0.68144
5371.55568,0.68209
5369.62694,0.68149
5367.69819,0.68038
5365.76944,0.67967
5363.84070,0.67975
5361.91195,0.68003
5359.98321,0.67986
5358.05446,0.67932
5356.12572,0.67890
5354.19697,0.67873
5352.26823,0.67864
5350.33948,0.67856
5348.41074,0.67822
5346.48199,0.67769
5344.55325,0.67735
5342.62450,0.67699
5340.69576,0.67644
5338.76701,0.67625
5336.83827,0.67660
5334.90952,0.67657
5332.98077,0.67524
5331.05203,0.67325
5329.12328,0.67171
5327.19454,0.67039
5325.26579,0.66875
5323.33705,0.66718
5321.40830,0.66651
5319.47956,0.66603
5317.55081,0.66433
5315.62207,0.66218
5313.69332,0.66078
5311.76458,0.65942
5309.83583,0.65755
5307.90709,0.65574
5305.97834,0.65418
5304.04959,0.65271
5302.12085,0.65110
5300.19210,0.64882
5298.26336,0.64604
5296.33461,0.64346
5294.40587,0.64078
5292.47712,0.63746
5290.54838,0.63365
5288.61963,0.62987
5286.69089,0.62655
5284.76214,0.62384
5282.83340,0.62130
5280.90465,0.61836
5278.97591,0.61476
5277.04716,0.61050
5275.11842,0.60610
5273.18967,0.60233
5271.26092,0.59919
5269.33218,0.59569
5267.40343,0.59161
5265.47469,0.58791
5263.54594,0.58461
5261.61720,0.58107
5259.68845,0.57717
5257.75971,0.57305
5255.83096,0.56919
5253.90222,0.56595
5251.97347,0.56344
5250.04473,0.56165
5248.11598,0.55982
5246.18724,0.55718
5244.25849,0.55441
5242.32975,0.55200
5240.40100,0.54922
5238.47225,0.54614
5236.54351,0.54393
5234.61476,0.54247
5232.68602,0.54031
5230.75727,0.53751
5228.82853,0.53548
5226.89978,0.53437
5224.97104,0.53329
5223.04229,0.53181
5221.11355,0.53037
5219.18480,0.52940
5217.25606,0.52889
5215.32731,0.52847
5213.39857,0.52772
5211.46982,0.52707
5209.54107,0.52686
5207.61233,0.52667
5205.68358,0.52636
5203.75484,0.52613
5201.82609,0.52594
5199.89735,0.52544
5197.96860,0.52432
5196.03986,0.52342
5194.11111,0.52387
5192.18237,0.52499
5190.25362,0.52564
5188.32488,0.52579
5186.39613,0.52598
5184.46739,0.52662
5182.53864,0.52752
5180.60990,0.52818
5178.68115,0.52868
5176.75240,0.52927
5174.82366,0.52964
5172.89491,0.52963
5170.96617,0.52993
5169.03742,0.53122
5167.10868,0.53312
5165.17993,0.53470
5163.25119,0.53562
5161.32244,0.53650
5159.39370,0.53787
5157.46495,0.53891
5155.53621,0.53923
5153.60746,0.54014
5151.67872,0.54182
5149.74997,0.54311
5147.82123,0.54400
5145.89248,0.54507
5143.96373,0.54607
5142.03499,0.54652
5140.10624,0.54695
5138.17750,0.54784
5136.24875,0.54881
5134.32001,0.54978
5132.39126,0.55090
5130.46252,0.55218
5128.53377,0.55396
5126.60503,0.55620
5124.67628,0.55794
5122.74754,0.55849
5120.81879,0.55874
5118.89005,0.55977
5116.96130,0.56128
5115.03255,0.56224
5113.10381,0.56253
5111.17506,0.56280
5109.24632,0.56370
5107.31757,0.56520
5105.38883,0.56658
5103.46008,0.56776
5101.53134,0.56886
5099.60259,0.56953
5097.67385,0.56990
5095.74510,0.57039
5093.81636,0.57148
5091.88761,0.57304
5089.95887,0.57428
5088.03012,0.57526
5086.10138,0.57642
5084.17263,0.57744
5082.24388,0.57795
5080.31514,0.57818
5078.38639,0.57863
5076.45765,0.57956
5074.52890,0.58063
5072.60016,0.58126
5070.67141,0.58174
5068.74267,0.58297
5066.81392,0.58445
5064.88518,0.58525
5062.95643,0.58597
5061.02769,0.58685
5059.09894,0.58750
5057.17020,0.58831
5055.24145,0.58928
5053.31270,0.58978
5051.38396,0.58990
5049.45521,0.59035
5047.52647,0.59120
5045.59772,0.59190
5043.66898,0.59272
5041.74023,0.59407
5039.81149,0.59517
5037.88274,0.59541
5035.95400,0.59572
5034.02525,0.59654
5032.09651,0.59679
5030.16776,0.59665
5028.23902,0.59740
5026.31027,0.59870
5024.38153,0.59960
5022.45278,0.60012
5020.52403,0.60039
5018.59529,0.60055
5016.66654,0.60085
5014.73780,0.60110
5012.80905,0.60101
5010.88031,0.60064
5008.95156,0.60038
5007.02282,0.60048
5005.09407,0.60095
5003.16533,0.60180
5001.23658,0.60253
4999.30784,0.60258
4997.37909,0.60255
4995.45035,0.60278
4993.52160,0.60245
4991.59286,0.60158
4989.66411,0.60095
4987.73536,0.60053
4985.80662,0.59987
4983.87787,0.59926
4981.94913,0.59920
4980.02038,0.59942
4978.09164,0.59943
4976.16289,0.59921
4974.23415,0.59886
4972.30540,0.59801
4970.37666,0.59635
4968.44791,0.59445
4966.51917,0.59306
4964.59042,0.59214
4962.66168,0.59133
4960.73293,0.59066
4958.80418,0.59000
4956.87544,0.58884
4954.94669,0.58736
4953.01795,0.58605
4951.08920,0.58487
4949.16046,0.58375
4947.23171,0.58264
4945.30297,0.58141
4943.37422,0.57979
4941.44548,0.57789
4939.51673,0.57607
4937.58799,0.57437
4935.65924,0.57269
4933.73050,0.57102
4931.80175,0.56942
4929.87301,0.56755
4927.94426,0.56530
4926.01551,0.56319
4924.08677,0.56148
4922.15802,0.56001
4920.22928,0.55851
4918.30053,0.55697
4916.37179,0.55539
4914.44304,0.55358
4912.51430,0.55178
4910.58555,0.55009
4908.65681,0.54806
4906.72806,0.54590
4904.79932,0.54416
4902.87057,0.54272
4900.94183,0.54139
4899.01308,0.54017
4897.08434,0.53878
4895.15559,0.53683
4893.22684,0.53445
4891.29810,0.53221
4889.36935,0.53039
4887.44061,0.52912
4885.51186,0.52816
4883.58312,0.52651
4881.65437,0.52433
4879.72563,0.52255
4877.79688,0.52105
4875.86814,0.51941
4873.93939,0.51776
4872.01065,0.51603
4870.08190,0.51404
4868.15316,0.51228
4866.22441,0.51126
4864.29566,0.51059
4862.36692,0.50960
4860.43817,0.50804
4858.50943,0.50622
4856.58068,0.50451
4854.65194,0.50283
4852.72319,0.50115
4850.79445,0.49983
4848.86570,0.49886
4846.93696,0.49779
4845.00821,0.49654
4843.07947,0.49526
4841.15072,0.49415
4839.22198,0.49342
4837.29323,0.49265
4835.36449,0.49143
4833.43574,0.49021
4831.50699,0.48909
4829.57825,0.48778
4827.64950,0.48644
4825.72076,0.48520
4823.79201,0.48415
4821.86327,0.48312
4819.93452,0.48167
4818.00578,0.48009
4816.07703,0.47913
4814.14829,0.47893
4812.21954,0.47906
4810.29080,0.47895
4808.36205,0.47832
4806.43331,0.47733
4804.50456,0.47632
4802.57582,0.47546
4800.64707,0.47481
4798.71832,0.47440
4796.78958,0.47391
4794.86083,0.47316
4792.93209,0.47261
4791.00334,0.47234
4789.07460,0.47190
4787.14585,0.47123
4785.21711,0.47084
4783.28836,0.47093
4781.35962,0.47121
4779.43087,0.47154
4777.50213,0.47183
4775.57338,0.47156
4773.64464,0.47068
4771.71589,0.46992
4769.78714,0.46959
4767.85840,0.46936
4765.92965,0.46928
4764.00091,0.46932
4762.07216,0.46884
4760.14342,0.46789
4758.21467,0.46732
4756.28593,0.46737
4754.35718,0.46773
4752.42844,0.46806
4750.49969,0.46815
4748.57095,0.46815
4746.64220,0.46825
4744.71346,0.46815
4742.78471,0.46773
4740.85597,0.46752
4738.92722,0.46787
4736.99847,0.46855
4735.06973,0.46915
4733.14098,0.46943
4731.21224,0.46927
4729.28349,0.46895
4727.35475,0.46890
4725.42600,0.46939
4723.49726,0.47029
4721.56851,0.47078
4719.63977,0.47052
4717.71102,0.47033
4715.78228,0.47061
4713.85353,0.47100
4711.92479,0.47165
4709.99604,0.47248
4708.06729,0.47252
4706.13855,0.47179
4704.20980,0.47165
4702.28106,0.47247
4700.35231,0.47346
4698.42357,0.47389
4696.49482,0.47382
4694.56608,0.47391
4692.63733,0.47447
4690.70859,0.47517
4688.77984,0.47556
4686.85110,0.47586
4684.92235,0.47663
4682.99361,0.47772
4681.06486,0.47860
4679.13612,0.47919
4677.20737,0.47985
4675.27862,0.48068
4673.34988,0.48158
4671.42113,0.48275
4669.49239,0.48403
4667.56364,0.48490
4665.63490,0.48546
4663.70615,0.48608
4661.77741,0.48682
4659.84866,0.48775
4657.91992,0.48858
4655.99117,0.48889
4654.06243,0.48922
4652.13368,0.49027
4650.20494,0.49156
4648.27619,0.49249
4646.34745,0.49334
4644.41870,0.49442
4642.48995,0.49558
4640.56121,0.49648
4638.63246,0.49694
4636.70372,0.49742
4634.77497,0.49832
4632.84623,0.49940
4630.91748,0.50019
4628.98874,0.50054
4627.05999,0.50095
4625.13125,0.50187
4623.20250,0.50299
4621.27376,0.50388
4619.34501,0.50434
4617.41627,0.50471
4615.48752,0.50549
4613.55877,0.50643
4611.63003,0.50706
4609.70128,0.50755
4607.77254,0.50819
4605.84379,0.50918
4603.91505,0.51046
4601.98630,0.51148
4600.05756,0.51174
4598.12881,0.51196
4596.20007,0.51280
4594.27132,0.51370
4592.34258,0.51427
4590.41383,0.51462
4588.48509,0.51489
4586.55634,0.51546
4584.62760,0.51651
4582.69885,0.51749
4580.77010,0.51795
4578.84136,0.51820
4576.91261,0.51880
4574.98387,0.51959
4573.05512,0.52014
4571.12638,0.52058
4569.19763,0.52112
4567.26889,0.52147
4565.34014,0.52151
4563.41140,0.52168
4561.48265,0.52217
4559.55391,0.52273
4557.62516,0.52331
4555.69642,0.52375
4553.76767,0.52369
4551.83893,0.52351
4549.91018,0.52399
4547.98143,0.52496
4546.05269,0.52560
4544.12394,0.52570
4542.19520,0.52581
4540.26645,0.52617
4538.33771,0.52644
4536.40896,0.52645
4534.48022,0.52644
4532.55147,0.52678
4530.62273,0.52748
4528.69398,0.52807
4526.76524,0.52815
4524.83649,0.52794
4522.90775,0.52799
4520.97900,0.52833
4519.05025,0.52847
4517.12151,0.52828
4515.19276,0.52795
4513.26402,0.52748
4511.33527,0.52692
4509.40653,0.52629
4507.47778,0.52553
4505.54904,0.52458
4503.62029,0.52366
4501.69155,0.52297
4499.76280,0.52221
4497.83406,0.52088
4495.90531,0.51919
4493.97657,0.51784
4492.04782,0.51675
4490.11908,0.51530
4488.19033,0.51362
4486.26158,0.51198
4484.33284,0.51015
4482.40409,0.50806
4480.47535,0.50583
4478.54660,0.50337
4476.61786,0.50102
4474.68911,0.49895
4472.76037,0.49672
4470.83162,0.49424
4468.90288,0.49173
4466.97413,0.48898
4465.04539,0.48574
4463.11664,0.48225
4461.18790,0.47893
4459.25915,0.47604
4457.33041,0.47352
4455.40166,0.47089
4453.47291,0.46763
4451.54417,0.46397
4449.61542,0.46070
4447.68668,0.45798
4445.75793,0.45533
4443.82919,0.45268
4441.90044,0.44992
4439.97170,0.44698
4438.04295,0.44434
4436.11421,0.44204
4434.18546,0.43994
4432.25672,0.43819
4430.32797,0.43639
4428.39923,0.43420
4426.47048,0.43208
4424.54173,0.43012
4422.61299,0.42793
4420.68424,0.42591
4418.75550,0.42459
4416.82675,0.42347
4414.89801,0.42215
4412.96926,0.42106
4411.04052,0.42040
4409.11177,0.41989
4407.18303,0.41942
4405.25428,0.41897
4403.32554,0.41852
4401.39679,0.41799
4399.46805,0.41743
4397.53930,0.41703
4395.61056,0.41699
4393.68181,0.41737
4391.75306,0.41810
4389.82432,0.41901
4387.89557,0.41966
4385.96683,0.41986
4384.03808,0.42011
4382.10934,0.42068
4380.18059,0.42125
4378.25185,0.42183
4376.32310,0.42255
4374.39436,0.42324
4372.46561,0.42380
4370.53687,0.42443
4368.60812,0.42518
4366.67938,0.42575
4364.75063,0.42615
4362.82189,0.42653
4360.89314,0.42659
4358.96439,0.42610
4357.03565,0.42550
4355.10690,0.42530
4353.17816,0.42511
4351.24941,0.42433
4349.32067,0.42337
4347.39192,0.42272
4345.46318,0.42224
4343.53443,0.42167
4341.60569,0.42100
4339.67694,0.42028
4337.74820,0.41960
4335.81945,0.41914
4333.89071,0.41873
4331.96196,0.41808
4330.03321,0.41737
4328.10447,0.41689
4326.17572,0.41662
4324.24698,0.41642
4322.31823,0.41613
4320.38949,0.41581
4318.46074,0.41545
4316.53200,0.41491
4314.60325,0.41423
4312.67451,0.41362
4310.74576,0.41321
4308.81702,0.41284
4306.88827,0.41221
4304.95953,0.41133
4303.03078,0.41027
4301.10204,0.40925
4299.17329,0.40875
4297.24454,0.40875
4295.31580,0.40866
4293.38705,0.40808
4291.45831,0.40711
4289.52956,0.40632
4287.60082,0.40593
4285.67207,0.40539
4283.74333,0.40436
4281.81458,0.40360
4279.88584,0.40368
4277.95709,0.40389
4276.02835,0.40388
4274.09960,0.40405
4272.17086,0.40427
4270.24211,0.40418
4268.31336,0.40410
4266.38462,0.40450
4264.45587,0.40502
4262.52713,0.40529
4260.59838,0.40562
4258.66964,0.40591
4256.74089,0.40604
4254.81215,0.40646
4252.88340,0.40715
4250.95466,0.40760
4249.02591,0.40780
4247.09717,0.40817
4245.16842,0.40869
4243.23968,0.40913
4241.31093,0.40955
4239.38219,0.41013
4237.45344,0.41071
4235.52469,0.41106
4233.59595,0.41125
4231.66720,0.41131
4229.73846,0.41138
4227.80971,0.41175
4225.88097,0.41224
4223.95222,0.41238
4222.02348,0.41224
4220.09473,0.41232
4218.16599,0.41281
4216.23724,0.41332
4214.30850,0.41357
4212.37975,0.41376
4210.45101,0.41403
4208.52226,0.41428
4206.59352,0.41434
4204.66477,0.41445
4202.73602,0.41498
4200.80728,0.41563
4198.87853,0.41602
4196.94979,0.41622
4195.02104,0.41633
4193.09230,0.41644
4191.16355,0.41673
4189.23481,0.41708
4187.30606,0.41733
4185.37732,0.41754
4183.44857,0.41802
4181.51983,0.41877
4179.59108,0.41936
4177.66234,0.41951
4175.73359,0.41952
4173.80484,0.41997
4171.87610,0.42081
4169.94735,0.42141
4168.01861,0.42176
4166.08986,0.42209
4164.16112,0.42249
4162.23237,0.42292
4160.30363,0.42315
4158.37488,0.42289
4156.44614,0.42226
4154.51739,0.42165
4152.58865,0.42129
4150.65990,0.42108
4148.73116,0.42083
4146.80241,0.42030
4144.87367,0.41953
4142.94492,0.41886
4141.01617,0.41827
4139.08743,0.41740
4137.15868,0.41641
4135.22994,0.41563
4133.30119,0.41473
4131.37245,0.41358
4129.44370,0.41253
4127.51496,0.41160
4125.58621,0.41044
4123.65747,0.40903
4121.72872,0.40767
4119.79998,0.40657
4117.87123,0.40559
4115.94249,0.40440
4114.01374,0.40288
4112.08500,0.40128
4110.15625,0.39982
4108.22750,0.39846
4106.29876,0.39708
4104.37001,0.39561
4102.44127,0.39413
4100.51252,0.39270
4098.58378,0.39107
4096.65503,0.38912
4094.72629,0.38717
4092.79754,0.38551
4090.86880,0.38403
4088.94005,0.38255
4087.01131,0.38091
4085.08256,0.37894
4083.15382,0.37662
4081.22507,0.37422
4079.29632,0.37207
4077.36758,0.37046
4075.43883,0.36916
4073.51009,0.36750
4071.58134,0.36544
4069.65260,0.36352
4067.72385,0.36186
4065.79511,0.36028
4063.86636,0.35861
4061.93762,0.35693
4060.00887,0.35524
4058.08013,0.35330
4056.15138,0.35138
4054.22264,0.34974
4052.29389,0.34817
4050.36515,0.34650
4048.43640,0.34476
4046.50765,0.34316
4044.57891,0.34184
4042.65016,0.34063
4040.72142,0.33937
4038.79267,0.33791
4036.86393,0.33640
4034.93518,0.33517
4033.00644,0.33434
4031.07769,0.33363
4029.14895,0.33261
4027.22020,0.33157
4025.29146,0.33096
4023.36271,0.33069
4021.43397,0.33041
4019.50522,0.33008
4017.57648,0.32988
4015.64773,0.32976
4013.71898,0.32973
4011.79024,0.32998
4009.86149,0.33030
4007.93275,0.33052
4006.00400,0.33103
4004.07526,0.33194
4002.14651,0.33263
4000.21777,0.33268
3998.28902,0.33255
3996.36028,0.33283
3994.43153,0.33364
3992.50279,0.33489
3990.57404,0.33606
3988.64530,0.33666
3986.71655,0.33692
3984.78780,0.33722
3982.85906,0.33761
3980.93031,0.33811
3979.00157,0.33857
3977.07282,0.33901
3975.14408,0.33956
3973.21533,0.34023
3971.28659,0.34113
3969.35784,0.34228
3967.42910,0.34338
3965.50035,0.34426
3963.57161,0.34506
3961.64286,0.34598
3959.71412,0.34705
3957.78537,0.34808
3955.85663,0.34901
3953.92788,0.34997
3951.99913,0.35089
3950.07039,0.35181
3948.14164,0.35302
3946.21290,0.35443
3944.28415,0.35541
3942.35541,0.35594
3940.42666,0.35678
3938.49792,0.35812
3936.56917,0.35939
3934.64043,0.36028
3932.71168,0.36096
3930.78294,0.36178
3928.85419,0.36303
3926.92545,0.36444
3924.99670,0.36553
3923.06795,0.36629
3921.13921,0.36687
3919.21046,0.36744
3917.28172,0.36823
3915.35297,0.36914
3913.42423,0.37004
3911.49548,0.37115
3909.56674,0.37232
3907.63799,0.37325
3905.70925,0.37410
3903.78050,0.37509
3901.85176,0.37595
3899.92301,0.37660
3897.99427,0.37714
3896.06552,0.37787
3894.13678,0.37895
3892.20803,0.38006
3890.27928,0.38091
3888.35054,0.38154
3886.42179,0.38205
3884.49305,0.38255
3882.56430,0.38311
3880.63556,0.38395
3878.70681,0.38504
3876.77807,0.38588
3874.84932,0.38659
3872.92058,0.38749
3870.99183,0.38850
3869.06309,0.38945
3867.13434,0.39045
3865.20560,0.39171
3863.27685,0.39306
3861.34811,0.39424
3859.41936,0.39504
3857.49061,0.39547
3855.56187,0.39619
3853.63312,0.39769
3851.70438,0.39912
3849.77563,0.39988
3847.84689,0.40048
3845.91814,0.40136
3843.98940,0.40271
3842.06065,0.40403
3840.13191,0.40470
3838.20316,0.40502
3836.27442,0.40537
3834.34567,0.40575
3832.41693,0.40623
3830.48818,0.40660
3828.55943,0.40678
3826.63069,0.40701
3824.70194,0.40738
3822.77320,0.40789
3820.84445,0.40827
3818.91571,0.40824
3816.98696,0.40807
3815.05822,0.40804
3813.12947,0.40808
3811.20073,0.40806
3809.27198,0.40811
3807.34324,0.40840
3805.41449,0.40863
3803.48575,0.40846
3801.55700,0.40811
3799.62826,0.40800
3797.69951,0.40806
3795.77076,0.40805
3793.84202,0.40782
3791.91327,0.40733
3789.98453,0.40691
3788.05578,0.40685
3786.12704,0.40681
3784.19829,0.40650
3782.26955,0.40613
3780.34080,0.40586
3778.41206,0.40553
3776.48331,0.40505
3774.55457,0.40460
3772.62582,0.40429
3770.69708,0.40419
3768.76833,0.40400
3766.83959,0.40339
3764.91084,0.40263
3762.98209,0.40207
3761.05335,0.40138
3759.12460,0.40031
3757.19586,0.39929
3755.26711,0.39866
3753.33837,0.39821
3751.40962,0.39758
3749.48088,0.39660
3747.55213,0.39537
3745.62339,0.39415
3743.69464,0.39347
3741.76590,0.39301
3739.83715,0.39212
3737.90841,0.39083
3735.97966,0.38924
3734.05091,0.38760
3732.12217,0.38633
3730.19342,0.38518
3728.26468,0.38368
3726.33593,0.38204
3724.40719,0.38054
3722.47844,0.37875
3720.54970,0.37654
3718.62095,0.37434
3716.69221,0.37227
3714.76346,0.37002
3712.83472,0.36742
3710.90597,0.36465
3708.97723,0.36192
3707.04848,0.35920
3705.11974,0.35632
3703.19099,0.35301
3701.26224,0.34925
3699.33350,0.34531
3697.40475,0.34114
3695.47601,0.33660
3693.54726,0.33202
3691.61852,0.32746
3689.68977,0.32230
3687.76103,0.31632
3685.83228,0.31031
3683.90354,0.30449
3681.97479,0.29844
3680.04605,0.29213
3678.11730,0.28583
3676.18856,0.27899
3674.25981,0.27163
3672.33107,0.26487
3670.40232,0.25802
3668.47357,0.25091
3666.54483,0.24463
3664.61608,0.23861
3662.68734,0.23218
3660.75859,0.22565
3658.82985,0.21936
3656.90110,0.21313
3654.97236,0.20712
3653.04361,0.20195
3651.11487,0.19709
3649.18612,0.19181
3647.25738,0.18652
3645.32863,0.18163
3643.39989,0.17692
3641.47114,0.17244
3639.54239,0.16838
3637.61365,0.16447
3635.68490,0.16032
3633.75616,0.15626
3631.82741,0.15261
3629.89867,0.14880
3627.96992,0.14454
3626.04118,0.14062
3624.11243,0.13730
3622.18369,0.13436
3620.25494,0.13132
3618.32620,0.12794
3616.39745,0.12467
3614.46871,0.12155
3612.53996,0.11852
3610.61122,0.11578
3608.68247,0.11302
3606.75372,0.11013
3604.82498,0.10759
3602.89623,0.10534
3600.96749,0.10288
3599.03874,0.10024
3597.11000,0.09774
3595.18125,0.09551
3593.25251,0.09346
3591.32376,0.09134
3589.39502,0.08923
3587.46627,0.08732
3585.53753,0.08558
3583.60878,0.08368
3581.68004,0.08162
3579.75129,0.07981
3577.82254,0.07825
3575.89380,0.07663
3573.96505,0.07504
3572.03631,0.07362
3570.10756,0.07228
3568.17882,0.07097
3566.25007,0.06967
3564.32133,0.06848
3562.39258,0.06745
3560.46384,0.06634
3558.53509,0.06490
3556.60635,0.06338
3554.67760,0.06231
3552.74886,0.06161
3550.82011,0.06081
3548.89137,0.05975
3546.96262,0.05864
3545.03387,0.05771
3543.10513,0.05704
3541.17638,0.05652
3539.24764,0.05586
3537.31889,0.05502
3535.39015,0.05415
3533.46140,0.05335
3531.53266,0.05281
3529.60391,0.05255
3527.67517,0.05216
3525.74642,0.05142
3523.81768,0.05068
3521.88893,0.05007
3519.96019,0.04940
3518.03144,0.04860
3516.10270,0.04768
3514.17395,0.04689
3512.24520,0.04654
3510.31646,0.04653
3508.38771,0.04638
3506.45897,0.04589
3504.53022,0.04533
3502.60148,0.04499
3500.67273,0.04468
3498.74399,0.04409
3496.81524,0.04344
3494.88650,0.04313
3492.95775,0.04289
3491.02901,0.04252
3489.10026,0.04225
3487.17152,0.04181
3485.24277,0.04107
3483.31402,0.04069
3481.38528,0.04079
3479.45653,0.04069
3477.52779,0.04019
3475.59904,0.03987
3473.67030,0.03995
3471.74155,0.04004
3469.81281,0.03991
3467.88406,0.03971
3465.95532,0.03957
3464.02657,0.03937
3462.09783,0.03915
3460.16908,0.03903
3458.24034,0.03885
3456.31159,0.03860
3454.38285,0.03854
3452.45410,0.03864
3450.52535,0.03857
3448.59661,0.03837
3446.66786,0.03811
3444.73912,0.03789
3442.81037,0.03797
3440.88163,0.03813
3438.95288,0.03804
3437.02414,0.03784
3435.09539,0.03767
3433.16665,0.03750
3431.23790,0.03733
3429.30916,0.03714
3427.38041,0.03707
3425.45167,0.03729
3423.52292,0.03762
3421.59418,0.03794
3419.66543,0.03792
3417.73668,0.03737
3415.80794,0.03683
3413.87919,0.03679
3411.95045,0.03709
3410.02170,0.03730
3408.09296,0.03724
3406.16421,0.03711
3404.23547,0.03703
3402.30672,0.03701
3400.37798,0.03703
3398.44923,0.03711
3396.52049,0.03733
3394.59174,0.03755
3392.66300,0.03743
3390.73425,0.03707
3388.80550,0.03693
3386.87676,0.03723
3384.94801,0.03780
3383.01927,0.03816
3381.09052,0.03803
3379.16178,0.03760
3377.23303,0.03720
3375.30429,0.03701
3373.37554,0.03707
3371.44680,0.03732
3369.51805,0.03759
3367.58931,0.03776
3365.66056,0.03779
3363.73182,0.03772
3361.80307,0.03771
3359.87433,0.03784
3357.94558,0.03812
3356.01683,0.03828
3354.08809,0.03800
3352.15934,0.03762
3350.23060,0.03773
3348.30185,0.03807
3346.37311,0.03829
3344.44436,0.03862
3342.51562,0.03903
3340.58687,0.03937
3338.65813,0.03958
3336.72938,0.03950
3334.80064,0.03910
3332.87189,0.03884
3330.94315,0.03908
3329.01440,0.03964
3327.08566,0.04025
3325.15691,0.04077
3323.22816,0.04107
3321.29942,0.04100
3319.37067,0.04076
3317.44193,0.04102
3315.51318,0.04180
3313.58444,0.04231
3311.65569,0.04233
3309.72695,0.04239
3307.79820,0.04265
3305.86946,0.04271
3303.94071,0.04248
3302.01197,0.04231
3300.08322,0.04242
3298.15448,0.04297
3296.22573,0.04366
3294.29698,0.04398
3292.36824,0.04420
3290.43949,0.04449
3288.51075,0.04448
3286.58200,0.04457
3284.65326,0.04509
3282.72451,0.04548
3280.79577,0.04571
3278.86702,0.04614
3276.93828,0.04654
3275.00953,0.04682
3273.08079,0.04739
3271.15204,0.04819
3269.22330,0.04882
3267.29455,0.04917
3265.36581,0.04940
3263.43706,0.04998
3261.50831,0.05086
3259.57957,0.05168
3257.65082,0.05235
3255.72208,0.05272
3253.79333,0.05283
3251.86459,0.05315
3249.93584,0.05367
3248.00710,0.05421
3246.07835,0.05505
3244.14961,0.05606
3242.22086,0.05668
3240.29212,0.05702
3238.36337,0.05740
3236.43463,0.05780
3234.50588,0.05836
3232.57713,0.05914
3230.64839,0.05979
3228.71964,0.06024
3226.79090,0.06084
3224.86215,0.06145
3222.93341,0.06181
3221.00466,0.06225
3219.07592,0.06287
3217.14717,0.06357
3215.21843,0.06430
3213.28968,0.06502
3211.36094,0.06584
3209.43219,0.06686
3207.50345,0.06795
3205.57470,0.06895
3203.64596,0.06964
3201.71721,0.06993
3199.78846,0.07022
3197.85972,0.07101
3195.93097,0.07211
3194.00223,0.07306
3192.07348,0.07385
3190.14474,0.07448
3188.21599,0.07481
3186.28725,0.07511
3184.35850,0.07590
3182.42976,0.07716
3180.50101,0.07829
3178.57227,0.07893
3176.64352,0.07942
3174.71478,0.08020
3172.78603,0.08110
3170.85729,0.08166
3168.92854,0.08190
3166.99979,0.08233
3165.07105,0.08328
3163.14230,0.08452
3161.21356,0.08561
3159.28481,0.08647
3157.35607,0.08731
3155.42732,0.08826
3153.49858,0.08928
3151.56983,0.09016
3149.64109,0.09083
3147.71234,0.09142
3145.78360,0.09205
3143.85485,0.09267
3141.92611,0.09319
3139.99736,0.09382
3138.06861,0.09476
3136.13987,0.09597
3134.21112,0.09724
3132.28238,0.09819
3130.35363,0.09860
3128.42489,0.09897
3126.49614,0.09982
3124.56740,0.10080
3122.63865,0.10145
3120.70991,0.10198
3118.78116,0.10260
3116.85242,0.10335
3114.92367,0.10441
3112.99493,0.10554
3111.06618,0.10625
3109.13744,0.10661
3107.20869,0.10724
3105.27994,0.10832
3103.35120,0.10946
3101.42245,0.11037
3099.49371,0.11108
3097.56496,0.11186
3095.63622,0.11273
3093.70747,0.11326
3091.77873,0.11349
3089.84998,0.11395
3087.92124,0.11453
3085.99249,0.11497
3084.06375,0.11546
3082.13500,0.11615
3080.20626,0.11700
3078.27751,0.11790
3076.34877,0.11871
3074.42002,0.11943
3072.49127,0.12005
3070.56253,0.12074
3068.63378,0.12152
3066.70504,0.12221
3064.77629,0.12279
3062.84755,0.12331
3060.91880,0.12364
3058.99006,0.12397
3057.06131,0.12463
3055.13257,0.12551
3053.20382,0.12635
3051.27508,0.12703
3049.34633,0.12741
3047.41759,0.12754
3045.48884,0.12778
3043.56009,0.12821
3041.63135,0.12853
3039.70260,0.12853
3037.77386,0.12847
3035.84511,0.12871
3033.91637,0.12906
3031.98762,0.12900
3030.05888,0.12843
3028.13013,0.12776
3026.20139,0.12718
3024.27264,0.12652
3022.34390,0.12582
3020.41515,0.12515
3018.48641,0.12425
3016.55766,0.12303
3014.62892,0.12173
3012.70017,0.12054
3010.77142,0.11929
3008.84268,0.11788
3006.91393,0.11646
3004.98519,0.11513
3003.05644,0.11389
3001.12770,0.11287
2999.19895,0.11206
2997.27021,0.11132
2995.34146,0.11058
2993.41272,0.10954
2991.48397,0.10811
2989.55523,0.10654
2987.62648,0.10477
2985.69774,0.10272
2983.76899,0.10062
2981.84025,0.09839
2979.91150,0.09579
2977.98275,0.09292
2976.05401,0.09008
2974.12526,0.08736
2972.19652,0.08475
2970.26777,0.08243
2968.33903,0.08051
2966.41028,0.07889
2964.48154,0.07751
2962.55279,0.07640
2960.62405,0.07527
2958.69530,0.07396
2956.76656,0.07270
2954.83781,0.07158
2952.90907,0.07053
2950.98032,0.06947
2949.05157,0.06829
2947.12283,0.06716
2945.19408,0.06618
2943.26534,0.06511
2941.33659,0.06408
2939.40785,0.06352
2937.47910,0.06313
2935.55036,0.06265
2933.62161,0.06237
2931.69287,0.06241
2929.76412,0.06253
2927.83538,0.06243
2925.90663,0.06198
2923.97789,0.06154
2922.04914,0.06154
2920.12040,0.06188
2918.19165,0.06234
2916.26290,0.06283
2914.33416,0.06325
2912.40541,0.06360
2910.47667,0.06390
2908.54792,0.06415
2906.61918,0.06432
2904.69043,0.06441
2902.76169,0.06459
2900.83294,0.06499
2898.90420,0.06551
2896.97545,0.06606
2895.04671,0.06668
2893.11796,0.06739
2891.18922,0.06809
2889.26047,0.06879
2887.33172,0.06947
2885.40298,0.07009
2883.47423,0.07081
2881.54549,0.07154
2879.61674,0.07196
2877.68800,0.07209
2875.75925,0.07228
2873.83051,0.07249
2871.90176,0.07267
2869.97302,0.07305
2868.04427,0.07367
2866.11553,0.07436
2864.18678,0.07492
2862.25804,0.07518
2860.32929,0.07522
2858.40055,0.07530
2856.47180,0.07560
2854.54305,0.07626
2852.61431,0.07744
2850.68556,0.07913
2848.75682,0.08115
2846.82807,0.08337
2844.89933,0.08581
2842.97058,0.08846
2841.04184,0.09111
2839.11309,0.09360
2837.18435,0.09607
2835.25560,0.09889
2833.32686,0.10205
2831.39811,0.10523
2829.46937,0.10824
2827.54062,0.11102
2825.61188,0.11360
2823.68313,0.11607
2821.75438,0.11853
2819.82564,0.12109
2817.89689,0.12359
2815.96815,0.12566
2814.03940,0.12739
2812.11066,0.12916
2810.18191,0.13105
2808.25317,0.13289
2806.32442,0.13455
2804.39568,0.13596
2802.46693,0.13713
2800.53819,0.13814
2798.60944,0.13910
2796.68070,0.14023
2794.75195,0.14162
2792.82320,0.14304
2790.89446,0.14414
2788.96571,0.14472
2787.03697,0.14518
2785.10822,0.14583
2783.17948,0.14654
2781.25073,0.14727
2779.32199,0.14795
2777.39324,0.14857
2775.46450,0.14916
2773.53575,0.14957
2771.60701,0.14988
2769.67826,0.15033
2767.74952,0.15085
2765.82077,0.15137
2763.89203,0.15191
2761.96328,0.15232
2760.03453,0.15251
2758.10579,0.15273
2756.17704,0.15301
2754.24830,0.15326
2752.31955,0.15358
2750.39081,0.15391
2748.46206,0.15410
2746.53332,0.15421
2744.60457,0.15430
2742.67583,0.15437
2740.74708,0.15445
2738.81834,0.15444
2736.88959,0.15449
2734.96085,0.15481
2733.03210,0.15524
2731.10336,0.15559
2729.17461,0.15595
2727.24586,0.15643
2725.31712,0.15705
2723.38837,0.15777
2721.45963,0.15840
2719.53088,0.15899
2717.60214,0.15991
2715.67339,0.16103
2713.74465,0.16185
2711.81590,0.16241
2709.88716,0.16306
2707.95841,0.16397
2706.02967,0.16506
2704.10092,0.16614
2702.17218,0.16717
2700.24343,0.16814
2698.31468,0.16896
2696.38594,0.16967
2694.45719,0.17038
2692.52845,0.17116
2690.59970,0.17193
2688.67096,0.17253
2686.74221,0.17313
2684.81347,0.17389
2682.88472,0.17477
2680.95598,0.17552
2679.02723,0.17612
2677.09849,0.17681
2675.16974,0.17765
2673.24100,0.17848
2671.31225,0.17918
2669.38351,0.17972
2667.45476,0.18017
2665.52601,0.18057
2663.59727,0.18098
2661.66852,0.18136
2659.73978,0.18176
2657.81103,0.18224
2655.88229,0.18273
2653.95354,0.18317
2652.02480,0.18361
2650.09605,0.18411
2648.16731,0.18462
2646.23856,0.18515
2644.30982,0.18581
2642.38107,0.18659
2640.45233,0.18739
2638.52358,0.18822
2636.59484,0.18904
2634.66609,0.18991
2632.73734,0.19080
2630.80860,0.19165
2628.87985,0.19253
2626.95111,0.19314
2625.02236,0.19342
2623.09362,0.19384
2621.16487,0.19463
2619.23613,0.19553
2617.30738,0.19628
2615.37864,0.19689
2613.44989,0.19752
2611.52115,0.19819
2609.59240,0.19884
2607.66366,0.19942
2605.73491,0.19994
2603.80616,0.20047
2601.87742,0.20102
2599.94867,0.20154
2598.01993,0.20205
2596.09118,0.20256
2594.16244,0.20302
2592.23369,0.20355
2590.30495,0.20422
2588.37620,0.20474
2586.44746,0.20493
2584.51871,0.20504
2582.58997,0.20535
2580.66122,0.20593
2578.73248,0.20650
2576.80373,0.20683
2574.87499,0.20699
2572.94624,0.20715
2571.01749,0.20740
2569.08875,0.20765
2567.16000,0.20773
2565.23126,0.20773
2563.30251,0.20779
2561.37377,0.20795
2559.44502,0.20818
2557.51628,0.20836
2555.58753,0.20850
2553.65879,0.20876
2551.73004,0.20908
2549.80130,0.20938
2547.87255,0.20961
2545.94381,0.20965
2544.01506,0.20961
2542.08631,0.20982
2540.15757,0.21033
2538.22882,0.21081
2536.30008,0.21121
2534.37133,0.21168
2532.44259,0.21214
2530.51384,0.21253
2528.58510,0.21304
2526.65635,0.21367
2524.72761,0.21423
2522.79886,0.21460
2520.87012,0.21496
2518.94137,0.21536
2517.01263,0.21567
2515.08388,0.21593
2513.15514,0.21639
2511.22639,0.21705
2509.29764,0.21779
2507.36890,0.21880
2505.44015,0.22011
2503.51141,0.22119
2501.58266,0.22185
2499.65392,0.22251
2497.72517,0.22336
2495.79643,0.22418
2493.86768,0.22483
2491.93894,0.22562
2490.01019,0.22669
2488.08145,0.22774
2486.15270,0.22856
2484.22396,0.22926
2482.29521,0.23000
2480.36647,0.23080
2478.43772,0.23143
2476.50897,0.23187
2474.58023,0.23246
2472.65148,0.23330
2470.72274,0.23405
2468.79399,0.23453
2466.86525,0.23494
2464.93650,0.23544
2463.00776,0.23593
2461.07901,0.23647
2459.15027,0.23723
2457.22152,0.23802
2455.29278,0.23869
2453.36403,0.23934
2451.43529,0.23996
2449.50654,0.24059
2447.57779,0.24144
2445.64905,0.24250
2443.72030,0.24363
2441.79156,0.24469
2439.86281,0.24559
2437.93407,0.24651
2436.00532,0.24756
2434.07658,0.24848
2432.14783,0.24913
2430.21909,0.24972
2428.29034,0.25055
2426.36160,0.25161
2424.43285,0.25275
2422.50411,0.25385
2420.57536,0.25489
2418.64662,0.25597
2416.71787,0.25717
2414.78912,0.25831
2412.86038,0.25926
2410.93163,0.26025
2409.00289,0.26136
2407.07414,0.26246
2405.14540,0.26362
2403.21665,0.26483
2401.28791,0.26586
2399.35916,0.26670
2397.43042,0.26760
2395.50167,0.26854
2393.57293,0.26936
2391.64418,0.27008
2389.71544,0.27076
2387.78669,0.27145
2385.85795,0.27220
2383.92920,0.27301
2382.00045,0.27383
2380.07171,0.27460
2378.14296,0.27524
2376.21422,0.27584
2374.28547,0.27654
2372.35673,0.27738
2370.42798,0.27827
2368.49924,0.27902
2366.57049,0.27961
2364.64175,0.28020
2362.71300,0.28078
2360.78426,0.28138
2358.85551,0.28211
2356.92677,0.28290
2354.99802,0.28365
2353.06927,0.28435
2351.14053,0.28498
2349.21178,0.28571
2347.28304,0.28662
2345.35429,0.28745
2343.42555,0.28810
2341.49680,0.28859
2339.56806,0.28891
2337.63931,0.28935
2335.71057,0.29006
2333.78182,0.29060
2331.85308,0.29087
2329.92433,0.29110
2327.99559,0.29136
2326.06684,0.29164
2324.13810,0.29196
2322.20935,0.29221
2320.28060,0.29241
2318.35186,0.29266
2316.42311,0.29294
2314.49437,0.29303
2312.56562,0.29295
2310.63688,0.29286
2308.70813,0.29272
2306.77939,0.29249
2304.85064,0.29224
2302.92190,0.29194
2300.99315,0.29162
2299.06441,0.29133
2297.13566,0.29094
2295.20692,0.29056
2293.27817,0.29047
2291.34943,0.29056
2289.42068,0.29060
2287.49193,0.29052
2285.56319,0.29042
2283.63444,0.29039
2281.70570,0.29029
2279.77695,0.29007
2277.84821,0.28986
2275.91946,0.28952
2273.99072,0.28898
2272.06197,0.28840
2270.13323,0.28779
2268.20448,0.28699
2266.27574,0.28607
2264.34699,0.28524
2262.41825,0.28451
2260.48950,0.28369
2258.56075,0.28283
2256.63201,0.28209
2254.70326,0.28136
2252.77452,0.28068
2250.84577,0.28019
2248.91703,0.27980
2246.98828,0.27942
2245.05954,0.27904
2243.13079,0.27868
2241.20205,0.27839
2239.27330,0.27823
2237.34456,0.27828
2235.41581,0.27853
2233.48707,0.27869
2231.55832,0.27863
2229.62958,0.27868
2227.70083,0.27889
2225.77208,0.27905
2223.84334,0.27919
2221.91459,0.27935
2219.98585,0.27949
2218.05710,0.27962
2216.12836,0.27978
2214.19961,0.27987
2212.27087,0.27986
2210.34212,0.27978
2208.41338,0.27948
2206.48463,0.27906
2204.55589,0.27861
2202.62714,0.27789
2200.69840,0.27703
2198.76965,0.27638
2196.84090,0.27588
2194.91216,0.27522
2192.98341,0.27421
2191.05467,0.27293
2189.12592,0.27157
2187.19718,0.27010
2185.26843,0.26845
2183.33969,0.26681
2181.41094,0.26536
2179.48220,0.26398
2177.55345,0.26241
2175.62471,0.26065
2173.69596,0.25898
2171.76722,0.25754
2169.83847,0.25615
2167.90973,0.25467
2165.98098,0.25325
2164.05223,0.25203
2162.12349,0.25092
2160.19474,0.24986
2158.26600,0.24890
2156.33725,0.24794
2154.40851,0.24697
2152.47976,0.24616
2150.55102,0.24557
2148.62227,0.24506
2146.69353,0.24457
2144.76478,0.24426
2142.83604,0.24404
2140.90729,0.24370
2138.97855,0.24325
2137.04980,0.24291
2135.12106,0.24283
2133.19231,0.24293
2131.26356,0.24304
2129.33482,0.24312
2127.40607,0.24322
2125.47733,0.24345
2123.54858,0.24386
2121.61984,0.24434
2119.69109,0.24484
2117.76235,0.24535
2115.83360,0.24586
2113.90486,0.24636
2111.97611,0.24686
2110.04737,0.24737
2108.11862,0.24790
2106.18988,0.24845
2104.26113,0.24903
2102.33238,0.24980
2100.40364,0.25066
2098.47489,0.25130
2096.54615,0.25181
2094.61740,0.25232
2092.68866,0.25273
2090.75991,0.25310
2088.83117,0.25353
2086.90242,0.25390
2084.97368,0.25397
2083.04493,0.25383
2081.11619,0.25389
2079.18744,0.25421
2077.25870,0.25440
2075.32995,0.25436
2073.40121,0.25422
2071.47246,0.25401
2069.54371,0.25390
2067.61497,0.25389
2065.68622,0.25378
2063.75748,0.25359
2061.82873,0.25349
2059.89999,0.25357
2057.97124,0.25382
2056.04250,0.25408
2054.11375,0.25425
2052.18501,0.25441
2050.25626,0.25459
2048.32752,0.25474
2046.39877,0.25503
2044.47003,0.25552
2042.54128,0.25607
2040.61254,0.25654
2038.68379,0.25694
2036.75504,0.25757
2034.82630,0.25853
2032.89755,0.25957
2030.96881,0.26053
2029.04006,0.26154
2027.11132,0.26266
2025.18257,0.26381
2023.25383,0.26490
2021.32508,0.26598
2019.39634,0.26713
2017.46759,0.26831
2015.53885,0.26953
2013.61010,0.27088
2011.68136,0.27222
2009.75261,0.27335
2007.82386,0.27434
2005.89512,0.27530
2003.96637,0.27618
2002.03763,0.27700
2000.10888,0.27783
1998.18014,0.27861
1996.25139,0.27932
1994.32265,0.27996
1992.39390,0.28060
1990.46516,0.28124
1988.53641,0.28176
1986.60767,0.28217
1984.67892,0.28244
1982.75018,0.28257
1980.82143,0.28264
1978.89269,0.28270
1976.96394,0.28276
1975.03519,0.28281
1973.10645,0.28270
1971.17770,0.28237
1969.24896,0.28190
1967.32021,0.28150
1965.39147,0.28131
1963.46272,0.28115
1961.53398,0.28089
1959.60523,0.28074
1957.67649,0.28086
1955.74774,0.28103
1953.81900,0.28111
1951.89025,0.28138
1949.96151,0.28203
1948.03276,0.28289
1946.10402,0.28385
1944.17527,0.28490
1942.24652,0.28604
1940.31778,0.28714
1938.38903,0.28813
1936.46029,0.28909
1934.53154,0.29014
1932.60280,0.29133
1930.67405,0.29255
1928.74531,0.29362
1926.81656,0.29450
1924.88782,0.29536
1922.95907,0.29628
1921.03033,0.29711
1919.10158,0.29774
1917.17284,0.29810
1915.24409,0.29835
1913.31534,0.29872
1911.38660,0.29905
1909.45785,0.29911
1907.52911,0.29918
1905.60036,0.29938
1903.67162,0.29956
1901.74287,0.29970
1899.81413,0.29978
1897.88538,0.29979
1895.95664,0.29970
1894.02789,0.29948
1892.09915,0.29920
1890.17040,0.29899
1888.24166,0.29888
1886.31291,0.29866
1884.38417,0.29812
1882.45542,0.29742
1880.52667,0.29685
1878.59793,0.29639
1876.66918,0.29595
1874.74044,0.29551
1872.81169,0.29502
1870.88295,0.29436
1868.95420,0.29349
1867.02546,0.29253
1865.09671,0.29167
1863.16797,0.29093
1861.23922,0.29013
1859.31048,0.28905
1857.38173,0.28770
1855.45299,0.28623
1853.52424,0.28483
1851.59549,0.28351
1849.66675,0.28216
1847.73800,0.28073
1845.80926,0.27923
1843.88051,0.27765
1841.95177,0.27603
1840.02302,0.27445
1838.09428,0.27276
1836.16553,0.27088
1834.23679,0.26888
1832.30804,0.26685
1830.37930,0.26472
1828.45055,0.26231
1826.52181,0.25975
1824.59306,0.25721
1822.66432,0.25462
1820.73557,0.25185
1818.80682,0.24891
1816.87808,0.24585
1814.94933,0.24264
1813.02059,0.23936
1811.09184,0.23590
1809.16310,0.23213
1807.23435,0.22816
1805.30561,0.22403
1803.37686,0.21962
1801.44812,0.21491
1799.51937,0.21022
1797.59063,0.20575
1795.66188,0.20133
1793.73314,0.19649
1791.80439,0.19098
1789.87565,0.18538
1787.94690,0.17989
1786.01815,0.17398
1784.08941,0.16756
1782.16066,0.16088
1780.23192,0.15373
1778.30317,0.14606
1776.37443,0.13813
1774.44568,0.12964
1772.51694,0.11994
1770.58819,0.10989
1768.65945,0.10063
1766.73070,0.09208
1764.80196,0.08461
1762.87321,0.07783
1760.94447,0.07139
1759.01572,0.06599
1757.08697,0.06153
1755.15823,0.05783
1753.22948,0.05493
1751.30074,0.05244
1749.37199,0.05015
1747.44325,0.04839
1745.51450,0.04734
1743.58576,0.04683
1741.65701,0.04667
1739.72827,0.04702
1737.79952,0.04799
1735.87078,0.04924
1733.94203,0.05050
1732.01329,0.05166
1730.08454,0.05294
1728.15580,0.05456
1726.22705,0.05637
1724.29830,0.05821
1722.36956,0.06008
1720.44081,0.06201
1718.51207,0.06415
1716.58332,0.06652
1714.65458,0.06890
1712.72583,0.07132
1710.79709,0.07409
1708.86834,0.07725
1706.93960,0.08064
1705.01085,0.08396
1703.08211,0.08708
1701.15336,0.09039
1699.22462,0.09356
1697.29587,0.09591
1695.36713,0.09786
1693.43838,0.09924
1691.50963,0.09992
1689.58089,0.10026
1687.65214,0.10037
1685.72340,0.10008
1683.79465,0.09891
1681.86591,0.09710
1679.93716,0.09513
1678.00842,0.09306
1676.07967,0.09100
1674.15093,0.08903
1672.22218,0.08730
1670.29344,0.08575
1668.36469,0.08443
1666.43595,0.08352
1664.50720,0.08277
1662.57845,0.08198
1660.64971,0.08132
1658.72096,0.08094
1656.79222,0.08078
1654.86347,0.08070
1652.93473,0.08053
1651.00598,0.08064
1649.07724,0.08115
1647.14849,0.08158
1645.21975,0.08154
1643.29100,0.08116
1641.36226,0.08081
1639.43351,0.08067
1637.50477,0.08068
1635.57602,0.08063
1633.64728,0.08038
1631.71853,0.08020
1629.78978,0.08020
1627.86104,0.08003
1625.93229,0.07962
1624.00355,0.07925
1622.07480,0.07894
1620.14606,0.07855
1618.21731,0.07818
1616.28857,0.07776
1614.35982,0.07704
1612.43108,0.07597
1610.50233,0.07447
1608.57359,0.07257
1606.64484,0.07063
1604.71610,0.06897
1602.78735,0.06747
1600.85861,0.06589
1598.92986,0.06432
1597.00111,0.06295
1595.07237,0.06215
1593.14362,0.06240
1591.21488,0.06397
1589.28613,0.06673
1587.35739,0.07044
1585.42864,0.07492
1583.49990,0.07989
1581.57115,0.08512
1579.64241,0.09030
1577.71366,0.09555
1575.78492,0.10120
1573.85617,0.10612
1571.92743,0.10994
1569.99868,0.11345
1568.06993,0.11659
1566.14119,0.11893
1564.21244,0.12062
1562.28370,0.12185
1560.35495,0.12288
1558.42621,0.12370
1556.49746,0.12407
1554.56872,0.12418
1552.63997,0.12412
1550.71123,0.12388
1548.78248,0.12357
1546.85374,0.12319
1544.92499,0.12266
1542.99625,0.12198
1541.06750,0.12097
1539.13876,0.11937
1537.21001,0.11776
1535.28126,0.11610
1533.35252,0.11358
1531.42377,0.11031
1529.49503,0.10684
1527.56628,0.10286
1525.63754,0.09803
1523.70879,0.09253
1521.78005,0.08619
1519.85130,0.07965
1517.92256,0.07408
1515.99381,0.06941
1514.06507,0.06560
1512.13632,0.06265
1510.20758,0.06045
1508.27883,0.05895
1506.35008,0.05806
1504.42134,0.05805
1502.49259,0.05902
1500.56385,0.06081
1498.63510,0.06327
1496.70636,0.06618
1494.77761,0.06898
1492.84887,0.07128
1490.92012,0.07318
1488.99138,0.07457
1487.06263,0.07508
1485.13389,0.07460
1483.20514,0.07307
1481.27640,0.07052
1479.34765,0.06740
1477.41891,0.06406
1475.49016,0.06039
1473.56141,0.05618
1471.63267,0.05193
1469.70392,0.04875
1467.77518,0.04666
1465.84643,0.04530
1463.91769,0.04467
1461.98894,0.04457
1460.06020,0.04489
1458.13145,0.04560
1456.20271,0.04629
1454.27396,0.04670
1452.34522,0.04709
1450.41647,0.04760
1448.48773,0.04815
1446.55898,0.04845
1444.63024,0.04851
1442.70149,0.04851
1440.77274,0.04830
1438.84400,0.04766
1436.91525,0.04648
1434.98651,0.04525
1433.05776,0.04444
1431.12902,0.04389
1429.20027,0.04367
1427.27153,0.04391
1425.34278,0.04446
1423.41404,0.04510
1421.48529,0.04579
1419.55655,0.04663
1417.62780,0.04750
1415.69906,0.04833
1413.77031,0.04917
1411.84156,0.04994
1409.91282,0.05059
1407.98407,0.05113
1406.05533,0.05139
1404.12658,0.05124
1402.19784,0.05087
1400.26909,0.05051
1398.34035,0.05003
1396.41160,0.04940
1394.48286,0.04873
1392.55411,0.04791
1390.62537,0.04684
1388.69662,0.04550
1386.76788,0.04398
1384.83913,0.04253
1382.91039,0.04136
1380.98164,0.04051
1379.05289,0.04003
1377.12415,0.03989
1375.19540,0.04002
1373.26666,0.04035
1371.33791,0.04079
1369.40917,0.04124
1367.48042,0.04166
1365.55168,0.04213
1363.62293,0.04291
1361.69419,0.04397
1359.76544,0.04482
1357.83670,0.04532
1355.90795,0.04580
1353.97921,0.04630
1352.05046,0.04656
1350.12172,0.04641
1348.19297,0.04597
1346.26422,0.04550
1344.33548,0.04512
1342.40673,0.04461
1340.47799,0.04371
1338.54924,0.04283
1336.62050,0.04250
1334.69175,0.04262
1332.76301,0.04274
1330.83426,0.04276
1328.90552,0.04279
1326.97677,0.04287
1325.04803,0.04301
1323.11928,0.04325
1321.19054,0.04343
1319.26179,0.04356
1317.33304,0.04394
1315.40430,0.04457
1313.47555,0.04525
1311.54681,0.04593
1309.61806,0.04663
1307.68932,0.04726
1305.76057,0.04781
1303.83183,0.04830
1301.90308,0.04860
1299.97434,0.04866
1298.04559,0.04851
1296.11685,0.04800
1294.18810,0.04707
1292.25936,0.04600
1290.33061,0.04497
1288.40187,0.04403
1286.47312,0.04316
1284.54437,0.04228
1282.61563,0.04143
1280.68688,0.04082
1278.75814,0.04038
1276.82939,0.03980
1274.90065,0.03919
1272.97190,0.03876
1271.04316,0.03839
1269.11441,0.03795
1267.18567,0.03746
1265.25692,0.03706
1263.32818,0.03691
1261.39943,0.03690
1259.47069,0.03677
1257.54194,0.03646
1255.61320,0.03613
1253.68445,0.03593
1251.75570,0.03594
1249.82696,0.03605
1247.89821,0.03612
1245.96947,0.03619
1244.04072,0.03637
1242.11198,0.03670
1240.18323,0.03711
1238.25449,0.03740
1236.32574,0.03750
1234.39700,0.03766
1232.46825,0.03819
1230.53951,0.03891
1228.61076,0.03952
1226.68202,0.04003
1224.75327,0.04055
1222.82452,0.04102
1220.89578,0.04149
1218.96703,0.04212
1217.03829,0.04286
1215.10954,0.04347
1213.18080,0.04400
1211.25205,0.04458
1209.32331,0.04513
1207.39456,0.04552
1205.46582,0.04579
1203.53707,0.04596
1201.60833,0.04600
1199.67958,0.04598
1197.75084,0.04599
1195.82209,0.04593
1193.89335,0.04557
1191.96460,0.04499
1190.03585,0.04411
1188.10711,0.04284
1186.17836,0.04146
1184.24962,0.04037
1182.32087,0.03960
1180.39213,0.03878
1178.46338,0.03774
1176.53464,0.03666
1174.60589,0.03574
1172.67715,0.03500
1170.74840,0.03452
1168.81966,0.03448
1166.89091,0.03477
1164.96217,0.03523
1163.03342,0.03570
1161.10467,0.03609
1159.17593,0.03645
1157.24718,0.03681
1155.31844,0.03714
1153.38969,0.03732
1151.46095,0.03716
1149.53220,0.03674
1147.60346,0.03623
1145.67471,0.03560
1143.74597,0.03490
1141.81722,0.03422
1139.88848,0.03352
1137.95973,0.03263
1136.03099,0.03158
1134.10224,0.03091
1132.17350,0.03083
1130.24475,0.03106
1128.31600,0.03145
1126.38726,0.03194
1124.45851,0.03238
1122.52977,0.03265
1120.60102,0.03271
1118.67228,0.03288
1116.74353,0.03335
1114.81479,0.03381
1112.88604,0.03405
1110.95730,0.03427
1109.02855,0.03466
1107.09981,0.03521
1105.17106,0.03567
1103.24232,0.03567
1101.31357,0.03539
1099.38483,0.03526
1097.45608,0.03524
1095.52733,0.03516
1093.59859,0.03488
1091.66984,0.03440
1089.74110,0.03421
1087.81235,0.03444
1085.88361,0.03472
1083.95486,0.03500
1082.02612,0.03538
1080.09737,0.03586
1078.16863,0.03639
1076.23988,0.03690
1074.31114,0.03745
1072.38239,0.03813
1070.45365,0.03897
1068.52490,0.03990
1066.59615,0.04096
1064.66741,0.04244
1062.73866,0.04442
1060.80992,0.04626
1058.88117,0.04750
1056.95243,0.04846
1055.02368,0.04943
1053.09494,0.05009
1051.16619,0.05015
1049.23745,0.04984
1047.30870,0.04971
1045.37996,0.04973
1043.45121,0.04965
1041.52247,0.04981
1039.59372,0.05053
1037.66498,0.05159
1035.73623,0.05266
1033.80748,0.05375
1031.87874,0.05471
1029.94999,0.05525
1028.02125,0.05549
1026.09250,0.05575
1024.16376,0.05622
1022.23501,0.05683
1020.30627,0.05725
1018.37752,0.05734
1016.44878,0.05757
1014.52003,0.05835
1012.59129,0.05942
1010.66254,0.06044
1008.73380,0.06106
1006.80505,0.06106
1004.87631,0.06103
1002.94756,0.06156
1001.01881,0.06238
999.09007,0.06300
997.16132,0.06350
995.23258,0.06423
993.30383,0.06523
991.37509,0.06622
989.44634,0.06729
987.51760,0.06876
985.58885,0.07072
983.66011,0.07324
981.73136,0.07622
979.80262,0.07913
977.87387,0.08152
975.94513,0.08341
974.01638,0.08492
972.08763,0.08613
970.15889,0.08730
968.23014,0.08857
966.30140,0.08993
964.37265,0.09161
962.44391,0.09369
960.51516,0.09609
958.58642,0.09878
956.65767,0.10171
954.72893,0.10482
952.80018,0.10792
950.87144,0.11064
948.94269,0.11267
947.01395,0.11404
945.08520,0.11510
943.15646,0.11592
941.22771,0.11626
939.29896,0.11613
937.37022,0.11582
935.44147,0.11548
933.51273,0.11511
931.58398,0.11477
929.65524,0.11453
927.72649,0.11430
925.79775,0.11396
923.86900,0.11347
921.94026,0.11284
920.01151,0.11210
918.08277,0.11125
916.15402,0.11025
914.22528,0.10915
912.29653,0.10792
910.36779,0.10636
908.43904,0.10426
906.51029,0.10185
904.58155,0.09960
902.65280,0.09756
900.72406,0.09578
898.79531,0.09480
896.86657,0.09526
894.93782,0.09728
893.00908,0.10026
891.08033,0.10351
889.15159,0.10670
887.22284,0.10943
885.29410,0.11148
883.36535,0.11334
881.43661,0.11517
879.50786,0.11631
877.57911,0.11663
875.65037,0.11685
873.72162,0.11747
871.79288,0.11845
869.86413,0.11956
867.93539,0.12063
866.00664,0.12148
864.07790,0.12229
862.14915,0.12314
860.22041,0.12372
858.29166,0.12370
856.36292,0.12305
854.43417,0.12228
852.50543,0.12176
850.57668,0.12139
848.64794,0.12100
846.71919,0.12038
844.79044,0.11955
842.86170,0.11853
840.93295,0.11703
839.00421,0.11521
837.07546,0.11386
835.14672,0.11327
833.21797,0.11319
831.28923,0.11344
829.36048,0.11388
827.43174,0.11447
825.50299,0.11515
823.57425,0.11573
821.64550,0.11613
819.71676,0.11649
817.78801,0.11697
815.85926,0.11742
813.93052,0.11738
812.00177,0.11689
810.07303,0.11670
808.14428,0.11698
806.21554,0.11723
804.28679,0.11730
802.35805,0.11738
800.42930,0.11756
798.50056,0.11770
796.57181,0.11753
794.64307,0.11702
792.71432,0.11652
790.78558,0.11625
788.85683,0.11599
786.92809,0.11534
784.99934,0.11423
783.07059,0.11310
781.14185,0.11221
779.21310,0.11119
777.28436,0.10994
775.35561,0.10866
773.42687,0.10750
771.49812,0.10651
769.56938,0.10550
767.64063,0.10417
765.71189,0.10242
763.78314,0.10076
761.85440,0.09968
759.92565,0.09867
757.99691,0.09725
756.06816,0.09583
754.13942,0.09460
752.21067,0.09334
750.28192,0.09213
748.35318,0.09115
746.42443,0.09035
744.49569,0.08954
742.56694,0.08854
740.63820,0.08745
738.70945,0.08622
736.78071,0.08486
734.85196,0.08352
732.92322,0.08233
730.99447,0.08132
729.06573,0.08024
727.13698,0.07912
725.20824,0.07822
723.27949,0.07733
721.35074,0.07642
719.42200,0.07577
717.49325,0.07523
715.56451,0.07447
713.63576,0.07383
711.70702,0.07363
709.77827,0.07365
707.84953,0.07344
705.92078,0.07289
703.99204,0.07238
702.06329,0.07222
700.13455,0.07222
698.20580,0.07222
696.27706,0.07227
694.34831,0.07240
692.41957,0.07241
690.49082,0.07194
688.56207,0.07120
686.63333,0.07077
684.70458,0.07011
682.77584,0.06870
680.84709,0.06711
678.91835,0.06599
676.98960,0.06548
675.06086,0.06507
673.13211,0.06444
671.20337,0.06364
669.27462,0.06277
667.34588,0.06220
665.41713,0.06212
663.48839,0.06219
661.55964,0.06220
659.63090,0.06263
657.70215,0.06370
655.77340,0.06478
653.84466,0.06510
651.91591,0.06473
649.98717,0.06427
648.05842,0.06364
646.12968,0.06267
644.20093,0.06173
642.27219,0.06080
640.34344,0.06037
638.41470,0.06078
636.48595,0.06052
634.55721,0.05915
632.62846,0.05834
630.69972,0.05807
628.77097,0.05761
626.84222,0.05743
624.91348,0.05747
622.98473,0.05690
621.05599,0.05561
619.12724,0.05449
617.19850,0.05442
615.26975,0.05550
613.34101,0.05678
611.41226,0.05738
609.48352,0.05792
607.55477,0.05921
605.62603,0.06032
603.69728,0.06017
601.76854,0.05983
599.83979,0.06104
