7497.03301,0.85897
7495.10426,0.85374
7493.17552,0.85194
7491.24677,0.85239
7489.31803,0.85026
7487.38928,0.84416
7485.46054,0.83890
7483.53179,0.83854
7481.60305,0.83888
7479.67430,0.83758
7477.74556,0.83722
7475.81681,0.83847
7473.88807,0.84176
7471.95932,0.84562
7470.03057,0.84478
7468.10183,0.83906
7466.17308,0.83591
7464.24434,0.83861
7462.31559,0.84150
7460.38685,0.83852
7458.45810,0.83081
7456.52936,0.82362
7454.60061,0.82121
7452.67187,0.82558
7450.74312,0.83138
7448.81438,0.83014
7446.88563,0.82551
7444.95689,0.82512
7443.02814,0.82609
7441.09940,0.82473
7439.17065,0.82313
7437.24190,0.82253
7435.31316,0.82426
7433.38441,0.82686
7431.45567,0.82528
7429.52692,0.82271
7427.59818,0.82345
7425.66943,0.82149
7423.74069,0.81560
7421.81194,0.81380
7419.88320,0.81686
7417.95445,0.81704
7416.02571,0.81232
7414.09696,0.81039
7412.16822,0.81307
7410.23947,0.81176
7408.31073,0.80535
7406.38198,0.80104
7404.45323,0.80149
7402.52449,0.80492
7400.59574,0.80746
7398.66700,0.80581
7396.73825,0.80233
7394.80951,0.80165
7392.88076,0.80328
7390.95202,0.80369
7389.02327,0.80145
7387.09453,0.79670
7385.16578,0.79383
7383.23704,0.79782
7381.30829,0.80399
7379.37955,0.80543
7377.45080,0.80380
7375.52205,0.80116
7373.59331,0.79579
7371.66456,0.78906
7369.73582,0.78516
7367.80707,0.78542
7365.87833,0.78752
7363.94958,0.79008
7362.02084,0.79308
7360.09209,0.79567
7358.16335,0.79695
7356.23460,0.79544
7354.30586,0.79151
7352.37711,0.79032
7350.44837,0.79246
7348.51962,0.79043
7346.59088,0.78525
7344.66213,0.78519
7342.73338,0.78766
7340.80464,0.78664
7338.87589,0.78504
7336.94715,0.78534
7335.01840,0.78429
7333.08966,0.78193
7331.16091,0.78209
7329.23217,0.78381
7327.30342,0.78396
7325.37468,0.78342
7323.44593,0.78400
7321.51719,0.78458
7319.58844,0.78361
7317.65970,0.78338
7315.73095,0.78442
7313.80221,0.78282
7311.87346,0.77941
7309.94471,0.77852
7308.01597,0.77844
7306.08722,0.77705
7304.15848,0.77782
7302.22973,0.78062
7300.30099,0.78262
7298.37224,0.78456
7296.44350,0.78608
7294.51475,0.78540
7292.58601,0.78210
7290.65726,0.77737
7288.72852,0.77374
7286.79977,0.77334
7284.87103,0.77477
7282.94228,0.77463
7281.01353,0.77451
7279.08479,0.77700
7277.15604,0.77940
7275.22730,0.77958
7273.29855,0.77921
7271.36981,0.77930
7269.44106,0.77923
7267.51232,0.77811
7265.58357,0.77567
7263.65483,0.77332
7261.72608,0.77192
7259.79734,0.77174
7257.86859,0.77278
7255.93985,0.77391
7254.01110,0.77480
7252.08236,0.77466
7250.15361,0.77434
7248.22486,0.77704
7246.29612,0.78100
7244.36737,0.78132
7242.43863,0.77782
7240.50988,0.77332
7238.58114,0.76937
7236.65239,0.76805
7234.72365,0.76988
7232.79490,0.77048
7230.86616,0.76729
7228.93741,0.76423
7227.00867,0.76442
7225.07992,0.76613
7223.15118,0.76764
7221.22243,0.77009
7219.29369,0.77429
7217.36494,0.77683
7215.43619,0.77330
7213.50745,0.76628
7211.57870,0.76216
7209.64996,0.76288
7207.72121,0.76569
7205.79247,0.76702
7203.86372,0.76495
7201.93498,0.76159
7200.00623,0.76160
7198.07749,0.76495
7196.14874,0.76802
7194.22000,0.76857
7192.29125,0.76648
7190.36251,0.76513
7188.43376,0.76625
7186.50501,0.76714
7184.57627,0.76730
7182.64752,0.76764
7180.71878,0.76621
7178.79003,0.76461
7176.86129,0.76588
7174.93254,0.76544
7173.00380,0.76071
7171.07505,0.75608
7169.14631,0.75245
7167.21756,0.74983
7165.28882,0.75067
7163.36007,0.75338
7161.43133,0.75333
7159.50258,0.75013
7157.57384,0.74774
7155.64509,0.74787
7153.71634,0.74856
7151.78760,0.74824
7149.85885,0.74719
7147.93011,0.74604
7146.00136,0.74537
7144.07262,0.74634
7142.14387,0.74807
7140.21513,0.74852
7138.28638,0.74738
7136.35764,0.74395
7134.42889,0.73918
7132.50015,0.73700
7130.57140,0.73799
7128.64266,0.73940
7126.71391,0.74021
7124.78516,0.73970
7122.85642,0.73673
7120.92767,0.73285
7118.99893,0.73070
7117.07018,0.73094
7115.14144,0.73148
7113.21269,0.72947
7111.28395,0.72574
7109.35520,0.72144
7107.42646,0.71603
7105.49771,0.71309
7103.56897,0.71527
7101.64022,0.71687
7099.71148,0.71379
7097.78273,0.71084
7095.85399,0.71131
7093.92524,0.71267
7091.99649,0.71371
7090.06775,0.71466
7088.13900,0.71467
7086.21026,0.71279
7084.28151,0.70821
7082.35277,0.70192
7080.42402,0.69740
7078.49528,0.69676
7076.56653,0.69796
7074.63779,0.69832
7072.70904,0.69664
7070.78030,0.69287
7068.85155,0.69017
7066.92281,0.68991
7064.99406,0.68922
7063.06532,0.68854
7061.13657,0.68829
7059.20782,0.68608
7057.27908,0.68334
7055.35033,0.68178
7053.42159,0.67924
7051.49284,0.67544
7049.56410,0.67277
7047.63535,0.67217
7045.70661,0.67280
7043.77786,0.67235
7041.84912,0.66834
7039.92037,0.66288
7037.99163,0.65958
7036.06288,0.65832
7034.13414,0.65956
7032.20539,0.66284
7030.27664,0.66393
7028.34790,0.66172
7026.41915,0.65900
7024.49041,0.65706
7022.56166,0.65495
7020.63292,0.65117
7018.70417,0.64605
7016.77543,0.64288
7014.84668,0.64427
7012.91794,0.64782
7010.98919,0.64866
7009.06045,0.64476
7007.13170,0.63989
7005.20296,0.63858
7003.27421,0.63953
7001.34547,0.63966
6999.41672,0.63945
6997.48797,0.64021
6995.55923,0.64132
6993.63048,0.64199
6991.70174,0.64245
6989.77299,0.64280
6987.84425,0.64178
6985.91550,0.63805
6983.98676,0.63415
6982.05801,0.63253
6980.12927,0.63109
6978.20052,0.62964
6976.27178,0.62981
6974.34303,0.63025
6972.41429,0.63024
6970.48554,0.63107
6968.55680,0.63207
6966.62805,0.63161
6964.69930,0.63047
6962.77056,0.62974
6960.84181,0.62835
6958.91307,0.62540
6956.98432,0.62286
6955.05558,0.62283
6953.12683,0.62374
6951.19809,0.62380
6949.26934,0.62357
6947.34060,0.62294
6945.41185,0.62312
6943.48311,0.62540
6941.55436,0.62640
6939.62562,0.62395
6937.69687,0.62128
6935.76812,0.62106
6933.83938,0.62199
6931.91063,0.62206
6929.98189,0.62235
6928.05314,0.62358
6926.12440,0.62460
6924.19565,0.62619
6922.26691,0.62748
6920.33816,0.62585
6918.40942,0.62349
6916.48067,0.62228
6914.55193,0.62028
6912.62318,0.61912
6910.69444,0.62051
6908.76569,0.62110
6906.83695,0.62043
6904.90820,0.62072
6902.97945,0.62141
6901.05071,0.62201
6899.12196,0.62239
6897.19322,0.62164
6895.26447,0.62070
6893.33573,0.62062
6891.40698,0.62090
6889.47824,0.62166
6887.54949,0.62196
6885.62075,0.62131
6883.69200,0.62236
6881.76326,0.62463
6879.83451,0.62413
6877.90577,0.62128
6875.97702,0.62005
6874.04828,0.62183
6872.11953,0.62468
6870.19078,0.62569
6868.26204,0.62422
6866.33329,0.62253
6864.40455,0.62155
6862.47580,0.62094
6860.54706,0.62123
6858.61831,0.62231
6856.68957,0.62271
6854.76082,0.62168
6852.83208,0.62058
6850.90333,0.62060
6848.97459,0.62196
6847.04584,0.62431
6845.11710,0.62604
6843.18835,0.62635
6841.25960,0.62520
6839.33086,0.62162
6837.40211,0.61646
6835.47337,0.61444
6833.54462,0.61730
6831.61588,0.61987
6829.68713,0.61976
6827.75839,0.62083
6825.82964,0.62398
6823.90090,0.62539
6821.97215,0.62409
6820.04341,0.62251
6818.11466,0.62102
6816.18592,0.62028
6814.25717,0.62115
6812.32843,0.62115
6810.39968,0.61891
6808.47093,0.61637
6806.54219,0.61447
6804.61344,0.61304
6802.68470,0.61469
6800.75595,0.62003
6798.82721,0.62345
6796.89846,0.62225
6794.96972,0.61934
6793.04097,0.61657
6791.11223,0.61587
6789.18348,0.61867
6787.25474,0.62302
6785.32599,0.62670
6783.39725,0.62763
6781.46850,0.62486
6779.53975,0.62081
6777.61101,0.61882
6775.68226,0.62069
6773.75352,0.62346
6771.82477,0.62276
6769.89603,0.62113
6767.96728,0.62230
6766.03854,0.62440
6764.10979,0.62532
6762.18105,0.62476
6760.25230,0.62264
6758.32356,0.61953
6756.39481,0.61646
6754.46607,0.61580
6752.53732,0.61909
6750.60858,0.62265
6748.67983,0.62358
6746.75108,0.62416
6744.82234,0.62509
6742.89359,0.62545
6740.96485,0.62542
6739.03610,0.62426
6737.10736,0.62311
6735.17861,0.62381
6733.24987,0.62491
6731.32112,0.62498
6729.39238,0.62326
6727.46363,0.62082
6725.53489,0.62081
6723.60614,0.62253
6721.67740,0.62339
6719.74865,0.62250
6717.81991,0.62044
6715.89116,0.61964
6713.96241,0.62061
6712.03367,0.62226
6710.10492,0.62436
6708.17618,0.62556
6706.24743,0.62473
6704.31869,0.62299
6702.38994,0.62186
6700.46120,0.62207
6698.53245,0.62367
6696.60371,0.62526
6694.67496,0.62556
6692.74622,0.62501
6690.81747,0.62362
6688.88873,0.62155
6686.95998,0.62083
6685.03123,0.62227
6683.10249,0.62426
6681.17374,0.62568
6679.24500,0.62652
6677.31625,0.62649
6675.38751,0.62564
6673.45876,0.62572
6671.53002,0.62698
6669.60127,0.62673
6667.67253,0.62550
6665.74378,0.62704
6663.81504,0.62985
6661.88629,0.62957
6659.95755,0.62784
6658.02880,0.62772
6656.10006,0.62775
6654.17131,0.62760
6652.24256,0.62844
6650.31382,0.62915
6648.38507,0.62978
6646.45633,0.63161
6644.52758,0.63380
6642.59884,0.63379
6640.67009,0.63089
6638.74135,0.62925
6636.81260,0.63117
6634.88386,0.63291
6632.95511,0.63281
6631.02637,0.63294
6629.09762,0.63399
6627.16888,0.63519
6625.24013,0.63524
6623.31139,0.63489
6621.38264,0.63588
6619.45389,0.63713
6617.52515,0.63756
6615.59640,0.63706
6613.66766,0.63608
6611.73891,0.63606
6609.81017,0.63547
6607.88142,0.63309
6605.95268,0.63217
6604.02393,0.63372
6602.09519,0.63472
6600.16644,0.63546
6598.23770,0.63822
6596.30895,0.64056
6594.38021,0.63997
6592.45146,0.63925
6590.52271,0.63999
6588.59397,0.64041
6586.66522,0.64026
6584.73648,0.63989
6582.80773,0.63988
6580.87899,0.64154
6578.95024,0.64368
6577.02150,0.64414
6575.09275,0.64256
6573.16401,0.63974
6571.23526,0.63731
6569.30652,0.63620
6567.37777,0.63682
6565.44903,0.63925
6563.52028,0.64126
6561.59154,0.64177
6559.66279,0.64277
6557.73404,0.64416
6555.80530,0.64462
6553.87655,0.64493
6551.94781,0.64553
6550.01906,0.64616
6548.09032,0.64689
6546.16157,0.64751
6544.23283,0.64737
6542.30408,0.64669
6540.37534,0.64650
6538.44659,0.64564
6536.51785,0.64368
6534.58910,0.64404
6532.66036,0.64741
6530.73161,0.64995
6528.80287,0.65005
6526.87412,0.64944
6524.94537,0.64866
6523.01663,0.64761
6521.08788,0.64815
6519.15914,0.65066
6517.23039,0.65251
6515.30165,0.65303
6513.37290,0.65311
6511.44416,0.65260
6509.51541,0.65150
6507.58667,0.65046
6505.65792,0.65100
6503.72918,0.65208
6501.80043,0.65155
6499.87169,0.65213
6497.94294,0.65478
6496.01419,0.65575
6494.08545,0.65384
6492.15670,0.65125
6490.22796,0.65029
6488.29921,0.65014
6486.37047,0.64929
6484.44172,0.64989
6482.51298,0.65292
6480.58423,0.65418
6478.65549,0.65105
6476.72674,0.64836
6474.79800,0.65048
6472.86925,0.65345
6470.94051,0.65282
6469.01176,0.65114
6467.08302,0.65130
6465.15427,0.65205
6463.22552,0.65195
6461.29678,0.65061
6459.36803,0.64859
6457.43929,0.64797
6455.51054,0.64971
6453.58180,0.65157
6451.65305,0.65124
6449.72431,0.65014
6447.79556,0.65073
6445.86682,0.65254
6443.93807,0.65386
6442.00933,0.65440
6440.08058,0.65480
6438.15184,0.65474
6436.22309,0.65439
6434.29434,0.65503
6432.36560,0.65555
6430.43685,0.65391
6428.50811,0.65206
6426.57936,0.65246
6424.65062,0.65302
6422.72187,0.65119
6420.79313,0.64902
6418.86438,0.64973
6416.93564,0.65268
6415.00689,0.65491
6413.07815,0.65484
6411.14940,0.65373
6409.22066,0.65417
6407.29191,0.65620
6405.36317,0.65824
6403.43442,0.65928
6401.50567,0.65904
6399.57693,0.65873
6397.64818,0.65863
6395.71944,0.65833
6393.79069,0.65866
6391.86195,0.65910
6389.93320,0.65872
6388.00446,0.65834
6386.07571,0.65860
6384.14697,0.65853
6382.21822,0.65728
6380.28948,0.65649
6378.36073,0.65769
6376.43199,0.65875
6374.50324,0.65805
6372.57450,0.65750
6370.64575,0.65762
6368.71700,0.65725
6366.78826,0.65698
6364.85951,0.65745
6362.93077,0.65834
6361.00202,0.65913
6359.07328,0.66006
6357.14453,0.66154
6355.21579,0.66198
6353.28704,0.66053
6351.35830,0.65889
6349.42955,0.65838
6347.50081,0.65906
6345.57206,0.66012
6343.64332,0.66026
6341.71457,0.65957
6339.78582,0.65949
6337.85708,0.66062
6335.92833,0.66205
6333.99959,0.66239
6332.07084,0.66197
6330.14210,0.66252
6328.21335,0.66371
6326.28461,0.66437
6324.35586,0.66574
6322.42712,0.66748
6320.49837,0.66611
6318.56963,0.66276
6316.64088,0.66137
6314.71214,0.66177
6312.78339,0.66322
6310.85465,0.66528
6308.92590,0.66577
6306.99715,0.66462
6305.06841,0.66461
6303.13966,0.66558
6301.21092,0.66590
6299.28217,0.66667
6297.35343,0.66701
6295.42468,0.66664
6293.49594,0.66767
6291.56719,0.66820
6289.63845,0.66776
6287.70970,0.66898
6285.78096,0.67015
6283.85221,0.66925
6281.92347,0.66809
6279.99472,0.66734
6278.06598,0.66624
6276.13723,0.66709
6274.20848,0.67110
6272.27974,0.67392
6270.35099,0.67301
6268.42225,0.67096
6266.49350,0.67037
6264.56476,0.67148
6262.63601,0.67270
6260.70727,0.67267
6258.77852,0.67249
6256.84978,0.67378
6254.92103,0.67559
6252.99229,0.67602
6251.06354,0.67551
6249.13480,0.67597
6247.20605,0.67820
6245.27730,0.68091
6243.34856,0.68177
6241.41981,0.68075
6239.49107,0.68010
6237.56232,0.68079
6235.63358,0.68135
6233.70483,0.68138
6231.77609,0.68278
6229.84734,0.68511
6227.91860,0.68582
6225.98985,0.68532
6224.06111,0.68523
6222.13236,0.68524
6220.20362,0.68641
6218.27487,0.68946
6216.34613,0.69101
6214.41738,0.69014
6212.48863,0.68967
6210.55989,0.68984
6208.63114,0.68976
6206.70240,0.68965
6204.77365,0.68953
6202.84491,0.68973
6200.91616,0.69014
6198.98742,0.68995
6197.05867,0.68967
6195.12993,0.69035
6193.20118,0.69120
6191.27244,0.69086
6189.34369,0.68985
6187.41495,0.68980
6185.48620,0.69094
6183.55746,0.69230
6181.62871,0.69319
6179.69996,0.69331
6177.77122,0.69304
6175.84247,0.69334
6173.91373,0.69487
6171.98498,0.69745
6170.05624,0.69955
6168.12749,0.69967
6166.19875,0.69892
6164.27000,0.69888
6162.34126,0.69944
6160.41251,0.70030
6158.48377,0.70030
6156.55502,0.69854
6154.62628,0.69698
6152.69753,0.69742
6150.76878,0.69933
6148.84004,0.70111
6146.91129,0.70136
6144.98255,0.70018
6143.05380,0.69892
6141.12506,0.69906
6139.19631,0.70095
6137.26757,0.70287
6135.33882,0.70314
6133.41008,0.70236
6131.48133,0.70187
6129.55259,0.70219
6127.62384,0.70299
6125.69510,0.70375
6123.76635,0.70520
6121.83761,0.70738
6119.90886,0.70710
6117.98011,0.70416
6116.05137,0.70393
6114.12262,0.70677
6112.19388,0.70765
6110.26513,0.70638
6108.33639,0.70589
6106.40764,0.70645
6104.47890,0.70737
6102.55015,0.70851
6100.62141,0.70905
6098.69266,0.70836
6096.76392,0.70709
6094.83517,0.70611
6092.90643,0.70581
6090.97768,0.70589
6089.04893,0.70647
6087.12019,0.70800
6085.19144,0.70953
6083.26270,0.70992
6081.33395,0.70904
6079.40521,0.70753
6077.47646,0.70633
6075.54772,0.70606
6073.61897,0.70624
6071.69023,0.70521
6069.76148,0.70329
6067.83274,0.70274
6065.90399,0.70334
6063.97525,0.70344
6062.04650,0.70323
6060.11776,0.70352
6058.18901,0.70362
6056.26026,0.70299
6054.33152,0.70274
6052.40277,0.70319
6050.47403,0.70284
6048.54528,0.70145
6046.61654,0.70144
6044.68779,0.70289
6042.75905,0.70270
6040.83030,0.70109
6038.90156,0.70054
6036.97281,0.70065
6035.04407,0.70015
6033.11532,0.69929
6031.18658,0.69885
6029.25783,0.69805
6027.32909,0.69585
6025.40034,0.69410
6023.47159,0.69411
6021.54285,0.69416
6019.61410,0.69373
6017.68536,0.69374
6015.75661,0.69383
6013.82787,0.69368
6011.89912,0.69397
6009.97038,0.69469
6008.04163,0.69467
6006.11289,0.69342
6004.18414,0.69230
6002.25540,0.69241
6000.32665,0.69273
5998.39791,0.69189
5996.46916,0.68984
5994.54041,0.68813
5992.61167,0.68818
5990.68292,0.68884
5988.75418,0.68782
5986.82543,0.68559
5984.89669,0.68466
5982.96794,0.68531
5981.03920,0.68624
5979.11045,0.68658
5977.18171,0.68581
5975.25296,0.68469
5973.32422,0.68376
5971.39547,0.68289
5969.46673,0.68255
5967.53798,0.68219
5965.60924,0.68136
5963.68049,0.68146
5961.75174,0.68272
5959.82300,0.68298
5957.89425,0.68094
5955.96551,0.67806
5954.03676,0.67666
5952.10802,0.67719
5950.17927,0.67805
5948.25053,0.67811
5946.32178,0.67750
5944.39304,0.67723
5942.46429,0.67798
5940.53555,0.67839
5938.60680,0.67758
5936.67806,0.67690
5934.74931,0.67699
5932.82057,0.67704
5930.89182,0.67693
5928.96307,0.67704
5927.03433,0.67717
5925.10558,0.67706
5923.17684,0.67658
5921.24809,0.67577
5919.31935,0.67505
5917.39060,0.67452
5915.46186,0.67378
5913.53311,0.67288
5911.60437,0.67276
5909.67562,0.67379
5907.74688,0.67512
5905.81813,0.67581
5903.88939,0.67540
5901.96064,0.67426
5900.03189,0.67320
5898.10315,0.67217
5896.17440,0.67098
5894.24566,0.67034
5892.31691,0.67038
5890.38817,0.66978
5888.45942,0.66826
5886.53068,0.66775
5884.60193,0.66923
5882.67319,0.67061
5880.74444,0.67023
5878.81570,0.66862
5876.88695,0.66662
5874.95821,0.66514
5873.02946,0.66492
5871.10072,0.66536
5869.17197,0.66475
5867.24322,0.66314
5865.31448,0.66222
5863.38573,0.66206
5861.45699,0.66199
5859.52824,0.66196
5857.59950,0.66164
5855.67075,0.66089
5853.74201,0.66035
5851.81326,0.66067
5849.88452,0.66112
5847.95577,0.66077
5846.02703,0.66020
5844.09828,0.65982
5842.16954,0.65905
5840.24079,0.65753
5838.31205,0.65592
5836.38330,0.65585
5834.45455,0.65684
5832.52581,0.65598
5830.59706,0.65401
5828.66832,0.65377
5826.73957,0.65388
5824.81083,0.65273
5822.88208,0.65158
5820.95334,0.65084
5819.02459,0.65021
5817.09585,0.65007
5815.16710,0.65004
5813.23836,0.64958
5811.30961,0.64932
5809.38087,0.64963
5807.45212,0.64978
5805.52337,0.64900
5803.59463,0.64769
5801.66588,0.64730
5799.73714,0.64798
5797.80839,0.64875
5795.87965,0.64965
5793.95090,0.65090
5792.02216,0.65145
5790.09341,0.65058
5788.16467,0.64942
5786.23592,0.64893
5784.30718,0.64882
5782.37843,0.64912
5780.44969,0.65009
5778.52094,0.65140
5776.59220,0.65274
5774.66345,0.65431
5772.73470,0.65582
5770.80596,0.65659
5768.87721,0.65728
5766.94847,0.65914
5765.01972,0.66138
5763.09098,0.66249
5761.16223,0.66264
5759.23349,0.66239
5757.30474,0.66156
5755.37600,0.66077
5753.44725,0.66133
5751.51851,0.66291
5749.58976,0.66388
5747.66102,0.66375
5745.73227,0.66327
5743.80352,0.66289
5741.87478,0.66282
5739.94603,0.66378
5738.01729,0.66526
5736.08854,0.66550
5734.15980,0.66461
5732.23105,0.66411
5730.30231,0.66440
5728.37356,0.66470
5726.44482,0.66469
5724.51607,0.66446
5722.58733,0.66351
5720.65858,0.66234
5718.72984,0.66264
5716.80109,0.66446
5714.87235,0.66595
5712.94360,0.66595
5711.01485,0.66494
5709.08611,0.66372
5707.15736,0.66338
5705.22862,0.66455
5703.29987,0.66553
5701.37113,0.66470
5699.44238,0.66331
5697.51364,0.66304
5695.58489,0.66337
5693.65615,0.66295
5691.72740,0.66187
5689.79866,0.66133
5687.86991,0.66189
5685.94117,0.66277
5684.01242,0.66245
5682.08368,0.66075
5680.15493,0.65970
5678.22618,0.66032
5676.29744,0.66131
5674.36869,0.66172
5672.43995,0.66199
5670.51120,0.66234
5668.58246,0.66264
5666.65371,0.66317
5664.72497,0.66382
5662.79622,0.66389
5660.86748,0.66366
5658.93873,0.66394
5657.00999,0.66411
5655.08124,0.66352
5653.15250,0.66299
5651.22375,0.66337
5649.29500,0.66402
5647.36626,0.66424
5645.43751,0.66449
5643.50877,0.66459
5641.58002,0.66436
5639.65128,0.66467
5637.72253,0.66524
5635.79379,0.66539
5633.86504,0.66533
5631.93630,0.66549
5630.00755,0.66614
5628.07881,0.66697
5626.15006,0.66731
5624.22132,0.66668
5622.29257,0.66570
5620.36383,0.66542
5618.43508,0.66564
5616.50633,0.66544
5614.57759,0.66493
5612.64884,0.66509
5610.72010,0.66550
5608.79135,0.66521
5606.86261,0.66466
5604.93386,0.66411
5603.00512,0.66340
5601.07637,0.66339
5599.14763,0.66432
5597.21888,0.66488
5595.29014,0.66480
5593.36139,0.66503
5591.43265,0.66534
5589.50390,0.66563
5587.57516,0.66692
5585.64641,0.66848
5583.71766,0.66845
5581.78892,0.66730
5579.86017,0.66679
5577.93143,0.66721
5576.00268,0.66785
5574.07394,0.66803
5572.14519,0.66785
5570.21645,0.66831
5568.28770,0.66952
5566.35896,0.67005
5564.43021,0.66949
5562.50147,0.66899
5560.57272,0.66922
5558.64398,0.66959
5556.71523,0.66957
5554.78648,0.66958
5552.85774,0.66974
5550.92899,0.66974
5549.00025,0.66987
5547.07150,0.67037
5545.14276,0.67083
5543.21401,0.67064
5541.28527,0.67027
5539.35652,0.67069
5537.42778,0.67093
5535.49903,0.67016
5533.57029,0.67004
5531.64154,0.67120
5529.71280,0.67231
5527.78405,0.67276
5525.85531,0.67242
5523.92656,0.67155
5521.99781,0.67098
5520.06907,0.67093
5518.14032,0.67134
5516.21158,0.67229
5514.28283,0.67282
5512.35409,0.67200
5510.42534,0.67097
5508.49660,0.67089
5506.56785,0.67147
5504.63911,0.67241
5502.71036,0.67358
5500.78162,0.67467
5498.85287,0.67513
5496.92413,0.67494
5494.99538,0.67463
5493.06664,0.67458
5491.13789,0.67510
5489.20914,0.67555
5487.28040,0.67495
5485.35165,0.67411
5483.42291,0.67454
5481.49416,0.67584
5479.56542,0.67638
5477.63667,0.67621
5475.70793,0.67631
5473.77918,0.67625
5471.85044,0.67549
5469.92169,0.67474
5467.99295,0.67484
5466.06420,0.67584
5464.13546,0.67652
5462.20671,0.67625
5460.27796,0.67660
5458.34922,0.67782
5456.42047,0.67810
5454.49173,0.67777
5452.56298,0.67835
5450.63424,0.67934
5448.70549,0.67963
5446.77675,0.67941
5444.84800,0.67979
5442.91926,0.68104
5440.99051,0.68220
5439.06177,0.68270
5437.13302,0.68275
5435.20428,0.68259
5433.27553,0.68270
5431.34679,0.68335
5429.41804,0.68397
5427.48929,0.68419
5425.56055,0.68416
5423.63180,0.68403
5421.70306,0.68395
5419.77431,0.68418
5417.84557,0.68493
5415.91682,0.68572
5413.98808,0.68598
5412.05933,0.68610
5410.13059,0.68650
5408.20184,0.68693
5406.27310,0.68748
5404.34435,0.68832
5402.41561,0.68896
5400.48686,0.68921
5398.55811,0.68910
5396.62937,0.68840
5394.70062,0.68777
5392.77188,0.68782
5390.84313,0.68782
5388.91439,0.68748
5386.98564,0.68761
5385.05690,0.68794
5383.12815,0.68733
5381.19941,0.68686
5379.27066,0.68783
5377.34192,0.68898
5375.41317,0.68909
5373.48443,0.68841
5371.55568,0.68793
5369.62694,0.68834
5367.69819,0.68885
5365.76944,0.68885
5363.84070,0.68844
5361.91195,0.68774
5359.98321,0.68761
5358.05446,0.68834
5356.12572,0.68878
5354.19697,0.68842
5352.26823,0.68813
5350.33948,0.68809
5348.41074,0.68748
5346.48199,0.68642
5344.55325,0.68561
5342.62450,0.68506
5340.69576,0.68453
5338.76701,0.68398
5336.83827,0.68368
5334.90952,0.68356
5332.98077,0.68292
5331.05203,0.68204
5329.12328,0.68160
5327.19454,0.68101
5325.26579,0.67988
5323.33705,0.67908
5321.40830,0.67899
5319.47956,0.67836
5317.55081,0.67634
5315.62207,0.67399
5313.69332,0.67257
5311.76458,0.67142
5309.83583,0.66941
5307.90709,0.66749
5305.97834,0.66644
5304.04959,0.66505
5302.12085,0.66280
5300.19210,0.66039
5298.26336,0.65785
5296.33461,0.65484
5294.40587,0.65185
5292.47712,0.64952
5290.54838,0.64766
5288.61963,0.64571
5286.69089,0.64334
5284.76214,0.64058
5282.83340,0.63755
5280.90465,0.63436
5278.97591,0.63108
5277.04716,0.62763
5275.11842,0.62395
5273.18967,0.62008
5271.26092,0.61623
5269.33218,0.61270
5267.40343,0.60973
5265.47469,0.60735
5263.54594,0.60476
5261.61720,0.60141
5259.68845,0.59789
5257.75971,0.59467
5255.83096,0.59153
5253.90222,0.58800
5251.97347,0.58428
5250.04473,0.58147
5248.11598,0.57981
5246.18724,0.57790
5244.25849,0.57507
5242.32975,0.57252
5240.40100,0.57070
5238.47225,0.56879
5236.54351,0.56702
5234.61476,0.56576
5232.68602,0.56406
5230.75727,0.56150
5228.82853,0.55876
5226.89978,0.55655
5224.97104,0.55533
5223.04229,0.55486
5221.11355,0.55431
5219.18480,0.55341
5217.25606,0.55250
5215.32731,0.55161
5213.39857,0.55106
5211.46982,0.55141
5209.54107,0.55157
5207.61233,0.55050
5205.68358,0.54923
5203.75484,0.54838
5201.82609,0.54768
5199.89735,0.54756
5197.96860,0.54829
5196.03986,0.54910
5194.11111,0.54890
5192.18237,0.54788
5190.25362,0.54741
5188.32488,0.54813
5186.39613,0.54919
5184.46739,0.54961
5182.53864,0.54987
5180.60990,0.55088
5178.68115,0.55241
5176.75240,0.55360
5174.82366,0.55410
5172.89491,0.55398
5170.96617,0.55377
5169.03742,0.55423
5167.10868,0.55539
5165.17993,0.55683
5163.25119,0.55828
5161.32244,0.55909
5159.39370,0.55940
5157.46495,0.56051
5155.53621,0.56204
5153.60746,0.56269
5151.67872,0.56332
5149.74997,0.56497
5147.82123,0.56658
5145.89248,0.56703
5143.96373,0.56675
5142.03499,0.56694
5140.10624,0.56798
5138.17750,0.56947
5136.24875,0.57129
5134.32001,0.57331
5132.39126,0.57476
5130.46252,0.57526
5128.53377,0.57576
5126.60503,0.57733
5124.67628,0.57942
5122.74754,0.58078
5120.81879,0.58112
5118.89005,0.58088
5116.96130,0.58062
5115.03255,0.58072
5113.10381,0.58156
5111.17506,0.58307
5109.24632,0.58449
5107.31757,0.58545
5105.38883,0.58624
5103.46008,0.58717
5101.53134,0.58857
5099.60259,0.59024
5097.67385,0.59145
5095.74510,0.59185
5093.81636,0.59190
5091.88761,0.59227
5089.95887,0.59254
5088.03012,0.59236
5086.10138,0.59302
5084.17263,0.59519
5082.24388,0.59730
5080.31514,0.59841
5078.38639,0.59920
5076.45765,0.60008
5074.52890,0.60090
5072.60016,0.60136
5070.67141,0.60152
5068.74267,0.60181
5066.81392,0.60225
5064.88518,0.60303
5062.95643,0.60428
5061.02769,0.60547
5059.09894,0.60628
5057.17020,0.60712
5055.24145,0.60821
5053.31270,0.60901
5051.38396,0.60928
5049.45521,0.60942
5047.52647,0.60986
5045.59772,0.61082
5043.66898,0.61171
5041.74023,0.61194
5039.81149,0.61234
5037.88274,0.61353
5035.95400,0.61441
5034.02525,0.61429
5032.09651,0.61385
5030.16776,0.61375
5028.23902,0.61412
5026.31027,0.61484
5024.38153,0.61534
5022.45278,0.61529
5020.52403,0.61540
5018.59529,0.61621
5016.66654,0.61686
5014.73780,0.61662
5012.80905,0.61636
5010.88031,0.61669
5008.95156,0.61675
5007.02282,0.61645
5005.09407,0.61650
5003.16533,0.61676
5001.23658,0.61664
4999.30784,0.61608
4997.37909,0.61557
4995.45035,0.61532
4993.52160,0.61506
4991.59286,0.61467
4989.66411,0.61454
4987.73536,0.61479
4985.80662,0.61467
4983.87787,0.61362
4981.94913,0.61222
4980.02038,0.61101
4978.09164,0.61005
4976.16289,0.60963
4974.23415,0.60977
4972.30540,0.60952
4970.37666,0.60819
4968.44791,0.60639
4966.51917,0.60492
4964.59042,0.60409
4962.66168,0.60361
4960.73293,0.60264
4958.80418,0.60087
4956.87544,0.59889
4954.94669,0.59713
4953.01795,0.59535
4951.08920,0.59349
4949.16046,0.59229
4947.23171,0.59157
4945.30297,0.59008
4943.37422,0.58784
4941.44548,0.58584
4939.51673,0.58415
4937.58799,0.58225
4935.65924,0.58006
4933.73050,0.57801
4931.80175,0.57653
4929.87301,0.57539
4927.94426,0.57402
4926.01551,0.57201
4924.08677,0.56936
4922.15802,0.56682
4920.22928,0.56486
4918.30053,0.56284
4916.37179,0.56044
4914.44304,0.55837
4912.51430,0.55698
4910.58555,0.55560
4908.65681,0.55385
4906.72806,0.55211
4904.79932,0.55019
4902.87057,0.54786
4900.94183,0.54588
4899.01308,0.54456
4897.08434,0.54314
4895.15559,0.54117
4893.22684,0.53893
4891.29810,0.53693
4889.36935,0.53533
4887.44061,0.53370
4885.51186,0.53174
4883.58312,0.52967
4881.65437,0.52799
4879.72563,0.52666
4877.79688,0.52522
4875.86814,0.52354
4873.93939,0.52160
4872.01065,0.51953
4870.08190,0.51783
4868.15316,0.51652
4866.22441,0.51533
4864.29566,0.51419
4862.36692,0.51299
4860.43817,0.51163
4858.50943,0.50995
4856.58068,0.50823
4854.65194,0.50715
4852.72319,0.50662
4850.79445,0.50570
4848.86570,0.50417
4846.93696,0.50237
4845.00821,0.50057
4843.07947,0.49924
4841.15072,0.49833
4839.22198,0.49726
4837.29323,0.49588
4835.36449,0.49430
4833.43574,0.49293
4831.50699,0.49216
4829.57825,0.49151
4827.64950,0.49039
4825.72076,0.48911
4823.79201,0.48802
4821.86327,0.48714
4819.93452,0.48652
4818.00578,0.48593
4816.07703,0.48497
4814.14829,0.48381
4812.21954,0.48273
4810.29080,0.48159
4808.36205,0.48065
4806.43331,0.48015
4804.50456,0.47953
4802.57582,0.47856
4800.64707,0.47761
4798.71832,0.47704
4796.78958,0.47688
4794.86083,0.47685
4792.93209,0.47675
4791.00334,0.47642
4789.07460,0.47575
4787.14585,0.47522
4785.21711,0.47506
4783.28836,0.47489
4781.35962,0.47456
4779.43087,0.47415
4777.50213,0.47369
4775.57338,0.47358
4773.64464,0.47381
4771.71589,0.47379
4769.78714,0.47330
4767.85840,0.47294
4765.92965,0.47284
4764.00091,0.47245
4762.07216,0.47169
4760.14342,0.47102
4758.21467,0.47070
4756.28593,0.47090
4754.35718,0.47127
4752.42844,0.47130
4750.49969,0.47111
4748.57095,0.47098
4746.64220,0.47099
4744.71346,0.47107
4742.78471,0.47113
4740.85597,0.47129
4738.92722,0.47176
4736.99847,0.47239
4735.06973,0.47294
4733.14098,0.47324
4731.21224,0.47330
4729.28349,0.47352
4727.35475,0.47417
4725.42600,0.47473
4723.49726,0.47444
4721.56851,0.47372
4719.63977,0.47378
4717.71102,0.47467
4715.78228,0.47557
4713.85353,0.47626
4711.92479,0.47668
4709.99604,0.47670
4708.06729,0.47649
4706.13855,0.47631
4704.20980,0.47621
4702.28106,0.47631
4700.35231,0.47691
4698.42357,0.47794
4696.49482,0.47869
4694.56608,0.47852
4692.63733,0.47826
4690.70859,0.47924
4688.77984,0.48083
4686.85110,0.48142
4684.92235,0.48111
4682.99361,0.48114
4681.06486,0.48192
4679.13612,0.48299
4677.20737,0.48387
4675.27862,0.48438
4673.34988,0.48478
4671.42113,0.48551
4669.49239,0.48674
4667.56364,0.48817
4665.63490,0.48941
4663.70615,0.49016
4661.77741,0.49053
4659.84866,0.49121
4657.91992,0.49230
4655.99117,0.49322
4654.06243,0.49386
4652.13368,0.49478
4650.20494,0.49607
4648.27619,0.49708
4646.34745,0.49781
4644.41870,0.49887
4642.48995,0.49999
4640.56121,0.50070
4638.63246,0.50128
4636.70372,0.50205
4634.77497,0.50275
4632.84623,0.50322
4630.91748,0.50385
4628.98874,0.50475
4627.05999,0.50562
4625.13125,0.50651
4623.20250,0.50751
4621.27376,0.50824
4619.34501,0.50871
4617.41627,0.50962
4615.48752,0.51089
4613.55877,0.51183
4611.63003,0.51228
4609.70128,0.51245
4607.77254,0.51295
4605.84379,0.51424
4603.91505,0.51564
4601.98630,0.51657
4600.05756,0.51725
4598.12881,0.51769
4596.20007,0.51788
4594.27132,0.51826
4592.34258,0.51901
4590.41383,0.51986
4588.48509,0.52056
4586.55634,0.52111
4584.62760,0.52165
4582.69885,0.52224
4580.77010,0.52302
4578.84136,0.52374
4576.91261,0.52403
4574.98387,0.52411
4573.05512,0.52421
4571.12638,0.52440
4569.19763,0.52496
4567.26889,0.52567
4565.34014,0.52603
4563.41140,0.52653
4561.48265,0.52745
4559.55391,0.52790
4557.62516,0.52780
4555.69642,0.52793
4553.76767,0.52832
4551.83893,0.52883
4549.91018,0.52947
4547.98143,0.52996
4546.05269,0.53017
4544.12394,0.53027
4542.19520,0.53045
4540.26645,0.53088
4538.33771,0.53156
4536.40896,0.53214
4534.48022,0.53250
4532.55147,0.53291
4530.62273,0.53329
4528.69398,0.53331
4526.76524,0.53298
4524.83649,0.53262
4522.90775,0.53245
4520.97900,0.53228
4519.05025,0.53195
4517.12151,0.53163
4515.19276,0.53145
4513.26402,0.53119
4511.33527,0.53084
4509.40653,0.53062
4507.47778,0.53020
4505.54904,0.52928
4503.62029,0.52824
4501.69155,0.52719
4499.76280,0.52612
4497.83406,0.52518
4495.90531,0.52422
4493.97657,0.52291
4492.04782,0.52119
4490.11908,0.51947
4488.19033,0.51818
4486.26158,0.51698
4484.33284,0.51501
4482.40409,0.51232
4480.47535,0.50957
4478.54660,0.50697
4476.61786,0.50465
4474.68911,0.50263
4472.76037,0.50046
4470.83162,0.49791
4468.90288,0.49500
4466.97413,0.49181
4465.04539,0.48846
4463.11664,0.48537
4461.18790,0.48301
4459.25915,0.48070
4457.33041,0.47742
4455.40166,0.47381
4453.47291,0.47083
4451.54417,0.46805
4449.61542,0.46510
4447.68668,0.46227
4445.75793,0.45941
4443.82919,0.45621
4441.90044,0.45294
4439.97170,0.45004
4438.04295,0.44746
4436.11421,0.44496
4434.18546,0.44272
4432.25672,0.44091
4430.32797,0.43921
4428.39923,0.43730
4426.47048,0.43517
4424.54173,0.43314
4422.61299,0.43155
4420.68424,0.43016
4418.75550,0.42845
4416.82675,0.42669
4414.89801,0.42551
4412.96926,0.42485
4411.04052,0.42419
4409.11177,0.42322
4407.18303,0.42213
4405.25428,0.42118
4403.32554,0.42043
4401.39679,0.42012
4399.46805,0.42022
4397.53930,0.42043
4395.61056,0.42066
4393.68181,0.42093
4391.75306,0.42129
4389.82432,0.42186
4387.89557,0.42248
4385.96683,0.42290
4384.03808,0.42312
4382.10934,0.42361
4380.18059,0.42452
4378.25185,0.42531
4376.32310,0.42585
4374.39436,0.42654
4372.46561,0.42750
4370.53687,0.42861
4368.60812,0.42941
4366.67938,0.42961
4364.75063,0.42946
4362.82189,0.42920
4360.89314,0.42898
4358.96439,0.42888
4357.03565,0.42864
4355.10690,0.42825
4353.17816,0.42791
4351.24941,0.42732
4349.32067,0.42631
4347.39192,0.42538
4345.46318,0.42488
4343.53443,0.42444
4341.60569,0.42389
4339.67694,0.42350
4337.74820,0.42313
4335.81945,0.42254
4333.89071,0.42186
4331.96196,0.42133
4330.03321,0.42110
4328.10447,0.42106
4326.17572,0.42077
4324.24698,0.42010
4322.31823,0.41954
4320.38949,0.41906
4318.46074,0.41841
4316.53200,0.41781
4314.60325,0.41735
4312.67451,0.41694
4310.74576,0.41644
4308.81702,0.41560
4306.88827,0.41463
4304.95953,0.41376
4303.03078,0.41287
4301.10204,0.41208
4299.17329,0.41160
4297.24454,0.41122
4295.31580,0.41073
4293.38705,0.41029
4291.45831,0.41006
4289.52956,0.40991
4287.60082,0.40976
4285.67207,0.40953
4283.74333,0.40888
4281.81458,0.40783
4279.88584,0.40685
4277.95709,0.40636
4276.02835,0.40644
4274.09960,0.40679
4272.17086,0.40718
4270.24211,0.40766
4268.31336,0.40813
4266.38462,0.40834
4264.45587,0.40825
4262.52713,0.40817
4260.59838,0.40839
4258.66964,0.40881
4256.74089,0.40927
4254.81215,0.40978
4252.88340,0.41029
4250.95466,0.41082
4249.02591,0.41136
4247.09717,0.41159
4245.16842,0.41182
4243.23968,0.41246
4241.31093,0.41312
4239.38219,0.41366
4237.45344,0.41417
4235.52469,0.41442
4233.59595,0.41454
4231.66720,0.41485
4229.73846,0.41521
4227.80971,0.41550
4225.88097,0.41581
4223.95222,0.41612
4222.02348,0.41640
4220.09473,0.41662
4218.16599,0.41691
4216.23724,0.41728
4214.30850,0.41759
4212.37975,0.41785
4210.45101,0.41824
4208.52226,0.41879
4206.59352,0.41932
4204.66477,0.41970
4202.73602,0.41991
4200.80728,0.42014
4198.87853,0.42047
4196.94979,0.42072
4195.02104,0.42079
4193.09230,0.42076
4191.16355,0.42083
4189.23481,0.42104
4187.30606,0.42122
4185.37732,0.42136
4183.44857,0.42156
4181.51983,0.42194
4179.59108,0.42245
4177.66234,0.42286
4175.73359,0.42333
4173.80484,0.42408
4171.87610,0.42493
4169.94735,0.42571
4168.01861,0.42633
4166.08986,0.42666
4164.16112,0.42682
4162.23237,0.42684
4160.30363,0.42667
4158.37488,0.42650
4156.44614,0.42640
4154.51739,0.42617
4152.58865,0.42592
4150.65990,0.42557
4148.73116,0.42500
4146.80241,0.42447
4144.87367,0.42406
4142.94492,0.42354
4141.01617,0.42278
4139.08743,0.42194
4137.15868,0.42124
4135.22994,0.42052
4133.30119,0.41952
4131.37245,0.41831
4129.44370,0.41714
4127.51496,0.41609
4125.58621,0.41522
4123.65747,0.41424
4121.72872,0.41296
4119.79998,0.41166
4117.87123,0.41030
4115.94249,0.40866
4114.01374,0.40718
4112.08500,0.40602
4110.15625,0.40479
4108.22750,0.40320
4106.29876,0.40133
4104.37001,0.39968
4102.44127,0.39835
4100.51252,0.39685
4098.58378,0.39514
4096.65503,0.39354
4094.72629,0.39191
4092.79754,0.39002
4090.86880,0.38815
4088.94005,0.38655
4087.01131,0.38490
4085.08256,0.38289
4083.15382,0.38069
4081.22507,0.37866
4079.29632,0.37683
4077.36758,0.37510
4075.43883,0.37356
4073.51009,0.37209
4071.58134,0.37034
4069.65260,0.36840
4067.72385,0.36638
4065.79511,0.36416
4063.86636,0.36203
4061.93762,0.36049
4060.00887,0.35931
4058.08013,0.35791
4056.15138,0.35611
4054.22264,0.35405
4052.29389,0.35185
4050.36515,0.34970
4048.43640,0.34791
4046.50765,0.34653
4044.57891,0.34525
4042.65016,0.34391
4040.72142,0.34261
4038.79267,0.34142
4036.86393,0.34041
4034.93518,0.33938
4033.00644,0.33815
4031.07769,0.33698
4029.14895,0.33623
4027.22020,0.33568
4025.29146,0.33492
4023.36271,0.33416
4021.43397,0.33363
4019.50522,0.33336
4017.57648,0.33326
4015.64773,0.33316
4013.71898,0.33317
4011.79024,0.33354
4009.86149,0.33418
4007.93275,0.33471
4006.00400,0.33504
4004.07526,0.33562
4002.14651,0.33649
4000.21777,0.33711
3998.28902,0.33740
3996.36028,0.33782
3994.43153,0.33831
3992.50279,0.33858
3990.57404,0.33895
3988.64530,0.33954
3986.71655,0.34010
3984.78780,0.34066
3982.85906,0.34127
3980.93031,0.34183
3979.00157,0.34244
3977.07282,0.34318
3975.14408,0.34404
3973.21533,0.34495
3971.28659,0.34560
3969.35784,0.34608
3967.42910,0.34699
3965.50035,0.34817
3963.57161,0.34908
3961.64286,0.34995
3959.71412,0.35125
3957.78537,0.35264
3955.85663,0.35370
3953.92788,0.35455
3951.99913,0.35526
3950.07039,0.35596
3948.14164,0.35700
3946.21290,0.35827
3944.28415,0.35929
3942.35541,0.36026
3940.42666,0.36150
3938.49792,0.36263
3936.56917,0.36348
3934.64043,0.36450
3932.71168,0.36580
3930.78294,0.36693
3928.85419,0.36768
3926.92545,0.36834
3924.99670,0.36920
3923.06795,0.37036
3921.13921,0.37172
3919.21046,0.37298
3917.28172,0.37395
3915.35297,0.37480
3913.42423,0.37569
3911.49548,0.37657
3909.56674,0.37751
3907.63799,0.37855
3905.70925,0.37954
3903.78050,0.38038
3901.85176,0.38111
3899.92301,0.38187
3897.99427,0.38267
3896.06552,0.38358
3894.13678,0.38466
3892.20803,0.38573
3890.27928,0.38657
3888.35054,0.38734
3886.42179,0.38828
3884.49305,0.38906
3882.56430,0.38940
3880.63556,0.38975
3878.70681,0.39034
3876.77807,0.39114
3874.84932,0.39229
3872.92058,0.39346
3870.99183,0.39430
3869.06309,0.39521
3867.13434,0.39653
3865.20560,0.39796
3863.27685,0.39909
3861.34811,0.39998
3859.41936,0.40100
3857.49061,0.40221
3855.56187,0.40352
3853.63312,0.40487
3851.70438,0.40597
3849.77563,0.40663
3847.84689,0.40709
3845.91814,0.40783
3843.98940,0.40905
3842.06065,0.41025
3840.13191,0.41107
3838.20316,0.41186
3836.27442,0.41265
3834.34567,0.41315
3832.41693,0.41352
3830.48818,0.41393
3828.55943,0.41427
3826.63069,0.41434
3824.70194,0.41428
3822.77320,0.41453
3820.84445,0.41519
3818.91571,0.41582
3816.98696,0.41607
3815.05822,0.41589
3813.12947,0.41561
3811.20073,0.41551
3809.27198,0.41557
3807.34324,0.41574
3805.41449,0.41596
3803.48575,0.41609
3801.55700,0.41627
3799.62826,0.41648
3797.69951,0.41652
3795.77076,0.41645
3793.84202,0.41624
3791.91327,0.41594
3789.98453,0.41582
3788.05578,0.41592
3786.12704,0.41590
3784.19829,0.41580
3782.26955,0.41596
3780.34080,0.41610
3778.41206,0.41572
3776.48331,0.41509
3774.55457,0.41460
3772.62582,0.41408
3770.69708,0.41342
3768.76833,0.41303
3766.83959,0.41293
3764.91084,0.41260
3762.98209,0.41196
3761.05335,0.41123
3759.12460,0.41056
3757.19586,0.41003
3755.26711,0.40957
3753.33837,0.40906
3751.40962,0.40843
3749.48088,0.40764
3747.55213,0.40692
3745.62339,0.40618
3743.69464,0.40511
3741.76590,0.40405
3739.83715,0.40333
3737.90841,0.40257
3735.97966,0.40127
3734.05091,0.39973
3732.12217,0.39851
3730.19342,0.39741
3728.26468,0.39614
3726.33593,0.39476
3724.40719,0.39332
3722.47844,0.39167
3720.54970,0.38963
3718.62095,0.38736
3716.69221,0.38525
3714.76346,0.38340
3712.83472,0.38142
3710.90597,0.37892
3708.97723,0.37614
3707.04848,0.37333
3705.11974,0.37030
3703.19099,0.36680
3701.26224,0.36310
3699.33350,0.35974
3697.40475,0.35650
3695.47601,0.35277
3693.54726,0.34843
3691.61852,0.34378
3689.68977,0.33868
3687.76103,0.33290
3685.83228,0.32722
3683.90354,0.32200
3681.97479,0.31664
3680.04605,0.31082
3678.11730,0.30458
3676.18856,0.29750
3674.25981,0.29010
3672.33107,0.28368
3670.40232,0.27742
3668.47357,0.27058
3666.54483,0.26388
3664.61608,0.25751
3662.68734,0.25122
3660.75859,0.24504
3658.82985,0.23908
3656.90110,0.23303
3654.97236,0.22695
3653.04361,0.22139
3651.11487,0.21606
3649.18612,0.21045
3647.25738,0.20476
3645.32863,0.19946
3643.39989,0.19466
3641.47114,0.19007
3639.54239,0.18552
3637.61365,0.18123
3635.68490,0.17703
3633.75616,0.17265
3631.82741,0.16840
3629.89867,0.16402
3627.96992,0.15937
3626.04118,0.15529
3624.11243,0.15171
3622.18369,0.14817
3620.25494,0.14460
3618.32620,0.14085
3616.39745,0.13706
3614.46871,0.13355
3612.53996,0.13028
3610.61122,0.12697
3608.68247,0.12345
3606.75372,0.12004
3604.82498,0.11727
3602.89623,0.11468
3600.96749,0.11161
3599.03874,0.10841
3597.11000,0.10558
3595.18125,0.10307
3593.25251,0.10054
3591.32376,0.09796
3589.39502,0.09547
3587.46627,0.09291
3585.53753,0.09038
3583.60878,0.08825
3581.68004,0.08641
3579.75129,0.08475
3577.82254,0.08323
3575.89380,0.08153
3573.96505,0.07963
3572.03631,0.07780
3570.10756,0.07610
3568.17882,0.07457
3566.25007,0.07295
3564.32133,0.07126
3562.39258,0.06978
3560.46384,0.06839
3558.53509,0.06704
3556.60635,0.06598
3554.67760,0.06497
3552.74886,0.06376
3550.82011,0.06275
3548.89137,0.06207
3546.96262,0.06120
3545.03387,0.05998
3543.10513,0.05880
3541.17638,0.05777
3539.24764,0.05682
3537.31889,0.05618
3535.39015,0.05574
3533.46140,0.05502
3531.53266,0.05394
3529.60391,0.05294
3527.67517,0.05220
3525.74642,0.05147
3523.81768,0.05073
3521.88893,0.05005
3519.96019,0.04939
3518.03144,0.04896
3516.10270,0.04873
3514.17395,0.04839
3512.24520,0.04789
3510.31646,0.04733
3508.38771,0.04681
3506.45897,0.04634
3504.53022,0.04591
3502.60148,0.04558
3500.67273,0.04540
3498.74399,0.04513
3496.81524,0.04454
3494.88650,0.04370
3492.95775,0.04294
3491.02901,0.04261
3489.10026,0.04268
3487.17152,0.04263
3485.24277,0.04209
3483.31402,0.04137
3481.38528,0.04093
3479.45653,0.04073
3477.52779,0.04054
3475.59904,0.04036
3473.67030,0.04014
3471.74155,0.03982
3469.81281,0.03945
3467.88406,0.03924
3465.95532,0.03930
3464.02657,0.03925
3462.09783,0.03896
3460.16908,0.03878
3458.24034,0.03886
3456.31159,0.03889
3454.38285,0.03864
3452.45410,0.03838
3450.52535,0.03839
3448.59661,0.03837
3446.66786,0.03801
3444.73912,0.03769
3442.81037,0.03757
3440.88163,0.03751
3438.95288,0.03760
3437.02414,0.03759
3435.09539,0.03737
3433.16665,0.03735
3431.23790,0.03746
3429.30916,0.03743
3427.38041,0.03757
3425.45167,0.03796
3423.52292,0.03793
3421.59418,0.03741
3419.66543,0.03715
3417.73668,0.03733
3415.80794,0.03751
3413.87919,0.03759
3411.95045,0.03765
3410.02170,0.03776
3408.09296,0.03782
3406.16421,0.03782
3404.23547,0.03797
3402.30672,0.03809
3400.37798,0.03784
3398.44923,0.03757
3396.52049,0.03754
3394.59174,0.03747
3392.66300,0.03724
3390.73425,0.03724
3388.80550,0.03747
3386.87676,0.03756
3384.94801,0.03752
3383.01927,0.03748
3381.09052,0.03744
3379.16178,0.03760
3377.23303,0.03808
3375.30429,0.03850
3373.37554,0.03832
3371.44680,0.03772
3369.51805,0.03746
3367.58931,0.03760
3365.66056,0.03760
3363.73182,0.03739
3361.80307,0.03723
3359.87433,0.03744
3357.94558,0.03781
3356.01683,0.03789
3354.08809,0.03795
3352.15934,0.03836
3350.23060,0.03883
3348.30185,0.03909
3346.37311,0.03913
3344.44436,0.03897
3342.51562,0.03877
3340.58687,0.03873
3338.65813,0.03888
3336.72938,0.03917
3334.80064,0.03950
3332.87189,0.03985
3330.94315,0.04022
3329.01440,0.04052
3327.08566,0.04066
3325.15691,0.04069
3323.22816,0.04071
3321.29942,0.04087
3319.37067,0.04131
3317.44193,0.04204
3315.51318,0.04267
3313.58444,0.04294
3311.65569,0.04301
3309.72695,0.04313
3307.79820,0.04334
3305.86946,0.04334
3303.94071,0.04322
3302.01197,0.04330
3300.08322,0.04344
3298.15448,0.04349
3296.22573,0.04347
3294.29698,0.04373
3292.36824,0.04444
3290.43949,0.04505
3288.51075,0.04538
3286.58200,0.04567
3284.65326,0.04581
3282.72451,0.04586
3280.79577,0.04612
3278.86702,0.04659
3276.93828,0.04707
3275.00953,0.04771
3273.08079,0.04851
3271.15204,0.04895
3269.22330,0.04898
3267.29455,0.04940
3265.36581,0.05031
3263.43706,0.05094
3261.50831,0.05131
3259.57957,0.05189
3257.65082,0.05259
3255.72208,0.05332
3253.79333,0.05395
3251.86459,0.05448
3249.93584,0.05535
3248.00710,0.05625
3246.07835,0.05662
3244.14961,0.05691
3242.22086,0.05766
3240.29212,0.05885
3238.36337,0.05987
3236.43463,0.06013
3234.50588,0.06003
3232.57713,0.06028
3230.64839,0.06084
3228.71964,0.06162
3226.79090,0.06253
3224.86215,0.06328
3222.93341,0.06401
3221.00466,0.06481
3219.07592,0.06559
3217.14717,0.06628
3215.21843,0.06685
3213.28968,0.06754
3211.36094,0.06848
3209.43219,0.06927
3207.50345,0.06952
3205.57470,0.06954
3203.64596,0.06996
3201.71721,0.07107
3199.78846,0.07251
3197.85972,0.07388
3195.93097,0.07496
3194.00223,0.07543
3192.07348,0.07570
3190.14474,0.07655
3188.21599,0.07755
3186.28725,0.07812
3184.35850,0.07879
3182.42976,0.07990
3180.50101,0.08091
3178.57227,0.08162
3176.64352,0.08231
3174.71478,0.08314
3172.78603,0.08410
3170.85729,0.08499
3168.92854,0.08567
3166.99979,0.08629
3165.07105,0.08699
3163.14230,0.08772
3161.21356,0.08845
3159.28481,0.08928
3157.35607,0.09025
3155.42732,0.09128
3153.49858,0.09227
3151.56983,0.09318
3149.64109,0.09415
3147.71234,0.09511
3145.78360,0.09597
3143.85485,0.09674
3141.92611,0.09744
3139.99736,0.09817
3138.06861,0.09896
3136.13987,0.09961
3134.21112,0.10025
3132.28238,0.10120
3130.35363,0.10237
3128.42489,0.10343
3126.49614,0.10416
3124.56740,0.10478
3122.63865,0.10561
3120.70991,0.10648
3118.78116,0.10722
3116.85242,0.10804
3114.92367,0.10891
3112.99493,0.10949
3111.06618,0.10994
3109.13744,0.11081
3107.20869,0.11201
3105.27994,0.11301
3103.35120,0.11362
3101.42245,0.11408
3099.49371,0.11467
3097.56496,0.11552
3095.63622,0.11643
3093.70747,0.11718
3091.77873,0.11782
3089.84998,0.11837
3087.92124,0.11885
3085.99249,0.11951
3084.06375,0.12036
3082.13500,0.12115
3080.20626,0.12188
3078.27751,0.12259
3076.34877,0.12308
3074.42002,0.12346
3072.49127,0.12399
3070.56253,0.12465
3068.63378,0.12536
3066.70504,0.12606
3064.77629,0.12680
3062.84755,0.12754
3060.91880,0.12821
3058.99006,0.12890
3057.06131,0.12957
3055.13257,0.12995
3053.20382,0.13022
3051.27508,0.13083
3049.34633,0.13157
3047.41759,0.13194
3045.48884,0.13191
3043.56009,0.13191
3041.63135,0.13227
3039.70260,0.13267
3037.77386,0.13276
3035.84511,0.13262
3033.91637,0.13236
3031.98762,0.13208
3030.05888,0.13188
3028.13013,0.13157
3026.20139,0.13087
3024.27264,0.12987
3022.34390,0.12883
3020.41515,0.12782
3018.48641,0.12687
3016.55766,0.12591
3014.62892,0.12487
3012.70017,0.12355
3010.77142,0.12196
3008.84268,0.12056
3006.91393,0.11946
3004.98519,0.11821
3003.05644,0.11678
3001.12770,0.11544
2999.19895,0.11414
2997.27021,0.11300
2995.34146,0.11222
2993.41272,0.11140
2991.48397,0.11001
2989.55523,0.10809
2987.62648,0.10610
2985.69774,0.10420
2983.76899,0.10215
2981.84025,0.09971
2979.91150,0.09698
2977.98275,0.09414
2976.05401,0.09129
2974.12526,0.08853
2972.19652,0.08586
2970.26777,0.08328
2968.33903,0.08110
2966.41028,0.07955
2964.48154,0.07826
2962.55279,0.07681
2960.62405,0.07539
2958.69530,0.07419
2956.76656,0.07317
2954.83781,0.07224
2952.90907,0.07126
2950.98032,0.07005
2949.05157,0.06853
2947.12283,0.06715
2945.19408,0.06618
2943.26534,0.06523
2941.33659,0.06427
2939.40785,0.06361
2937.47910,0.06336
2935.55036,0.06334
2933.62161,0.06321
2931.69287,0.06287
2929.76412,0.06251
2927.83538,0.06230
2925.90663,0.06216
2923.97789,0.06199
2922.04914,0.06197
2920.12040,0.06227
2918.19165,0.06263
2916.26290,0.06288
2914.33416,0.06320
2912.40541,0.06361
2910.47667,0.06386
2908.54792,0.06385
2906.61918,0.06387
2904.69043,0.06413
2902.76169,0.06440
2900.83294,0.06469
2898.90420,0.06534
2896.97545,0.06623
2895.04671,0.06708
2893.11796,0.06791
2891.18922,0.06860
2889.26047,0.06926
2887.33172,0.07011
2885.40298,0.07097
2883.47423,0.07155
2881.54549,0.07177
2879.61674,0.07183
2877.68800,0.07197
2875.75925,0.07220
2873.83051,0.07252
2871.90176,0.07295
2869.97302,0.07344
2868.04427,0.07418
2866.11553,0.07509
2864.18678,0.07566
2862.25804,0.07580
2860.32929,0.07588
2858.40055,0.07611
2856.47180,0.07666
2854.54305,0.07758
2852.61431,0.07865
2850.68556,0.07989
2848.75682,0.08170
2846.82807,0.08407
2844.89933,0.08659
2842.97058,0.08923
2841.04184,0.09194
2839.11309,0.09454
2837.18435,0.09726
2835.25560,0.10021
2833.32686,0.10311
2831.39811,0.10604
2829.46937,0.10916
2827.54062,0.11211
2825.61188,0.11469
2823.68313,0.11729
2821.75438,0.11998
2819.82564,0.12233
2817.89689,0.12442
2815.96815,0.12655
2814.03940,0.12869
2812.11066,0.13067
2810.18191,0.13239
2808.25317,0.13391
2806.32442,0.13557
2804.39568,0.13736
2802.46693,0.13890
2800.53819,0.14021
2798.60944,0.14155
2796.68070,0.14282
2794.75195,0.14383
2792.82320,0.14470
2790.89446,0.14559
2788.96571,0.14643
2787.03697,0.14711
2785.10822,0.14764
2783.17948,0.14828
2781.25073,0.14917
2779.32199,0.15001
2777.39324,0.15059
2775.46450,0.15101
2773.53575,0.15139
2771.60701,0.15188
2769.67826,0.15253
2767.74952,0.15315
2765.82077,0.15363
2763.89203,0.15407
2761.96328,0.15442
2760.03453,0.15456
2758.10579,0.15469
2756.17704,0.15504
2754.24830,0.15553
2752.31955,0.15598
2750.39081,0.15626
2748.46206,0.15624
2746.53332,0.15603
2744.60457,0.15603
2742.67583,0.15629
2740.74708,0.15657
2738.81834,0.15669
2736.88959,0.15675
2734.96085,0.15702
2733.03210,0.15750
2731.10336,0.15798
2729.17461,0.15835
2727.24586,0.15864
2725.31712,0.15901
2723.38837,0.15957
2721.45963,0.16017
2719.53088,0.16081
2717.60214,0.16155
2715.67339,0.16234
2713.74465,0.16319
2711.81590,0.16422
2709.88716,0.16533
2707.95841,0.16639
2706.02967,0.16738
2704.10092,0.16837
2702.17218,0.16939
2700.24343,0.17044
2698.31468,0.17151
2696.38594,0.17249
2694.45719,0.17328
2692.52845,0.17405
2690.59970,0.17490
2688.67096,0.17577
2686.74221,0.17654
2684.81347,0.17717
2682.88472,0.17780
2680.95598,0.17860
2679.02723,0.17941
2677.09849,0.17999
2675.16974,0.18044
2673.24100,0.18101
2671.31225,0.18167
2669.38351,0.18229
2667.45476,0.18284
2665.52601,0.18327
2663.59727,0.18366
2661.66852,0.18407
2659.73978,0.18447
2657.81103,0.18494
2655.88229,0.18536
2653.95354,0.18555
2652.02480,0.18576
2650.09605,0.18636
2648.16731,0.18721
2646.23856,0.18789
2644.30982,0.18836
2642.38107,0.18893
2640.45233,0.18977
2638.52358,0.19068
2636.59484,0.19138
2634.66609,0.19191
2632.73734,0.19250
2630.80860,0.19327
2628.87985,0.19414
2626.95111,0.19494
2625.02236,0.19568
2623.09362,0.19642
2621.16487,0.19713
2619.23613,0.19779
2617.30738,0.19844
2615.37864,0.19910
2613.44989,0.19986
2611.52115,0.20060
2609.59240,0.20114
2607.66366,0.20154
2605.73491,0.20204
2603.80616,0.20271
2601.87742,0.20347
2599.94867,0.20412
2598.01993,0.20461
2596.09118,0.20502
2594.16244,0.20538
2592.23369,0.20572
2590.30495,0.20620
2588.37620,0.20690
2586.44746,0.20757
2584.51871,0.20794
2582.58997,0.20814
2580.66122,0.20847
2578.73248,0.20885
2576.80373,0.20902
2574.87499,0.20907
2572.94624,0.20925
2571.01749,0.20951
2569.08875,0.20961
2567.16000,0.20974
2565.23126,0.21010
2563.30251,0.21036
2561.37377,0.21033
2559.44502,0.21034
2557.51628,0.21068
2555.58753,0.21117
2553.65879,0.21152
2551.73004,0.21175
2549.80130,0.21195
2547.87255,0.21213
2545.94381,0.21235
2544.01506,0.21251
2542.08631,0.21252
2540.15757,0.21258
2538.22882,0.21292
2536.30008,0.21342
2534.37133,0.21387
2532.44259,0.21433
2530.51384,0.21492
2528.58510,0.21561
2526.65635,0.21623
2524.72761,0.21672
2522.79886,0.21704
2520.87012,0.21718
2518.94137,0.21728
2517.01263,0.21752
2515.08388,0.21805
2513.15514,0.21875
2511.22639,0.21940
2509.29764,0.22016
2507.36890,0.22117
2505.44015,0.22214
2503.51141,0.22299
2501.58266,0.22398
2499.65392,0.22514
2497.72517,0.22617
2495.79643,0.22700
2493.86768,0.22773
2491.93894,0.22837
2490.01019,0.22903
2488.08145,0.22984
2486.15270,0.23069
2484.22396,0.23145
2482.29521,0.23217
2480.36647,0.23283
2478.43772,0.23344
2476.50897,0.23416
2474.58023,0.23502
2472.65148,0.23581
2470.72274,0.23640
2468.79399,0.23686
2466.86525,0.23727
2464.93650,0.23773
2463.00776,0.23832
2461.07901,0.23897
2459.15027,0.23971
2457.22152,0.24051
2455.29278,0.24124
2453.36403,0.24184
2451.43529,0.24253
2449.50654,0.24339
2447.57779,0.24426
2445.64905,0.24516
2443.72030,0.24617
2441.79156,0.24713
2439.86281,0.24793
2437.93407,0.24875
2436.00532,0.24966
2434.07658,0.25058
2432.14783,0.25160
2430.21909,0.25263
2428.29034,0.25350
2426.36160,0.25439
2424.43285,0.25542
2422.50411,0.25652
2420.57536,0.25761
2418.64662,0.25861
2416.71787,0.25962
2414.78912,0.26072
2412.86038,0.26183
2410.93163,0.26293
2409.00289,0.26404
2407.07414,0.26519
2405.14540,0.26640
2403.21665,0.26754
2401.28791,0.26848
2399.35916,0.26931
2397.43042,0.27019
2395.50167,0.27122
2393.57293,0.27231
2391.64418,0.27335
2389.71544,0.27416
2387.78669,0.27464
2385.85795,0.27522
2383.92920,0.27611
2382.00045,0.27702
2380.07171,0.27785
2378.14296,0.27870
2376.21422,0.27950
2374.28547,0.28022
2372.35673,0.28096
2370.42798,0.28177
2368.49924,0.28266
2366.57049,0.28349
2364.64175,0.28424
2362.71300,0.28498
2360.78426,0.28568
2358.85551,0.28633
2356.92677,0.28704
2354.99802,0.28785
2353.06927,0.28871
2351.14053,0.28956
2349.21178,0.29023
2347.28304,0.29077
2345.35429,0.29143
2343.42555,0.29223
2341.49680,0.29296
2339.56806,0.29354
2337.63931,0.29400
2335.71057,0.29437
2333.78182,0.29468
2331.85308,0.29508
2329.92433,0.29561
2327.99559,0.29609
2326.06684,0.29647
2324.13810,0.29678
2322.20935,0.29706
2320.28060,0.29732
2318.35186,0.29750
2316.42311,0.29757
2314.49437,0.29769
2312.56562,0.29780
2310.63688,0.29774
2308.70813,0.29759
2306.77939,0.29738
2304.85064,0.29709
2302.92190,0.29683
2300.99315,0.29668
2299.06441,0.29651
2297.13566,0.29618
2295.20692,0.29591
2293.27817,0.29580
2291.34943,0.29571
2289.42068,0.29560
2287.49193,0.29558
2285.56319,0.29561
2283.63444,0.29553
2281.70570,0.29528
2279.77695,0.29491
2277.84821,0.29454
2275.91946,0.29421
2273.99072,0.29388
2272.06197,0.29341
2270.13323,0.29274
2268.20448,0.29203
2266.27574,0.29135
2264.34699,0.29054
2262.41825,0.28962
2260.48950,0.28877
2258.56075,0.28795
2256.63201,0.28718
2254.70326,0.28654
2252.77452,0.28596
2250.84577,0.28532
2248.91703,0.28467
2246.98828,0.28418
2245.05954,0.28383
2243.13079,0.28360
2241.20205,0.28343
2239.27330,0.28329
2237.34456,0.28329
2235.41581,0.28346
2233.48707,0.28369
2231.55832,0.28395
2229.62958,0.28427
2227.70083,0.28465
2225.77208,0.28494
2223.84334,0.28511
2221.91459,0.28534
2219.98585,0.28567
2218.05710,0.28586
2216.12836,0.28587
2214.19961,0.28596
2212.27087,0.28619
2210.34212,0.28622
2208.41338,0.28594
2206.48463,0.28557
2204.55589,0.28514
2202.62714,0.28443
2200.69840,0.28357
2198.76965,0.28282
2196.84090,0.28203
2194.91216,0.28107
2192.98341,0.27999
2191.05467,0.27887
2189.12592,0.27764
2187.19718,0.27619
2185.26843,0.27459
2183.33969,0.27304
2181.41094,0.27155
2179.48220,0.26996
2177.55345,0.26830
2175.62471,0.26673
2173.69596,0.26518
2171.76722,0.26349
2169.83847,0.26172
2167.90973,0.26015
2165.98098,0.25881
2164.05223,0.25759
2162.12349,0.25659
2160.19474,0.25571
2158.26600,0.25471
2156.33725,0.25375
2154.40851,0.25301
2152.47976,0.25220
2150.55102,0.25125
2148.62227,0.25059
2146.69353,0.25030
2144.76478,0.25008
2142.83604,0.24975
2140.90729,0.24930
2138.97855,0.24881
2137.04980,0.24853
2135.12106,0.24854
2133.19231,0.24864
2131.26356,0.24878
2129.33482,0.24911
2127.40607,0.24949
2125.47733,0.24971
2123.54858,0.24993
2121.61984,0.25028
2119.69109,0.25060
2117.76235,0.25084
2115.83360,0.25131
2113.90486,0.25207
2111.97611,0.25287
2110.04737,0.25356
2108.11862,0.25412
2106.18988,0.25459
2104.26113,0.25519
2102.33238,0.25595
2100.40364,0.25658
2098.47489,0.25696
2096.54615,0.25737
2094.61740,0.25809
2092.68866,0.25891
2090.75991,0.25950
2088.83117,0.25996
2086.90242,0.26045
2084.97368,0.26082
2083.04493,0.26088
2081.11619,0.26074
2079.18744,0.26055
2077.25870,0.26033
2075.32995,0.26011
2073.40121,0.25987
2071.47246,0.25972
2069.54371,0.25974
2067.61497,0.25982
2065.68622,0.25988
2063.75748,0.25985
2061.82873,0.25972
2059.89999,0.25979
2057.97124,0.26007
2056.04250,0.26025
2054.11375,0.26038
2052.18501,0.26073
2050.25626,0.26113
2048.32752,0.26128
2046.39877,0.26139
2044.47003,0.26171
2042.54128,0.26217
2040.61254,0.26276
2038.68379,0.26348
2036.75504,0.26422
2034.82630,0.26498
2032.89755,0.26579
2030.96881,0.26658
2029.04006,0.26749
2027.11132,0.26858
2025.18257,0.26975
2023.25383,0.27097
2021.32508,0.27231
2019.39634,0.27375
2017.46759,0.27516
2015.53885,0.27644
2013.61010,0.27756
2011.68136,0.27859
2009.75261,0.27974
2007.82386,0.28100
2005.89512,0.28210
2003.96637,0.28292
2002.03763,0.28365
2000.10888,0.28439
1998.18014,0.28519
1996.25139,0.28611
1994.32265,0.28699
1992.39390,0.28770
1990.46516,0.28822
1988.53641,0.28857
1986.60767,0.28885
1984.67892,0.28920
1982.75018,0.28950
1980.82143,0.28962
1978.89269,0.28961
1976.96394,0.28953
1975.03519,0.28936
1973.10645,0.28909
1971.17770,0.28876
1969.24896,0.28836
1967.32021,0.28796
1965.39147,0.28766
1963.46272,0.28742
1961.53398,0.28720
1959.60523,0.28692
1957.67649,0.28667
1955.74774,0.28676
1953.81900,0.28717
1951.89025,0.28771
1949.96151,0.28837
1948.03276,0.28912
1946.10402,0.29003
1944.17527,0.29115
1942.24652,0.29232
1940.31778,0.29331
1938.38903,0.29434
1936.46029,0.29561
1934.53154,0.29692
1932.60280,0.29801
1930.67405,0.29889
1928.74531,0.29969
1926.81656,0.30059
1924.88782,0.30166
1922.95907,0.30264
1921.03033,0.30325
1919.10158,0.30367
1917.17284,0.30413
1915.24409,0.30459
1913.31534,0.30506
1911.38660,0.30550
1909.45785,0.30577
1907.52911,0.30583
1905.60036,0.30590
1903.67162,0.30615
1901.74287,0.30628
1899.81413,0.30612
1897.88538,0.30596
1895.95664,0.30596
1894.02789,0.30597
1892.09915,0.30584
1890.17040,0.30561
1888.24166,0.30527
1886.31291,0.30469
1884.38417,0.30408
1882.45542,0.30374
1880.52667,0.30347
1878.59793,0.30291
1876.66918,0.30217
1874.74044,0.30139
1872.81169,0.30065
1870.88295,0.30006
1868.95420,0.29942
1867.02546,0.29852
1865.09671,0.29745
1863.16797,0.29634
1861.23922,0.29519
1859.31048,0.29408
1857.38173,0.29299
1855.45299,0.29181
1853.52424,0.29054
1851.59549,0.28925
1849.66675,0.28792
1847.73800,0.28641
1845.80926,0.28467
1843.88051,0.28284
1841.95177,0.28110
1840.02302,0.27937
1838.09428,0.27751
1836.16553,0.27552
1834.23679,0.27346
1832.30804,0.27136
1830.37930,0.26913
1828.45055,0.26664
1826.52181,0.26395
1824.59306,0.26129
1822.66432,0.25872
1820.73557,0.25602
1818.80682,0.25304
1816.87808,0.24983
1814.94933,0.24651
1813.02059,0.24311
1811.09184,0.23939
1809.16310,0.23535
1807.23435,0.23128
1805.30561,0.22725
1803.37686,0.22300
1801.44812,0.21824
1799.51937,0.21320
1797.59063,0.20827
1795.66188,0.20339
1793.73314,0.19815
1791.80439,0.19234
1789.87565,0.18646
1787.94690,0.18072
1786.01815,0.17470
1784.08941,0.16822
1782.16066,0.16132
1780.23192,0.15379
1778.30317,0.14578
1776.37443,0.13775
1774.44568,0.12920
1772.51694,0.11926
1770.58819,0.10894
1768.65945,0.09959
1766.73070,0.09113
1764.80196,0.08365
1762.87321,0.07671
1760.94447,0.07017
1759.01572,0.06485
1757.08697,0.06064
1755.15823,0.05722
1753.22948,0.05446
1751.30074,0.05212
1749.37199,0.05020
1747.44325,0.04874
1745.51450,0.04769
1743.58576,0.04716
1741.65701,0.04721
1739.72827,0.04755
1737.79952,0.04815
1735.87078,0.04916
1733.94203,0.05061
1732.01329,0.05227
1730.08454,0.05392
1728.15580,0.05553
1726.22705,0.05707
1724.29830,0.05871
1722.36956,0.06049
1720.44081,0.06235
1718.51207,0.06459
1716.58332,0.06722
1714.65458,0.06991
1712.72583,0.07272
1710.79709,0.07561
1708.86834,0.07848
1706.93960,0.08166
1705.01085,0.08520
1703.08211,0.08858
1701.15336,0.09186
1699.22462,0.09494
1697.29587,0.09733
1695.36713,0.09929
1693.43838,0.10086
1691.50963,0.10196
1689.58089,0.10265
1687.65214,0.10287
1685.72340,0.10247
1683.79465,0.10117
1681.86591,0.09946
1679.93716,0.09782
1678.00842,0.09610
1676.07967,0.09414
1674.15093,0.09206
1672.22218,0.09028
1670.29344,0.08867
1668.36469,0.08725
1666.43595,0.08636
1664.50720,0.08574
1662.57845,0.08510
1660.64971,0.08464
1658.72096,0.08443
1656.79222,0.08446
1654.86347,0.08478
1652.93473,0.08506
1651.00598,0.08509
1649.07724,0.08523
1647.14849,0.08546
1645.21975,0.08552
1643.29100,0.08540
1641.36226,0.08527
1639.43351,0.08525
1637.50477,0.08527
1635.57602,0.08510
1633.64728,0.08467
1631.71853,0.08426
1629.78978,0.08384
1627.86104,0.08331
1625.93229,0.08274
1624.00355,0.08212
1622.07480,0.08135
1620.14606,0.08063
1618.21731,0.08003
1616.28857,0.07931
1614.35982,0.07848
1612.43108,0.07743
1610.50233,0.07595
1608.57359,0.07414
1606.64484,0.07228
1604.71610,0.07046
1602.78735,0.06860
1600.85861,0.06674
1598.92986,0.06505
1597.00111,0.06372
1595.07237,0.06299
1593.14362,0.06330
1591.21488,0.06491
1589.28613,0.06766
1587.35739,0.07130
1585.42864,0.07568
1583.49990,0.08058
1581.57115,0.08576
1579.64241,0.09091
1577.71366,0.09632
1575.78492,0.10222
1573.85617,0.10723
1571.92743,0.11108
1569.99868,0.11477
1568.06993,0.11816
1566.14119,0.12076
1564.21244,0.12277
1562.28370,0.12437
1560.35495,0.12569
1558.42621,0.12652
1556.49746,0.12656
1554.56872,0.12621
1552.63997,0.12579
1550.71123,0.12548
1548.78248,0.12537
1546.85374,0.12539
1544.92499,0.12523
1542.99625,0.12473
1541.06750,0.12368
1539.13876,0.12181
1537.21001,0.11982
1535.28126,0.11785
1533.35252,0.11520
1531.42377,0.11192
1529.49503,0.10838
1527.56628,0.10424
1525.63754,0.09935
1523.70879,0.09385
1521.78005,0.08738
1519.85130,0.08070
1517.92256,0.07503
1515.99381,0.07020
1514.06507,0.06624
1512.13632,0.06315
1510.20758,0.06083
1508.27883,0.05932
1506.35008,0.05846
1504.42134,0.05834
1502.49259,0.05915
1500.56385,0.06090
1498.63510,0.06345
1496.70636,0.06641
1494.77761,0.06917
1492.84887,0.07141
1490.92012,0.07325
1488.99138,0.07462
1487.06263,0.07516
1485.13389,0.07472
1483.20514,0.07334
1481.27640,0.07107
1479.34765,0.06814
1477.41891,0.06473
1475.49016,0.06084
1473.56141,0.05646
1471.63267,0.05209
1469.70392,0.04881
1467.77518,0.04682
1465.84643,0.04566
1463.91769,0.04515
1461.98894,0.04522
1460.06020,0.04559
1458.13145,0.04588
1456.20271,0.04622
1454.27396,0.04679
1452.34522,0.04733
1450.41647,0.04767
1448.48773,0.04794
1446.55898,0.04829
1444.63024,0.04858
1442.70149,0.04867
1440.77274,0.04853
1438.84400,0.04805
1436.91525,0.04702
1434.98651,0.04571
1433.05776,0.04470
1431.12902,0.04403
1429.20027,0.04356
1427.27153,0.04334
1425.34278,0.04356
1423.41404,0.04419
1421.48529,0.04502
1419.55655,0.04604
1417.62780,0.04719
1415.69906,0.04826
1413.77031,0.04928
1411.84156,0.05024
1409.91282,0.05096
1407.98407,0.05138
1406.05533,0.05148
1404.12658,0.05122
1402.19784,0.05081
1400.26909,0.05041
1398.34035,0.04990
1396.41160,0.04929
1394.48286,0.04857
1392.55411,0.04767
1390.62537,0.04661
1388.69662,0.04546
1386.76788,0.04430
1384.83913,0.04321
1382.91039,0.04212
1380.98164,0.04115
1379.05289,0.04046
1377.12415,0.04005
1375.19540,0.03999
1373.26666,0.04025
1371.33791,0.04068
1369.40917,0.04117
1367.48042,0.04169
1365.55168,0.04228
1363.62293,0.04302
1361.69419,0.04392
1359.76544,0.04481
1357.83670,0.04559
1355.90795,0.04617
1353.97921,0.04641
1352.05046,0.04634
1350.12172,0.04611
1348.19297,0.04573
1346.26422,0.04517
1344.33548,0.04465
1342.40673,0.04430
1340.47799,0.04388
1338.54924,0.04328
1336.62050,0.04279
1334.69175,0.04262
1332.76301,0.04266
1330.83426,0.04272
1328.90552,0.04270
1326.97677,0.04261
1325.04803,0.04250
1323.11928,0.04250
1321.19054,0.04277
1319.26179,0.04335
1317.33304,0.04402
1315.40430,0.04465
1313.47555,0.04530
1311.54681,0.04604
1309.61806,0.04682
1307.68932,0.04748
1305.76057,0.04789
1303.83183,0.04821
1301.90308,0.04849
1299.97434,0.04859
1298.04559,0.04837
1296.11685,0.04782
1294.18810,0.04702
1292.25936,0.04615
1290.33061,0.04531
1288.40187,0.04443
1286.47312,0.04346
1284.54437,0.04251
1282.61563,0.04168
1280.68688,0.04100
1278.75814,0.04044
1276.82939,0.03984
1274.90065,0.03915
1272.97190,0.03861
1271.04316,0.03827
1269.11441,0.03795
1267.18567,0.03759
1265.25692,0.03726
1263.32818,0.03705
1261.39943,0.03693
1259.47069,0.03679
1257.54194,0.03659
1255.61320,0.03636
1253.68445,0.03614
1251.75570,0.03598
1249.82696,0.03594
1247.89821,0.03595
1245.96947,0.03593
1244.04072,0.03594
1242.11198,0.03610
1240.18323,0.03648
1238.25449,0.03692
1236.32574,0.03723
1234.39700,0.03763
1232.46825,0.03821
1230.53951,0.03883
1228.61076,0.03944
1226.68202,0.03992
1224.75327,0.04025
1222.82452,0.04064
1220.89578,0.04129
1218.96703,0.04215
1217.03829,0.04296
1215.10954,0.04355
1213.18080,0.04393
1211.25205,0.04432
1209.32331,0.04482
1207.39456,0.04527
1205.46582,0.04554
1203.53707,0.04564
1201.60833,0.04568
1199.67958,0.04570
1197.75084,0.04571
1195.82209,0.04568
1193.89335,0.04551
1191.96460,0.04506
1190.03585,0.04423
1188.10711,0.04317
1186.17836,0.04201
1184.24962,0.04071
1182.32087,0.03941
1180.39213,0.03829
1178.46338,0.03735
1176.53464,0.03646
1174.60589,0.03552
1172.67715,0.03471
1170.74840,0.03431
1168.81966,0.03438
1166.89091,0.03469
1164.96217,0.03514
1163.03342,0.03577
1161.10467,0.03638
1159.17593,0.03674
1157.24718,0.03696
1155.31844,0.03710
1153.38969,0.03710
1151.46095,0.03699
1149.53220,0.03683
1147.60346,0.03642
1145.67471,0.03569
1143.74597,0.03475
1141.81722,0.03368
1139.88848,0.03257
1137.95973,0.03172
1136.03099,0.03125
1134.10224,0.03095
1132.17350,0.03068
1130.24475,0.03056
1128.31600,0.03089
1126.38726,0.03165
1124.45851,0.03225
1122.52977,0.03245
1120.60102,0.03282
1118.67228,0.03354
1116.74353,0.03403
1114.81479,0.03410
1112.88604,0.03409
1110.95730,0.03430
1109.02855,0.03474
1107.09981,0.03534
1105.17106,0.03589
1103.24232,0.03608
1101.31357,0.03604
1099.38483,0.03602
1097.45608,0.03569
1095.52733,0.03496
1093.59859,0.03434
1091.66984,0.03415
1089.74110,0.03445
1087.81235,0.03485
1085.88361,0.03473
1083.95486,0.03459
1082.02612,0.03513
1080.09737,0.03591
1078.16863,0.03649
1076.23988,0.03712
1074.31114,0.03792
1072.38239,0.03875
1070.45365,0.03971
1068.52490,0.04078
1066.59615,0.04171
1064.66741,0.04277
1062.73866,0.04432
1060.80992,0.04593
1058.88117,0.04702
1056.95243,0.04776
1055.02368,0.04848
1053.09494,0.04899
1051.16619,0.04910
1049.23745,0.04918
1047.30870,0.04942
1045.37996,0.04949
1043.45121,0.04955
1041.52247,0.05027
1039.59372,0.05150
1037.66498,0.05253
1035.73623,0.05323
1033.80748,0.05387
1031.87874,0.05453
1029.94999,0.05512
1028.02125,0.05566
1026.09250,0.05605
1024.16376,0.05622
1022.23501,0.05648
1020.30627,0.05710
1018.37752,0.05801
1016.44878,0.05890
1014.52003,0.05949
1012.59129,0.05979
1010.66254,0.06000
1008.73380,0.06036
1006.80505,0.06103
1004.87631,0.06176
1002.94756,0.06212
1001.01881,0.06220
999.09007,0.06245
997.16132,0.06293
995.23258,0.06354
993.30383,0.06450
991.37509,0.06595
989.44634,0.06761
987.51760,0.06942
985.58885,0.07160
983.66011,0.07408
981.73136,0.07660
979.80262,0.07901
977.87387,0.08106
975.94513,0.08272
974.01638,0.08426
972.08763,0.08580
970.15889,0.08723
968.23014,0.08858
966.30140,0.09027
964.37265,0.09250
962.44391,0.09487
960.51516,0.09721
958.58642,0.09981
956.65767,0.10268
954.72893,0.10559
952.80018,0.10845
950.87144,0.11106
948.94269,0.11319
947.01395,0.11487
945.08520,0.11620
943.15646,0.11700
941.22771,0.11736
939.29896,0.11741
937.37022,0.11707
935.44147,0.11653
933.51273,0.11609
931.58398,0.11576
929.65524,0.11560
927.72649,0.11549
925.79775,0.11504
923.86900,0.11429
921.94026,0.11354
920.01151,0.11288
918.08277,0.11220
916.15402,0.11109
914.22528,0.10950
912.29653,0.10803
910.36779,0.10697
908.43904,0.10574
906.51029,0.10366
904.58155,0.10097
902.65280,0.09846
900.72406,0.09669
898.79531,0.09614
896.86657,0.09715
894.93782,0.09915
893.00908,0.10135
891.08033,0.10399
889.15159,0.10727
887.22284,0.11043
885.29410,0.11286
883.36535,0.11476
881.43661,0.11631
879.50786,0.11731
877.57911,0.11793
875.65037,0.11865
873.72162,0.11962
871.79288,0.12068
869.86413,0.12163
867.93539,0.12258
866.00664,0.12367
864.07790,0.12463
862.14915,0.12522
860.22041,0.12570
858.29166,0.12612
856.36292,0.12594
854.43417,0.12500
852.50543,0.12410
850.57668,0.12365
848.64794,0.12325
846.71919,0.12262
844.79044,0.12184
842.86170,0.12093
840.93295,0.11984
839.00421,0.11851
837.07546,0.11751
835.14672,0.11742
833.21797,0.11785
831.28923,0.11797
829.36048,0.11793
827.43174,0.11838
825.50299,0.11916
823.57425,0.11959
821.64550,0.11967
819.71676,0.11988
817.78801,0.12038
815.85926,0.12090
813.93052,0.12112
812.00177,0.12135
810.07303,0.12191
808.14428,0.12223
806.21554,0.12198
804.28679,0.12161
802.35805,0.12137
800.42930,0.12133
798.50056,0.12153
796.57181,0.12150
794.64307,0.12111
792.71432,0.12091
790.78558,0.12094
788.85683,0.12066
786.92809,0.11966
784.99934,0.11835
783.07059,0.11760
781.14185,0.11710
779.21310,0.11598
777.28436,0.11432
775.35561,0.11269
773.42687,0.11143
771.49812,0.11052
769.56938,0.10940
767.64063,0.10792
765.71189,0.10653
763.78314,0.10516
761.85440,0.10363
759.92565,0.10238
757.99691,0.10120
756.06816,0.09945
754.13942,0.09767
752.21067,0.09654
750.28192,0.09584
748.35318,0.09517
746.42443,0.09421
744.49569,0.09276
742.56694,0.09111
740.63820,0.08972
738.70945,0.08860
736.78071,0.08761
734.85196,0.08665
732.92322,0.08538
730.99447,0.08362
729.06573,0.08197
727.13698,0.08105
725.20824,0.08043
723.27949,0.07940
721.35074,0.07825
719.42200,0.07746
717.49325,0.07703
715.56451,0.07684
713.63576,0.07663
711.70702,0.07601
709.77827,0.07508
707.84953,0.07464
705.92078,0.07495
703.99204,0.07527
702.06329,0.07518
700.13455,0.07485
698.20580,0.07439
696.27706,0.07383
694.34831,0.07337
692.41957,0.07304
690.49082,0.07267
688.56207,0.07206
686.63333,0.07120
684.70458,0.07012
682.77584,0.06903
680.84709,0.06814
678.91835,0.06717
676.98960,0.06593
675.06086,0.06490
673.13211,0.06434
671.20337,0.06388
669.27462,0.06351
667.34588,0.06383
665.41713,0.06472
663.48839,0.06517
661.55964,0.06444
659.63090,0.06332
657.70215,0.06351
655.77340,0.06493
653.84466,0.06613
651.91591,0.06669
649.98717,0.06676
648.05842,0.06585
646.12968,0.06385
644.20093,0.06205
642.27219,0.06149
640.34344,0.06164
638.41470,0.06148
636.48595,0.06039
634.55721,0.05930
632.62846,0.05898
630.69972,0.05844
628.77097,0.05774
626.84222,0.05776
624.91348,0.05818
622.98473,0.05824
621.05599,0.05766
619.12724,0.05698
617.19850,0.05676
615.26975,0.05666
613.34101,0.05593
611.41226,0.05495
609.48352,0.05554
607.55477,0.05815
605.62603,0.06063
603.69728,0.06090
601.76854,0.05992
599.83979,0.05953
