7497.03301,0.84858
7495.10426,0.84940
7493.17552,0.84776
7491.24677,0.84501
7489.31803,0.84453
7487.38928,0.84381
7485.46054,0.83766
7483.53179,0.83111
7481.60305,0.82979
7479.67430,0.82968
7477.74556,0.82768
7475.81681,0.82517
7473.88807,0.82582
7471.95932,0.83186
7470.03057,0.83639
7468.10183,0.83574
7466.17308,0.83616
7464.24434,0.83735
7462.31559,0.83411
7460.38685,0.82817
7458.45810,0.82333
7456.52936,0.82264
7454.60061,0.82694
7452.67187,0.83121
7450.74312,0.83337
7448.81438,0.83466
7446.88563,0.83309
7444.95689,0.82948
7443.02814,0.82617
7441.09940,0.82179
7439.17065,0.81519
7437.24190,0.80938
7435.31316,0.80801
7433.38441,0.81046
7431.45567,0.81398
7429.52692,0.81672
7427.59818,0.81754
7425.66943,0.81630
7423.74069,0.81634
7421.81194,0.81933
7419.88320,0.81958
7417.95445,0.81472
7416.02571,0.80818
7414.09696,0.80160
7412.16822,0.79780
7410.23947,0.79959
7408.31073,0.80318
7406.38198,0.80340
7404.45323,0.80206
7402.52449,0.80161
7400.59574,0.80032
7398.66700,0.80006
7396.73825,0.80320
7394.80951,0.80460
7392.88076,0.79989
7390.95202,0.79452
7389.02327,0.79330
7387.09453,0.79398
7385.16578,0.79566
7383.23704,0.79765
7381.30829,0.79777
7379.37955,0.79874
7377.45080,0.80111
7375.52205,0.79861
7373.59331,0.79142
7371.66456,0.78627
7369.73582,0.78544
7367.80707,0.78639
7365.87833,0.78568
7363.94958,0.78422
7362.02084,0.78506
7360.09209,0.78622
7358.16335,0.78504
7356.23460,0.78408
7354.30586,0.78596
7352.37711,0.78806
7350.44837,0.78724
7348.51962,0.78553
7346.59088,0.78661
7344.66213,0.78920
7342.73338,0.78914
7340.80464,0.78659
7338.87589,0.78458
7336.94715,0.78519
7335.01840,0.78751
7333.08966,0.78718
7331.16091,0.78399
7329.23217,0.78278
7327.30342,0.78308
7325.37468,0.78081
7323.44593,0.77645
7321.51719,0.77084
7319.58844,0.76526
7317.65970,0.76525
7315.73095,0.77163
7313.80221,0.77738
7311.87346,0.77715
7309.94471,0.77197
7308.01597,0.76767
7306.08722,0.76953
7304.15848,0.77627
7302.22973,0.78147
7300.30099,0.78231
7298.37224,0.78098
7296.44350,0.77851
7294.51475,0.77566
7292.58601,0.77427
7290.65726,0.77490
7288.72852,0.77734
7286.79977,0.78027
7284.87103,0.78054
7282.94228,0.77613
7281.01353,0.77062
7279.08479,0.76889
7277.15604,0.76923
7275.22730,0.76814
7273.29855,0.76744
7271.36981,0.76962
7269.44106,0.77279
7267.51232,0.77366
7265.58357,0.77246
7263.65483,0.77167
7261.72608,0.77106
7259.79734,0.76966
7257.86859,0.76946
7255.93985,0.77086
7254.01110,0.77162
7252.08236,0.77301
7250.15361,0.77564
7248.22486,0.77416
7246.29612,0.76828
7244.36737,0.76547
7242.43863,0.76807
7240.50988,0.77126
7238.58114,0.77019
7236.65239,0.76443
7234.72365,0.75822
7232.79490,0.75686
7230.86616,0.76190
7228.93741,0.76663
7227.00867,0.76520
7225.07992,0.76202
7223.15118,0.76219
7221.22243,0.76585
7219.29369,0.76990
7217.36494,0.77072
7215.43619,0.76897
7213.50745,0.76704
7211.57870,0.76536
7209.64996,0.76395
7207.72121,0.76355
7205.79247,0.76391
7203.86372,0.76344
7201.93498,0.76119
7200.00623,0.75737
7198.07749,0.75477
7196.14874,0.75584
7194.22000,0.75802
7192.29125,0.75738
7190.36251,0.75576
7188.43376,0.75724
7186.50501,0.75988
7184.57627,0.76028
7182.64752,0.75749
7180.71878,0.75178
7178.79003,0.74807
7176.86129,0.74929
7174.93254,0.75043
7173.00380,0.74686
7171.07505,0.74120
7169.14631,0.74043
7167.21756,0.74615
7165.28882,0.75079
7163.36007,0.74863
7161.43133,0.74280
7159.50258,0.73906
7157.57384,0.73873
7155.64509,0.73870
7153.71634,0.73735
7151.78760,0.73717
7149.85885,0.73831
7147.93011,0.73636
7146.00136,0.73242
7144.07262,0.73160
7142.14387,0.73199
7140.21513,0.73007
7138.28638,0.72679
7136.35764,0.72491
7134.42889,0.72621
7132.50015,0.72780
7130.57140,0.72702
7128.64266,0.72684
7126.71391,0.72884
7124.78516,0.72829
7122.85642,0.72284
7120.92767,0.71783
7118.99893,0.71734
7117.07018,0.71874
7115.14144,0.71737
7113.21269,0.71326
7111.28395,0.71072
7109.35520,0.71090
7107.42646,0.71016
7105.49771,0.70773
7103.56897,0.70686
7101.64022,0.70645
7099.71148,0.70413
7097.78273,0.70239
7095.85399,0.70217
7093.92524,0.70312
7091.99649,0.70563
7090.06775,0.70599
7088.13900,0.70030
7086.21026,0.69170
7084.28151,0.68712
7082.35277,0.68890
7080.42402,0.69239
7078.49528,0.69365
7076.56653,0.69322
7074.63779,0.69168
7072.70904,0.68937
7070.78030,0.68661
7068.85155,0.68239
7066.92281,0.67753
7064.99406,0.67476
7063.06532,0.67396
7061.13657,0.67226
7059.20782,0.66848
7057.27908,0.66457
7055.35033,0.66402
7053.42159,0.66663
7051.49284,0.66776
7049.56410,0.66694
7047.63535,0.66701
7045.70661,0.66713
7043.77786,0.66612
7041.84912,0.66393
7039.92037,0.66017
7037.99163,0.65719
7036.06288,0.65597
7034.13414,0.65388
7032.20539,0.65238
7030.27664,0.65285
7028.34790,0.65278
7026.41915,0.65158
7024.49041,0.64974
7022.56166,0.64892
7020.63292,0.65039
7018.70417,0.65118
7016.77543,0.64877
7014.84668,0.64422
7012.91794,0.63982
7010.98919,0.63852
7009.06045,0.64066
7007.13170,0.64159
7005.20296,0.63860
7003.27421,0.63472
7001.34547,0.63252
6999.41672,0.63094
6997.48797,0.62930
6995.55923,0.62807
6993.63048,0.62615
6991.70174,0.62489
6989.77299,0.62772
6987.84425,0.63215
6985.91550,0.63306
6983.98676,0.63019
6982.05801,0.62698
6980.12927,0.62583
6978.20052,0.62586
6976.27178,0.62532
6974.34303,0.62520
6972.41429,0.62702
6970.48554,0.62943
6968.55680,0.63064
6966.62805,0.62959
6964.69930,0.62607
6962.77056,0.62263
6960.84181,0.62155
6958.91307,0.62159
6956.98432,0.62117
6955.05558,0.62007
6953.12683,0.61796
6951.19809,0.61672
6949.26934,0.61810
6947.34060,0.61975
6945.41185,0.61934
6943.48311,0.61802
6941.55436,0.61787
6939.62562,0.61806
6937.69687,0.61839
6935.76812,0.62067
6933.83938,0.62240
6931.91063,0.62169
6929.98189,0.62138
6928.05314,0.62207
6926.12440,0.62179
6924.19565,0.62067
6922.26691,0.62020
6920.33816,0.61975
6918.40942,0.61819
6916.48067,0.61685
6914.55193,0.61703
6912.62318,0.61747
6910.69444,0.61581
6908.76569,0.61296
6906.83695,0.61283
6904.90820,0.61653
6902.97945,0.62077
6901.05071,0.62170
6899.12196,0.61995
6897.19322,0.61836
6895.26447,0.61730
6893.33573,0.61713
6891.40698,0.61735
6889.47824,0.61618
6887.54949,0.61537
6885.62075,0.61677
6883.69200,0.61739
6881.76326,0.61555
6879.83451,0.61520
6877.90577,0.61799
6875.97702,0.62004
6874.04828,0.62076
6872.11953,0.62230
6870.19078,0.62383
6868.26204,0.62340
6866.33329,0.61981
6864.40455,0.61460
6862.47580,0.61112
6860.54706,0.61130
6858.61831,0.61421
6856.68957,0.61633
6854.76082,0.61635
6852.83208,0.61564
6850.90333,0.61488
6848.97459,0.61390
6847.04584,0.61285
6845.11710,0.61282
6843.18835,0.61344
6841.25960,0.61307
6839.33086,0.61291
6837.40211,0.61435
6835.47337,0.61473
6833.54462,0.61196
6831.61588,0.60858
6829.68713,0.60771
6827.75839,0.60931
6825.82964,0.61099
6823.90090,0.61260
6821.97215,0.61462
6820.04341,0.61417
6818.11466,0.61157
6816.18592,0.60961
6814.25717,0.60852
6812.32843,0.60922
6810.39968,0.61077
6808.47093,0.61082
6806.54219,0.61052
6804.61344,0.61237
6802.68470,0.61590
6800.75595,0.61774
6798.82721,0.61653
6796.89846,0.61429
6794.96972,0.61284
6793.04097,0.61283
6791.11223,0.61379
6789.18348,0.61357
6787.25474,0.61158
6785.32599,0.61133
6783.39725,0.61379
6781.46850,0.61484
6779.53975,0.61328
6777.61101,0.61182
6775.68226,0.61129
6773.75352,0.61103
6771.82477,0.61238
6769.89603,0.61482
6767.96728,0.61409
6766.03854,0.61086
6764.10979,0.61052
6762.18105,0.61286
6760.25230,0.61357
6758.32356,0.61299
6756.39481,0.61345
6754.46607,0.61283
6752.53732,0.60956
6750.60858,0.60835
6748.67983,0.61249
6746.75108,0.61702
6744.82234,0.61719
6742.89359,0.61498
6740.96485,0.61358
6739.03610,0.61364
6737.10736,0.61378
6735.17861,0.61342
6733.24987,0.61353
6731.32112,0.61363
6729.39238,0.61296
6727.46363,0.61277
6725.53489,0.61402
6723.60614,0.61535
6721.67740,0.61462
6719.74865,0.61245
6717.81991,0.61154
6715.89116,0.61254
6713.96241,0.61496
6712.03367,0.61852
6710.10492,0.62095
6708.17618,0.62028
6706.24743,0.61738
6704.31869,0.61465
6702.38994,0.61479
6700.46120,0.61760
6698.53245,0.61980
6696.60371,0.61947
6694.67496,0.61816
6692.74622,0.61844
6690.81747,0.61993
6688.88873,0.61998
6686.95998,0.61840
6685.03123,0.61778
6683.10249,0.61832
6681.17374,0.61867
6679.24500,0.61975
6677.31625,0.62138
6675.38751,0.62196
6673.45876,0.62182
6671.53002,0.62164
6669.60127,0.62119
6667.67253,0.62033
6665.74378,0.62006
6663.81504,0.62051
6661.88629,0.62090
6659.95755,0.62293
6658.02880,0.62556
6656.10006,0.62427
6654.17131,0.62117
6652.24256,0.62103
6650.31382,0.62169
6648.38507,0.62028
6646.45633,0.61980
6644.52758,0.62210
6642.59884,0.62380
6640.67009,0.62406
6638.74135,0.62518
6636.81260,0.62624
6634.88386,0.62548
6632.95511,0.62409
6631.02637,0.62429
6629.09762,0.62587
6627.16888,0.62612
6625.24013,0.62497
6623.31139,0.62606
6621.38264,0.62928
6619.45389,0.63107
6617.52515,0.63194
6615.59640,0.63352
6613.66766,0.63543
6611.73891,0.63755
6609.81017,0.63781
6607.88142,0.63421
6605.95268,0.62964
6604.02393,0.62826
6602.09519,0.62991
6600.16644,0.63128
6598.23770,0.63207
6596.30895,0.63445
6594.38021,0.63705
6592.45146,0.63804
6590.52271,0.63827
6588.59397,0.63785
6586.66522,0.63750
6584.73648,0.63863
6582.80773,0.63961
6580.87899,0.63866
6578.95024,0.63721
6577.02150,0.63653
6575.09275,0.63683
6573.16401,0.63955
6571.23526,0.64303
6569.30652,0.64263
6567.37777,0.63946
6565.44903,0.63778
6563.52028,0.63766
6561.59154,0.63718
6559.66279,0.63644
6557.73404,0.63731
6555.80530,0.63963
6553.87655,0.64131
6551.94781,0.64167
6550.01906,0.64122
6548.09032,0.64050
6546.16157,0.63949
6544.23283,0.63839
6542.30408,0.63801
6540.37534,0.63803
6538.44659,0.63843
6536.51785,0.63977
6534.58910,0.64079
6532.66036,0.64166
6530.73161,0.64324
6528.80287,0.64327
6526.87412,0.64199
6524.94537,0.64183
6523.01663,0.64145
6521.08788,0.64059
6519.15914,0.64109
6517.23039,0.64233
6515.30165,0.64277
6513.37290,0.64219
6511.44416,0.64252
6509.51541,0.64413
6507.58667,0.64396
6505.65792,0.64202
6503.72918,0.64044
6501.80043,0.63944
6499.87169,0.63988
6497.94294,0.64192
6496.01419,0.64368
6494.08545,0.64387
6492.15670,0.64296
6490.22796,0.64222
6488.29921,0.64264
6486.37047,0.64359
6484.44172,0.64375
6482.51298,0.64389
6480.58423,0.64446
6478.65549,0.64498
6476.72674,0.64604
6474.79800,0.64728
6472.86925,0.64794
6470.94051,0.64780
6469.01176,0.64651
6467.08302,0.64494
6465.15427,0.64458
6463.22552,0.64511
6461.29678,0.64465
6459.36803,0.64379
6457.43929,0.64468
6455.51054,0.64642
6453.58180,0.64723
6451.65305,0.64747
6449.72431,0.64789
6447.79556,0.64772
6445.86682,0.64655
6443.93807,0.64613
6442.00933,0.64631
6440.08058,0.64529
6438.15184,0.64474
6436.22309,0.64603
6434.29434,0.64696
6432.36560,0.64686
6430.43685,0.64706
6428.50811,0.64709
6426.57936,0.64627
6424.65062,0.64561
6422.72187,0.64611
6420.79313,0.64779
6418.86438,0.64975
6416.93564,0.65023
6415.00689,0.64922
6413.07815,0.64883
6411.14940,0.64985
6409.22066,0.65118
6407.29191,0.65104
6405.36317,0.65009
6403.43442,0.65150
6401.50567,0.65358
6399.57693,0.65288
6397.64818,0.65144
6395.71944,0.65076
6393.79069,0.65032
6391.86195,0.65093
6389.93320,0.65129
6388.00446,0.64943
6386.07571,0.64728
6384.14697,0.64729
6382.21822,0.64827
6380.28948,0.64893
6378.36073,0.65052
6376.43199,0.65289
6374.50324,0.65307
6372.57450,0.65150
6370.64575,0.65255
6368.71700,0.65575
6366.78826,0.65699
6364.85951,0.65582
6362.93077,0.65359
6361.00202,0.65162
6359.07328,0.65163
6357.14453,0.65319
6355.21579,0.65426
6353.28704,0.65452
6351.35830,0.65431
6349.42955,0.65338
6347.50081,0.65293
6345.57206,0.65405
6343.64332,0.65514
6341.71457,0.65483
6339.78582,0.65399
6337.85708,0.65360
6335.92833,0.65436
6333.99959,0.65683
6332.07084,0.65917
6330.14210,0.65868
6328.21335,0.65637
6326.28461,0.65531
6324.35586,0.65590
6322.42712,0.65648
6320.49837,0.65646
6318.56963,0.65643
6316.64088,0.65672
6314.71214,0.65719
6312.78339,0.65813
6310.85465,0.65862
6308.92590,0.65733
6306.99715,0.65593
6305.06841,0.65599
6303.13966,0.65643
6301.21092,0.65647
6299.28217,0.65695
6297.35343,0.65804
6295.42468,0.65802
6293.49594,0.65688
6291.56719,0.65689
6289.63845,0.65859
6287.70970,0.66066
6285.78096,0.66168
6283.85221,0.66176
6281.92347,0.66225
6279.99472,0.66279
6278.06598,0.66268
6276.13723,0.66258
6274.20848,0.66300
6272.27974,0.66387
6270.35099,0.66404
6268.42225,0.66289
6266.49350,0.66212
6264.56476,0.66276
6262.63601,0.66427
6260.70727,0.66581
6258.77852,0.66632
6256.84978,0.66593
6254.92103,0.66665
6252.99229,0.66874
6251.06354,0.66950
6249.13480,0.66919
6247.20605,0.67026
6245.27730,0.67165
6243.34856,0.67219
6241.41981,0.67255
6239.49107,0.67264
6237.56232,0.67247
6235.63358,0.67279
6233.70483,0.67404
6231.77609,0.67550
6229.84734,0.67630
6227.91860,0.67653
6225.98985,0.67659
6224.06111,0.67704
6222.13236,0.67728
6220.20362,0.67600
6218.27487,0.67455
6216.34613,0.67502
6214.41738,0.67737
6212.48863,0.68059
6210.55989,0.68282
6208.63114,0.68343
6206.70240,0.68352
6204.77365,0.68318
6202.84491,0.68237
6200.91616,0.68204
6198.98742,0.68277
6197.05867,0.68426
6195.12993,0.68589
6193.20118,0.68659
6191.27244,0.68576
6189.34369,0.68530
6187.41495,0.68719
6185.48620,0.69011
6183.55746,0.69123
6181.62871,0.69019
6179.69996,0.68886
6177.77122,0.68744
6175.84247,0.68600
6173.91373,0.68617
6171.98498,0.68774
6170.05624,0.68946
6168.12749,0.69061
6166.19875,0.69042
6164.27000,0.69013
6162.34126,0.69114
6160.41251,0.69222
6158.48377,0.69251
6156.55502,0.69283
6154.62628,0.69345
6152.69753,0.69390
6150.76878,0.69392
6148.84004,0.69423
6146.91129,0.69558
6144.98255,0.69641
6143.05380,0.69540
6141.12506,0.69522
6139.19631,0.69690
6137.26757,0.69727
6135.33882,0.69601
6133.41008,0.69564
6131.48133,0.69650
6129.55259,0.69723
6127.62384,0.69760
6125.69510,0.69861
6123.76635,0.69933
6121.83761,0.69888
6119.90886,0.69848
6117.98011,0.69840
6116.05137,0.69857
6114.12262,0.69916
6112.19388,0.69909
6110.26513,0.69877
6108.33639,0.70015
6106.40764,0.70249
6104.47890,0.70382
6102.55015,0.70385
6100.62141,0.70263
6098.69266,0.70109
6096.76392,0.70006
6094.83517,0.69938
6092.90643,0.70001
6090.97768,0.70171
6089.04893,0.70216
6087.12019,0.70198
6085.19144,0.70307
6083.26270,0.70366
6081.33395,0.70180
6079.40521,0.69894
6077.47646,0.69743
6075.54772,0.69766
6073.61897,0.69772
6071.69023,0.69725
6069.76148,0.69792
6067.83274,0.69913
6065.90399,0.69917
6063.97525,0.69839
6062.04650,0.69820
6060.11776,0.69886
6058.18901,0.69931
6056.26026,0.69845
6054.33152,0.69702
6052.40277,0.69696
6050.47403,0.69787
6048.54528,0.69826
6046.61654,0.69837
6044.68779,0.69780
6042.75905,0.69613
6040.83030,0.69534
6038.90156,0.69577
6036.97281,0.69455
6035.04407,0.69200
6033.11532,0.69127
6031.18658,0.69128
6029.25783,0.69000
6027.32909,0.68956
6025.40034,0.69048
6023.47159,0.69029
6021.54285,0.68898
6019.61410,0.68844
6017.68536,0.68925
6015.75661,0.68981
6013.82787,0.68884
6011.89912,0.68816
6009.97038,0.68906
6008.04163,0.68948
6006.11289,0.68786
6004.18414,0.68554
6002.25540,0.68444
6000.32665,0.68438
5998.39791,0.68435
5996.46916,0.68433
5994.54041,0.68438
5992.61167,0.68446
5990.68292,0.68477
5988.75418,0.68476
5986.82543,0.68362
5984.89669,0.68231
5982.96794,0.68217
5981.03920,0.68230
5979.11045,0.68108
5977.18171,0.67935
5975.25296,0.67939
5973.32422,0.68082
5971.39547,0.68124
5969.46673,0.68036
5967.53798,0.68006
5965.60924,0.68105
5963.68049,0.68146
5961.75174,0.67916
5959.82300,0.67514
5957.89425,0.67279
5955.96551,0.67321
5954.03676,0.67451
5952.10802,0.67457
5950.17927,0.67326
5948.25053,0.67282
5946.32178,0.67404
5944.39304,0.67489
5942.46429,0.67462
5940.53555,0.67402
5938.60680,0.67385
5936.67806,0.67440
5934.74931,0.67461
5932.82057,0.67422
5930.89182,0.67435
5928.96307,0.67456
5927.03433,0.67400
5925.10558,0.67353
5923.17684,0.67385
5921.24809,0.67412
5919.31935,0.67359
5917.39060,0.67315
5915.46186,0.67390
5913.53311,0.67440
5911.60437,0.67296
5909.67562,0.67129
5907.74688,0.67061
5905.81813,0.66933
5903.88939,0.66784
5901.96064,0.66759
5900.03189,0.66800
5898.10315,0.66859
5896.17440,0.66914
5894.24566,0.66848
5892.31691,0.66604
5890.38817,0.66359
5888.45942,0.66311
5886.53068,0.66396
5884.60193,0.66451
5882.67319,0.66375
5880.74444,0.66194
5878.81570,0.66085
5876.88695,0.66107
5874.95821,0.66151
5873.02946,0.66192
5871.10072,0.66237
5869.17197,0.66175
5867.24322,0.65985
5865.31448,0.65832
5863.38573,0.65774
5861.45699,0.65717
5859.52824,0.65718
5857.59950,0.65810
5855.67075,0.65817
5853.74201,0.65737
5851.81326,0.65745
5849.88452,0.65808
5847.95577,0.65788
5846.02703,0.65684
5844.09828,0.65577
5842.16954,0.65518
5840.24079,0.65531
5838.31205,0.65560
5836.38330,0.65522
5834.45455,0.65445
5832.52581,0.65375
5830.59706,0.65295
5828.66832,0.65210
5826.73957,0.65152
5824.81083,0.65138
5822.88208,0.65126
5820.95334,0.65015
5819.02459,0.64848
5817.09585,0.64774
5815.16710,0.64734
5813.23836,0.64627
5811.30961,0.64539
5809.38087,0.64570
5807.45212,0.64693
5805.52337,0.64752
5803.59463,0.64666
5801.66588,0.64563
5799.73714,0.64522
5797.80839,0.64533
5795.87965,0.64595
5793.95090,0.64720
5792.02216,0.64868
5790.09341,0.64907
5788.16467,0.64852
5786.23592,0.64860
5784.30718,0.64918
5782.37843,0.64960
5780.44969,0.65000
5778.52094,0.65018
5776.59220,0.65021
5774.66345,0.65073
5772.73470,0.65154
5770.80596,0.65224
5768.87721,0.65300
5766.94847,0.65382
5765.01972,0.65464
5763.09098,0.65558
5761.16223,0.65641
5759.23349,0.65700
5757.30474,0.65789
5755.37600,0.65913
5753.44725,0.65962
5751.51851,0.65919
5749.58976,0.65883
5747.66102,0.65874
5745.73227,0.65864
5743.80352,0.65848
5741.87478,0.65827
5739.94603,0.65849
5738.01729,0.65933
5736.08854,0.65991
5734.15980,0.65941
5732.23105,0.65835
5730.30231,0.65793
5728.37356,0.65871
5726.44482,0.65974
5724.51607,0.65979
5722.58733,0.65910
5720.65858,0.65871
5718.72984,0.65936
5716.80109,0.66076
5714.87235,0.66121
5712.94360,0.65986
5711.01485,0.65832
5709.08611,0.65816
5707.15736,0.65893
5705.22862,0.65957
5703.29987,0.65993
5701.37113,0.65964
5699.44238,0.65834
5697.51364,0.65691
5695.58489,0.65646
5693.65615,0.65705
5691.72740,0.65779
5689.79866,0.65770
5687.86991,0.65723
5685.94117,0.65722
5684.01242,0.65702
5682.08368,0.65602
5680.15493,0.65535
5678.22618,0.65602
5676.29744,0.65709
5674.36869,0.65691
5672.43995,0.65601
5670.51120,0.65611
5668.58246,0.65680
5666.65371,0.65679
5664.72497,0.65643
5662.79622,0.65664
5660.86748,0.65701
5658.93873,0.65707
5657.00999,0.65745
5655.08124,0.65789
5653.15250,0.65803
5651.22375,0.65822
5649.29500,0.65822
5647.36626,0.65812
5645.43751,0.65776
5643.50877,0.65702
5641.58002,0.65658
5639.65128,0.65639
5637.72253,0.65640
5635.79379,0.65693
5633.86504,0.65777
5631.93630,0.65845
5630.00755,0.65864
5628.07881,0.65901
5626.15006,0.66032
5624.22132,0.66172
5622.29257,0.66206
5620.36383,0.66147
5618.43508,0.66119
5616.50633,0.66163
5614.57759,0.66130
5612.64884,0.65983
5610.72010,0.65897
5608.79135,0.65888
5606.86261,0.65831
5604.93386,0.65777
5603.00512,0.65799
5601.07637,0.65823
5599.14763,0.65865
5597.21888,0.65969
5595.29014,0.66013
5593.36139,0.65973
5591.43265,0.65970
5589.50390,0.66032
5587.57516,0.66131
5585.64641,0.66246
5583.71766,0.66279
5581.78892,0.66185
5579.86017,0.66055
5577.93143,0.65977
5576.00268,0.65985
5574.07394,0.66056
5572.14519,0.66133
5570.21645,0.66188
5568.28770,0.66269
5566.35896,0.66338
5564.43021,0.66266
5562.50147,0.66140
5560.57272,0.66124
5558.64398,0.66190
5556.71523,0.66303
5554.78648,0.66435
5552.85774,0.66530
5550.92899,0.66589
5549.00025,0.66605
5547.07150,0.66570
5545.14276,0.66495
5543.21401,0.66418
5541.28527,0.66407
5539.35652,0.66474
5537.42778,0.66556
5535.49903,0.66622
5533.57029,0.66640
5531.64154,0.66601
5529.71280,0.66603
5527.78405,0.66635
5525.85531,0.66588
5523.92656,0.66531
5521.99781,0.66497
5520.06907,0.66405
5518.14032,0.66326
5516.21158,0.66333
5514.28283,0.66373
5512.35409,0.66444
5510.42534,0.66580
5508.49660,0.66752
5506.56785,0.66863
5504.63911,0.66860
5502.71036,0.66799
5500.78162,0.66743
5498.85287,0.66719
5496.92413,0.66737
5494.99538,0.66789
5493.06664,0.66834
5491.13789,0.66816
5489.20914,0.66814
5487.28040,0.66887
5485.35165,0.66921
5483.42291,0.66904
5481.49416,0.66945
5479.56542,0.67041
5477.63667,0.67102
5475.70793,0.67051
5473.77918,0.66934
5471.85044,0.66875
5469.92169,0.66910
5467.99295,0.66969
5466.06420,0.66984
5464.13546,0.66984
5462.20671,0.66996
5460.27796,0.67005
5458.34922,0.67022
5456.42047,0.67049
5454.49173,0.67048
5452.56298,0.66995
5450.63424,0.66961
5448.70549,0.67034
5446.77675,0.67159
5444.84800,0.67245
5442.91926,0.67313
5440.99051,0.67424
5439.06177,0.67545
5437.13302,0.67613
5435.20428,0.67646
5433.27553,0.67687
5431.34679,0.67751
5429.41804,0.67852
5427.48929,0.67926
5425.56055,0.67886
5423.63180,0.67799
5421.70306,0.67775
5419.77431,0.67833
5417.84557,0.67909
5415.91682,0.67941
5413.98808,0.67977
5412.05933,0.68071
5410.13059,0.68180
5408.20184,0.68247
5406.27310,0.68239
5404.34435,0.68178
5402.41561,0.68129
5400.48686,0.68135
5398.55811,0.68186
5396.62937,0.68237
5394.70062,0.68238
5392.77188,0.68180
5390.84313,0.68124
5388.91439,0.68123
5386.98564,0.68146
5385.05690,0.68153
5383.12815,0.68157
5381.19941,0.68162
5379.27066,0.68165
5377.34192,0.68180
5375.41317,0.68157
5373.48443,0.68065
5371.55568,0.67995
5369.62694,0.68001
5367.69819,0.68043
5365.76944,0.68083
5363.84070,0.68120
5361.91195,0.68114
5359.98321,0.68045
5358.05446,0.67989
5356.12572,0.67965
5354.19697,0.67894
5352.26823,0.67831
5350.33948,0.67891
5348.41074,0.67948
5346.48199,0.67873
5344.55325,0.67771
5342.62450,0.67685
5340.69576,0.67549
5338.76701,0.67420
5336.83827,0.67398
5334.90952,0.67412
5332.98077,0.67342
5331.05203,0.67240
5329.12328,0.67162
5327.19454,0.67028
5325.26579,0.66816
5323.33705,0.66603
5321.40830,0.66438
5319.47956,0.66342
5317.55081,0.66274
5315.62207,0.66153
5313.69332,0.65973
5311.76458,0.65813
5309.83583,0.65690
5307.90709,0.65515
5305.97834,0.65241
5304.04959,0.64937
5302.12085,0.64685
5300.19210,0.64496
5298.26336,0.64280
5296.33461,0.64001
5294.40587,0.63676
5292.47712,0.63297
5290.54838,0.62940
5288.61963,0.62677
5286.69089,0.62434
5284.76214,0.62143
5282.83340,0.61805
5280.90465,0.61436
5278.97591,0.61068
5277.04716,0.60685
5275.11842,0.60241
5273.18967,0.59817
5271.26092,0.59457
5269.33218,0.59088
5267.40343,0.58673
5265.47469,0.58236
5263.54594,0.57841
5261.61720,0.57518
5259.68845,0.57247
5257.75971,0.56993
5255.83096,0.56657
5253.90222,0.56228
5251.97347,0.55859
5250.04473,0.55610
5248.11598,0.55386
5246.18724,0.55109
5244.25849,0.54829
5242.32975,0.54602
5240.40100,0.54366
5238.47225,0.54082
5236.54351,0.53821
5234.61476,0.53623
5232.68602,0.53437
5230.75727,0.53241
5228.82853,0.53104
5226.89978,0.53039
5224.97104,0.52920
5223.04229,0.52719
5221.11355,0.52566
5219.18480,0.52479
5217.25606,0.52388
5215.32731,0.52311
5213.39857,0.52259
5211.46982,0.52181
5209.54107,0.52086
5207.61233,0.52023
5205.68358,0.51983
5203.75484,0.51935
5201.82609,0.51898
5199.89735,0.51885
5197.96860,0.51874
5196.03986,0.51848
5194.11111,0.51810
5192.18237,0.51798
5190.25362,0.51866
5188.32488,0.51972
5186.39613,0.52030
5184.46739,0.52056
5182.53864,0.52118
5180.60990,0.52218
5178.68115,0.52296
5176.75240,0.52349
5174.82366,0.52446
5172.89491,0.52568
5170.96617,0.52638
5169.03742,0.52675
5167.10868,0.52744
5165.17993,0.52835
5163.25119,0.52892
5161.32244,0.52918
5159.39370,0.52969
5157.46495,0.53061
5155.53621,0.53188
5153.60746,0.53335
5151.67872,0.53461
5149.74997,0.53569
5147.82123,0.53696
5145.89248,0.53847
5143.96373,0.53990
5142.03499,0.54111
5140.10624,0.54231
5138.17750,0.54334
5136.24875,0.54393
5134.32001,0.54463
5132.39126,0.54587
5130.46252,0.54713
5128.53377,0.54785
5126.60503,0.54828
5124.67628,0.54921
5122.74754,0.55076
5120.81879,0.55202
5118.89005,0.55290
5116.96130,0.55440
5115.03255,0.55650
5113.10381,0.55807
5111.17506,0.55865
5109.24632,0.55922
5107.31757,0.56047
5105.38883,0.56183
5103.46008,0.56270
5101.53134,0.56340
5099.60259,0.56440
5097.67385,0.56536
5095.74510,0.56585
5093.81636,0.56653
5091.88761,0.56786
5089.95887,0.56916
5088.03012,0.57011
5086.10138,0.57112
5084.17263,0.57218
5082.24388,0.57296
5080.31514,0.57365
5078.38639,0.57465
5076.45765,0.57581
5074.52890,0.57674
5072.60016,0.57736
5070.67141,0.57788
5068.74267,0.57841
5066.81392,0.57909
5064.88518,0.58017
5062.95643,0.58138
5061.02769,0.58256
5059.09894,0.58397
5057.17020,0.58530
5055.24145,0.58617
5053.31270,0.58662
5051.38396,0.58676
5049.45521,0.58671
5047.52647,0.58676
5045.59772,0.58756
5043.66898,0.58913
5041.74023,0.59040
5039.81149,0.59113
5037.88274,0.59197
5035.95400,0.59290
5034.02525,0.59339
5032.09651,0.59362
5030.16776,0.59400
5028.23902,0.59461
5026.31027,0.59527
5024.38153,0.59566
5022.45278,0.59597
5020.52403,0.59669
5018.59529,0.59751
5016.66654,0.59788
5014.73780,0.59802
5012.80905,0.59808
5010.88031,0.59792
5008.95156,0.59760
5007.02282,0.59730
5005.09407,0.59751
5003.16533,0.59855
5001.23658,0.59971
4999.30784,0.59995
4997.37909,0.59963
4995.45035,0.59940
4993.52160,0.59905
4991.59286,0.59866
4989.66411,0.59870
4987.73536,0.59928
4985.80662,0.59976
4983.87787,0.59932
4981.94913,0.59822
4980.02038,0.59703
4978.09164,0.59600
4976.16289,0.59541
4974.23415,0.59524
4972.30540,0.59509
4970.37666,0.59473
4968.44791,0.59415
4966.51917,0.59333
4964.59042,0.59237
4962.66168,0.59134
4960.73293,0.59016
4958.80418,0.58866
4956.87544,0.58700
4954.94669,0.58584
4953.01795,0.58521
4951.08920,0.58442
4949.16046,0.58309
4947.23171,0.58136
4945.30297,0.57966
4943.37422,0.57803
4941.44548,0.57626
4939.51673,0.57465
4937.58799,0.57340
4935.65924,0.57220
4933.73050,0.57121
4931.80175,0.57017
4929.87301,0.56812
4927.94426,0.56551
4926.01551,0.56330
4924.08677,0.56144
4922.15802,0.55988
4920.22928,0.55852
4918.30053,0.55712
4916.37179,0.55567
4914.44304,0.55406
4912.51430,0.55193
4910.58555,0.54965
4908.65681,0.54816
4906.72806,0.54707
4904.79932,0.54535
4902.87057,0.54341
4900.94183,0.54186
4899.01308,0.54030
4897.08434,0.53823
4895.15559,0.53607
4893.22684,0.53441
4891.29810,0.53271
4889.36935,0.53042
4887.44061,0.52829
4885.51186,0.52697
4883.58312,0.52587
4881.65437,0.52437
4879.72563,0.52241
4877.79688,0.52014
4875.86814,0.51812
4873.93939,0.51678
4872.01065,0.51559
4870.08190,0.51417
4868.15316,0.51271
4866.22441,0.51116
4864.29566,0.50968
4862.36692,0.50872
4860.43817,0.50800
4858.50943,0.50686
4856.58068,0.50548
4854.65194,0.50418
4852.72319,0.50274
4850.79445,0.50106
4848.86570,0.49952
4846.93696,0.49839
4845.00821,0.49725
4843.07947,0.49549
4841.15072,0.49341
4839.22198,0.49194
4837.29323,0.49125
4835.36449,0.49087
4833.43574,0.49037
4831.50699,0.48938
4829.57825,0.48800
4827.64950,0.48690
4825.72076,0.48618
4823.79201,0.48529
4821.86327,0.48396
4819.93452,0.48247
4818.00578,0.48133
4816.07703,0.48069
4814.14829,0.48007
4812.21954,0.47925
4810.29080,0.47862
4808.36205,0.47808
4806.43331,0.47731
4804.50456,0.47630
4802.57582,0.47544
4800.64707,0.47516
4798.71832,0.47526
4796.78958,0.47522
4794.86083,0.47494
4792.93209,0.47462
4791.00334,0.47430
4789.07460,0.47376
4787.14585,0.47308
4785.21711,0.47255
4783.28836,0.47212
4781.35962,0.47147
4779.43087,0.47065
4777.50213,0.47018
4775.57338,0.47027
4773.64464,0.47033
4771.71589,0.47015
4769.78714,0.47012
4767.85840,0.46993
4765.92965,0.46932
4764.00091,0.46891
4762.07216,0.46878
4760.14342,0.46862
4758.21467,0.46866
4756.28593,0.46877
4754.35718,0.46857
4752.42844,0.46820
4750.49969,0.46782
4748.57095,0.46734
4746.64220,0.46717
4744.71346,0.46755
4742.78471,0.46799
4740.85597,0.46813
4738.92722,0.46847
4736.99847,0.46922
4735.06973,0.46966
4733.14098,0.46957
4731.21224,0.46957
4729.28349,0.46998
4727.35475,0.47045
4725.42600,0.47071
4723.49726,0.47089
4721.56851,0.47108
4719.63977,0.47143
4717.71102,0.47206
4715.78228,0.47265
4713.85353,0.47288
4711.92479,0.47293
4709.99604,0.47306
4708.06729,0.47310
4706.13855,0.47309
4704.20980,0.47325
4702.28106,0.47350
4700.35231,0.47380
4698.42357,0.47409
4696.49482,0.47431
4694.56608,0.47463
4692.63733,0.47508
4690.70859,0.47555
4688.77984,0.47599
4686.85110,0.47649
4684.92235,0.47721
4682.99361,0.47795
4681.06486,0.47855
4679.13612,0.47909
4677.20737,0.47956
4675.27862,0.48020
4673.34988,0.48106
4671.42113,0.48171
4669.49239,0.48224
4667.56364,0.48312
4665.63490,0.48438
4663.70615,0.48574
4661.77741,0.48699
4659.84866,0.48817
4657.91992,0.48923
4655.99117,0.48999
4654.06243,0.49071
4652.13368,0.49156
4650.20494,0.49231
4648.27619,0.49289
4646.34745,0.49346
4644.41870,0.49406
4642.48995,0.49466
4640.56121,0.49548
4638.63246,0.49672
4636.70372,0.49795
4634.77497,0.49884
4632.84623,0.49952
4630.91748,0.50020
4628.98874,0.50076
4627.05999,0.50108
4625.13125,0.50158
4623.20250,0.50272
4621.27376,0.50421
4619.34501,0.50536
4617.41627,0.50575
4615.48752,0.50594
4613.55877,0.50674
4611.63003,0.50793
4609.70128,0.50890
4607.77254,0.50960
4605.84379,0.51027
4603.91505,0.51083
4601.98630,0.51133
4600.05756,0.51203
4598.12881,0.51278
4596.20007,0.51326
4594.27132,0.51351
4592.34258,0.51379
4590.41383,0.51425
4588.48509,0.51493
4586.55634,0.51572
4584.62760,0.51654
4582.69885,0.51735
4580.77010,0.51795
4578.84136,0.51837
4576.91261,0.51909
4574.98387,0.52011
4573.05512,0.52071
4571.12638,0.52072
4569.19763,0.52076
4567.26889,0.52118
4565.34014,0.52173
4563.41140,0.52228
4561.48265,0.52286
4559.55391,0.52317
4557.62516,0.52315
4555.69642,0.52345
4553.76767,0.52430
4551.83893,0.52504
4549.91018,0.52522
4547.98143,0.52519
4546.05269,0.52541
4544.12394,0.52569
4542.19520,0.52572
4540.26645,0.52582
4538.33771,0.52630
4536.40896,0.52684
4534.48022,0.52710
4532.55147,0.52707
4530.62273,0.52696
4528.69398,0.52716
4526.76524,0.52763
4524.83649,0.52799
4522.90775,0.52822
4520.97900,0.52829
4519.05025,0.52822
4517.12151,0.52822
4515.19276,0.52808
4513.26402,0.52763
4511.33527,0.52711
4509.40653,0.52652
4507.47778,0.52573
4505.54904,0.52480
4503.62029,0.52368
4501.69155,0.52238
4499.76280,0.52130
4497.83406,0.52063
4495.90531,0.52005
4493.97657,0.51923
4492.04782,0.51806
4490.11908,0.51656
4488.19033,0.51471
4486.26158,0.51263
4484.33284,0.51052
4482.40409,0.50868
4480.47535,0.50711
4478.54660,0.50533
4476.61786,0.50289
4474.68911,0.49988
4472.76037,0.49683
4470.83162,0.49413
4468.90288,0.49131
4466.97413,0.48807
4465.04539,0.48482
4463.11664,0.48184
4461.18790,0.47895
4459.25915,0.47598
4457.33041,0.47294
4455.40166,0.46989
4453.47291,0.46688
4451.54417,0.46398
4449.61542,0.46133
4447.68668,0.45897
4445.75793,0.45661
4443.82919,0.45396
4441.90044,0.45115
4439.97170,0.44834
4438.04295,0.44567
4436.11421,0.44315
4434.18546,0.44069
4432.25672,0.43821
4430.32797,0.43592
4428.39923,0.43416
4426.47048,0.43282
4424.54173,0.43149
4422.61299,0.42998
4420.68424,0.42823
4418.75550,0.42651
4416.82675,0.42512
4414.89801,0.42361
4412.96926,0.42188
4411.04052,0.42067
4409.11177,0.42010
4407.18303,0.41963
4405.25428,0.41911
4403.32554,0.41864
4401.39679,0.41820
4399.46805,0.41797
4397.53930,0.41800
4395.61056,0.41819
4393.68181,0.41856
4391.75306,0.41905
4389.82432,0.41962
4387.89557,0.42016
4385.96683,0.42063
4384.03808,0.42114
4382.10934,0.42147
4380.18059,0.42162
4378.25185,0.42208
4376.32310,0.42303
4374.39436,0.42391
4372.46561,0.42435
4370.53687,0.42469
4368.60812,0.42529
4366.67938,0.42604
4364.75063,0.42658
4362.82189,0.42680
4360.89314,0.42688
4358.96439,0.42680
4357.03565,0.42645
4355.10690,0.42596
4353.17816,0.42545
4351.24941,0.42482
4349.32067,0.42405
4347.39192,0.42337
4345.46318,0.42284
4343.53443,0.42223
4341.60569,0.42146
4339.67694,0.42071
4337.74820,0.42015
4335.81945,0.41985
4333.89071,0.41945
4331.96196,0.41862
4330.03321,0.41785
4328.10447,0.41761
4326.17572,0.41734
4324.24698,0.41659
4322.31823,0.41594
4320.38949,0.41586
4318.46074,0.41578
4316.53200,0.41526
4314.60325,0.41450
4312.67451,0.41378
4310.74576,0.41319
4308.81702,0.41265
4306.88827,0.41217
4304.95953,0.41184
4303.03078,0.41140
4301.10204,0.41066
4299.17329,0.40993
4297.24454,0.40927
4295.31580,0.40848
4293.38705,0.40770
4291.45831,0.40691
4289.52956,0.40623
4287.60082,0.40606
4285.67207,0.40613
4283.74333,0.40595
4281.81458,0.40538
4279.88584,0.40444
4277.95709,0.40358
4276.02835,0.40337
4274.09960,0.40374
4272.17086,0.40414
4270.24211,0.40431
4268.31336,0.40444
4266.38462,0.40472
4264.45587,0.40507
4262.52713,0.40527
4260.59838,0.40542
4258.66964,0.40589
4256.74089,0.40655
4254.81215,0.40714
4252.88340,0.40776
4250.95466,0.40845
4249.02591,0.40897
4247.09717,0.40915
4245.16842,0.40896
4243.23968,0.40875
4241.31093,0.40896
4239.38219,0.40967
4237.45344,0.41056
4235.52469,0.41118
4233.59595,0.41142
4231.66720,0.41169
4229.73846,0.41216
4227.80971,0.41259
4225.88097,0.41278
4223.95222,0.41258
4222.02348,0.41230
4220.09473,0.41254
4218.16599,0.41329
4216.23724,0.41403
4214.30850,0.41441
4212.37975,0.41449
4210.45101,0.41470
4208.52226,0.41527
4206.59352,0.41584
4204.66477,0.41612
4202.73602,0.41624
4200.80728,0.41629
4198.87853,0.41619
4196.94979,0.41596
4195.02104,0.41585
4193.09230,0.41605
4191.16355,0.41633
4189.23481,0.41662
4187.30606,0.41702
4185.37732,0.41749
4183.44857,0.41771
4181.51983,0.41773
4179.59108,0.41807
4177.66234,0.41873
4175.73359,0.41945
4173.80484,0.42028
4171.87610,0.42113
4169.94735,0.42166
4168.01861,0.42185
4166.08986,0.42201
4164.16112,0.42225
4162.23237,0.42230
4160.30363,0.42213
4158.37488,0.42187
4156.44614,0.42153
4154.51739,0.42111
4152.58865,0.42069
4150.65990,0.42041
4148.73116,0.42031
4146.80241,0.42010
4144.87367,0.41959
4142.94492,0.41874
4141.01617,0.41768
4139.08743,0.41680
4137.15868,0.41628
4135.22994,0.41563
4133.30119,0.41452
4131.37245,0.41338
4129.44370,0.41243
4127.51496,0.41145
4125.58621,0.41046
4123.65747,0.40944
4121.72872,0.40822
4119.79998,0.40680
4117.87123,0.40520
4115.94249,0.40363
4114.01374,0.40243
4112.08500,0.40138
4110.15625,0.40009
4108.22750,0.39863
4106.29876,0.39712
4104.37001,0.39551
4102.44127,0.39392
4100.51252,0.39243
4098.58378,0.39084
4096.65503,0.38896
4094.72629,0.38692
4092.79754,0.38497
4090.86880,0.38315
4088.94005,0.38142
4087.01131,0.37974
4085.08256,0.37803
4083.15382,0.37619
4081.22507,0.37420
4079.29632,0.37222
4077.36758,0.37035
4075.43883,0.36857
4073.51009,0.36698
4071.58134,0.36558
4069.65260,0.36389
4067.72385,0.36175
4065.79511,0.35964
4063.86636,0.35787
4061.93762,0.35616
4060.00887,0.35424
4058.08013,0.35250
4056.15138,0.35129
4054.22264,0.35019
4052.29389,0.34872
4050.36515,0.34698
4048.43640,0.34522
4046.50765,0.34343
4044.57891,0.34165
4042.65016,0.34014
4040.72142,0.33870
4038.79267,0.33720
4036.86393,0.33605
4034.93518,0.33536
4033.00644,0.33467
4031.07769,0.33368
4029.14895,0.33272
4027.22020,0.33212
4025.29146,0.33156
4023.36271,0.33080
4021.43397,0.33003
4019.50522,0.32955
4017.57648,0.32952
4015.64773,0.32977
4013.71898,0.33013
4011.79024,0.33056
4009.86149,0.33100
4007.93275,0.33142
4006.00400,0.33178
4004.07526,0.33196
4002.14651,0.33209
4000.21777,0.33248
3998.28902,0.33299
3996.36028,0.33349
3994.43153,0.33402
3992.50279,0.33456
3990.57404,0.33504
3988.64530,0.33554
3986.71655,0.33625
3984.78780,0.33713
3982.85906,0.33782
3980.93031,0.33820
3979.00157,0.33849
3977.07282,0.33894
3975.14408,0.33958
3973.21533,0.34026
3971.28659,0.34081
3969.35784,0.34138
3967.42910,0.34234
3965.50035,0.34360
3963.57161,0.34468
3961.64286,0.34561
3959.71412,0.34648
3957.78537,0.34726
3955.85663,0.34828
3953.92788,0.34966
3951.99913,0.35091
3950.07039,0.35196
3948.14164,0.35285
3946.21290,0.35357
3944.28415,0.35436
3942.35541,0.35536
3940.42666,0.35637
3938.49792,0.35746
3936.56917,0.35879
3934.64043,0.35993
3932.71168,0.36059
3930.78294,0.36137
3928.85419,0.36257
3926.92545,0.36367
3924.99670,0.36440
3923.06795,0.36511
3921.13921,0.36599
3919.21046,0.36689
3917.28172,0.36780
3915.35297,0.36882
3913.42423,0.36991
3911.49548,0.37087
3909.56674,0.37165
3907.63799,0.37238
3905.70925,0.37330
3903.78050,0.37447
3901.85176,0.37553
3899.92301,0.37636
3897.99427,0.37732
3896.06552,0.37829
3894.13678,0.37899
3892.20803,0.37940
3890.27928,0.37973
3888.35054,0.38040
3886.42179,0.38141
3884.49305,0.38227
3882.56430,0.38275
3880.63556,0.38329
3878.70681,0.38412
3876.77807,0.38501
3874.84932,0.38572
3872.92058,0.38616
3870.99183,0.38675
3869.06309,0.38786
3867.13434,0.38924
3865.20560,0.39062
3863.27685,0.39177
3861.34811,0.39280
3859.41936,0.39398
3857.49061,0.39504
3855.56187,0.39593
3853.63312,0.39739
3851.70438,0.39910
3849.77563,0.40003
3847.84689,0.40058
3845.91814,0.40124
3843.98940,0.40201
3842.06065,0.40263
3840.13191,0.40300
3838.20316,0.40346
3836.27442,0.40410
3834.34567,0.40452
3832.41693,0.40482
3830.48818,0.40522
3828.55943,0.40553
3826.63069,0.40561
3824.70194,0.40577
3822.77320,0.40637
3820.84445,0.40703
3818.91571,0.40699
3816.98696,0.40656
3815.05822,0.40658
3813.12947,0.40686
3811.20073,0.40692
3809.27198,0.40682
3807.34324,0.40669
3805.41449,0.40656
3803.48575,0.40649
3801.55700,0.40654
3799.62826,0.40648
3797.69951,0.40624
3795.77076,0.40610
3793.84202,0.40610
3791.91327,0.40603
3789.98453,0.40578
3788.05578,0.40538
3786.12704,0.40484
3784.19829,0.40430
3782.26955,0.40404
3780.34080,0.40398
3778.41206,0.40373
3776.48331,0.40310
3774.55457,0.40239
3772.62582,0.40194
3770.69708,0.40163
3768.76833,0.40121
3766.83959,0.40065
3764.91084,0.40005
3762.98209,0.39936
3761.05335,0.39860
3759.12460,0.39794
3757.19586,0.39740
3755.26711,0.39677
3753.33837,0.39591
3751.40962,0.39489
3749.48088,0.39397
3747.55213,0.39324
3745.62339,0.39230
3743.69464,0.39102
3741.76590,0.38994
3739.83715,0.38905
3737.90841,0.38775
3735.97966,0.38614
3734.05091,0.38484
3732.12217,0.38344
3730.19342,0.38165
3728.26468,0.38005
3726.33593,0.37869
3724.40719,0.37706
3722.47844,0.37506
3720.54970,0.37303
3718.62095,0.37102
3716.69221,0.36887
3714.76346,0.36659
3712.83472,0.36423
3710.90597,0.36168
3708.97723,0.35875
3707.04848,0.35544
3705.11974,0.35194
3703.19099,0.34824
3701.26224,0.34416
3699.33350,0.33998
3697.40475,0.33594
3695.47601,0.33173
3693.54726,0.32714
3691.61852,0.32227
3689.68977,0.31683
3687.76103,0.31060
3685.83228,0.30449
3683.90354,0.29878
3681.97479,0.29293
3680.04605,0.28695
3678.11730,0.28076
3676.18856,0.27342
3674.25981,0.26560
3672.33107,0.25882
3670.40232,0.25210
3668.47357,0.24499
3666.54483,0.23840
3664.61608,0.23212
3662.68734,0.22570
3660.75859,0.21934
3658.82985,0.21352
3656.90110,0.20783
3654.97236,0.20191
3653.04361,0.19631
3651.11487,0.19089
3649.18612,0.18521
3647.25738,0.17963
3645.32863,0.17472
3643.39989,0.17044
3641.47114,0.16644
3639.54239,0.16235
3637.61365,0.15799
3635.68490,0.15358
3633.75616,0.14957
3631.82741,0.14619
3629.89867,0.14290
3627.96992,0.13919
3626.04118,0.13571
3624.11243,0.13262
3622.18369,0.12968
3620.25494,0.12664
3618.32620,0.12334
3616.39745,0.12031
3614.46871,0.11773
3612.53996,0.11511
3610.61122,0.11231
3608.68247,0.10952
3606.75372,0.10671
3604.82498,0.10396
3602.89623,0.10145
3600.96749,0.09909
3599.03874,0.09662
3597.11000,0.09414
3595.18125,0.09200
3593.25251,0.09026
3591.32376,0.08874
3589.39502,0.08714
3587.46627,0.08515
3585.53753,0.08299
3583.60878,0.08107
3581.68004,0.07942
3579.75129,0.07787
3577.82254,0.07638
3575.89380,0.07506
3573.96505,0.07380
3572.03631,0.07233
3570.10756,0.07063
3568.17882,0.06899
3566.25007,0.06770
3564.32133,0.06677
3562.39258,0.06589
3560.46384,0.06483
3558.53509,0.06355
3556.60635,0.06225
3554.67760,0.06128
3552.74886,0.06054
3550.82011,0.05960
3548.89137,0.05865
3546.96262,0.05783
3545.03387,0.05681
3543.10513,0.05581
3541.17638,0.05525
3539.24764,0.05489
3537.31889,0.05429
3535.39015,0.05333
3533.46140,0.05248
3531.53266,0.05212
3529.60391,0.05181
3527.67517,0.05115
3525.74642,0.05043
3523.81768,0.04989
3521.88893,0.04938
3519.96019,0.04872
3518.03144,0.04798
3516.10270,0.04751
3514.17395,0.04727
3512.24520,0.04680
3510.31646,0.04606
3508.38771,0.04548
3506.45897,0.04522
3504.53022,0.04514
3502.60148,0.04503
3500.67273,0.04464
3498.74399,0.04394
3496.81524,0.04339
3494.88650,0.04317
3492.95775,0.04297
3491.02901,0.04261
3489.10026,0.04221
3487.17152,0.04182
3485.24277,0.04147
3483.31402,0.04131
3481.38528,0.04123
3479.45653,0.04087
3477.52779,0.04029
3475.59904,0.03993
3473.67030,0.03992
3471.74155,0.04004
3469.81281,0.03987
3467.88406,0.03940
3465.95532,0.03909
3464.02657,0.03891
3462.09783,0.03860
3460.16908,0.03851
3458.24034,0.03868
3456.31159,0.03855
3454.38285,0.03802
3452.45410,0.03766
3450.52535,0.03767
3448.59661,0.03763
3446.66786,0.03738
3444.73912,0.03727
3442.81037,0.03742
3440.88163,0.03755
3438.95288,0.03750
3437.02414,0.03745
3435.09539,0.03737
3433.16665,0.03715
3431.23790,0.03700
3429.30916,0.03694
3427.38041,0.03691
3425.45167,0.03722
3423.52292,0.03763
3421.59418,0.03761
3419.66543,0.03721
3417.73668,0.03679
3415.80794,0.03656
3413.87919,0.03654
3411.95045,0.03650
3410.02170,0.03642
3408.09296,0.03674
3406.16421,0.03746
3404.23547,0.03781
3402.30672,0.03741
3400.37798,0.03697
3398.44923,0.03709
3396.52049,0.03729
3394.59174,0.03703
3392.66300,0.03672
3390.73425,0.03682
3388.80550,0.03712
3386.87676,0.03714
3384.94801,0.03716
3383.01927,0.03763
3381.09052,0.03798
3379.16178,0.03770
3377.23303,0.03741
3375.30429,0.03750
3373.37554,0.03774
3371.44680,0.03786
3369.51805,0.03772
3367.58931,0.03750
3365.66056,0.03717
3363.73182,0.03678
3361.80307,0.03675
3359.87433,0.03711
3357.94558,0.03737
3356.01683,0.03731
3354.08809,0.03724
3352.15934,0.03752
3350.23060,0.03790
3348.30185,0.03798
3346.37311,0.03797
3344.44436,0.03804
3342.51562,0.03808
3340.58687,0.03837
3338.65813,0.03904
3336.72938,0.03964
3334.80064,0.03973
3332.87189,0.03931
3330.94315,0.03895
3329.01440,0.03923
3327.08566,0.03989
3325.15691,0.04048
3323.22816,0.04078
3321.29942,0.04071
3319.37067,0.04068
3317.44193,0.04109
3315.51318,0.04166
3313.58444,0.04205
3311.65569,0.04237
3309.72695,0.04269
3307.79820,0.04283
3305.86946,0.04264
3303.94071,0.04249
3302.01197,0.04281
3300.08322,0.04317
3298.15448,0.04309
3296.22573,0.04313
3294.29698,0.04358
3292.36824,0.04393
3290.43949,0.04405
3288.51075,0.04430
3286.58200,0.04488
3284.65326,0.04547
3282.72451,0.04582
3280.79577,0.04607
3278.86702,0.04624
3276.93828,0.04626
3275.00953,0.04637
3273.08079,0.04674
3271.15204,0.04730
3269.22330,0.04798
3267.29455,0.04856
3265.36581,0.04897
3263.43706,0.04951
3261.50831,0.05014
3259.57957,0.05065
3257.65082,0.05111
3255.72208,0.05154
3253.79333,0.05205
3251.86459,0.05295
3249.93584,0.05416
3248.00710,0.05493
3246.07835,0.05505
3244.14961,0.05523
3242.22086,0.05571
3240.29212,0.05635
3238.36337,0.05707
3236.43463,0.05751
3234.50588,0.05780
3232.57713,0.05832
3230.64839,0.05894
3228.71964,0.05956
3226.79090,0.06044
3224.86215,0.06131
3222.93341,0.06168
3221.00466,0.06198
3219.07592,0.06269
3217.14717,0.06343
3215.21843,0.06400
3213.28968,0.06460
3211.36094,0.06539
3209.43219,0.06628
3207.50345,0.06685
3205.57470,0.06725
3203.64596,0.06788
3201.71721,0.06851
3199.78846,0.06916
3197.85972,0.07020
3195.93097,0.07127
3194.00223,0.07201
3192.07348,0.07264
3190.14474,0.07325
3188.21599,0.07388
3186.28725,0.07472
3184.35850,0.07559
3182.42976,0.07609
3180.50101,0.07641
3178.57227,0.07685
3176.64352,0.07735
3174.71478,0.07809
3172.78603,0.07923
3170.85729,0.08034
3168.92854,0.08121
3166.99979,0.08201
3165.07105,0.08261
3163.14230,0.08310
3161.21356,0.08381
3159.28481,0.08490
3157.35607,0.08612
3155.42732,0.08707
3153.49858,0.08787
3151.56983,0.08871
3149.64109,0.08944
3147.71234,0.09018
3145.78360,0.09102
3143.85485,0.09180
3141.92611,0.09248
3139.99736,0.09303
3138.06861,0.09364
3136.13987,0.09460
3134.21112,0.09552
3132.28238,0.09612
3130.35363,0.09675
3128.42489,0.09763
3126.49614,0.09849
3124.56740,0.09914
3122.63865,0.09973
3120.70991,0.10049
3118.78116,0.10129
3116.85242,0.10189
3114.92367,0.10257
3112.99493,0.10353
3111.06618,0.10446
3109.13744,0.10531
3107.20869,0.10631
3105.27994,0.10724
3103.35120,0.10806
3101.42245,0.10888
3099.49371,0.10953
3097.56496,0.11005
3095.63622,0.11077
3093.70747,0.11172
3091.77873,0.11257
3089.84998,0.11310
3087.92124,0.11341
3085.99249,0.11369
3084.06375,0.11411
3082.13500,0.11469
3080.20626,0.11540
3078.27751,0.11617
3076.34877,0.11692
3074.42002,0.11762
3072.49127,0.11817
3070.56253,0.11866
3068.63378,0.11925
3066.70504,0.11982
3064.77629,0.12032
3062.84755,0.12101
3060.91880,0.12193
3058.99006,0.12276
3057.06131,0.12332
3055.13257,0.12379
3053.20382,0.12434
3051.27508,0.12493
3049.34633,0.12561
3047.41759,0.12635
3045.48884,0.12683
3043.56009,0.12696
3041.63135,0.12703
3039.70260,0.12714
3037.77386,0.12727
3035.84511,0.12745
3033.91637,0.12735
3031.98762,0.12676
3030.05888,0.12625
3028.13013,0.12616
3026.20139,0.12605
3024.27264,0.12553
3022.34390,0.12477
3020.41515,0.12393
3018.48641,0.12288
3016.55766,0.12159
3014.62892,0.12020
3012.70017,0.11886
3010.77142,0.11771
3008.84268,0.11679
3006.91393,0.11594
3004.98519,0.11502
3003.05644,0.11414
3001.12770,0.11332
2999.19895,0.11246
2997.27021,0.11147
2995.34146,0.11024
2993.41272,0.10880
2991.48397,0.10733
2989.55523,0.10593
2987.62648,0.10440
2985.69774,0.10259
2983.76899,0.10041
2981.84025,0.09791
2979.91150,0.09534
2977.98275,0.09284
2976.05401,0.09038
2974.12526,0.08790
2972.19652,0.08539
2970.26777,0.08304
2968.33903,0.08109
2966.41028,0.07943
2964.48154,0.07784
2962.55279,0.07619
2960.62405,0.07470
2958.69530,0.07366
2956.76656,0.07267
2954.83781,0.07127
2952.90907,0.06975
2950.98032,0.06855
2949.05157,0.06772
2947.12283,0.06697
2945.19408,0.06604
2943.26534,0.06507
2941.33659,0.06437
2939.40785,0.06374
2937.47910,0.06309
2935.55036,0.06265
2933.62161,0.06251
2931.69287,0.06257
2929.76412,0.06257
2927.83538,0.06223
2925.90663,0.06187
2923.97789,0.06192
2922.04914,0.06216
2920.12040,0.06223
2918.19165,0.06213
2916.26290,0.06223
2914.33416,0.06276
2912.40541,0.06332
2910.47667,0.06359
2908.54792,0.06375
2906.61918,0.06399
2904.69043,0.06434
2902.76169,0.06482
2900.83294,0.06535
2898.90420,0.06593
2896.97545,0.06657
2895.04671,0.06714
2893.11796,0.06773
2891.18922,0.06857
2889.26047,0.06937
2887.33172,0.06994
2885.40298,0.07045
2883.47423,0.07075
2881.54549,0.07091
2879.61674,0.07131
2877.68800,0.07191
2875.75925,0.07235
2873.83051,0.07253
2871.90176,0.07262
2869.97302,0.07277
2868.04427,0.07315
2866.11553,0.07389
2864.18678,0.07473
2862.25804,0.07529
2860.32929,0.07560
2858.40055,0.07595
2856.47180,0.07644
2854.54305,0.07704
2852.61431,0.07796
2850.68556,0.07943
2848.75682,0.08142
2846.82807,0.08382
2844.89933,0.08636
2842.97058,0.08880
2841.04184,0.09124
2839.11309,0.09372
2837.18435,0.09628
2835.25560,0.09916
2833.32686,0.10223
2831.39811,0.10512
2829.46937,0.10776
2827.54062,0.11038
2825.61188,0.11310
2823.68313,0.11588
2821.75438,0.11861
2819.82564,0.12111
2817.89689,0.12330
2815.96815,0.12512
2814.03940,0.12683
2812.11066,0.12875
2810.18191,0.13062
2808.25317,0.13220
2806.32442,0.13358
2804.39568,0.13493
2802.46693,0.13632
2800.53819,0.13768
2798.60944,0.13904
2796.68070,0.14039
2794.75195,0.14150
2792.82320,0.14242
2790.89446,0.14342
2788.96571,0.14436
2787.03697,0.14497
2785.10822,0.14547
2783.17948,0.14622
2781.25073,0.14706
2779.32199,0.14766
2777.39324,0.14809
2775.46450,0.14850
2773.53575,0.14895
2771.60701,0.14952
2769.67826,0.15005
2767.74952,0.15040
2765.82077,0.15073
2763.89203,0.15117
2761.96328,0.15166
2760.03453,0.15210
2758.10579,0.15256
2756.17704,0.15296
2754.24830,0.15312
2752.31955,0.15321
2750.39081,0.15341
2748.46206,0.15359
2746.53332,0.15374
2744.60457,0.15389
2742.67583,0.15404
2740.74708,0.15410
2738.81834,0.15403
2736.88959,0.15408
2734.96085,0.15449
2733.03210,0.15502
2731.10336,0.15538
2729.17461,0.15580
2727.24586,0.15636
2725.31712,0.15676
2723.38837,0.15716
2721.45963,0.15782
2719.53088,0.15862
2717.60214,0.15936
2715.67339,0.16007
2713.74465,0.16091
2711.81590,0.16195
2709.88716,0.16310
2707.95841,0.16421
2706.02967,0.16508
2704.10092,0.16575
2702.17218,0.16644
2700.24343,0.16722
2698.31468,0.16809
2696.38594,0.16901
2694.45719,0.16986
2692.52845,0.17058
2690.59970,0.17136
2688.67096,0.17222
2686.74221,0.17295
2684.81347,0.17359
2682.88472,0.17448
2680.95598,0.17557
2679.02723,0.17647
2677.09849,0.17711
2675.16974,0.17774
2673.24100,0.17845
2671.31225,0.17901
2669.38351,0.17941
2667.45476,0.17989
2665.52601,0.18043
2663.59727,0.18093
2661.66852,0.18150
2659.73978,0.18204
2657.81103,0.18237
2655.88229,0.18273
2653.95354,0.18324
2652.02480,0.18369
2650.09605,0.18405
2648.16731,0.18448
2646.23856,0.18506
2644.30982,0.18577
2642.38107,0.18651
2640.45233,0.18724
2638.52358,0.18807
2636.59484,0.18892
2634.66609,0.18963
2632.73734,0.19031
2630.80860,0.19109
2628.87985,0.19189
2626.95111,0.19267
2625.02236,0.19337
2623.09362,0.19391
2621.16487,0.19445
2619.23613,0.19516
2617.30738,0.19584
2615.37864,0.19637
2613.44989,0.19690
2611.52115,0.19757
2609.59240,0.19830
2607.66366,0.19902
2605.73491,0.19959
2603.80616,0.20009
2601.87742,0.20071
2599.94867,0.20136
2598.01993,0.20187
2596.09118,0.20225
2594.16244,0.20262
2592.23369,0.20312
2590.30495,0.20372
2588.37620,0.20434
2586.44746,0.20476
2584.51871,0.20498
2582.58997,0.20521
2580.66122,0.20561
2578.73248,0.20603
2576.80373,0.20633
2574.87499,0.20658
2572.94624,0.20680
2571.01749,0.20690
2569.08875,0.20704
2567.16000,0.20730
2565.23126,0.20761
2563.30251,0.20790
2561.37377,0.20794
2559.44502,0.20782
2557.51628,0.20788
2555.58753,0.20808
2553.65879,0.20822
2551.73004,0.20834
2549.80130,0.20852
2547.87255,0.20886
2545.94381,0.20926
2544.01506,0.20955
2542.08631,0.20977
2540.15757,0.20991
2538.22882,0.21000
2536.30008,0.21034
2534.37133,0.21099
2532.44259,0.21170
2530.51384,0.21235
2528.58510,0.21292
2526.65635,0.21336
2524.72761,0.21370
2522.79886,0.21400
2520.87012,0.21438
2518.94137,0.21484
2517.01263,0.21528
2515.08388,0.21566
2513.15514,0.21617
2511.22639,0.21693
2509.29764,0.21774
2507.36890,0.21847
2505.44015,0.21929
2503.51141,0.22021
2501.58266,0.22098
2499.65392,0.22174
2497.72517,0.22279
2495.79643,0.22395
2493.86768,0.22497
2491.93894,0.22589
2490.01019,0.22678
2488.08145,0.22752
2486.15270,0.22808
2484.22396,0.22863
2482.29521,0.22923
2480.36647,0.22981
2478.43772,0.23047
2476.50897,0.23120
2474.58023,0.23191
2472.65148,0.23264
2470.72274,0.23331
2468.79399,0.23383
2466.86525,0.23434
2464.93650,0.23494
2463.00776,0.23554
2461.07901,0.23611
2459.15027,0.23689
2457.22152,0.23776
2455.29278,0.23852
2453.36403,0.23921
2451.43529,0.23995
2449.50654,0.24086
2447.57779,0.24188
2445.64905,0.24278
2443.72030,0.24352
2441.79156,0.24430
2439.86281,0.24516
2437.93407,0.24602
2436.00532,0.24689
2434.07658,0.24783
2432.14783,0.24882
2430.21909,0.24975
2428.29034,0.25072
2426.36160,0.25182
2424.43285,0.25290
2422.50411,0.25380
2420.57536,0.25462
2418.64662,0.25563
2416.71787,0.25687
2414.78912,0.25816
2412.86038,0.25931
2410.93163,0.26020
2409.00289,0.26103
2407.07414,0.26205
2405.14540,0.26309
2403.21665,0.26400
2401.28791,0.26492
2399.35916,0.26598
2397.43042,0.26712
2395.50167,0.26816
2393.57293,0.26890
2391.64418,0.26947
2389.71544,0.27022
2387.78669,0.27120
2385.85795,0.27205
2383.92920,0.27264
2382.00045,0.27326
2380.07171,0.27400
2378.14296,0.27471
2376.21422,0.27542
2374.28547,0.27611
2372.35673,0.27673
2370.42798,0.27748
2368.49924,0.27836
2366.57049,0.27910
2364.64175,0.27969
2362.71300,0.28029
2360.78426,0.28094
2358.85551,0.28165
2356.92677,0.28238
2354.99802,0.28310
2353.06927,0.28370
2351.14053,0.28418
2349.21178,0.28487
2347.28304,0.28587
2345.35429,0.28683
2343.42555,0.28752
2341.49680,0.28805
2339.56806,0.28847
2337.63931,0.28883
2335.71057,0.28920
2333.78182,0.28960
2331.85308,0.29001
2329.92433,0.29043
2327.99559,0.29079
2326.06684,0.29106
2324.13810,0.29126
2322.20935,0.29138
2320.28060,0.29144
2318.35186,0.29155
2316.42311,0.29175
2314.49437,0.29196
2312.56562,0.29207
2310.63688,0.29205
2308.70813,0.29195
2306.77939,0.29174
2304.85064,0.29135
2302.92190,0.29084
2300.99315,0.29038
2299.06441,0.29009
2297.13566,0.28998
2295.20692,0.28995
2293.27817,0.28987
2291.34943,0.28967
2289.42068,0.28950
2287.49193,0.28950
2285.56319,0.28957
2283.63444,0.28947
2281.70570,0.28922
2279.77695,0.28900
2277.84821,0.28873
2275.91946,0.28831
2273.99072,0.28788
2272.06197,0.28747
2270.13323,0.28681
2268.20448,0.28583
2266.27574,0.28484
2264.34699,0.28398
2262.41825,0.28322
2260.48950,0.28248
2258.56075,0.28168
2256.63201,0.28079
2254.70326,0.27995
2252.77452,0.27936
2250.84577,0.27895
2248.91703,0.27844
2246.98828,0.27779
2245.05954,0.27729
2243.13079,0.27719
2241.20205,0.27731
2239.27330,0.27733
2237.34456,0.27723
2235.41581,0.27724
2233.48707,0.27729
2231.55832,0.27727
2229.62958,0.27732
2227.70083,0.27765
2225.77208,0.27803
2223.84334,0.27816
2221.91459,0.27819
2219.98585,0.27836
2218.05710,0.27857
2216.12836,0.27866
2214.19961,0.27860
2212.27087,0.27840
2210.34212,0.27803
2208.41338,0.27763
2206.48463,0.27739
2204.55589,0.27716
2202.62714,0.27673
2200.69840,0.27615
2198.76965,0.27541
2196.84090,0.27435
2194.91216,0.27324
2192.98341,0.27229
2191.05467,0.27114
2189.12592,0.26970
2187.19718,0.26823
2185.26843,0.26680
2183.33969,0.26532
2181.41094,0.26376
2179.48220,0.26210
2177.55345,0.26047
2175.62471,0.25901
2173.69596,0.25766
2171.76722,0.25616
2169.83847,0.25448
2167.90973,0.25285
2165.98098,0.25146
2164.05223,0.25025
2162.12349,0.24902
2160.19474,0.24779
2158.26600,0.24682
2156.33725,0.24610
2154.40851,0.24550
2152.47976,0.24504
2150.55102,0.24460
2148.62227,0.24402
2146.69353,0.24337
2144.76478,0.24275
2142.83604,0.24220
2140.90729,0.24183
2138.97855,0.24164
2137.04980,0.24154
2135.12106,0.24151
2133.19231,0.24163
2131.26356,0.24184
2129.33482,0.24197
2127.40607,0.24209
2125.47733,0.24226
2123.54858,0.24250
2121.61984,0.24289
2119.69109,0.24339
2117.76235,0.24385
2115.83360,0.24425
2113.90486,0.24471
2111.97611,0.24526
2110.04737,0.24582
2108.11862,0.24629
2106.18988,0.24678
2104.26113,0.24745
2102.33238,0.24820
2100.40364,0.24884
2098.47489,0.24935
2096.54615,0.24986
2094.61740,0.25047
2092.68866,0.25112
2090.75991,0.25174
2088.83117,0.25226
2086.90242,0.25255
2084.97368,0.25262
2083.04493,0.25261
2081.11619,0.25258
2079.18744,0.25251
2077.25870,0.25244
2075.32995,0.25241
2073.40121,0.25232
2071.47246,0.25210
2069.54371,0.25189
2067.61497,0.25182
2065.68622,0.25177
2063.75748,0.25168
2061.82873,0.25166
2059.89999,0.25188
2057.97124,0.25222
2056.04250,0.25246
2054.11375,0.25255
2052.18501,0.25263
2050.25626,0.25278
2048.32752,0.25304
2046.39877,0.25349
2044.47003,0.25396
2042.54128,0.25435
2040.61254,0.25480
2038.68379,0.25535
2036.75504,0.25595
2034.82630,0.25676
2032.89755,0.25769
2030.96881,0.25857
2029.04006,0.25956
2027.11132,0.26073
2025.18257,0.26187
2023.25383,0.26300
2021.32508,0.26417
2019.39634,0.26533
2017.46759,0.26659
2015.53885,0.26798
2013.61010,0.26929
2011.68136,0.27049
2009.75261,0.27169
2007.82386,0.27284
2005.89512,0.27385
2003.96637,0.27474
2002.03763,0.27552
2000.10888,0.27615
1998.18014,0.27672
1996.25139,0.27733
1994.32265,0.27799
1992.39390,0.27864
1990.46516,0.27915
1988.53641,0.27957
1986.60767,0.28012
1984.67892,0.28071
1982.75018,0.28102
1980.82143,0.28116
1978.89269,0.28126
1976.96394,0.28116
1975.03519,0.28091
1973.10645,0.28066
1971.17770,0.28052
1969.24896,0.28051
1967.32021,0.28039
1965.39147,0.27996
1963.46272,0.27951
1961.53398,0.27930
1959.60523,0.27922
1957.67649,0.27918
1955.74774,0.27927
1953.81900,0.27949
1951.89025,0.27994
1949.96151,0.28060
1948.03276,0.28134
1946.10402,0.28217
1944.17527,0.28315
1942.24652,0.28424
1940.31778,0.28531
1938.38903,0.28639
1936.46029,0.28766
1934.53154,0.28903
1932.60280,0.29031
1930.67405,0.29144
1928.74531,0.29235
1926.81656,0.29320
1924.88782,0.29411
1922.95907,0.29487
1921.03033,0.29547
1919.10158,0.29614
1917.17284,0.29675
1915.24409,0.29711
1913.31534,0.29734
1911.38660,0.29758
1909.45785,0.29780
1907.52911,0.29800
1905.60036,0.29816
1903.67162,0.29835
1901.74287,0.29856
1899.81413,0.29869
1897.88538,0.29874
1895.95664,0.29865
1894.02789,0.29837
1892.09915,0.29804
1890.17040,0.29779
1888.24166,0.29759
1886.31291,0.29736
1884.38417,0.29701
1882.45542,0.29652
1880.52667,0.29605
1878.59793,0.29560
1876.66918,0.29502
1874.74044,0.29433
1872.81169,0.29367
1870.88295,0.29311
1868.95420,0.29255
1867.02546,0.29177
1865.09671,0.29067
1863.16797,0.28947
1861.23922,0.28842
1859.31048,0.28745
1857.38173,0.28633
1855.45299,0.28508
1853.52424,0.28380
1851.59549,0.28248
1849.66675,0.28112
1847.73800,0.27974
1845.80926,0.27829
1843.88051,0.27673
1841.95177,0.27513
1840.02302,0.27344
1838.09428,0.27157
1836.16553,0.26958
1834.23679,0.26762
1832.30804,0.26572
1830.37930,0.26368
1828.45055,0.26134
1826.52181,0.25888
1824.59306,0.25639
1822.66432,0.25372
1820.73557,0.25085
1818.80682,0.24798
1816.87808,0.24509
1814.94933,0.24197
1813.02059,0.23871
1811.09184,0.23533
1809.16310,0.23157
1807.23435,0.22753
1805.30561,0.22348
1803.37686,0.21933
1801.44812,0.21487
1799.51937,0.21012
1797.59063,0.20535
1795.66188,0.20070
1793.73314,0.19582
1791.80439,0.19043
1789.87565,0.18500
1787.94690,0.17971
1786.01815,0.17406
1784.08941,0.16781
1782.16066,0.16113
1780.23192,0.15398
1778.30317,0.14640
1776.37443,0.13860
1774.44568,0.13027
1772.51694,0.12066
1770.58819,0.11045
1768.65945,0.10096
1766.73070,0.09234
1764.80196,0.08473
1762.87321,0.07770
1760.94447,0.07123
1759.01572,0.06603
1757.08697,0.06174
1755.15823,0.05815
1753.22948,0.05526
1751.30074,0.05262
1749.37199,0.05030
1747.44325,0.04875
1745.51450,0.04779
1743.58576,0.04718
1741.65701,0.04705
1739.72827,0.04742
1737.79952,0.04807
1735.87078,0.04884
1733.94203,0.04985
1732.01329,0.05104
1730.08454,0.05224
1728.15580,0.05371
1726.22705,0.05559
1724.29830,0.05759
1722.36956,0.05954
1720.44081,0.06159
1718.51207,0.06383
1716.58332,0.06615
1714.65458,0.06855
1712.72583,0.07115
1710.79709,0.07395
1708.86834,0.07688
1706.93960,0.08000
1705.01085,0.08322
1703.08211,0.08629
1701.15336,0.08947
1699.22462,0.09252
1697.29587,0.09486
1695.36713,0.09684
1693.43838,0.09828
1691.50963,0.09896
1689.58089,0.09924
1687.65214,0.09920
1685.72340,0.09853
1683.79465,0.09712
1681.86591,0.09556
1679.93716,0.09400
1678.00842,0.09218
1676.07967,0.08997
1674.15093,0.08774
1672.22218,0.08612
1670.29344,0.08486
1668.36469,0.08359
1666.43595,0.08256
1664.50720,0.08172
1662.57845,0.08088
1660.64971,0.08010
1658.72096,0.07948
1656.79222,0.07901
1654.86347,0.07885
1652.93473,0.07912
1651.00598,0.07945
1649.07724,0.07955
1647.14849,0.07952
1645.21975,0.07951
1643.29100,0.07954
1641.36226,0.07950
1639.43351,0.07946
1637.50477,0.07937
1635.57602,0.07908
1633.64728,0.07893
1631.71853,0.07900
1629.78978,0.07890
1627.86104,0.07857
1625.93229,0.07821
1624.00355,0.07788
1622.07480,0.07755
1620.14606,0.07722
1618.21731,0.07691
1616.28857,0.07643
1614.35982,0.07565
1612.43108,0.07458
1610.50233,0.07324
1608.57359,0.07166
1606.64484,0.07004
1604.71610,0.06856
1602.78735,0.06714
1600.85861,0.06561
1598.92986,0.06402
1597.00111,0.06263
1595.07237,0.06190
1593.14362,0.06238
1591.21488,0.06418
1589.28613,0.06690
1587.35739,0.07032
1585.42864,0.07452
1583.49990,0.07937
1581.57115,0.08456
1579.64241,0.08975
1577.71366,0.09493
1575.78492,0.10035
1573.85617,0.10518
1571.92743,0.10915
1569.99868,0.11278
1568.06993,0.11593
1566.14119,0.11840
1564.21244,0.12026
1562.28370,0.12143
1560.35495,0.12217
1558.42621,0.12275
1556.49746,0.12299
1554.56872,0.12309
1552.63997,0.12325
1550.71123,0.12322
1548.78248,0.12287
1546.85374,0.12243
1544.92499,0.12199
1542.99625,0.12134
1541.06750,0.12030
1539.13876,0.11878
1537.21001,0.11714
1535.28126,0.11534
1533.35252,0.11294
1531.42377,0.11002
1529.49503,0.10668
1527.56628,0.10258
1525.63754,0.09785
1523.70879,0.09275
1521.78005,0.08658
1519.85130,0.07998
1517.92256,0.07443
1515.99381,0.06971
1514.06507,0.06581
1512.13632,0.06288
1510.20758,0.06073
1508.27883,0.05912
1506.35008,0.05805
1504.42134,0.05808
1502.49259,0.05913
1500.56385,0.06091
1498.63510,0.06335
1496.70636,0.06619
1494.77761,0.06894
1492.84887,0.07127
1490.92012,0.07325
1488.99138,0.07464
1487.06263,0.07499
1485.13389,0.07432
1483.20514,0.07283
1481.27640,0.07056
1479.34765,0.06772
1477.41891,0.06438
1475.49016,0.06045
1473.56141,0.05597
1471.63267,0.05168
1469.70392,0.04864
1467.77518,0.04682
1465.84643,0.04571
1463.91769,0.04511
1461.98894,0.04495
1460.06020,0.04520
1458.13145,0.04560
1456.20271,0.04590
1454.27396,0.04629
1452.34522,0.04693
1450.41647,0.04765
1448.48773,0.04834
1446.55898,0.04886
1444.63024,0.04907
1442.70149,0.04893
1440.77274,0.04845
1438.84400,0.04768
1436.91525,0.04660
1434.98651,0.04545
1433.05776,0.04449
1431.12902,0.04375
1429.20027,0.04339
1427.27153,0.04342
1425.34278,0.04366
1423.41404,0.04416
1421.48529,0.04498
1419.55655,0.04607
1417.62780,0.04728
1415.69906,0.04835
1413.77031,0.04933
1411.84156,0.05031
1409.91282,0.05107
1407.98407,0.05142
1406.05533,0.05152
1404.12658,0.05149
1402.19784,0.05134
1400.26909,0.05101
1398.34035,0.05036
1396.41160,0.04943
1394.48286,0.04839
1392.55411,0.04737
1390.62537,0.04636
1388.69662,0.04539
1386.76788,0.04434
1384.83913,0.04314
1382.91039,0.04201
1380.98164,0.04118
1379.05289,0.04060
1377.12415,0.04024
1375.19540,0.04009
1373.26666,0.04012
1371.33791,0.04033
1369.40917,0.04086
1367.48042,0.04167
1365.55168,0.04250
1363.62293,0.04320
1361.69419,0.04386
1359.76544,0.04448
1357.83670,0.04514
1355.90795,0.04585
1353.97921,0.04636
1352.05046,0.04643
1350.12172,0.04622
1348.19297,0.04583
1346.26422,0.04533
1344.33548,0.04478
1342.40673,0.04416
1340.47799,0.04355
1338.54924,0.04310
1336.62050,0.04284
1334.69175,0.04278
1332.76301,0.04281
1330.83426,0.04281
1328.90552,0.04287
1326.97677,0.04289
1325.04803,0.04285
1323.11928,0.04287
1321.19054,0.04301
1319.26179,0.04337
1317.33304,0.04391
1315.40430,0.04452
1313.47555,0.04516
1311.54681,0.04586
1309.61806,0.04660
1307.68932,0.04728
1305.76057,0.04783
1303.83183,0.04821
1301.90308,0.04839
1299.97434,0.04841
1298.04559,0.04823
1296.11685,0.04765
1294.18810,0.04678
1292.25936,0.04596
1290.33061,0.04530
1288.40187,0.04451
1286.47312,0.04343
1284.54437,0.04217
1282.61563,0.04116
1280.68688,0.04064
1278.75814,0.04034
1276.82939,0.03991
1274.90065,0.03932
1272.97190,0.03871
1271.04316,0.03828
1269.11441,0.03802
1267.18567,0.03776
1265.25692,0.03745
1263.32818,0.03707
1261.39943,0.03668
1259.47069,0.03647
1257.54194,0.03649
1255.61320,0.03654
1253.68445,0.03650
1251.75570,0.03641
1249.82696,0.03619
1247.89821,0.03595
1245.96947,0.03591
1244.04072,0.03611
1242.11198,0.03646
1240.18323,0.03693
1238.25449,0.03750
1236.32574,0.03808
1234.39700,0.03845
1232.46825,0.03854
1230.53951,0.03864
1228.61076,0.03904
1226.68202,0.03964
1224.75327,0.04033
1222.82452,0.04107
1220.89578,0.04177
1218.96703,0.04233
1217.03829,0.04276
1215.10954,0.04323
1213.18080,0.04386
1211.25205,0.04450
1209.32331,0.04500
1207.39456,0.04529
1205.46582,0.04548
1203.53707,0.04574
1201.60833,0.04592
1199.67958,0.04588
1197.75084,0.04575
1195.82209,0.04554
1193.89335,0.04526
1191.96460,0.04493
1190.03585,0.04434
1188.10711,0.04329
1186.17836,0.04197
1184.24962,0.04058
1182.32087,0.03931
1180.39213,0.03826
1178.46338,0.03730
1176.53464,0.03643
1174.60589,0.03562
1172.67715,0.03488
1170.74840,0.03461
1168.81966,0.03487
1166.89091,0.03523
1164.96217,0.03560
1163.03342,0.03615
1161.10467,0.03679
1159.17593,0.03718
1157.24718,0.03715
1155.31844,0.03708
1153.38969,0.03717
1151.46095,0.03707
1149.53220,0.03666
1147.60346,0.03617
1145.67471,0.03562
1143.74597,0.03487
1141.81722,0.03392
1139.88848,0.03298
1137.95973,0.03218
1136.03099,0.03151
1134.10224,0.03099
1132.17350,0.03073
1130.24475,0.03064
1128.31600,0.03057
1126.38726,0.03071
1124.45851,0.03136
1122.52977,0.03223
1120.60102,0.03277
1118.67228,0.03293
1116.74353,0.03320
1114.81479,0.03380
1112.88604,0.03437
1110.95730,0.03467
1109.02855,0.03494
1107.09981,0.03521
1105.17106,0.03546
1103.24232,0.03570
1101.31357,0.03573
1099.38483,0.03553
1097.45608,0.03528
1095.52733,0.03507
1093.59859,0.03490
1091.66984,0.03494
1089.74110,0.03503
1087.81235,0.03497
1085.88361,0.03490
1083.95486,0.03499
1082.02612,0.03536
1080.09737,0.03592
1078.16863,0.03649
1076.23988,0.03710
1074.31114,0.03768
1072.38239,0.03829
1070.45365,0.03931
1068.52490,0.04067
1066.59615,0.04208
1064.66741,0.04350
1062.73866,0.04493
1060.80992,0.04624
1058.88117,0.04723
1056.95243,0.04788
1055.02368,0.04846
1053.09494,0.04896
1051.16619,0.04915
1049.23745,0.04908
1047.30870,0.04903
1045.37996,0.04921
1043.45121,0.04963
1041.52247,0.05028
1039.59372,0.05127
1037.66498,0.05241
1035.73623,0.05323
1033.80748,0.05383
1031.87874,0.05477
1029.94999,0.05590
1028.02125,0.05653
1026.09250,0.05649
1024.16376,0.05637
1022.23501,0.05662
1020.30627,0.05710
1018.37752,0.05764
1016.44878,0.05824
1014.52003,0.05889
1012.59129,0.05950
1010.66254,0.05995
1008.73380,0.06038
1006.80505,0.06091
1004.87631,0.06121
1002.94756,0.06119
1001.01881,0.06149
999.09007,0.06241
997.16132,0.06344
995.23258,0.06411
993.30383,0.06461
991.37509,0.06529
989.44634,0.06648
987.51760,0.06834
985.58885,0.07078
983.66011,0.07357
981.73136,0.07632
979.80262,0.07876
977.87387,0.08087
975.94513,0.08277
974.01638,0.08452
972.08763,0.08589
970.15889,0.08700
968.23014,0.08829
966.30140,0.09000
964.37265,0.09192
962.44391,0.09388
960.51516,0.09615
958.58642,0.09901
956.65767,0.10223
954.72893,0.10530
952.80018,0.10795
950.87144,0.11014
948.94269,0.11201
947.01395,0.11351
945.08520,0.11443
943.15646,0.11505
941.22771,0.11558
939.29896,0.11571
937.37022,0.11539
935.44147,0.11484
933.51273,0.11426
931.58398,0.11394
929.65524,0.11397
927.72649,0.11401
925.79775,0.11368
923.86900,0.11302
921.94026,0.11240
920.01151,0.11193
918.08277,0.11118
916.15402,0.10986
914.22528,0.10823
912.29653,0.10667
910.36779,0.10516
908.43904,0.10355
906.51029,0.10157
904.58155,0.09909
902.65280,0.09659
900.72406,0.09494
898.79531,0.09451
896.86657,0.09523
894.93782,0.09685
893.00908,0.09920
891.08033,0.10219
889.15159,0.10555
887.22284,0.10869
885.29410,0.11107
883.36535,0.11252
881.43661,0.11354
879.50786,0.11463
877.57911,0.11568
875.65037,0.11661
873.72162,0.11742
871.79288,0.11815
869.86413,0.11908
867.93539,0.12008
866.00664,0.12084
864.07790,0.12148
862.14915,0.12209
860.22041,0.12237
858.29166,0.12225
856.36292,0.12213
854.43417,0.12194
852.50543,0.12108
850.57668,0.11967
848.64794,0.11847
846.71919,0.11778
844.79044,0.11736
842.86170,0.11692
840.93295,0.11619
839.00421,0.11494
837.07546,0.11345
835.14672,0.11245
833.21797,0.11217
831.28923,0.11215
829.36048,0.11215
827.43174,0.11251
825.50299,0.11336
823.57425,0.11426
821.64550,0.11466
819.71676,0.11469
817.78801,0.11492
815.85926,0.11544
813.93052,0.11569
812.00177,0.11551
810.07303,0.11534
808.14428,0.11536
806.21554,0.11535
804.28679,0.11527
802.35805,0.11537
800.42930,0.11560
798.50056,0.11564
796.57181,0.11527
794.64307,0.11461
792.71432,0.11402
790.78558,0.11387
788.85683,0.11377
786.92809,0.11313
784.99934,0.11202
783.07059,0.11097
781.14185,0.11021
779.21310,0.10928
777.28436,0.10794
775.35561,0.10663
773.42687,0.10557
771.49812,0.10445
769.56938,0.10297
767.64063,0.10149
765.71189,0.10058
763.78314,0.09986
761.85440,0.09855
759.92565,0.09679
757.99691,0.09523
756.06816,0.09399
754.13942,0.09289
752.21067,0.09181
750.28192,0.09059
748.35318,0.08933
746.42443,0.08829
744.49569,0.08747
742.56694,0.08680
740.63820,0.08605
738.70945,0.08498
736.78071,0.08368
734.85196,0.08248
732.92322,0.08158
730.99447,0.08072
729.06573,0.07935
727.13698,0.07774
725.20824,0.07653
723.27949,0.07573
721.35074,0.07510
719.42200,0.07453
717.49325,0.07403
715.56451,0.07376
713.63576,0.07382
711.70702,0.07392
709.77827,0.07383
707.84953,0.07369
705.92078,0.07324
703.99204,0.07223
702.06329,0.07134
700.13455,0.07137
698.20580,0.07185
696.27706,0.07221
694.34831,0.07241
692.41957,0.07196
690.49082,0.07088
688.56207,0.06991
686.63333,0.06920
684.70458,0.06846
682.77584,0.06742
680.84709,0.06595
678.91835,0.06445
676.98960,0.06344
675.06086,0.06299
673.13211,0.06301
671.20337,0.06288
669.27462,0.06227
667.34588,0.06198
665.41713,0.06234
663.48839,0.06281
661.55964,0.06321
659.63090,0.06353
657.70215,0.06350
655.77340,0.06287
653.84466,0.06234
651.91591,0.06258
649.98717,0.06268
648.05842,0.06189
646.12968,0.06131
644.20093,0.06168
642.27219,0.06189
640.34344,0.06105
638.41470,0.05979
636.48595,0.05863
634.55721,0.05748
632.62846,0.05690
630.69972,0.05679
628.77097,0.05608
626.84222,0.05486
624.91348,0.05428
622.98473,0.05454
621.05599,0.05483
619.12724,0.05503
617.19850,0.05545
615.26975,0.05561
613.34101,0.05511
611.41226,0.05462
609.48352,0.05503
607.55477,0.05626
605.62603,0.05726
603.69728,0.05766
601.76854,0.05811
599.83979,0.05862
