7497.03301,0.84603
7495.10426,0.84272
7493.17552,0.83838
7491.24677,0.83967
7489.31803,0.84452
7487.38928,0.84482
7485.46054,0.83942
7483.53179,0.83568
7481.60305,0.83773
7479.67430,0.84151
7477.74556,0.84134
7475.81681,0.83811
7473.88807,0.83778
7471.95932,0.84077
7470.03057,0.84049
7468.10183,0.83626
7466.17308,0.83393
7464.24434,0.83221
7462.31559,0.82687
7460.38685,0.82158
7458.45810,0.82026
7456.52936,0.82269
7454.60061,0.82625
7452.67187,0.82701
7450.74312,0.82625
7448.81438,0.82540
7446.88563,0.82215
7444.95689,0.81988
7443.02814,0.82181
7441.09940,0.82346
7439.17065,0.82118
7437.24190,0.81800
7435.31316,0.81765
7433.38441,0.81939
7431.45567,0.82127
7429.52692,0.82137
7427.59818,0.82022
7425.66943,0.81990
7423.74069,0.81926
7421.81194,0.81969
7419.88320,0.82149
7417.95445,0.82043
7416.02571,0.81828
7414.09696,0.81731
7412.16822,0.81549
7410.23947,0.81261
7408.31073,0.80938
7406.38198,0.80854
7404.45323,0.81025
7402.52449,0.80845
7400.59574,0.80312
7398.66700,0.80108
7396.73825,0.80342
7394.80951,0.80400
7392.88076,0.80070
7390.95202,0.79927
7389.02327,0.80136
7387.09453,0.80239
7385.16578,0.79999
7383.23704,0.79589
7381.30829,0.79593
7379.37955,0.80103
7377.45080,0.80277
7375.52205,0.79876
7373.59331,0.79578
7371.66456,0.79554
7369.73582,0.79288
7367.80707,0.78804
7365.87833,0.78753
7363.94958,0.79332
7362.02084,0.80027
7360.09209,0.80089
7358.16335,0.79616
7356.23460,0.79510
7354.30586,0.79749
7352.37711,0.79703
7350.44837,0.79574
7348.51962,0.79574
7346.59088,0.79224
7344.66213,0.78757
7342.73338,0.79000
7340.80464,0.79550
7338.87589,0.79593
7336.94715,0.79359
7335.01840,0.79243
7333.08966,0.79067
7331.16091,0.78386
7329.23217,0.77503
7327.30342,0.77292
7325.37468,0.77507
7323.44593,0.77360
7321.51719,0.77049
7319.58844,0.76924
7317.65970,0.76917
7315.73095,0.77158
7313.80221,0.77690
7311.87346,0.78144
7309.94471,0.78182
7308.01597,0.77886
7306.08722,0.77605
7304.15848,0.77460
7302.22973,0.77505
7300.30099,0.77943
7298.37224,0.78485
7296.44350,0.78459
7294.51475,0.77789
7292.58601,0.77039
7290.65726,0.76708
7288.72852,0.76883
7286.79977,0.77298
7284.87103,0.77510
7282.94228,0.77327
7281.01353,0.77008
7279.08479,0.76904
7277.15604,0.76960
7275.22730,0.76825
7273.29855,0.76554
7271.36981,0.76743
7269.44106,0.77571
7267.51232,0.78210
7265.58357,0.78023
7263.65483,0.77548
7261.72608,0.77410
7259.79734,0.77412
7257.86859,0.77212
7255.93985,0.76905
7254.01110,0.76744
7252.08236,0.76805
7250.15361,0.77008
7248.22486,0.77344
7246.29612,0.77554
7244.36737,0.77150
7242.43863,0.76551
7240.50988,0.76487
7238.58114,0.76596
7236.65239,0.76459
7234.72365,0.76492
7232.79490,0.76861
7230.86616,0.76992
7228.93741,0.76682
7227.00867,0.76348
7225.07992,0.76153
7223.15118,0.76057
7221.22243,0.76310
7219.29369,0.76870
7217.36494,0.77125
7215.43619,0.76987
7213.50745,0.76728
7211.57870,0.76367
7209.64996,0.76197
7207.72121,0.76453
7205.79247,0.76708
7203.86372,0.76484
7201.93498,0.76121
7200.00623,0.76147
7198.07749,0.76351
7196.14874,0.76465
7194.22000,0.76499
7192.29125,0.76303
7190.36251,0.75932
7188.43376,0.75893
7186.50501,0.76311
7184.57627,0.76547
7182.64752,0.76308
7180.71878,0.76028
7178.79003,0.76077
7176.86129,0.76330
7174.93254,0.76291
7173.00380,0.75776
7171.07505,0.75142
7169.14631,0.74701
7167.21756,0.74592
7165.28882,0.74873
7163.36007,0.75361
7161.43133,0.75751
7159.50258,0.75726
7157.57384,0.75252
7155.64509,0.74836
7153.71634,0.74753
7151.78760,0.74609
7149.85885,0.74054
7147.93011,0.73389
7146.00136,0.73288
7144.07262,0.73786
7142.14387,0.74266
7140.21513,0.74389
7138.28638,0.74198
7136.35764,0.73873
7134.42889,0.73498
7132.50015,0.73258
7130.57140,0.73414
7128.64266,0.73734
7126.71391,0.73790
7124.78516,0.73469
7122.85642,0.73041
7120.92767,0.72852
7118.99893,0.72734
7117.07018,0.72481
7115.14144,0.72142
7113.21269,0.71665
7111.28395,0.71298
7109.35520,0.71211
7107.42646,0.71096
7105.49771,0.70992
7103.56897,0.71163
7101.64022,0.71470
7099.71148,0.71559
7097.78273,0.71334
7095.85399,0.71126
7093.92524,0.71034
7091.99649,0.70762
7090.06775,0.70340
7088.13900,0.69989
7086.21026,0.69786
7084.28151,0.69734
7082.35277,0.69721
7080.42402,0.69735
7078.49528,0.69757
7076.56653,0.69632
7074.63779,0.69385
7072.70904,0.69173
7070.78030,0.69075
7068.85155,0.68991
7066.92281,0.68800
7064.99406,0.68496
7063.06532,0.68039
7061.13657,0.67573
7059.20782,0.67409
7057.27908,0.67588
7055.35033,0.67677
7053.42159,0.67245
7051.49284,0.66655
7049.56410,0.66490
7047.63535,0.66568
7045.70661,0.66454
7043.77786,0.66282
7041.84912,0.66378
7039.92037,0.66600
7037.99163,0.66679
7036.06288,0.66484
7034.13414,0.65904
7032.20539,0.65241
7030.27664,0.64970
7028.34790,0.64879
7026.41915,0.64701
7024.49041,0.64683
7022.56166,0.64748
7020.63292,0.64843
7018.70417,0.65113
7016.77543,0.65111
7014.84668,0.64717
7012.91794,0.64456
7010.98919,0.64485
7009.06045,0.64503
7007.13170,0.64315
7005.20296,0.64161
7003.27421,0.64187
7001.34547,0.64144
6999.41672,0.63911
6997.48797,0.63647
6995.55923,0.63601
6993.63048,0.63681
6991.70174,0.63443
6989.77299,0.62910
6987.84425,0.62692
6985.91550,0.62989
6983.98676,0.63229
6982.05801,0.63082
6980.12927,0.62897
6978.20052,0.62874
6976.27178,0.62859
6974.34303,0.62798
6972.41429,0.62671
6970.48554,0.62441
6968.55680,0.62316
6966.62805,0.62544
6964.69930,0.62950
6962.77056,0.63115
6960.84181,0.62827
6958.91307,0.62316
6956.98432,0.62039
6955.05558,0.62109
6953.12683,0.62243
6951.19809,0.62226
6949.26934,0.62172
6947.34060,0.62177
6945.41185,0.62025
6943.48311,0.61784
6941.55436,0.61828
6939.62562,0.62086
6937.69687,0.62217
6935.76812,0.62062
6933.83938,0.61843
6931.91063,0.61955
6929.98189,0.62228
6928.05314,0.62254
6926.12440,0.62186
6924.19565,0.62165
6922.26691,0.62088
6920.33816,0.62020
6918.40942,0.61915
6916.48067,0.61710
6914.55193,0.61624
6912.62318,0.61838
6910.69444,0.62248
6908.76569,0.62472
6906.83695,0.62340
6904.90820,0.62121
6902.97945,0.61961
6901.05071,0.61931
6899.12196,0.62090
6897.19322,0.62216
6895.26447,0.62193
6893.33573,0.62101
6891.40698,0.62011
6889.47824,0.62087
6887.54949,0.62221
6885.62075,0.62099
6883.69200,0.61792
6881.76326,0.61478
6879.83451,0.61196
6877.90577,0.61106
6875.97702,0.61321
6874.04828,0.61768
6872.11953,0.62173
6870.19078,0.62228
6868.26204,0.62046
6866.33329,0.61878
6864.40455,0.61816
6862.47580,0.61903
6860.54706,0.61949
6858.61831,0.61889
6856.68957,0.61882
6854.76082,0.61882
6852.83208,0.61767
6850.90333,0.61559
6848.97459,0.61543
6847.04584,0.61811
6845.11710,0.61919
6843.18835,0.61752
6841.25960,0.61710
6839.33086,0.61891
6837.40211,0.62057
6835.47337,0.62064
6833.54462,0.61807
6831.61588,0.61406
6829.68713,0.61347
6827.75839,0.61662
6825.82964,0.61757
6823.90090,0.61533
6821.97215,0.61522
6820.04341,0.61722
6818.11466,0.61692
6816.18592,0.61481
6814.25717,0.61393
6812.32843,0.61532
6810.39968,0.61734
6808.47093,0.61684
6806.54219,0.61496
6804.61344,0.61557
6802.68470,0.61804
6800.75595,0.61863
6798.82721,0.61623
6796.89846,0.61369
6794.96972,0.61342
6793.04097,0.61410
6791.11223,0.61466
6789.18348,0.61644
6787.25474,0.61852
6785.32599,0.61793
6783.39725,0.61530
6781.46850,0.61410
6779.53975,0.61556
6777.61101,0.61747
6775.68226,0.61811
6773.75352,0.61895
6771.82477,0.62089
6769.89603,0.62167
6767.96728,0.61986
6766.03854,0.61738
6764.10979,0.61535
6762.18105,0.61296
6760.25230,0.61177
6758.32356,0.61236
6756.39481,0.61303
6754.46607,0.61355
6752.53732,0.61199
6750.60858,0.60831
6748.67983,0.60741
6746.75108,0.60971
6744.82234,0.61166
6742.89359,0.61292
6740.96485,0.61463
6739.03610,0.61694
6737.10736,0.61866
6735.17861,0.61831
6733.24987,0.61709
6731.32112,0.61689
6729.39238,0.61692
6727.46363,0.61709
6725.53489,0.61846
6723.60614,0.61967
6721.67740,0.61969
6719.74865,0.61941
6717.81991,0.61940
6715.89116,0.61951
6713.96241,0.61864
6712.03367,0.61699
6710.10492,0.61692
6708.17618,0.61821
6706.24743,0.61865
6704.31869,0.61903
6702.38994,0.62054
6700.46120,0.62216
6698.53245,0.62351
6696.60371,0.62390
6694.67496,0.62259
6692.74622,0.62258
6690.81747,0.62467
6688.88873,0.62536
6686.95998,0.62435
6685.03123,0.62291
6683.10249,0.62114
6681.17374,0.62001
6679.24500,0.61990
6677.31625,0.62055
6675.38751,0.62248
6673.45876,0.62558
6671.53002,0.62747
6669.60127,0.62777
6667.67253,0.62874
6665.74378,0.62894
6663.81504,0.62667
6661.88629,0.62442
6659.95755,0.62447
6658.02880,0.62596
6656.10006,0.62626
6654.17131,0.62570
6652.24256,0.62587
6650.31382,0.62567
6648.38507,0.62499
6646.45633,0.62479
6644.52758,0.62592
6642.59884,0.62910
6640.67009,0.63197
6638.74135,0.63182
6636.81260,0.62964
6634.88386,0.62828
6632.95511,0.62894
6631.02637,0.62971
6629.09762,0.62864
6627.16888,0.62708
6625.24013,0.62674
6623.31139,0.62709
6621.38264,0.62820
6619.45389,0.62983
6617.52515,0.63005
6615.59640,0.62950
6613.66766,0.63007
6611.73891,0.63130
6609.81017,0.63225
6607.88142,0.63360
6605.95268,0.63614
6604.02393,0.63766
6602.09519,0.63653
6600.16644,0.63494
6598.23770,0.63451
6596.30895,0.63546
6594.38021,0.63735
6592.45146,0.63824
6590.52271,0.63795
6588.59397,0.63865
6586.66522,0.64031
6584.73648,0.64065
6582.80773,0.63969
6580.87899,0.63997
6578.95024,0.64148
6577.02150,0.64171
6575.09275,0.64056
6573.16401,0.64053
6571.23526,0.64276
6569.30652,0.64537
6567.37777,0.64596
6565.44903,0.64458
6563.52028,0.64316
6561.59154,0.64231
6559.66279,0.64102
6557.73404,0.64051
6555.80530,0.64296
6553.87655,0.64658
6551.94781,0.64769
6550.01906,0.64693
6548.09032,0.64718
6546.16157,0.64714
6544.23283,0.64526
6542.30408,0.64326
6540.37534,0.64283
6538.44659,0.64409
6536.51785,0.64527
6534.58910,0.64549
6532.66036,0.64663
6530.73161,0.64902
6528.80287,0.65058
6526.87412,0.64970
6524.94537,0.64663
6523.01663,0.64417
6521.08788,0.64439
6519.15914,0.64552
6517.23039,0.64602
6515.30165,0.64644
6513.37290,0.64605
6511.44416,0.64456
6509.51541,0.64414
6507.58667,0.64508
6505.65792,0.64550
6503.72918,0.64612
6501.80043,0.64812
6499.87169,0.64954
6497.94294,0.64905
6496.01419,0.64814
6494.08545,0.64789
6492.15670,0.64768
6490.22796,0.64715
6488.29921,0.64647
6486.37047,0.64616
6484.44172,0.64683
6482.51298,0.64755
6480.58423,0.64734
6478.65549,0.64666
6476.72674,0.64660
6474.79800,0.64846
6472.86925,0.65159
6470.94051,0.65328
6469.01176,0.65271
6467.08302,0.65198
6465.15427,0.65240
6463.22552,0.65254
6461.29678,0.65184
6459.36803,0.65212
6457.43929,0.65331
6455.51054,0.65323
6453.58180,0.65209
6451.65305,0.65088
6449.72431,0.64912
6447.79556,0.64887
6445.86682,0.65173
6443.93807,0.65406
6442.00933,0.65378
6440.08058,0.65338
6438.15184,0.65432
6436.22309,0.65530
6434.29434,0.65511
6432.36560,0.65434
6430.43685,0.65387
6428.50811,0.65308
6426.57936,0.65130
6424.65062,0.65013
6422.72187,0.65125
6420.79313,0.65302
6418.86438,0.65328
6416.93564,0.65294
6415.00689,0.65382
6413.07815,0.65555
6411.14940,0.65618
6409.22066,0.65533
6407.29191,0.65466
6405.36317,0.65484
6403.43442,0.65550
6401.50567,0.65643
6399.57693,0.65627
6397.64818,0.65491
6395.71944,0.65452
6393.79069,0.65561
6391.86195,0.65656
6389.93320,0.65626
6388.00446,0.65568
6386.07571,0.65559
6384.14697,0.65513
6382.21822,0.65488
6380.28948,0.65505
6378.36073,0.65474
6376.43199,0.65447
6374.50324,0.65395
6372.57450,0.65304
6370.64575,0.65306
6368.71700,0.65400
6366.78826,0.65488
6364.85951,0.65532
6362.93077,0.65550
6361.00202,0.65559
6359.07328,0.65614
6357.14453,0.65698
6355.21579,0.65666
6353.28704,0.65561
6351.35830,0.65528
6349.42955,0.65514
6347.50081,0.65418
6345.57206,0.65399
6343.64332,0.65659
6341.71457,0.65951
6339.78582,0.65978
6337.85708,0.65885
6335.92833,0.65908
6333.99959,0.65996
6332.07084,0.66037
6330.14210,0.66082
6328.21335,0.66074
6326.28461,0.65909
6324.35586,0.65780
6322.42712,0.65892
6320.49837,0.66108
6318.56963,0.66189
6316.64088,0.66147
6314.71214,0.66234
6312.78339,0.66551
6310.85465,0.66721
6308.92590,0.66467
6306.99715,0.66194
6305.06841,0.66327
6303.13966,0.66668
6301.21092,0.66765
6299.28217,0.66582
6297.35343,0.66388
6295.42468,0.66302
6293.49594,0.66273
6291.56719,0.66229
6289.63845,0.66224
6287.70970,0.66304
6285.78096,0.66406
6283.85221,0.66453
6281.92347,0.66385
6279.99472,0.66354
6278.06598,0.66500
6276.13723,0.66607
6274.20848,0.66518
6272.27974,0.66483
6270.35099,0.66677
6268.42225,0.66878
6266.49350,0.66890
6264.56476,0.66828
6262.63601,0.66832
6260.70727,0.66855
6258.77852,0.66864
6256.84978,0.66943
6254.92103,0.67053
6252.99229,0.67103
6251.06354,0.67164
6249.13480,0.67248
6247.20605,0.67185
6245.27730,0.67070
6243.34856,0.67163
6241.41981,0.67434
6239.49107,0.67736
6237.56232,0.67943
6235.63358,0.67989
6233.70483,0.67979
6231.77609,0.68050
6229.84734,0.68171
6227.91860,0.68195
6225.98985,0.68140
6224.06111,0.68099
6222.13236,0.68078
6220.20362,0.68051
6218.27487,0.68074
6216.34613,0.68317
6214.41738,0.68663
6212.48863,0.68795
6210.55989,0.68734
6208.63114,0.68663
6206.70240,0.68572
6204.77365,0.68519
6202.84491,0.68662
6200.91616,0.68849
6198.98742,0.68895
6197.05867,0.68907
6195.12993,0.68985
6193.20118,0.69034
6191.27244,0.68965
6189.34369,0.68908
6187.41495,0.68999
6185.48620,0.69184
6183.55746,0.69292
6181.62871,0.69279
6179.69996,0.69235
6177.77122,0.69084
6175.84247,0.68888
6173.91373,0.68919
6171.98498,0.69169
6170.05624,0.69420
6168.12749,0.69535
6166.19875,0.69556
6164.27000,0.69583
6162.34126,0.69622
6160.41251,0.69642
6158.48377,0.69639
6156.55502,0.69625
6154.62628,0.69595
6152.69753,0.69566
6150.76878,0.69556
6148.84004,0.69588
6146.91129,0.69726
6144.98255,0.69966
6143.05380,0.70234
6141.12506,0.70366
6139.19631,0.70269
6137.26757,0.70181
6135.33882,0.70280
6133.41008,0.70358
6131.48133,0.70282
6129.55259,0.70213
6127.62384,0.70283
6125.69510,0.70372
6123.76635,0.70342
6121.83761,0.70288
6119.90886,0.70305
6117.98011,0.70308
6116.05137,0.70274
6114.12262,0.70259
6112.19388,0.70222
6110.26513,0.70171
6108.33639,0.70215
6106.40764,0.70308
6104.47890,0.70298
6102.55015,0.70191
6100.62141,0.70126
6098.69266,0.70202
6096.76392,0.70358
6094.83517,0.70429
6092.90643,0.70351
6090.97768,0.70245
6089.04893,0.70201
6087.12019,0.70198
6085.19144,0.70237
6083.26270,0.70280
6081.33395,0.70265
6079.40521,0.70221
6077.47646,0.70243
6075.54772,0.70328
6073.61897,0.70335
6071.69023,0.70274
6069.76148,0.70240
6067.83274,0.70209
6065.90399,0.70163
6063.97525,0.70062
6062.04650,0.69914
6060.11776,0.69846
6058.18901,0.69912
6056.26026,0.70042
6054.33152,0.70101
6052.40277,0.70077
6050.47403,0.70118
6048.54528,0.70206
6046.61654,0.70207
6044.68779,0.70090
6042.75905,0.69920
6040.83030,0.69828
6038.90156,0.69805
6036.97281,0.69677
6035.04407,0.69484
6033.11532,0.69451
6031.18658,0.69581
6029.25783,0.69666
6027.32909,0.69616
6025.40034,0.69523
6023.47159,0.69465
6021.54285,0.69432
6019.61410,0.69389
6017.68536,0.69310
6015.75661,0.69234
6013.82787,0.69170
6011.89912,0.69008
6009.97038,0.68863
6008.04163,0.68948
6006.11289,0.69078
6004.18414,0.69043
6002.25540,0.68927
6000.32665,0.68822
5998.39791,0.68721
5996.46916,0.68640
5994.54041,0.68612
5992.61167,0.68523
5990.68292,0.68343
5988.75418,0.68323
5986.82543,0.68465
5984.89669,0.68400
5982.96794,0.68118
5981.03920,0.67995
5979.11045,0.68102
5977.18171,0.68219
5975.25296,0.68224
5973.32422,0.68146
5971.39547,0.68063
5969.46673,0.67984
5967.53798,0.67872
5965.60924,0.67757
5963.68049,0.67661
5961.75174,0.67593
5959.82300,0.67588
5957.89425,0.67611
5955.96551,0.67610
5954.03676,0.67574
5952.10802,0.67497
5950.17927,0.67434
5948.25053,0.67478
5946.32178,0.67610
5944.39304,0.67711
5942.46429,0.67717
5940.53555,0.67671
5938.60680,0.67585
5936.67806,0.67511
5934.74931,0.67582
5932.82057,0.67697
5930.89182,0.67656
5928.96307,0.67549
5927.03433,0.67472
5925.10558,0.67394
5923.17684,0.67388
5921.24809,0.67516
5919.31935,0.67665
5917.39060,0.67600
5915.46186,0.67326
5913.53311,0.67164
5911.60437,0.67172
5909.67562,0.67080
5907.74688,0.66932
5905.81813,0.66998
5903.88939,0.67167
5901.96064,0.67188
5900.03189,0.67082
5898.10315,0.66984
5896.17440,0.66972
5894.24566,0.66931
5892.31691,0.66758
5890.38817,0.66586
5888.45942,0.66534
5886.53068,0.66593
5884.60193,0.66666
5882.67319,0.66676
5880.74444,0.66635
5878.81570,0.66568
5876.88695,0.66517
5874.95821,0.66501
5873.02946,0.66451
5871.10072,0.66311
5869.17197,0.66152
5867.24322,0.66152
5865.31448,0.66311
5863.38573,0.66362
5861.45699,0.66213
5859.52824,0.66026
5857.59950,0.65896
5855.67075,0.65898
5853.74201,0.66034
5851.81326,0.66139
5849.88452,0.66131
5847.95577,0.66058
5846.02703,0.65946
5844.09828,0.65861
5842.16954,0.65853
5840.24079,0.65807
5838.31205,0.65694
5836.38330,0.65647
5834.45455,0.65668
5832.52581,0.65602
5830.59706,0.65433
5828.66832,0.65320
5826.73957,0.65245
5824.81083,0.65129
5822.88208,0.65041
5820.95334,0.64957
5819.02459,0.64814
5817.09585,0.64667
5815.16710,0.64586
5813.23836,0.64595
5811.30961,0.64647
5809.38087,0.64686
5807.45212,0.64700
5805.52337,0.64657
5803.59463,0.64549
5801.66588,0.64473
5799.73714,0.64468
5797.80839,0.64490
5795.87965,0.64562
5793.95090,0.64670
5792.02216,0.64741
5790.09341,0.64813
5788.16467,0.64889
5786.23592,0.64871
5784.30718,0.64859
5782.37843,0.65016
5780.44969,0.65205
5778.52094,0.65265
5776.59220,0.65286
5774.66345,0.65393
5772.73470,0.65512
5770.80596,0.65546
5768.87721,0.65573
5766.94847,0.65655
5765.01972,0.65793
5763.09098,0.65976
5761.16223,0.66056
5759.23349,0.65917
5757.30474,0.65726
5755.37600,0.65748
5753.44725,0.65945
5751.51851,0.66082
5749.58976,0.66135
5747.66102,0.66152
5745.73227,0.66090
5743.80352,0.66031
5741.87478,0.66081
5739.94603,0.66183
5738.01729,0.66178
5736.08854,0.66081
5734.15980,0.66111
5732.23105,0.66222
5730.30231,0.66203
5728.37356,0.66123
5726.44482,0.66119
5724.51607,0.66172
5722.58733,0.66168
5720.65858,0.66079
5718.72984,0.66069
5716.80109,0.66211
5714.87235,0.66308
5712.94360,0.66282
5711.01485,0.66289
5709.08611,0.66377
5707.15736,0.66470
5705.22862,0.66502
5703.29987,0.66451
5701.37113,0.66351
5699.44238,0.66219
5697.51364,0.66129
5695.58489,0.66137
5693.65615,0.66148
5691.72740,0.66122
5689.79866,0.66101
5687.86991,0.66060
5685.94117,0.65986
5684.01242,0.65946
5682.08368,0.65989
5680.15493,0.66087
5678.22618,0.66162
5676.29744,0.66181
5674.36869,0.66202
5672.43995,0.66206
5670.51120,0.66133
5668.58246,0.66060
5666.65371,0.66055
5664.72497,0.66029
5662.79622,0.65886
5660.86748,0.65692
5658.93873,0.65642
5657.00999,0.65797
5655.08124,0.65997
5653.15250,0.66107
5651.22375,0.66172
5649.29500,0.66192
5647.36626,0.66081
5645.43751,0.65956
5643.50877,0.65991
5641.58002,0.66099
5639.65128,0.66154
5637.72253,0.66148
5635.79379,0.66102
5633.86504,0.66075
5631.93630,0.66083
5630.00755,0.66141
5628.07881,0.66309
5626.15006,0.66476
5624.22132,0.66465
5622.29257,0.66331
5620.36383,0.66246
5618.43508,0.66288
5616.50633,0.66408
5614.57759,0.66454
5612.64884,0.66353
5610.72010,0.66259
5608.79135,0.66274
5606.86261,0.66322
5604.93386,0.66360
5603.00512,0.66398
5601.07637,0.66434
5599.14763,0.66444
5597.21888,0.66389
5595.29014,0.66327
5593.36139,0.66329
5591.43265,0.66346
5589.50390,0.66358
5587.57516,0.66392
5585.64641,0.66419
5583.71766,0.66433
5581.78892,0.66458
5579.86017,0.66470
5577.93143,0.66508
5576.00268,0.66608
5574.07394,0.66637
5572.14519,0.66517
5570.21645,0.66407
5568.28770,0.66455
5566.35896,0.66598
5564.43021,0.66681
5562.50147,0.66667
5560.57272,0.66662
5558.64398,0.66697
5556.71523,0.66688
5554.78648,0.66652
5552.85774,0.66673
5550.92899,0.66731
5549.00025,0.66809
5547.07150,0.66870
5545.14276,0.66869
5543.21401,0.66894
5541.28527,0.66971
5539.35652,0.66996
5537.42778,0.66959
5535.49903,0.66916
5533.57029,0.66919
5531.64154,0.66946
5529.71280,0.66875
5527.78405,0.66716
5525.85531,0.66648
5523.92656,0.66765
5521.99781,0.66937
5520.06907,0.66961
5518.14032,0.66852
5516.21158,0.66807
5514.28283,0.66912
5512.35409,0.67037
5510.42534,0.67040
5508.49660,0.66991
5506.56785,0.67032
5504.63911,0.67113
5502.71036,0.67158
5500.78162,0.67207
5498.85287,0.67227
5496.92413,0.67151
5494.99538,0.67042
5493.06664,0.67007
5491.13789,0.67066
5489.20914,0.67150
5487.28040,0.67199
5485.35165,0.67198
5483.42291,0.67151
5481.49416,0.67099
5479.56542,0.67098
5477.63667,0.67149
5475.70793,0.67222
5473.77918,0.67295
5471.85044,0.67328
5469.92169,0.67290
5467.99295,0.67238
5466.06420,0.67241
5464.13546,0.67281
5462.20671,0.67314
5460.27796,0.67338
5458.34922,0.67379
5456.42047,0.67435
5454.49173,0.67452
5452.56298,0.67458
5450.63424,0.67555
5448.70549,0.67701
5446.77675,0.67784
5444.84800,0.67786
5442.91926,0.67730
5440.99051,0.67662
5439.06177,0.67636
5437.13302,0.67691
5435.20428,0.67810
5433.27553,0.67893
5431.34679,0.67952
5429.41804,0.68077
5427.48929,0.68177
5425.56055,0.68149
5423.63180,0.68108
5421.70306,0.68183
5419.77431,0.68291
5417.84557,0.68333
5415.91682,0.68369
5413.98808,0.68415
5412.05933,0.68401
5410.13059,0.68346
5408.20184,0.68361
5406.27310,0.68476
5404.34435,0.68597
5402.41561,0.68644
5400.48686,0.68656
5398.55811,0.68694
5396.62937,0.68698
5394.70062,0.68618
5392.77188,0.68581
5390.84313,0.68651
5388.91439,0.68688
5386.98564,0.68632
5385.05690,0.68558
5383.12815,0.68493
5381.19941,0.68441
5379.27066,0.68428
5377.34192,0.68501
5375.41317,0.68626
5373.48443,0.68633
5371.55568,0.68494
5369.62694,0.68410
5367.69819,0.68460
5365.76944,0.68526
5363.84070,0.68553
5361.91195,0.68564
5359.98321,0.68543
5358.05446,0.68512
5356.12572,0.68546
5354.19697,0.68612
5352.26823,0.68566
5350.33948,0.68432
5348.41074,0.68356
5346.48199,0.68329
5344.55325,0.68290
5342.62450,0.68249
5340.69576,0.68210
5338.76701,0.68166
5336.83827,0.68114
5334.90952,0.68085
5332.98077,0.68088
5331.05203,0.68063
5329.12328,0.67975
5327.19454,0.67836
5325.26579,0.67693
5323.33705,0.67607
5321.40830,0.67549
5319.47956,0.67407
5317.55081,0.67168
5315.62207,0.66956
5313.69332,0.66824
5311.76458,0.66693
5309.83583,0.66493
5307.90709,0.66257
5305.97834,0.66046
5304.04959,0.65847
5302.12085,0.65654
5300.19210,0.65484
5298.26336,0.65297
5296.33461,0.65072
5294.40587,0.64832
5292.47712,0.64561
5290.54838,0.64226
5288.61963,0.63891
5286.69089,0.63675
5284.76214,0.63519
5282.83340,0.63256
5280.90465,0.62888
5278.97591,0.62523
5277.04716,0.62188
5275.11842,0.61838
5273.18967,0.61464
5271.26092,0.61111
5269.33218,0.60773
5267.40343,0.60397
5265.47469,0.59997
5263.54594,0.59625
5261.61720,0.59327
5259.68845,0.59098
5257.75971,0.58854
5255.83096,0.58557
5253.90222,0.58242
5251.97347,0.57913
5250.04473,0.57592
5248.11598,0.57283
5246.18724,0.56971
5244.25849,0.56719
5242.32975,0.56527
5240.40100,0.56319
5238.47225,0.56120
5236.54351,0.55972
5234.61476,0.55815
5232.68602,0.55642
5230.75727,0.55497
5228.82853,0.55343
5226.89978,0.55160
5224.97104,0.54973
5223.04229,0.54793
5221.11355,0.54647
5219.18480,0.54511
5217.25606,0.54359
5215.32731,0.54246
5213.39857,0.54223
5211.46982,0.54252
5209.54107,0.54261
5207.61233,0.54227
5205.68358,0.54178
5203.75484,0.54183
5201.82609,0.54224
5199.89735,0.54180
5197.96860,0.54077
5196.03986,0.54050
5194.11111,0.54102
5192.18237,0.54140
5190.25362,0.54142
5188.32488,0.54147
5186.39613,0.54177
5184.46739,0.54244
5182.53864,0.54348
5180.60990,0.54441
5178.68115,0.54511
5176.75240,0.54597
5174.82366,0.54689
5172.89491,0.54732
5170.96617,0.54770
5169.03742,0.54882
5167.10868,0.55016
5165.17993,0.55079
5163.25119,0.55078
5161.32244,0.55084
5159.39370,0.55129
5157.46495,0.55209
5155.53621,0.55335
5153.60746,0.55481
5151.67872,0.55596
5149.74997,0.55694
5147.82123,0.55804
5145.89248,0.55919
5143.96373,0.56054
5142.03499,0.56233
5140.10624,0.56417
5138.17750,0.56546
5136.24875,0.56615
5134.32001,0.56675
5132.39126,0.56745
5130.46252,0.56822
5128.53377,0.56928
5126.60503,0.57027
5124.67628,0.57071
5122.74754,0.57118
5120.81879,0.57238
5118.89005,0.57387
5116.96130,0.57475
5115.03255,0.57523
5113.10381,0.57633
5111.17506,0.57806
5109.24632,0.57967
5107.31757,0.58071
5105.38883,0.58105
5103.46008,0.58115
5101.53134,0.58176
5099.60259,0.58270
5097.67385,0.58361
5095.74510,0.58452
5093.81636,0.58555
5091.88761,0.58657
5089.95887,0.58715
5088.03012,0.58759
5086.10138,0.58809
5084.17263,0.58832
5082.24388,0.58886
5080.31514,0.59033
5078.38639,0.59196
5076.45765,0.59324
5074.52890,0.59461
5072.60016,0.59586
5070.67141,0.59627
5068.74267,0.59615
5066.81392,0.59682
5064.88518,0.59842
5062.95643,0.59939
5061.02769,0.59925
5059.09894,0.59902
5057.17020,0.59957
5055.24145,0.60093
5053.31270,0.60228
5051.38396,0.60301
5049.45521,0.60337
5047.52647,0.60361
5045.59772,0.60370
5043.66898,0.60399
5041.74023,0.60504
5039.81149,0.60647
5037.88274,0.60730
5035.95400,0.60754
5034.02525,0.60794
5032.09651,0.60862
5030.16776,0.60913
5028.23902,0.60925
5026.31027,0.60927
5024.38153,0.60969
5022.45278,0.61055
5020.52403,0.61125
5018.59529,0.61125
5016.66654,0.61085
5014.73780,0.61051
5012.80905,0.61041
5010.88031,0.61079
5008.95156,0.61159
5007.02282,0.61215
5005.09407,0.61206
5003.16533,0.61155
5001.23658,0.61109
4999.30784,0.61100
4997.37909,0.61096
4995.45035,0.61061
4993.52160,0.61030
4991.59286,0.61025
4989.66411,0.60995
4987.73536,0.60928
4985.80662,0.60885
4983.87787,0.60879
4981.94913,0.60850
4980.02038,0.60794
4978.09164,0.60738
4976.16289,0.60649
4974.23415,0.60521
4972.30540,0.60424
4970.37666,0.60362
4968.44791,0.60272
4966.51917,0.60137
4964.59042,0.59986
4962.66168,0.59864
4960.73293,0.59779
4958.80418,0.59679
4956.87544,0.59543
4954.94669,0.59402
4953.01795,0.59254
4951.08920,0.59101
4949.16046,0.58977
4947.23171,0.58860
4945.30297,0.58694
4943.37422,0.58479
4941.44548,0.58255
4939.51673,0.58049
4937.58799,0.57882
4935.65924,0.57740
4933.73050,0.57576
4931.80175,0.57395
4929.87301,0.57203
4927.94426,0.56980
4926.01551,0.56776
4924.08677,0.56638
4922.15802,0.56510
4920.22928,0.56350
4918.30053,0.56185
4916.37179,0.56014
4914.44304,0.55824
4912.51430,0.55632
4910.58555,0.55423
4908.65681,0.55180
4906.72806,0.54941
4904.79932,0.54732
4902.87057,0.54572
4900.94183,0.54471
4899.01308,0.54334
4897.08434,0.54099
4895.15559,0.53866
4893.22684,0.53699
4891.29810,0.53574
4889.36935,0.53471
4887.44061,0.53314
4885.51186,0.53043
4883.58312,0.52724
4881.65437,0.52500
4879.72563,0.52429
4877.79688,0.52392
4875.86814,0.52245
4873.93939,0.52020
4872.01065,0.51831
4870.08190,0.51683
4868.15316,0.51529
4866.22441,0.51354
4864.29566,0.51189
4862.36692,0.51078
4860.43817,0.50969
4858.50943,0.50820
4856.58068,0.50709
4854.65194,0.50653
4852.72319,0.50553
4850.79445,0.50381
4848.86570,0.50187
4846.93696,0.49986
4845.00821,0.49800
4843.07947,0.49672
4841.15072,0.49587
4839.22198,0.49496
4837.29323,0.49389
4835.36449,0.49297
4833.43574,0.49210
4831.50699,0.49119
4829.57825,0.49050
4827.64950,0.48965
4825.72076,0.48807
4823.79201,0.48629
4821.86327,0.48516
4819.93452,0.48440
4818.00578,0.48341
4816.07703,0.48256
4814.14829,0.48221
4812.21954,0.48165
4810.29080,0.48061
4808.36205,0.47968
4806.43331,0.47897
4804.50456,0.47823
4802.57582,0.47762
4800.64707,0.47751
4798.71832,0.47783
4796.78958,0.47783
4794.86083,0.47717
4792.93209,0.47642
4791.00334,0.47573
4789.07460,0.47482
4787.14585,0.47412
4785.21711,0.47406
4783.28836,0.47396
4781.35962,0.47344
4779.43087,0.47296
4777.50213,0.47247
4775.57338,0.47192
4773.64464,0.47161
4771.71589,0.47142
4769.78714,0.47120
4767.85840,0.47107
4765.92965,0.47121
4764.00091,0.47139
4762.07216,0.47097
4760.14342,0.47026
4758.21467,0.47000
4756.28593,0.46998
4754.35718,0.47014
4752.42844,0.47065
4750.49969,0.47055
4748.57095,0.46955
4746.64220,0.46908
4744.71346,0.46966
4742.78471,0.47048
4740.85597,0.47088
4738.92722,0.47100
4736.99847,0.47133
4735.06973,0.47174
4733.14098,0.47203
4731.21224,0.47248
4729.28349,0.47290
4727.35475,0.47286
4725.42600,0.47255
4723.49726,0.47252
4721.56851,0.47285
4719.63977,0.47320
4717.71102,0.47354
4715.78228,0.47396
4713.85353,0.47459
4711.92479,0.47501
4709.99604,0.47469
4708.06729,0.47429
4706.13855,0.47457
4704.20980,0.47532
4702.28106,0.47608
4700.35231,0.47664
4698.42357,0.47688
4696.49482,0.47702
4694.56608,0.47734
4692.63733,0.47759
4690.70859,0.47765
4688.77984,0.47772
4686.85110,0.47827
4684.92235,0.47935
4682.99361,0.48016
4681.06486,0.48040
4679.13612,0.48077
4677.20737,0.48159
4675.27862,0.48261
4673.34988,0.48363
4671.42113,0.48448
4669.49239,0.48524
4667.56364,0.48623
4665.63490,0.48710
4663.70615,0.48765
4661.77741,0.48824
4659.84866,0.48897
4657.91992,0.48987
4655.99117,0.49111
4654.06243,0.49247
4652.13368,0.49364
4650.20494,0.49451
4648.27619,0.49514
4646.34745,0.49596
4644.41870,0.49730
4642.48995,0.49852
4640.56121,0.49903
4638.63246,0.49926
4636.70372,0.49982
4634.77497,0.50072
4632.84623,0.50172
4630.91748,0.50270
4628.98874,0.50340
4627.05999,0.50377
4625.13125,0.50428
4623.20250,0.50507
4621.27376,0.50576
4619.34501,0.50645
4617.41627,0.50744
4615.48752,0.50844
4613.55877,0.50924
4611.63003,0.51025
4609.70128,0.51152
4607.77254,0.51239
4605.84379,0.51280
4603.91505,0.51332
4601.98630,0.51402
4600.05756,0.51456
4598.12881,0.51505
4596.20007,0.51590
4594.27132,0.51702
4592.34258,0.51786
4590.41383,0.51819
4588.48509,0.51831
4586.55634,0.51873
4584.62760,0.51935
4582.69885,0.51963
4580.77010,0.51997
4578.84136,0.52094
4576.91261,0.52201
4574.98387,0.52287
4573.05512,0.52359
4571.12638,0.52364
4569.19763,0.52321
4567.26889,0.52331
4565.34014,0.52414
4563.41140,0.52521
4561.48265,0.52598
4559.55391,0.52597
4557.62516,0.52574
4555.69642,0.52636
4553.76767,0.52751
4551.83893,0.52804
4549.91018,0.52783
4547.98143,0.52769
4546.05269,0.52789
4544.12394,0.52828
4542.19520,0.52875
4540.26645,0.52900
4538.33771,0.52903
4536.40896,0.52926
4534.48022,0.53007
4532.55147,0.53114
4530.62273,0.53161
4528.69398,0.53131
4526.76524,0.53102
4524.83649,0.53104
4522.90775,0.53081
4520.97900,0.53033
4519.05025,0.53010
4517.12151,0.53001
4515.19276,0.52976
4513.26402,0.52939
4511.33527,0.52918
4509.40653,0.52933
4507.47778,0.52937
4505.54904,0.52880
4503.62029,0.52777
4501.69155,0.52667
4499.76280,0.52550
4497.83406,0.52432
4495.90531,0.52322
4493.97657,0.52197
4492.04782,0.52056
4490.11908,0.51909
4488.19033,0.51732
4486.26158,0.51524
4484.33284,0.51319
4482.40409,0.51132
4480.47535,0.50927
4478.54660,0.50678
4476.61786,0.50406
4474.68911,0.50141
4472.76037,0.49888
4470.83162,0.49623
4468.90288,0.49345
4466.97413,0.49077
4465.04539,0.48793
4463.11664,0.48470
4461.18790,0.48147
4459.25915,0.47836
4457.33041,0.47489
4455.40166,0.47106
4453.47291,0.46751
4451.54417,0.46466
4449.61542,0.46211
4447.68668,0.45943
4445.75793,0.45680
4443.82919,0.45444
4441.90044,0.45225
4439.97170,0.44996
4438.04295,0.44730
4436.11421,0.44445
4434.18546,0.44191
4432.25672,0.43991
4430.32797,0.43820
4428.39923,0.43624
4426.47048,0.43408
4424.54173,0.43231
4422.61299,0.43088
4420.68424,0.42934
4418.75550,0.42766
4416.82675,0.42605
4414.89801,0.42477
4412.96926,0.42375
4411.04052,0.42282
4409.11177,0.42194
4407.18303,0.42117
4405.25428,0.42062
4403.32554,0.42022
4401.39679,0.41964
4399.46805,0.41917
4397.53930,0.41922
4395.61056,0.41946
4393.68181,0.41968
4391.75306,0.42011
4389.82432,0.42047
4387.89557,0.42060
4385.96683,0.42094
4384.03808,0.42167
4382.10934,0.42248
4380.18059,0.42317
4378.25185,0.42385
4376.32310,0.42472
4374.39436,0.42569
4372.46561,0.42648
4370.53687,0.42708
4368.60812,0.42764
4366.67938,0.42815
4364.75063,0.42843
4362.82189,0.42832
4360.89314,0.42788
4358.96439,0.42736
4357.03565,0.42694
4355.10690,0.42650
4353.17816,0.42597
4351.24941,0.42536
4349.32067,0.42469
4347.39192,0.42400
4345.46318,0.42330
4343.53443,0.42278
4341.60569,0.42253
4339.67694,0.42228
4337.74820,0.42169
4335.81945,0.42065
4333.89071,0.41954
4331.96196,0.41888
4330.03321,0.41877
4328.10447,0.41895
4326.17572,0.41905
4324.24698,0.41875
4322.31823,0.41820
4320.38949,0.41764
4318.46074,0.41699
4316.53200,0.41637
4314.60325,0.41604
4312.67451,0.41560
4310.74576,0.41466
4308.81702,0.41384
4306.88827,0.41332
4304.95953,0.41269
4303.03078,0.41204
4301.10204,0.41155
4299.17329,0.41111
4297.24454,0.41051
4295.31580,0.40964
4293.38705,0.40859
4291.45831,0.40774
4289.52956,0.40734
4287.60082,0.40710
4285.67207,0.40675
4283.74333,0.40636
4281.81458,0.40599
4279.88584,0.40574
4277.95709,0.40561
4276.02835,0.40542
4274.09960,0.40524
4272.17086,0.40531
4270.24211,0.40552
4268.31336,0.40582
4266.38462,0.40638
4264.45587,0.40696
4262.52713,0.40730
4260.59838,0.40750
4258.66964,0.40765
4256.74089,0.40775
4254.81215,0.40796
4252.88340,0.40850
4250.95466,0.40921
4249.02591,0.40990
4247.09717,0.41064
4245.16842,0.41142
4243.23968,0.41199
4241.31093,0.41228
4239.38219,0.41262
4237.45344,0.41323
4235.52469,0.41369
4233.59595,0.41372
4231.66720,0.41364
4229.73846,0.41379
4227.80971,0.41422
4225.88097,0.41462
4223.95222,0.41475
4222.02348,0.41499
4220.09473,0.41553
4218.16599,0.41580
4216.23724,0.41561
4214.30850,0.41552
4212.37975,0.41588
4210.45101,0.41642
4208.52226,0.41674
4206.59352,0.41683
4204.66477,0.41700
4202.73602,0.41740
4200.80728,0.41787
4198.87853,0.41823
4196.94979,0.41841
4195.02104,0.41853
4193.09230,0.41869
4191.16355,0.41887
4189.23481,0.41897
4187.30606,0.41908
4185.37732,0.41946
4183.44857,0.42009
4181.51983,0.42069
4179.59108,0.42109
4177.66234,0.42112
4175.73359,0.42099
4173.80484,0.42143
4171.87610,0.42263
4169.94735,0.42380
4168.01861,0.42437
4166.08986,0.42465
4164.16112,0.42509
4162.23237,0.42558
4160.30363,0.42571
4158.37488,0.42543
4156.44614,0.42515
4154.51739,0.42517
4152.58865,0.42516
4150.65990,0.42477
4148.73116,0.42409
4146.80241,0.42324
4144.87367,0.42232
4142.94492,0.42156
4141.01617,0.42103
4139.08743,0.42053
4137.15868,0.41978
4135.22994,0.41886
4133.30119,0.41804
4131.37245,0.41723
4129.44370,0.41609
4127.51496,0.41463
4125.58621,0.41328
4123.65747,0.41225
4121.72872,0.41127
4119.79998,0.40995
4117.87123,0.40836
4115.94249,0.40708
4114.01374,0.40618
4112.08500,0.40487
4110.15625,0.40298
4108.22750,0.40121
4106.29876,0.39988
4104.37001,0.39856
4102.44127,0.39694
4100.51252,0.39535
4098.58378,0.39388
4096.65503,0.39236
4094.72629,0.39069
4092.79754,0.38878
4090.86880,0.38649
4088.94005,0.38396
4087.01131,0.38187
4085.08256,0.38039
4083.15382,0.37886
4081.22507,0.37714
4079.29632,0.37545
4077.36758,0.37356
4075.43883,0.37151
4073.51009,0.36979
4071.58134,0.36836
4069.65260,0.36685
4067.72385,0.36509
4065.79511,0.36313
4063.86636,0.36120
4061.93762,0.35923
4060.00887,0.35699
4058.08013,0.35491
4056.15138,0.35331
4054.22264,0.35180
4052.29389,0.35027
4050.36515,0.34880
4048.43640,0.34731
4046.50765,0.34588
4044.57891,0.34448
4042.65016,0.34300
4040.72142,0.34160
4038.79267,0.34054
4036.86393,0.33958
4034.93518,0.33830
4033.00644,0.33687
4031.07769,0.33579
4029.14895,0.33504
4027.22020,0.33435
4025.29146,0.33375
4023.36271,0.33333
4021.43397,0.33299
4019.50522,0.33272
4017.57648,0.33264
4015.64773,0.33262
4013.71898,0.33252
4011.79024,0.33243
4009.86149,0.33249
4007.93275,0.33279
4006.00400,0.33327
4004.07526,0.33388
4002.14651,0.33456
4000.21777,0.33526
3998.28902,0.33600
3996.36028,0.33663
3994.43153,0.33716
3992.50279,0.33790
3990.57404,0.33872
3988.64530,0.33927
3986.71655,0.33962
3984.78780,0.34010
3982.85906,0.34065
3980.93031,0.34091
3979.00157,0.34096
3977.07282,0.34129
3975.14408,0.34196
3973.21533,0.34257
3971.28659,0.34317
3969.35784,0.34416
3967.42910,0.34540
3965.50035,0.34660
3963.57161,0.34786
3961.64286,0.34903
3959.71412,0.34976
3957.78537,0.35036
3955.85663,0.35132
3953.92788,0.35260
3951.99913,0.35394
3950.07039,0.35517
3948.14164,0.35616
3946.21290,0.35707
3944.28415,0.35814
3942.35541,0.35938
3940.42666,0.36049
3938.49792,0.36132
3936.56917,0.36214
3934.64043,0.36328
3932.71168,0.36468
3930.78294,0.36586
3928.85419,0.36664
3926.92545,0.36732
3924.99670,0.36820
3923.06795,0.36921
3921.13921,0.37003
3919.21046,0.37064
3917.28172,0.37144
3915.35297,0.37257
3913.42423,0.37361
3911.49548,0.37447
3909.56674,0.37555
3907.63799,0.37667
3905.70925,0.37745
3903.78050,0.37815
3901.85176,0.37925
3899.92301,0.38051
3897.99427,0.38133
3896.06552,0.38180
3894.13678,0.38246
3892.20803,0.38345
3890.27928,0.38438
3888.35054,0.38517
3886.42179,0.38592
3884.49305,0.38660
3882.56430,0.38733
3880.63556,0.38822
3878.70681,0.38908
3876.77807,0.38978
3874.84932,0.39059
3872.92058,0.39157
3870.99183,0.39251
3869.06309,0.39353
3867.13434,0.39468
3865.20560,0.39570
3863.27685,0.39655
3861.34811,0.39743
3859.41936,0.39836
3857.49061,0.39938
3855.56187,0.40069
3853.63312,0.40224
3851.70438,0.40368
3849.77563,0.40489
3847.84689,0.40578
3845.91814,0.40630
3843.98940,0.40689
3842.06065,0.40787
3840.13191,0.40902
3838.20316,0.40987
3836.27442,0.41014
3834.34567,0.41024
3832.41693,0.41058
3830.48818,0.41120
3828.55943,0.41186
3826.63069,0.41229
3824.70194,0.41244
3822.77320,0.41248
3820.84445,0.41259
3818.91571,0.41271
3816.98696,0.41297
3815.05822,0.41346
3813.12947,0.41364
3811.20073,0.41342
3809.27198,0.41328
3807.34324,0.41340
3805.41449,0.41356
3803.48575,0.41354
3801.55700,0.41337
3799.62826,0.41316
3797.69951,0.41316
3795.77076,0.41340
3793.84202,0.41360
3791.91327,0.41353
3789.98453,0.41324
3788.05578,0.41301
3786.12704,0.41279
3784.19829,0.41244
3782.26955,0.41219
3780.34080,0.41215
3778.41206,0.41205
3776.48331,0.41170
3774.55457,0.41115
3772.62582,0.41068
3770.69708,0.41052
3768.76833,0.41045
3766.83959,0.41017
3764.91084,0.40963
3762.98209,0.40899
3761.05335,0.40844
3759.12460,0.40792
3757.19586,0.40736
3755.26711,0.40676
3753.33837,0.40606
3751.40962,0.40515
3749.48088,0.40409
3747.55213,0.40319
3745.62339,0.40240
3743.69464,0.40132
3741.76590,0.40010
3739.83715,0.39919
3737.90841,0.39857
3735.97966,0.39793
3734.05091,0.39684
3732.12217,0.39515
3730.19342,0.39333
3728.26468,0.39175
3726.33593,0.39034
3724.40719,0.38881
3722.47844,0.38696
3720.54970,0.38501
3718.62095,0.38313
3716.69221,0.38130
3714.76346,0.37950
3712.83472,0.37729
3710.90597,0.37436
3708.97723,0.37126
3707.04848,0.36838
3705.11974,0.36548
3703.19099,0.36229
3701.26224,0.35859
3699.33350,0.35455
3697.40475,0.35072
3695.47601,0.34712
3693.54726,0.34332
3691.61852,0.33895
3689.68977,0.33368
3687.76103,0.32764
3685.83228,0.32177
3683.90354,0.31618
3681.97479,0.31041
3680.04605,0.30458
3678.11730,0.29877
3676.18856,0.29217
3674.25981,0.28505
3672.33107,0.27853
3670.40232,0.27162
3668.47357,0.26433
3666.54483,0.25800
3664.61608,0.25199
3662.68734,0.24573
3660.75859,0.23966
3658.82985,0.23375
3656.90110,0.22737
3654.97236,0.22086
3653.04361,0.21527
3651.11487,0.21012
3649.18612,0.20463
3647.25738,0.19927
3645.32863,0.19415
3643.39989,0.18907
3641.47114,0.18435
3639.54239,0.17983
3637.61365,0.17508
3635.68490,0.17064
3633.75616,0.16701
3631.82741,0.16376
3629.89867,0.16008
3627.96992,0.15587
3626.04118,0.15206
3624.11243,0.14858
3622.18369,0.14486
3620.25494,0.14076
3618.32620,0.13663
3616.39745,0.13311
3614.46871,0.13005
3612.53996,0.12679
3610.61122,0.12323
3608.68247,0.11983
3606.75372,0.11711
3604.82498,0.11469
3602.89623,0.11190
3600.96749,0.10898
3599.03874,0.10628
3597.11000,0.10373
3595.18125,0.10135
3593.25251,0.09903
3591.32376,0.09670
3589.39502,0.09439
3587.46627,0.09196
3585.53753,0.08958
3583.60878,0.08745
3581.68004,0.08547
3579.75129,0.08358
3577.82254,0.08169
3575.89380,0.07972
3573.96505,0.07791
3572.03631,0.07635
3570.10756,0.07492
3568.17882,0.07359
3566.25007,0.07227
3564.32133,0.07084
3562.39258,0.06930
3560.46384,0.06788
3558.53509,0.06680
3556.60635,0.06578
3554.67760,0.06456
3552.74886,0.06319
3550.82011,0.06178
3548.89137,0.06062
3546.96262,0.05997
3545.03387,0.05947
3543.10513,0.05864
3541.17638,0.05758
3539.24764,0.05679
3537.31889,0.05638
3535.39015,0.05572
3533.46140,0.05464
3531.53266,0.05369
3529.60391,0.05315
3527.67517,0.05258
3525.74642,0.05155
3523.81768,0.05048
3521.88893,0.04985
3519.96019,0.04959
3518.03144,0.04938
3516.10270,0.04900
3514.17395,0.04843
3512.24520,0.04777
3510.31646,0.04707
3508.38771,0.04647
3506.45897,0.04618
3504.53022,0.04596
3502.60148,0.04545
3500.67273,0.04485
3498.74399,0.04436
3496.81524,0.04384
3494.88650,0.04330
3492.95775,0.04284
3491.02901,0.04265
3489.10026,0.04272
3487.17152,0.04279
3485.24277,0.04265
3483.31402,0.04230
3481.38528,0.04190
3479.45653,0.04170
3477.52779,0.04154
3475.59904,0.04118
3473.67030,0.04078
3471.74155,0.04046
3469.81281,0.04017
3467.88406,0.03971
3465.95532,0.03906
3464.02657,0.03864
3462.09783,0.03862
3460.16908,0.03870
3458.24034,0.03876
3456.31159,0.03880
3454.38285,0.03860
3452.45410,0.03804
3450.52535,0.03739
3448.59661,0.03704
3446.66786,0.03716
3444.73912,0.03740
3442.81037,0.03740
3440.88163,0.03737
3438.95288,0.03741
3437.02414,0.03718
3435.09539,0.03699
3433.16665,0.03735
3431.23790,0.03777
3429.30916,0.03768
3427.38041,0.03736
3425.45167,0.03723
3423.52292,0.03728
3421.59418,0.03726
3419.66543,0.03721
3417.73668,0.03724
3415.80794,0.03727
3413.87919,0.03733
3411.95045,0.03760
3410.02170,0.03799
3408.09296,0.03819
3406.16421,0.03821
3404.23547,0.03815
3402.30672,0.03803
3400.37798,0.03797
3398.44923,0.03805
3396.52049,0.03809
3394.59174,0.03797
3392.66300,0.03769
3390.73425,0.03735
3388.80550,0.03712
3386.87676,0.03709
3384.94801,0.03731
3383.01927,0.03772
3381.09052,0.03819
3379.16178,0.03846
3377.23303,0.03828
3375.30429,0.03808
3373.37554,0.03834
3371.44680,0.03860
3369.51805,0.03846
3367.58931,0.03822
3365.66056,0.03812
3363.73182,0.03810
3361.80307,0.03806
3359.87433,0.03791
3357.94558,0.03780
3356.01683,0.03795
3354.08809,0.03816
3352.15934,0.03828
3350.23060,0.03849
3348.30185,0.03881
3346.37311,0.03901
3344.44436,0.03880
3342.51562,0.03855
3340.58687,0.03886
3338.65813,0.03946
3336.72938,0.03994
3334.80064,0.04035
3332.87189,0.04052
3330.94315,0.04035
3329.01440,0.04034
3327.08566,0.04053
3325.15691,0.04066
3323.22816,0.04090
3321.29942,0.04122
3319.37067,0.04151
3317.44193,0.04186
3315.51318,0.04215
3313.58444,0.04239
3311.65569,0.04285
3309.72695,0.04330
3307.79820,0.04344
3305.86946,0.04360
3303.94071,0.04375
3302.01197,0.04364
3300.08322,0.04364
3298.15448,0.04380
3296.22573,0.04393
3294.29698,0.04407
3292.36824,0.04420
3290.43949,0.04443
3288.51075,0.04484
3286.58200,0.04533
3284.65326,0.04582
3282.72451,0.04634
3280.79577,0.04669
3278.86702,0.04673
3276.93828,0.04684
3275.00953,0.04724
3273.08079,0.04777
3271.15204,0.04846
3269.22330,0.04937
3267.29455,0.05005
3265.36581,0.05017
3263.43706,0.05026
3261.50831,0.05096
3259.57957,0.05213
3257.65082,0.05299
3255.72208,0.05325
3253.79333,0.05350
3251.86459,0.05410
3249.93584,0.05485
3248.00710,0.05561
3246.07835,0.05620
3244.14961,0.05656
3242.22086,0.05703
3240.29212,0.05781
3238.36337,0.05870
3236.43463,0.05945
3234.50588,0.05988
3232.57713,0.06013
3230.64839,0.06060
3228.71964,0.06154
3226.79090,0.06246
3224.86215,0.06271
3222.93341,0.06279
3221.00466,0.06381
3219.07592,0.06545
3217.14717,0.06643
3215.21843,0.06674
3213.28968,0.06701
3211.36094,0.06734
3209.43219,0.06793
3207.50345,0.06897
3205.57470,0.07019
3203.64596,0.07122
3201.71721,0.07191
3199.78846,0.07252
3197.85972,0.07331
3195.93097,0.07396
3194.00223,0.07423
3192.07348,0.07446
3190.14474,0.07495
3188.21599,0.07576
3186.28725,0.07669
3184.35850,0.07766
3182.42976,0.07865
3180.50101,0.07950
3178.57227,0.08016
3176.64352,0.08094
3174.71478,0.08196
3172.78603,0.08290
3170.85729,0.08373
3168.92854,0.08463
3166.99979,0.08532
3165.07105,0.08576
3163.14230,0.08650
3161.21356,0.08766
3159.28481,0.08881
3157.35607,0.08988
3155.42732,0.09112
3153.49858,0.09231
3151.56983,0.09305
3149.64109,0.09346
3147.71234,0.09400
3145.78360,0.09470
3143.85485,0.09549
3141.92611,0.09648
3139.99736,0.09751
3138.06861,0.09829
3136.13987,0.09872
3134.21112,0.09901
3132.28238,0.09966
3130.35363,0.10088
3128.42489,0.10212
3126.49614,0.10281
3124.56740,0.10343
3122.63865,0.10445
3120.70991,0.10539
3118.78116,0.10590
3116.85242,0.10637
3114.92367,0.10724
3112.99493,0.10835
3111.06618,0.10924
3109.13744,0.10991
3107.20869,0.11078
3105.27994,0.11193
3103.35120,0.11285
3101.42245,0.11328
3099.49371,0.11353
3097.56496,0.11404
3095.63622,0.11502
3093.70747,0.11612
3091.77873,0.11693
3089.84998,0.11745
3087.92124,0.11793
3085.99249,0.11854
3084.06375,0.11929
3082.13500,0.12010
3080.20626,0.12086
3078.27751,0.12128
3076.34877,0.12152
3074.42002,0.12207
3072.49127,0.12292
3070.56253,0.12376
3068.63378,0.12454
3066.70504,0.12526
3064.77629,0.12597
3062.84755,0.12653
3060.91880,0.12691
3058.99006,0.12745
3057.06131,0.12820
3055.13257,0.12883
3053.20382,0.12925
3051.27508,0.12970
3049.34633,0.13026
3047.41759,0.13070
3045.48884,0.13092
3043.56009,0.13117
3041.63135,0.13151
3039.70260,0.13182
3037.77386,0.13213
3035.84511,0.13227
3033.91637,0.13200
3031.98762,0.13148
3030.05888,0.13106
3028.13013,0.13069
3026.20139,0.12998
3024.27264,0.12897
3022.34390,0.12797
3020.41515,0.12707
3018.48641,0.12610
3016.55766,0.12490
3014.62892,0.12369
3012.70017,0.12260
3010.77142,0.12137
3008.84268,0.11988
3006.91393,0.11831
3004.98519,0.11688
3003.05644,0.11575
3001.12770,0.11496
2999.19895,0.11420
2997.27021,0.11315
2995.34146,0.11202
2993.41272,0.11106
2991.48397,0.10986
2989.55523,0.10808
2987.62648,0.10601
2985.69774,0.10387
2983.76899,0.10146
2981.84025,0.09879
2979.91150,0.09605
2977.98275,0.09341
2976.05401,0.09082
2974.12526,0.08814
2972.19652,0.08559
2970.26777,0.08342
2968.33903,0.08158
2966.41028,0.07985
2964.48154,0.07822
2962.55279,0.07678
2960.62405,0.07532
2958.69530,0.07382
2956.76656,0.07262
2954.83781,0.07163
2952.90907,0.07058
2950.98032,0.06949
2949.05157,0.06840
2947.12283,0.06739
2945.19408,0.06642
2943.26534,0.06529
2941.33659,0.06420
2939.40785,0.06343
2937.47910,0.06279
2935.55036,0.06226
2933.62161,0.06216
2931.69287,0.06238
2929.76412,0.06241
2927.83538,0.06219
2925.90663,0.06201
2923.97789,0.06198
2922.04914,0.06197
2920.12040,0.06194
2918.19165,0.06207
2916.26290,0.06242
2914.33416,0.06280
2912.40541,0.06316
2910.47667,0.06364
2908.54792,0.06414
2906.61918,0.06454
2904.69043,0.06476
2902.76169,0.06479
2900.83294,0.06493
2898.90420,0.06543
2896.97545,0.06613
2895.04671,0.06677
2893.11796,0.06746
2891.18922,0.06827
2889.26047,0.06909
2887.33172,0.06977
2885.40298,0.07022
2883.47423,0.07057
2881.54549,0.07105
2879.61674,0.07167
2877.68800,0.07226
2875.75925,0.07268
2873.83051,0.07288
2871.90176,0.07292
2869.97302,0.07321
2868.04427,0.07390
2866.11553,0.07457
2864.18678,0.07495
2862.25804,0.07527
2860.32929,0.07573
2858.40055,0.07635
2856.47180,0.07701
2854.54305,0.07772
2852.61431,0.07879
2850.68556,0.08025
2848.75682,0.08196
2846.82807,0.08401
2844.89933,0.08639
2842.97058,0.08881
2841.04184,0.09131
2839.11309,0.09401
2837.18435,0.09685
2835.25560,0.09989
2833.32686,0.10300
2831.39811,0.10593
2829.46937,0.10883
2827.54062,0.11181
2825.61188,0.11465
2823.68313,0.11723
2821.75438,0.11974
2819.82564,0.12227
2817.89689,0.12460
2815.96815,0.12660
2814.03940,0.12843
2812.11066,0.13026
2810.18191,0.13202
2808.25317,0.13378
2806.32442,0.13555
2804.39568,0.13704
2802.46693,0.13829
2800.53819,0.13956
2798.60944,0.14084
2796.68070,0.14213
2794.75195,0.14345
2792.82320,0.14450
2790.89446,0.14526
2788.96571,0.14600
2787.03697,0.14677
2785.10822,0.14744
2783.17948,0.14804
2781.25073,0.14861
2779.32199,0.14914
2777.39324,0.14968
2775.46450,0.15032
2773.53575,0.15099
2771.60701,0.15156
2769.67826,0.15201
2767.74952,0.15251
2765.82077,0.15312
2763.89203,0.15363
2761.96328,0.15400
2760.03453,0.15435
2758.10579,0.15468
2756.17704,0.15489
2754.24830,0.15499
2752.31955,0.15509
2750.39081,0.15531
2748.46206,0.15559
2746.53332,0.15568
2744.60457,0.15553
2742.67583,0.15547
2740.74708,0.15565
2738.81834,0.15593
2736.88959,0.15617
2734.96085,0.15642
2733.03210,0.15677
2731.10336,0.15709
2729.17461,0.15748
2727.24586,0.15808
2725.31712,0.15872
2723.38837,0.15929
2721.45963,0.15999
2719.53088,0.16068
2717.60214,0.16126
2715.67339,0.16190
2713.74465,0.16268
2711.81590,0.16348
2709.88716,0.16438
2707.95841,0.16539
2706.02967,0.16638
2704.10092,0.16741
2702.17218,0.16843
2700.24343,0.16932
2698.31468,0.17016
2696.38594,0.17097
2694.45719,0.17180
2692.52845,0.17271
2690.59970,0.17362
2688.67096,0.17447
2686.74221,0.17525
2684.81347,0.17595
2682.88472,0.17661
2680.95598,0.17727
2679.02723,0.17802
2677.09849,0.17879
2675.16974,0.17947
2673.24100,0.18007
2671.31225,0.18066
2669.38351,0.18122
2667.45476,0.18173
2665.52601,0.18226
2663.59727,0.18280
2661.66852,0.18319
2659.73978,0.18344
2657.81103,0.18382
2655.88229,0.18439
2653.95354,0.18494
2652.02480,0.18540
2650.09605,0.18599
2648.16731,0.18673
2646.23856,0.18742
2644.30982,0.18798
2642.38107,0.18856
2640.45233,0.18911
2638.52358,0.18962
2636.59484,0.19031
2634.66609,0.19119
2632.73734,0.19209
2630.80860,0.19301
2628.87985,0.19390
2626.95111,0.19458
2625.02236,0.19501
2623.09362,0.19545
2621.16487,0.19612
2619.23613,0.19703
2617.30738,0.19805
2615.37864,0.19887
2613.44989,0.19926
2611.52115,0.19958
2609.59240,0.20024
2607.66366,0.20107
2605.73491,0.20167
2603.80616,0.20200
2601.87742,0.20227
2599.94867,0.20273
2598.01993,0.20343
2596.09118,0.20417
2594.16244,0.20480
2592.23369,0.20530
2590.30495,0.20571
2588.37620,0.20610
2586.44746,0.20642
2584.51871,0.20679
2582.58997,0.20736
2580.66122,0.20795
2578.73248,0.20827
2576.80373,0.20836
2574.87499,0.20843
2572.94624,0.20867
2571.01749,0.20899
2569.08875,0.20914
2567.16000,0.20913
2565.23126,0.20925
2563.30251,0.20958
2561.37377,0.20985
2559.44502,0.20989
2557.51628,0.21003
2555.58753,0.21047
2553.65879,0.21086
2551.73004,0.21093
2549.80130,0.21095
2547.87255,0.21111
2545.94381,0.21137
2544.01506,0.21169
2542.08631,0.21201
2540.15757,0.21221
2538.22882,0.21225
2536.30008,0.21247
2534.37133,0.21314
2532.44259,0.21394
2530.51384,0.21447
2528.58510,0.21479
2526.65635,0.21514
2524.72761,0.21562
2522.79886,0.21611
2520.87012,0.21648
2518.94137,0.21680
2517.01263,0.21719
2515.08388,0.21762
2513.15514,0.21807
2511.22639,0.21875
2509.29764,0.21961
2507.36890,0.22041
2505.44015,0.22126
2503.51141,0.22232
2501.58266,0.22343
2499.65392,0.22430
2497.72517,0.22500
2495.79643,0.22584
2493.86768,0.22683
2491.93894,0.22770
2490.01019,0.22833
2488.08145,0.22884
2486.15270,0.22934
2484.22396,0.22998
2482.29521,0.23095
2480.36647,0.23200
2478.43772,0.23278
2476.50897,0.23352
2474.58023,0.23439
2472.65148,0.23513
2470.72274,0.23558
2468.79399,0.23603
2466.86525,0.23667
2464.93650,0.23733
2463.00776,0.23785
2461.07901,0.23837
2459.15027,0.23905
2457.22152,0.23982
2455.29278,0.24060
2453.36403,0.24143
2451.43529,0.24224
2449.50654,0.24300
2447.57779,0.24383
2445.64905,0.24474
2443.72030,0.24561
2441.79156,0.24646
2439.86281,0.24725
2437.93407,0.24799
2436.00532,0.24881
2434.07658,0.24965
2432.14783,0.25039
2430.21909,0.25121
2428.29034,0.25228
2426.36160,0.25339
2424.43285,0.25444
2422.50411,0.25553
2420.57536,0.25666
2418.64662,0.25777
2416.71787,0.25887
2414.78912,0.26004
2412.86038,0.26125
2410.93163,0.26235
2409.00289,0.26332
2407.07414,0.26432
2405.14540,0.26545
2403.21665,0.26658
2401.28791,0.26763
2399.35916,0.26869
2397.43042,0.26974
2395.50167,0.27065
2393.57293,0.27146
2391.64418,0.27221
2389.71544,0.27288
2387.78669,0.27357
2385.85795,0.27441
2383.92920,0.27524
2382.00045,0.27594
2380.07171,0.27673
2378.14296,0.27763
2376.21422,0.27848
2374.28547,0.27930
2372.35673,0.28013
2370.42798,0.28082
2368.49924,0.28135
2366.57049,0.28198
2364.64175,0.28275
2362.71300,0.28355
2360.78426,0.28448
2358.85551,0.28540
2356.92677,0.28607
2354.99802,0.28667
2353.06927,0.28734
2351.14053,0.28785
2349.21178,0.28827
2347.28304,0.28899
2345.35429,0.28991
2343.42555,0.29064
2341.49680,0.29114
2339.56806,0.29152
2337.63931,0.29194
2335.71057,0.29248
2333.78182,0.29307
2331.85308,0.29356
2329.92433,0.29393
2327.99559,0.29442
2326.06684,0.29503
2324.13810,0.29538
2322.20935,0.29543
2320.28060,0.29562
2318.35186,0.29599
2316.42311,0.29610
2314.49437,0.29596
2312.56562,0.29593
2310.63688,0.29603
2308.70813,0.29610
2306.77939,0.29599
2304.85064,0.29561
2302.92190,0.29521
2300.99315,0.29505
2299.06441,0.29504
2297.13566,0.29487
2295.20692,0.29457
2293.27817,0.29439
2291.34943,0.29439
2289.42068,0.29431
2287.49193,0.29412
2285.56319,0.29392
2283.63444,0.29373
2281.70570,0.29365
2279.77695,0.29373
2277.84821,0.29372
2275.91946,0.29346
2273.99072,0.29293
2272.06197,0.29214
2270.13323,0.29121
2268.20448,0.29040
2266.27574,0.28973
2264.34699,0.28905
2262.41825,0.28827
2260.48950,0.28748
2258.56075,0.28669
2256.63201,0.28585
2254.70326,0.28505
2252.77452,0.28432
2250.84577,0.28374
2248.91703,0.28333
2246.98828,0.28294
2245.05954,0.28258
2243.13079,0.28237
2241.20205,0.28234
2239.27330,0.28235
2237.34456,0.28225
2235.41581,0.28212
2233.48707,0.28217
2231.55832,0.28245
2229.62958,0.28277
2227.70083,0.28297
2225.77208,0.28310
2223.84334,0.28323
2221.91459,0.28340
2219.98585,0.28365
2218.05710,0.28395
2216.12836,0.28422
2214.19961,0.28438
2212.27087,0.28432
2210.34212,0.28407
2208.41338,0.28373
2206.48463,0.28331
2204.55589,0.28284
2202.62714,0.28240
2200.69840,0.28186
2198.76965,0.28106
2196.84090,0.28008
2194.91216,0.27907
2192.98341,0.27805
2191.05467,0.27696
2189.12592,0.27566
2187.19718,0.27418
2185.26843,0.27265
2183.33969,0.27114
2181.41094,0.26962
2179.48220,0.26808
2177.55345,0.26654
2175.62471,0.26501
2173.69596,0.26352
2171.76722,0.26203
2169.83847,0.26045
2167.90973,0.25884
2165.98098,0.25738
2164.05223,0.25611
2162.12349,0.25493
2160.19474,0.25376
2158.26600,0.25272
2156.33725,0.25198
2154.40851,0.25139
2152.47976,0.25068
2150.55102,0.24994
2148.62227,0.24931
2146.69353,0.24885
2144.76478,0.24838
2142.83604,0.24777
2140.90729,0.24718
2138.97855,0.24683
2137.04980,0.24672
2135.12106,0.24672
2133.19231,0.24683
2131.26356,0.24712
2129.33482,0.24746
2127.40607,0.24772
2125.47733,0.24791
2123.54858,0.24806
2121.61984,0.24831
2119.69109,0.24873
2117.76235,0.24919
2115.83360,0.24965
2113.90486,0.25025
2111.97611,0.25096
2110.04737,0.25161
2108.11862,0.25222
2106.18988,0.25281
2104.26113,0.25336
2102.33238,0.25390
2100.40364,0.25445
2098.47489,0.25504
2096.54615,0.25569
2094.61740,0.25632
2092.68866,0.25693
2090.75991,0.25750
2088.83117,0.25800
2086.90242,0.25850
2084.97368,0.25900
2083.04493,0.25931
2081.11619,0.25925
2079.18744,0.25896
2077.25870,0.25874
2075.32995,0.25869
2073.40121,0.25867
2071.47246,0.25846
2069.54371,0.25817
2067.61497,0.25802
2065.68622,0.25797
2063.75748,0.25793
2061.82873,0.25792
2059.89999,0.25796
2057.97124,0.25801
2056.04250,0.25820
2054.11375,0.25856
2052.18501,0.25887
2050.25626,0.25906
2048.32752,0.25930
2046.39877,0.25970
2044.47003,0.26016
2042.54128,0.26051
2040.61254,0.26084
2038.68379,0.26141
2036.75504,0.26225
2034.82630,0.26319
2032.89755,0.26400
2030.96881,0.26475
2029.04006,0.26567
2027.11132,0.26673
2025.18257,0.26787
2023.25383,0.26917
2021.32508,0.27052
2019.39634,0.27183
2017.46759,0.27314
2015.53885,0.27439
2013.61010,0.27563
2011.68136,0.27696
2009.75261,0.27818
2007.82386,0.27918
2005.89512,0.28010
2003.96637,0.28101
2002.03763,0.28184
2000.10888,0.28263
1998.18014,0.28339
1996.25139,0.28406
1994.32265,0.28465
1992.39390,0.28519
1990.46516,0.28580
1988.53641,0.28653
1986.60767,0.28717
1984.67892,0.28746
1982.75018,0.28733
1980.82143,0.28713
1978.89269,0.28713
1976.96394,0.28709
1975.03519,0.28691
1973.10645,0.28676
1971.17770,0.28656
1969.24896,0.28619
1967.32021,0.28586
1965.39147,0.28560
1963.46272,0.28527
1961.53398,0.28507
1959.60523,0.28505
1957.67649,0.28504
1955.74774,0.28501
1953.81900,0.28509
1951.89025,0.28544
1949.96151,0.28611
1948.03276,0.28712
1946.10402,0.28829
1944.17527,0.28933
1942.24652,0.29028
1940.31778,0.29135
1938.38903,0.29249
1936.46029,0.29349
1934.53154,0.29442
1932.60280,0.29558
1930.67405,0.29697
1928.74531,0.29823
1926.81656,0.29918
1924.88782,0.29993
1922.95907,0.30061
1921.03033,0.30125
1919.10158,0.30192
1917.17284,0.30257
1915.24409,0.30298
1913.31534,0.30327
1911.38660,0.30363
1909.45785,0.30393
1907.52911,0.30399
1905.60036,0.30393
1903.67162,0.30386
1901.74287,0.30384
1899.81413,0.30393
1897.88538,0.30400
1895.95664,0.30395
1894.02789,0.30387
1892.09915,0.30374
1890.17040,0.30352
1888.24166,0.30324
1886.31291,0.30293
1884.38417,0.30256
1882.45542,0.30210
1880.52667,0.30157
1878.59793,0.30102
1876.66918,0.30049
1874.74044,0.29994
1872.81169,0.29931
1870.88295,0.29857
1868.95420,0.29771
1867.02546,0.29678
1865.09671,0.29583
1863.16797,0.29474
1861.23922,0.29349
1859.31048,0.29229
1857.38173,0.29120
1855.45299,0.29003
1853.52424,0.28884
1851.59549,0.28761
1849.66675,0.28619
1847.73800,0.28455
1845.80926,0.28284
1843.88051,0.28110
1841.95177,0.27937
1840.02302,0.27773
1838.09428,0.27605
1836.16553,0.27414
1834.23679,0.27198
1832.30804,0.26966
1830.37930,0.26735
1828.45055,0.26506
1826.52181,0.26272
1824.59306,0.26019
1822.66432,0.25750
1820.73557,0.25470
1818.80682,0.25172
1816.87808,0.24857
1814.94933,0.24526
1813.02059,0.24179
1811.09184,0.23801
1809.16310,0.23399
1807.23435,0.22992
1805.30561,0.22579
1803.37686,0.22147
1801.44812,0.21690
1799.51937,0.21225
1797.59063,0.20763
1795.66188,0.20291
1793.73314,0.19776
1791.80439,0.19198
1789.87565,0.18615
1787.94690,0.18049
1786.01815,0.17444
1784.08941,0.16775
1782.16066,0.16073
1780.23192,0.15340
1778.30317,0.14563
1776.37443,0.13762
1774.44568,0.12911
1772.51694,0.11945
1770.58819,0.10942
1768.65945,0.10003
1766.73070,0.09125
1764.80196,0.08352
1762.87321,0.07669
1760.94447,0.07051
1759.01572,0.06551
1757.08697,0.06137
1755.15823,0.05781
1753.22948,0.05493
1751.30074,0.05240
1749.37199,0.05021
1747.44325,0.04863
1745.51450,0.04759
1743.58576,0.04700
1741.65701,0.04694
1739.72827,0.04740
1737.79952,0.04828
1735.87078,0.04941
1733.94203,0.05065
1732.01329,0.05189
1730.08454,0.05328
1728.15580,0.05496
1726.22705,0.05673
1724.29830,0.05856
1722.36956,0.06055
1720.44081,0.06269
1718.51207,0.06496
1716.58332,0.06723
1714.65458,0.06950
1712.72583,0.07202
1710.79709,0.07491
1708.86834,0.07801
1706.93960,0.08131
1705.01085,0.08468
1703.08211,0.08774
1701.15336,0.09085
1699.22462,0.09420
1697.29587,0.09701
1695.36713,0.09921
1693.43838,0.10077
1691.50963,0.10171
1689.58089,0.10229
1687.65214,0.10255
1685.72340,0.10224
1683.79465,0.10089
1681.86591,0.09901
1679.93716,0.09723
1678.00842,0.09540
1676.07967,0.09338
1674.15093,0.09136
1672.22218,0.08970
1670.29344,0.08827
1668.36469,0.08693
1666.43595,0.08594
1664.50720,0.08531
1662.57845,0.08466
1660.64971,0.08395
1658.72096,0.08343
1656.79222,0.08331
1654.86347,0.08355
1652.93473,0.08376
1651.00598,0.08379
1649.07724,0.08400
1647.14849,0.08431
1645.21975,0.08447
1643.29100,0.08448
1641.36226,0.08437
1639.43351,0.08422
1637.50477,0.08413
1635.57602,0.08399
1633.64728,0.08371
1631.71853,0.08339
1629.78978,0.08306
1627.86104,0.08262
1625.93229,0.08198
1624.00355,0.08121
1622.07480,0.08057
1620.14606,0.08014
1618.21731,0.07976
1616.28857,0.07918
1614.35982,0.07829
1612.43108,0.07701
1610.50233,0.07528
1608.57359,0.07332
1606.64484,0.07145
1604.71610,0.06970
1602.78735,0.06800
1600.85861,0.06632
1598.92986,0.06469
1597.00111,0.06326
1595.07237,0.06241
1593.14362,0.06255
1591.21488,0.06404
1589.28613,0.06680
1587.35739,0.07055
1585.42864,0.07513
1583.49990,0.08031
1581.57115,0.08562
1579.64241,0.09065
1577.71366,0.09594
1575.78492,0.10188
1573.85617,0.10693
1571.92743,0.11073
1569.99868,0.11434
1568.06993,0.11764
1566.14119,0.12006
1564.21244,0.12176
1562.28370,0.12312
1560.35495,0.12438
1558.42621,0.12522
1556.49746,0.12549
1554.56872,0.12562
1552.63997,0.12560
1550.71123,0.12539
1548.78248,0.12516
1546.85374,0.12490
1544.92499,0.12435
1542.99625,0.12339
1541.06750,0.12217
1539.13876,0.12065
1537.21001,0.11902
1535.28126,0.11716
1533.35252,0.11459
1531.42377,0.11144
1529.49503,0.10798
1527.56628,0.10379
1525.63754,0.09881
1523.70879,0.09336
1521.78005,0.08697
1519.85130,0.08015
1517.92256,0.07431
1515.99381,0.06950
1514.06507,0.06576
1512.13632,0.06304
1510.20758,0.06115
1508.27883,0.05992
1506.35008,0.05884
1504.42134,0.05834
1502.49259,0.05905
1500.56385,0.06069
1498.63510,0.06297
1496.70636,0.06581
1494.77761,0.06869
1492.84887,0.07119
1490.92012,0.07343
1488.99138,0.07511
1487.06263,0.07560
1485.13389,0.07482
1483.20514,0.07303
1481.27640,0.07062
1479.34765,0.06784
1477.41891,0.06450
1475.49016,0.06045
1473.56141,0.05593
1471.63267,0.05161
1469.70392,0.04843
1467.77518,0.04643
1465.84643,0.04525
1463.91769,0.04485
1461.98894,0.04506
1460.06020,0.04545
1458.13145,0.04580
1456.20271,0.04619
1454.27396,0.04667
1452.34522,0.04729
1450.41647,0.04798
1448.48773,0.04857
1446.55898,0.04901
1444.63024,0.04920
1442.70149,0.04893
1440.77274,0.04823
1438.84400,0.04734
1436.91525,0.04627
1434.98651,0.04520
1433.05776,0.04449
1431.12902,0.04421
1429.20027,0.04410
1427.27153,0.04395
1425.34278,0.04400
1423.41404,0.04449
1421.48529,0.04529
1419.55655,0.04620
1417.62780,0.04706
1415.69906,0.04811
1413.77031,0.04939
1411.84156,0.05041
1409.91282,0.05083
1407.98407,0.05096
1406.05533,0.05113
1404.12658,0.05122
1402.19784,0.05100
1400.26909,0.05053
1398.34035,0.04996
1396.41160,0.04942
1394.48286,0.04875
1392.55411,0.04770
1390.62537,0.04637
1388.69662,0.04507
1386.76788,0.04394
1384.83913,0.04295
1382.91039,0.04195
1380.98164,0.04096
1379.05289,0.04023
1377.12415,0.03990
1375.19540,0.03994
1373.26666,0.04011
1371.33791,0.04036
1369.40917,0.04090
1367.48042,0.04169
1365.55168,0.04241
1363.62293,0.04307
1361.69419,0.04379
1359.76544,0.04448
1357.83670,0.04499
1355.90795,0.04540
1353.97921,0.04575
1352.05046,0.04595
1350.12172,0.04598
1348.19297,0.04578
1346.26422,0.04534
1344.33548,0.04477
1342.40673,0.04418
1340.47799,0.04374
1338.54924,0.04346
1336.62050,0.04312
1334.69175,0.04281
1332.76301,0.04269
1330.83426,0.04267
1328.90552,0.04274
1326.97677,0.04288
1325.04803,0.04299
1323.11928,0.04309
1321.19054,0.04332
1319.26179,0.04373
1317.33304,0.04415
1315.40430,0.04453
1313.47555,0.04502
1311.54681,0.04572
1309.61806,0.04650
1307.68932,0.04730
1305.76057,0.04800
1303.83183,0.04849
1301.90308,0.04884
1299.97434,0.04898
1298.04559,0.04876
1296.11685,0.04821
1294.18810,0.04743
1292.25936,0.04648
1290.33061,0.04545
1288.40187,0.04433
1286.47312,0.04320
1284.54437,0.04227
1282.61563,0.04162
1280.68688,0.04113
1278.75814,0.04054
1276.82939,0.03990
1274.90065,0.03947
1272.97190,0.03910
1271.04316,0.03852
1269.11441,0.03784
1267.18567,0.03731
1265.25692,0.03704
1263.32818,0.03696
1261.39943,0.03689
1259.47069,0.03676
1257.54194,0.03661
1255.61320,0.03634
1253.68445,0.03609
1251.75570,0.03605
1249.82696,0.03610
1247.89821,0.03617
1245.96947,0.03628
1244.04072,0.03628
1242.11198,0.03613
1240.18323,0.03617
1238.25449,0.03665
1236.32574,0.03730
1234.39700,0.03782
1232.46825,0.03827
1230.53951,0.03871
1228.61076,0.03916
1226.68202,0.03977
1224.75327,0.04052
1222.82452,0.04139
1220.89578,0.04228
1218.96703,0.04289
1217.03829,0.04334
1215.10954,0.04396
1213.18080,0.04455
1211.25205,0.04488
1209.32331,0.04504
1207.39456,0.04509
1205.46582,0.04507
1203.53707,0.04515
1201.60833,0.04539
1199.67958,0.04569
1197.75084,0.04586
1195.82209,0.04575
1193.89335,0.04542
1191.96460,0.04483
1190.03585,0.04404
1188.10711,0.04320
1186.17836,0.04220
1184.24962,0.04095
1182.32087,0.03966
1180.39213,0.03849
1178.46338,0.03731
1176.53464,0.03617
1174.60589,0.03528
1172.67715,0.03462
1170.74840,0.03423
1168.81966,0.03431
1166.89091,0.03483
1164.96217,0.03548
1163.03342,0.03597
1161.10467,0.03633
1159.17593,0.03669
1157.24718,0.03692
1155.31844,0.03691
1153.38969,0.03682
1151.46095,0.03675
1149.53220,0.03658
1147.60346,0.03621
1145.67471,0.03551
1143.74597,0.03463
1141.81722,0.03383
1139.88848,0.03303
1137.95973,0.03218
1136.03099,0.03126
1134.10224,0.03059
1132.17350,0.03064
1130.24475,0.03105
1128.31600,0.03135
1126.38726,0.03162
1124.45851,0.03195
1122.52977,0.03230
1120.60102,0.03255
1118.67228,0.03267
1116.74353,0.03296
1114.81479,0.03352
1112.88604,0.03408
1110.95730,0.03451
1109.02855,0.03493
1107.09981,0.03533
1105.17106,0.03556
1103.24232,0.03561
1101.31357,0.03565
1099.38483,0.03563
1097.45608,0.03533
1095.52733,0.03493
1093.59859,0.03471
1091.66984,0.03472
1089.74110,0.03485
1087.81235,0.03478
1085.88361,0.03450
1083.95486,0.03446
1082.02612,0.03491
1080.09737,0.03564
1078.16863,0.03644
1076.23988,0.03729
1074.31114,0.03810
1072.38239,0.03864
1070.45365,0.03900
1068.52490,0.03976
1066.59615,0.04125
1064.66741,0.04329
1062.73866,0.04532
1060.80992,0.04681
1058.88117,0.04782
1056.95243,0.04849
1055.02368,0.04880
1053.09494,0.04892
1051.16619,0.04918
1049.23745,0.04966
1047.30870,0.05017
1045.37996,0.05047
1043.45121,0.05044
1041.52247,0.05036
1039.59372,0.05072
1037.66498,0.05157
1035.73623,0.05271
1033.80748,0.05395
1031.87874,0.05491
1029.94999,0.05537
1028.02125,0.05574
1026.09250,0.05620
1024.16376,0.05651
1022.23501,0.05679
1020.30627,0.05734
1018.37752,0.05807
1016.44878,0.05872
1014.52003,0.05917
1012.59129,0.05943
1010.66254,0.05970
1008.73380,0.06014
1006.80505,0.06061
1004.87631,0.06103
1002.94756,0.06155
1001.01881,0.06215
999.09007,0.06268
997.16132,0.06321
995.23258,0.06389
993.30383,0.06464
991.37509,0.06550
989.44634,0.06677
987.51760,0.06866
985.58885,0.07105
983.66011,0.07374
981.73136,0.07657
979.80262,0.07921
977.87387,0.08127
975.94513,0.08291
974.01638,0.08449
972.08763,0.08612
970.15889,0.08770
968.23014,0.08909
966.30140,0.09045
964.37265,0.09215
962.44391,0.09431
960.51516,0.09698
958.58642,0.10000
956.65767,0.10304
954.72893,0.10589
952.80018,0.10856
950.87144,0.11101
948.94269,0.11311
947.01395,0.11476
945.08520,0.11598
943.15646,0.11679
941.22771,0.11711
939.29896,0.11698
937.37022,0.11657
935.44147,0.11616
933.51273,0.11591
931.58398,0.11571
929.65524,0.11541
927.72649,0.11501
925.79775,0.11456
923.86900,0.11414
921.94026,0.11368
920.01151,0.11308
918.08277,0.11228
916.15402,0.11126
914.22528,0.10998
912.29653,0.10836
910.36779,0.10651
908.43904,0.10459
906.51029,0.10249
904.58155,0.10023
902.65280,0.09820
900.72406,0.09684
898.79531,0.09633
896.86657,0.09675
894.93782,0.09825
893.00908,0.10077
891.08033,0.10388
889.15159,0.10722
887.22284,0.11031
885.29410,0.11248
883.36535,0.11383
881.43661,0.11512
879.50786,0.11640
877.57911,0.11730
875.65037,0.11792
873.72162,0.11868
871.79288,0.11974
869.86413,0.12090
867.93539,0.12188
866.00664,0.12266
864.07790,0.12360
862.14915,0.12476
860.22041,0.12556
858.29166,0.12552
856.36292,0.12494
854.43417,0.12435
852.50543,0.12389
850.57668,0.12326
848.64794,0.12253
846.71919,0.12193
844.79044,0.12123
842.86170,0.12033
840.93295,0.11922
839.00421,0.11788
837.07546,0.11671
835.14672,0.11607
833.21797,0.11592
831.28923,0.11612
829.36048,0.11651
827.43174,0.11711
825.50299,0.11788
823.57425,0.11840
821.64550,0.11866
819.71676,0.11909
817.78801,0.11956
815.85926,0.11974
813.93052,0.11961
812.00177,0.11936
810.07303,0.11946
808.14428,0.11993
806.21554,0.12016
804.28679,0.11996
802.35805,0.11993
800.42930,0.12036
798.50056,0.12055
796.57181,0.12011
794.64307,0.11963
792.71432,0.11933
790.78558,0.11896
788.85683,0.11850
786.92809,0.11803
784.99934,0.11746
783.07059,0.11660
781.14185,0.11565
779.21310,0.11479
777.28436,0.11384
775.35561,0.11272
773.42687,0.11123
771.49812,0.10945
769.56938,0.10791
767.64063,0.10667
765.71189,0.10542
763.78314,0.10408
761.85440,0.10255
759.92565,0.10098
757.99691,0.09975
756.06816,0.09877
754.13942,0.09758
752.21067,0.09615
750.28192,0.09462
748.35318,0.09323
746.42443,0.09224
744.49569,0.09146
742.56694,0.09054
740.63820,0.08965
738.70945,0.08871
736.78071,0.08745
734.85196,0.08623
732.92322,0.08532
730.99447,0.08425
729.06573,0.08268
727.13698,0.08076
725.20824,0.07888
723.27949,0.07759
721.35074,0.07716
719.42200,0.07703
717.49325,0.07657
715.56451,0.07611
713.63576,0.07608
711.70702,0.07609
709.77827,0.07585
707.84953,0.07568
705.92078,0.07543
703.99204,0.07489
702.06329,0.07461
700.13455,0.07461
698.20580,0.07428
696.27706,0.07385
694.34831,0.07352
692.41957,0.07289
690.49082,0.07221
688.56207,0.07186
686.63333,0.07125
684.70458,0.07010
682.77584,0.06911
680.84709,0.06814
678.91835,0.06692
676.98960,0.06616
675.06086,0.06558
673.13211,0.06432
671.20337,0.06315
669.27462,0.06290
667.34588,0.06319
665.41713,0.06367
663.48839,0.06420
661.55964,0.06473
659.63090,0.06550
657.70215,0.06607
655.77340,0.06578
653.84466,0.06477
651.91591,0.06372
649.98717,0.06320
648.05842,0.06304
646.12968,0.06300
644.20093,0.06297
642.27219,0.06239
640.34344,0.06142
638.41470,0.06090
636.48595,0.06053
634.55721,0.05970
632.62846,0.05873
630.69972,0.05773
628.77097,0.05701
626.84222,0.05694
624.91348,0.05733
622.98473,0.05787
621.05599,0.05791
619.12724,0.05741
617.19850,0.05722
615.26975,0.05751
613.34101,0.05789
611.41226,0.05806
609.48352,0.05811
607.55477,0.05884
605.62603,0.06038
603.69728,0.06080
601.76854,0.05971
599.83979,0.05964
