7497.03301,0.83735
7495.10426,0.82958
7493.17552,0.82821
7491.24677,0.83127
7489.31803,0.83067
7487.38928,0.82496
7485.46054,0.82055
7483.53179,0.81831
7481.60305,0.81657
7479.67430,0.81618
7477.74556,0.81445
7475.81681,0.81105
7473.88807,0.81168
7471.95932,0.81853
7470.03057,0.82518
7468.10183,0.82435
7466.17308,0.81750
7464.24434,0.81042
7462.31559,0.80836
7460.38685,0.81296
7458.45810,0.81663
7456.52936,0.81456
7454.60061,0.81308
7452.67187,0.81469
7450.74312,0.81630
7448.81438,0.81653
7446.88563,0.81458
7444.95689,0.81196
7443.02814,0.81055
7441.09940,0.81014
7439.17065,0.81082
7437.24190,0.81115
7435.31316,0.81167
7433.38441,0.81505
7431.45567,0.81681
7429.52692,0.81307
7427.59818,0.80826
7425.66943,0.80447
7423.74069,0.80193
7421.81194,0.80229
7419.88320,0.80283
7417.95445,0.80062
7416.02571,0.79708
7414.09696,0.79472
7412.16822,0.79545
7410.23947,0.79923
7408.31073,0.80215
7406.38198,0.80090
7404.45323,0.79760
7402.52449,0.79692
7400.59574,0.80093
7398.66700,0.80619
7396.73825,0.80720
7394.80951,0.80360
7392.88076,0.79723
7390.95202,0.78995
7389.02327,0.78675
7387.09453,0.78927
7385.16578,0.79267
7383.23704,0.79235
7381.30829,0.78696
7379.37955,0.78262
7377.45080,0.78500
7375.52205,0.78658
7373.59331,0.78153
7371.66456,0.77494
7369.73582,0.77035
7367.80707,0.76960
7365.87833,0.77228
7363.94958,0.77267
7362.02084,0.76992
7360.09209,0.76983
7358.16335,0.77394
7356.23460,0.77866
7354.30586,0.78144
7352.37711,0.78094
7350.44837,0.77678
7348.51962,0.77203
7346.59088,0.76894
7344.66213,0.76751
7342.73338,0.76914
7340.80464,0.77182
7338.87589,0.77201
7336.94715,0.77108
7335.01840,0.76904
7333.08966,0.76476
7331.16091,0.76174
7329.23217,0.76257
7327.30342,0.76392
7325.37468,0.76352
7323.44593,0.76287
7321.51719,0.76065
7319.58844,0.75711
7317.65970,0.75746
7315.73095,0.76165
7313.80221,0.76387
7311.87346,0.76389
7309.94471,0.76588
7308.01597,0.76820
7306.08722,0.76780
7304.15848,0.76770
7302.22973,0.76947
7300.30099,0.77024
7298.37224,0.76881
7296.44350,0.76578
7294.51475,0.76190
7292.58601,0.75890
7290.65726,0.75710
7288.72852,0.75583
7286.79977,0.75623
7284.87103,0.75737
7282.94228,0.75678
7281.01353,0.75586
7279.08479,0.75677
7277.15604,0.76053
7275.22730,0.76607
7273.29855,0.76791
7271.36981,0.76402
7269.44106,0.75985
7267.51232,0.76010
7265.58357,0.76293
7263.65483,0.76377
7261.72608,0.76238
7259.79734,0.76023
7257.86859,0.75739
7255.93985,0.75491
7254.01110,0.75364
7252.08236,0.75472
7250.15361,0.75822
7248.22486,0.76192
7246.29612,0.76500
7244.36737,0.76640
7242.43863,0.76596
7240.50988,0.76517
7238.58114,0.76273
7236.65239,0.75989
7234.72365,0.75963
7232.79490,0.76014
7230.86616,0.75924
7228.93741,0.75787
7227.00867,0.75661
7225.07992,0.75471
7223.15118,0.75478
7221.22243,0.75940
7219.29369,0.76307
7217.36494,0.76176
7215.43619,0.75946
7213.50745,0.75714
7211.57870,0.75253
7209.64996,0.74817
7207.72121,0.74783
7205.79247,0.75037
7203.86372,0.75245
7201.93498,0.75236
7200.00623,0.74994
7198.07749,0.74664
7196.14874,0.74539
7194.22000,0.74628
7192.29125,0.74631
7190.36251,0.74654
7188.43376,0.74830
7186.50501,0.74908
7184.57627,0.74973
7182.64752,0.75130
7180.71878,0.75181
7178.79003,0.75088
7176.86129,0.74845
7174.93254,0.74615
7173.00380,0.74456
7171.07505,0.74181
7169.14631,0.73975
7167.21756,0.73846
7165.28882,0.73411
7163.36007,0.72910
7161.43133,0.72855
7159.50258,0.73012
7157.57384,0.72934
7155.64509,0.72833
7153.71634,0.72993
7151.78760,0.73219
7149.85885,0.73159
7147.93011,0.72786
7146.00136,0.72490
7144.07262,0.72399
7142.14387,0.72289
7140.21513,0.72208
7138.28638,0.72310
7136.35764,0.72494
7134.42889,0.72508
7132.50015,0.72300
7130.57140,0.72108
7128.64266,0.72019
7126.71391,0.71911
7124.78516,0.71656
7122.85642,0.71046
7120.92767,0.70262
7118.99893,0.69922
7117.07018,0.70089
7115.14144,0.70328
7113.21269,0.70430
7111.28395,0.70377
7109.35520,0.70299
7107.42646,0.70292
7105.49771,0.70348
7103.56897,0.70491
7101.64022,0.70491
7099.71148,0.70091
7097.78273,0.69469
7095.85399,0.68855
7093.92524,0.68360
7091.99649,0.68188
7090.06775,0.68353
7088.13900,0.68533
7086.21026,0.68465
7084.28151,0.68367
7082.35277,0.68456
7080.42402,0.68413
7078.49528,0.68066
7076.56653,0.67710
7074.63779,0.67579
7072.70904,0.67658
7070.78030,0.67769
7068.85155,0.67738
7066.92281,0.67547
7064.99406,0.67257
7063.06532,0.66913
7061.13657,0.66678
7059.20782,0.66644
7057.27908,0.66577
7055.35033,0.66228
7053.42159,0.65688
7051.49284,0.65307
7049.56410,0.65238
7047.63535,0.65341
7045.70661,0.65399
7043.77786,0.65203
7041.84912,0.64785
7039.92037,0.64459
7037.99163,0.64484
7036.06288,0.64653
7034.13414,0.64635
7032.20539,0.64590
7030.27664,0.64663
7028.34790,0.64584
7026.41915,0.64309
7024.49041,0.64155
7022.56166,0.64104
7020.63292,0.63934
7018.70417,0.63797
7016.77543,0.63786
7014.84668,0.63688
7012.91794,0.63519
7010.98919,0.63417
7009.06045,0.63268
7007.13170,0.62972
7005.20296,0.62651
7003.27421,0.62507
7001.34547,0.62545
6999.41672,0.62716
6997.48797,0.63134
6995.55923,0.63416
6993.63048,0.63045
6991.70174,0.62415
6989.77299,0.62001
6987.84425,0.61686
6985.91550,0.61545
6983.98676,0.61810
6982.05801,0.62133
6980.12927,0.62060
6978.20052,0.61742
6976.27178,0.61627
6974.34303,0.61799
6972.41429,0.61847
6970.48554,0.61573
6968.55680,0.61171
6966.62805,0.60871
6964.69930,0.60952
6962.77056,0.61424
6960.84181,0.61861
6958.91307,0.61948
6956.98432,0.61812
6955.05558,0.61685
6953.12683,0.61603
6951.19809,0.61484
6949.26934,0.61319
6947.34060,0.61346
6945.41185,0.61619
6943.48311,0.61627
6941.55436,0.61182
6939.62562,0.60916
6937.69687,0.61147
6935.76812,0.61436
6933.83938,0.61432
6931.91063,0.61206
6929.98189,0.61084
6928.05314,0.61167
6926.12440,0.61277
6924.19565,0.61414
6922.26691,0.61576
6920.33816,0.61619
6918.40942,0.61471
6916.48067,0.61244
6914.55193,0.61086
6912.62318,0.60971
6910.69444,0.61012
6908.76569,0.61395
6906.83695,0.61834
6904.90820,0.61797
6902.97945,0.61304
6901.05071,0.60865
6899.12196,0.60641
6897.19322,0.60450
6895.26447,0.60342
6893.33573,0.60381
6891.40698,0.60426
6889.47824,0.60584
6887.54949,0.60896
6885.62075,0.60998
6883.69200,0.60764
6881.76326,0.60446
6879.83451,0.60322
6877.90577,0.60430
6875.97702,0.60535
6874.04828,0.60548
6872.11953,0.60545
6870.19078,0.60577
6868.26204,0.60615
6866.33329,0.60584
6864.40455,0.60665
6862.47580,0.60998
6860.54706,0.61214
6858.61831,0.61043
6856.68957,0.60759
6854.76082,0.60686
6852.83208,0.60894
6850.90333,0.61218
6848.97459,0.61357
6847.04584,0.61130
6845.11710,0.60719
6843.18835,0.60444
6841.25960,0.60312
6839.33086,0.60268
6837.40211,0.60344
6835.47337,0.60344
6833.54462,0.60184
6831.61588,0.60094
6829.68713,0.60153
6827.75839,0.60317
6825.82964,0.60457
6823.90090,0.60309
6821.97215,0.60064
6820.04341,0.60170
6818.11466,0.60492
6816.18592,0.60624
6814.25717,0.60449
6812.32843,0.60190
6810.39968,0.60188
6808.47093,0.60423
6806.54219,0.60627
6804.61344,0.60731
6802.68470,0.60781
6800.75595,0.60879
6798.82721,0.61086
6796.89846,0.61265
6794.96972,0.61237
6793.04097,0.60872
6791.11223,0.60363
6789.18348,0.60151
6787.25474,0.60247
6785.32599,0.60279
6783.39725,0.60110
6781.46850,0.60044
6779.53975,0.60327
6777.61101,0.60658
6775.68226,0.60683
6773.75352,0.60497
6771.82477,0.60360
6769.89603,0.60389
6767.96728,0.60457
6766.03854,0.60370
6764.10979,0.60296
6762.18105,0.60425
6760.25230,0.60528
6758.32356,0.60519
6756.39481,0.60585
6754.46607,0.60740
6752.53732,0.60813
6750.60858,0.60749
6748.67983,0.60687
6746.75108,0.60612
6744.82234,0.60584
6742.89359,0.60738
6740.96485,0.60897
6739.03610,0.60939
6737.10736,0.60775
6735.17861,0.60426
6733.24987,0.60293
6731.32112,0.60369
6729.39238,0.60319
6727.46363,0.60272
6725.53489,0.60454
6723.60614,0.60730
6721.67740,0.60933
6719.74865,0.61025
6717.81991,0.60927
6715.89116,0.60785
6713.96241,0.60817
6712.03367,0.60844
6710.10492,0.60759
6708.17618,0.60729
6706.24743,0.60818
6704.31869,0.60973
6702.38994,0.61048
6700.46120,0.60995
6698.53245,0.60956
6696.60371,0.60893
6694.67496,0.60732
6692.74622,0.60686
6690.81747,0.60841
6688.88873,0.61007
6686.95998,0.61119
6685.03123,0.61192
6683.10249,0.61235
6681.17374,0.61415
6679.24500,0.61775
6677.31625,0.62123
6675.38751,0.62236
6673.45876,0.61950
6671.53002,0.61455
6669.60127,0.61094
6667.67253,0.60897
6665.74378,0.60874
6663.81504,0.61093
6661.88629,0.61342
6659.95755,0.61527
6658.02880,0.61795
6656.10006,0.61970
6654.17131,0.61869
6652.24256,0.61742
6650.31382,0.61818
6648.38507,0.62061
6646.45633,0.62288
6644.52758,0.62276
6642.59884,0.62049
6640.67009,0.61889
6638.74135,0.61869
6636.81260,0.61836
6634.88386,0.61775
6632.95511,0.61718
6631.02637,0.61668
6629.09762,0.61700
6627.16888,0.61792
6625.24013,0.61804
6623.31139,0.61702
6621.38264,0.61689
6619.45389,0.61959
6617.52515,0.62284
6615.59640,0.62374
6613.66766,0.62416
6611.73891,0.62576
6609.81017,0.62701
6607.88142,0.62679
6605.95268,0.62491
6604.02393,0.62217
6602.09519,0.62081
6600.16644,0.62156
6598.23770,0.62265
6596.30895,0.62378
6594.38021,0.62490
6592.45146,0.62466
6590.52271,0.62482
6588.59397,0.62677
6586.66522,0.62686
6584.73648,0.62384
6582.80773,0.62205
6580.87899,0.62377
6578.95024,0.62616
6577.02150,0.62671
6575.09275,0.62673
6573.16401,0.62807
6571.23526,0.63008
6569.30652,0.63080
6567.37777,0.62914
6565.44903,0.62633
6563.52028,0.62569
6561.59154,0.62840
6559.66279,0.63155
6557.73404,0.63293
6555.80530,0.63269
6553.87655,0.63084
6551.94781,0.62921
6550.01906,0.63023
6548.09032,0.63241
6546.16157,0.63300
6544.23283,0.63204
6542.30408,0.63247
6540.37534,0.63545
6538.44659,0.63755
6536.51785,0.63718
6534.58910,0.63653
6532.66036,0.63617
6530.73161,0.63550
6528.80287,0.63520
6526.87412,0.63586
6524.94537,0.63637
6523.01663,0.63551
6521.08788,0.63378
6519.15914,0.63222
6517.23039,0.63161
6515.30165,0.63363
6513.37290,0.63779
6511.44416,0.63967
6509.51541,0.63792
6507.58667,0.63660
6505.65792,0.63709
6503.72918,0.63739
6501.80043,0.63782
6499.87169,0.63883
6497.94294,0.63911
6496.01419,0.63828
6494.08545,0.63595
6492.15670,0.63239
6490.22796,0.63027
6488.29921,0.63107
6486.37047,0.63304
6484.44172,0.63444
6482.51298,0.63613
6480.58423,0.63909
6478.65549,0.64135
6476.72674,0.64094
6474.79800,0.63944
6472.86925,0.63924
6470.94051,0.64064
6469.01176,0.64178
6467.08302,0.64060
6465.15427,0.63811
6463.22552,0.63663
6461.29678,0.63671
6459.36803,0.63801
6457.43929,0.63983
6455.51054,0.64094
6453.58180,0.64056
6451.65305,0.63941
6449.72431,0.63846
6447.79556,0.63776
6445.86682,0.63784
6443.93807,0.63944
6442.00933,0.64128
6440.08058,0.64116
6438.15184,0.64015
6436.22309,0.64110
6434.29434,0.64287
6432.36560,0.64197
6430.43685,0.63921
6428.50811,0.63887
6426.57936,0.64106
6424.65062,0.64220
6422.72187,0.64233
6420.79313,0.64360
6418.86438,0.64556
6416.93564,0.64680
6415.00689,0.64651
6413.07815,0.64502
6411.14940,0.64381
6409.22066,0.64327
6407.29191,0.64288
6405.36317,0.64261
6403.43442,0.64270
6401.50567,0.64351
6399.57693,0.64449
6397.64818,0.64473
6395.71944,0.64446
6393.79069,0.64365
6391.86195,0.64271
6389.93320,0.64256
6388.00446,0.64232
6386.07571,0.64155
6384.14697,0.64151
6382.21822,0.64216
6380.28948,0.64215
6378.36073,0.64139
6376.43199,0.64196
6374.50324,0.64444
6372.57450,0.64649
6370.64575,0.64684
6368.71700,0.64588
6366.78826,0.64539
6364.85951,0.64688
6362.93077,0.64899
6361.00202,0.64967
6359.07328,0.64813
6357.14453,0.64620
6355.21579,0.64625
6353.28704,0.64690
6351.35830,0.64624
6349.42955,0.64483
6347.50081,0.64431
6345.57206,0.64549
6343.64332,0.64711
6341.71457,0.64848
6339.78582,0.64980
6337.85708,0.64978
6335.92833,0.64867
6333.99959,0.64839
6332.07084,0.64870
6330.14210,0.64912
6328.21335,0.65002
6326.28461,0.65089
6324.35586,0.65164
6322.42712,0.65259
6320.49837,0.65328
6318.56963,0.65275
6316.64088,0.65055
6314.71214,0.64825
6312.78339,0.64788
6310.85465,0.64912
6308.92590,0.65047
6306.99715,0.65120
6305.06841,0.65067
6303.13966,0.64918
6301.21092,0.64906
6299.28217,0.65081
6297.35343,0.65242
6295.42468,0.65358
6293.49594,0.65466
6291.56719,0.65471
6289.63845,0.65369
6287.70970,0.65307
6285.78096,0.65362
6283.85221,0.65481
6281.92347,0.65596
6279.99472,0.65644
6278.06598,0.65666
6276.13723,0.65799
6274.20848,0.65936
6272.27974,0.65871
6270.35099,0.65772
6268.42225,0.65823
6266.49350,0.65870
6264.56476,0.65926
6262.63601,0.66088
6260.70727,0.66130
6258.77852,0.65985
6256.84978,0.65937
6254.92103,0.66124
6252.99229,0.66338
6251.06354,0.66342
6249.13480,0.66249
6247.20605,0.66277
6245.27730,0.66329
6243.34856,0.66339
6241.41981,0.66477
6239.49107,0.66692
6237.56232,0.66714
6235.63358,0.66580
6233.70483,0.66473
6231.77609,0.66401
6229.84734,0.66417
6227.91860,0.66652
6225.98985,0.67018
6224.06111,0.67235
6222.13236,0.67225
6220.20362,0.67184
6218.27487,0.67175
6216.34613,0.67119
6214.41738,0.67098
6212.48863,0.67212
6210.55989,0.67372
6208.63114,0.67438
6206.70240,0.67421
6204.77365,0.67447
6202.84491,0.67563
6200.91616,0.67718
6198.98742,0.67851
6197.05867,0.67925
6195.12993,0.67926
6193.20118,0.67927
6191.27244,0.67976
6189.34369,0.68024
6187.41495,0.68102
6185.48620,0.68246
6183.55746,0.68346
6181.62871,0.68370
6179.69996,0.68380
6177.77122,0.68426
6175.84247,0.68535
6173.91373,0.68589
6171.98498,0.68533
6170.05624,0.68524
6168.12749,0.68525
6166.19875,0.68417
6164.27000,0.68352
6162.34126,0.68437
6160.41251,0.68547
6158.48377,0.68535
6156.55502,0.68486
6154.62628,0.68584
6152.69753,0.68713
6150.76878,0.68727
6148.84004,0.68750
6146.91129,0.68865
6144.98255,0.68971
6143.05380,0.68998
6141.12506,0.68997
6139.19631,0.68976
6137.26757,0.68933
6135.33882,0.68936
6133.41008,0.68947
6131.48133,0.68955
6129.55259,0.68957
6127.62384,0.68918
6125.69510,0.69013
6123.76635,0.69212
6121.83761,0.69247
6119.90886,0.69187
6117.98011,0.69143
6116.05137,0.69038
6114.12262,0.68954
6112.19388,0.69051
6110.26513,0.69298
6108.33639,0.69534
6106.40764,0.69675
6104.47890,0.69695
6102.55015,0.69619
6100.62141,0.69486
6098.69266,0.69280
6096.76392,0.69111
6094.83517,0.69109
6092.90643,0.69212
6090.97768,0.69313
6089.04893,0.69337
6087.12019,0.69281
6085.19144,0.69296
6083.26270,0.69424
6081.33395,0.69499
6079.40521,0.69512
6077.47646,0.69552
6075.54772,0.69569
6073.61897,0.69535
6071.69023,0.69472
6069.76148,0.69405
6067.83274,0.69357
6065.90399,0.69275
6063.97525,0.69144
6062.04650,0.69075
6060.11776,0.69126
6058.18901,0.69169
6056.26026,0.69058
6054.33152,0.68923
6052.40277,0.68951
6050.47403,0.68990
6048.54528,0.68904
6046.61654,0.68868
6044.68779,0.68950
6042.75905,0.68986
6040.83030,0.68925
6038.90156,0.68874
6036.97281,0.68851
6035.04407,0.68800
6033.11532,0.68781
6031.18658,0.68812
6029.25783,0.68801
6027.32909,0.68739
6025.40034,0.68716
6023.47159,0.68742
6021.54285,0.68734
6019.61410,0.68695
6017.68536,0.68666
6015.75661,0.68615
6013.82787,0.68501
6011.89912,0.68349
6009.97038,0.68250
6008.04163,0.68231
6006.11289,0.68179
6004.18414,0.68053
6002.25540,0.67955
6000.32665,0.67877
5998.39791,0.67763
5996.46916,0.67683
5994.54041,0.67673
5992.61167,0.67676
5990.68292,0.67625
5988.75418,0.67553
5986.82543,0.67593
5984.89669,0.67738
5982.96794,0.67826
5981.03920,0.67769
5979.11045,0.67601
5977.18171,0.67431
5975.25296,0.67390
5973.32422,0.67471
5971.39547,0.67493
5969.46673,0.67385
5967.53798,0.67297
5965.60924,0.67274
5963.68049,0.67239
5961.75174,0.67241
5959.82300,0.67322
5957.89425,0.67359
5955.96551,0.67195
5954.03676,0.66910
5952.10802,0.66779
5950.17927,0.66857
5948.25053,0.66990
5946.32178,0.67030
5944.39304,0.66891
5942.46429,0.66699
5940.53555,0.66649
5938.60680,0.66728
5936.67806,0.66822
5934.74931,0.66855
5932.82057,0.66801
5930.89182,0.66711
5928.96307,0.66622
5927.03433,0.66531
5925.10558,0.66479
5923.17684,0.66511
5921.24809,0.66587
5919.31935,0.66681
5917.39060,0.66840
5915.46186,0.66993
5913.53311,0.66949
5911.60437,0.66741
5909.67562,0.66596
5907.74688,0.66568
5905.81813,0.66588
5903.88939,0.66579
5901.96064,0.66448
5900.03189,0.66285
5898.10315,0.66208
5896.17440,0.66164
5894.24566,0.66152
5892.31691,0.66171
5890.38817,0.66144
5888.45942,0.66046
5886.53068,0.65937
5884.60193,0.65918
5882.67319,0.65959
5880.74444,0.65941
5878.81570,0.65882
5876.88695,0.65820
5874.95821,0.65729
5873.02946,0.65649
5871.10072,0.65605
5869.17197,0.65561
5867.24322,0.65554
5865.31448,0.65595
5863.38573,0.65578
5861.45699,0.65454
5859.52824,0.65314
5857.59950,0.65249
5855.67075,0.65241
5853.74201,0.65300
5851.81326,0.65427
5849.88452,0.65402
5847.95577,0.65148
5846.02703,0.64966
5844.09828,0.64993
5842.16954,0.65044
5840.24079,0.65024
5838.31205,0.65020
5836.38330,0.65089
5834.45455,0.65195
5832.52581,0.65214
5830.59706,0.65059
5828.66832,0.64838
5826.73957,0.64665
5824.81083,0.64519
5822.88208,0.64447
5820.95334,0.64494
5819.02459,0.64535
5817.09585,0.64447
5815.16710,0.64272
5813.23836,0.64179
5811.30961,0.64174
5809.38087,0.64071
5807.45212,0.63885
5805.52337,0.63803
5803.59463,0.63861
5801.66588,0.63982
5799.73714,0.64080
5797.80839,0.64101
5795.87965,0.64109
5793.95090,0.64184
5792.02216,0.64298
5790.09341,0.64402
5788.16467,0.64478
5786.23592,0.64502
5784.30718,0.64488
5782.37843,0.64509
5780.44969,0.64586
5778.52094,0.64661
5776.59220,0.64623
5774.66345,0.64437
5772.73470,0.64343
5770.80596,0.64528
5768.87721,0.64822
5766.94847,0.64997
5765.01972,0.65031
5763.09098,0.65019
5761.16223,0.65076
5759.23349,0.65212
5757.30474,0.65284
5755.37600,0.65230
5753.44725,0.65179
5751.51851,0.65211
5749.58976,0.65280
5747.66102,0.65343
5745.73227,0.65393
5743.80352,0.65419
5741.87478,0.65413
5739.94603,0.65403
5738.01729,0.65433
5736.08854,0.65490
5734.15980,0.65487
5732.23105,0.65459
5730.30231,0.65458
5728.37356,0.65410
5726.44482,0.65352
5724.51607,0.65364
5722.58733,0.65376
5720.65858,0.65368
5718.72984,0.65421
5716.80109,0.65501
5714.87235,0.65535
5712.94360,0.65562
5711.01485,0.65596
5709.08611,0.65570
5707.15736,0.65494
5705.22862,0.65464
5703.29987,0.65491
5701.37113,0.65483
5699.44238,0.65446
5697.51364,0.65458
5695.58489,0.65430
5693.65615,0.65294
5691.72740,0.65200
5689.79866,0.65193
5687.86991,0.65164
5685.94117,0.65140
5684.01242,0.65193
5682.08368,0.65290
5680.15493,0.65374
5678.22618,0.65426
5676.29744,0.65460
5674.36869,0.65494
5672.43995,0.65509
5670.51120,0.65422
5668.58246,0.65253
5666.65371,0.65179
5664.72497,0.65256
5662.79622,0.65356
5660.86748,0.65382
5658.93873,0.65340
5657.00999,0.65267
5655.08124,0.65194
5653.15250,0.65179
5651.22375,0.65223
5649.29500,0.65264
5647.36626,0.65314
5645.43751,0.65393
5643.50877,0.65414
5641.58002,0.65385
5639.65128,0.65400
5637.72253,0.65401
5635.79379,0.65334
5633.86504,0.65316
5631.93630,0.65378
5630.00755,0.65415
5628.07881,0.65406
5626.15006,0.65414
5624.22132,0.65486
5622.29257,0.65545
5620.36383,0.65447
5618.43508,0.65258
5616.50633,0.65221
5614.57759,0.65373
5612.64884,0.65479
5610.72010,0.65429
5608.79135,0.65335
5606.86261,0.65267
5604.93386,0.65263
5603.00512,0.65342
5601.07637,0.65448
5599.14763,0.65553
5597.21888,0.65642
5595.29014,0.65648
5593.36139,0.65558
5591.43265,0.65486
5589.50390,0.65491
5587.57516,0.65528
5585.64641,0.65586
5583.71766,0.65662
5581.78892,0.65709
5579.86017,0.65706
5577.93143,0.65687
5576.00268,0.65684
5574.07394,0.65680
5572.14519,0.65654
5570.21645,0.65620
5568.28770,0.65631
5566.35896,0.65691
5564.43021,0.65746
5562.50147,0.65799
5560.57272,0.65846
5558.64398,0.65836
5556.71523,0.65788
5554.78648,0.65752
5552.85774,0.65746
5550.92899,0.65781
5549.00025,0.65845
5547.07150,0.65917
5545.14276,0.65950
5543.21401,0.65902
5541.28527,0.65825
5539.35652,0.65801
5537.42778,0.65817
5535.49903,0.65825
5533.57029,0.65869
5531.64154,0.65972
5529.71280,0.66074
5527.78405,0.66141
5525.85531,0.66158
5523.92656,0.66095
5521.99781,0.66006
5520.06907,0.66029
5518.14032,0.66180
5516.21158,0.66249
5514.28283,0.66132
5512.35409,0.66025
5510.42534,0.66044
5508.49660,0.66083
5506.56785,0.66083
5504.63911,0.66070
5502.71036,0.66079
5500.78162,0.66113
5498.85287,0.66139
5496.92413,0.66183
5494.99538,0.66263
5493.06664,0.66283
5491.13789,0.66233
5489.20914,0.66197
5487.28040,0.66187
5485.35165,0.66223
5483.42291,0.66320
5481.49416,0.66397
5479.56542,0.66398
5477.63667,0.66385
5475.70793,0.66406
5473.77918,0.66419
5471.85044,0.66410
5469.92169,0.66430
5467.99295,0.66484
5466.06420,0.66556
5464.13546,0.66621
5462.20671,0.66636
5460.27796,0.66634
5458.34922,0.66662
5456.42047,0.66668
5454.49173,0.66658
5452.56298,0.66695
5450.63424,0.66734
5448.70549,0.66742
5446.77675,0.66810
5444.84800,0.66971
5442.91926,0.67105
5440.99051,0.67134
5439.06177,0.67124
5437.13302,0.67142
5435.20428,0.67212
5433.27553,0.67310
5431.34679,0.67386
5429.41804,0.67412
5427.48929,0.67354
5425.56055,0.67267
5423.63180,0.67263
5421.70306,0.67281
5419.77431,0.67251
5417.84557,0.67279
5415.91682,0.67386
5413.98808,0.67472
5412.05933,0.67545
5410.13059,0.67589
5408.20184,0.67539
5406.27310,0.67490
5404.34435,0.67507
5402.41561,0.67502
5400.48686,0.67499
5398.55811,0.67571
5396.62937,0.67667
5394.70062,0.67750
5392.77188,0.67756
5390.84313,0.67634
5388.91439,0.67536
5386.98564,0.67562
5385.05690,0.67575
5383.12815,0.67521
5381.19941,0.67503
5379.27066,0.67560
5377.34192,0.67608
5375.41317,0.67543
5373.48443,0.67437
5371.55568,0.67431
5369.62694,0.67494
5367.69819,0.67546
5365.76944,0.67532
5363.84070,0.67445
5361.91195,0.67407
5359.98321,0.67451
5358.05446,0.67472
5356.12572,0.67443
5354.19697,0.67392
5352.26823,0.67320
5350.33948,0.67223
5348.41074,0.67111
5346.48199,0.67052
5344.55325,0.67050
5342.62450,0.67023
5340.69576,0.66959
5338.76701,0.66896
5336.83827,0.66797
5334.90952,0.66640
5332.98077,0.66534
5331.05203,0.66513
5329.12328,0.66462
5327.19454,0.66339
5325.26579,0.66225
5323.33705,0.66167
5321.40830,0.66115
5319.47956,0.65958
5317.55081,0.65670
5315.62207,0.65411
5313.69332,0.65266
5311.76458,0.65136
5309.83583,0.64979
5307.90709,0.64789
5305.97834,0.64548
5304.04959,0.64280
5302.12085,0.63989
5300.19210,0.63690
5298.26336,0.63441
5296.33461,0.63220
5294.40587,0.62934
5292.47712,0.62571
5290.54838,0.62218
5288.61963,0.61913
5286.69089,0.61595
5284.76214,0.61204
5282.83340,0.60784
5280.90465,0.60408
5278.97591,0.60043
5277.04716,0.59603
5275.11842,0.59098
5273.18967,0.58611
5271.26092,0.58216
5269.33218,0.57923
5267.40343,0.57672
5265.47469,0.57392
5263.54594,0.56987
5261.61720,0.56478
5259.68845,0.56055
5257.75971,0.55724
5255.83096,0.55349
5253.90222,0.54945
5251.97347,0.54565
5250.04473,0.54216
5248.11598,0.53951
5246.18724,0.53721
5244.25849,0.53413
5242.32975,0.53097
5240.40100,0.52878
5238.47225,0.52691
5236.54351,0.52485
5234.61476,0.52299
5232.68602,0.52122
5230.75727,0.51917
5228.82853,0.51697
5226.89978,0.51503
5224.97104,0.51346
5223.04229,0.51186
5221.11355,0.51016
5219.18480,0.50899
5217.25606,0.50847
5215.32731,0.50800
5213.39857,0.50732
5211.46982,0.50643
5209.54107,0.50540
5207.61233,0.50478
5205.68358,0.50429
5203.75484,0.50349
5201.82609,0.50320
5199.89735,0.50366
5197.96860,0.50410
5196.03986,0.50420
5194.11111,0.50420
5192.18237,0.50441
5190.25362,0.50475
5188.32488,0.50528
5186.39613,0.50611
5184.46739,0.50667
5182.53864,0.50670
5180.60990,0.50678
5178.68115,0.50722
5176.75240,0.50803
5174.82366,0.50898
5172.89491,0.50961
5170.96617,0.51043
5169.03742,0.51185
5167.10868,0.51310
5165.17993,0.51368
5163.25119,0.51382
5161.32244,0.51398
5159.39370,0.51478
5157.46495,0.51645
5155.53621,0.51829
5153.60746,0.51954
5151.67872,0.52022
5149.74997,0.52077
5147.82123,0.52172
5145.89248,0.52335
5143.96373,0.52519
5142.03499,0.52649
5140.10624,0.52745
5138.17750,0.52887
5136.24875,0.53050
5134.32001,0.53186
5132.39126,0.53288
5130.46252,0.53351
5128.53377,0.53420
5126.60503,0.53572
5124.67628,0.53789
5122.74754,0.53958
5120.81879,0.54009
5118.89005,0.54026
5116.96130,0.54114
5115.03255,0.54255
5113.10381,0.54384
5111.17506,0.54478
5109.24632,0.54527
5107.31757,0.54591
5105.38883,0.54750
5103.46008,0.54946
5101.53134,0.55070
5099.60259,0.55118
5097.67385,0.55175
5095.74510,0.55282
5093.81636,0.55392
5091.88761,0.55475
5089.95887,0.55538
5088.03012,0.55584
5086.10138,0.55645
5084.17263,0.55754
5082.24388,0.55884
5080.31514,0.55988
5078.38639,0.56071
5076.45765,0.56160
5074.52890,0.56265
5072.60016,0.56379
5070.67141,0.56480
5068.74267,0.56596
5066.81392,0.56757
5064.88518,0.56886
5062.95643,0.56932
5061.02769,0.56967
5059.09894,0.57063
5057.17020,0.57205
5055.24145,0.57310
5053.31270,0.57362
5051.38396,0.57421
5049.45521,0.57510
5047.52647,0.57604
5045.59772,0.57698
5043.66898,0.57809
5041.74023,0.57937
5039.81149,0.58069
5037.88274,0.58174
5035.95400,0.58213
5034.02525,0.58204
5032.09651,0.58204
5030.16776,0.58249
5028.23902,0.58322
5026.31027,0.58416
5024.38153,0.58516
5022.45278,0.58578
5020.52403,0.58600
5018.59529,0.58594
5016.66654,0.58593
5014.73780,0.58640
5012.80905,0.58701
5010.88031,0.58728
5008.95156,0.58746
5007.02282,0.58763
5005.09407,0.58776
5003.16533,0.58842
5001.23658,0.58947
4999.30784,0.59002
4997.37909,0.58993
4995.45035,0.58981
4993.52160,0.59015
4991.59286,0.59058
4989.66411,0.59047
4987.73536,0.58988
4985.80662,0.58935
4983.87787,0.58931
4981.94913,0.58950
4980.02038,0.58935
4978.09164,0.58858
4976.16289,0.58759
4974.23415,0.58712
4972.30540,0.58719
4970.37666,0.58683
4968.44791,0.58532
4966.51917,0.58380
4964.59042,0.58364
4962.66168,0.58404
4960.73293,0.58348
4958.80418,0.58198
4956.87544,0.58078
4954.94669,0.58010
4953.01795,0.57905
4951.08920,0.57758
4949.16046,0.57623
4947.23171,0.57467
4945.30297,0.57297
4943.37422,0.57169
4941.44548,0.57025
4939.51673,0.56850
4937.58799,0.56728
4935.65924,0.56629
4933.73050,0.56505
4931.80175,0.56375
4929.87301,0.56225
4927.94426,0.56065
4926.01551,0.55915
4924.08677,0.55746
4922.15802,0.55553
4920.22928,0.55373
4918.30053,0.55202
4916.37179,0.55014
4914.44304,0.54820
4912.51430,0.54656
4910.58555,0.54515
4908.65681,0.54371
4906.72806,0.54215
4904.79932,0.54063
4902.87057,0.53909
4900.94183,0.53712
4899.01308,0.53495
4897.08434,0.53342
4895.15559,0.53236
4893.22684,0.53095
4891.29810,0.52913
4889.36935,0.52730
4887.44061,0.52563
4885.51186,0.52416
4883.58312,0.52278
4881.65437,0.52136
4879.72563,0.51995
4877.79688,0.51850
4875.86814,0.51682
4873.93939,0.51493
4872.01065,0.51302
4870.08190,0.51138
4868.15316,0.51011
4866.22441,0.50882
4864.29566,0.50724
4862.36692,0.50550
4860.43817,0.50383
4858.50943,0.50244
4856.58068,0.50135
4854.65194,0.50050
4852.72319,0.49956
4850.79445,0.49832
4848.86570,0.49704
4846.93696,0.49591
4845.00821,0.49461
4843.07947,0.49309
4841.15072,0.49161
4839.22198,0.49009
4837.29323,0.48844
4835.36449,0.48710
4833.43574,0.48640
4831.50699,0.48607
4829.57825,0.48558
4827.64950,0.48475
4825.72076,0.48369
4823.79201,0.48234
4821.86327,0.48079
4819.93452,0.47945
4818.00578,0.47842
4816.07703,0.47745
4814.14829,0.47675
4812.21954,0.47644
4810.29080,0.47598
4808.36205,0.47521
4806.43331,0.47437
4804.50456,0.47335
4802.57582,0.47249
4800.64707,0.47204
4798.71832,0.47142
4796.78958,0.47078
4794.86083,0.47081
4792.93209,0.47120
4791.00334,0.47123
4789.07460,0.47075
4787.14585,0.47010
4785.21711,0.46982
4783.28836,0.46985
4781.35962,0.46939
4779.43087,0.46846
4777.50213,0.46778
4775.57338,0.46740
4773.64464,0.46700
4771.71589,0.46676
4769.78714,0.46679
4767.85840,0.46680
4765.92965,0.46658
4764.00091,0.46607
4762.07216,0.46561
4760.14342,0.46567
4758.21467,0.46598
4756.28593,0.46605
4754.35718,0.46575
4752.42844,0.46528
4750.49969,0.46506
4748.57095,0.46505
4746.64220,0.46507
4744.71346,0.46527
4742.78471,0.46559
4740.85597,0.46601
4738.92722,0.46650
4736.99847,0.46676
4735.06973,0.46677
4733.14098,0.46686
4731.21224,0.46708
4729.28349,0.46722
4727.35475,0.46715
4725.42600,0.46678
4723.49726,0.46649
4721.56851,0.46680
4719.63977,0.46760
4717.71102,0.46837
4715.78228,0.46864
4713.85353,0.46856
4711.92479,0.46881
4709.99604,0.46930
4708.06729,0.46947
4706.13855,0.46950
4704.20980,0.46977
4702.28106,0.47038
4700.35231,0.47107
4698.42357,0.47154
4696.49482,0.47179
4694.56608,0.47186
4692.63733,0.47195
4690.70859,0.47221
4688.77984,0.47240
4686.85110,0.47278
4684.92235,0.47370
4682.99361,0.47460
4681.06486,0.47494
4679.13612,0.47515
4677.20737,0.47588
4675.27862,0.47692
4673.34988,0.47777
4671.42113,0.47851
4669.49239,0.47921
4667.56364,0.47970
4665.63490,0.48033
4663.70615,0.48153
4661.77741,0.48289
4659.84866,0.48403
4657.91992,0.48513
4655.99117,0.48621
4654.06243,0.48704
4652.13368,0.48771
4650.20494,0.48842
4648.27619,0.48919
4646.34745,0.49005
4644.41870,0.49099
4642.48995,0.49167
4640.56121,0.49204
4638.63246,0.49259
4636.70372,0.49347
4634.77497,0.49441
4632.84623,0.49526
4630.91748,0.49631
4628.98874,0.49760
4627.05999,0.49854
4625.13125,0.49894
4623.20250,0.49941
4621.27376,0.50019
4619.34501,0.50094
4617.41627,0.50157
4615.48752,0.50231
4613.55877,0.50318
4611.63003,0.50417
4609.70128,0.50533
4607.77254,0.50627
4605.84379,0.50687
4603.91505,0.50747
4601.98630,0.50797
4600.05756,0.50811
4598.12881,0.50808
4596.20007,0.50829
4594.27132,0.50917
4592.34258,0.51065
4590.41383,0.51193
4588.48509,0.51248
4586.55634,0.51266
4584.62760,0.51303
4582.69885,0.51386
4580.77010,0.51483
4578.84136,0.51516
4576.91261,0.51501
4574.98387,0.51544
4573.05512,0.51649
4571.12638,0.51719
4569.19763,0.51727
4567.26889,0.51733
4565.34014,0.51779
4563.41140,0.51831
4561.48265,0.51853
4559.55391,0.51872
4557.62516,0.51923
4555.69642,0.51992
4553.76767,0.52064
4551.83893,0.52118
4549.91018,0.52130
4547.98143,0.52120
4546.05269,0.52135
4544.12394,0.52182
4542.19520,0.52239
4540.26645,0.52284
4538.33771,0.52317
4536.40896,0.52346
4534.48022,0.52359
4532.55147,0.52359
4530.62273,0.52358
4528.69398,0.52361
4526.76524,0.52394
4524.83649,0.52435
4522.90775,0.52452
4520.97900,0.52446
4519.05025,0.52434
4517.12151,0.52429
4515.19276,0.52403
4513.26402,0.52350
4511.33527,0.52306
4509.40653,0.52269
4507.47778,0.52209
4505.54904,0.52136
4503.62029,0.52075
4501.69155,0.52002
4499.76280,0.51877
4497.83406,0.51735
4495.90531,0.51624
4493.97657,0.51541
4492.04782,0.51452
4490.11908,0.51322
4488.19033,0.51133
4486.26158,0.50904
4484.33284,0.50686
4482.40409,0.50490
4480.47535,0.50281
4478.54660,0.50042
4476.61786,0.49799
4474.68911,0.49564
4472.76037,0.49309
4470.83162,0.49023
4468.90288,0.48742
4466.97413,0.48489
4465.04539,0.48236
4463.11664,0.47956
4461.18790,0.47669
4459.25915,0.47378
4457.33041,0.47060
4455.40166,0.46726
4453.47291,0.46415
4451.54417,0.46138
4449.61542,0.45882
4447.68668,0.45634
4445.75793,0.45374
4443.82919,0.45091
4441.90044,0.44804
4439.97170,0.44521
4438.04295,0.44228
4436.11421,0.43947
4434.18546,0.43713
4432.25672,0.43526
4430.32797,0.43342
4428.39923,0.43124
4426.47048,0.42913
4424.54173,0.42757
4422.61299,0.42629
4420.68424,0.42487
4418.75550,0.42338
4416.82675,0.42197
4414.89801,0.42063
4412.96926,0.41963
4411.04052,0.41907
4409.11177,0.41844
4407.18303,0.41739
4405.25428,0.41647
4403.32554,0.41613
4401.39679,0.41610
4399.46805,0.41612
4397.53930,0.41623
4395.61056,0.41649
4393.68181,0.41689
4391.75306,0.41739
4389.82432,0.41791
4387.89557,0.41839
4385.96683,0.41896
4384.03808,0.41947
4382.10934,0.41975
4380.18059,0.42017
4378.25185,0.42099
4376.32310,0.42204
4374.39436,0.42285
4372.46561,0.42315
4370.53687,0.42344
4368.60812,0.42405
4366.67938,0.42470
4364.75063,0.42524
4362.82189,0.42544
4360.89314,0.42504
4358.96439,0.42440
4357.03565,0.42390
4355.10690,0.42352
4353.17816,0.42314
4351.24941,0.42248
4349.32067,0.42170
4347.39192,0.42119
4345.46318,0.42083
4343.53443,0.42021
4341.60569,0.41938
4339.67694,0.41874
4337.74820,0.41844
4335.81945,0.41825
4333.89071,0.41772
4331.96196,0.41690
4330.03321,0.41634
4328.10447,0.41604
4326.17572,0.41548
4324.24698,0.41466
4322.31823,0.41398
4320.38949,0.41366
4318.46074,0.41349
4316.53200,0.41314
4314.60325,0.41254
4312.67451,0.41175
4310.74576,0.41110
4308.81702,0.41094
4306.88827,0.41089
4304.95953,0.41039
4303.03078,0.40940
4301.10204,0.40808
4299.17329,0.40697
4297.24454,0.40642
4295.31580,0.40598
4293.38705,0.40543
4291.45831,0.40488
4289.52956,0.40445
4287.60082,0.40415
4285.67207,0.40388
4283.74333,0.40353
4281.81458,0.40320
4279.88584,0.40287
4277.95709,0.40257
4276.02835,0.40250
4274.09960,0.40258
4272.17086,0.40243
4270.24211,0.40202
4268.31336,0.40179
4266.38462,0.40202
4264.45587,0.40247
4262.52713,0.40283
4260.59838,0.40304
4258.66964,0.40320
4256.74089,0.40356
4254.81215,0.40434
4252.88340,0.40521
4250.95466,0.40567
4249.02591,0.40594
4247.09717,0.40626
4245.16842,0.40638
4243.23968,0.40641
4241.31093,0.40663
4239.38219,0.40696
4237.45344,0.40774
4235.52469,0.40888
4233.59595,0.40935
4231.66720,0.40917
4229.73846,0.40934
4227.80971,0.40994
4225.88097,0.41049
4223.95222,0.41068
4222.02348,0.41041
4220.09473,0.41012
4218.16599,0.41022
4216.23724,0.41056
4214.30850,0.41097
4212.37975,0.41165
4210.45101,0.41243
4208.52226,0.41273
4206.59352,0.41255
4204.66477,0.41247
4202.73602,0.41264
4200.80728,0.41267
4198.87853,0.41265
4196.94979,0.41284
4195.02104,0.41313
4193.09230,0.41346
4191.16355,0.41389
4189.23481,0.41438
4187.30606,0.41464
4185.37732,0.41462
4183.44857,0.41487
4181.51983,0.41533
4179.59108,0.41553
4177.66234,0.41566
4175.73359,0.41601
4173.80484,0.41659
4171.87610,0.41732
4169.94735,0.41810
4168.01861,0.41856
4166.08986,0.41850
4164.16112,0.41841
4162.23237,0.41849
4160.30363,0.41853
4158.37488,0.41849
4156.44614,0.41838
4154.51739,0.41830
4152.58865,0.41826
4150.65990,0.41794
4148.73116,0.41722
4146.80241,0.41636
4144.87367,0.41558
4142.94492,0.41510
4141.01617,0.41476
4139.08743,0.41401
4137.15868,0.41282
4135.22994,0.41153
4133.30119,0.41037
4131.37245,0.40955
4129.44370,0.40892
4127.51496,0.40815
4125.58621,0.40709
4123.65747,0.40561
4121.72872,0.40392
4119.79998,0.40264
4117.87123,0.40162
4115.94249,0.40025
4114.01374,0.39876
4112.08500,0.39738
4110.15625,0.39578
4108.22750,0.39412
4106.29876,0.39267
4104.37001,0.39112
4102.44127,0.38935
4100.51252,0.38763
4098.58378,0.38627
4096.65503,0.38523
4094.72629,0.38408
4092.79754,0.38251
4090.86880,0.38063
4088.94005,0.37861
4087.01131,0.37663
4085.08256,0.37464
4083.15382,0.37261
4081.22507,0.37074
4079.29632,0.36907
4077.36758,0.36737
4075.43883,0.36550
4073.51009,0.36370
4071.58134,0.36225
4069.65260,0.36078
4067.72385,0.35886
4065.79511,0.35695
4063.86636,0.35527
4061.93762,0.35349
4060.00887,0.35186
4058.08013,0.35048
4056.15138,0.34889
4054.22264,0.34702
4052.29389,0.34516
4050.36515,0.34347
4048.43640,0.34194
4046.50765,0.34050
4044.57891,0.33912
4042.65016,0.33773
4040.72142,0.33639
4038.79267,0.33514
4036.86393,0.33387
4034.93518,0.33258
4033.00644,0.33150
4031.07769,0.33076
4029.14895,0.33002
4027.22020,0.32906
4025.29146,0.32831
4023.36271,0.32793
4021.43397,0.32751
4019.50522,0.32704
4017.57648,0.32676
4015.64773,0.32666
4013.71898,0.32674
4011.79024,0.32693
4009.86149,0.32718
4007.93275,0.32777
4006.00400,0.32863
4004.07526,0.32931
4002.14651,0.32969
4000.21777,0.32992
3998.28902,0.33015
3996.36028,0.33053
3994.43153,0.33094
3992.50279,0.33145
3990.57404,0.33226
3988.64530,0.33309
3986.71655,0.33361
3984.78780,0.33402
3982.85906,0.33445
3980.93031,0.33480
3979.00157,0.33523
3977.07282,0.33589
3975.14408,0.33652
3973.21533,0.33701
3971.28659,0.33770
3969.35784,0.33862
3967.42910,0.33941
3965.50035,0.34014
3963.57161,0.34110
3961.64286,0.34219
3959.71412,0.34322
3957.78537,0.34416
3955.85663,0.34509
3953.92788,0.34620
3951.99913,0.34740
3950.07039,0.34850
3948.14164,0.34949
3946.21290,0.35040
3944.28415,0.35118
3942.35541,0.35178
3940.42666,0.35230
3938.49792,0.35295
3936.56917,0.35383
3934.64043,0.35499
3932.71168,0.35640
3930.78294,0.35779
3928.85419,0.35889
3926.92545,0.35990
3924.99670,0.36102
3923.06795,0.36195
3921.13921,0.36260
3919.21046,0.36344
3917.28172,0.36458
3915.35297,0.36562
3913.42423,0.36638
3911.49548,0.36707
3909.56674,0.36785
3907.63799,0.36864
3905.70925,0.36953
3903.78050,0.37068
3901.85176,0.37176
3899.92301,0.37237
3897.99427,0.37276
3896.06552,0.37346
3894.13678,0.37466
3892.20803,0.37592
3890.27928,0.37661
3888.35054,0.37687
3886.42179,0.37738
3884.49305,0.37837
3882.56430,0.37931
3880.63556,0.37986
3878.70681,0.38033
3876.77807,0.38095
3874.84932,0.38170
3872.92058,0.38259
3870.99183,0.38375
3869.06309,0.38511
3867.13434,0.38630
3865.20560,0.38737
3863.27685,0.38831
3861.34811,0.38893
3859.41936,0.38957
3857.49061,0.39074
3855.56187,0.39232
3853.63312,0.39354
3851.70438,0.39383
3849.77563,0.39401
3847.84689,0.39463
3845.91814,0.39552
3843.98940,0.39635
3842.06065,0.39726
3840.13191,0.39842
3838.20316,0.39938
3836.27442,0.39978
3834.34567,0.40003
3832.41693,0.40039
3830.48818,0.40067
3828.55943,0.40087
3826.63069,0.40110
3824.70194,0.40128
3822.77320,0.40154
3820.84445,0.40189
3818.91571,0.40188
3816.98696,0.40171
3815.05822,0.40171
3813.12947,0.40158
3811.20073,0.40121
3809.27198,0.40091
3807.34324,0.40081
3805.41449,0.40083
3803.48575,0.40114
3801.55700,0.40166
3799.62826,0.40166
3797.69951,0.40122
3795.77076,0.40086
3793.84202,0.40057
3791.91327,0.40028
3789.98453,0.39993
3788.05578,0.39961
3786.12704,0.39929
3784.19829,0.39883
3782.26955,0.39848
3780.34080,0.39824
3778.41206,0.39771
3776.48331,0.39694
3774.55457,0.39621
3772.62582,0.39565
3770.69708,0.39507
3768.76833,0.39428
3766.83959,0.39349
3764.91084,0.39290
3762.98209,0.39233
3761.05335,0.39170
3759.12460,0.39100
3757.19586,0.39019
3755.26711,0.38936
3753.33837,0.38877
3751.40962,0.38845
3749.48088,0.38793
3747.55213,0.38710
3745.62339,0.38603
3743.69464,0.38444
3741.76590,0.38275
3739.83715,0.38148
3737.90841,0.38035
3735.97966,0.37908
3734.05091,0.37774
3732.12217,0.37627
3730.19342,0.37457
3728.26468,0.37270
3726.33593,0.37067
3724.40719,0.36854
3722.47844,0.36649
3720.54970,0.36446
3718.62095,0.36219
3716.69221,0.35982
3714.76346,0.35758
3712.83472,0.35509
3710.90597,0.35192
3708.97723,0.34857
3707.04848,0.34543
3705.11974,0.34223
3703.19099,0.33865
3701.26224,0.33461
3699.33350,0.33032
3697.40475,0.32582
3695.47601,0.32108
3693.54726,0.31659
3691.61852,0.31221
3689.68977,0.30670
3687.76103,0.29989
3685.83228,0.29330
3683.90354,0.28732
3681.97479,0.28131
3680.04605,0.27506
3678.11730,0.26847
3676.18856,0.26104
3674.25981,0.25351
3672.33107,0.24699
3670.40232,0.24018
3668.47357,0.23253
3666.54483,0.22550
3664.61608,0.21913
3662.68734,0.21273
3660.75859,0.20628
3658.82985,0.20013
3656.90110,0.19410
3654.97236,0.18830
3653.04361,0.18351
3651.11487,0.17905
3649.18612,0.17362
3647.25738,0.16772
3645.32863,0.16256
3643.39989,0.15809
3641.47114,0.15403
3639.54239,0.15023
3637.61365,0.14652
3635.68490,0.14280
3633.75616,0.13936
3631.82741,0.13647
3629.89867,0.13354
3627.96992,0.12984
3626.04118,0.12600
3624.11243,0.12262
3622.18369,0.11979
3620.25494,0.11722
3618.32620,0.11451
3616.39745,0.11196
3614.46871,0.10969
3612.53996,0.10730
3610.61122,0.10470
3608.68247,0.10194
3606.75372,0.09919
3604.82498,0.09676
3602.89623,0.09468
3600.96749,0.09275
3599.03874,0.09097
3597.11000,0.08921
3595.18125,0.08721
3593.25251,0.08524
3591.32376,0.08379
3589.39502,0.08257
3587.46627,0.08094
3585.53753,0.07900
3583.60878,0.07720
3581.68004,0.07571
3579.75129,0.07445
3577.82254,0.07306
3575.89380,0.07144
3573.96505,0.07003
3572.03631,0.06892
3570.10756,0.06795
3568.17882,0.06709
3566.25007,0.06601
3564.32133,0.06459
3562.39258,0.06329
3560.46384,0.06233
3558.53509,0.06141
3556.60635,0.06044
3554.67760,0.05960
3552.74886,0.05888
3550.82011,0.05809
3548.89137,0.05728
3546.96262,0.05665
3545.03387,0.05601
3543.10513,0.05506
3541.17638,0.05413
3539.24764,0.05345
3537.31889,0.05283
3535.39015,0.05215
3533.46140,0.05145
3531.53266,0.05078
3529.60391,0.05018
3527.67517,0.04965
3525.74642,0.04907
3523.81768,0.04847
3521.88893,0.04805
3519.96019,0.04765
3518.03144,0.04702
3516.10270,0.04654
3514.17395,0.04632
3512.24520,0.04604
3510.31646,0.04563
3508.38771,0.04512
3506.45897,0.04448
3504.53022,0.04380
3502.60148,0.04325
3500.67273,0.04281
3498.74399,0.04252
3496.81524,0.04241
3494.88650,0.04222
3492.95775,0.04196
3491.02901,0.04176
3489.10026,0.04155
3487.17152,0.04136
3485.24277,0.04116
3483.31402,0.04070
3481.38528,0.04020
3479.45653,0.03993
3477.52779,0.03981
3475.59904,0.03990
3473.67030,0.03994
3471.74155,0.03956
3469.81281,0.03896
3467.88406,0.03851
3465.95532,0.03817
3464.02657,0.03790
3462.09783,0.03791
3460.16908,0.03820
3458.24034,0.03845
3456.31159,0.03857
3454.38285,0.03850
3452.45410,0.03810
3450.52535,0.03745
3448.59661,0.03691
3446.66786,0.03676
3444.73912,0.03686
3442.81037,0.03697
3440.88163,0.03700
3438.95288,0.03689
3437.02414,0.03672
3435.09539,0.03656
3433.16665,0.03629
3431.23790,0.03620
3429.30916,0.03658
3427.38041,0.03695
3425.45167,0.03694
3423.52292,0.03695
3421.59418,0.03708
3419.66543,0.03705
3417.73668,0.03694
3415.80794,0.03689
3413.87919,0.03682
3411.95045,0.03666
3410.02170,0.03659
3408.09296,0.03674
3406.16421,0.03689
3404.23547,0.03689
3402.30672,0.03677
3400.37798,0.03658
3398.44923,0.03651
3396.52049,0.03667
3394.59174,0.03689
3392.66300,0.03689
3390.73425,0.03687
3388.80550,0.03705
3386.87676,0.03713
3384.94801,0.03724
3383.01927,0.03760
3381.09052,0.03776
3379.16178,0.03753
3377.23303,0.03723
3375.30429,0.03704
3373.37554,0.03704
3371.44680,0.03737
3369.51805,0.03766
3367.58931,0.03730
3365.66056,0.03654
3363.73182,0.03608
3361.80307,0.03611
3359.87433,0.03651
3357.94558,0.03695
3356.01683,0.03725
3354.08809,0.03756
3352.15934,0.03774
3350.23060,0.03759
3348.30185,0.03742
3346.37311,0.03744
3344.44436,0.03749
3342.51562,0.03759
3340.58687,0.03785
3338.65813,0.03811
3336.72938,0.03838
3334.80064,0.03888
3332.87189,0.03961
3330.94315,0.04010
3329.01440,0.04007
3327.08566,0.03996
3325.15691,0.04024
3323.22816,0.04067
3321.29942,0.04091
3319.37067,0.04106
3317.44193,0.04129
3315.51318,0.04152
3313.58444,0.04172
3311.65569,0.04194
3309.72695,0.04206
3307.79820,0.04211
3305.86946,0.04234
3303.94071,0.04276
3302.01197,0.04297
3300.08322,0.04288
3298.15448,0.04275
3296.22573,0.04275
3294.29698,0.04299
3292.36824,0.04351
3290.43949,0.04399
3288.51075,0.04410
3286.58200,0.04393
3284.65326,0.04387
3282.72451,0.04410
3280.79577,0.04447
3278.86702,0.04501
3276.93828,0.04563
3275.00953,0.04593
3273.08079,0.04616
3271.15204,0.04678
3269.22330,0.04758
3267.29455,0.04814
3265.36581,0.04850
3263.43706,0.04881
3261.50831,0.04922
3259.57957,0.04989
3257.65082,0.05071
3255.72208,0.05137
3253.79333,0.05164
3251.86459,0.05170
3249.93584,0.05206
3248.00710,0.05281
3246.07835,0.05338
3244.14961,0.05366
3242.22086,0.05416
3240.29212,0.05501
3238.36337,0.05592
3236.43463,0.05669
3234.50588,0.05721
3232.57713,0.05757
3230.64839,0.05809
3228.71964,0.05880
3226.79090,0.05954
3224.86215,0.06028
3222.93341,0.06101
3221.00466,0.06155
3219.07592,0.06168
3217.14717,0.06167
3215.21843,0.06207
3213.28968,0.06288
3211.36094,0.06365
3209.43219,0.06417
3207.50345,0.06463
3205.57470,0.06524
3203.64596,0.06586
3201.71721,0.06639
3199.78846,0.06709
3197.85972,0.06808
3195.93097,0.06918
3194.00223,0.06997
3192.07348,0.07030
3190.14474,0.07052
3188.21599,0.07090
3186.28725,0.07151
3184.35850,0.07228
3182.42976,0.07311
3180.50101,0.07409
3178.57227,0.07511
3176.64352,0.07602
3174.71478,0.07691
3172.78603,0.07759
3170.85729,0.07798
3168.92854,0.07844
3166.99979,0.07912
3165.07105,0.07990
3163.14230,0.08089
3161.21356,0.08208
3159.28481,0.08302
3157.35607,0.08351
3155.42732,0.08399
3153.49858,0.08473
3151.56983,0.08549
3149.64109,0.08616
3147.71234,0.08692
3145.78360,0.08782
3143.85485,0.08860
3141.92611,0.08916
3139.99736,0.08980
3138.06861,0.09057
3136.13987,0.09141
3134.21112,0.09237
3132.28238,0.09334
3130.35363,0.09412
3128.42489,0.09465
3126.49614,0.09524
3124.56740,0.09608
3122.63865,0.09683
3120.70991,0.09737
3118.78116,0.09810
3116.85242,0.09910
3114.92367,0.09997
3112.99493,0.10069
3111.06618,0.10141
3109.13744,0.10204
3107.20869,0.10272
3105.27994,0.10357
3103.35120,0.10427
3101.42245,0.10472
3099.49371,0.10523
3097.56496,0.10592
3095.63622,0.10669
3093.70747,0.10746
3091.77873,0.10827
3089.84998,0.10902
3087.92124,0.10956
3085.99249,0.11000
3084.06375,0.11076
3082.13500,0.11162
3080.20626,0.11207
3078.27751,0.11252
3076.34877,0.11321
3074.42002,0.11382
3072.49127,0.11434
3070.56253,0.11498
3068.63378,0.11570
3066.70504,0.11645
3064.77629,0.11709
3062.84755,0.11770
3060.91880,0.11846
3058.99006,0.11924
3057.06131,0.11986
3055.13257,0.12045
3053.20382,0.12107
3051.27508,0.12155
3049.34633,0.12199
3047.41759,0.12260
3045.48884,0.12333
3043.56009,0.12388
3041.63135,0.12409
3039.70260,0.12395
3037.77386,0.12376
3035.84511,0.12385
3033.91637,0.12391
3031.98762,0.12366
3030.05888,0.12336
3028.13013,0.12309
3026.20139,0.12265
3024.27264,0.12197
3022.34390,0.12128
3020.41515,0.12070
3018.48641,0.12001
3016.55766,0.11917
3014.62892,0.11822
3012.70017,0.11709
3010.77142,0.11590
3008.84268,0.11481
3006.91393,0.11375
3004.98519,0.11257
3003.05644,0.11139
3001.12770,0.11041
2999.19895,0.10964
2997.27021,0.10893
2995.34146,0.10810
2993.41272,0.10706
2991.48397,0.10589
2989.55523,0.10461
2987.62648,0.10317
2985.69774,0.10150
2983.76899,0.09947
2981.84025,0.09708
2979.91150,0.09453
2977.98275,0.09194
2976.05401,0.08933
2974.12526,0.08667
2972.19652,0.08408
2970.26777,0.08179
2968.33903,0.07984
2966.41028,0.07818
2964.48154,0.07684
2962.55279,0.07586
2960.62405,0.07507
2958.69530,0.07408
2956.76656,0.07268
2954.83781,0.07117
2952.90907,0.06991
2950.98032,0.06885
2949.05157,0.06778
2947.12283,0.06659
2945.19408,0.06541
2943.26534,0.06444
2941.33659,0.06374
2939.40785,0.06315
2937.47910,0.06263
2935.55036,0.06230
2933.62161,0.06209
2931.69287,0.06187
2929.76412,0.06173
2927.83538,0.06176
2925.90663,0.06184
2923.97789,0.06188
2922.04914,0.06195
2920.12040,0.06203
2918.19165,0.06220
2916.26290,0.06253
2914.33416,0.06294
2912.40541,0.06329
2910.47667,0.06350
2908.54792,0.06369
2906.61918,0.06393
2904.69043,0.06424
2902.76169,0.06469
2900.83294,0.06521
2898.90420,0.06571
2896.97545,0.06628
2895.04671,0.06699
2893.11796,0.06768
2891.18922,0.06822
2889.26047,0.06869
2887.33172,0.06931
2885.40298,0.07006
2883.47423,0.07067
2881.54549,0.07102
2879.61674,0.07126
2877.68800,0.07155
2875.75925,0.07176
2873.83051,0.07179
2871.90176,0.07199
2869.97302,0.07263
2868.04427,0.07343
2866.11553,0.07401
2864.18678,0.07430
2862.25804,0.07443
2860.32929,0.07463
2858.40055,0.07506
2856.47180,0.07576
2854.54305,0.07675
2852.61431,0.07798
2850.68556,0.07942
2848.75682,0.08120
2846.82807,0.08334
2844.89933,0.08563
2842.97058,0.08788
2841.04184,0.09022
2839.11309,0.09282
2837.18435,0.09563
2835.25560,0.09853
2833.32686,0.10149
2831.39811,0.10456
2829.46937,0.10767
2827.54062,0.11053
2825.61188,0.11284
2823.68313,0.11492
2821.75438,0.11723
2819.82564,0.11963
2817.89689,0.12174
2815.96815,0.12371
2814.03940,0.12571
2812.11066,0.12755
2810.18191,0.12927
2808.25317,0.13109
2806.32442,0.13288
2804.39568,0.13427
2802.46693,0.13520
2800.53819,0.13612
2798.60944,0.13735
2796.68070,0.13866
2794.75195,0.13972
2792.82320,0.14063
2790.89446,0.14153
2788.96571,0.14225
2787.03697,0.14286
2785.10822,0.14368
2783.17948,0.14462
2781.25073,0.14536
2779.32199,0.14579
2777.39324,0.14622
2775.46450,0.14687
2773.53575,0.14748
2771.60701,0.14792
2769.67826,0.14833
2767.74952,0.14869
2765.82077,0.14901
2763.89203,0.14949
2761.96328,0.15006
2760.03453,0.15056
2758.10579,0.15099
2756.17704,0.15131
2754.24830,0.15146
2752.31955,0.15158
2750.39081,0.15174
2748.46206,0.15185
2746.53332,0.15187
2744.60457,0.15188
2742.67583,0.15208
2740.74708,0.15244
2738.81834,0.15269
2736.88959,0.15283
2734.96085,0.15304
2733.03210,0.15342
2731.10336,0.15397
2729.17461,0.15442
2727.24586,0.15465
2725.31712,0.15497
2723.38837,0.15550
2721.45963,0.15609
2719.53088,0.15666
2717.60214,0.15721
2715.67339,0.15789
2713.74465,0.15880
2711.81590,0.15981
2709.88716,0.16083
2707.95841,0.16182
2706.02967,0.16273
2704.10092,0.16367
2702.17218,0.16473
2700.24343,0.16569
2698.31468,0.16638
2696.38594,0.16698
2694.45719,0.16778
2692.52845,0.16875
2690.59970,0.16967
2688.67096,0.17050
2686.74221,0.17131
2684.81347,0.17225
2682.88472,0.17318
2680.95598,0.17383
2679.02723,0.17437
2677.09849,0.17509
2675.16974,0.17586
2673.24100,0.17648
2671.31225,0.17707
2669.38351,0.17776
2667.45476,0.17840
2665.52601,0.17884
2663.59727,0.17916
2661.66852,0.17953
2659.73978,0.17990
2657.81103,0.18025
2655.88229,0.18074
2653.95354,0.18137
2652.02480,0.18201
2650.09605,0.18265
2648.16731,0.18327
2646.23856,0.18378
2644.30982,0.18418
2642.38107,0.18457
2640.45233,0.18515
2638.52358,0.18598
2636.59484,0.18686
2634.66609,0.18757
2632.73734,0.18818
2630.80860,0.18901
2628.87985,0.19002
2626.95111,0.19087
2625.02236,0.19156
2623.09362,0.19227
2621.16487,0.19306
2619.23613,0.19389
2617.30738,0.19460
2615.37864,0.19502
2613.44989,0.19533
2611.52115,0.19577
2609.59240,0.19632
2607.66366,0.19701
2605.73491,0.19774
2603.80616,0.19837
2601.87742,0.19884
2599.94867,0.19924
2598.01993,0.19981
2596.09118,0.20057
2594.16244,0.20135
2592.23369,0.20188
2590.30495,0.20220
2588.37620,0.20261
2586.44746,0.20307
2584.51871,0.20345
2582.58997,0.20389
2580.66122,0.20432
2578.73248,0.20455
2576.80373,0.20460
2574.87499,0.20462
2572.94624,0.20468
2571.01749,0.20491
2569.08875,0.20525
2567.16000,0.20553
2565.23126,0.20581
2563.30251,0.20605
2561.37377,0.20616
2559.44502,0.20627
2557.51628,0.20645
2555.58753,0.20665
2553.65879,0.20679
2551.73004,0.20683
2549.80130,0.20687
2547.87255,0.20712
2545.94381,0.20751
2544.01506,0.20780
2542.08631,0.20805
2540.15757,0.20844
2538.22882,0.20883
2536.30008,0.20901
2534.37133,0.20922
2532.44259,0.20973
2530.51384,0.21035
2528.58510,0.21092
2526.65635,0.21144
2524.72761,0.21189
2522.79886,0.21227
2520.87012,0.21255
2518.94137,0.21286
2517.01263,0.21342
2515.08388,0.21410
2513.15514,0.21470
2511.22639,0.21524
2509.29764,0.21571
2507.36890,0.21627
2505.44015,0.21713
2503.51141,0.21817
2501.58266,0.21923
2499.65392,0.22033
2497.72517,0.22145
2495.79643,0.22240
2493.86768,0.22317
2491.93894,0.22394
2490.01019,0.22466
2488.08145,0.22537
2486.15270,0.22621
2484.22396,0.22703
2482.29521,0.22764
2480.36647,0.22825
2478.43772,0.22900
2476.50897,0.22977
2474.58023,0.23059
2472.65148,0.23132
2470.72274,0.23178
2468.79399,0.23212
2466.86525,0.23261
2464.93650,0.23340
2463.00776,0.23435
2461.07901,0.23516
2459.15027,0.23572
2457.22152,0.23619
2455.29278,0.23680
2453.36403,0.23759
2451.43529,0.23836
2449.50654,0.23903
2447.57779,0.23974
2445.64905,0.24057
2443.72030,0.24161
2441.79156,0.24280
2439.86281,0.24378
2437.93407,0.24445
2436.00532,0.24507
2434.07658,0.24592
2432.14783,0.24704
2430.21909,0.24819
2428.29034,0.24912
2426.36160,0.24991
2424.43285,0.25080
2422.50411,0.25175
2420.57536,0.25266
2418.64662,0.25367
2416.71787,0.25471
2414.78912,0.25576
2412.86038,0.25686
2410.93163,0.25790
2409.00289,0.25894
2407.07414,0.26012
2405.14540,0.26131
2403.21665,0.26239
2401.28791,0.26328
2399.35916,0.26407
2397.43042,0.26495
2395.50167,0.26586
2393.57293,0.26659
2391.64418,0.26734
2389.71544,0.26821
2387.78669,0.26898
2385.85795,0.26968
2383.92920,0.27031
2382.00045,0.27079
2380.07171,0.27135
2378.14296,0.27207
2376.21422,0.27272
2374.28547,0.27335
2372.35673,0.27413
2370.42798,0.27495
2368.49924,0.27567
2366.57049,0.27639
2364.64175,0.27711
2362.71300,0.27780
2360.78426,0.27847
2358.85551,0.27907
2356.92677,0.27958
2354.99802,0.28015
2353.06927,0.28089
2351.14053,0.28161
2349.21178,0.28212
2347.28304,0.28263
2345.35429,0.28328
2343.42555,0.28393
2341.49680,0.28445
2339.56806,0.28494
2337.63931,0.28560
2335.71057,0.28636
2333.78182,0.28691
2331.85308,0.28714
2329.92433,0.28730
2327.99559,0.28753
2326.06684,0.28776
2324.13810,0.28800
2322.20935,0.28819
2320.28060,0.28826
2318.35186,0.28835
2316.42311,0.28852
2314.49437,0.28861
2312.56562,0.28857
2310.63688,0.28851
2308.70813,0.28846
2306.77939,0.28829
2304.85064,0.28805
2302.92190,0.28791
2300.99315,0.28771
2299.06441,0.28722
2297.13566,0.28669
2295.20692,0.28650
2293.27817,0.28648
2291.34943,0.28644
2289.42068,0.28645
2287.49193,0.28629
2285.56319,0.28589
2283.63444,0.28556
2281.70570,0.28532
2279.77695,0.28498
2277.84821,0.28466
2275.91946,0.28441
2273.99072,0.28399
2272.06197,0.28335
2270.13323,0.28267
2268.20448,0.28200
2266.27574,0.28128
2264.34699,0.28045
2262.41825,0.27960
2260.48950,0.27886
2258.56075,0.27807
2256.63201,0.27719
2254.70326,0.27636
2252.77452,0.27565
2250.84577,0.27519
2248.91703,0.27485
2246.98828,0.27435
2245.05954,0.27380
2243.13079,0.27348
2241.20205,0.27325
2239.27330,0.27296
2237.34456,0.27286
2235.41581,0.27308
2233.48707,0.27333
2231.55832,0.27344
2229.62958,0.27347
2227.70083,0.27350
2225.77208,0.27355
2223.84334,0.27366
2221.91459,0.27374
2219.98585,0.27374
2218.05710,0.27380
2216.12836,0.27393
2214.19961,0.27401
2212.27087,0.27389
2210.34212,0.27353
2208.41338,0.27311
2206.48463,0.27274
2204.55589,0.27234
2202.62714,0.27180
2200.69840,0.27111
2198.76965,0.27035
2196.84090,0.26949
2194.91216,0.26845
2192.98341,0.26732
2191.05467,0.26627
2189.12592,0.26521
2187.19718,0.26387
2185.26843,0.26230
2183.33969,0.26067
2181.41094,0.25902
2179.48220,0.25736
2177.55345,0.25582
2175.62471,0.25452
2173.69596,0.25329
2171.76722,0.25177
2169.83847,0.25009
2167.90973,0.24854
2165.98098,0.24714
2164.05223,0.24587
2162.12349,0.24481
2160.19474,0.24385
2158.26600,0.24280
2156.33725,0.24178
2154.40851,0.24099
2152.47976,0.24045
2150.55102,0.23996
2148.62227,0.23940
2146.69353,0.23888
2144.76478,0.23845
2142.83604,0.23803
2140.90729,0.23756
2138.97855,0.23718
2137.04980,0.23708
2135.12106,0.23721
2133.19231,0.23733
2131.26356,0.23737
2129.33482,0.23739
2127.40607,0.23745
2125.47733,0.23765
2123.54858,0.23803
2121.61984,0.23853
2119.69109,0.23909
2117.76235,0.23958
2115.83360,0.23985
2113.90486,0.24008
2111.97611,0.24053
2110.04737,0.24117
2108.11862,0.24183
2106.18988,0.24252
2104.26113,0.24320
2102.33238,0.24389
2100.40364,0.24450
2098.47489,0.24493
2096.54615,0.24536
2094.61740,0.24586
2092.68866,0.24635
2090.75991,0.24689
2088.83117,0.24738
2086.90242,0.24763
2084.97368,0.24777
2083.04493,0.24793
2081.11619,0.24796
2079.18744,0.24780
2077.25870,0.24757
2075.32995,0.24745
2073.40121,0.24744
2071.47246,0.24737
2069.54371,0.24720
2067.61497,0.24708
2065.68622,0.24722
2063.75748,0.24751
2061.82873,0.24765
2059.89999,0.24756
2057.97124,0.24748
2056.04250,0.24759
2054.11375,0.24781
2052.18501,0.24798
2050.25626,0.24814
2048.32752,0.24843
2046.39877,0.24885
2044.47003,0.24931
2042.54128,0.24977
2040.61254,0.25020
2038.68379,0.25070
2036.75504,0.25141
2034.82630,0.25229
2032.89755,0.25321
2030.96881,0.25413
2029.04006,0.25512
2027.11132,0.25626
2025.18257,0.25745
2023.25383,0.25858
2021.32508,0.25980
2019.39634,0.26113
2017.46759,0.26235
2015.53885,0.26345
2013.61010,0.26451
2011.68136,0.26563
2009.75261,0.26678
2007.82386,0.26788
2005.89512,0.26886
2003.96637,0.26972
2002.03763,0.27055
2000.10888,0.27140
1998.18014,0.27213
1996.25139,0.27279
1994.32265,0.27351
1992.39390,0.27416
1990.46516,0.27461
1988.53641,0.27504
1986.60767,0.27556
1984.67892,0.27596
1982.75018,0.27616
1980.82143,0.27627
1978.89269,0.27636
1976.96394,0.27633
1975.03519,0.27622
1973.10645,0.27620
1971.17770,0.27623
1969.24896,0.27615
1967.32021,0.27590
1965.39147,0.27549
1963.46272,0.27503
1961.53398,0.27484
1959.60523,0.27494
1957.67649,0.27505
1955.74774,0.27515
1953.81900,0.27540
1951.89025,0.27585
1949.96151,0.27646
1948.03276,0.27724
1946.10402,0.27815
1944.17527,0.27918
1942.24652,0.28035
1940.31778,0.28144
1938.38903,0.28231
1936.46029,0.28326
1934.53154,0.28441
1932.60280,0.28551
1930.67405,0.28653
1928.74531,0.28759
1926.81656,0.28854
1924.88782,0.28938
1922.95907,0.29024
1921.03033,0.29111
1919.10158,0.29188
1917.17284,0.29243
1915.24409,0.29278
1913.31534,0.29312
1911.38660,0.29349
1909.45785,0.29382
1907.52911,0.29403
1905.60036,0.29410
1903.67162,0.29406
1901.74287,0.29399
1899.81413,0.29395
1897.88538,0.29401
1895.95664,0.29419
1894.02789,0.29430
1892.09915,0.29419
1890.17040,0.29388
1888.24166,0.29345
1886.31291,0.29309
1884.38417,0.29287
1882.45542,0.29257
1880.52667,0.29205
1878.59793,0.29137
1876.66918,0.29066
1874.74044,0.29009
1872.81169,0.28967
1870.88295,0.28924
1868.95420,0.28858
1867.02546,0.28761
1865.09671,0.28656
1863.16797,0.28560
1861.23922,0.28464
1859.31048,0.28358
1857.38173,0.28250
1855.45299,0.28142
1853.52424,0.28019
1851.59549,0.27877
1849.66675,0.27734
1847.73800,0.27604
1845.80926,0.27477
1843.88051,0.27328
1841.95177,0.27156
1840.02302,0.26982
1838.09428,0.26814
1836.16553,0.26647
1834.23679,0.26474
1832.30804,0.26280
1830.37930,0.26054
1828.45055,0.25817
1826.52181,0.25591
1824.59306,0.25349
1822.66432,0.25084
1820.73557,0.24812
1818.80682,0.24533
1816.87808,0.24252
1814.94933,0.23968
1813.02059,0.23660
1811.09184,0.23312
1809.16310,0.22937
1807.23435,0.22553
1805.30561,0.22157
1803.37686,0.21746
1801.44812,0.21316
1799.51937,0.20860
1797.59063,0.20392
1795.66188,0.19941
1793.73314,0.19484
1791.80439,0.18966
1789.87565,0.18423
1787.94690,0.17902
1786.01815,0.17361
1784.08941,0.16774
1782.16066,0.16145
1780.23192,0.15448
1778.30317,0.14680
1776.37443,0.13896
1774.44568,0.13075
1772.51694,0.12129
1770.58819,0.11131
1768.65945,0.10199
1766.73070,0.09321
1764.80196,0.08536
1762.87321,0.07837
1760.94447,0.07207
1759.01572,0.06684
1757.08697,0.06236
1755.15823,0.05857
1753.22948,0.05551
1751.30074,0.05280
1749.37199,0.05050
1747.44325,0.04886
1745.51450,0.04777
1743.58576,0.04709
1741.65701,0.04677
1739.72827,0.04684
1737.79952,0.04737
1735.87078,0.04836
1733.94203,0.04977
1732.01329,0.05115
1730.08454,0.05235
1728.15580,0.05378
1726.22705,0.05541
1724.29830,0.05702
1722.36956,0.05864
1720.44081,0.06049
1718.51207,0.06278
1716.58332,0.06531
1714.65458,0.06770
1712.72583,0.07016
1710.79709,0.07296
1708.86834,0.07591
1706.93960,0.07896
1705.01085,0.08210
1703.08211,0.08511
1701.15336,0.08806
1699.22462,0.09076
1697.29587,0.09284
1695.36713,0.09469
1693.43838,0.09611
1691.50963,0.09688
1689.58089,0.09721
1687.65214,0.09725
1685.72340,0.09678
1683.79465,0.09533
1681.86591,0.09343
1679.93716,0.09170
1678.00842,0.08997
1676.07967,0.08794
1674.15093,0.08568
1672.22218,0.08382
1670.29344,0.08239
1668.36469,0.08087
1666.43595,0.07940
1664.50720,0.07836
1662.57845,0.07760
1660.64971,0.07693
1658.72096,0.07643
1656.79222,0.07636
1654.86347,0.07665
1652.93473,0.07673
1651.00598,0.07643
1649.07724,0.07639
1647.14849,0.07650
1645.21975,0.07640
1643.29100,0.07629
1641.36226,0.07636
1639.43351,0.07645
1637.50477,0.07638
1635.57602,0.07624
1633.64728,0.07618
1631.71853,0.07618
1629.78978,0.07618
1627.86104,0.07620
1625.93229,0.07622
1624.00355,0.07602
1622.07480,0.07559
1620.14606,0.07522
1618.21731,0.07506
1616.28857,0.07483
1614.35982,0.07431
1612.43108,0.07357
1610.50233,0.07240
1608.57359,0.07077
1606.64484,0.06906
1604.71610,0.06745
1602.78735,0.06587
1600.85861,0.06438
1598.92986,0.06312
1597.00111,0.06213
1595.07237,0.06166
1593.14362,0.06211
1591.21488,0.06365
1589.28613,0.06622
1587.35739,0.06978
1585.42864,0.07419
1583.49990,0.07907
1581.57115,0.08416
1579.64241,0.08924
1577.71366,0.09435
1575.78492,0.09965
1573.85617,0.10427
1571.92743,0.10806
1569.99868,0.11161
1568.06993,0.11458
1566.14119,0.11671
1564.21244,0.11834
1562.28370,0.11966
1560.35495,0.12078
1558.42621,0.12153
1556.49746,0.12170
1554.56872,0.12172
1552.63997,0.12168
1550.71123,0.12140
1548.78248,0.12097
1546.85374,0.12061
1544.92499,0.12030
1542.99625,0.11997
1541.06750,0.11937
1539.13876,0.11783
1537.21001,0.11588
1535.28126,0.11396
1533.35252,0.11143
1531.42377,0.10841
1529.49503,0.10531
1527.56628,0.10168
1525.63754,0.09732
1523.70879,0.09231
1521.78005,0.08604
1519.85130,0.07915
1517.92256,0.07332
1515.99381,0.06870
1514.06507,0.06525
1512.13632,0.06279
1510.20758,0.06094
1508.27883,0.05946
1506.35008,0.05830
1504.42134,0.05822
1502.49259,0.05927
1500.56385,0.06105
1498.63510,0.06342
1496.70636,0.06615
1494.77761,0.06873
1492.84887,0.07095
1490.92012,0.07293
1488.99138,0.07441
1487.06263,0.07488
1485.13389,0.07421
1483.20514,0.07262
1481.27640,0.07032
1479.34765,0.06742
1477.41891,0.06393
1475.49016,0.05984
1473.56141,0.05537
1471.63267,0.05123
1469.70392,0.04829
1467.77518,0.04644
1465.84643,0.04529
1463.91769,0.04478
1461.98894,0.04486
1460.06020,0.04530
1458.13145,0.04582
1456.20271,0.04611
1454.27396,0.04628
1452.34522,0.04666
1450.41647,0.04734
1448.48773,0.04811
1446.55898,0.04862
1444.63024,0.04878
1442.70149,0.04861
1440.77274,0.04810
1438.84400,0.04730
1436.91525,0.04624
1434.98651,0.04517
1433.05776,0.04440
1431.12902,0.04387
1429.20027,0.04350
1427.27153,0.04340
1425.34278,0.04361
1423.41404,0.04413
1421.48529,0.04495
1419.55655,0.04608
1417.62780,0.04724
1415.69906,0.04828
1413.77031,0.04929
1411.84156,0.05020
1409.91282,0.05091
1407.98407,0.05145
1406.05533,0.05167
1404.12658,0.05142
1402.19784,0.05100
1400.26909,0.05065
1398.34035,0.05010
1396.41160,0.04923
1394.48286,0.04828
1392.55411,0.04735
1390.62537,0.04638
1388.69662,0.04524
1386.76788,0.04393
1384.83913,0.04264
1382.91039,0.04154
1380.98164,0.04072
1379.05289,0.04025
1377.12415,0.04001
1375.19540,0.03979
1373.26666,0.03972
1371.33791,0.04005
1369.40917,0.04073
1367.48042,0.04159
1365.55168,0.04248
1363.62293,0.04338
1361.69419,0.04426
1359.76544,0.04482
1357.83670,0.04508
1355.90795,0.04541
1353.97921,0.04594
1352.05046,0.04631
1350.12172,0.04630
1348.19297,0.04597
1346.26422,0.04552
1344.33548,0.04508
1342.40673,0.04461
1340.47799,0.04400
1338.54924,0.04335
1336.62050,0.04285
1334.69175,0.04259
1332.76301,0.04255
1330.83426,0.04264
1328.90552,0.04278
1326.97677,0.04292
1325.04803,0.04304
1323.11928,0.04313
1321.19054,0.04327
1319.26179,0.04348
1317.33304,0.04386
1315.40430,0.04459
1313.47555,0.04552
1311.54681,0.04633
1309.61806,0.04686
1307.68932,0.04721
1305.76057,0.04756
1303.83183,0.04798
1301.90308,0.04823
1299.97434,0.04818
1298.04559,0.04798
1296.11685,0.04772
1294.18810,0.04721
1292.25936,0.04632
1290.33061,0.04521
1288.40187,0.04409
1286.47312,0.04297
1284.54437,0.04197
1282.61563,0.04127
1280.68688,0.04085
1278.75814,0.04043
1276.82939,0.03983
1274.90065,0.03917
1272.97190,0.03872
1271.04316,0.03848
1269.11441,0.03821
1267.18567,0.03784
1265.25692,0.03746
1263.32818,0.03710
1261.39943,0.03680
1259.47069,0.03653
1257.54194,0.03622
1255.61320,0.03602
1253.68445,0.03600
1251.75570,0.03604
1249.82696,0.03603
1247.89821,0.03598
1245.96947,0.03601
1244.04072,0.03619
1242.11198,0.03653
1240.18323,0.03695
1238.25449,0.03733
1236.32574,0.03775
1234.39700,0.03810
1232.46825,0.03825
1230.53951,0.03855
1228.61076,0.03916
1226.68202,0.03989
1224.75327,0.04062
1222.82452,0.04135
1220.89578,0.04210
1218.96703,0.04285
1217.03829,0.04351
1215.10954,0.04406
1213.18080,0.04449
1211.25205,0.04474
1209.32331,0.04482
1207.39456,0.04497
1205.46582,0.04532
1203.53707,0.04562
1201.60833,0.04581
1199.67958,0.04608
1197.75084,0.04626
1195.82209,0.04610
1193.89335,0.04566
1191.96460,0.04499
1190.03585,0.04406
1188.10711,0.04297
1186.17836,0.04183
1184.24962,0.04064
1182.32087,0.03948
1180.39213,0.03850
1178.46338,0.03747
1176.53464,0.03608
1174.60589,0.03489
1172.67715,0.03448
1170.74840,0.03449
1168.81966,0.03452
1166.89091,0.03459
1164.96217,0.03480
1163.03342,0.03525
1161.10467,0.03583
1159.17593,0.03623
1157.24718,0.03650
1155.31844,0.03680
1153.38969,0.03682
1151.46095,0.03645
1149.53220,0.03614
1147.60346,0.03592
1145.67471,0.03540
1143.74597,0.03468
1141.81722,0.03389
1139.88848,0.03298
1137.95973,0.03212
1136.03099,0.03156
1134.10224,0.03124
1132.17350,0.03105
1130.24475,0.03098
1128.31600,0.03099
1126.38726,0.03115
1124.45851,0.03158
1122.52977,0.03201
1120.60102,0.03223
1118.67228,0.03236
1116.74353,0.03265
1114.81479,0.03322
1112.88604,0.03376
1110.95730,0.03411
1109.02855,0.03456
1107.09981,0.03521
1105.17106,0.03580
1103.24232,0.03611
1101.31357,0.03605
1099.38483,0.03574
1097.45608,0.03543
1095.52733,0.03522
1093.59859,0.03490
1091.66984,0.03446
1089.74110,0.03424
1087.81235,0.03434
1085.88361,0.03464
1083.95486,0.03500
1082.02612,0.03525
1080.09737,0.03549
1078.16863,0.03595
1076.23988,0.03662
1074.31114,0.03740
1072.38239,0.03824
1070.45365,0.03921
1068.52490,0.04034
1066.59615,0.04151
1064.66741,0.04277
1062.73866,0.04438
1060.80992,0.04622
1058.88117,0.04769
1056.95243,0.04850
1055.02368,0.04884
1053.09494,0.04894
1051.16619,0.04905
1049.23745,0.04907
1047.30870,0.04889
1045.37996,0.04887
1043.45121,0.04931
1041.52247,0.05012
1039.59372,0.05114
1037.66498,0.05206
1035.73623,0.05275
1033.80748,0.05348
1031.87874,0.05412
1029.94999,0.05444
1028.02125,0.05478
1026.09250,0.05537
1024.16376,0.05599
1022.23501,0.05657
1020.30627,0.05727
1018.37752,0.05804
1016.44878,0.05868
1014.52003,0.05930
1012.59129,0.05997
1010.66254,0.06052
1008.73380,0.06074
1006.80505,0.06083
1004.87631,0.06113
1002.94756,0.06144
1001.01881,0.06157
999.09007,0.06209
997.16132,0.06310
995.23258,0.06401
993.30383,0.06471
991.37509,0.06568
989.44634,0.06711
987.51760,0.06893
985.58885,0.07107
983.66011,0.07351
981.73136,0.07603
979.80262,0.07835
977.87387,0.08048
975.94513,0.08246
974.01638,0.08406
972.08763,0.08529
970.15889,0.08650
968.23014,0.08791
966.30140,0.08964
964.37265,0.09170
962.44391,0.09390
960.51516,0.09625
958.58642,0.09901
956.65767,0.10208
954.72893,0.10510
952.80018,0.10778
950.87144,0.10991
948.94269,0.11146
947.01395,0.11252
945.08520,0.11330
943.15646,0.11392
941.22771,0.11429
939.29896,0.11443
937.37022,0.11451
935.44147,0.11430
933.51273,0.11373
931.58398,0.11317
929.65524,0.11284
927.72649,0.11259
925.79775,0.11228
923.86900,0.11186
921.94026,0.11130
920.01151,0.11058
918.08277,0.10974
916.15402,0.10886
914.22528,0.10779
912.29653,0.10639
910.36779,0.10474
908.43904,0.10282
906.51029,0.10047
904.58155,0.09787
902.65280,0.09549
900.72406,0.09393
898.79531,0.09365
896.86657,0.09457
894.93782,0.09637
893.00908,0.09893
891.08033,0.10185
889.15159,0.10470
887.22284,0.10725
885.29410,0.10929
883.36535,0.11092
881.43661,0.11221
879.50786,0.11303
877.57911,0.11359
875.65037,0.11424
873.72162,0.11503
871.79288,0.11583
869.86413,0.11668
867.93539,0.11761
866.00664,0.11858
864.07790,0.11942
862.14915,0.12001
860.22041,0.12039
858.29166,0.12034
856.36292,0.11974
854.43417,0.11897
852.50543,0.11821
850.57668,0.11747
848.64794,0.11666
846.71919,0.11553
844.79044,0.11428
842.86170,0.11321
840.93295,0.11226
839.00421,0.11148
837.07546,0.11096
835.14672,0.11056
833.21797,0.11029
831.28923,0.11024
829.36048,0.11039
827.43174,0.11062
825.50299,0.11097
823.57425,0.11142
821.64550,0.11174
819.71676,0.11187
817.78801,0.11193
815.85926,0.11185
813.93052,0.11161
812.00177,0.11163
810.07303,0.11201
808.14428,0.11221
806.21554,0.11210
804.28679,0.11204
802.35805,0.11209
800.42930,0.11208
798.50056,0.11192
796.57181,0.11183
794.64307,0.11194
792.71432,0.11183
790.78558,0.11125
788.85683,0.11028
786.92809,0.10890
784.99934,0.10750
783.07059,0.10642
781.14185,0.10551
779.21310,0.10469
777.28436,0.10402
775.35561,0.10337
773.42687,0.10259
771.49812,0.10165
769.56938,0.10045
767.64063,0.09890
765.71189,0.09721
763.78314,0.09570
761.85440,0.09435
759.92565,0.09315
757.99691,0.09205
756.06816,0.09078
754.13942,0.08932
752.21067,0.08798
750.28192,0.08696
748.35318,0.08618
746.42443,0.08545
744.49569,0.08470
742.56694,0.08378
740.63820,0.08260
738.70945,0.08149
736.78071,0.08071
734.85196,0.08030
732.92322,0.07999
730.99447,0.07923
729.06573,0.07784
727.13698,0.07637
725.20824,0.07523
723.27949,0.07418
721.35074,0.07338
719.42200,0.07317
717.49325,0.07312
715.56451,0.07280
713.63576,0.07236
711.70702,0.07177
709.77827,0.07094
707.84953,0.07019
705.92078,0.06976
703.99204,0.06953
702.06329,0.06942
700.13455,0.06967
698.20580,0.07010
696.27706,0.07017
694.34831,0.06988
692.41957,0.06935
690.49082,0.06860
688.56207,0.06792
686.63333,0.06730
684.70458,0.06656
682.77584,0.06580
680.84709,0.06506
678.91835,0.06414
676.98960,0.06320
675.06086,0.06235
673.13211,0.06170
671.20337,0.06144
669.27462,0.06124
667.34588,0.06103
665.41713,0.06127
663.48839,0.06184
661.55964,0.06230
659.63090,0.06244
657.70215,0.06234
655.77340,0.06229
653.84466,0.06226
651.91591,0.06225
649.98717,0.06213
648.05842,0.06147
646.12968,0.06039
644.20093,0.05958
642.27219,0.05947
640.34344,0.05959
638.41470,0.05916
636.48595,0.05835
634.55721,0.05784
632.62846,0.05789
630.69972,0.05819
628.77097,0.05804
626.84222,0.05717
624.91348,0.05635
622.98473,0.05611
621.05599,0.05568
619.12724,0.05464
617.19850,0.05398
615.26975,0.05443
613.34101,0.05507
611.41226,0.05513
609.48352,0.05569
607.55477,0.05704
605.62603,0.05738
603.69728,0.05682
601.76854,0.05747
599.83979,0.05866
