7497.03301,0.79922
7495.10426,0.79815
7493.17552,0.79580
7491.24677,0.79933
7489.31803,0.80429
7487.38928,0.80254
7485.46054,0.79837
7483.53179,0.79577
7481.60305,0.79031
7479.67430,0.78468
7477.74556,0.78264
7475.81681,0.77808
7473.88807,0.77103
7471.95932,0.77042
7470.03057,0.77688
7468.10183,0.78301
7466.17308,0.78502
7464.24434,0.78355
7462.31559,0.78058
7460.38685,0.77860
7458.45810,0.77625
7456.52936,0.77398
7454.60061,0.77613
7452.67187,0.77808
7450.74312,0.77448
7448.81438,0.77152
7446.88563,0.77317
7444.95689,0.77714
7443.02814,0.78140
7441.09940,0.78244
7439.17065,0.77777
7437.24190,0.77145
7435.31316,0.76910
7433.38441,0.76919
7431.45567,0.76856
7429.52692,0.77124
7427.59818,0.77846
7425.66943,0.78235
7423.74069,0.77996
7421.81194,0.77783
7419.88320,0.77564
7417.95445,0.76754
7416.02571,0.75917
7414.09696,0.75839
7412.16822,0.76133
7410.23947,0.76169
7408.31073,0.76029
7406.38198,0.76134
7404.45323,0.76360
7402.52449,0.76251
7400.59574,0.75842
7398.66700,0.75371
7396.73825,0.75113
7394.80951,0.75447
7392.88076,0.75978
7390.95202,0.75830
7389.02327,0.75155
7387.09453,0.74665
7385.16578,0.74543
7383.23704,0.74723
7381.30829,0.75004
7379.37955,0.75177
7377.45080,0.75261
7375.52205,0.75235
7373.59331,0.75034
7371.66456,0.74766
7369.73582,0.74564
7367.80707,0.74507
7365.87833,0.74627
7363.94958,0.74669
7362.02084,0.74373
7360.09209,0.73959
7358.16335,0.73822
7356.23460,0.74157
7354.30586,0.74840
7352.37711,0.75386
7350.44837,0.75362
7348.51962,0.74938
7346.59088,0.74629
7344.66213,0.74534
7342.73338,0.74465
7340.80464,0.74368
7338.87589,0.74429
7336.94715,0.74689
7335.01840,0.74717
7333.08966,0.74421
7331.16091,0.74131
7329.23217,0.73896
7327.30342,0.73693
7325.37468,0.73599
7323.44593,0.73584
7321.51719,0.73539
7319.58844,0.73413
7317.65970,0.73364
7315.73095,0.73464
7313.80221,0.73350
7311.87346,0.73046
7309.94471,0.73169
7308.01597,0.73564
7306.08722,0.73568
7304.15848,0.73306
7302.22973,0.73376
7300.30099,0.73853
7298.37224,0.74032
7296.44350,0.73612
7294.51475,0.73415
7292.58601,0.73669
7290.65726,0.73555
7288.72852,0.73088
7286.79977,0.72928
7284.87103,0.73035
7282.94228,0.72995
7281.01353,0.72785
7279.08479,0.72811
7277.15604,0.73228
7275.22730,0.73624
7273.29855,0.73612
7271.36981,0.73416
7269.44106,0.73544
7267.51232,0.73851
7265.58357,0.73924
7263.65483,0.73919
7261.72608,0.73941
7259.79734,0.73781
7257.86859,0.73508
7255.93985,0.73321
7254.01110,0.73224
7252.08236,0.73112
7250.15361,0.72791
7248.22486,0.72401
7246.29612,0.72353
7244.36737,0.72584
7242.43863,0.72792
7240.50988,0.72841
7238.58114,0.72763
7236.65239,0.72675
7234.72365,0.72474
7232.79490,0.72249
7230.86616,0.72269
7228.93741,0.72366
7227.00867,0.72535
7225.07992,0.72872
7223.15118,0.73053
7221.22243,0.72874
7219.29369,0.72482
7217.36494,0.72257
7215.43619,0.72223
7213.50745,0.72148
7211.57870,0.72390
7209.64996,0.72858
7207.72121,0.72884
7205.79247,0.72591
7203.86372,0.72380
7201.93498,0.72343
7200.00623,0.72269
7198.07749,0.71847
7196.14874,0.71386
7194.22000,0.71352
7192.29125,0.71589
7190.36251,0.71704
7188.43376,0.71557
7186.50501,0.71274
7184.57627,0.70928
7182.64752,0.70493
7180.71878,0.70352
7178.79003,0.70905
7176.86129,0.71609
7174.93254,0.71753
7173.00380,0.71392
7171.07505,0.70899
7169.14631,0.70660
7167.21756,0.70804
7165.28882,0.70992
7163.36007,0.70942
7161.43133,0.70619
7159.50258,0.70174
7157.57384,0.70055
7155.64509,0.70348
7153.71634,0.70507
7151.78760,0.70248
7149.85885,0.69858
7147.93011,0.69616
7146.00136,0.69480
7144.07262,0.69383
7142.14387,0.69337
7140.21513,0.69192
7138.28638,0.69106
7136.35764,0.69333
7134.42889,0.69401
7132.50015,0.69141
7130.57140,0.69106
7128.64266,0.69221
7126.71391,0.69010
7124.78516,0.68674
7122.85642,0.68602
7120.92767,0.68702
7118.99893,0.68739
7117.07018,0.68610
7115.14144,0.68394
7113.21269,0.68319
7111.28395,0.68423
7109.35520,0.68520
7107.42646,0.68404
7105.49771,0.68082
7103.56897,0.67655
7101.64022,0.67183
7099.71148,0.66938
7097.78273,0.66964
7095.85399,0.66969
7093.92524,0.67018
7091.99649,0.67086
7090.06775,0.66665
7088.13900,0.65695
7086.21026,0.64878
7084.28151,0.64605
7082.35277,0.64475
7080.42402,0.64308
7078.49528,0.64402
7076.56653,0.64717
7074.63779,0.64830
7072.70904,0.64593
7070.78030,0.64290
7068.85155,0.64106
7066.92281,0.63871
7064.99406,0.63527
7063.06532,0.63324
7061.13657,0.63352
7059.20782,0.63361
7057.27908,0.63166
7055.35033,0.62852
7053.42159,0.62551
7051.49284,0.62295
7049.56410,0.62174
7047.63535,0.62201
7045.70661,0.62184
7043.77786,0.62095
7041.84912,0.61984
7039.92037,0.61809
7037.99163,0.61755
7036.06288,0.61950
7034.13414,0.62031
7032.20539,0.61671
7030.27664,0.61080
7028.34790,0.60591
7026.41915,0.60251
7024.49041,0.60136
7022.56166,0.60251
7020.63292,0.60205
7018.70417,0.59917
7016.77543,0.59677
7014.84668,0.59559
7012.91794,0.59731
7010.98919,0.60137
7009.06045,0.60184
7007.13170,0.59807
7005.20296,0.59615
7003.27421,0.59816
7001.34547,0.59893
6999.41672,0.59490
6997.48797,0.58942
6995.55923,0.58559
6993.63048,0.58419
6991.70174,0.58557
6989.77299,0.58651
6987.84425,0.58528
6985.91550,0.58443
6983.98676,0.58443
6982.05801,0.58534
6980.12927,0.58745
6978.20052,0.58750
6976.27178,0.58363
6974.34303,0.57883
6972.41429,0.57697
6970.48554,0.57857
6968.55680,0.58095
6966.62805,0.58210
6964.69930,0.58129
6962.77056,0.57895
6960.84181,0.57702
6958.91307,0.57619
6956.98432,0.57611
6955.05558,0.57615
6953.12683,0.57526
6951.19809,0.57355
6949.26934,0.57287
6947.34060,0.57485
6945.41185,0.57743
6943.48311,0.57778
6941.55436,0.57758
6939.62562,0.57738
6937.69687,0.57439
6935.76812,0.57089
6933.83938,0.57111
6931.91063,0.57352
6929.98189,0.57460
6928.05314,0.57392
6926.12440,0.57376
6924.19565,0.57494
6922.26691,0.57590
6920.33816,0.57598
6918.40942,0.57532
6916.48067,0.57366
6914.55193,0.57197
6912.62318,0.57192
6910.69444,0.57230
6908.76569,0.57196
6906.83695,0.57275
6904.90820,0.57447
6902.97945,0.57480
6901.05071,0.57343
6899.12196,0.57202
6897.19322,0.57294
6895.26447,0.57628
6893.33573,0.57847
6891.40698,0.57704
6889.47824,0.57316
6887.54949,0.56876
6885.62075,0.56654
6883.69200,0.56763
6881.76326,0.57002
6879.83451,0.57250
6877.90577,0.57373
6875.97702,0.57209
6874.04828,0.56934
6872.11953,0.56867
6870.19078,0.57060
6868.26204,0.57316
6866.33329,0.57500
6864.40455,0.57448
6862.47580,0.57132
6860.54706,0.56854
6858.61831,0.56847
6856.68957,0.57007
6854.76082,0.56947
6852.83208,0.56595
6850.90333,0.56365
6848.97459,0.56380
6847.04584,0.56544
6845.11710,0.56830
6843.18835,0.57100
6841.25960,0.57249
6839.33086,0.57187
6837.40211,0.56907
6835.47337,0.56759
6833.54462,0.56928
6831.61588,0.57100
6829.68713,0.57039
6827.75839,0.56782
6825.82964,0.56462
6823.90090,0.56338
6821.97215,0.56601
6820.04341,0.57052
6818.11466,0.57307
6816.18592,0.57253
6814.25717,0.56912
6812.32843,0.56438
6810.39968,0.56225
6808.47093,0.56406
6806.54219,0.56749
6804.61344,0.57024
6802.68470,0.57092
6800.75595,0.56996
6798.82721,0.56874
6796.89846,0.56815
6794.96972,0.56776
6793.04097,0.56631
6791.11223,0.56547
6789.18348,0.56685
6787.25474,0.56771
6785.32599,0.56759
6783.39725,0.56837
6781.46850,0.56887
6779.53975,0.56834
6777.61101,0.56762
6775.68226,0.56693
6773.75352,0.56683
6771.82477,0.56749
6769.89603,0.56800
6767.96728,0.56825
6766.03854,0.56850
6764.10979,0.56726
6762.18105,0.56472
6760.25230,0.56402
6758.32356,0.56604
6756.39481,0.56867
6754.46607,0.57038
6752.53732,0.57087
6750.60858,0.56909
6748.67983,0.56496
6746.75108,0.56161
6744.82234,0.56084
6742.89359,0.56181
6740.96485,0.56419
6739.03610,0.56724
6737.10736,0.56926
6735.17861,0.56887
6733.24987,0.56751
6731.32112,0.56845
6729.39238,0.57064
6727.46363,0.57067
6725.53489,0.56869
6723.60614,0.56607
6721.67740,0.56451
6719.74865,0.56548
6717.81991,0.56745
6715.89116,0.56909
6713.96241,0.57190
6712.03367,0.57537
6710.10492,0.57602
6708.17618,0.57417
6706.24743,0.57289
6704.31869,0.57279
6702.38994,0.57376
6700.46120,0.57557
6698.53245,0.57802
6696.60371,0.58036
6694.67496,0.57961
6692.74622,0.57580
6690.81747,0.57301
6688.88873,0.57255
6686.95998,0.57324
6685.03123,0.57430
6683.10249,0.57418
6681.17374,0.57204
6679.24500,0.56928
6677.31625,0.56823
6675.38751,0.57083
6673.45876,0.57537
6671.53002,0.57808
6669.60127,0.57827
6667.67253,0.57646
6665.74378,0.57414
6663.81504,0.57512
6661.88629,0.57909
6659.95755,0.58098
6658.02880,0.57888
6656.10006,0.57559
6654.17131,0.57375
6652.24256,0.57382
6650.31382,0.57462
6648.38507,0.57465
6646.45633,0.57450
6644.52758,0.57542
6642.59884,0.57707
6640.67009,0.57917
6638.74135,0.58112
6636.81260,0.58192
6634.88386,0.58232
6632.95511,0.58341
6631.02637,0.58409
6629.09762,0.58212
6627.16888,0.57914
6625.24013,0.57927
6623.31139,0.58158
6621.38264,0.58267
6619.45389,0.58256
6617.52515,0.58232
6615.59640,0.58255
6613.66766,0.58353
6611.73891,0.58530
6609.81017,0.58710
6607.88142,0.58659
6605.95268,0.58505
6604.02393,0.58572
6602.09519,0.58658
6600.16644,0.58543
6598.23770,0.58393
6596.30895,0.58336
6594.38021,0.58329
6592.45146,0.58388
6590.52271,0.58538
6588.59397,0.58678
6586.66522,0.58775
6584.73648,0.58776
6582.80773,0.58634
6580.87899,0.58638
6578.95024,0.59016
6577.02150,0.59393
6575.09275,0.59263
6573.16401,0.58809
6571.23526,0.58565
6569.30652,0.58647
6567.37777,0.58802
6565.44903,0.58867
6563.52028,0.58972
6561.59154,0.59174
6559.66279,0.59233
6557.73404,0.59060
6555.80530,0.59042
6553.87655,0.59289
6551.94781,0.59359
6550.01906,0.59221
6548.09032,0.59150
6546.16157,0.59080
6544.23283,0.58932
6542.30408,0.58856
6540.37534,0.58931
6538.44659,0.59025
6536.51785,0.59100
6534.58910,0.59193
6532.66036,0.59163
6530.73161,0.59012
6528.80287,0.58982
6526.87412,0.59117
6524.94537,0.59249
6523.01663,0.59392
6521.08788,0.59561
6519.15914,0.59625
6517.23039,0.59674
6515.30165,0.59758
6513.37290,0.59652
6511.44416,0.59491
6509.51541,0.59559
6507.58667,0.59649
6505.65792,0.59555
6503.72918,0.59440
6501.80043,0.59524
6499.87169,0.59840
6497.94294,0.60125
6496.01419,0.60089
6494.08545,0.59825
6492.15670,0.59639
6490.22796,0.59674
6488.29921,0.59798
6486.37047,0.59816
6484.44172,0.59781
6482.51298,0.59760
6480.58423,0.59599
6478.65549,0.59330
6476.72674,0.59237
6474.79800,0.59413
6472.86925,0.59572
6470.94051,0.59576
6469.01176,0.59667
6467.08302,0.59819
6465.15427,0.59846
6463.22552,0.59829
6461.29678,0.59769
6459.36803,0.59606
6457.43929,0.59417
6455.51054,0.59297
6453.58180,0.59337
6451.65305,0.59505
6449.72431,0.59594
6447.79556,0.59506
6445.86682,0.59341
6443.93807,0.59254
6442.00933,0.59367
6440.08058,0.59567
6438.15184,0.59642
6436.22309,0.59690
6434.29434,0.59860
6432.36560,0.60080
6430.43685,0.60223
6428.50811,0.60250
6426.57936,0.60254
6424.65062,0.60279
6422.72187,0.60212
6420.79313,0.60052
6418.86438,0.59913
6416.93564,0.59771
6415.00689,0.59608
6413.07815,0.59611
6411.14940,0.59850
6409.22066,0.60028
6407.29191,0.59955
6405.36317,0.59785
6403.43442,0.59704
6401.50567,0.59771
6399.57693,0.59894
6397.64818,0.60067
6395.71944,0.60299
6393.79069,0.60358
6391.86195,0.60228
6389.93320,0.60162
6388.00446,0.60207
6386.07571,0.60270
6384.14697,0.60262
6382.21822,0.60128
6380.28948,0.59977
6378.36073,0.59990
6376.43199,0.60138
6374.50324,0.60219
6372.57450,0.60210
6370.64575,0.60241
6368.71700,0.60350
6366.78826,0.60543
6364.85951,0.60731
6362.93077,0.60671
6361.00202,0.60402
6359.07328,0.60362
6357.14453,0.60684
6355.21579,0.60926
6353.28704,0.60846
6351.35830,0.60785
6349.42955,0.60906
6347.50081,0.60844
6345.57206,0.60511
6343.64332,0.60313
6341.71457,0.60455
6339.78582,0.60808
6337.85708,0.61146
6335.92833,0.61276
6333.99959,0.61104
6332.07084,0.60775
6330.14210,0.60635
6328.21335,0.60699
6326.28461,0.60736
6324.35586,0.60681
6322.42712,0.60561
6320.49837,0.60560
6318.56963,0.60706
6316.64088,0.60730
6314.71214,0.60653
6312.78339,0.60631
6310.85465,0.60575
6308.92590,0.60523
6306.99715,0.60667
6305.06841,0.60884
6303.13966,0.60933
6301.21092,0.60942
6299.28217,0.61077
6297.35343,0.61205
6295.42468,0.61213
6293.49594,0.61134
6291.56719,0.61105
6289.63845,0.61276
6287.70970,0.61456
6285.78096,0.61430
6283.85221,0.61330
6281.92347,0.61203
6279.99472,0.61076
6278.06598,0.61187
6276.13723,0.61575
6274.20848,0.61899
6272.27974,0.61861
6270.35099,0.61664
6268.42225,0.61623
6266.49350,0.61677
6264.56476,0.61666
6262.63601,0.61629
6260.70727,0.61667
6258.77852,0.61769
6256.84978,0.61914
6254.92103,0.62110
6252.99229,0.62246
6251.06354,0.62266
6249.13480,0.62253
6247.20605,0.62230
6245.27730,0.62188
6243.34856,0.62181
6241.41981,0.62252
6239.49107,0.62355
6237.56232,0.62361
6235.63358,0.62282
6233.70483,0.62297
6231.77609,0.62493
6229.84734,0.62809
6227.91860,0.63054
6225.98985,0.63100
6224.06111,0.63097
6222.13236,0.63156
6220.20362,0.63147
6218.27487,0.63058
6216.34613,0.63119
6214.41738,0.63330
6212.48863,0.63455
6210.55989,0.63493
6208.63114,0.63545
6206.70240,0.63493
6204.77365,0.63268
6202.84491,0.63159
6200.91616,0.63375
6198.98742,0.63703
6197.05867,0.63922
6195.12993,0.63976
6193.20118,0.63920
6191.27244,0.63926
6189.34369,0.64081
6187.41495,0.64290
6185.48620,0.64433
6183.55746,0.64484
6181.62871,0.64432
6179.69996,0.64303
6177.77122,0.64206
6175.84247,0.64232
6173.91373,0.64343
6171.98498,0.64436
6170.05624,0.64479
6168.12749,0.64509
6166.19875,0.64595
6164.27000,0.64700
6162.34126,0.64688
6160.41251,0.64605
6158.48377,0.64588
6156.55502,0.64662
6154.62628,0.64759
6152.69753,0.64811
6150.76878,0.64814
6148.84004,0.64838
6146.91129,0.64973
6144.98255,0.65102
6143.05380,0.65063
6141.12506,0.65038
6139.19631,0.65143
6137.26757,0.65176
6135.33882,0.65124
6133.41008,0.65163
6131.48133,0.65262
6129.55259,0.65312
6127.62384,0.65341
6125.69510,0.65405
6123.76635,0.65483
6121.83761,0.65475
6119.90886,0.65352
6117.98011,0.65295
6116.05137,0.65424
6114.12262,0.65593
6112.19388,0.65608
6110.26513,0.65509
6108.33639,0.65504
6106.40764,0.65649
6104.47890,0.65860
6102.55015,0.66017
6100.62141,0.66002
6098.69266,0.65891
6096.76392,0.65844
6094.83517,0.65812
6092.90643,0.65736
6090.97768,0.65726
6089.04893,0.65881
6087.12019,0.66076
6085.19144,0.66152
6083.26270,0.66114
6081.33395,0.66024
6079.40521,0.65913
6077.47646,0.65791
6075.54772,0.65746
6073.61897,0.65880
6071.69023,0.66056
6069.76148,0.66038
6067.83274,0.65804
6065.90399,0.65538
6063.97525,0.65505
6062.04650,0.65725
6060.11776,0.65930
6058.18901,0.66025
6056.26026,0.66129
6054.33152,0.66249
6052.40277,0.66248
6050.47403,0.66025
6048.54528,0.65774
6046.61654,0.65756
6044.68779,0.65845
6042.75905,0.65856
6040.83030,0.65881
6038.90156,0.65879
6036.97281,0.65729
6035.04407,0.65644
6033.11532,0.65719
6031.18658,0.65732
6029.25783,0.65634
6027.32909,0.65482
6025.40034,0.65276
6023.47159,0.65113
6021.54285,0.65041
6019.61410,0.65021
6017.68536,0.65077
6015.75661,0.65190
6013.82787,0.65273
6011.89912,0.65301
6009.97038,0.65306
6008.04163,0.65303
6006.11289,0.65251
6004.18414,0.65123
6002.25540,0.64950
6000.32665,0.64798
5998.39791,0.64704
5996.46916,0.64635
5994.54041,0.64568
5992.61167,0.64488
5990.68292,0.64400
5988.75418,0.64334
5986.82543,0.64287
5984.89669,0.64250
5982.96794,0.64186
5981.03920,0.64158
5979.11045,0.64285
5977.18171,0.64439
5975.25296,0.64396
5973.32422,0.64239
5971.39547,0.64245
5969.46673,0.64443
5967.53798,0.64631
5965.60924,0.64745
5963.68049,0.64829
5961.75174,0.64829
5959.82300,0.64714
5957.89425,0.64570
5955.96551,0.64457
5954.03676,0.64416
5952.10802,0.64492
5950.17927,0.64619
5948.25053,0.64750
5946.32178,0.64851
5944.39304,0.64825
5942.46429,0.64780
5940.53555,0.64837
5938.60680,0.64869
5936.67806,0.64876
5934.74931,0.64984
5932.82057,0.65087
5930.89182,0.65044
5928.96307,0.65021
5927.03433,0.65131
5925.10558,0.65073
5923.17684,0.64752
5921.24809,0.64520
5919.31935,0.64527
5917.39060,0.64619
5915.46186,0.64616
5913.53311,0.64478
5911.60437,0.64406
5909.67562,0.64487
5907.74688,0.64587
5905.81813,0.64628
5903.88939,0.64567
5901.96064,0.64504
5900.03189,0.64568
5898.10315,0.64589
5896.17440,0.64459
5894.24566,0.64333
5892.31691,0.64287
5890.38817,0.64292
5888.45942,0.64306
5886.53068,0.64258
5884.60193,0.64154
5882.67319,0.64099
5880.74444,0.64104
5878.81570,0.64043
5876.88695,0.63911
5874.95821,0.63847
5873.02946,0.63892
5871.10072,0.63967
5869.17197,0.64001
5867.24322,0.63971
5865.31448,0.63910
5863.38573,0.63865
5861.45699,0.63839
5859.52824,0.63797
5857.59950,0.63755
5855.67075,0.63830
5853.74201,0.64011
5851.81326,0.64109
5849.88452,0.64046
5847.95577,0.63934
5846.02703,0.63894
5844.09828,0.63873
5842.16954,0.63826
5840.24079,0.63880
5838.31205,0.63999
5836.38330,0.63974
5834.45455,0.63795
5832.52581,0.63653
5830.59706,0.63692
5828.66832,0.63831
5826.73957,0.63822
5824.81083,0.63604
5822.88208,0.63438
5820.95334,0.63455
5819.02459,0.63493
5817.09585,0.63490
5815.16710,0.63482
5813.23836,0.63420
5811.30961,0.63278
5809.38087,0.63110
5807.45212,0.62985
5805.52337,0.62961
5803.59463,0.63083
5801.66588,0.63231
5799.73714,0.63290
5797.80839,0.63377
5795.87965,0.63477
5793.95090,0.63463
5792.02216,0.63443
5790.09341,0.63466
5788.16467,0.63439
5786.23592,0.63334
5784.30718,0.63190
5782.37843,0.63132
5780.44969,0.63204
5778.52094,0.63313
5776.59220,0.63409
5774.66345,0.63436
5772.73470,0.63397
5770.80596,0.63394
5768.87721,0.63391
5766.94847,0.63333
5765.01972,0.63358
5763.09098,0.63498
5761.16223,0.63600
5759.23349,0.63606
5757.30474,0.63574
5755.37600,0.63542
5753.44725,0.63521
5751.51851,0.63489
5749.58976,0.63450
5747.66102,0.63498
5745.73227,0.63639
5743.80352,0.63716
5741.87478,0.63696
5739.94603,0.63640
5738.01729,0.63494
5736.08854,0.63314
5734.15980,0.63216
5732.23105,0.63189
5730.30231,0.63250
5728.37356,0.63359
5726.44482,0.63387
5724.51607,0.63354
5722.58733,0.63327
5720.65858,0.63328
5718.72984,0.63394
5716.80109,0.63493
5714.87235,0.63558
5712.94360,0.63556
5711.01485,0.63506
5709.08611,0.63477
5707.15736,0.63503
5705.22862,0.63545
5703.29987,0.63544
5701.37113,0.63519
5699.44238,0.63492
5697.51364,0.63389
5695.58489,0.63244
5693.65615,0.63212
5691.72740,0.63253
5689.79866,0.63238
5687.86991,0.63221
5685.94117,0.63265
5684.01242,0.63269
5682.08368,0.63181
5680.15493,0.63114
5678.22618,0.63097
5676.29744,0.63056
5674.36869,0.63061
5672.43995,0.63158
5670.51120,0.63222
5668.58246,0.63170
5666.65371,0.63090
5664.72497,0.63106
5662.79622,0.63112
5660.86748,0.63017
5658.93873,0.62988
5657.00999,0.63026
5655.08124,0.62987
5653.15250,0.62938
5651.22375,0.62953
5649.29500,0.62988
5647.36626,0.63014
5645.43751,0.62995
5643.50877,0.62929
5641.58002,0.62893
5639.65128,0.62923
5637.72253,0.62974
5635.79379,0.63055
5633.86504,0.63165
5631.93630,0.63220
5630.00755,0.63171
5628.07881,0.63031
5626.15006,0.62858
5624.22132,0.62807
5622.29257,0.62937
5620.36383,0.63056
5618.43508,0.63011
5616.50633,0.62889
5614.57759,0.62842
5612.64884,0.62907
5610.72010,0.62982
5608.79135,0.62981
5606.86261,0.62949
5604.93386,0.62932
5603.00512,0.62907
5601.07637,0.62811
5599.14763,0.62672
5597.21888,0.62649
5595.29014,0.62765
5593.36139,0.62901
5591.43265,0.63006
5589.50390,0.63018
5587.57516,0.62951
5585.64641,0.62991
5583.71766,0.63136
5581.78892,0.63159
5579.86017,0.62995
5577.93143,0.62789
5576.00268,0.62657
5574.07394,0.62667
5572.14519,0.62807
5570.21645,0.62954
5568.28770,0.63007
5566.35896,0.62988
5564.43021,0.63004
5562.50147,0.63080
5560.57272,0.63138
5558.64398,0.63152
5556.71523,0.63162
5554.78648,0.63171
5552.85774,0.63154
5550.92899,0.63154
5549.00025,0.63161
5547.07150,0.63149
5545.14276,0.63177
5543.21401,0.63217
5541.28527,0.63249
5539.35652,0.63308
5537.42778,0.63315
5535.49903,0.63288
5533.57029,0.63352
5531.64154,0.63468
5529.71280,0.63535
5527.78405,0.63546
5525.85531,0.63514
5523.92656,0.63478
5521.99781,0.63504
5520.06907,0.63535
5518.14032,0.63500
5516.21158,0.63469
5514.28283,0.63515
5512.35409,0.63591
5510.42534,0.63620
5508.49660,0.63613
5506.56785,0.63590
5504.63911,0.63542
5502.71036,0.63500
5500.78162,0.63497
5498.85287,0.63498
5496.92413,0.63453
5494.99538,0.63379
5493.06664,0.63339
5491.13789,0.63370
5489.20914,0.63442
5487.28040,0.63498
5485.35165,0.63520
5483.42291,0.63549
5481.49416,0.63594
5479.56542,0.63588
5477.63667,0.63575
5475.70793,0.63657
5473.77918,0.63732
5471.85044,0.63746
5469.92169,0.63853
5467.99295,0.64020
5466.06420,0.64055
5464.13546,0.63955
5462.20671,0.63860
5460.27796,0.63888
5458.34922,0.64016
5456.42047,0.64091
5454.49173,0.64036
5452.56298,0.63933
5450.63424,0.63933
5448.70549,0.64072
5446.77675,0.64188
5444.84800,0.64219
5442.91926,0.64235
5440.99051,0.64221
5439.06177,0.64165
5437.13302,0.64137
5435.20428,0.64221
5433.27553,0.64396
5431.34679,0.64486
5429.41804,0.64462
5427.48929,0.64499
5425.56055,0.64580
5423.63180,0.64563
5421.70306,0.64505
5419.77431,0.64529
5417.84557,0.64648
5415.91682,0.64785
5413.98808,0.64815
5412.05933,0.64730
5410.13059,0.64687
5408.20184,0.64769
5406.27310,0.64866
5404.34435,0.64870
5402.41561,0.64848
5400.48686,0.64889
5398.55811,0.64961
5396.62937,0.64993
5394.70062,0.64940
5392.77188,0.64842
5390.84313,0.64828
5388.91439,0.64961
5386.98564,0.65108
5385.05690,0.65112
5383.12815,0.65054
5381.19941,0.65072
5379.27066,0.65103
5377.34192,0.65049
5375.41317,0.64967
5373.48443,0.64930
5371.55568,0.64915
5369.62694,0.64907
5367.69819,0.64928
5365.76944,0.64961
5363.84070,0.64969
5361.91195,0.64958
5359.98321,0.64887
5358.05446,0.64741
5356.12572,0.64662
5354.19697,0.64728
5352.26823,0.64816
5350.33948,0.64833
5348.41074,0.64810
5346.48199,0.64744
5344.55325,0.64635
5342.62450,0.64540
5340.69576,0.64467
5338.76701,0.64413
5336.83827,0.64374
5334.90952,0.64302
5332.98077,0.64199
5331.05203,0.64121
5329.12328,0.64074
5327.19454,0.64022
5325.26579,0.63925
5323.33705,0.63772
5321.40830,0.63633
5319.47956,0.63546
5317.55081,0.63444
5315.62207,0.63318
5313.69332,0.63177
5311.76458,0.62979
5309.83583,0.62757
5307.90709,0.62576
5305.97834,0.62402
5304.04959,0.62160
5302.12085,0.61861
5300.19210,0.61611
5298.26336,0.61465
5296.33461,0.61314
5294.40587,0.61058
5292.47712,0.60773
5290.54838,0.60526
5288.61963,0.60253
5286.69089,0.59918
5284.76214,0.59584
5282.83340,0.59274
5280.90465,0.58944
5278.97591,0.58570
5277.04716,0.58220
5275.11842,0.57958
5273.18967,0.57724
5271.26092,0.57407
5269.33218,0.56992
5267.40343,0.56559
5265.47469,0.56164
5263.54594,0.55811
5261.61720,0.55487
5259.68845,0.55131
5257.75971,0.54741
5255.83096,0.54411
5253.90222,0.54160
5251.97347,0.53906
5250.04473,0.53628
5248.11598,0.53352
5246.18724,0.53071
5244.25849,0.52793
5242.32975,0.52553
5240.40100,0.52324
5238.47225,0.52063
5236.54351,0.51814
5234.61476,0.51644
5232.68602,0.51488
5230.75727,0.51250
5228.82853,0.50989
5226.89978,0.50787
5224.97104,0.50575
5223.04229,0.50309
5221.11355,0.50113
5219.18480,0.50040
5217.25606,0.49997
5215.32731,0.49926
5213.39857,0.49825
5211.46982,0.49706
5209.54107,0.49607
5207.61233,0.49566
5205.68358,0.49564
5203.75484,0.49570
5201.82609,0.49568
5199.89735,0.49509
5197.96860,0.49381
5196.03986,0.49277
5194.11111,0.49285
5192.18237,0.49354
5190.25362,0.49378
5188.32488,0.49346
5186.39613,0.49350
5184.46739,0.49424
5182.53864,0.49469
5180.60990,0.49417
5178.68115,0.49350
5176.75240,0.49378
5174.82366,0.49484
5172.89491,0.49577
5170.96617,0.49639
5169.03742,0.49719
5167.10868,0.49841
5165.17993,0.49960
5163.25119,0.50022
5161.32244,0.50049
5159.39370,0.50106
5157.46495,0.50224
5155.53621,0.50350
5153.60746,0.50459
5151.67872,0.50566
5149.74997,0.50633
5147.82123,0.50678
5145.89248,0.50775
5143.96373,0.50922
5142.03499,0.51049
5140.10624,0.51120
5138.17750,0.51176
5136.24875,0.51261
5134.32001,0.51378
5132.39126,0.51515
5130.46252,0.51651
5128.53377,0.51792
5126.60503,0.51932
5124.67628,0.52018
5122.74754,0.52059
5120.81879,0.52167
5118.89005,0.52379
5116.96130,0.52586
5115.03255,0.52698
5113.10381,0.52719
5111.17506,0.52688
5109.24632,0.52680
5107.31757,0.52769
5105.38883,0.52922
5103.46008,0.53046
5101.53134,0.53143
5099.60259,0.53238
5097.67385,0.53322
5095.74510,0.53422
5093.81636,0.53492
5091.88761,0.53495
5089.95887,0.53520
5088.03012,0.53627
5086.10138,0.53813
5084.17263,0.54034
5082.24388,0.54177
5080.31514,0.54223
5078.38639,0.54283
5076.45765,0.54405
5074.52890,0.54527
5072.60016,0.54597
5070.67141,0.54614
5068.74267,0.54657
5066.81392,0.54781
5064.88518,0.54913
5062.95643,0.54962
5061.02769,0.54962
5059.09894,0.54983
5057.17020,0.55015
5055.24145,0.55097
5053.31270,0.55295
5051.38396,0.55492
5049.45521,0.55561
5047.52647,0.55549
5045.59772,0.55546
5043.66898,0.55585
5041.74023,0.55642
5039.81149,0.55699
5037.88274,0.55819
5035.95400,0.55973
5034.02525,0.56036
5032.09651,0.56025
5030.16776,0.56030
5028.23902,0.56099
5026.31027,0.56218
5024.38153,0.56330
5022.45278,0.56410
5020.52403,0.56452
5018.59529,0.56450
5016.66654,0.56426
5014.73780,0.56412
5012.80905,0.56415
5010.88031,0.56444
5008.95156,0.56505
5007.02282,0.56541
5005.09407,0.56517
5003.16533,0.56492
5001.23658,0.56506
4999.30784,0.56528
4997.37909,0.56517
4995.45035,0.56486
4993.52160,0.56482
4991.59286,0.56500
4989.66411,0.56466
4987.73536,0.56376
4985.80662,0.56303
4983.87787,0.56264
4981.94913,0.56228
4980.02038,0.56191
4978.09164,0.56168
4976.16289,0.56143
4974.23415,0.56083
4972.30540,0.56020
4970.37666,0.55981
4968.44791,0.55871
4966.51917,0.55675
4964.59042,0.55546
4962.66168,0.55504
4960.73293,0.55423
4958.80418,0.55283
4956.87544,0.55156
4954.94669,0.55049
4953.01795,0.54926
4951.08920,0.54781
4949.16046,0.54644
4947.23171,0.54541
4945.30297,0.54433
4943.37422,0.54249
4941.44548,0.54023
4939.51673,0.53844
4937.58799,0.53712
4935.65924,0.53582
4933.73050,0.53471
4931.80175,0.53372
4929.87301,0.53223
4927.94426,0.53038
4926.01551,0.52874
4924.08677,0.52723
4922.15802,0.52550
4920.22928,0.52333
4918.30053,0.52095
4916.37179,0.51906
4914.44304,0.51784
4912.51430,0.51647
4910.58555,0.51447
4908.65681,0.51288
4906.72806,0.51194
4904.79932,0.51055
4902.87057,0.50845
4900.94183,0.50630
4899.01308,0.50452
4897.08434,0.50293
4895.15559,0.50105
4893.22684,0.49881
4891.29810,0.49656
4889.36935,0.49472
4887.44061,0.49363
4885.51186,0.49279
4883.58312,0.49132
4881.65437,0.48932
4879.72563,0.48753
4877.79688,0.48613
4875.86814,0.48442
4873.93939,0.48218
4872.01065,0.48026
4870.08190,0.47878
4868.15316,0.47742
4866.22441,0.47642
4864.29566,0.47537
4862.36692,0.47367
4860.43817,0.47166
4858.50943,0.46970
4856.58068,0.46815
4854.65194,0.46710
4852.72319,0.46608
4850.79445,0.46490
4848.86570,0.46393
4846.93696,0.46324
4845.00821,0.46236
4843.07947,0.46141
4841.15072,0.46056
4839.22198,0.45923
4837.29323,0.45748
4835.36449,0.45581
4833.43574,0.45445
4831.50699,0.45347
4829.57825,0.45247
4827.64950,0.45145
4825.72076,0.45078
4823.79201,0.44994
4821.86327,0.44860
4819.93452,0.44736
4818.00578,0.44656
4816.07703,0.44602
4814.14829,0.44537
4812.21954,0.44432
4810.29080,0.44321
4808.36205,0.44244
4806.43331,0.44202
4804.50456,0.44163
4802.57582,0.44086
4800.64707,0.43993
4798.71832,0.43925
4796.78958,0.43871
4794.86083,0.43821
4792.93209,0.43786
4791.00334,0.43761
4789.07460,0.43745
4787.14585,0.43742
4785.21711,0.43740
4783.28836,0.43706
4781.35962,0.43648
4779.43087,0.43602
4777.50213,0.43561
4775.57338,0.43521
4773.64464,0.43525
4771.71589,0.43553
4769.78714,0.43541
4767.85840,0.43497
4765.92965,0.43464
4764.00091,0.43463
4762.07216,0.43485
4760.14342,0.43492
4758.21467,0.43468
4756.28593,0.43438
4754.35718,0.43424
4752.42844,0.43394
4750.49969,0.43332
4748.57095,0.43306
4746.64220,0.43332
4744.71346,0.43359
4742.78471,0.43397
4740.85597,0.43448
4738.92722,0.43480
4736.99847,0.43489
4735.06973,0.43505
4733.14098,0.43559
4731.21224,0.43632
4729.28349,0.43666
4727.35475,0.43657
4725.42600,0.43664
4723.49726,0.43717
4721.56851,0.43771
4719.63977,0.43783
4717.71102,0.43776
4715.78228,0.43778
4713.85353,0.43789
4711.92479,0.43804
4709.99604,0.43809
4708.06729,0.43805
4706.13855,0.43831
4704.20980,0.43905
4702.28106,0.43999
4700.35231,0.44084
4698.42357,0.44134
4696.49482,0.44154
4694.56608,0.44183
4692.63733,0.44254
4690.70859,0.44376
4688.77984,0.44478
4686.85110,0.44488
4684.92235,0.44481
4682.99361,0.44560
4681.06486,0.44650
4679.13612,0.44663
4677.20737,0.44686
4675.27862,0.44791
4673.34988,0.44902
4671.42113,0.44959
4669.49239,0.44993
4667.56364,0.45042
4665.63490,0.45114
4663.70615,0.45203
4661.77741,0.45261
4659.84866,0.45268
4657.91992,0.45308
4655.99117,0.45412
4654.06243,0.45525
4652.13368,0.45634
4650.20494,0.45743
4648.27619,0.45841
4646.34745,0.45928
4644.41870,0.46004
4642.48995,0.46087
4640.56121,0.46173
4638.63246,0.46257
4636.70372,0.46360
4634.77497,0.46443
4632.84623,0.46461
4630.91748,0.46470
4628.98874,0.46530
4627.05999,0.46630
4625.13125,0.46732
4623.20250,0.46820
4621.27376,0.46924
4619.34501,0.47048
4617.41627,0.47144
4615.48752,0.47223
4613.55877,0.47330
4611.63003,0.47440
4609.70128,0.47531
4607.77254,0.47647
4605.84379,0.47803
4603.91505,0.47954
4601.98630,0.48060
4600.05756,0.48113
4598.12881,0.48155
4596.20007,0.48206
4594.27132,0.48257
4592.34258,0.48356
4590.41383,0.48509
4588.48509,0.48630
4586.55634,0.48699
4584.62760,0.48753
4582.69885,0.48814
4580.77010,0.48875
4578.84136,0.48912
4576.91261,0.48965
4574.98387,0.49061
4573.05512,0.49141
4571.12638,0.49198
4569.19763,0.49269
4567.26889,0.49323
4565.34014,0.49365
4563.41140,0.49452
4561.48265,0.49559
4559.55391,0.49623
4557.62516,0.49637
4555.69642,0.49622
4553.76767,0.49607
4551.83893,0.49629
4549.91018,0.49714
4547.98143,0.49848
4546.05269,0.49974
4544.12394,0.50029
4542.19520,0.50018
4540.26645,0.49994
4538.33771,0.50017
4536.40896,0.50104
4534.48022,0.50191
4532.55147,0.50226
4530.62273,0.50239
4528.69398,0.50273
4526.76524,0.50323
4524.83649,0.50346
4522.90775,0.50321
4520.97900,0.50278
4519.05025,0.50249
4517.12151,0.50231
4515.19276,0.50204
4513.26402,0.50203
4511.33527,0.50250
4509.40653,0.50280
4507.47778,0.50262
4505.54904,0.50219
4503.62029,0.50158
4501.69155,0.50085
4499.76280,0.50044
4497.83406,0.50045
4495.90531,0.50024
4493.97657,0.49931
4492.04782,0.49799
4490.11908,0.49687
4488.19033,0.49581
4486.26158,0.49458
4484.33284,0.49364
4482.40409,0.49285
4480.47535,0.49165
4478.54660,0.49003
4476.61786,0.48818
4474.68911,0.48619
4472.76037,0.48422
4470.83162,0.48265
4468.90288,0.48152
4466.97413,0.48010
4465.04539,0.47798
4463.11664,0.47555
4461.18790,0.47343
4459.25915,0.47171
4457.33041,0.46969
4455.40166,0.46696
4453.47291,0.46423
4451.54417,0.46209
4449.61542,0.46001
4447.68668,0.45762
4445.75793,0.45534
4443.82919,0.45314
4441.90044,0.45053
4439.97170,0.44779
4438.04295,0.44557
4436.11421,0.44362
4434.18546,0.44120
4432.25672,0.43834
4430.32797,0.43565
4428.39923,0.43352
4426.47048,0.43158
4424.54173,0.42931
4422.61299,0.42685
4420.68424,0.42438
4418.75550,0.42184
4416.82675,0.41934
4414.89801,0.41694
4412.96926,0.41491
4411.04052,0.41325
4409.11177,0.41159
4407.18303,0.41006
4405.25428,0.40875
4403.32554,0.40735
4401.39679,0.40623
4399.46805,0.40612
4397.53930,0.40642
4395.61056,0.40638
4393.68181,0.40633
4391.75306,0.40653
4389.82432,0.40693
4387.89557,0.40733
4385.96683,0.40759
4384.03808,0.40823
4382.10934,0.40948
4380.18059,0.41061
4378.25185,0.41119
4376.32310,0.41188
4374.39436,0.41312
4372.46561,0.41411
4370.53687,0.41429
4368.60812,0.41447
4366.67938,0.41544
4364.75063,0.41681
4362.82189,0.41795
4360.89314,0.41864
4358.96439,0.41864
4357.03565,0.41827
4355.10690,0.41792
4353.17816,0.41757
4351.24941,0.41738
4349.32067,0.41738
4347.39192,0.41717
4345.46318,0.41676
4343.53443,0.41641
4341.60569,0.41614
4339.67694,0.41584
4337.74820,0.41541
4335.81945,0.41467
4333.89071,0.41388
4331.96196,0.41342
4330.03321,0.41286
4328.10447,0.41195
4326.17572,0.41113
4324.24698,0.41032
4322.31823,0.40918
4320.38949,0.40793
4318.46074,0.40706
4316.53200,0.40659
4314.60325,0.40581
4312.67451,0.40439
4310.74576,0.40299
4308.81702,0.40207
4306.88827,0.40142
4304.95953,0.40098
4303.03078,0.40048
4301.10204,0.39945
4299.17329,0.39804
4297.24454,0.39691
4295.31580,0.39645
4293.38705,0.39626
4291.45831,0.39570
4289.52956,0.39484
4287.60082,0.39408
4285.67207,0.39370
4283.74333,0.39381
4281.81458,0.39417
4279.88584,0.39437
4277.95709,0.39427
4276.02835,0.39410
4274.09960,0.39411
4272.17086,0.39423
4270.24211,0.39445
4268.31336,0.39483
4266.38462,0.39528
4264.45587,0.39570
4262.52713,0.39617
4260.59838,0.39668
4258.66964,0.39706
4256.74089,0.39711
4254.81215,0.39706
4252.88340,0.39738
4250.95466,0.39799
4249.02591,0.39855
4247.09717,0.39885
4245.16842,0.39891
4243.23968,0.39897
4241.31093,0.39906
4239.38219,0.39923
4237.45344,0.39975
4235.52469,0.40014
4233.59595,0.39998
4231.66720,0.39990
4229.73846,0.40013
4227.80971,0.40031
4225.88097,0.40046
4223.95222,0.40046
4222.02348,0.39991
4220.09473,0.39912
4218.16599,0.39877
4216.23724,0.39893
4214.30850,0.39940
4212.37975,0.39994
4210.45101,0.40025
4208.52226,0.40035
4206.59352,0.40040
4204.66477,0.40043
4202.73602,0.40048
4200.80728,0.40054
4198.87853,0.40063
4196.94979,0.40095
4195.02104,0.40136
4193.09230,0.40160
4191.16355,0.40186
4189.23481,0.40229
4187.30606,0.40264
4185.37732,0.40286
4183.44857,0.40296
4181.51983,0.40297
4179.59108,0.40326
4177.66234,0.40397
4175.73359,0.40467
4173.80484,0.40504
4171.87610,0.40535
4169.94735,0.40593
4168.01861,0.40646
4166.08986,0.40661
4164.16112,0.40671
4162.23237,0.40717
4160.30363,0.40766
4158.37488,0.40761
4156.44614,0.40713
4154.51739,0.40672
4152.58865,0.40630
4150.65990,0.40568
4148.73116,0.40506
4146.80241,0.40447
4144.87367,0.40379
4142.94492,0.40322
4141.01617,0.40275
4139.08743,0.40192
4137.15868,0.40060
4135.22994,0.39910
4133.30119,0.39795
4131.37245,0.39720
4129.44370,0.39638
4127.51496,0.39528
4125.58621,0.39414
4123.65747,0.39305
4121.72872,0.39183
4119.79998,0.39043
4117.87123,0.38889
4115.94249,0.38724
4114.01374,0.38566
4112.08500,0.38417
4110.15625,0.38234
4108.22750,0.38013
4106.29876,0.37809
4104.37001,0.37643
4102.44127,0.37481
4100.51252,0.37288
4098.58378,0.37084
4096.65503,0.36901
4094.72629,0.36722
4092.79754,0.36535
4090.86880,0.36352
4088.94005,0.36168
4087.01131,0.36002
4085.08256,0.35840
4083.15382,0.35628
4081.22507,0.35371
4079.29632,0.35122
4077.36758,0.34925
4075.43883,0.34765
4073.51009,0.34587
4071.58134,0.34385
4069.65260,0.34183
4067.72385,0.33969
4065.79511,0.33757
4063.86636,0.33576
4061.93762,0.33391
4060.00887,0.33176
4058.08013,0.32963
4056.15138,0.32788
4054.22264,0.32644
4052.29389,0.32467
4050.36515,0.32242
4048.43640,0.32037
4046.50765,0.31876
4044.57891,0.31736
4042.65016,0.31613
4040.72142,0.31497
4038.79267,0.31368
4036.86393,0.31236
4034.93518,0.31114
4033.00644,0.30985
4031.07769,0.30863
4029.14895,0.30774
4027.22020,0.30710
4025.29146,0.30664
4023.36271,0.30645
4021.43397,0.30626
4019.50522,0.30571
4017.57648,0.30505
4015.64773,0.30472
4013.71898,0.30463
4011.79024,0.30453
4009.86149,0.30456
4007.93275,0.30479
4006.00400,0.30513
4004.07526,0.30543
4002.14651,0.30559
4000.21777,0.30584
3998.28902,0.30650
3996.36028,0.30740
3994.43153,0.30816
3992.50279,0.30873
3990.57404,0.30922
3988.64530,0.30961
3986.71655,0.30987
3984.78780,0.31029
3982.85906,0.31103
3980.93031,0.31190
3979.00157,0.31259
3977.07282,0.31307
3975.14408,0.31362
3973.21533,0.31429
3971.28659,0.31493
3969.35784,0.31555
3967.42910,0.31609
3965.50035,0.31654
3963.57161,0.31722
3961.64286,0.31841
3959.71412,0.31998
3957.78537,0.32142
3955.85663,0.32222
3953.92788,0.32246
3951.99913,0.32294
3950.07039,0.32404
3948.14164,0.32534
3946.21290,0.32649
3944.28415,0.32751
3942.35541,0.32848
3940.42666,0.32946
3938.49792,0.33042
3936.56917,0.33128
3934.64043,0.33217
3932.71168,0.33320
3930.78294,0.33422
3928.85419,0.33517
3926.92545,0.33622
3924.99670,0.33732
3923.06795,0.33816
3921.13921,0.33877
3919.21046,0.33964
3917.28172,0.34080
3915.35297,0.34180
3913.42423,0.34254
3911.49548,0.34328
3909.56674,0.34423
3907.63799,0.34533
3905.70925,0.34639
3903.78050,0.34723
3901.85176,0.34776
3899.92301,0.34815
3897.99427,0.34866
3896.06552,0.34950
3894.13678,0.35058
3892.20803,0.35161
3890.27928,0.35226
3888.35054,0.35265
3886.42179,0.35323
3884.49305,0.35414
3882.56430,0.35493
3880.63556,0.35542
3878.70681,0.35587
3876.77807,0.35646
3874.84932,0.35729
3872.92058,0.35840
3870.99183,0.35952
3869.06309,0.36023
3867.13434,0.36053
3865.20560,0.36100
3863.27685,0.36188
3861.34811,0.36282
3859.41936,0.36365
3857.49061,0.36453
3855.56187,0.36573
3853.63312,0.36742
3851.70438,0.36871
3849.77563,0.36915
3847.84689,0.36956
3845.91814,0.37036
3843.98940,0.37126
3842.06065,0.37196
3840.13191,0.37252
3838.20316,0.37309
3836.27442,0.37350
3834.34567,0.37363
3832.41693,0.37372
3830.48818,0.37396
3828.55943,0.37418
3826.63069,0.37419
3824.70194,0.37421
3822.77320,0.37452
3820.84445,0.37500
3818.91571,0.37523
3816.98696,0.37507
3815.05822,0.37495
3813.12947,0.37502
3811.20073,0.37491
3809.27198,0.37459
3807.34324,0.37440
3805.41449,0.37443
3803.48575,0.37441
3801.55700,0.37422
3799.62826,0.37401
3797.69951,0.37395
3795.77076,0.37395
3793.84202,0.37373
3791.91327,0.37339
3789.98453,0.37325
3788.05578,0.37317
3786.12704,0.37280
3784.19829,0.37240
3782.26955,0.37217
3780.34080,0.37187
3778.41206,0.37151
3776.48331,0.37116
3774.55457,0.37077
3772.62582,0.37047
3770.69708,0.37048
3768.76833,0.37050
3766.83959,0.37008
3764.91084,0.36934
3762.98209,0.36850
3761.05335,0.36771
3759.12460,0.36695
3757.19586,0.36615
3755.26711,0.36554
3753.33837,0.36503
3751.40962,0.36405
3749.48088,0.36277
3747.55213,0.36190
3745.62339,0.36126
3743.69464,0.36024
3741.76590,0.35892
3739.83715,0.35774
3737.90841,0.35667
3735.97966,0.35556
3734.05091,0.35423
3732.12217,0.35242
3730.19342,0.35041
3728.26468,0.34867
3726.33593,0.34719
3724.40719,0.34574
3722.47844,0.34426
3720.54970,0.34250
3718.62095,0.34022
3716.69221,0.33782
3714.76346,0.33562
3712.83472,0.33328
3710.90597,0.33065
3708.97723,0.32803
3707.04848,0.32544
3705.11974,0.32268
3703.19099,0.31966
3701.26224,0.31610
3699.33350,0.31207
3697.40475,0.30799
3695.47601,0.30401
3693.54726,0.30007
3691.61852,0.29590
3689.68977,0.29079
3687.76103,0.28477
3685.83228,0.27893
3683.90354,0.27346
3681.97479,0.26791
3680.04605,0.26215
3678.11730,0.25627
3676.18856,0.24962
3674.25981,0.24222
3672.33107,0.23548
3670.40232,0.22884
3668.47357,0.22170
3666.54483,0.21492
3664.61608,0.20856
3662.68734,0.20217
3660.75859,0.19580
3658.82985,0.18987
3656.90110,0.18415
3654.97236,0.17860
3653.04361,0.17364
3651.11487,0.16846
3649.18612,0.16251
3647.25738,0.15696
3645.32863,0.15232
3643.39989,0.14795
3641.47114,0.14372
3639.54239,0.13989
3637.61365,0.13632
3635.68490,0.13264
3633.75616,0.12880
3631.82741,0.12524
3629.89867,0.12184
3627.96992,0.11831
3626.04118,0.11525
3624.11243,0.11258
3622.18369,0.10957
3620.25494,0.10615
3618.32620,0.10292
3616.39745,0.10029
3614.46871,0.09789
3612.53996,0.09546
3610.61122,0.09296
3608.68247,0.09045
3606.75372,0.08815
3604.82498,0.08622
3602.89623,0.08434
3600.96749,0.08231
3599.03874,0.08033
3597.11000,0.07841
3595.18125,0.07635
3593.25251,0.07434
3591.32376,0.07270
3589.39502,0.07123
3587.46627,0.06970
3585.53753,0.06831
3583.60878,0.06720
3581.68004,0.06621
3579.75129,0.06502
3577.82254,0.06376
3575.89380,0.06274
3573.96505,0.06173
3572.03631,0.06051
3570.10756,0.05933
3568.17882,0.05838
3566.25007,0.05754
3564.32133,0.05690
3562.39258,0.05637
3560.46384,0.05563
3558.53509,0.05475
3556.60635,0.05409
3554.67760,0.05339
3552.74886,0.05234
3550.82011,0.05153
3548.89137,0.05120
3546.96262,0.05069
3545.03387,0.04990
3543.10513,0.04925
3541.17638,0.04874
3539.24764,0.04820
3537.31889,0.04759
3535.39015,0.04703
3533.46140,0.04656
3531.53266,0.04614
3529.60391,0.04584
3527.67517,0.04561
3525.74642,0.04516
3523.81768,0.04461
3521.88893,0.04440
3519.96019,0.04432
3518.03144,0.04391
3516.10270,0.04339
3514.17395,0.04307
3512.24520,0.04278
3510.31646,0.04245
3508.38771,0.04215
3506.45897,0.04175
3504.53022,0.04135
3502.60148,0.04127
3500.67273,0.04127
3498.74399,0.04090
3496.81524,0.04034
3494.88650,0.04017
3492.95775,0.04039
3491.02901,0.04042
3489.10026,0.04020
3487.17152,0.03998
3485.24277,0.03974
3483.31402,0.03964
3481.38528,0.03979
3479.45653,0.03993
3477.52779,0.03972
3475.59904,0.03932
3473.67030,0.03906
3471.74155,0.03884
3469.81281,0.03858
3467.88406,0.03848
3465.95532,0.03851
3464.02657,0.03855
3462.09783,0.03847
3460.16908,0.03838
3458.24034,0.03842
3456.31159,0.03859
3454.38285,0.03891
3452.45410,0.03916
3450.52535,0.03908
3448.59661,0.03880
3446.66786,0.03861
3444.73912,0.03853
3442.81037,0.03857
3440.88163,0.03883
3438.95288,0.03907
3437.02414,0.03886
3435.09539,0.03826
3433.16665,0.03783
3431.23790,0.03784
3429.30916,0.03818
3427.38041,0.03847
3425.45167,0.03851
3423.52292,0.03852
3421.59418,0.03874
3419.66543,0.03900
3417.73668,0.03895
3415.80794,0.03867
3413.87919,0.03854
3411.95045,0.03860
3410.02170,0.03874
3408.09296,0.03891
3406.16421,0.03888
3404.23547,0.03863
3402.30672,0.03840
3400.37798,0.03850
3398.44923,0.03914
3396.52049,0.03974
3394.59174,0.03963
3392.66300,0.03932
3390.73425,0.03938
3388.80550,0.03947
3386.87676,0.03930
3384.94801,0.03904
3383.01927,0.03887
3381.09052,0.03891
3379.16178,0.03914
3377.23303,0.03933
3375.30429,0.03951
3373.37554,0.03985
3371.44680,0.04003
3369.51805,0.03974
3367.58931,0.03937
3365.66056,0.03942
3363.73182,0.03973
3361.80307,0.03980
3359.87433,0.03956
3357.94558,0.03949
3356.01683,0.03962
3354.08809,0.03961
3352.15934,0.03948
3350.23060,0.03956
3348.30185,0.04000
3346.37311,0.04056
3344.44436,0.04095
3342.51562,0.04119
3340.58687,0.04127
3338.65813,0.04127
3336.72938,0.04142
3334.80064,0.04171
3332.87189,0.04208
3330.94315,0.04237
3329.01440,0.04249
3327.08566,0.04269
3325.15691,0.04308
3323.22816,0.04330
3321.29942,0.04336
3319.37067,0.04346
3317.44193,0.04363
3315.51318,0.04390
3313.58444,0.04419
3311.65569,0.04413
3309.72695,0.04382
3307.79820,0.04386
3305.86946,0.04429
3303.94071,0.04461
3302.01197,0.04457
3300.08322,0.04428
3298.15448,0.04407
3296.22573,0.04433
3294.29698,0.04488
3292.36824,0.04529
3290.43949,0.04554
3288.51075,0.04566
3286.58200,0.04578
3284.65326,0.04603
3282.72451,0.04624
3280.79577,0.04638
3278.86702,0.04669
3276.93828,0.04699
3275.00953,0.04712
3273.08079,0.04732
3271.15204,0.04772
3269.22330,0.04803
3267.29455,0.04821
3265.36581,0.04842
3263.43706,0.04857
3261.50831,0.04864
3259.57957,0.04879
3257.65082,0.04915
3255.72208,0.04986
3253.79333,0.05048
3251.86459,0.05037
3249.93584,0.04987
3248.00710,0.04981
3246.07835,0.05019
3244.14961,0.05055
3242.22086,0.05090
3240.29212,0.05147
3238.36337,0.05202
3236.43463,0.05231
3234.50588,0.05255
3232.57713,0.05285
3230.64839,0.05296
3228.71964,0.05296
3226.79090,0.05317
3224.86215,0.05372
3222.93341,0.05453
3221.00466,0.05513
3219.07592,0.05540
3217.14717,0.05581
3215.21843,0.05629
3213.28968,0.05641
3211.36094,0.05643
3209.43219,0.05682
3207.50345,0.05752
3205.57470,0.05821
3203.64596,0.05880
3201.71721,0.05933
3199.78846,0.05971
3197.85972,0.06006
3195.93097,0.06045
3194.00223,0.06074
3192.07348,0.06097
3190.14474,0.06135
3188.21599,0.06205
3186.28725,0.06291
3184.35850,0.06346
3182.42976,0.06377
3180.50101,0.06425
3178.57227,0.06491
3176.64352,0.06542
3174.71478,0.06570
3172.78603,0.06605
3170.85729,0.06666
3168.92854,0.06731
3166.99979,0.06776
3165.07105,0.06814
3163.14230,0.06867
3161.21356,0.06933
3159.28481,0.07011
3157.35607,0.07091
3155.42732,0.07155
3153.49858,0.07208
3151.56983,0.07258
3149.64109,0.07311
3147.71234,0.07364
3145.78360,0.07424
3143.85485,0.07500
3141.92611,0.07566
3139.99736,0.07614
3138.06861,0.07674
3136.13987,0.07742
3134.21112,0.07791
3132.28238,0.07830
3130.35363,0.07882
3128.42489,0.07961
3126.49614,0.08048
3124.56740,0.08106
3122.63865,0.08149
3120.70991,0.08194
3118.78116,0.08251
3116.85242,0.08320
3114.92367,0.08386
3112.99493,0.08461
3111.06618,0.08557
3109.13744,0.08643
3107.20869,0.08707
3105.27994,0.08777
3103.35120,0.08866
3101.42245,0.08937
3099.49371,0.08970
3097.56496,0.09002
3095.63622,0.09055
3093.70747,0.09104
3091.77873,0.09138
3089.84998,0.09192
3087.92124,0.09287
3085.99249,0.09386
3084.06375,0.09456
3082.13500,0.09506
3080.20626,0.09553
3078.27751,0.09606
3076.34877,0.09663
3074.42002,0.09703
3072.49127,0.09737
3070.56253,0.09791
3068.63378,0.09860
3066.70504,0.09937
3064.77629,0.10017
3062.84755,0.10083
3060.91880,0.10141
3058.99006,0.10199
3057.06131,0.10249
3055.13257,0.10294
3053.20382,0.10356
3051.27508,0.10425
3049.34633,0.10481
3047.41759,0.10525
3045.48884,0.10562
3043.56009,0.10601
3041.63135,0.10654
3039.70260,0.10711
3037.77386,0.10758
3035.84511,0.10801
3033.91637,0.10844
3031.98762,0.10875
3030.05888,0.10880
3028.13013,0.10882
3026.20139,0.10909
3024.27264,0.10927
3022.34390,0.10905
3020.41515,0.10863
3018.48641,0.10827
3016.55766,0.10797
3014.62892,0.10745
3012.70017,0.10669
3010.77142,0.10604
3008.84268,0.10557
3006.91393,0.10504
3004.98519,0.10425
3003.05644,0.10341
3001.12770,0.10288
2999.19895,0.10265
2997.27021,0.10221
2995.34146,0.10126
2993.41272,0.10017
2991.48397,0.09912
2989.55523,0.09780
2987.62648,0.09621
2985.69774,0.09458
2983.76899,0.09281
2981.84025,0.09061
2979.91150,0.08824
2977.98275,0.08588
2976.05401,0.08338
2974.12526,0.08082
2972.19652,0.07853
2970.26777,0.07656
2968.33903,0.07488
2966.41028,0.07356
2964.48154,0.07252
2962.55279,0.07164
2960.62405,0.07078
2958.69530,0.06993
2956.76656,0.06925
2954.83781,0.06847
2952.90907,0.06743
2950.98032,0.06633
2949.05157,0.06510
2947.12283,0.06388
2945.19408,0.06287
2943.26534,0.06201
2941.33659,0.06140
2939.40785,0.06122
2937.47910,0.06127
2935.55036,0.06117
2933.62161,0.06082
2931.69287,0.06050
2929.76412,0.06043
2927.83538,0.06042
2925.90663,0.06014
2923.97789,0.05963
2922.04914,0.05938
2920.12040,0.05958
2918.19165,0.05972
2916.26290,0.05953
2914.33416,0.05938
2912.40541,0.05945
2910.47667,0.05956
2908.54792,0.05967
2906.61918,0.05979
2904.69043,0.05974
2902.76169,0.05950
2900.83294,0.05946
2898.90420,0.05987
2896.97545,0.06043
2895.04671,0.06081
2893.11796,0.06107
2891.18922,0.06137
2889.26047,0.06175
2887.33172,0.06210
2885.40298,0.06243
2883.47423,0.06280
2881.54549,0.06318
2879.61674,0.06350
2877.68800,0.06380
2875.75925,0.06412
2873.83051,0.06443
2871.90176,0.06477
2869.97302,0.06525
2868.04427,0.06583
2866.11553,0.06637
2864.18678,0.06699
2862.25804,0.06775
2860.32929,0.06858
2858.40055,0.06949
2856.47180,0.07038
2854.54305,0.07118
2852.61431,0.07212
2850.68556,0.07329
2848.75682,0.07463
2846.82807,0.07605
2844.89933,0.07753
2842.97058,0.07909
2841.04184,0.08074
2839.11309,0.08254
2837.18435,0.08445
2835.25560,0.08623
2833.32686,0.08800
2831.39811,0.09003
2829.46937,0.09216
2827.54062,0.09410
2825.61188,0.09584
2823.68313,0.09743
2821.75438,0.09898
2819.82564,0.10079
2817.89689,0.10283
2815.96815,0.10478
2814.03940,0.10653
2812.11066,0.10820
2810.18191,0.10970
2808.25317,0.11099
2806.32442,0.11224
2804.39568,0.11349
2802.46693,0.11473
2800.53819,0.11604
2798.60944,0.11733
2796.68070,0.11832
2794.75195,0.11894
2792.82320,0.11954
2790.89446,0.12040
2788.96571,0.12133
2787.03697,0.12205
2785.10822,0.12262
2783.17948,0.12324
2781.25073,0.12394
2779.32199,0.12448
2777.39324,0.12468
2775.46450,0.12476
2773.53575,0.12511
2771.60701,0.12568
2769.67826,0.12614
2767.74952,0.12631
2765.82077,0.12640
2763.89203,0.12674
2761.96328,0.12731
2760.03453,0.12790
2758.10579,0.12822
2756.17704,0.12819
2754.24830,0.12816
2752.31955,0.12850
2750.39081,0.12908
2748.46206,0.12953
2746.53332,0.12977
2744.60457,0.12989
2742.67583,0.12979
2740.74708,0.12952
2738.81834,0.12944
2736.88959,0.12970
2734.96085,0.13015
2733.03210,0.13065
2731.10336,0.13110
2729.17461,0.13151
2727.24586,0.13189
2725.31712,0.13226
2723.38837,0.13277
2721.45963,0.13352
2719.53088,0.13433
2717.60214,0.13488
2715.67339,0.13536
2713.74465,0.13614
2711.81590,0.13709
2709.88716,0.13792
2707.95841,0.13864
2706.02967,0.13943
2704.10092,0.14033
2702.17218,0.14125
2700.24343,0.14221
2698.31468,0.14306
2696.38594,0.14372
2694.45719,0.14439
2692.52845,0.14519
2690.59970,0.14606
2688.67096,0.14698
2686.74221,0.14795
2684.81347,0.14881
2682.88472,0.14952
2680.95598,0.15029
2679.02723,0.15115
2677.09849,0.15187
2675.16974,0.15245
2673.24100,0.15315
2671.31225,0.15397
2669.38351,0.15462
2667.45476,0.15508
2665.52601,0.15557
2663.59727,0.15602
2661.66852,0.15629
2659.73978,0.15672
2657.81103,0.15759
2655.88229,0.15852
2653.95354,0.15916
2652.02480,0.15968
2650.09605,0.16023
2648.16731,0.16085
2646.23856,0.16157
2644.30982,0.16225
2642.38107,0.16277
2640.45233,0.16328
2638.52358,0.16396
2636.59484,0.16481
2634.66609,0.16563
2632.73734,0.16628
2630.80860,0.16687
2628.87985,0.16753
2626.95111,0.16823
2625.02236,0.16890
2623.09362,0.16956
2621.16487,0.17021
2619.23613,0.17090
2617.30738,0.17156
2615.37864,0.17212
2613.44989,0.17255
2611.52115,0.17298
2609.59240,0.17346
2607.66366,0.17392
2605.73491,0.17434
2603.80616,0.17477
2601.87742,0.17531
2599.94867,0.17593
2598.01993,0.17651
2596.09118,0.17710
2594.16244,0.17775
2592.23369,0.17826
2590.30495,0.17864
2588.37620,0.17907
2586.44746,0.17957
2584.51871,0.18010
2582.58997,0.18059
2580.66122,0.18090
2578.73248,0.18114
2576.80373,0.18145
2574.87499,0.18174
2572.94624,0.18191
2571.01749,0.18203
2569.08875,0.18216
2567.16000,0.18224
2565.23126,0.18241
2563.30251,0.18274
2561.37377,0.18304
2559.44502,0.18322
2557.51628,0.18321
2555.58753,0.18321
2553.65879,0.18341
2551.73004,0.18355
2549.80130,0.18350
2547.87255,0.18341
2545.94381,0.18330
2544.01506,0.18329
2542.08631,0.18354
2540.15757,0.18385
2538.22882,0.18407
2536.30008,0.18438
2534.37133,0.18484
2532.44259,0.18524
2530.51384,0.18569
2528.58510,0.18639
2526.65635,0.18709
2524.72761,0.18754
2522.79886,0.18806
2520.87012,0.18869
2518.94137,0.18915
2517.01263,0.18953
2515.08388,0.19004
2513.15514,0.19076
2511.22639,0.19176
2509.29764,0.19283
2507.36890,0.19379
2505.44015,0.19477
2503.51141,0.19583
2501.58266,0.19690
2499.65392,0.19791
2497.72517,0.19883
2495.79643,0.19977
2493.86768,0.20076
2491.93894,0.20171
2490.01019,0.20263
2488.08145,0.20357
2486.15270,0.20447
2484.22396,0.20523
2482.29521,0.20598
2480.36647,0.20675
2478.43772,0.20738
2476.50897,0.20804
2474.58023,0.20891
2472.65148,0.20988
2470.72274,0.21084
2468.79399,0.21171
2466.86525,0.21251
2464.93650,0.21322
2463.00776,0.21373
2461.07901,0.21413
2459.15027,0.21473
2457.22152,0.21561
2455.29278,0.21660
2453.36403,0.21746
2451.43529,0.21824
2449.50654,0.21917
2447.57779,0.22016
2445.64905,0.22103
2443.72030,0.22180
2441.79156,0.22260
2439.86281,0.22358
2437.93407,0.22473
2436.00532,0.22580
2434.07658,0.22667
2432.14783,0.22762
2430.21909,0.22886
2428.29034,0.23011
2426.36160,0.23115
2424.43285,0.23224
2422.50411,0.23349
2420.57536,0.23454
2418.64662,0.23532
2416.71787,0.23615
2414.78912,0.23716
2412.86038,0.23823
2410.93163,0.23927
2409.00289,0.24027
2407.07414,0.24121
2405.14540,0.24209
2403.21665,0.24308
2401.28791,0.24403
2399.35916,0.24478
2397.43042,0.24565
2395.50167,0.24682
2393.57293,0.24801
2391.64418,0.24898
2389.71544,0.24975
2387.78669,0.25039
2385.85795,0.25101
2383.92920,0.25176
2382.00045,0.25272
2380.07171,0.25376
2378.14296,0.25474
2376.21422,0.25564
2374.28547,0.25648
2372.35673,0.25727
2370.42798,0.25810
2368.49924,0.25883
2366.57049,0.25934
2364.64175,0.25989
2362.71300,0.26061
2360.78426,0.26127
2358.85551,0.26189
2356.92677,0.26250
2354.99802,0.26295
2353.06927,0.26340
2351.14053,0.26410
2349.21178,0.26480
2347.28304,0.26530
2345.35429,0.26577
2343.42555,0.26637
2341.49680,0.26696
2339.56806,0.26755
2337.63931,0.26808
2335.71057,0.26834
2333.78182,0.26838
2331.85308,0.26859
2329.92433,0.26912
2327.99559,0.26969
2326.06684,0.27003
2324.13810,0.27015
2322.20935,0.27017
2320.28060,0.27022
2318.35186,0.27039
2316.42311,0.27068
2314.49437,0.27091
2312.56562,0.27093
2310.63688,0.27078
2308.70813,0.27069
2306.77939,0.27064
2304.85064,0.27054
2302.92190,0.27038
2300.99315,0.27016
2299.06441,0.26986
2297.13566,0.26958
2295.20692,0.26939
2293.27817,0.26917
2291.34943,0.26887
2289.42068,0.26865
2287.49193,0.26846
2285.56319,0.26816
2283.63444,0.26786
2281.70570,0.26766
2279.77695,0.26745
2277.84821,0.26708
2275.91946,0.26658
2273.99072,0.26614
2272.06197,0.26570
2270.13323,0.26501
2268.20448,0.26398
2266.27574,0.26287
2264.34699,0.26193
2262.41825,0.26106
2260.48950,0.26027
2258.56075,0.25971
2256.63201,0.25935
2254.70326,0.25905
2252.77452,0.25874
2250.84577,0.25836
2248.91703,0.25787
2246.98828,0.25737
2245.05954,0.25702
2243.13079,0.25677
2241.20205,0.25655
2239.27330,0.25636
2237.34456,0.25603
2235.41581,0.25559
2233.48707,0.25522
2231.55832,0.25496
2229.62958,0.25468
2227.70083,0.25437
2225.77208,0.25419
2223.84334,0.25429
2221.91459,0.25447
2219.98585,0.25448
2218.05710,0.25445
2216.12836,0.25448
2214.19961,0.25441
2212.27087,0.25416
2210.34212,0.25382
2208.41338,0.25346
2206.48463,0.25304
2204.55589,0.25252
2202.62714,0.25198
2200.69840,0.25142
2198.76965,0.25075
2196.84090,0.25005
2194.91216,0.24939
2192.98341,0.24855
2191.05467,0.24738
2189.12592,0.24606
2187.19718,0.24473
2185.26843,0.24336
2183.33969,0.24211
2181.41094,0.24103
2179.48220,0.23988
2177.55345,0.23867
2175.62471,0.23749
2173.69596,0.23632
2171.76722,0.23516
2169.83847,0.23402
2167.90973,0.23289
2165.98098,0.23171
2164.05223,0.23056
2162.12349,0.22959
2160.19474,0.22884
2158.26600,0.22809
2156.33725,0.22728
2154.40851,0.22660
2152.47976,0.22605
2150.55102,0.22557
2148.62227,0.22507
2146.69353,0.22447
2144.76478,0.22386
2142.83604,0.22331
2140.90729,0.22285
2138.97855,0.22249
2137.04980,0.22223
2135.12106,0.22209
2133.19231,0.22221
2131.26356,0.22258
2129.33482,0.22290
2127.40607,0.22303
2125.47733,0.22315
2123.54858,0.22348
2121.61984,0.22387
2119.69109,0.22417
2117.76235,0.22454
2115.83360,0.22502
2113.90486,0.22550
2111.97611,0.22592
2110.04737,0.22627
2108.11862,0.22666
2106.18988,0.22718
2104.26113,0.22767
2102.33238,0.22807
2100.40364,0.22835
2098.47489,0.22856
2096.54615,0.22892
2094.61740,0.22937
2092.68866,0.22972
2090.75991,0.23008
2088.83117,0.23033
2086.90242,0.23033
2084.97368,0.23026
2083.04493,0.23017
2081.11619,0.22995
2079.18744,0.22966
2077.25870,0.22938
2075.32995,0.22890
2073.40121,0.22823
2071.47246,0.22771
2069.54371,0.22735
2067.61497,0.22705
2065.68622,0.22679
2063.75748,0.22657
2061.82873,0.22644
2059.89999,0.22634
2057.97124,0.22622
2056.04250,0.22620
2054.11375,0.22629
2052.18501,0.22632
2050.25626,0.22632
2048.32752,0.22642
2046.39877,0.22676
2044.47003,0.22743
2042.54128,0.22824
2040.61254,0.22901
2038.68379,0.22989
2036.75504,0.23096
2034.82630,0.23196
2032.89755,0.23277
2030.96881,0.23374
2029.04006,0.23507
2027.11132,0.23653
2025.18257,0.23789
2023.25383,0.23920
2021.32508,0.24047
2019.39634,0.24161
2017.46759,0.24265
2015.53885,0.24377
2013.61010,0.24502
2011.68136,0.24613
2009.75261,0.24691
2007.82386,0.24754
2005.89512,0.24823
2003.96637,0.24897
2002.03763,0.24968
2000.10888,0.25030
1998.18014,0.25086
1996.25139,0.25142
1994.32265,0.25201
1992.39390,0.25273
1990.46516,0.25357
1988.53641,0.25432
1986.60767,0.25497
1984.67892,0.25564
1982.75018,0.25632
1980.82143,0.25678
1978.89269,0.25710
1976.96394,0.25760
1975.03519,0.25823
1973.10645,0.25870
1971.17770,0.25905
1969.24896,0.25961
1967.32021,0.26038
1965.39147,0.26114
1963.46272,0.26186
1961.53398,0.26266
1959.60523,0.26358
1957.67649,0.26455
1955.74774,0.26554
1953.81900,0.26654
1951.89025,0.26753
1949.96151,0.26854
1948.03276,0.26963
1946.10402,0.27073
1944.17527,0.27182
1942.24652,0.27281
1940.31778,0.27368
1938.38903,0.27457
1936.46029,0.27545
1934.53154,0.27619
1932.60280,0.27686
1930.67405,0.27749
1928.74531,0.27797
1926.81656,0.27832
1924.88782,0.27863
1922.95907,0.27896
1921.03033,0.27933
1919.10158,0.27964
1917.17284,0.27983
1915.24409,0.27997
1913.31534,0.28009
1911.38660,0.28020
1909.45785,0.28013
1907.52911,0.27983
1905.60036,0.27954
1903.67162,0.27946
1901.74287,0.27946
1899.81413,0.27933
1897.88538,0.27912
1895.95664,0.27890
1894.02789,0.27866
1892.09915,0.27840
1890.17040,0.27811
1888.24166,0.27778
1886.31291,0.27750
1884.38417,0.27738
1882.45542,0.27731
1880.52667,0.27714
1878.59793,0.27688
1876.66918,0.27667
1874.74044,0.27643
1872.81169,0.27604
1870.88295,0.27573
1868.95420,0.27566
1867.02546,0.27556
1865.09671,0.27515
1863.16797,0.27459
1861.23922,0.27411
1859.31048,0.27360
1857.38173,0.27296
1855.45299,0.27229
1853.52424,0.27172
1851.59549,0.27114
1849.66675,0.27041
1847.73800,0.26956
1845.80926,0.26861
1843.88051,0.26748
1841.95177,0.26633
1840.02302,0.26534
1838.09428,0.26448
1836.16553,0.26367
1834.23679,0.26274
1832.30804,0.26167
1830.37930,0.26054
1828.45055,0.25931
1826.52181,0.25799
1824.59306,0.25649
1822.66432,0.25490
1820.73557,0.25349
1818.80682,0.25212
1816.87808,0.25041
1814.94933,0.24843
1813.02059,0.24649
1811.09184,0.24452
1809.16310,0.24238
1807.23435,0.24014
1805.30561,0.23780
1803.37686,0.23528
1801.44812,0.23253
1799.51937,0.22960
1797.59063,0.22656
1795.66188,0.22348
1793.73314,0.22020
1791.80439,0.21644
1789.87565,0.21267
1787.94690,0.20914
1786.01815,0.20536
1784.08941,0.20099
1782.16066,0.19623
1780.23192,0.19114
1778.30317,0.18565
1776.37443,0.17992
1774.44568,0.17370
1772.51694,0.16617
1770.58819,0.15773
1768.65945,0.14940
1766.73070,0.14110
1764.80196,0.13290
1762.87321,0.12449
1760.94447,0.11589
1759.01572,0.10807
1757.08697,0.10086
1755.15823,0.09431
1753.22948,0.08880
1751.30074,0.08398
1749.37199,0.07989
1747.44325,0.07670
1745.51450,0.07428
1743.58576,0.07254
1741.65701,0.07132
1739.72827,0.07049
1737.79952,0.07005
1735.87078,0.06991
1733.94203,0.07010
1732.01329,0.07064
1730.08454,0.07131
1728.15580,0.07215
1726.22705,0.07322
1724.29830,0.07456
1722.36956,0.07619
1720.44081,0.07796
1718.51207,0.07997
1716.58332,0.08226
1714.65458,0.08458
1712.72583,0.08690
1710.79709,0.08927
1708.86834,0.09155
1706.93960,0.09354
1705.01085,0.09502
1703.08211,0.09603
1701.15336,0.09682
1699.22462,0.09736
1697.29587,0.09728
1695.36713,0.09635
1693.43838,0.09499
1691.50963,0.09375
1689.58089,0.09252
1687.65214,0.09117
1685.72340,0.08939
1683.79465,0.08677
1681.86591,0.08402
1679.93716,0.08168
1678.00842,0.07961
1676.07967,0.07764
1674.15093,0.07558
1672.22218,0.07357
1670.29344,0.07162
1668.36469,0.06980
1666.43595,0.06861
1664.50720,0.06796
1662.57845,0.06755
1660.64971,0.06732
1658.72096,0.06736
1656.79222,0.06773
1654.86347,0.06830
1652.93473,0.06889
1651.00598,0.06939
1649.07724,0.06979
1647.14849,0.07002
1645.21975,0.06999
1643.29100,0.06988
1641.36226,0.06982
1639.43351,0.06983
1637.50477,0.06977
1635.57602,0.06969
1633.64728,0.06974
1631.71853,0.06993
1629.78978,0.07021
1627.86104,0.07026
1625.93229,0.06986
1624.00355,0.06933
1622.07480,0.06915
1620.14606,0.06921
1618.21731,0.06901
1616.28857,0.06824
1614.35982,0.06720
1612.43108,0.06622
1610.50233,0.06527
1608.57359,0.06447
1606.64484,0.06389
1604.71610,0.06348
1602.78735,0.06329
1600.85861,0.06333
1598.92986,0.06339
1597.00111,0.06327
1595.07237,0.06328
1593.14362,0.06378
1591.21488,0.06466
1589.28613,0.06580
1587.35739,0.06730
1585.42864,0.06923
1583.49990,0.07157
1581.57115,0.07445
1579.64241,0.07778
1577.71366,0.08158
1575.78492,0.08598
1573.85617,0.09015
1571.92743,0.09380
1569.99868,0.09756
1568.06993,0.10124
1566.14119,0.10418
1564.21244,0.10638
1562.28370,0.10813
1560.35495,0.10967
1558.42621,0.11085
1556.49746,0.11133
1554.56872,0.11145
1552.63997,0.11148
1550.71123,0.11146
1548.78248,0.11125
1546.85374,0.11074
1544.92499,0.11004
1542.99625,0.10911
1541.06750,0.10754
1539.13876,0.10496
1537.21001,0.10226
1535.28126,0.09957
1533.35252,0.09608
1531.42377,0.09186
1529.49503,0.08724
1527.56628,0.08190
1525.63754,0.07596
1523.70879,0.06997
1521.78005,0.06359
1519.85130,0.05745
1517.92256,0.05275
1515.99381,0.04955
1514.06507,0.04781
1512.13632,0.04713
1510.20758,0.04704
1508.27883,0.04759
1506.35008,0.04911
1504.42134,0.05110
1502.49259,0.05304
1500.56385,0.05514
1498.63510,0.05750
1496.70636,0.05986
1494.77761,0.06172
1492.84887,0.06290
1490.92012,0.06356
1488.99138,0.06359
1487.06263,0.06278
1485.13389,0.06155
1483.20514,0.06028
1481.27640,0.05892
1479.34765,0.05735
1477.41891,0.05554
1475.49016,0.05353
1473.56141,0.05140
1471.63267,0.04932
1469.70392,0.04770
1467.77518,0.04662
1465.84643,0.04587
1463.91769,0.04531
1461.98894,0.04503
1460.06020,0.04501
1458.13145,0.04496
1456.20271,0.04455
1454.27396,0.04410
1452.34522,0.04402
1450.41647,0.04429
1448.48773,0.04477
1446.55898,0.04526
1444.63024,0.04551
1442.70149,0.04539
1440.77274,0.04495
1438.84400,0.04432
1436.91525,0.04350
1434.98651,0.04263
1433.05776,0.04199
1431.12902,0.04160
1429.20027,0.04144
1427.27153,0.04152
1425.34278,0.04189
1423.41404,0.04253
1421.48529,0.04324
1419.55655,0.04384
1417.62780,0.04453
1415.69906,0.04530
1413.77031,0.04585
1411.84156,0.04605
1409.91282,0.04615
1407.98407,0.04641
1406.05533,0.04664
1404.12658,0.04667
1402.19784,0.04671
1400.26909,0.04686
1398.34035,0.04684
1396.41160,0.04649
1394.48286,0.04602
1392.55411,0.04554
1390.62537,0.04483
1388.69662,0.04389
1386.76788,0.04300
1384.83913,0.04222
1382.91039,0.04146
1380.98164,0.04076
1379.05289,0.04021
1377.12415,0.03990
1375.19540,0.03979
1373.26666,0.03983
1371.33791,0.04000
1369.40917,0.04031
1367.48042,0.04073
1365.55168,0.04116
1363.62293,0.04158
1361.69419,0.04204
1359.76544,0.04245
1357.83670,0.04277
1355.90795,0.04311
1353.97921,0.04345
1352.05046,0.04367
1350.12172,0.04379
1348.19297,0.04377
1346.26422,0.04356
1344.33548,0.04333
1342.40673,0.04317
1340.47799,0.04295
1338.54924,0.04256
1336.62050,0.04223
1334.69175,0.04212
1332.76301,0.04197
1330.83426,0.04180
1328.90552,0.04190
1326.97677,0.04206
1325.04803,0.04190
1323.11928,0.04152
1321.19054,0.04120
1319.26179,0.04108
1317.33304,0.04125
1315.40430,0.04159
1313.47555,0.04187
1311.54681,0.04214
1309.61806,0.04253
1307.68932,0.04288
1305.76057,0.04299
1303.83183,0.04294
1301.90308,0.04297
1299.97434,0.04294
1298.04559,0.04268
1296.11685,0.04228
1294.18810,0.04186
1292.25936,0.04138
1290.33061,0.04086
1288.40187,0.04033
1286.47312,0.03982
1284.54437,0.03934
1282.61563,0.03885
1280.68688,0.03843
1278.75814,0.03820
1276.82939,0.03810
1274.90065,0.03803
1272.97190,0.03807
1271.04316,0.03816
1269.11441,0.03829
1267.18567,0.03846
1265.25692,0.03866
1263.32818,0.03902
1261.39943,0.03963
1259.47069,0.04021
1257.54194,0.04055
1255.61320,0.04082
1253.68445,0.04094
1251.75570,0.04078
1249.82696,0.04062
1247.89821,0.04064
1245.96947,0.04066
1244.04072,0.04046
1242.11198,0.04026
1240.18323,0.04022
1238.25449,0.04020
1236.32574,0.04018
1234.39700,0.04023
1232.46825,0.04034
1230.53951,0.04052
1228.61076,0.04081
1226.68202,0.04111
1224.75327,0.04127
1222.82452,0.04143
1220.89578,0.04167
1218.96703,0.04182
1217.03829,0.04186
1215.10954,0.04195
1213.18080,0.04194
1211.25205,0.04158
1209.32331,0.04108
1207.39456,0.04072
1205.46582,0.04054
1203.53707,0.04053
1201.60833,0.04069
1199.67958,0.04097
1197.75084,0.04120
1195.82209,0.04108
1193.89335,0.04070
1191.96460,0.04041
1190.03585,0.04001
1188.10711,0.03916
1186.17836,0.03810
1184.24962,0.03713
1182.32087,0.03623
1180.39213,0.03541
1178.46338,0.03474
1176.53464,0.03422
1174.60589,0.03377
1172.67715,0.03342
1170.74840,0.03340
1168.81966,0.03384
1166.89091,0.03468
1164.96217,0.03572
1163.03342,0.03674
1161.10467,0.03770
1159.17593,0.03842
1157.24718,0.03861
1155.31844,0.03836
1153.38969,0.03796
1151.46095,0.03751
1149.53220,0.03700
1147.60346,0.03643
1145.67471,0.03579
1143.74597,0.03516
1141.81722,0.03467
1139.88848,0.03444
1137.95973,0.03413
1136.03099,0.03335
1134.10224,0.03236
1132.17350,0.03164
1130.24475,0.03129
1128.31600,0.03122
1126.38726,0.03137
1124.45851,0.03181
1122.52977,0.03252
1120.60102,0.03323
1118.67228,0.03363
1116.74353,0.03388
1114.81479,0.03438
1112.88604,0.03514
1110.95730,0.03594
1109.02855,0.03657
1107.09981,0.03677
1105.17106,0.03685
1103.24232,0.03718
1101.31357,0.03742
1099.38483,0.03734
1097.45608,0.03727
1095.52733,0.03731
1093.59859,0.03711
1091.66984,0.03660
1089.74110,0.03624
1087.81235,0.03634
1085.88361,0.03671
1083.95486,0.03716
1082.02612,0.03798
1080.09737,0.03944
1078.16863,0.04116
1076.23988,0.04277
1074.31114,0.04421
1072.38239,0.04562
1070.45365,0.04719
1068.52490,0.04873
1066.59615,0.05032
1064.66741,0.05249
1062.73866,0.05496
1060.80992,0.05702
1058.88117,0.05845
1056.95243,0.05921
1055.02368,0.05925
1053.09494,0.05876
1051.16619,0.05794
1049.23745,0.05708
1047.30870,0.05641
1045.37996,0.05567
1043.45121,0.05500
1041.52247,0.05513
1039.59372,0.05635
1037.66498,0.05852
1035.73623,0.06083
1033.80748,0.06233
1031.87874,0.06315
1029.94999,0.06362
1028.02125,0.06359
1026.09250,0.06324
1024.16376,0.06296
1022.23501,0.06306
1020.30627,0.06350
1018.37752,0.06384
1016.44878,0.06410
1014.52003,0.06452
1012.59129,0.06494
1010.66254,0.06524
1008.73380,0.06523
1006.80505,0.06470
1004.87631,0.06410
1002.94756,0.06410
1001.01881,0.06456
999.09007,0.06495
997.16132,0.06527
995.23258,0.06586
993.30383,0.06673
991.37509,0.06753
989.44634,0.06810
987.51760,0.06880
985.58885,0.07002
983.66011,0.07176
981.73136,0.07370
979.80262,0.07547
977.87387,0.07701
975.94513,0.07824
974.01638,0.07890
972.08763,0.07934
970.15889,0.08004
968.23014,0.08088
966.30140,0.08176
964.37265,0.08274
962.44391,0.08377
960.51516,0.08483
958.58642,0.08593
956.65767,0.08702
954.72893,0.08795
952.80018,0.08876
950.87144,0.08968
948.94269,0.09062
947.01395,0.09136
945.08520,0.09203
943.15646,0.09267
941.22771,0.09330
939.29896,0.09417
937.37022,0.09508
935.44147,0.09567
933.51273,0.09609
931.58398,0.09664
929.65524,0.09733
927.72649,0.09803
925.79775,0.09850
923.86900,0.09855
921.94026,0.09829
920.01151,0.09786
918.08277,0.09708
916.15402,0.09574
914.22528,0.09410
912.29653,0.09243
910.36779,0.09064
908.43904,0.08862
906.51029,0.08631
904.58155,0.08395
902.65280,0.08211
900.72406,0.08097
898.79531,0.08037
896.86657,0.08043
894.93782,0.08118
893.00908,0.08225
891.08033,0.08337
889.15159,0.08463
887.22284,0.08603
885.29410,0.08717
883.36535,0.08768
881.43661,0.08778
879.50786,0.08789
877.57911,0.08820
875.65037,0.08858
873.72162,0.08884
871.79288,0.08913
869.86413,0.08967
867.93539,0.09020
866.00664,0.09045
864.07790,0.09078
862.14915,0.09156
860.22041,0.09256
858.29166,0.09347
856.36292,0.09419
854.43417,0.09489
852.50543,0.09586
850.57668,0.09694
848.64794,0.09786
846.71919,0.09858
844.79044,0.09886
842.86170,0.09860
840.93295,0.09804
839.00421,0.09725
837.07546,0.09619
835.14672,0.09504
833.21797,0.09404
831.28923,0.09300
829.36048,0.09178
827.43174,0.09049
825.50299,0.08916
823.57425,0.08767
821.64550,0.08597
819.71676,0.08426
817.78801,0.08269
815.85926,0.08110
813.93052,0.07961
812.00177,0.07867
810.07303,0.07841
808.14428,0.07852
806.21554,0.07866
804.28679,0.07900
802.35805,0.07952
800.42930,0.07993
798.50056,0.08038
796.57181,0.08087
794.64307,0.08103
792.71432,0.08093
790.78558,0.08070
788.85683,0.08014
786.92809,0.07922
784.99934,0.07807
783.07059,0.07689
781.14185,0.07614
779.21310,0.07576
777.28436,0.07516
775.35561,0.07425
773.42687,0.07345
771.49812,0.07308
769.56938,0.07311
767.64063,0.07302
765.71189,0.07254
763.78314,0.07215
761.85440,0.07195
759.92565,0.07149
757.99691,0.07083
756.06816,0.07034
754.13942,0.06995
752.21067,0.06926
750.28192,0.06833
748.35318,0.06744
746.42443,0.06668
744.49569,0.06617
742.56694,0.06586
740.63820,0.06553
738.70945,0.06504
736.78071,0.06438
734.85196,0.06375
732.92322,0.06308
730.99447,0.06218
729.06573,0.06132
727.13698,0.06055
725.20824,0.05958
723.27949,0.05879
721.35074,0.05877
719.42200,0.05904
717.49325,0.05899
715.56451,0.05884
713.63576,0.05863
711.70702,0.05806
709.77827,0.05730
707.84953,0.05674
705.92078,0.05662
703.99204,0.05687
702.06329,0.05698
700.13455,0.05663
698.20580,0.05607
696.27706,0.05577
694.34831,0.05568
692.41957,0.05520
690.49082,0.05429
688.56207,0.05364
686.63333,0.05346
684.70458,0.05320
682.77584,0.05270
680.84709,0.05239
678.91835,0.05233
676.98960,0.05194
675.06086,0.05122
673.13211,0.05090
671.20337,0.05097
669.27462,0.05068
667.34588,0.05009
665.41713,0.04982
663.48839,0.04986
661.55964,0.05030
659.63090,0.05109
657.70215,0.05137
655.77340,0.05114
653.84466,0.05099
651.91591,0.05098
649.98717,0.05098
648.05842,0.05062
646.12968,0.04981
644.20093,0.04901
642.27219,0.04843
640.34344,0.04816
638.41470,0.04827
636.48595,0.04853
634.55721,0.04868
632.62846,0.04874
630.69972,0.04822
628.77097,0.04719
626.84222,0.04685
624.91348,0.04698
622.98473,0.04663
621.05599,0.04634
619.12724,0.04683
617.19850,0.04758
615.26975,0.04847
613.34101,0.04967
611.41226,0.05044
609.48352,0.05088
607.55477,0.05139
605.62603,0.05156
603.69728,0.05138
601.76854,0.05067
599.83979,0.04912
