7497.03301,0.79724
7495.10426,0.79688
7493.17552,0.79975
7491.24677,0.80108
7489.31803,0.79854
7487.38928,0.79363
7485.46054,0.78875
7483.53179,0.78865
7481.60305,0.79437
7479.67430,0.79893
7477.74556,0.79959
7475.81681,0.80053
7473.88807,0.80144
7471.95932,0.79933
7470.03057,0.79505
7468.10183,0.78959
7466.17308,0.78417
7464.24434,0.78182
7462.31559,0.78190
7460.38685,0.78293
7458.45810,0.78448
7456.52936,0.78268
7454.60061,0.77916
7452.67187,0.78127
7450.74312,0.78591
7448.81438,0.78509
7446.88563,0.77969
7444.95689,0.77485
7443.02814,0.77358
7441.09940,0.77454
7439.17065,0.77555
7437.24190,0.77778
7435.31316,0.78007
7433.38441,0.78019
7431.45567,0.77835
7429.52692,0.77477
7427.59818,0.77185
7425.66943,0.77238
7423.74069,0.77416
7421.81194,0.77308
7419.88320,0.76980
7417.95445,0.76729
7416.02571,0.76521
7414.09696,0.76265
7412.16822,0.76125
7410.23947,0.76067
7408.31073,0.75907
7406.38198,0.75880
7404.45323,0.76164
7402.52449,0.76525
7400.59574,0.76517
7398.66700,0.76036
7396.73825,0.75768
7394.80951,0.75825
7392.88076,0.75691
7390.95202,0.75565
7389.02327,0.75649
7387.09453,0.75863
7385.16578,0.76169
7383.23704,0.76057
7381.30829,0.75336
7379.37955,0.75092
7377.45080,0.75751
7375.52205,0.76192
7373.59331,0.75858
7371.66456,0.75253
7369.73582,0.74993
7367.80707,0.75290
7365.87833,0.75597
7363.94958,0.75489
7362.02084,0.75256
7360.09209,0.75085
7358.16335,0.74804
7356.23460,0.74644
7354.30586,0.74894
7352.37711,0.75096
7350.44837,0.74816
7348.51962,0.74379
7346.59088,0.74430
7344.66213,0.75058
7342.73338,0.75730
7340.80464,0.75941
7338.87589,0.75506
7336.94715,0.74699
7335.01840,0.74033
7333.08966,0.73932
7331.16091,0.74264
7329.23217,0.74455
7327.30342,0.74281
7325.37468,0.73773
7323.44593,0.73208
7321.51719,0.72987
7319.58844,0.72891
7317.65970,0.72740
7315.73095,0.72949
7313.80221,0.73435
7311.87346,0.73715
7309.94471,0.73859
7308.01597,0.73962
7306.08722,0.74000
7304.15848,0.74039
7302.22973,0.74036
7300.30099,0.74017
7298.37224,0.73984
7296.44350,0.73946
7294.51475,0.73937
7292.58601,0.73779
7290.65726,0.73347
7288.72852,0.72768
7286.79977,0.72462
7284.87103,0.72670
7282.94228,0.73128
7281.01353,0.73479
7279.08479,0.73516
7277.15604,0.73248
7275.22730,0.72899
7273.29855,0.72855
7271.36981,0.73184
7269.44106,0.73459
7267.51232,0.73489
7265.58357,0.73400
7263.65483,0.73367
7261.72608,0.73454
7259.79734,0.73312
7257.86859,0.72775
7255.93985,0.72338
7254.01110,0.72377
7252.08236,0.72630
7250.15361,0.72725
7248.22486,0.72723
7246.29612,0.72875
7244.36737,0.73111
7242.43863,0.73171
7240.50988,0.73065
7238.58114,0.73091
7236.65239,0.73430
7234.72365,0.73585
7232.79490,0.73043
7230.86616,0.72443
7228.93741,0.72432
7227.00867,0.72658
7225.07992,0.72645
7223.15118,0.72528
7221.22243,0.72779
7219.29369,0.73102
7217.36494,0.72957
7215.43619,0.72751
7213.50745,0.72783
7211.57870,0.72749
7209.64996,0.72498
7207.72121,0.72082
7205.79247,0.71691
7203.86372,0.71684
7201.93498,0.72056
7200.00623,0.72343
7198.07749,0.72393
7196.14874,0.72342
7194.22000,0.72326
7192.29125,0.72362
7190.36251,0.72175
7188.43376,0.71931
7186.50501,0.71941
7184.57627,0.71940
7182.64752,0.71915
7180.71878,0.71930
7178.79003,0.71871
7176.86129,0.71874
7174.93254,0.71765
7173.00380,0.71332
7171.07505,0.70899
7169.14631,0.70856
7167.21756,0.71215
7165.28882,0.71334
7163.36007,0.70885
7161.43133,0.70627
7159.50258,0.70731
7157.57384,0.70473
7155.64509,0.69940
7153.71634,0.69560
7151.78760,0.69295
7149.85885,0.69270
7147.93011,0.69604
7146.00136,0.69967
7144.07262,0.70156
7142.14387,0.70240
7140.21513,0.70101
7138.28638,0.69655
7136.35764,0.69250
7134.42889,0.69202
7132.50015,0.69237
7130.57140,0.68975
7128.64266,0.68518
7126.71391,0.68094
7124.78516,0.67816
7122.85642,0.67794
7120.92767,0.67985
7118.99893,0.68102
7117.07018,0.68100
7115.14144,0.68084
7113.21269,0.67811
7111.28395,0.67477
7109.35520,0.67509
7107.42646,0.67592
7105.49771,0.67525
7103.56897,0.67530
7101.64022,0.67491
7099.71148,0.67122
7097.78273,0.66518
7095.85399,0.66085
7093.92524,0.66048
7091.99649,0.66265
7090.06775,0.66395
7088.13900,0.66352
7086.21026,0.66204
7084.28151,0.65754
7082.35277,0.65249
7080.42402,0.65278
7078.49528,0.65633
7076.56653,0.65637
7074.63779,0.65216
7072.70904,0.64839
7070.78030,0.64691
7068.85155,0.64490
7066.92281,0.64073
7064.99406,0.63588
7063.06532,0.63228
7061.13657,0.63114
7059.20782,0.63117
7057.27908,0.62979
7055.35033,0.62806
7053.42159,0.62705
7051.49284,0.62647
7049.56410,0.62803
7047.63535,0.62948
7045.70661,0.62791
7043.77786,0.62703
7041.84912,0.62729
7039.92037,0.62380
7037.99163,0.61694
7036.06288,0.61185
7034.13414,0.61096
7032.20539,0.61205
7030.27664,0.61234
7028.34790,0.60959
7026.41915,0.60323
7024.49041,0.59951
7022.56166,0.60238
7020.63292,0.60559
7018.70417,0.60490
7016.77543,0.60316
7014.84668,0.60082
7012.91794,0.59578
7010.98919,0.59154
7009.06045,0.59230
7007.13170,0.59535
7005.20296,0.59676
7003.27421,0.59510
7001.34547,0.59131
6999.41672,0.58860
6997.48797,0.58878
6995.55923,0.58943
6993.63048,0.58761
6991.70174,0.58492
6989.77299,0.58504
6987.84425,0.58796
6985.91550,0.58922
6983.98676,0.58676
6982.05801,0.58409
6980.12927,0.58259
6978.20052,0.58075
6976.27178,0.57916
6974.34303,0.57871
6972.41429,0.57962
6970.48554,0.58104
6968.55680,0.58083
6966.62805,0.58019
6964.69930,0.58089
6962.77056,0.58065
6960.84181,0.58016
6958.91307,0.58233
6956.98432,0.58468
6955.05558,0.58417
6953.12683,0.58187
6951.19809,0.57953
6949.26934,0.57881
6947.34060,0.57987
6945.41185,0.57918
6943.48311,0.57664
6941.55436,0.57608
6939.62562,0.57596
6937.69687,0.57394
6935.76812,0.57272
6933.83938,0.57351
6931.91063,0.57331
6929.98189,0.57123
6928.05314,0.57156
6926.12440,0.57609
6924.19565,0.58046
6922.26691,0.58039
6920.33816,0.57734
6918.40942,0.57570
6916.48067,0.57573
6914.55193,0.57491
6912.62318,0.57472
6910.69444,0.57692
6908.76569,0.57757
6906.83695,0.57460
6904.90820,0.57216
6902.97945,0.57293
6901.05071,0.57595
6899.12196,0.57861
6897.19322,0.57764
6895.26447,0.57479
6893.33573,0.57497
6891.40698,0.57662
6889.47824,0.57684
6887.54949,0.57662
6885.62075,0.57539
6883.69200,0.57363
6881.76326,0.57348
6879.83451,0.57436
6877.90577,0.57436
6875.97702,0.57258
6874.04828,0.57041
6872.11953,0.56985
6870.19078,0.57128
6868.26204,0.57263
6866.33329,0.57275
6864.40455,0.57346
6862.47580,0.57433
6860.54706,0.57392
6858.61831,0.57479
6856.68957,0.57773
6854.76082,0.57907
6852.83208,0.57842
6850.90333,0.57825
6848.97459,0.57744
6847.04584,0.57437
6845.11710,0.57075
6843.18835,0.56947
6841.25960,0.57118
6839.33086,0.57292
6837.40211,0.57304
6835.47337,0.57287
6833.54462,0.57141
6831.61588,0.56828
6829.68713,0.56743
6827.75839,0.56973
6825.82964,0.57077
6823.90090,0.56865
6821.97215,0.56693
6820.04341,0.56775
6818.11466,0.56909
6816.18592,0.57018
6814.25717,0.57052
6812.32843,0.56950
6810.39968,0.56843
6808.47093,0.56754
6806.54219,0.56750
6804.61344,0.56926
6802.68470,0.57110
6800.75595,0.57217
6798.82721,0.57231
6796.89846,0.57046
6794.96972,0.56807
6793.04097,0.56832
6791.11223,0.57069
6789.18348,0.57091
6787.25474,0.56806
6785.32599,0.56634
6783.39725,0.56799
6781.46850,0.57030
6779.53975,0.57046
6777.61101,0.56917
6775.68226,0.56925
6773.75352,0.57093
6771.82477,0.57200
6769.89603,0.57221
6767.96728,0.57129
6766.03854,0.56882
6764.10979,0.56716
6762.18105,0.56815
6760.25230,0.57024
6758.32356,0.57081
6756.39481,0.57004
6754.46607,0.56991
6752.53732,0.57038
6750.60858,0.57078
6748.67983,0.57121
6746.75108,0.57144
6744.82234,0.57171
6742.89359,0.57258
6740.96485,0.57307
6739.03610,0.57307
6737.10736,0.57298
6735.17861,0.57094
6733.24987,0.56827
6731.32112,0.56849
6729.39238,0.57045
6727.46363,0.57148
6725.53489,0.57136
6723.60614,0.57172
6721.67740,0.57342
6719.74865,0.57491
6717.81991,0.57489
6715.89116,0.57456
6713.96241,0.57459
6712.03367,0.57412
6710.10492,0.57453
6708.17618,0.57599
6706.24743,0.57603
6704.31869,0.57484
6702.38994,0.57343
6700.46120,0.57277
6698.53245,0.57339
6696.60371,0.57370
6694.67496,0.57305
6692.74622,0.57188
6690.81747,0.57105
6688.88873,0.57157
6686.95998,0.57207
6685.03123,0.57116
6683.10249,0.57013
6681.17374,0.57004
6679.24500,0.57032
6677.31625,0.57048
6675.38751,0.57081
6673.45876,0.57197
6671.53002,0.57454
6669.60127,0.57698
6667.67253,0.57661
6665.74378,0.57478
6663.81504,0.57501
6661.88629,0.57648
6659.95755,0.57696
6658.02880,0.57754
6656.10006,0.57891
6654.17131,0.58003
6652.24256,0.58042
6650.31382,0.58053
6648.38507,0.58104
6646.45633,0.58088
6644.52758,0.57919
6642.59884,0.57803
6640.67009,0.57870
6638.74135,0.58039
6636.81260,0.58145
6634.88386,0.58088
6632.95511,0.58034
6631.02637,0.58089
6629.09762,0.58120
6627.16888,0.58071
6625.24013,0.58013
6623.31139,0.57939
6621.38264,0.57857
6619.45389,0.58005
6617.52515,0.58443
6615.59640,0.58817
6613.66766,0.58897
6611.73891,0.58761
6609.81017,0.58615
6607.88142,0.58615
6605.95268,0.58660
6604.02393,0.58643
6602.09519,0.58666
6600.16644,0.58803
6598.23770,0.58961
6596.30895,0.58938
6594.38021,0.58694
6592.45146,0.58543
6590.52271,0.58782
6588.59397,0.59206
6586.66522,0.59362
6584.73648,0.59231
6582.80773,0.59052
6580.87899,0.58920
6578.95024,0.58886
6577.02150,0.58937
6575.09275,0.59034
6573.16401,0.59107
6571.23526,0.59105
6569.30652,0.59216
6567.37777,0.59431
6565.44903,0.59427
6563.52028,0.59223
6561.59154,0.59092
6559.66279,0.59090
6557.73404,0.59115
6555.80530,0.59139
6553.87655,0.59210
6551.94781,0.59221
6550.01906,0.59133
6548.09032,0.59179
6546.16157,0.59328
6544.23283,0.59297
6542.30408,0.59141
6540.37534,0.59075
6538.44659,0.59151
6536.51785,0.59316
6534.58910,0.59441
6532.66036,0.59453
6530.73161,0.59452
6528.80287,0.59528
6526.87412,0.59624
6524.94537,0.59621
6523.01663,0.59576
6521.08788,0.59676
6519.15914,0.59880
6517.23039,0.59988
6515.30165,0.59940
6513.37290,0.59809
6511.44416,0.59725
6509.51541,0.59704
6507.58667,0.59678
6505.65792,0.59717
6503.72918,0.59837
6501.80043,0.59862
6499.87169,0.59769
6497.94294,0.59645
6496.01419,0.59499
6494.08545,0.59448
6492.15670,0.59581
6490.22796,0.59678
6488.29921,0.59586
6486.37047,0.59502
6484.44172,0.59500
6482.51298,0.59473
6480.58423,0.59471
6478.65549,0.59495
6476.72674,0.59452
6474.79800,0.59411
6472.86925,0.59489
6470.94051,0.59567
6469.01176,0.59521
6467.08302,0.59510
6465.15427,0.59600
6463.22552,0.59707
6461.29678,0.59825
6459.36803,0.59802
6457.43929,0.59561
6455.51054,0.59405
6453.58180,0.59548
6451.65305,0.59836
6449.72431,0.60047
6447.79556,0.60025
6445.86682,0.59735
6443.93807,0.59435
6442.00933,0.59501
6440.08058,0.59945
6438.15184,0.60322
6436.22309,0.60316
6434.29434,0.60144
6432.36560,0.60082
6430.43685,0.60040
6428.50811,0.59903
6426.57936,0.59795
6424.65062,0.59879
6422.72187,0.60172
6420.79313,0.60405
6418.86438,0.60318
6416.93564,0.60157
6415.00689,0.60209
6413.07815,0.60207
6411.14940,0.59952
6409.22066,0.59781
6407.29191,0.59901
6405.36317,0.60185
6403.43442,0.60542
6401.50567,0.60755
6399.57693,0.60651
6397.64818,0.60449
6395.71944,0.60421
6393.79069,0.60541
6391.86195,0.60660
6389.93320,0.60695
6388.00446,0.60556
6386.07571,0.60379
6384.14697,0.60507
6382.21822,0.60856
6380.28948,0.61036
6378.36073,0.60938
6376.43199,0.60665
6374.50324,0.60413
6372.57450,0.60411
6370.64575,0.60597
6368.71700,0.60718
6366.78826,0.60754
6364.85951,0.60770
6362.93077,0.60641
6361.00202,0.60402
6359.07328,0.60322
6357.14453,0.60444
6355.21579,0.60562
6353.28704,0.60613
6351.35830,0.60644
6349.42955,0.60669
6347.50081,0.60790
6345.57206,0.60919
6343.64332,0.60799
6341.71457,0.60632
6339.78582,0.60654
6337.85708,0.60722
6335.92833,0.60804
6333.99959,0.60912
6332.07084,0.60952
6330.14210,0.60986
6328.21335,0.61063
6326.28461,0.61117
6324.35586,0.61245
6322.42712,0.61433
6320.49837,0.61374
6318.56963,0.61065
6316.64088,0.60826
6314.71214,0.60741
6312.78339,0.60742
6310.85465,0.60880
6308.92590,0.61069
6306.99715,0.61119
6305.06841,0.61168
6303.13966,0.61366
6301.21092,0.61494
6299.28217,0.61357
6297.35343,0.61174
6295.42468,0.61204
6293.49594,0.61248
6291.56719,0.61253
6289.63845,0.61472
6287.70970,0.61639
6285.78096,0.61489
6283.85221,0.61394
6281.92347,0.61514
6279.99472,0.61592
6278.06598,0.61593
6276.13723,0.61589
6274.20848,0.61490
6272.27974,0.61375
6270.35099,0.61455
6268.42225,0.61616
6266.49350,0.61587
6264.56476,0.61389
6262.63601,0.61318
6260.70727,0.61551
6258.77852,0.61849
6256.84978,0.61986
6254.92103,0.62079
6252.99229,0.62199
6251.06354,0.62322
6249.13480,0.62508
6247.20605,0.62712
6245.27730,0.62751
6243.34856,0.62611
6241.41981,0.62495
6239.49107,0.62490
6237.56232,0.62540
6235.63358,0.62647
6233.70483,0.62768
6231.77609,0.62768
6229.84734,0.62694
6227.91860,0.62690
6225.98985,0.62716
6224.06111,0.62799
6222.13236,0.63003
6220.20362,0.63198
6218.27487,0.63343
6216.34613,0.63470
6214.41738,0.63555
6212.48863,0.63602
6210.55989,0.63644
6208.63114,0.63731
6206.70240,0.63808
6204.77365,0.63837
6202.84491,0.63886
6200.91616,0.63920
6198.98742,0.63942
6197.05867,0.64007
6195.12993,0.64075
6193.20118,0.64153
6191.27244,0.64290
6189.34369,0.64457
6187.41495,0.64526
6185.48620,0.64442
6183.55746,0.64404
6181.62871,0.64536
6179.69996,0.64663
6177.77122,0.64655
6175.84247,0.64599
6173.91373,0.64573
6171.98498,0.64642
6170.05624,0.64819
6168.12749,0.64928
6166.19875,0.64847
6164.27000,0.64720
6162.34126,0.64705
6160.41251,0.64754
6158.48377,0.64777
6156.55502,0.64779
6154.62628,0.64750
6152.69753,0.64799
6150.76878,0.65029
6148.84004,0.65258
6146.91129,0.65323
6144.98255,0.65249
6143.05380,0.65155
6141.12506,0.65204
6139.19631,0.65353
6137.26757,0.65421
6135.33882,0.65373
6133.41008,0.65263
6131.48133,0.65207
6129.55259,0.65266
6127.62384,0.65307
6125.69510,0.65296
6123.76635,0.65343
6121.83761,0.65419
6119.90886,0.65474
6117.98011,0.65548
6116.05137,0.65640
6114.12262,0.65714
6112.19388,0.65785
6110.26513,0.65833
6108.33639,0.65830
6106.40764,0.65861
6104.47890,0.65991
6102.55015,0.66135
6100.62141,0.66158
6098.69266,0.66023
6096.76392,0.65896
6094.83517,0.65947
6092.90643,0.66086
6090.97768,0.66175
6089.04893,0.66253
6087.12019,0.66366
6085.19144,0.66455
6083.26270,0.66436
6081.33395,0.66323
6079.40521,0.66236
6077.47646,0.66212
6075.54772,0.66164
6073.61897,0.66084
6071.69023,0.66066
6069.76148,0.66075
6067.83274,0.66037
6065.90399,0.66093
6063.97525,0.66266
6062.04650,0.66309
6060.11776,0.66160
6058.18901,0.65946
6056.26026,0.65771
6054.33152,0.65766
6052.40277,0.65896
6050.47403,0.65939
6048.54528,0.65880
6046.61654,0.65867
6044.68779,0.65901
6042.75905,0.65947
6040.83030,0.66021
6038.90156,0.66031
6036.97281,0.65976
6035.04407,0.65939
6033.11532,0.65851
6031.18658,0.65749
6029.25783,0.65754
6027.32909,0.65805
6025.40034,0.65807
6023.47159,0.65706
6021.54285,0.65567
6019.61410,0.65549
6017.68536,0.65587
6015.75661,0.65537
6013.82787,0.65434
6011.89912,0.65334
6009.97038,0.65233
6008.04163,0.65122
6006.11289,0.65024
6004.18414,0.64957
6002.25540,0.64916
6000.32665,0.64908
5998.39791,0.64921
5996.46916,0.64956
5994.54041,0.65007
5992.61167,0.65052
5990.68292,0.65005
5988.75418,0.64795
5986.82543,0.64648
5984.89669,0.64703
5982.96794,0.64752
5981.03920,0.64738
5979.11045,0.64769
5977.18171,0.64848
5975.25296,0.64873
5973.32422,0.64727
5971.39547,0.64543
5969.46673,0.64593
5967.53798,0.64824
5965.60924,0.64920
5963.68049,0.64760
5961.75174,0.64575
5959.82300,0.64621
5957.89425,0.64833
5955.96551,0.64941
5954.03676,0.64844
5952.10802,0.64677
5950.17927,0.64633
5948.25053,0.64767
5946.32178,0.64841
5944.39304,0.64754
5942.46429,0.64749
5940.53555,0.64820
5938.60680,0.64829
5936.67806,0.64881
5934.74931,0.64994
5932.82057,0.65059
5930.89182,0.65009
5928.96307,0.64873
5927.03433,0.64777
5925.10558,0.64780
5923.17684,0.64795
5921.24809,0.64752
5919.31935,0.64703
5917.39060,0.64661
5915.46186,0.64591
5913.53311,0.64570
5911.60437,0.64647
5909.67562,0.64671
5907.74688,0.64575
5905.81813,0.64504
5903.88939,0.64510
5901.96064,0.64523
5900.03189,0.64492
5898.10315,0.64369
5896.17440,0.64223
5894.24566,0.64119
5892.31691,0.64015
5890.38817,0.63983
5888.45942,0.64083
5886.53068,0.64181
5884.60193,0.64155
5882.67319,0.64054
5880.74444,0.63950
5878.81570,0.63825
5876.88695,0.63690
5874.95821,0.63649
5873.02946,0.63771
5871.10072,0.63993
5869.17197,0.64164
5867.24322,0.64224
5865.31448,0.64210
5863.38573,0.64106
5861.45699,0.63951
5859.52824,0.63879
5857.59950,0.63935
5855.67075,0.63994
5853.74201,0.63951
5851.81326,0.63930
5849.88452,0.64028
5847.95577,0.64091
5846.02703,0.64002
5844.09828,0.63805
5842.16954,0.63653
5840.24079,0.63657
5838.31205,0.63691
5836.38330,0.63676
5834.45455,0.63719
5832.52581,0.63814
5830.59706,0.63858
5828.66832,0.63829
5826.73957,0.63726
5824.81083,0.63569
5822.88208,0.63473
5820.95334,0.63435
5819.02459,0.63313
5817.09585,0.63135
5815.16710,0.63102
5813.23836,0.63264
5811.30961,0.63425
5809.38087,0.63465
5807.45212,0.63449
5805.52337,0.63400
5803.59463,0.63350
5801.66588,0.63321
5799.73714,0.63246
5797.80839,0.63191
5795.87965,0.63262
5793.95090,0.63326
5792.02216,0.63269
5790.09341,0.63232
5788.16467,0.63277
5786.23592,0.63336
5784.30718,0.63400
5782.37843,0.63383
5780.44969,0.63257
5778.52094,0.63186
5776.59220,0.63261
5774.66345,0.63429
5772.73470,0.63602
5770.80596,0.63714
5768.87721,0.63709
5766.94847,0.63624
5765.01972,0.63562
5763.09098,0.63533
5761.16223,0.63562
5759.23349,0.63632
5757.30474,0.63625
5755.37600,0.63602
5753.44725,0.63694
5751.51851,0.63807
5749.58976,0.63817
5747.66102,0.63764
5745.73227,0.63723
5743.80352,0.63686
5741.87478,0.63646
5739.94603,0.63628
5738.01729,0.63618
5736.08854,0.63609
5734.15980,0.63626
5732.23105,0.63624
5730.30231,0.63534
5728.37356,0.63435
5726.44482,0.63447
5724.51607,0.63483
5722.58733,0.63416
5720.65858,0.63297
5718.72984,0.63256
5716.80109,0.63322
5714.87235,0.63408
5712.94360,0.63466
5711.01485,0.63516
5709.08611,0.63562
5707.15736,0.63595
5705.22862,0.63583
5703.29987,0.63547
5701.37113,0.63522
5699.44238,0.63543
5697.51364,0.63606
5695.58489,0.63570
5693.65615,0.63399
5691.72740,0.63276
5689.79866,0.63328
5687.86991,0.63461
5685.94117,0.63472
5684.01242,0.63338
5682.08368,0.63206
5680.15493,0.63120
5678.22618,0.63106
5676.29744,0.63233
5674.36869,0.63389
5672.43995,0.63403
5670.51120,0.63324
5668.58246,0.63282
5666.65371,0.63253
5664.72497,0.63180
5662.79622,0.63148
5660.86748,0.63216
5658.93873,0.63272
5657.00999,0.63242
5655.08124,0.63207
5653.15250,0.63246
5651.22375,0.63287
5649.29500,0.63271
5647.36626,0.63273
5645.43751,0.63308
5643.50877,0.63304
5641.58002,0.63228
5639.65128,0.63121
5637.72253,0.63083
5635.79379,0.63133
5633.86504,0.63209
5631.93630,0.63248
5630.00755,0.63208
5628.07881,0.63138
5626.15006,0.63098
5624.22132,0.63092
5622.29257,0.63120
5620.36383,0.63187
5618.43508,0.63220
5616.50633,0.63159
5614.57759,0.63093
5612.64884,0.63064
5610.72010,0.63030
5608.79135,0.63003
5606.86261,0.63022
5604.93386,0.63139
5603.00512,0.63275
5601.07637,0.63232
5599.14763,0.63064
5597.21888,0.62981
5595.29014,0.62965
5593.36139,0.62951
5591.43265,0.63010
5589.50390,0.63110
5587.57516,0.63137
5585.64641,0.63077
5583.71766,0.62984
5581.78892,0.62973
5579.86017,0.63095
5577.93143,0.63246
5576.00268,0.63323
5574.07394,0.63298
5572.14519,0.63210
5570.21645,0.63118
5568.28770,0.63080
5566.35896,0.63152
5564.43021,0.63286
5562.50147,0.63367
5560.57272,0.63406
5558.64398,0.63432
5556.71523,0.63406
5554.78648,0.63380
5552.85774,0.63402
5550.92899,0.63447
5549.00025,0.63542
5547.07150,0.63649
5545.14276,0.63625
5543.21401,0.63495
5541.28527,0.63431
5539.35652,0.63418
5537.42778,0.63390
5535.49903,0.63391
5533.57029,0.63368
5531.64154,0.63294
5529.71280,0.63298
5527.78405,0.63398
5525.85531,0.63480
5523.92656,0.63480
5521.99781,0.63423
5520.06907,0.63380
5518.14032,0.63435
5516.21158,0.63588
5514.28283,0.63706
5512.35409,0.63693
5510.42534,0.63629
5508.49660,0.63611
5506.56785,0.63620
5504.63911,0.63614
5502.71036,0.63618
5500.78162,0.63648
5498.85287,0.63661
5496.92413,0.63599
5494.99538,0.63537
5493.06664,0.63571
5491.13789,0.63619
5489.20914,0.63667
5487.28040,0.63811
5485.35165,0.63984
5483.42291,0.64075
5481.49416,0.64069
5479.56542,0.63956
5477.63667,0.63776
5475.70793,0.63660
5473.77918,0.63697
5471.85044,0.63841
5469.92169,0.64015
5467.99295,0.64120
5466.06420,0.64075
5464.13546,0.63972
5462.20671,0.63914
5460.27796,0.63903
5458.34922,0.63913
5456.42047,0.63934
5454.49173,0.63995
5452.56298,0.64073
5450.63424,0.64119
5448.70549,0.64134
5446.77675,0.64141
5444.84800,0.64158
5442.91926,0.64206
5440.99051,0.64293
5439.06177,0.64349
5437.13302,0.64380
5435.20428,0.64497
5433.27553,0.64632
5431.34679,0.64649
5429.41804,0.64585
5427.48929,0.64510
5425.56055,0.64459
5423.63180,0.64454
5421.70306,0.64465
5419.77431,0.64477
5417.84557,0.64531
5415.91682,0.64652
5413.98808,0.64827
5412.05933,0.64995
5410.13059,0.65085
5408.20184,0.65095
5406.27310,0.65044
5404.34435,0.64981
5402.41561,0.65007
5400.48686,0.65110
5398.55811,0.65141
5396.62937,0.65071
5394.70062,0.65017
5392.77188,0.65036
5390.84313,0.65104
5388.91439,0.65177
5386.98564,0.65194
5385.05690,0.65139
5383.12815,0.65105
5381.19941,0.65129
5379.27066,0.65130
5377.34192,0.65091
5375.41317,0.65092
5373.48443,0.65159
5371.55568,0.65232
5369.62694,0.65258
5367.69819,0.65238
5365.76944,0.65189
5363.84070,0.65150
5361.91195,0.65151
5359.98321,0.65111
5358.05446,0.64993
5356.12572,0.64942
5354.19697,0.65002
5352.26823,0.65014
5350.33948,0.64951
5348.41074,0.64900
5346.48199,0.64874
5344.55325,0.64872
5342.62450,0.64894
5340.69576,0.64881
5338.76701,0.64730
5336.83827,0.64487
5334.90952,0.64370
5332.98077,0.64409
5331.05203,0.64421
5329.12328,0.64328
5327.19454,0.64220
5325.26579,0.64120
5323.33705,0.64007
5321.40830,0.63915
5319.47956,0.63815
5317.55081,0.63651
5315.62207,0.63472
5313.69332,0.63303
5311.76458,0.63125
5309.83583,0.62981
5307.90709,0.62846
5305.97834,0.62662
5304.04959,0.62463
5302.12085,0.62264
5300.19210,0.62049
5298.26336,0.61841
5296.33461,0.61648
5294.40587,0.61402
5292.47712,0.61068
5290.54838,0.60715
5288.61963,0.60391
5286.69089,0.60076
5284.76214,0.59768
5282.83340,0.59466
5280.90465,0.59181
5278.97591,0.58930
5277.04716,0.58654
5275.11842,0.58289
5273.18967,0.57904
5271.26092,0.57584
5269.33218,0.57287
5267.40343,0.56943
5265.47469,0.56554
5263.54594,0.56166
5261.61720,0.55823
5259.68845,0.55546
5257.75971,0.55287
5255.83096,0.54959
5253.90222,0.54599
5251.97347,0.54317
5250.04473,0.54043
5248.11598,0.53669
5246.18724,0.53303
5244.25849,0.53073
5242.32975,0.52905
5240.40100,0.52670
5238.47225,0.52374
5236.54351,0.52099
5234.61476,0.51863
5232.68602,0.51675
5230.75727,0.51536
5228.82853,0.51368
5226.89978,0.51152
5224.97104,0.50959
5223.04229,0.50810
5221.11355,0.50670
5219.18480,0.50528
5217.25606,0.50386
5215.32731,0.50249
5213.39857,0.50149
5211.46982,0.50090
5209.54107,0.50043
5207.61233,0.50026
5205.68358,0.50017
5203.75484,0.49953
5201.82609,0.49865
5199.89735,0.49826
5197.96860,0.49862
5196.03986,0.49921
5194.11111,0.49899
5192.18237,0.49813
5190.25362,0.49783
5188.32488,0.49806
5186.39613,0.49806
5184.46739,0.49786
5182.53864,0.49780
5180.60990,0.49813
5178.68115,0.49884
5176.75240,0.49936
5174.82366,0.49963
5172.89491,0.50026
5170.96617,0.50120
5169.03742,0.50209
5167.10868,0.50273
5165.17993,0.50297
5163.25119,0.50324
5161.32244,0.50409
5159.39370,0.50547
5157.46495,0.50695
5155.53621,0.50784
5153.60746,0.50813
5151.67872,0.50875
5149.74997,0.51025
5147.82123,0.51186
5145.89248,0.51271
5143.96373,0.51313
5142.03499,0.51370
5140.10624,0.51452
5138.17750,0.51551
5136.24875,0.51669
5134.32001,0.51794
5132.39126,0.51901
5130.46252,0.52000
5128.53377,0.52097
5126.60503,0.52182
5124.67628,0.52285
5122.74754,0.52418
5120.81879,0.52535
5118.89005,0.52623
5116.96130,0.52741
5115.03255,0.52891
5113.10381,0.53013
5111.17506,0.53098
5109.24632,0.53162
5107.31757,0.53195
5105.38883,0.53244
5103.46008,0.53349
5101.53134,0.53456
5099.60259,0.53557
5097.67385,0.53695
5095.74510,0.53818
5093.81636,0.53883
5091.88761,0.53958
5089.95887,0.54083
5088.03012,0.54230
5086.10138,0.54349
5084.17263,0.54393
5082.24388,0.54440
5080.31514,0.54556
5078.38639,0.54684
5076.45765,0.54775
5074.52890,0.54818
5072.60016,0.54857
5070.67141,0.54907
5068.74267,0.54925
5066.81392,0.54984
5064.88518,0.55148
5062.95643,0.55320
5061.02769,0.55414
5059.09894,0.55450
5057.17020,0.55498
5055.24145,0.55607
5053.31270,0.55713
5051.38396,0.55772
5049.45521,0.55836
5047.52647,0.55906
5045.59772,0.55953
5043.66898,0.55979
5041.74023,0.55997
5039.81149,0.56047
5037.88274,0.56121
5035.95400,0.56189
5034.02525,0.56269
5032.09651,0.56345
5030.16776,0.56400
5028.23902,0.56439
5026.31027,0.56425
5024.38153,0.56398
5022.45278,0.56472
5020.52403,0.56633
5018.59529,0.56769
5016.66654,0.56810
5014.73780,0.56770
5012.80905,0.56757
5010.88031,0.56807
5008.95156,0.56823
5007.02282,0.56800
5005.09407,0.56827
5003.16533,0.56876
5001.23658,0.56866
4999.30784,0.56808
4997.37909,0.56768
4995.45035,0.56778
4993.52160,0.56785
4991.59286,0.56725
4989.66411,0.56626
4987.73536,0.56590
4985.80662,0.56626
4983.87787,0.56658
4981.94913,0.56637
4980.02038,0.56541
4978.09164,0.56432
4976.16289,0.56392
4974.23415,0.56352
4972.30540,0.56231
4970.37666,0.56097
4968.44791,0.56013
4966.51917,0.55928
4964.59042,0.55833
4962.66168,0.55755
4960.73293,0.55654
4958.80418,0.55499
4956.87544,0.55334
4954.94669,0.55191
4953.01795,0.55058
4951.08920,0.54939
4949.16046,0.54827
4947.23171,0.54700
4945.30297,0.54570
4943.37422,0.54454
4941.44548,0.54297
4939.51673,0.54050
4937.58799,0.53808
4935.65924,0.53645
4933.73050,0.53483
4931.80175,0.53320
4929.87301,0.53228
4927.94426,0.53127
4926.01551,0.52934
4924.08677,0.52757
4922.15802,0.52654
4920.22928,0.52518
4918.30053,0.52306
4916.37179,0.52080
4914.44304,0.51855
4912.51430,0.51634
4910.58555,0.51437
4908.65681,0.51269
4906.72806,0.51143
4904.79932,0.51034
4902.87057,0.50876
4900.94183,0.50707
4899.01308,0.50574
4897.08434,0.50426
4895.15559,0.50216
4893.22684,0.49962
4891.29810,0.49728
4889.36935,0.49566
4887.44061,0.49444
4885.51186,0.49282
4883.58312,0.49083
4881.65437,0.48912
4879.72563,0.48772
4877.79688,0.48616
4875.86814,0.48432
4873.93939,0.48261
4872.01065,0.48141
4870.08190,0.48058
4868.15316,0.47946
4866.22441,0.47733
4864.29566,0.47493
4862.36692,0.47364
4860.43817,0.47305
4858.50943,0.47213
4856.58068,0.47081
4854.65194,0.46927
4852.72319,0.46759
4850.79445,0.46597
4848.86570,0.46471
4846.93696,0.46393
4845.00821,0.46317
4843.07947,0.46171
4841.15072,0.45963
4839.22198,0.45778
4837.29323,0.45671
4835.36449,0.45602
4833.43574,0.45510
4831.50699,0.45391
4829.57825,0.45278
4827.64950,0.45160
4825.72076,0.45006
4823.79201,0.44853
4821.86327,0.44763
4819.93452,0.44713
4818.00578,0.44651
4816.07703,0.44576
4814.14829,0.44503
4812.21954,0.44425
4810.29080,0.44330
4808.36205,0.44244
4806.43331,0.44178
4804.50456,0.44114
4802.57582,0.44065
4800.64707,0.44027
4798.71832,0.43982
4796.78958,0.43959
4794.86083,0.43966
4792.93209,0.43934
4791.00334,0.43862
4789.07460,0.43843
4787.14585,0.43848
4785.21711,0.43815
4783.28836,0.43784
4781.35962,0.43746
4779.43087,0.43668
4777.50213,0.43620
4775.57338,0.43620
4773.64464,0.43595
4771.71589,0.43543
4769.78714,0.43506
4767.85840,0.43482
4765.92965,0.43452
4764.00091,0.43409
4762.07216,0.43379
4760.14342,0.43404
4758.21467,0.43452
4756.28593,0.43470
4754.35718,0.43475
4752.42844,0.43450
4750.49969,0.43365
4748.57095,0.43319
4746.64220,0.43382
4744.71346,0.43451
4742.78471,0.43469
4740.85597,0.43480
4738.92722,0.43503
4736.99847,0.43544
4735.06973,0.43588
4733.14098,0.43605
4731.21224,0.43613
4729.28349,0.43630
4727.35475,0.43658
4725.42600,0.43684
4723.49726,0.43704
4721.56851,0.43734
4719.63977,0.43761
4717.71102,0.43790
4715.78228,0.43859
4713.85353,0.43947
4711.92479,0.43997
4709.99604,0.43985
4708.06729,0.43950
4706.13855,0.43959
4704.20980,0.44050
4702.28106,0.44175
4700.35231,0.44257
4698.42357,0.44281
4696.49482,0.44272
4694.56608,0.44285
4692.63733,0.44344
4690.70859,0.44405
4688.77984,0.44455
4686.85110,0.44524
4684.92235,0.44600
4682.99361,0.44657
4681.06486,0.44678
4679.13612,0.44669
4677.20737,0.44692
4675.27862,0.44779
4673.34988,0.44883
4671.42113,0.44946
4669.49239,0.44975
4667.56364,0.45011
4665.63490,0.45071
4663.70615,0.45178
4661.77741,0.45328
4659.84866,0.45437
4657.91992,0.45478
4655.99117,0.45534
4654.06243,0.45621
4652.13368,0.45702
4650.20494,0.45780
4648.27619,0.45858
4646.34745,0.45927
4644.41870,0.45997
4642.48995,0.46067
4640.56121,0.46129
4638.63246,0.46216
4636.70372,0.46332
4634.77497,0.46424
4632.84623,0.46491
4630.91748,0.46577
4628.98874,0.46676
4627.05999,0.46776
4625.13125,0.46882
4623.20250,0.46985
4621.27376,0.47071
4619.34501,0.47157
4617.41627,0.47289
4615.48752,0.47443
4613.55877,0.47535
4611.63003,0.47580
4609.70128,0.47686
4607.77254,0.47849
4605.84379,0.47961
4603.91505,0.48026
4601.98630,0.48092
4600.05756,0.48144
4598.12881,0.48178
4596.20007,0.48239
4594.27132,0.48367
4592.34258,0.48517
4590.41383,0.48621
4588.48509,0.48677
4586.55634,0.48705
4584.62760,0.48749
4582.69885,0.48844
4580.77010,0.48959
4578.84136,0.49059
4576.91261,0.49150
4574.98387,0.49226
4573.05512,0.49263
4571.12638,0.49296
4569.19763,0.49370
4567.26889,0.49469
4565.34014,0.49546
4563.41140,0.49564
4561.48265,0.49551
4559.55391,0.49567
4557.62516,0.49619
4555.69642,0.49694
4553.76767,0.49784
4551.83893,0.49867
4549.91018,0.49904
4547.98143,0.49909
4546.05269,0.49968
4544.12394,0.50083
4542.19520,0.50168
4540.26645,0.50207
4538.33771,0.50226
4536.40896,0.50216
4534.48022,0.50195
4532.55147,0.50200
4530.62273,0.50246
4528.69398,0.50314
4526.76524,0.50346
4524.83649,0.50335
4522.90775,0.50346
4520.97900,0.50386
4519.05025,0.50415
4517.12151,0.50424
4515.19276,0.50416
4513.26402,0.50401
4511.33527,0.50376
4509.40653,0.50338
4507.47778,0.50303
4505.54904,0.50282
4503.62029,0.50253
4501.69155,0.50190
4499.76280,0.50128
4497.83406,0.50107
4495.90531,0.50078
4493.97657,0.49983
4492.04782,0.49863
4490.11908,0.49799
4488.19033,0.49765
4486.26158,0.49655
4484.33284,0.49476
4482.40409,0.49335
4480.47535,0.49219
4478.54660,0.49055
4476.61786,0.48879
4474.68911,0.48703
4472.76037,0.48496
4470.83162,0.48297
4468.90288,0.48142
4466.97413,0.47991
4465.04539,0.47817
4463.11664,0.47617
4461.18790,0.47378
4459.25915,0.47135
4457.33041,0.46944
4455.40166,0.46761
4453.47291,0.46519
4451.54417,0.46247
4449.61542,0.46004
4447.68668,0.45787
4445.75793,0.45555
4443.82919,0.45291
4441.90044,0.45045
4439.97170,0.44859
4438.04295,0.44680
4436.11421,0.44437
4434.18546,0.44146
4432.25672,0.43867
4430.32797,0.43621
4428.39923,0.43389
4426.47048,0.43150
4424.54173,0.42910
4422.61299,0.42686
4420.68424,0.42450
4418.75550,0.42184
4416.82675,0.41936
4414.89801,0.41728
4412.96926,0.41522
4411.04052,0.41321
4409.11177,0.41154
4407.18303,0.41019
4405.25428,0.40904
4403.32554,0.40799
4401.39679,0.40702
4399.46805,0.40639
4397.53930,0.40628
4395.61056,0.40652
4393.68181,0.40672
4391.75306,0.40668
4389.82432,0.40668
4387.89557,0.40712
4385.96683,0.40794
4384.03808,0.40873
4382.10934,0.40936
4380.18059,0.41027
4378.25185,0.41160
4376.32310,0.41281
4374.39436,0.41351
4372.46561,0.41390
4370.53687,0.41454
4368.60812,0.41561
4366.67938,0.41677
4364.75063,0.41758
4362.82189,0.41773
4360.89314,0.41754
4358.96439,0.41763
4357.03565,0.41794
4355.10690,0.41820
4353.17816,0.41824
4351.24941,0.41791
4349.32067,0.41750
4347.39192,0.41730
4345.46318,0.41715
4343.53443,0.41685
4341.60569,0.41635
4339.67694,0.41581
4337.74820,0.41544
4335.81945,0.41515
4333.89071,0.41477
4331.96196,0.41416
4330.03321,0.41325
4328.10447,0.41238
4326.17572,0.41167
4324.24698,0.41081
4322.31823,0.40985
4320.38949,0.40897
4318.46074,0.40799
4316.53200,0.40673
4314.60325,0.40564
4312.67451,0.40533
4310.74576,0.40507
4308.81702,0.40396
4306.88827,0.40245
4304.95953,0.40143
4303.03078,0.40101
4301.10204,0.40055
4299.17329,0.39977
4297.24454,0.39903
4295.31580,0.39831
4293.38705,0.39742
4291.45831,0.39658
4289.52956,0.39595
4287.60082,0.39553
4285.67207,0.39530
4283.74333,0.39511
4281.81458,0.39493
4279.88584,0.39473
4277.95709,0.39446
4276.02835,0.39409
4274.09960,0.39381
4272.17086,0.39392
4270.24211,0.39449
4268.31336,0.39536
4266.38462,0.39614
4264.45587,0.39641
4262.52713,0.39633
4260.59838,0.39652
4258.66964,0.39717
4256.74089,0.39789
4254.81215,0.39836
4252.88340,0.39876
4250.95466,0.39925
4249.02591,0.39960
4247.09717,0.39980
4245.16842,0.40004
4243.23968,0.40013
4241.31093,0.40003
4239.38219,0.40004
4237.45344,0.40019
4235.52469,0.40033
4233.59595,0.40045
4231.66720,0.40058
4229.73846,0.40072
4227.80971,0.40078
4225.88097,0.40075
4223.95222,0.40074
4222.02348,0.40075
4220.09473,0.40081
4218.16599,0.40101
4216.23724,0.40107
4214.30850,0.40072
4212.37975,0.40042
4210.45101,0.40075
4208.52226,0.40152
4206.59352,0.40195
4204.66477,0.40180
4202.73602,0.40162
4200.80728,0.40171
4198.87853,0.40190
4196.94979,0.40216
4195.02104,0.40231
4193.09230,0.40224
4191.16355,0.40227
4189.23481,0.40256
4187.30606,0.40291
4185.37732,0.40332
4183.44857,0.40379
4181.51983,0.40436
4179.59108,0.40507
4177.66234,0.40554
4175.73359,0.40555
4173.80484,0.40587
4171.87610,0.40687
4169.94735,0.40777
4168.01861,0.40806
4166.08986,0.40814
4164.16112,0.40838
4162.23237,0.40863
4160.30363,0.40871
4158.37488,0.40865
4156.44614,0.40830
4154.51739,0.40747
4152.58865,0.40656
4150.65990,0.40602
4148.73116,0.40569
4146.80241,0.40519
4144.87367,0.40463
4142.94492,0.40417
4141.01617,0.40354
4139.08743,0.40249
4137.15868,0.40135
4135.22994,0.40041
4133.30119,0.39957
4131.37245,0.39865
4129.44370,0.39763
4127.51496,0.39630
4125.58621,0.39477
4123.65747,0.39353
4121.72872,0.39241
4119.79998,0.39087
4117.87123,0.38906
4115.94249,0.38740
4114.01374,0.38601
4112.08500,0.38464
4110.15625,0.38291
4108.22750,0.38093
4106.29876,0.37889
4104.37001,0.37678
4102.44127,0.37486
4100.51252,0.37319
4098.58378,0.37156
4096.65503,0.36976
4094.72629,0.36779
4092.79754,0.36586
4090.86880,0.36396
4088.94005,0.36199
4087.01131,0.35999
4085.08256,0.35792
4083.15382,0.35579
4081.22507,0.35377
4079.29632,0.35195
4077.36758,0.35021
4075.43883,0.34841
4073.51009,0.34641
4071.58134,0.34425
4069.65260,0.34218
4067.72385,0.34027
4065.79511,0.33853
4063.86636,0.33683
4061.93762,0.33488
4060.00887,0.33262
4058.08013,0.33041
4056.15138,0.32840
4054.22264,0.32640
4052.29389,0.32439
4050.36515,0.32262
4048.43640,0.32114
4046.50765,0.31963
4044.57891,0.31810
4042.65016,0.31678
4040.72142,0.31551
4038.79267,0.31399
4036.86393,0.31235
4034.93518,0.31105
4033.00644,0.31006
4031.07769,0.30893
4029.14895,0.30790
4027.22020,0.30740
4025.29146,0.30706
4023.36271,0.30667
4021.43397,0.30644
4019.50522,0.30607
4017.57648,0.30541
4015.64773,0.30500
4013.71898,0.30507
4011.79024,0.30540
4009.86149,0.30581
4007.93275,0.30604
4006.00400,0.30609
4004.07526,0.30630
4002.14651,0.30670
4000.21777,0.30705
3998.28902,0.30739
3996.36028,0.30788
3994.43153,0.30861
3992.50279,0.30956
3990.57404,0.31045
3988.64530,0.31089
3986.71655,0.31101
3984.78780,0.31124
3982.85906,0.31181
3980.93031,0.31265
3979.00157,0.31352
3977.07282,0.31420
3975.14408,0.31475
3973.21533,0.31520
3971.28659,0.31551
3969.35784,0.31592
3967.42910,0.31672
3965.50035,0.31797
3963.57161,0.31942
3961.64286,0.32056
3959.71412,0.32119
3957.78537,0.32160
3955.85663,0.32214
3953.92788,0.32288
3951.99913,0.32383
3950.07039,0.32501
3948.14164,0.32619
3946.21290,0.32708
3944.28415,0.32785
3942.35541,0.32879
3940.42666,0.32973
3938.49792,0.33061
3936.56917,0.33165
3934.64043,0.33272
3932.71168,0.33369
3930.78294,0.33464
3928.85419,0.33574
3926.92545,0.33692
3924.99670,0.33800
3923.06795,0.33892
3921.13921,0.33978
3919.21046,0.34065
3917.28172,0.34161
3915.35297,0.34275
3913.42423,0.34377
3911.49548,0.34447
3909.56674,0.34523
3907.63799,0.34614
3905.70925,0.34700
3903.78050,0.34784
3901.85176,0.34870
3899.92301,0.34951
3897.99427,0.35024
3896.06552,0.35085
3894.13678,0.35125
3892.20803,0.35168
3890.27928,0.35245
3888.35054,0.35341
3886.42179,0.35440
3884.49305,0.35531
3882.56430,0.35608
3880.63556,0.35667
3878.70681,0.35682
3876.77807,0.35673
3874.84932,0.35707
3872.92058,0.35788
3870.99183,0.35891
3869.06309,0.36012
3867.13434,0.36119
3865.20560,0.36197
3863.27685,0.36262
3861.34811,0.36349
3859.41936,0.36486
3857.49061,0.36618
3855.56187,0.36696
3853.63312,0.36773
3851.70438,0.36899
3849.77563,0.37004
3847.84689,0.37041
3845.91814,0.37046
3843.98940,0.37095
3842.06065,0.37197
3840.13191,0.37295
3838.20316,0.37372
3836.27442,0.37430
3834.34567,0.37459
3832.41693,0.37485
3830.48818,0.37529
3828.55943,0.37576
3826.63069,0.37614
3824.70194,0.37625
3822.77320,0.37602
3820.84445,0.37579
3818.91571,0.37592
3816.98696,0.37624
3815.05822,0.37628
3813.12947,0.37600
3811.20073,0.37576
3809.27198,0.37576
3807.34324,0.37599
3805.41449,0.37614
3803.48575,0.37587
3801.55700,0.37539
3799.62826,0.37505
3797.69951,0.37490
3795.77076,0.37492
3793.84202,0.37495
3791.91327,0.37489
3789.98453,0.37479
3788.05578,0.37464
3786.12704,0.37440
3784.19829,0.37413
3782.26955,0.37398
3780.34080,0.37394
3778.41206,0.37369
3776.48331,0.37296
3774.55457,0.37209
3772.62582,0.37143
3770.69708,0.37101
3768.76833,0.37072
3766.83959,0.37045
3764.91084,0.37021
3762.98209,0.36968
3761.05335,0.36870
3759.12460,0.36778
3757.19586,0.36726
3755.26711,0.36685
3753.33837,0.36638
3751.40962,0.36577
3749.48088,0.36492
3747.55213,0.36402
3745.62339,0.36282
3743.69464,0.36118
3741.76590,0.35971
3739.83715,0.35859
3737.90841,0.35769
3735.97966,0.35679
3734.05091,0.35550
3732.12217,0.35402
3730.19342,0.35273
3728.26468,0.35135
3726.33593,0.34962
3724.40719,0.34785
3722.47844,0.34619
3720.54970,0.34428
3718.62095,0.34216
3716.69221,0.34001
3714.76346,0.33759
3712.83472,0.33484
3710.90597,0.33212
3708.97723,0.32949
3707.04848,0.32690
3705.11974,0.32428
3703.19099,0.32122
3701.26224,0.31764
3699.33350,0.31391
3697.40475,0.31007
3695.47601,0.30612
3693.54726,0.30206
3691.61852,0.29763
3689.68977,0.29260
3687.76103,0.28709
3685.83228,0.28156
3683.90354,0.27612
3681.97479,0.27044
3680.04605,0.26439
3678.11730,0.25805
3676.18856,0.25113
3674.25981,0.24416
3672.33107,0.23773
3670.40232,0.23071
3668.47357,0.22343
3666.54483,0.21707
3664.61608,0.21088
3662.68734,0.20436
3660.75859,0.19800
3658.82985,0.19209
3656.90110,0.18641
3654.97236,0.18102
3653.04361,0.17605
3651.11487,0.17073
3649.18612,0.16472
3647.25738,0.15909
3645.32863,0.15456
3643.39989,0.15040
3641.47114,0.14600
3639.54239,0.14180
3637.61365,0.13793
3635.68490,0.13388
3633.75616,0.12992
3631.82741,0.12671
3629.89867,0.12360
3627.96992,0.11996
3626.04118,0.11664
3624.11243,0.11372
3622.18369,0.11080
3620.25494,0.10787
3618.32620,0.10496
3616.39745,0.10220
3614.46871,0.09945
3612.53996,0.09672
3610.61122,0.09427
3608.68247,0.09189
3606.75372,0.08946
3604.82498,0.08732
3602.89623,0.08534
3600.96749,0.08327
3599.03874,0.08132
3597.11000,0.07974
3595.18125,0.07818
3593.25251,0.07624
3591.32376,0.07420
3589.39502,0.07238
3587.46627,0.07062
3585.53753,0.06907
3583.60878,0.06780
3581.68004,0.06644
3579.75129,0.06493
3577.82254,0.06358
3575.89380,0.06247
3573.96505,0.06156
3572.03631,0.06083
3570.10756,0.05998
3568.17882,0.05878
3566.25007,0.05745
3564.32133,0.05639
3562.39258,0.05571
3560.46384,0.05503
3558.53509,0.05412
3556.60635,0.05336
3554.67760,0.05300
3552.74886,0.05257
3550.82011,0.05169
3548.89137,0.05081
3546.96262,0.05032
3545.03387,0.05001
3543.10513,0.04955
3541.17638,0.04890
3539.24764,0.04826
3537.31889,0.04770
3535.39015,0.04716
3533.46140,0.04669
3531.53266,0.04628
3529.60391,0.04589
3527.67517,0.04570
3525.74642,0.04571
3523.81768,0.04552
3521.88893,0.04502
3519.96019,0.04439
3518.03144,0.04374
3516.10270,0.04318
3514.17395,0.04279
3512.24520,0.04243
3510.31646,0.04201
3508.38771,0.04178
3506.45897,0.04205
3504.53022,0.04241
3502.60148,0.04214
3500.67273,0.04148
3498.74399,0.04113
3496.81524,0.04115
3494.88650,0.04116
3492.95775,0.04090
3491.02901,0.04044
3489.10026,0.03993
3487.17152,0.03956
3485.24277,0.03945
3483.31402,0.03947
3481.38528,0.03947
3479.45653,0.03943
3477.52779,0.03929
3475.59904,0.03913
3473.67030,0.03908
3471.74155,0.03915
3469.81281,0.03914
3467.88406,0.03877
3465.95532,0.03832
3464.02657,0.03835
3462.09783,0.03863
3460.16908,0.03867
3458.24034,0.03838
3456.31159,0.03804
3454.38285,0.03808
3452.45410,0.03845
3450.52535,0.03858
3448.59661,0.03837
3446.66786,0.03803
3444.73912,0.03772
3442.81037,0.03774
3440.88163,0.03815
3438.95288,0.03856
3437.02414,0.03853
3435.09539,0.03817
3433.16665,0.03796
3431.23790,0.03801
3429.30916,0.03826
3427.38041,0.03861
3425.45167,0.03877
3423.52292,0.03885
3421.59418,0.03902
3419.66543,0.03898
3417.73668,0.03868
3415.80794,0.03847
3413.87919,0.03863
3411.95045,0.03897
3410.02170,0.03916
3408.09296,0.03923
3406.16421,0.03913
3404.23547,0.03872
3402.30672,0.03837
3400.37798,0.03840
3398.44923,0.03866
3396.52049,0.03894
3394.59174,0.03907
3392.66300,0.03899
3390.73425,0.03879
3388.80550,0.03864
3386.87676,0.03864
3384.94801,0.03873
3383.01927,0.03878
3381.09052,0.03876
3379.16178,0.03871
3377.23303,0.03883
3375.30429,0.03900
3373.37554,0.03903
3371.44680,0.03905
3369.51805,0.03912
3367.58931,0.03926
3365.66056,0.03956
3363.73182,0.03984
3361.80307,0.03993
3359.87433,0.03991
3357.94558,0.03990
3356.01683,0.03992
3354.08809,0.04006
3352.15934,0.04034
3350.23060,0.04064
3348.30185,0.04077
3346.37311,0.04067
3344.44436,0.04053
3342.51562,0.04067
3340.58687,0.04111
3338.65813,0.04134
3336.72938,0.04126
3334.80064,0.04139
3332.87189,0.04180
3330.94315,0.04206
3329.01440,0.04224
3327.08566,0.04266
3325.15691,0.04326
3323.22816,0.04365
3321.29942,0.04367
3319.37067,0.04358
3317.44193,0.04366
3315.51318,0.04387
3313.58444,0.04408
3311.65569,0.04408
3309.72695,0.04395
3307.79820,0.04387
3305.86946,0.04394
3303.94071,0.04418
3302.01197,0.04440
3300.08322,0.04432
3298.15448,0.04412
3296.22573,0.04427
3294.29698,0.04482
3292.36824,0.04515
3290.43949,0.04500
3288.51075,0.04490
3286.58200,0.04511
3284.65326,0.04543
3282.72451,0.04578
3280.79577,0.04608
3278.86702,0.04617
3276.93828,0.04617
3275.00953,0.04625
3273.08079,0.04658
3271.15204,0.04709
3269.22330,0.04742
3267.29455,0.04752
3265.36581,0.04788
3263.43706,0.04852
3261.50831,0.04879
3259.57957,0.04882
3257.65082,0.04902
3255.72208,0.04942
3253.79333,0.04994
3251.86459,0.05031
3249.93584,0.05044
3248.00710,0.05058
3246.07835,0.05074
3244.14961,0.05099
3242.22086,0.05149
3240.29212,0.05200
3238.36337,0.05228
3236.43463,0.05245
3234.50588,0.05267
3232.57713,0.05301
3230.64839,0.05333
3228.71964,0.05377
3226.79090,0.05445
3224.86215,0.05493
3222.93341,0.05483
3221.00466,0.05464
3219.07592,0.05482
3217.14717,0.05510
3215.21843,0.05548
3213.28968,0.05633
3211.36094,0.05737
3209.43219,0.05814
3207.50345,0.05858
3205.57470,0.05872
3203.64596,0.05883
3201.71721,0.05921
3199.78846,0.05981
3197.85972,0.06039
3195.93097,0.06089
3194.00223,0.06130
3192.07348,0.06153
3190.14474,0.06175
3188.21599,0.06219
3186.28725,0.06274
3184.35850,0.06329
3182.42976,0.06386
3180.50101,0.06442
3178.57227,0.06498
3176.64352,0.06545
3174.71478,0.06603
3172.78603,0.06677
3170.85729,0.06738
3168.92854,0.06792
3166.99979,0.06841
3165.07105,0.06887
3163.14230,0.06959
3161.21356,0.07037
3159.28481,0.07084
3157.35607,0.07114
3155.42732,0.07165
3153.49858,0.07238
3151.56983,0.07300
3149.64109,0.07322
3147.71234,0.07340
3145.78360,0.07404
3143.85485,0.07495
3141.92611,0.07566
3139.99736,0.07614
3138.06861,0.07664
3136.13987,0.07731
3134.21112,0.07821
3132.28238,0.07926
3130.35363,0.08008
3128.42489,0.08061
3126.49614,0.08122
3124.56740,0.08192
3122.63865,0.08242
3120.70991,0.08290
3118.78116,0.08373
3116.85242,0.08463
3114.92367,0.08521
3112.99493,0.08566
3111.06618,0.08642
3109.13744,0.08739
3107.20869,0.08792
3105.27994,0.08811
3103.35120,0.08867
3101.42245,0.08945
3099.49371,0.08996
3097.56496,0.09045
3095.63622,0.09128
3093.70747,0.09207
3091.77873,0.09254
3089.84998,0.09293
3087.92124,0.09357
3085.99249,0.09433
3084.06375,0.09486
3082.13500,0.09517
3080.20626,0.09551
3078.27751,0.09598
3076.34877,0.09675
3074.42002,0.09781
3072.49127,0.09887
3070.56253,0.09954
3068.63378,0.09962
3066.70504,0.09953
3064.77629,0.09995
3062.84755,0.10091
3060.91880,0.10177
3058.99006,0.10226
3057.06131,0.10280
3055.13257,0.10372
3053.20382,0.10472
3051.27508,0.10533
3049.34633,0.10567
3047.41759,0.10611
3045.48884,0.10668
3043.56009,0.10720
3041.63135,0.10755
3039.70260,0.10788
3037.77386,0.10830
3035.84511,0.10872
3033.91637,0.10902
3031.98762,0.10932
3030.05888,0.10978
3028.13013,0.11011
3026.20139,0.10997
3024.27264,0.10967
3022.34390,0.10956
3020.41515,0.10953
3018.48641,0.10949
3016.55766,0.10924
3014.62892,0.10859
3012.70017,0.10791
3010.77142,0.10740
3008.84268,0.10683
3006.91393,0.10613
3004.98519,0.10530
3003.05644,0.10436
3001.12770,0.10345
2999.19895,0.10267
2997.27021,0.10198
2995.34146,0.10135
2993.41272,0.10071
2991.48397,0.09985
2989.55523,0.09856
2987.62648,0.09686
2985.69774,0.09500
2983.76899,0.09311
2981.84025,0.09092
2979.91150,0.08826
2977.98275,0.08549
2976.05401,0.08296
2974.12526,0.08066
2972.19652,0.07850
2970.26777,0.07657
2968.33903,0.07505
2966.41028,0.07382
2964.48154,0.07267
2962.55279,0.07159
2960.62405,0.07063
2958.69530,0.06979
2956.76656,0.06886
2954.83781,0.06765
2952.90907,0.06649
2950.98032,0.06560
2949.05157,0.06467
2947.12283,0.06368
2945.19408,0.06283
2943.26534,0.06216
2941.33659,0.06159
2939.40785,0.06106
2937.47910,0.06068
2935.55036,0.06050
2933.62161,0.06041
2931.69287,0.06034
2929.76412,0.06018
2927.83538,0.05986
2925.90663,0.05962
2923.97789,0.05951
2922.04914,0.05956
2920.12040,0.05973
2918.19165,0.05973
2916.26290,0.05950
2914.33416,0.05935
2912.40541,0.05928
2910.47667,0.05922
2908.54792,0.05930
2906.61918,0.05951
2904.69043,0.05965
2902.76169,0.05967
2900.83294,0.05967
2898.90420,0.05990
2896.97545,0.06043
2895.04671,0.06091
2893.11796,0.06114
2891.18922,0.06137
2889.26047,0.06179
2887.33172,0.06225
2885.40298,0.06255
2883.47423,0.06277
2881.54549,0.06302
2879.61674,0.06327
2877.68800,0.06357
2875.75925,0.06405
2873.83051,0.06463
2871.90176,0.06510
2869.97302,0.06546
2868.04427,0.06584
2866.11553,0.06642
2864.18678,0.06728
2862.25804,0.06827
2860.32929,0.06919
2858.40055,0.06996
2856.47180,0.07058
2854.54305,0.07125
2852.61431,0.07205
2850.68556,0.07306
2848.75682,0.07434
2846.82807,0.07576
2844.89933,0.07724
2842.97058,0.07889
2841.04184,0.08071
2839.11309,0.08252
2837.18435,0.08424
2835.25560,0.08600
2833.32686,0.08779
2831.39811,0.08957
2829.46937,0.09150
2827.54062,0.09364
2825.61188,0.09569
2823.68313,0.09759
2821.75438,0.09954
2819.82564,0.10142
2817.89689,0.10308
2815.96815,0.10464
2814.03940,0.10624
2812.11066,0.10784
2810.18191,0.10939
2808.25317,0.11093
2806.32442,0.11231
2804.39568,0.11348
2802.46693,0.11458
2800.53819,0.11571
2798.60944,0.11691
2796.68070,0.11820
2794.75195,0.11931
2792.82320,0.12007
2790.89446,0.12087
2788.96571,0.12175
2787.03697,0.12233
2785.10822,0.12274
2783.17948,0.12326
2781.25073,0.12383
2779.32199,0.12442
2777.39324,0.12497
2775.46450,0.12543
2773.53575,0.12584
2771.60701,0.12625
2769.67826,0.12662
2767.74952,0.12690
2765.82077,0.12716
2763.89203,0.12745
2761.96328,0.12776
2760.03453,0.12799
2758.10579,0.12816
2756.17704,0.12848
2754.24830,0.12891
2752.31955,0.12919
2750.39081,0.12929
2748.46206,0.12934
2746.53332,0.12941
2744.60457,0.12951
2742.67583,0.12961
2740.74708,0.12975
2738.81834,0.12995
2736.88959,0.13017
2734.96085,0.13044
2733.03210,0.13072
2731.10336,0.13110
2729.17461,0.13159
2727.24586,0.13199
2725.31712,0.13236
2723.38837,0.13292
2721.45963,0.13371
2719.53088,0.13450
2717.60214,0.13512
2715.67339,0.13566
2713.74465,0.13633
2711.81590,0.13714
2709.88716,0.13803
2707.95841,0.13895
2706.02967,0.13980
2704.10092,0.14068
2702.17218,0.14160
2700.24343,0.14245
2698.31468,0.14338
2696.38594,0.14438
2694.45719,0.14527
2692.52845,0.14617
2690.59970,0.14700
2688.67096,0.14759
2686.74221,0.14822
2684.81347,0.14906
2682.88472,0.14990
2680.95598,0.15078
2679.02723,0.15183
2677.09849,0.15281
2675.16974,0.15346
2673.24100,0.15389
2671.31225,0.15431
2669.38351,0.15487
2667.45476,0.15557
2665.52601,0.15615
2663.59727,0.15649
2661.66852,0.15681
2659.73978,0.15737
2657.81103,0.15803
2655.88229,0.15861
2653.95354,0.15912
2652.02480,0.15971
2650.09605,0.16042
2648.16731,0.16117
2646.23856,0.16176
2644.30982,0.16214
2642.38107,0.16269
2640.45233,0.16369
2638.52358,0.16468
2636.59484,0.16531
2634.66609,0.16580
2632.73734,0.16646
2630.80860,0.16723
2628.87985,0.16802
2626.95111,0.16876
2625.02236,0.16946
2623.09362,0.17001
2621.16487,0.17036
2619.23613,0.17077
2617.30738,0.17144
2615.37864,0.17224
2613.44989,0.17293
2611.52115,0.17344
2609.59240,0.17380
2607.66366,0.17416
2605.73491,0.17466
2603.80616,0.17527
2601.87742,0.17583
2599.94867,0.17639
2598.01993,0.17699
2596.09118,0.17747
2594.16244,0.17789
2592.23369,0.17838
2590.30495,0.17884
2588.37620,0.17932
2586.44746,0.17988
2584.51871,0.18039
2582.58997,0.18078
2580.66122,0.18123
2578.73248,0.18168
2576.80373,0.18197
2574.87499,0.18214
2572.94624,0.18227
2571.01749,0.18234
2569.08875,0.18245
2567.16000,0.18274
2565.23126,0.18304
2563.30251,0.18326
2561.37377,0.18337
2559.44502,0.18338
2557.51628,0.18340
2555.58753,0.18338
2553.65879,0.18316
2551.73004,0.18294
2549.80130,0.18302
2547.87255,0.18336
2545.94381,0.18359
2544.01506,0.18363
2542.08631,0.18381
2540.15757,0.18409
2538.22882,0.18436
2536.30008,0.18473
2534.37133,0.18520
2532.44259,0.18565
2530.51384,0.18612
2528.58510,0.18667
2526.65635,0.18728
2524.72761,0.18786
2522.79886,0.18836
2520.87012,0.18883
2518.94137,0.18930
2517.01263,0.18978
2515.08388,0.19038
2513.15514,0.19112
2511.22639,0.19188
2509.29764,0.19274
2507.36890,0.19385
2505.44015,0.19508
2503.51141,0.19609
2501.58266,0.19685
2499.65392,0.19757
2497.72517,0.19842
2495.79643,0.19949
2493.86768,0.20069
2491.93894,0.20175
2490.01019,0.20265
2488.08145,0.20358
2486.15270,0.20453
2484.22396,0.20537
2482.29521,0.20600
2480.36647,0.20650
2478.43772,0.20717
2476.50897,0.20824
2474.58023,0.20947
2472.65148,0.21043
2470.72274,0.21114
2468.79399,0.21191
2466.86525,0.21274
2464.93650,0.21344
2463.00776,0.21400
2461.07901,0.21466
2459.15027,0.21543
2457.22152,0.21606
2455.29278,0.21661
2453.36403,0.21740
2451.43529,0.21841
2449.50654,0.21946
2447.57779,0.22050
2445.64905,0.22144
2443.72030,0.22228
2441.79156,0.22328
2439.86281,0.22434
2437.93407,0.22517
2436.00532,0.22600
2434.07658,0.22712
2432.14783,0.22838
2430.21909,0.22953
2428.29034,0.23043
2426.36160,0.23120
2424.43285,0.23217
2422.50411,0.23345
2420.57536,0.23481
2418.64662,0.23606
2416.71787,0.23712
2414.78912,0.23790
2412.86038,0.23861
2410.93163,0.23954
2409.00289,0.24066
2407.07414,0.24174
2405.14540,0.24267
2403.21665,0.24354
2401.28791,0.24441
2399.35916,0.24533
2397.43042,0.24632
2395.50167,0.24732
2393.57293,0.24829
2391.64418,0.24916
2389.71544,0.25000
2387.78669,0.25088
2385.85795,0.25180
2383.92920,0.25272
2382.00045,0.25360
2380.07171,0.25439
2378.14296,0.25521
2376.21422,0.25626
2374.28547,0.25747
2372.35673,0.25849
2370.42798,0.25922
2368.49924,0.25983
2366.57049,0.26032
2364.64175,0.26066
2362.71300,0.26105
2360.78426,0.26156
2358.85551,0.26213
2356.92677,0.26278
2354.99802,0.26338
2353.06927,0.26396
2351.14053,0.26465
2349.21178,0.26522
2347.28304,0.26557
2345.35429,0.26607
2343.42555,0.26690
2341.49680,0.26770
2339.56806,0.26820
2337.63931,0.26856
2335.71057,0.26895
2333.78182,0.26935
2331.85308,0.26966
2329.92433,0.26982
2327.99559,0.26999
2326.06684,0.27046
2324.13810,0.27094
2322.20935,0.27105
2320.28060,0.27111
2318.35186,0.27135
2316.42311,0.27149
2314.49437,0.27144
2312.56562,0.27140
2310.63688,0.27141
2308.70813,0.27146
2306.77939,0.27145
2304.85064,0.27131
2302.92190,0.27115
2300.99315,0.27098
2299.06441,0.27065
2297.13566,0.27018
2295.20692,0.26982
2293.27817,0.26962
2291.34943,0.26944
2289.42068,0.26925
2287.49193,0.26907
2285.56319,0.26892
2283.63444,0.26879
2281.70570,0.26863
2279.77695,0.26838
2277.84821,0.26802
2275.91946,0.26752
2273.99072,0.26688
2272.06197,0.26607
2270.13323,0.26519
2268.20448,0.26443
2266.27574,0.26379
2264.34699,0.26307
2262.41825,0.26225
2260.48950,0.26153
2258.56075,0.26090
2256.63201,0.26028
2254.70326,0.25975
2252.77452,0.25935
2250.84577,0.25904
2248.91703,0.25886
2246.98828,0.25872
2245.05954,0.25844
2243.13079,0.25813
2241.20205,0.25779
2239.27330,0.25731
2237.34456,0.25680
2235.41581,0.25633
2233.48707,0.25599
2231.55832,0.25577
2229.62958,0.25563
2227.70083,0.25569
2225.77208,0.25588
2223.84334,0.25595
2221.91459,0.25590
2219.98585,0.25580
2218.05710,0.25560
2216.12836,0.25537
2214.19961,0.25518
2212.27087,0.25498
2210.34212,0.25473
2208.41338,0.25436
2206.48463,0.25394
2204.55589,0.25354
2202.62714,0.25309
2200.69840,0.25250
2198.76965,0.25176
2196.84090,0.25092
2194.91216,0.25003
2192.98341,0.24910
2191.05467,0.24813
2189.12592,0.24706
2187.19718,0.24595
2185.26843,0.24479
2183.33969,0.24354
2181.41094,0.24224
2179.48220,0.24097
2177.55345,0.23974
2175.62471,0.23841
2173.69596,0.23703
2171.76722,0.23582
2169.83847,0.23473
2167.90973,0.23355
2165.98098,0.23232
2164.05223,0.23135
2162.12349,0.23064
2160.19474,0.22996
2158.26600,0.22923
2156.33725,0.22851
2154.40851,0.22768
2152.47976,0.22684
2150.55102,0.22622
2148.62227,0.22587
2146.69353,0.22562
2144.76478,0.22525
2142.83604,0.22471
2140.90729,0.22414
2138.97855,0.22376
2137.04980,0.22357
2135.12106,0.22342
2133.19231,0.22331
2131.26356,0.22331
2129.33482,0.22332
2127.40607,0.22337
2125.47733,0.22367
2123.54858,0.22428
2121.61984,0.22486
2119.69109,0.22519
2117.76235,0.22545
2115.83360,0.22581
2113.90486,0.22633
2111.97611,0.22691
2110.04737,0.22747
2108.11862,0.22796
2106.18988,0.22833
2104.26113,0.22862
2102.33238,0.22888
2100.40364,0.22916
2098.47489,0.22955
2096.54615,0.23001
2094.61740,0.23044
2092.68866,0.23079
2090.75991,0.23099
2088.83117,0.23106
2086.90242,0.23109
2084.97368,0.23109
2083.04493,0.23107
2081.11619,0.23103
2079.18744,0.23082
2077.25870,0.23033
2075.32995,0.22981
2073.40121,0.22934
2071.47246,0.22880
2069.54371,0.22829
2067.61497,0.22790
2065.68622,0.22758
2063.75748,0.22739
2061.82873,0.22724
2059.89999,0.22699
2057.97124,0.22680
2056.04250,0.22678
2054.11375,0.22685
2052.18501,0.22710
2050.25626,0.22749
2048.32752,0.22783
2046.39877,0.22812
2044.47003,0.22851
2042.54128,0.22913
2040.61254,0.22994
2038.68379,0.23091
2036.75504,0.23201
2034.82630,0.23316
2032.89755,0.23428
2030.96881,0.23535
2029.04006,0.23643
2027.11132,0.23748
2025.18257,0.23859
2023.25383,0.23993
2021.32508,0.24138
2019.39634,0.24272
2017.46759,0.24395
2015.53885,0.24505
2013.61010,0.24598
2011.68136,0.24676
2009.75261,0.24742
2007.82386,0.24809
2005.89512,0.24893
2003.96637,0.24989
2002.03763,0.25062
2000.10888,0.25113
1998.18014,0.25172
1996.25139,0.25242
1994.32265,0.25318
1992.39390,0.25397
1990.46516,0.25468
1988.53641,0.25530
1986.60767,0.25589
1984.67892,0.25648
1982.75018,0.25715
1980.82143,0.25780
1978.89269,0.25830
1976.96394,0.25882
1975.03519,0.25937
1973.10645,0.25981
1971.17770,0.26030
1969.24896,0.26098
1967.32021,0.26164
1965.39147,0.26218
1963.46272,0.26272
1961.53398,0.26333
1959.60523,0.26411
1957.67649,0.26507
1955.74774,0.26617
1953.81900,0.26739
1951.89025,0.26852
1949.96151,0.26948
1948.03276,0.27040
1946.10402,0.27137
1944.17527,0.27248
1942.24652,0.27369
1940.31778,0.27478
1938.38903,0.27570
1936.46029,0.27661
1934.53154,0.27739
1932.60280,0.27785
1930.67405,0.27822
1928.74531,0.27880
1926.81656,0.27937
1924.88782,0.27970
1922.95907,0.27990
1921.03033,0.28011
1919.10158,0.28033
1917.17284,0.28051
1915.24409,0.28063
1913.31534,0.28079
1911.38660,0.28093
1909.45785,0.28087
1907.52911,0.28072
1905.60036,0.28062
1903.67162,0.28051
1901.74287,0.28036
1899.81413,0.28018
1897.88538,0.27994
1895.95664,0.27968
1894.02789,0.27950
1892.09915,0.27934
1890.17040,0.27906
1888.24166,0.27873
1886.31291,0.27855
1884.38417,0.27853
1882.45542,0.27839
1880.52667,0.27801
1878.59793,0.27766
1876.66918,0.27754
1874.74044,0.27748
1872.81169,0.27731
1870.88295,0.27714
1868.95420,0.27697
1867.02546,0.27659
1865.09671,0.27601
1863.16797,0.27545
1861.23922,0.27493
1859.31048,0.27438
1857.38173,0.27381
1855.45299,0.27316
1853.52424,0.27249
1851.59549,0.27186
1849.66675,0.27113
1847.73800,0.27026
1845.80926,0.26929
1843.88051,0.26828
1841.95177,0.26736
1840.02302,0.26653
1838.09428,0.26567
1836.16553,0.26484
1834.23679,0.26395
1832.30804,0.26295
1830.37930,0.26183
1828.45055,0.26050
1826.52181,0.25907
1824.59306,0.25760
1822.66432,0.25607
1820.73557,0.25454
1818.80682,0.25305
1816.87808,0.25145
1814.94933,0.24961
1813.02059,0.24757
1811.09184,0.24540
1809.16310,0.24318
1807.23435,0.24101
1805.30561,0.23876
1803.37686,0.23619
1801.44812,0.23333
1799.51937,0.23032
1797.59063,0.22727
1795.66188,0.22426
1793.73314,0.22104
1791.80439,0.21729
1789.87565,0.21346
1787.94690,0.20979
1786.01815,0.20584
1784.08941,0.20141
1782.16066,0.19663
1780.23192,0.19138
1778.30317,0.18575
1776.37443,0.18001
1774.44568,0.17378
1772.51694,0.16643
1770.58819,0.15836
1768.65945,0.15018
1766.73070,0.14170
1764.80196,0.13319
1762.87321,0.12446
1760.94447,0.11554
1759.01572,0.10752
1757.08697,0.10038
1755.15823,0.09406
1753.22948,0.08880
1751.30074,0.08415
1749.37199,0.07998
1747.44325,0.07665
1745.51450,0.07427
1743.58576,0.07261
1741.65701,0.07137
1739.72827,0.07044
1737.79952,0.06996
1735.87078,0.06998
1733.94203,0.07041
1732.01329,0.07105
1730.08454,0.07163
1728.15580,0.07224
1726.22705,0.07318
1724.29830,0.07452
1722.36956,0.07612
1720.44081,0.07795
1718.51207,0.08013
1716.58332,0.08253
1714.65458,0.08482
1712.72583,0.08701
1710.79709,0.08920
1708.86834,0.09137
1706.93960,0.09349
1705.01085,0.09538
1703.08211,0.09671
1701.15336,0.09745
1699.22462,0.09774
1697.29587,0.09761
1695.36713,0.09712
1693.43838,0.09633
1691.50963,0.09507
1689.58089,0.09338
1687.65214,0.09170
1685.72340,0.08981
1683.79465,0.08723
1681.86591,0.08467
1679.93716,0.08240
1678.00842,0.08016
1676.07967,0.07782
1674.15093,0.07544
1672.22218,0.07338
1670.29344,0.07161
1668.36469,0.07013
1666.43595,0.06919
1664.50720,0.06860
1662.57845,0.06817
1660.64971,0.06783
1658.72096,0.06778
1656.79222,0.06834
1654.86347,0.06928
1652.93473,0.07007
1651.00598,0.07032
1649.07724,0.07045
1647.14849,0.07056
1645.21975,0.07046
1643.29100,0.07034
1641.36226,0.07030
1639.43351,0.07036
1637.50477,0.07049
1635.57602,0.07050
1633.64728,0.07036
1631.71853,0.07022
1629.78978,0.07010
1627.86104,0.06996
1625.93229,0.06983
1624.00355,0.06979
1622.07480,0.06972
1620.14606,0.06952
1618.21731,0.06924
1616.28857,0.06872
1614.35982,0.06778
1612.43108,0.06663
1610.50233,0.06559
1608.57359,0.06480
1606.64484,0.06414
1604.71610,0.06361
1602.78735,0.06345
1600.85861,0.06355
1598.92986,0.06364
1597.00111,0.06357
1595.07237,0.06341
1593.14362,0.06356
1591.21488,0.06430
1589.28613,0.06563
1587.35739,0.06738
1585.42864,0.06944
1583.49990,0.07185
1581.57115,0.07469
1579.64241,0.07792
1577.71366,0.08171
1575.78492,0.08614
1573.85617,0.09033
1571.92743,0.09407
1569.99868,0.09783
1568.06993,0.10129
1566.14119,0.10422
1564.21244,0.10671
1562.28370,0.10859
1560.35495,0.11005
1558.42621,0.11118
1556.49746,0.11172
1554.56872,0.11202
1552.63997,0.11225
1550.71123,0.11222
1548.78248,0.11181
1546.85374,0.11117
1544.92499,0.11049
1542.99625,0.10959
1541.06750,0.10801
1539.13876,0.10558
1537.21001,0.10298
1535.28126,0.10016
1533.35252,0.09636
1531.42377,0.09181
1529.49503,0.08702
1527.56628,0.08170
1525.63754,0.07595
1523.70879,0.07010
1521.78005,0.06366
1519.85130,0.05744
1517.92256,0.05288
1515.99381,0.04976
1514.06507,0.04781
1512.13632,0.04687
1510.20758,0.04671
1508.27883,0.04737
1506.35008,0.04902
1504.42134,0.05109
1502.49259,0.05317
1500.56385,0.05533
1498.63510,0.05747
1496.70636,0.05951
1494.77761,0.06136
1492.84887,0.06270
1490.92012,0.06336
1488.99138,0.06334
1487.06263,0.06281
1485.13389,0.06193
1483.20514,0.06074
1481.27640,0.05922
1479.34765,0.05749
1477.41891,0.05560
1475.49016,0.05347
1473.56141,0.05112
1471.63267,0.04879
1469.70392,0.04707
1467.77518,0.04609
1465.84643,0.04545
1463.91769,0.04493
1461.98894,0.04476
1460.06020,0.04494
1458.13145,0.04510
1456.20271,0.04497
1454.27396,0.04469
1452.34522,0.04443
1450.41647,0.04434
1448.48773,0.04459
1446.55898,0.04506
1444.63024,0.04532
1442.70149,0.04513
1440.77274,0.04464
1438.84400,0.04407
1436.91525,0.04336
1434.98651,0.04255
1433.05776,0.04185
1431.12902,0.04145
1429.20027,0.04137
1427.27153,0.04150
1425.34278,0.04175
1423.41404,0.04214
1421.48529,0.04267
1419.55655,0.04338
1417.62780,0.04427
1415.69906,0.04517
1413.77031,0.04585
1411.84156,0.04621
1409.91282,0.04646
1407.98407,0.04677
1406.05533,0.04697
1404.12658,0.04701
1402.19784,0.04706
1400.26909,0.04704
1398.34035,0.04676
1396.41160,0.04629
1394.48286,0.04573
1392.55411,0.04506
1390.62537,0.04436
1388.69662,0.04366
1386.76788,0.04283
1384.83913,0.04183
1382.91039,0.04090
1380.98164,0.04028
1379.05289,0.03996
1377.12415,0.03977
1375.19540,0.03964
1373.26666,0.03963
1371.33791,0.03988
1369.40917,0.04048
1367.48042,0.04111
1365.55168,0.04148
1363.62293,0.04173
1361.69419,0.04203
1359.76544,0.04235
1357.83670,0.04271
1355.90795,0.04302
1353.97921,0.04326
1352.05046,0.04350
1350.12172,0.04362
1348.19297,0.04355
1346.26422,0.04328
1344.33548,0.04296
1342.40673,0.04280
1340.47799,0.04274
1338.54924,0.04248
1336.62050,0.04207
1334.69175,0.04189
1332.76301,0.04193
1330.83426,0.04198
1328.90552,0.04203
1326.97677,0.04203
1325.04803,0.04198
1323.11928,0.04189
1321.19054,0.04168
1319.26179,0.04145
1317.33304,0.04146
1315.40430,0.04163
1313.47555,0.04178
1311.54681,0.04202
1309.61806,0.04234
1307.68932,0.04259
1305.76057,0.04283
1303.83183,0.04313
1301.90308,0.04328
1299.97434,0.04315
1298.04559,0.04284
1296.11685,0.04242
1294.18810,0.04194
1292.25936,0.04135
1290.33061,0.04061
1288.40187,0.03990
1286.47312,0.03935
1284.54437,0.03888
1282.61563,0.03849
1280.68688,0.03824
1278.75814,0.03819
1276.82939,0.03829
1274.90065,0.03832
1272.97190,0.03825
1271.04316,0.03824
1269.11441,0.03837
1267.18567,0.03861
1265.25692,0.03896
1263.32818,0.03928
1261.39943,0.03943
1259.47069,0.03950
1257.54194,0.03974
1255.61320,0.04018
1253.68445,0.04048
1251.75570,0.04039
1249.82696,0.04013
1247.89821,0.04018
1245.96947,0.04057
1244.04072,0.04080
1242.11198,0.04064
1240.18323,0.04029
1238.25449,0.04005
1236.32574,0.04007
1234.39700,0.04019
1232.46825,0.04022
1230.53951,0.04028
1228.61076,0.04056
1226.68202,0.04092
1224.75327,0.04113
1222.82452,0.04118
1220.89578,0.04127
1218.96703,0.04138
1217.03829,0.04137
1215.10954,0.04122
1213.18080,0.04097
1211.25205,0.04080
1209.32331,0.04087
1207.39456,0.04103
1205.46582,0.04103
1203.53707,0.04091
1201.60833,0.04088
1199.67958,0.04081
1197.75084,0.04054
1195.82209,0.04034
1193.89335,0.04033
1191.96460,0.04025
1190.03585,0.03993
1188.10711,0.03927
1186.17836,0.03820
1184.24962,0.03703
1182.32087,0.03613
1180.39213,0.03539
1178.46338,0.03464
1176.53464,0.03400
1174.60589,0.03341
1172.67715,0.03285
1170.74840,0.03274
1168.81966,0.03345
1166.89091,0.03483
1164.96217,0.03628
1163.03342,0.03728
1161.10467,0.03793
1159.17593,0.03838
1157.24718,0.03854
1155.31844,0.03853
1153.38969,0.03841
1151.46095,0.03807
1149.53220,0.03747
1147.60346,0.03668
1145.67471,0.03585
1143.74597,0.03513
1141.81722,0.03452
1139.88848,0.03387
1137.95973,0.03314
1136.03099,0.03253
1134.10224,0.03214
1132.17350,0.03185
1130.24475,0.03168
1128.31600,0.03174
1126.38726,0.03194
1124.45851,0.03222
1122.52977,0.03265
1120.60102,0.03312
1118.67228,0.03331
1116.74353,0.03319
1114.81479,0.03340
1112.88604,0.03440
1110.95730,0.03566
1109.02855,0.03649
1107.09981,0.03710
1105.17106,0.03770
1103.24232,0.03786
1101.31357,0.03749
1099.38483,0.03705
1097.45608,0.03687
1095.52733,0.03691
1093.59859,0.03685
1091.66984,0.03664
1089.74110,0.03659
1087.81235,0.03679
1085.88361,0.03711
1083.95486,0.03765
1082.02612,0.03839
1080.09737,0.03921
1078.16863,0.04048
1076.23988,0.04224
1074.31114,0.04387
1072.38239,0.04510
1070.45365,0.04634
1068.52490,0.04811
1066.59615,0.05042
1064.66741,0.05280
1062.73866,0.05492
1060.80992,0.05665
1058.88117,0.05788
1056.95243,0.05860
1055.02368,0.05900
1053.09494,0.05897
1051.16619,0.05843
1049.23745,0.05773
1047.30870,0.05696
1045.37996,0.05612
1043.45121,0.05568
1041.52247,0.05609
1039.59372,0.05744
1037.66498,0.05932
1035.73623,0.06106
1033.80748,0.06246
1031.87874,0.06338
1029.94999,0.06374
1028.02125,0.06396
1026.09250,0.06411
1024.16376,0.06394
1022.23501,0.06379
1020.30627,0.06389
1018.37752,0.06401
1016.44878,0.06409
1014.52003,0.06412
1012.59129,0.06410
1010.66254,0.06420
1008.73380,0.06429
1006.80505,0.06423
1004.87631,0.06420
1002.94756,0.06439
1001.01881,0.06473
999.09007,0.06514
997.16132,0.06550
995.23258,0.06585
993.30383,0.06651
991.37509,0.06757
989.44634,0.06867
987.51760,0.06964
985.58885,0.07056
983.66011,0.07166
981.73136,0.07322
979.80262,0.07513
977.87387,0.07693
975.94513,0.07820
974.01638,0.07894
972.08763,0.07967
970.15889,0.08055
968.23014,0.08117
966.30140,0.08153
964.37265,0.08205
962.44391,0.08295
960.51516,0.08428
958.58642,0.08567
956.65767,0.08671
954.72893,0.08762
952.80018,0.08868
950.87144,0.08974
948.94269,0.09071
947.01395,0.09147
945.08520,0.09189
943.15646,0.09217
941.22771,0.09265
939.29896,0.09333
937.37022,0.09401
935.44147,0.09476
933.51273,0.09579
931.58398,0.09686
929.65524,0.09762
927.72649,0.09817
925.79775,0.09880
923.86900,0.09935
921.94026,0.09926
920.01151,0.09840
918.08277,0.09713
916.15402,0.09568
914.22528,0.09416
912.29653,0.09236
910.36779,0.08992
908.43904,0.08733
906.51029,0.08533
904.58155,0.08378
902.65280,0.08241
900.72406,0.08126
898.79531,0.08040
896.86657,0.08025
894.93782,0.08095
893.00908,0.08211
891.08033,0.08374
889.15159,0.08568
887.22284,0.08720
885.29410,0.08796
883.36535,0.08816
881.43661,0.08813
879.50786,0.08804
877.57911,0.08807
875.65037,0.08847
873.72162,0.08899
871.79288,0.08938
869.86413,0.08969
867.93539,0.09001
866.00664,0.09042
864.07790,0.09089
862.14915,0.09146
860.22041,0.09223
858.29166,0.09318
856.36292,0.09417
854.43417,0.09517
852.50543,0.09605
850.57668,0.09663
848.64794,0.09719
846.71919,0.09798
844.79044,0.09866
842.86170,0.09881
840.93295,0.09841
839.00421,0.09765
837.07546,0.09667
835.14672,0.09548
833.21797,0.09428
831.28923,0.09330
829.36048,0.09241
827.43174,0.09142
825.50299,0.09024
823.57425,0.08880
821.64550,0.08705
819.71676,0.08502
817.78801,0.08298
815.85926,0.08136
813.93052,0.08032
812.00177,0.07958
810.07303,0.07885
808.14428,0.07856
806.21554,0.07893
804.28679,0.07941
802.35805,0.07974
800.42930,0.07993
798.50056,0.07991
796.57181,0.07974
794.64307,0.07967
792.71432,0.07984
790.78558,0.08000
788.85683,0.07971
786.92809,0.07893
784.99934,0.07822
783.07059,0.07779
781.14185,0.07722
779.21310,0.07624
777.28436,0.07500
775.35561,0.07396
773.42687,0.07355
771.49812,0.07364
769.56938,0.07380
767.64063,0.07354
765.71189,0.07265
763.78314,0.07153
761.85440,0.07093
759.92565,0.07100
757.99691,0.07094
756.06816,0.07035
754.13942,0.06965
752.21067,0.06901
750.28192,0.06845
748.35318,0.06821
746.42443,0.06818
744.49569,0.06791
742.56694,0.06726
740.63820,0.06624
738.70945,0.06502
736.78071,0.06430
734.85196,0.06427
732.92322,0.06413
730.99447,0.06331
729.06573,0.06200
727.13698,0.06085
725.20824,0.06017
723.27949,0.05957
721.35074,0.05895
719.42200,0.05848
717.49325,0.05838
715.56451,0.05857
713.63576,0.05831
711.70702,0.05742
709.77827,0.05677
707.84953,0.05701
705.92078,0.05772
703.99204,0.05798
702.06329,0.05755
700.13455,0.05690
698.20580,0.05623
696.27706,0.05544
694.34831,0.05470
692.41957,0.05431
690.49082,0.05443
688.56207,0.05464
686.63333,0.05432
684.70458,0.05372
682.77584,0.05325
680.84709,0.05275
678.91835,0.05217
676.98960,0.05176
675.06086,0.05158
673.13211,0.05142
671.20337,0.05129
669.27462,0.05147
667.34588,0.05173
665.41713,0.05171
663.48839,0.05180
661.55964,0.05234
659.63090,0.05278
657.70215,0.05237
655.77340,0.05146
653.84466,0.05105
651.91591,0.05112
649.98717,0.05087
648.05842,0.05003
646.12968,0.04893
644.20093,0.04833
642.27219,0.04873
640.34344,0.04933
638.41470,0.04888
636.48595,0.04724
634.55721,0.04555
632.62846,0.04500
630.69972,0.04541
628.77097,0.04585
626.84222,0.04583
624.91348,0.04577
622.98473,0.04617
621.05599,0.04690
619.12724,0.04784
617.19850,0.04890
615.26975,0.04923
613.34101,0.04856
611.41226,0.04836
609.48352,0.04951
607.55477,0.05073
605.62603,0.05088
603.69728,0.05036
601.76854,0.04991
599.83979,0.04959
