7497.03301,0.79780
7495.10426,0.79279
7493.17552,0.78924
7491.24677,0.79267
7489.31803,0.79879
7487.38928,0.80087
7485.46054,0.79712
7483.53179,0.79283
7481.60305,0.79382
7479.67430,0.79519
7477.74556,0.79190
7475.81681,0.78965
7473.88807,0.79151
7471.95932,0.79089
7470.03057,0.78631
7468.10183,0.78433
7466.17308,0.78657
7464.24434,0.78819
7462.31559,0.78498
7460.38685,0.77852
7458.45810,0.77308
7456.52936,0.77018
7454.60061,0.77061
7452.67187,0.77406
7450.74312,0.77754
7448.81438,0.77839
7446.88563,0.77703
7444.95689,0.77526
7443.02814,0.77390
7441.09940,0.77227
7439.17065,0.76777
7437.24190,0.76106
7435.31316,0.75643
7433.38441,0.75490
7431.45567,0.75512
7429.52692,0.75668
7427.59818,0.75868
7425.66943,0.75990
7423.74069,0.76114
7421.81194,0.76271
7419.88320,0.76349
7417.95445,0.76476
7416.02571,0.76770
7414.09696,0.77017
7412.16822,0.76842
7410.23947,0.76301
7408.31073,0.75974
7406.38198,0.75929
7404.45323,0.75911
7402.52449,0.75831
7400.59574,0.75486
7398.66700,0.75175
7396.73825,0.75383
7394.80951,0.75798
7392.88076,0.76039
7390.95202,0.75910
7389.02327,0.75248
7387.09453,0.74522
7385.16578,0.74312
7383.23704,0.74585
7381.30829,0.75013
7379.37955,0.75385
7377.45080,0.75609
7375.52205,0.75527
7373.59331,0.75244
7371.66456,0.75100
7369.73582,0.75103
7367.80707,0.74987
7365.87833,0.74666
7363.94958,0.74434
7362.02084,0.74478
7360.09209,0.74569
7358.16335,0.74588
7356.23460,0.74511
7354.30586,0.74235
7352.37711,0.73992
7350.44837,0.73907
7348.51962,0.73707
7346.59088,0.73591
7344.66213,0.74110
7342.73338,0.74930
7340.80464,0.75166
7338.87589,0.74742
7336.94715,0.74103
7335.01840,0.73625
7333.08966,0.73538
7331.16091,0.73523
7329.23217,0.73307
7327.30342,0.73160
7325.37468,0.73200
7323.44593,0.73235
7321.51719,0.73300
7319.58844,0.73575
7317.65970,0.73839
7315.73095,0.73760
7313.80221,0.73460
7311.87346,0.73182
7309.94471,0.72813
7308.01597,0.72521
7306.08722,0.72856
7304.15848,0.73472
7302.22973,0.73609
7300.30099,0.73337
7298.37224,0.73127
7296.44350,0.73111
7294.51475,0.72996
7292.58601,0.72734
7290.65726,0.72603
7288.72852,0.72497
7286.79977,0.72230
7284.87103,0.72002
7282.94228,0.72030
7281.01353,0.72325
7279.08479,0.72625
7277.15604,0.72694
7275.22730,0.72671
7273.29855,0.72556
7271.36981,0.72435
7269.44106,0.72678
7267.51232,0.73004
7265.58357,0.73021
7263.65483,0.72982
7261.72608,0.73033
7259.79734,0.73098
7257.86859,0.73072
7255.93985,0.72683
7254.01110,0.72055
7252.08236,0.71758
7250.15361,0.72008
7248.22486,0.72476
7246.29612,0.72616
7244.36737,0.72397
7242.43863,0.72308
7240.50988,0.72362
7238.58114,0.72411
7236.65239,0.72541
7234.72365,0.72631
7232.79490,0.72574
7230.86616,0.72492
7228.93741,0.72399
7227.00867,0.72180
7225.07992,0.72028
7223.15118,0.72212
7221.22243,0.72491
7219.29369,0.72437
7217.36494,0.72049
7215.43619,0.71751
7213.50745,0.71745
7211.57870,0.71923
7209.64996,0.72217
7207.72121,0.72237
7205.79247,0.71759
7203.86372,0.71450
7201.93498,0.71572
7200.00623,0.71560
7198.07749,0.71322
7196.14874,0.71252
7194.22000,0.71501
7192.29125,0.71792
7190.36251,0.71746
7188.43376,0.71414
7186.50501,0.71205
7184.57627,0.71326
7182.64752,0.71450
7180.71878,0.71332
7178.79003,0.71261
7176.86129,0.71150
7174.93254,0.70613
7173.00380,0.69873
7171.07505,0.69443
7169.14631,0.69519
7167.21756,0.69868
7165.28882,0.70165
7163.36007,0.70312
7161.43133,0.70316
7159.50258,0.70402
7157.57384,0.70602
7155.64509,0.70447
7153.71634,0.69971
7151.78760,0.69791
7149.85885,0.70005
7147.93011,0.70138
7146.00136,0.70060
7144.07262,0.69930
7142.14387,0.69593
7140.21513,0.69048
7138.28638,0.68637
7136.35764,0.68497
7134.42889,0.68540
7132.50015,0.68607
7130.57140,0.68614
7128.64266,0.68651
7126.71391,0.68680
7124.78516,0.68547
7122.85642,0.68404
7120.92767,0.68364
7118.99893,0.68148
7117.07018,0.67785
7115.14144,0.67470
7113.21269,0.66953
7111.28395,0.66457
7109.35520,0.66604
7107.42646,0.67018
7105.49771,0.66965
7103.56897,0.66691
7101.64022,0.66667
7099.71148,0.66627
7097.78273,0.66228
7095.85399,0.65795
7093.92524,0.65594
7091.99649,0.65480
7090.06775,0.65493
7088.13900,0.65570
7086.21026,0.65444
7084.28151,0.65076
7082.35277,0.64676
7080.42402,0.64514
7078.49528,0.64544
7076.56653,0.64567
7074.63779,0.64521
7072.70904,0.64290
7070.78030,0.63983
7068.85155,0.63960
7066.92281,0.64139
7064.99406,0.64138
7063.06532,0.63859
7061.13657,0.63373
7059.20782,0.62898
7057.27908,0.62669
7055.35033,0.62542
7053.42159,0.62340
7051.49284,0.62232
7049.56410,0.62329
7047.63535,0.62357
7045.70661,0.62154
7043.77786,0.61905
7041.84912,0.61659
7039.92037,0.61313
7037.99163,0.60832
7036.06288,0.60398
7034.13414,0.60260
7032.20539,0.60263
7030.27664,0.60258
7028.34790,0.60271
7026.41915,0.60186
7024.49041,0.60141
7022.56166,0.60375
7020.63292,0.60610
7018.70417,0.60508
7016.77543,0.60286
7014.84668,0.60142
7012.91794,0.59787
7010.98919,0.59291
7009.06045,0.59248
7007.13170,0.59647
7005.20296,0.59876
7003.27421,0.59734
7001.34547,0.59525
6999.41672,0.59407
6997.48797,0.59258
6995.55923,0.59041
6993.63048,0.58777
6991.70174,0.58420
6989.77299,0.58090
6987.84425,0.58057
6985.91550,0.58295
6983.98676,0.58417
6982.05801,0.58358
6980.12927,0.58371
6978.20052,0.58341
6976.27178,0.58059
6974.34303,0.57711
6972.41429,0.57608
6970.48554,0.57791
6968.55680,0.58009
6966.62805,0.58042
6964.69930,0.57954
6962.77056,0.57821
6960.84181,0.57635
6958.91307,0.57422
6956.98432,0.57162
6955.05558,0.57053
6953.12683,0.57318
6951.19809,0.57689
6949.26934,0.57799
6947.34060,0.57613
6945.41185,0.57425
6943.48311,0.57522
6941.55436,0.57746
6939.62562,0.57780
6937.69687,0.57696
6935.76812,0.57729
6933.83938,0.57730
6931.91063,0.57560
6929.98189,0.57464
6928.05314,0.57519
6926.12440,0.57522
6924.19565,0.57373
6922.26691,0.57166
6920.33816,0.56965
6918.40942,0.56760
6916.48067,0.56639
6914.55193,0.56725
6912.62318,0.57016
6910.69444,0.57266
6908.76569,0.57352
6906.83695,0.57555
6904.90820,0.57852
6902.97945,0.57805
6901.05071,0.57284
6899.12196,0.56651
6897.19322,0.56408
6895.26447,0.56671
6893.33573,0.56990
6891.40698,0.56920
6889.47824,0.56701
6887.54949,0.56799
6885.62075,0.57111
6883.69200,0.57318
6881.76326,0.57269
6879.83451,0.56979
6877.90577,0.56767
6875.97702,0.56822
6874.04828,0.57081
6872.11953,0.57458
6870.19078,0.57553
6868.26204,0.57233
6866.33329,0.57046
6864.40455,0.57155
6862.47580,0.57214
6860.54706,0.57213
6858.61831,0.57285
6856.68957,0.57269
6854.76082,0.57136
6852.83208,0.57099
6850.90333,0.57070
6848.97459,0.56929
6847.04584,0.56898
6845.11710,0.56993
6843.18835,0.56841
6841.25960,0.56399
6839.33086,0.56118
6837.40211,0.56195
6835.47337,0.56397
6833.54462,0.56494
6831.61588,0.56420
6829.68713,0.56274
6827.75839,0.56208
6825.82964,0.56337
6823.90090,0.56558
6821.97215,0.56574
6820.04341,0.56456
6818.11466,0.56523
6816.18592,0.56772
6814.25717,0.56952
6812.32843,0.56947
6810.39968,0.56853
6808.47093,0.56731
6806.54219,0.56534
6804.61344,0.56316
6802.68470,0.56285
6800.75595,0.56465
6798.82721,0.56656
6796.89846,0.56706
6794.96972,0.56573
6793.04097,0.56478
6791.11223,0.56507
6789.18348,0.56445
6787.25474,0.56451
6785.32599,0.56558
6783.39725,0.56476
6781.46850,0.56439
6779.53975,0.56668
6777.61101,0.56953
6775.68226,0.57154
6773.75352,0.57107
6771.82477,0.56844
6769.89603,0.56716
6767.96728,0.56750
6766.03854,0.56854
6764.10979,0.56987
6762.18105,0.56847
6760.25230,0.56453
6758.32356,0.56285
6756.39481,0.56354
6754.46607,0.56396
6752.53732,0.56534
6750.60858,0.56741
6748.67983,0.56769
6746.75108,0.56692
6744.82234,0.56637
6742.89359,0.56495
6740.96485,0.56196
6739.03610,0.56033
6737.10736,0.56200
6735.17861,0.56413
6733.24987,0.56529
6731.32112,0.56635
6729.39238,0.56674
6727.46363,0.56607
6725.53489,0.56500
6723.60614,0.56408
6721.67740,0.56418
6719.74865,0.56613
6717.81991,0.56853
6715.89116,0.56968
6713.96241,0.56994
6712.03367,0.57010
6710.10492,0.57054
6708.17618,0.57121
6706.24743,0.57070
6704.31869,0.56769
6702.38994,0.56461
6700.46120,0.56443
6698.53245,0.56503
6696.60371,0.56426
6694.67496,0.56382
6692.74622,0.56515
6690.81747,0.56684
6688.88873,0.56708
6686.95998,0.56809
6685.03123,0.57170
6683.10249,0.57324
6681.17374,0.57121
6679.24500,0.57115
6677.31625,0.57407
6675.38751,0.57584
6673.45876,0.57477
6671.53002,0.57370
6669.60127,0.57551
6667.67253,0.57725
6665.74378,0.57638
6663.81504,0.57609
6661.88629,0.57686
6659.95755,0.57616
6658.02880,0.57483
6656.10006,0.57397
6654.17131,0.57375
6652.24256,0.57410
6650.31382,0.57317
6648.38507,0.57182
6646.45633,0.57264
6644.52758,0.57345
6642.59884,0.57247
6640.67009,0.57160
6638.74135,0.57193
6636.81260,0.57363
6634.88386,0.57613
6632.95511,0.57709
6631.02637,0.57558
6629.09762,0.57345
6627.16888,0.57294
6625.24013,0.57523
6623.31139,0.57839
6621.38264,0.57908
6619.45389,0.57803
6617.52515,0.57776
6615.59640,0.57817
6613.66766,0.57879
6611.73891,0.57991
6609.81017,0.58145
6607.88142,0.58309
6605.95268,0.58327
6604.02393,0.58028
6602.09519,0.57669
6600.16644,0.57621
6598.23770,0.57876
6596.30895,0.58262
6594.38021,0.58620
6592.45146,0.58737
6590.52271,0.58574
6588.59397,0.58432
6586.66522,0.58501
6584.73648,0.58596
6582.80773,0.58576
6580.87899,0.58453
6578.95024,0.58297
6577.02150,0.58254
6575.09275,0.58352
6573.16401,0.58524
6571.23526,0.58701
6569.30652,0.58811
6567.37777,0.58777
6565.44903,0.58609
6563.52028,0.58626
6561.59154,0.58940
6559.66279,0.59156
6557.73404,0.59044
6555.80530,0.58781
6553.87655,0.58701
6551.94781,0.58923
6550.01906,0.59152
6548.09032,0.59154
6546.16157,0.59089
6544.23283,0.59091
6542.30408,0.59113
6540.37534,0.59166
6538.44659,0.59186
6536.51785,0.59121
6534.58910,0.59116
6532.66036,0.59167
6530.73161,0.59131
6528.80287,0.59014
6526.87412,0.58886
6524.94537,0.58745
6523.01663,0.58651
6521.08788,0.58813
6519.15914,0.59178
6517.23039,0.59220
6515.30165,0.58880
6513.37290,0.58793
6511.44416,0.58968
6509.51541,0.58922
6507.58667,0.58706
6505.65792,0.58619
6503.72918,0.58802
6501.80043,0.59106
6499.87169,0.59174
6497.94294,0.58919
6496.01419,0.58730
6494.08545,0.58911
6492.15670,0.59200
6490.22796,0.59243
6488.29921,0.58963
6486.37047,0.58580
6484.44172,0.58467
6482.51298,0.58642
6480.58423,0.58869
6478.65549,0.59032
6476.72674,0.59152
6474.79800,0.59310
6472.86925,0.59412
6470.94051,0.59308
6469.01176,0.59156
6467.08302,0.59143
6465.15427,0.59203
6463.22552,0.59238
6461.29678,0.59202
6459.36803,0.59199
6457.43929,0.59279
6455.51054,0.59233
6453.58180,0.59109
6451.65305,0.59179
6449.72431,0.59420
6447.79556,0.59599
6445.86682,0.59621
6443.93807,0.59583
6442.00933,0.59560
6440.08058,0.59578
6438.15184,0.59630
6436.22309,0.59708
6434.29434,0.59811
6432.36560,0.59752
6430.43685,0.59484
6428.50811,0.59437
6426.57936,0.59763
6424.65062,0.59912
6422.72187,0.59648
6420.79313,0.59486
6418.86438,0.59728
6416.93564,0.60036
6415.00689,0.60026
6413.07815,0.59790
6411.14940,0.59627
6409.22066,0.59645
6407.29191,0.59821
6405.36317,0.60028
6403.43442,0.60127
6401.50567,0.60091
6399.57693,0.59977
6397.64818,0.59961
6395.71944,0.60087
6393.79069,0.60148
6391.86195,0.60089
6389.93320,0.60010
6388.00446,0.59866
6386.07571,0.59708
6384.14697,0.59723
6382.21822,0.59817
6380.28948,0.59827
6378.36073,0.59854
6376.43199,0.60002
6374.50324,0.60239
6372.57450,0.60403
6370.64575,0.60305
6368.71700,0.60028
6366.78826,0.59796
6364.85951,0.59751
6362.93077,0.59933
6361.00202,0.60174
6359.07328,0.60252
6357.14453,0.60171
6355.21579,0.60073
6353.28704,0.60040
6351.35830,0.60111
6349.42955,0.60268
6347.50081,0.60311
6345.57206,0.60163
6343.64332,0.60108
6341.71457,0.60355
6339.78582,0.60674
6337.85708,0.60584
6335.92833,0.60037
6333.99959,0.59686
6332.07084,0.59918
6330.14210,0.60295
6328.21335,0.60431
6326.28461,0.60418
6324.35586,0.60379
6322.42712,0.60374
6320.49837,0.60429
6318.56963,0.60488
6316.64088,0.60443
6314.71214,0.60242
6312.78339,0.60137
6310.85465,0.60328
6308.92590,0.60526
6306.99715,0.60537
6305.06841,0.60522
6303.13966,0.60626
6301.21092,0.60901
6299.28217,0.61145
6297.35343,0.61087
6295.42468,0.60834
6293.49594,0.60621
6291.56719,0.60496
6289.63845,0.60445
6287.70970,0.60540
6285.78096,0.60754
6283.85221,0.60929
6281.92347,0.61023
6279.99472,0.61121
6278.06598,0.61284
6276.13723,0.61384
6274.20848,0.61290
6272.27974,0.61225
6270.35099,0.61334
6268.42225,0.61317
6266.49350,0.61107
6264.56476,0.61065
6262.63601,0.61287
6260.70727,0.61565
6258.77852,0.61749
6256.84978,0.61763
6254.92103,0.61645
6252.99229,0.61542
6251.06354,0.61539
6249.13480,0.61648
6247.20605,0.61879
6245.27730,0.62152
6243.34856,0.62336
6241.41981,0.62375
6239.49107,0.62238
6237.56232,0.62050
6235.63358,0.62023
6233.70483,0.62172
6231.77609,0.62429
6229.84734,0.62662
6227.91860,0.62726
6225.98985,0.62703
6224.06111,0.62748
6222.13236,0.62826
6220.20362,0.62788
6218.27487,0.62705
6216.34613,0.62729
6214.41738,0.62749
6212.48863,0.62717
6210.55989,0.62800
6208.63114,0.62951
6206.70240,0.63007
6204.77365,0.62996
6202.84491,0.62998
6200.91616,0.63052
6198.98742,0.63200
6197.05867,0.63388
6195.12993,0.63456
6193.20118,0.63420
6191.27244,0.63491
6189.34369,0.63668
6187.41495,0.63773
6185.48620,0.63799
6183.55746,0.63863
6181.62871,0.63969
6179.69996,0.63991
6177.77122,0.63871
6175.84247,0.63720
6173.91373,0.63769
6171.98498,0.64085
6170.05624,0.64365
6168.12749,0.64334
6166.19875,0.64147
6164.27000,0.64092
6162.34126,0.64146
6160.41251,0.64244
6158.48377,0.64458
6156.55502,0.64655
6154.62628,0.64700
6152.69753,0.64714
6150.76878,0.64767
6148.84004,0.64756
6146.91129,0.64691
6144.98255,0.64659
6143.05380,0.64618
6141.12506,0.64620
6139.19631,0.64727
6137.26757,0.64841
6135.33882,0.64943
6133.41008,0.65035
6131.48133,0.65023
6129.55259,0.64997
6127.62384,0.65118
6125.69510,0.65208
6123.76635,0.65097
6121.83761,0.65002
6119.90886,0.65085
6117.98011,0.65189
6116.05137,0.65165
6114.12262,0.65126
6112.19388,0.65223
6110.26513,0.65367
6108.33639,0.65470
6106.40764,0.65647
6104.47890,0.65867
6102.55015,0.65844
6100.62141,0.65592
6098.69266,0.65493
6096.76392,0.65657
6094.83517,0.65785
6092.90643,0.65660
6090.97768,0.65455
6089.04893,0.65451
6087.12019,0.65639
6085.19144,0.65737
6083.26270,0.65572
6081.33395,0.65373
6079.40521,0.65385
6077.47646,0.65524
6075.54772,0.65596
6073.61897,0.65535
6071.69023,0.65468
6069.76148,0.65528
6067.83274,0.65643
6065.90399,0.65694
6063.97525,0.65622
6062.04650,0.65481
6060.11776,0.65402
6058.18901,0.65432
6056.26026,0.65506
6054.33152,0.65564
6052.40277,0.65603
6050.47403,0.65652
6048.54528,0.65678
6046.61654,0.65654
6044.68779,0.65616
6042.75905,0.65524
6040.83030,0.65380
6038.90156,0.65273
6036.97281,0.65253
6035.04407,0.65349
6033.11532,0.65474
6031.18658,0.65491
6029.25783,0.65451
6027.32909,0.65400
6025.40034,0.65219
6023.47159,0.64974
6021.54285,0.64885
6019.61410,0.64930
6017.68536,0.64989
6015.75661,0.65004
6013.82787,0.64896
6011.89912,0.64729
6009.97038,0.64674
6008.04163,0.64743
6006.11289,0.64808
6004.18414,0.64788
6002.25540,0.64710
6000.32665,0.64656
5998.39791,0.64677
5996.46916,0.64740
5994.54041,0.64758
5992.61167,0.64618
5990.68292,0.64404
5988.75418,0.64334
5986.82543,0.64372
5984.89669,0.64408
5982.96794,0.64471
5981.03920,0.64521
5979.11045,0.64459
5977.18171,0.64374
5975.25296,0.64422
5973.32422,0.64431
5971.39547,0.64253
5969.46673,0.64099
5967.53798,0.64088
5965.60924,0.64119
5963.68049,0.64200
5961.75174,0.64357
5959.82300,0.64427
5957.89425,0.64386
5955.96551,0.64411
5954.03676,0.64460
5952.10802,0.64401
5950.17927,0.64321
5948.25053,0.64346
5946.32178,0.64406
5944.39304,0.64367
5942.46429,0.64287
5940.53555,0.64328
5938.60680,0.64422
5936.67806,0.64345
5934.74931,0.64178
5932.82057,0.64250
5930.89182,0.64516
5928.96307,0.64587
5927.03433,0.64417
5925.10558,0.64316
5923.17684,0.64382
5921.24809,0.64519
5919.31935,0.64639
5917.39060,0.64663
5915.46186,0.64625
5913.53311,0.64584
5911.60437,0.64525
5909.67562,0.64443
5907.74688,0.64365
5905.81813,0.64330
5903.88939,0.64265
5901.96064,0.64119
5900.03189,0.64080
5898.10315,0.64187
5896.17440,0.64214
5894.24566,0.64148
5892.31691,0.64104
5890.38817,0.63991
5888.45942,0.63772
5886.53068,0.63626
5884.60193,0.63632
5882.67319,0.63697
5880.74444,0.63771
5878.81570,0.63802
5876.88695,0.63693
5874.95821,0.63526
5873.02946,0.63517
5871.10072,0.63625
5869.17197,0.63635
5867.24322,0.63533
5865.31448,0.63423
5863.38573,0.63374
5861.45699,0.63412
5859.52824,0.63503
5857.59950,0.63600
5855.67075,0.63645
5853.74201,0.63581
5851.81326,0.63465
5849.88452,0.63379
5847.95577,0.63351
5846.02703,0.63405
5844.09828,0.63439
5842.16954,0.63346
5840.24079,0.63285
5838.31205,0.63364
5836.38330,0.63379
5834.45455,0.63288
5832.52581,0.63331
5830.59706,0.63497
5828.66832,0.63533
5826.73957,0.63394
5824.81083,0.63248
5822.88208,0.63202
5820.95334,0.63238
5819.02459,0.63279
5817.09585,0.63258
5815.16710,0.63213
5813.23836,0.63169
5811.30961,0.63117
5809.38087,0.63150
5807.45212,0.63227
5805.52337,0.63212
5803.59463,0.63169
5801.66588,0.63120
5799.73714,0.63013
5797.80839,0.62952
5795.87965,0.62989
5793.95090,0.63043
5792.02216,0.63049
5790.09341,0.62981
5788.16467,0.62915
5786.23592,0.62904
5784.30718,0.62898
5782.37843,0.62928
5780.44969,0.63072
5778.52094,0.63276
5776.59220,0.63419
5774.66345,0.63454
5772.73470,0.63395
5770.80596,0.63286
5768.87721,0.63189
5766.94847,0.63118
5765.01972,0.63026
5763.09098,0.62950
5761.16223,0.63050
5759.23349,0.63328
5757.30474,0.63522
5755.37600,0.63505
5753.44725,0.63417
5751.51851,0.63371
5749.58976,0.63350
5747.66102,0.63340
5745.73227,0.63364
5743.80352,0.63384
5741.87478,0.63290
5739.94603,0.63142
5738.01729,0.63127
5736.08854,0.63202
5734.15980,0.63188
5732.23105,0.63076
5730.30231,0.62988
5728.37356,0.62942
5726.44482,0.62908
5724.51607,0.62947
5722.58733,0.63094
5720.65858,0.63257
5718.72984,0.63293
5716.80109,0.63190
5714.87235,0.63099
5712.94360,0.63114
5711.01485,0.63174
5709.08611,0.63159
5707.15736,0.63078
5705.22862,0.63052
5703.29987,0.63107
5701.37113,0.63176
5699.44238,0.63225
5697.51364,0.63219
5695.58489,0.63147
5693.65615,0.63101
5691.72740,0.63093
5689.79866,0.63065
5687.86991,0.63069
5685.94117,0.63140
5684.01242,0.63179
5682.08368,0.63108
5680.15493,0.63001
5678.22618,0.62944
5676.29744,0.62868
5674.36869,0.62732
5672.43995,0.62649
5670.51120,0.62640
5668.58246,0.62618
5666.65371,0.62598
5664.72497,0.62624
5662.79622,0.62687
5660.86748,0.62749
5658.93873,0.62776
5657.00999,0.62777
5655.08124,0.62734
5653.15250,0.62709
5651.22375,0.62766
5649.29500,0.62766
5647.36626,0.62655
5645.43751,0.62572
5643.50877,0.62579
5641.58002,0.62644
5639.65128,0.62678
5637.72253,0.62624
5635.79379,0.62593
5633.86504,0.62665
5631.93630,0.62731
5630.00755,0.62712
5628.07881,0.62638
5626.15006,0.62547
5624.22132,0.62493
5622.29257,0.62484
5620.36383,0.62475
5618.43508,0.62471
5616.50633,0.62490
5614.57759,0.62539
5612.64884,0.62667
5610.72010,0.62844
5608.79135,0.62904
5606.86261,0.62796
5604.93386,0.62662
5603.00512,0.62587
5601.07637,0.62531
5599.14763,0.62497
5597.21888,0.62522
5595.29014,0.62548
5593.36139,0.62507
5591.43265,0.62475
5589.50390,0.62510
5587.57516,0.62542
5585.64641,0.62568
5583.71766,0.62635
5581.78892,0.62654
5579.86017,0.62617
5577.93143,0.62640
5576.00268,0.62699
5574.07394,0.62758
5572.14519,0.62879
5570.21645,0.63009
5568.28770,0.63022
5566.35896,0.62906
5564.43021,0.62796
5562.50147,0.62824
5560.57272,0.62947
5558.64398,0.63002
5556.71523,0.62937
5554.78648,0.62873
5552.85774,0.62908
5550.92899,0.62974
5549.00025,0.62991
5547.07150,0.62949
5545.14276,0.62869
5543.21401,0.62829
5541.28527,0.62874
5539.35652,0.62956
5537.42778,0.63028
5535.49903,0.63103
5533.57029,0.63175
5531.64154,0.63159
5529.71280,0.63068
5527.78405,0.63017
5525.85531,0.63000
5523.92656,0.62985
5521.99781,0.63032
5520.06907,0.63130
5518.14032,0.63173
5516.21158,0.63197
5514.28283,0.63254
5512.35409,0.63261
5510.42534,0.63210
5508.49660,0.63188
5506.56785,0.63218
5504.63911,0.63262
5502.71036,0.63244
5500.78162,0.63146
5498.85287,0.63085
5496.92413,0.63121
5494.99538,0.63157
5493.06664,0.63144
5491.13789,0.63166
5489.20914,0.63309
5487.28040,0.63513
5485.35165,0.63579
5483.42291,0.63444
5481.49416,0.63305
5479.56542,0.63322
5477.63667,0.63468
5475.70793,0.63585
5473.77918,0.63553
5471.85044,0.63496
5469.92169,0.63539
5467.99295,0.63585
5466.06420,0.63515
5464.13546,0.63359
5462.20671,0.63275
5460.27796,0.63327
5458.34922,0.63406
5456.42047,0.63447
5454.49173,0.63500
5452.56298,0.63597
5450.63424,0.63686
5448.70549,0.63726
5446.77675,0.63739
5444.84800,0.63741
5442.91926,0.63755
5440.99051,0.63862
5439.06177,0.64064
5437.13302,0.64199
5435.20428,0.64151
5433.27553,0.64031
5431.34679,0.64017
5429.41804,0.64110
5427.48929,0.64195
5425.56055,0.64248
5423.63180,0.64309
5421.70306,0.64350
5419.77431,0.64348
5417.84557,0.64346
5415.91682,0.64363
5413.98808,0.64413
5412.05933,0.64514
5410.13059,0.64593
5408.20184,0.64564
5406.27310,0.64472
5404.34435,0.64419
5402.41561,0.64450
5400.48686,0.64531
5398.55811,0.64570
5396.62937,0.64557
5394.70062,0.64571
5392.77188,0.64602
5390.84313,0.64580
5388.91439,0.64539
5386.98564,0.64576
5385.05690,0.64664
5383.12815,0.64683
5381.19941,0.64676
5379.27066,0.64729
5377.34192,0.64780
5375.41317,0.64774
5373.48443,0.64725
5371.55568,0.64690
5369.62694,0.64702
5367.69819,0.64709
5365.76944,0.64673
5363.84070,0.64616
5361.91195,0.64577
5359.98321,0.64562
5358.05446,0.64536
5356.12572,0.64495
5354.19697,0.64439
5352.26823,0.64343
5350.33948,0.64259
5348.41074,0.64272
5346.48199,0.64317
5344.55325,0.64254
5342.62450,0.64139
5340.69576,0.64092
5338.76701,0.64043
5336.83827,0.63914
5334.90952,0.63781
5332.98077,0.63718
5331.05203,0.63697
5329.12328,0.63658
5327.19454,0.63570
5325.26579,0.63423
5323.33705,0.63267
5321.40830,0.63146
5319.47956,0.63055
5317.55081,0.62927
5315.62207,0.62703
5313.69332,0.62455
5311.76458,0.62256
5309.83583,0.62063
5307.90709,0.61857
5305.97834,0.61676
5304.04959,0.61517
5302.12085,0.61309
5300.19210,0.61070
5298.26336,0.60901
5296.33461,0.60751
5294.40587,0.60488
5292.47712,0.60154
5290.54838,0.59851
5288.61963,0.59541
5286.69089,0.59183
5284.76214,0.58832
5282.83340,0.58491
5280.90465,0.58152
5278.97591,0.57859
5277.04716,0.57534
5275.11842,0.57066
5273.18967,0.56566
5271.26092,0.56219
5269.33218,0.55990
5267.40343,0.55739
5265.47469,0.55394
5263.54594,0.54959
5261.61720,0.54530
5259.68845,0.54139
5257.75971,0.53745
5255.83096,0.53381
5253.90222,0.53096
5251.97347,0.52851
5250.04473,0.52549
5248.11598,0.52198
5246.18724,0.51906
5244.25849,0.51672
5242.32975,0.51398
5240.40100,0.51081
5238.47225,0.50789
5236.54351,0.50522
5234.61476,0.50269
5232.68602,0.50071
5230.75727,0.49897
5228.82853,0.49715
5226.89978,0.49584
5224.97104,0.49497
5223.04229,0.49375
5221.11355,0.49210
5219.18480,0.49057
5217.25606,0.48934
5215.32731,0.48806
5213.39857,0.48672
5211.46982,0.48582
5209.54107,0.48529
5207.61233,0.48487
5205.68358,0.48460
5203.75484,0.48400
5201.82609,0.48297
5199.89735,0.48215
5197.96860,0.48146
5196.03986,0.48083
5194.11111,0.48054
5192.18237,0.48037
5190.25362,0.48052
5188.32488,0.48129
5186.39613,0.48211
5184.46739,0.48232
5182.53864,0.48201
5180.60990,0.48201
5178.68115,0.48241
5176.75240,0.48246
5174.82366,0.48288
5172.89491,0.48434
5170.96617,0.48546
5169.03742,0.48565
5167.10868,0.48591
5165.17993,0.48664
5163.25119,0.48750
5161.32244,0.48825
5159.39370,0.48899
5157.46495,0.48994
5155.53621,0.49120
5153.60746,0.49263
5151.67872,0.49381
5149.74997,0.49463
5147.82123,0.49527
5145.89248,0.49595
5143.96373,0.49708
5142.03499,0.49852
5140.10624,0.49944
5138.17750,0.49987
5136.24875,0.50073
5134.32001,0.50200
5132.39126,0.50325
5130.46252,0.50474
5128.53377,0.50644
5126.60503,0.50771
5124.67628,0.50865
5122.74754,0.50969
5120.81879,0.51035
5118.89005,0.51073
5116.96130,0.51169
5115.03255,0.51297
5113.10381,0.51399
5111.17506,0.51510
5109.24632,0.51662
5107.31757,0.51807
5105.38883,0.51898
5103.46008,0.51943
5101.53134,0.51956
5099.60259,0.51978
5097.67385,0.52050
5095.74510,0.52161
5093.81636,0.52292
5091.88761,0.52426
5089.95887,0.52538
5088.03012,0.52630
5086.10138,0.52708
5084.17263,0.52793
5082.24388,0.52897
5080.31514,0.52979
5078.38639,0.53049
5076.45765,0.53161
5074.52890,0.53309
5072.60016,0.53409
5070.67141,0.53438
5068.74267,0.53474
5066.81392,0.53584
5064.88518,0.53726
5062.95643,0.53831
5061.02769,0.53906
5059.09894,0.53997
5057.17020,0.54082
5055.24145,0.54106
5053.31270,0.54112
5051.38396,0.54188
5049.45521,0.54334
5047.52647,0.54496
5045.59772,0.54649
5043.66898,0.54771
5041.74023,0.54833
5039.81149,0.54837
5037.88274,0.54831
5035.95400,0.54849
5034.02525,0.54912
5032.09651,0.55030
5030.16776,0.55123
5028.23902,0.55131
5026.31027,0.55141
5024.38153,0.55227
5022.45278,0.55343
5020.52403,0.55436
5018.59529,0.55502
5016.66654,0.55533
5014.73780,0.55558
5012.80905,0.55624
5010.88031,0.55697
5008.95156,0.55715
5007.02282,0.55687
5005.09407,0.55688
5003.16533,0.55735
5001.23658,0.55752
4999.30784,0.55728
4997.37909,0.55716
4995.45035,0.55721
4993.52160,0.55730
4991.59286,0.55722
4989.66411,0.55702
4987.73536,0.55706
4985.80662,0.55734
4983.87787,0.55762
4981.94913,0.55768
4980.02038,0.55728
4978.09164,0.55633
4976.16289,0.55516
4974.23415,0.55432
4972.30540,0.55382
4970.37666,0.55302
4968.44791,0.55166
4966.51917,0.55056
4964.59042,0.55030
4962.66168,0.55035
4960.73293,0.55009
4958.80418,0.54922
4956.87544,0.54789
4954.94669,0.54644
4953.01795,0.54507
4951.08920,0.54397
4949.16046,0.54288
4947.23171,0.54152
4945.30297,0.54005
4943.37422,0.53847
4941.44548,0.53667
4939.51673,0.53499
4937.58799,0.53360
4935.65924,0.53214
4933.73050,0.53050
4931.80175,0.52885
4929.87301,0.52725
4927.94426,0.52584
4926.01551,0.52472
4924.08677,0.52365
4922.15802,0.52211
4920.22928,0.51991
4918.30053,0.51763
4916.37179,0.51581
4914.44304,0.51421
4912.51430,0.51265
4910.58555,0.51118
4908.65681,0.50957
4906.72806,0.50794
4904.79932,0.50657
4902.87057,0.50489
4900.94183,0.50308
4899.01308,0.50222
4897.08434,0.50144
4895.15559,0.49923
4893.22684,0.49678
4891.29810,0.49524
4889.36935,0.49387
4887.44061,0.49235
4885.51186,0.49081
4883.58312,0.48923
4881.65437,0.48768
4879.72563,0.48564
4877.79688,0.48318
4875.86814,0.48123
4873.93939,0.47990
4872.01065,0.47891
4870.08190,0.47804
4868.15316,0.47640
4866.22441,0.47417
4864.29566,0.47262
4862.36692,0.47177
4860.43817,0.47105
4858.50943,0.47008
4856.58068,0.46865
4854.65194,0.46710
4852.72319,0.46560
4850.79445,0.46395
4848.86570,0.46259
4846.93696,0.46172
4845.00821,0.46070
4843.07947,0.45948
4841.15072,0.45858
4839.22198,0.45772
4837.29323,0.45634
4835.36449,0.45469
4833.43574,0.45319
4831.50699,0.45185
4829.57825,0.45052
4827.64950,0.44913
4825.72076,0.44805
4823.79201,0.44747
4821.86327,0.44685
4819.93452,0.44616
4818.00578,0.44588
4816.07703,0.44560
4814.14829,0.44457
4812.21954,0.44286
4810.29080,0.44117
4808.36205,0.44008
4806.43331,0.43980
4804.50456,0.43988
4802.57582,0.43959
4800.64707,0.43890
4798.71832,0.43787
4796.78958,0.43663
4794.86083,0.43614
4792.93209,0.43652
4791.00334,0.43685
4789.07460,0.43653
4787.14585,0.43578
4785.21711,0.43515
4783.28836,0.43477
4781.35962,0.43443
4779.43087,0.43407
4777.50213,0.43366
4775.57338,0.43348
4773.64464,0.43365
4771.71589,0.43368
4769.78714,0.43330
4767.85840,0.43280
4765.92965,0.43247
4764.00091,0.43228
4762.07216,0.43218
4760.14342,0.43221
4758.21467,0.43228
4756.28593,0.43259
4754.35718,0.43325
4752.42844,0.43378
4750.49969,0.43396
4748.57095,0.43397
4746.64220,0.43383
4744.71346,0.43373
4742.78471,0.43392
4740.85597,0.43407
4738.92722,0.43373
4736.99847,0.43345
4735.06973,0.43387
4733.14098,0.43440
4731.21224,0.43454
4729.28349,0.43470
4727.35475,0.43492
4725.42600,0.43512
4723.49726,0.43551
4721.56851,0.43598
4719.63977,0.43623
4717.71102,0.43643
4715.78228,0.43684
4713.85353,0.43722
4711.92479,0.43733
4709.99604,0.43724
4708.06729,0.43734
4706.13855,0.43807
4704.20980,0.43886
4702.28106,0.43929
4700.35231,0.43971
4698.42357,0.44011
4696.49482,0.44018
4694.56608,0.43994
4692.63733,0.43994
4690.70859,0.44055
4688.77984,0.44149
4686.85110,0.44236
4684.92235,0.44297
4682.99361,0.44344
4681.06486,0.44400
4679.13612,0.44449
4677.20737,0.44498
4675.27862,0.44572
4673.34988,0.44658
4671.42113,0.44739
4669.49239,0.44824
4667.56364,0.44910
4665.63490,0.44993
4663.70615,0.45077
4661.77741,0.45117
4659.84866,0.45113
4657.91992,0.45159
4655.99117,0.45288
4654.06243,0.45439
4652.13368,0.45549
4650.20494,0.45612
4648.27619,0.45662
4646.34745,0.45713
4644.41870,0.45766
4642.48995,0.45828
4640.56121,0.45892
4638.63246,0.45974
4636.70372,0.46090
4634.77497,0.46205
4632.84623,0.46288
4630.91748,0.46353
4628.98874,0.46417
4627.05999,0.46500
4625.13125,0.46597
4623.20250,0.46693
4621.27376,0.46765
4619.34501,0.46811
4617.41627,0.46891
4615.48752,0.47023
4613.55877,0.47157
4611.63003,0.47273
4609.70128,0.47385
4607.77254,0.47469
4605.84379,0.47506
4603.91505,0.47575
4601.98630,0.47719
4600.05756,0.47850
4598.12881,0.47925
4596.20007,0.48019
4594.27132,0.48159
4592.34258,0.48268
4590.41383,0.48341
4588.48509,0.48426
4586.55634,0.48493
4584.62760,0.48518
4582.69885,0.48553
4580.77010,0.48630
4578.84136,0.48718
4576.91261,0.48794
4574.98387,0.48858
4573.05512,0.48913
4571.12638,0.48976
4569.19763,0.49067
4567.26889,0.49177
4565.34014,0.49253
4563.41140,0.49258
4561.48265,0.49263
4559.55391,0.49348
4557.62516,0.49466
4555.69642,0.49528
4553.76767,0.49511
4551.83893,0.49460
4549.91018,0.49462
4547.98143,0.49539
4546.05269,0.49644
4544.12394,0.49741
4542.19520,0.49780
4540.26645,0.49763
4538.33771,0.49781
4536.40896,0.49859
4534.48022,0.49941
4532.55147,0.49994
4530.62273,0.50015
4528.69398,0.50014
4526.76524,0.50006
4524.83649,0.50007
4522.90775,0.50019
4520.97900,0.50026
4519.05025,0.50026
4517.12151,0.50031
4515.19276,0.50029
4513.26402,0.50032
4511.33527,0.50070
4509.40653,0.50092
4507.47778,0.50068
4505.54904,0.50055
4503.62029,0.50062
4501.69155,0.50032
4499.76280,0.49948
4497.83406,0.49828
4495.90531,0.49709
4493.97657,0.49633
4492.04782,0.49589
4490.11908,0.49504
4488.19033,0.49365
4486.26158,0.49232
4484.33284,0.49116
4482.40409,0.48990
4480.47535,0.48862
4478.54660,0.48714
4476.61786,0.48551
4474.68911,0.48404
4472.76037,0.48240
4470.83162,0.48053
4468.90288,0.47886
4466.97413,0.47715
4465.04539,0.47523
4463.11664,0.47337
4461.18790,0.47149
4459.25915,0.46941
4457.33041,0.46712
4455.40166,0.46455
4453.47291,0.46191
4451.54417,0.45957
4449.61542,0.45750
4447.68668,0.45554
4445.75793,0.45362
4443.82919,0.45163
4441.90044,0.44955
4439.97170,0.44753
4438.04295,0.44540
4436.11421,0.44282
4434.18546,0.43988
4432.25672,0.43706
4430.32797,0.43438
4428.39923,0.43165
4426.47048,0.42918
4424.54173,0.42702
4422.61299,0.42493
4420.68424,0.42281
4418.75550,0.42046
4416.82675,0.41797
4414.89801,0.41546
4412.96926,0.41297
4411.04052,0.41107
4409.11177,0.40988
4407.18303,0.40872
4405.25428,0.40747
4403.32554,0.40649
4401.39679,0.40572
4399.46805,0.40512
4397.53930,0.40488
4395.61056,0.40507
4393.68181,0.40551
4391.75306,0.40587
4389.82432,0.40615
4387.89557,0.40654
4385.96683,0.40713
4384.03808,0.40777
4382.10934,0.40832
4380.18059,0.40895
4378.25185,0.40975
4376.32310,0.41046
4374.39436,0.41115
4372.46561,0.41203
4370.53687,0.41292
4368.60812,0.41386
4366.67938,0.41493
4364.75063,0.41583
4362.82189,0.41636
4360.89314,0.41681
4358.96439,0.41726
4357.03565,0.41737
4355.10690,0.41705
4353.17816,0.41667
4351.24941,0.41628
4349.32067,0.41587
4347.39192,0.41570
4345.46318,0.41560
4343.53443,0.41533
4341.60569,0.41514
4339.67694,0.41498
4337.74820,0.41436
4335.81945,0.41344
4333.89071,0.41274
4331.96196,0.41213
4330.03321,0.41128
4328.10447,0.41039
4326.17572,0.40971
4324.24698,0.40899
4322.31823,0.40801
4320.38949,0.40708
4318.46074,0.40627
4316.53200,0.40523
4314.60325,0.40403
4312.67451,0.40292
4310.74576,0.40189
4308.81702,0.40105
4306.88827,0.40046
4304.95953,0.39994
4303.03078,0.39933
4301.10204,0.39858
4299.17329,0.39760
4297.24454,0.39643
4295.31580,0.39534
4293.38705,0.39443
4291.45831,0.39372
4289.52956,0.39319
4287.60082,0.39267
4285.67207,0.39203
4283.74333,0.39151
4281.81458,0.39158
4279.88584,0.39204
4277.95709,0.39215
4276.02835,0.39210
4274.09960,0.39238
4272.17086,0.39283
4270.24211,0.39320
4268.31336,0.39367
4266.38462,0.39437
4264.45587,0.39490
4262.52713,0.39499
4260.59838,0.39504
4258.66964,0.39523
4256.74089,0.39543
4254.81215,0.39584
4252.88340,0.39649
4250.95466,0.39684
4249.02591,0.39676
4247.09717,0.39685
4245.16842,0.39728
4243.23968,0.39750
4241.31093,0.39752
4239.38219,0.39772
4237.45344,0.39802
4235.52469,0.39800
4233.59595,0.39770
4231.66720,0.39778
4229.73846,0.39844
4227.80971,0.39899
4225.88097,0.39894
4223.95222,0.39845
4222.02348,0.39802
4220.09473,0.39785
4218.16599,0.39756
4216.23724,0.39736
4214.30850,0.39767
4212.37975,0.39815
4210.45101,0.39843
4208.52226,0.39867
4206.59352,0.39889
4204.66477,0.39909
4202.73602,0.39932
4200.80728,0.39949
4198.87853,0.39952
4196.94979,0.39974
4195.02104,0.40017
4193.09230,0.40046
4191.16355,0.40071
4189.23481,0.40092
4187.30606,0.40082
4185.37732,0.40069
4183.44857,0.40085
4181.51983,0.40110
4179.59108,0.40135
4177.66234,0.40183
4175.73359,0.40252
4173.80484,0.40331
4171.87610,0.40403
4169.94735,0.40432
4168.01861,0.40414
4166.08986,0.40412
4164.16112,0.40467
4162.23237,0.40521
4160.30363,0.40519
4158.37488,0.40482
4156.44614,0.40455
4154.51739,0.40418
4152.58865,0.40348
4150.65990,0.40285
4148.73116,0.40258
4146.80241,0.40231
4144.87367,0.40178
4142.94492,0.40109
4141.01617,0.40021
4139.08743,0.39900
4137.15868,0.39773
4135.22994,0.39687
4133.30119,0.39636
4131.37245,0.39563
4129.44370,0.39452
4127.51496,0.39312
4125.58621,0.39154
4123.65747,0.39024
4121.72872,0.38928
4119.79998,0.38807
4117.87123,0.38640
4115.94249,0.38471
4114.01374,0.38316
4112.08500,0.38144
4110.15625,0.37961
4108.22750,0.37784
4106.29876,0.37608
4104.37001,0.37435
4102.44127,0.37247
4100.51252,0.37032
4098.58378,0.36842
4096.65503,0.36696
4094.72629,0.36522
4092.79754,0.36289
4090.86880,0.36044
4088.94005,0.35835
4087.01131,0.35662
4085.08256,0.35485
4083.15382,0.35290
4081.22507,0.35101
4079.29632,0.34923
4077.36758,0.34742
4075.43883,0.34559
4073.51009,0.34382
4071.58134,0.34200
4069.65260,0.34006
4067.72385,0.33806
4065.79511,0.33601
4063.86636,0.33393
4061.93762,0.33195
4060.00887,0.33009
4058.08013,0.32816
4056.15138,0.32624
4054.22264,0.32434
4052.29389,0.32223
4050.36515,0.32026
4048.43640,0.31876
4046.50765,0.31721
4044.57891,0.31531
4042.65016,0.31363
4040.72142,0.31232
4038.79267,0.31091
4036.86393,0.30949
4034.93518,0.30846
4033.00644,0.30773
4031.07769,0.30707
4029.14895,0.30648
4027.22020,0.30583
4025.29146,0.30510
4023.36271,0.30442
4021.43397,0.30380
4019.50522,0.30330
4017.57648,0.30306
4015.64773,0.30303
4013.71898,0.30320
4011.79024,0.30344
4009.86149,0.30339
4007.93275,0.30316
4006.00400,0.30320
4004.07526,0.30375
4002.14651,0.30453
4000.21777,0.30503
3998.28902,0.30529
3996.36028,0.30571
3994.43153,0.30635
3992.50279,0.30698
3990.57404,0.30760
3988.64530,0.30809
3986.71655,0.30831
3984.78780,0.30857
3982.85906,0.30921
3980.93031,0.30999
3979.00157,0.31053
3977.07282,0.31089
3975.14408,0.31127
3973.21533,0.31176
3971.28659,0.31254
3969.35784,0.31351
3967.42910,0.31438
3965.50035,0.31516
3963.57161,0.31607
3961.64286,0.31707
3959.71412,0.31788
3957.78537,0.31843
3955.85663,0.31903
3953.92788,0.31993
3951.99913,0.32109
3950.07039,0.32233
3948.14164,0.32328
3946.21290,0.32381
3944.28415,0.32433
3942.35541,0.32521
3940.42666,0.32633
3938.49792,0.32751
3936.56917,0.32871
3934.64043,0.32973
3932.71168,0.33063
3930.78294,0.33159
3928.85419,0.33246
3926.92545,0.33333
3924.99670,0.33437
3923.06795,0.33561
3921.13921,0.33675
3919.21046,0.33744
3917.28172,0.33808
3915.35297,0.33901
3913.42423,0.33994
3911.49548,0.34081
3909.56674,0.34166
3907.63799,0.34233
3905.70925,0.34273
3903.78050,0.34314
3901.85176,0.34405
3899.92301,0.34527
3897.99427,0.34624
3896.06552,0.34700
3894.13678,0.34764
3892.20803,0.34818
3890.27928,0.34873
3888.35054,0.34934
3886.42179,0.35023
3884.49305,0.35125
3882.56430,0.35187
3880.63556,0.35238
3878.70681,0.35298
3876.77807,0.35329
3874.84932,0.35353
3872.92058,0.35417
3870.99183,0.35511
3869.06309,0.35610
3867.13434,0.35690
3865.20560,0.35762
3863.27685,0.35845
3861.34811,0.35946
3859.41936,0.36066
3857.49061,0.36187
3855.56187,0.36289
3853.63312,0.36403
3851.70438,0.36516
3849.77563,0.36590
3847.84689,0.36651
3845.91814,0.36709
3843.98940,0.36759
3842.06065,0.36814
3840.13191,0.36875
3838.20316,0.36921
3836.27442,0.36964
3834.34567,0.37008
3832.41693,0.37027
3830.48818,0.37034
3828.55943,0.37055
3826.63069,0.37073
3824.70194,0.37065
3822.77320,0.37053
3820.84445,0.37074
3818.91571,0.37105
3816.98696,0.37121
3815.05822,0.37121
3813.12947,0.37090
3811.20073,0.37044
3809.27198,0.37008
3807.34324,0.36977
3805.41449,0.36946
3803.48575,0.36926
3801.55700,0.36940
3799.62826,0.36967
3797.69951,0.36955
3795.77076,0.36896
3793.84202,0.36844
3791.91327,0.36820
3789.98453,0.36802
3788.05578,0.36801
3786.12704,0.36818
3784.19829,0.36804
3782.26955,0.36769
3780.34080,0.36760
3778.41206,0.36744
3776.48331,0.36690
3774.55457,0.36640
3772.62582,0.36594
3770.69708,0.36522
3768.76833,0.36438
3766.83959,0.36388
3764.91084,0.36362
3762.98209,0.36302
3761.05335,0.36221
3759.12460,0.36161
3757.19586,0.36099
3755.26711,0.36024
3753.33837,0.35964
3751.40962,0.35887
3749.48088,0.35749
3747.55213,0.35601
3745.62339,0.35481
3743.69464,0.35373
3741.76590,0.35249
3739.83715,0.35117
3737.90841,0.34988
3735.97966,0.34850
3734.05091,0.34706
3732.12217,0.34568
3730.19342,0.34420
3728.26468,0.34257
3726.33593,0.34091
3724.40719,0.33910
3722.47844,0.33707
3720.54970,0.33504
3718.62095,0.33289
3716.69221,0.33064
3714.76346,0.32860
3712.83472,0.32653
3710.90597,0.32380
3708.97723,0.32057
3707.04848,0.31737
3705.11974,0.31423
3703.19099,0.31096
3701.26224,0.30737
3699.33350,0.30352
3697.40475,0.29965
3695.47601,0.29577
3693.54726,0.29176
3691.61852,0.28729
3689.68977,0.28199
3687.76103,0.27608
3685.83228,0.27036
3683.90354,0.26477
3681.97479,0.25883
3680.04605,0.25280
3678.11730,0.24685
3676.18856,0.23994
3674.25981,0.23242
3672.33107,0.22581
3670.40232,0.21901
3668.47357,0.21157
3666.54483,0.20495
3664.61608,0.19893
3662.68734,0.19275
3660.75859,0.18657
3658.82985,0.18063
3656.90110,0.17444
3654.97236,0.16844
3653.04361,0.16364
3651.11487,0.15929
3649.18612,0.15424
3647.25738,0.14902
3645.32863,0.14446
3643.39989,0.14034
3641.47114,0.13626
3639.54239,0.13221
3637.61365,0.12839
3635.68490,0.12494
3633.75616,0.12169
3631.82741,0.11858
3629.89867,0.11544
3627.96992,0.11200
3626.04118,0.10883
3624.11243,0.10602
3622.18369,0.10304
3620.25494,0.09993
3618.32620,0.09737
3616.39745,0.09542
3614.46871,0.09319
3612.53996,0.09055
3610.61122,0.08803
3608.68247,0.08559
3606.75372,0.08337
3604.82498,0.08167
3602.89623,0.08011
3600.96749,0.07836
3599.03874,0.07667
3597.11000,0.07526
3595.18125,0.07387
3593.25251,0.07207
3591.32376,0.07015
3589.39502,0.06860
3587.46627,0.06716
3585.53753,0.06574
3583.60878,0.06468
3581.68004,0.06384
3579.75129,0.06281
3577.82254,0.06171
3575.89380,0.06073
3573.96505,0.05970
3572.03631,0.05865
3570.10756,0.05781
3568.17882,0.05706
3566.25007,0.05610
3564.32133,0.05529
3562.39258,0.05485
3560.46384,0.05426
3558.53509,0.05326
3556.60635,0.05227
3554.67760,0.05157
3552.74886,0.05117
3550.82011,0.05091
3548.89137,0.05042
3546.96262,0.04977
3545.03387,0.04917
3543.10513,0.04851
3541.17638,0.04792
3539.24764,0.04764
3537.31889,0.04738
3535.39015,0.04679
3533.46140,0.04607
3531.53266,0.04573
3529.60391,0.04570
3527.67517,0.04546
3525.74642,0.04503
3523.81768,0.04473
3521.88893,0.04457
3519.96019,0.04434
3518.03144,0.04392
3516.10270,0.04346
3514.17395,0.04296
3512.24520,0.04257
3510.31646,0.04256
3508.38771,0.04248
3506.45897,0.04193
3504.53022,0.04129
3502.60148,0.04103
3500.67273,0.04108
3498.74399,0.04097
3496.81524,0.04058
3494.88650,0.04024
3492.95775,0.04005
3491.02901,0.03989
3489.10026,0.03992
3487.17152,0.04021
3485.24277,0.04033
3483.31402,0.04008
3481.38528,0.03971
3479.45653,0.03947
3477.52779,0.03940
3475.59904,0.03933
3473.67030,0.03901
3471.74155,0.03852
3469.81281,0.03822
3467.88406,0.03831
3465.95532,0.03844
3464.02657,0.03837
3462.09783,0.03821
3460.16908,0.03808
3458.24034,0.03803
3456.31159,0.03809
3454.38285,0.03810
3452.45410,0.03801
3450.52535,0.03787
3448.59661,0.03790
3446.66786,0.03811
3444.73912,0.03836
3442.81037,0.03845
3440.88163,0.03821
3438.95288,0.03791
3437.02414,0.03791
3435.09539,0.03810
3433.16665,0.03826
3431.23790,0.03846
3429.30916,0.03878
3427.38041,0.03898
3425.45167,0.03877
3423.52292,0.03838
3421.59418,0.03825
3419.66543,0.03845
3417.73668,0.03865
3415.80794,0.03859
3413.87919,0.03832
3411.95045,0.03813
3410.02170,0.03825
3408.09296,0.03852
3406.16421,0.03871
3404.23547,0.03878
3402.30672,0.03887
3400.37798,0.03893
3398.44923,0.03882
3396.52049,0.03874
3394.59174,0.03887
3392.66300,0.03904
3390.73425,0.03911
3388.80550,0.03900
3386.87676,0.03885
3384.94801,0.03891
3383.01927,0.03896
3381.09052,0.03872
3379.16178,0.03853
3377.23303,0.03877
3375.30429,0.03910
3373.37554,0.03927
3371.44680,0.03941
3369.51805,0.03945
3367.58931,0.03947
3365.66056,0.03972
3363.73182,0.03989
3361.80307,0.03967
3359.87433,0.03930
3357.94558,0.03915
3356.01683,0.03934
3354.08809,0.03969
3352.15934,0.03994
3350.23060,0.03999
3348.30185,0.04006
3346.37311,0.04030
3344.44436,0.04046
3342.51562,0.04054
3340.58687,0.04075
3338.65813,0.04106
3336.72938,0.04134
3334.80064,0.04141
3332.87189,0.04135
3330.94315,0.04153
3329.01440,0.04188
3327.08566,0.04215
3325.15691,0.04243
3323.22816,0.04271
3321.29942,0.04292
3319.37067,0.04297
3317.44193,0.04286
3315.51318,0.04293
3313.58444,0.04323
3311.65569,0.04331
3309.72695,0.04311
3307.79820,0.04305
3305.86946,0.04337
3303.94071,0.04379
3302.01197,0.04398
3300.08322,0.04390
3298.15448,0.04379
3296.22573,0.04399
3294.29698,0.04451
3292.36824,0.04493
3290.43949,0.04504
3288.51075,0.04496
3286.58200,0.04496
3284.65326,0.04525
3282.72451,0.04557
3280.79577,0.04578
3278.86702,0.04596
3276.93828,0.04601
3275.00953,0.04607
3273.08079,0.04635
3271.15204,0.04671
3269.22330,0.04707
3267.29455,0.04750
3265.36581,0.04790
3263.43706,0.04809
3261.50831,0.04820
3259.57957,0.04844
3257.65082,0.04878
3255.72208,0.04903
3253.79333,0.04922
3251.86459,0.04941
3249.93584,0.04954
3248.00710,0.04977
3246.07835,0.05022
3244.14961,0.05065
3242.22086,0.05081
3240.29212,0.05085
3238.36337,0.05102
3236.43463,0.05132
3234.50588,0.05168
3232.57713,0.05203
3230.64839,0.05230
3228.71964,0.05266
3226.79090,0.05332
3224.86215,0.05388
3222.93341,0.05406
3221.00466,0.05444
3219.07592,0.05523
3217.14717,0.05583
3215.21843,0.05613
3213.28968,0.05634
3211.36094,0.05643
3209.43219,0.05661
3207.50345,0.05711
3205.57470,0.05762
3203.64596,0.05786
3201.71721,0.05805
3199.78846,0.05846
3197.85972,0.05895
3195.93097,0.05915
3194.00223,0.05929
3192.07348,0.05975
3190.14474,0.06036
3188.21599,0.06077
3186.28725,0.06109
3184.35850,0.06160
3182.42976,0.06227
3180.50101,0.06284
3178.57227,0.06321
3176.64352,0.06353
3174.71478,0.06393
3172.78603,0.06448
3170.85729,0.06516
3168.92854,0.06569
3166.99979,0.06616
3165.07105,0.06673
3163.14230,0.06723
3161.21356,0.06768
3159.28481,0.06820
3157.35607,0.06869
3155.42732,0.06920
3153.49858,0.06984
3151.56983,0.07053
3149.64109,0.07126
3147.71234,0.07193
3145.78360,0.07245
3143.85485,0.07302
3141.92611,0.07379
3139.99736,0.07445
3138.06861,0.07483
3136.13987,0.07513
3134.21112,0.07566
3132.28238,0.07647
3130.35363,0.07733
3128.42489,0.07806
3126.49614,0.07867
3124.56740,0.07924
3122.63865,0.07992
3120.70991,0.08078
3118.78116,0.08156
3116.85242,0.08211
3114.92367,0.08264
3112.99493,0.08319
3111.06618,0.08366
3109.13744,0.08424
3107.20869,0.08499
3105.27994,0.08577
3103.35120,0.08643
3101.42245,0.08692
3099.49371,0.08737
3097.56496,0.08803
3095.63622,0.08880
3093.70747,0.08945
3091.77873,0.08994
3089.84998,0.09014
3087.92124,0.09035
3085.99249,0.09113
3084.06375,0.09219
3082.13500,0.09285
3080.20626,0.09302
3078.27751,0.09319
3076.34877,0.09381
3074.42002,0.09475
3072.49127,0.09557
3070.56253,0.09630
3068.63378,0.09717
3066.70504,0.09793
3064.77629,0.09827
3062.84755,0.09848
3060.91880,0.09900
3058.99006,0.09976
3057.06131,0.10036
3055.13257,0.10076
3053.20382,0.10129
3051.27508,0.10199
3049.34633,0.10261
3047.41759,0.10314
3045.48884,0.10379
3043.56009,0.10433
3041.63135,0.10449
3039.70260,0.10460
3037.77386,0.10517
3035.84511,0.10599
3033.91637,0.10655
3031.98762,0.10667
3030.05888,0.10659
3028.13013,0.10655
3026.20139,0.10668
3024.27264,0.10691
3022.34390,0.10697
3020.41515,0.10676
3018.48641,0.10644
3016.55766,0.10609
3014.62892,0.10571
3012.70017,0.10525
3010.77142,0.10460
3008.84268,0.10391
3006.91393,0.10341
3004.98519,0.10291
3003.05644,0.10208
3001.12770,0.10114
2999.19895,0.10049
2997.27021,0.10000
2995.34146,0.09944
2993.41272,0.09872
2991.48397,0.09770
2989.55523,0.09652
2987.62648,0.09525
2985.69774,0.09376
2983.76899,0.09203
2981.84025,0.09013
2979.91150,0.08799
2977.98275,0.08549
2976.05401,0.08290
2974.12526,0.08049
2972.19652,0.07808
2970.26777,0.07576
2968.33903,0.07387
2966.41028,0.07248
2964.48154,0.07159
2962.55279,0.07106
2960.62405,0.07040
2958.69530,0.06944
2956.76656,0.06847
2954.83781,0.06763
2952.90907,0.06676
2950.98032,0.06574
2949.05157,0.06469
2947.12283,0.06384
2945.19408,0.06306
2943.26534,0.06213
2941.33659,0.06130
2939.40785,0.06086
2937.47910,0.06074
2935.55036,0.06078
2933.62161,0.06071
2931.69287,0.06048
2929.76412,0.06030
2927.83538,0.06019
2925.90663,0.06007
2923.97789,0.05989
2922.04914,0.05965
2920.12040,0.05943
2918.19165,0.05935
2916.26290,0.05945
2914.33416,0.05957
2912.40541,0.05952
2910.47667,0.05946
2908.54792,0.05945
2906.61918,0.05943
2904.69043,0.05942
2902.76169,0.05938
2900.83294,0.05940
2898.90420,0.05973
2896.97545,0.06025
2895.04671,0.06080
2893.11796,0.06128
2891.18922,0.06153
2889.26047,0.06175
2887.33172,0.06219
2885.40298,0.06271
2883.47423,0.06310
2881.54549,0.06337
2879.61674,0.06367
2877.68800,0.06404
2875.75925,0.06429
2873.83051,0.06444
2871.90176,0.06468
2869.97302,0.06511
2868.04427,0.06573
2866.11553,0.06639
2864.18678,0.06702
2862.25804,0.06767
2860.32929,0.06837
2858.40055,0.06910
2856.47180,0.06981
2854.54305,0.07060
2852.61431,0.07170
2850.68556,0.07306
2848.75682,0.07448
2846.82807,0.07604
2844.89933,0.07766
2842.97058,0.07921
2841.04184,0.08088
2839.11309,0.08265
2837.18435,0.08427
2835.25560,0.08577
2833.32686,0.08737
2831.39811,0.08912
2829.46937,0.09090
2827.54062,0.09282
2825.61188,0.09487
2823.68313,0.09684
2821.75438,0.09868
2819.82564,0.10056
2817.89689,0.10246
2815.96815,0.10420
2814.03940,0.10579
2812.11066,0.10738
2810.18191,0.10886
2808.25317,0.11008
2806.32442,0.11126
2804.39568,0.11260
2802.46693,0.11390
2800.53819,0.11497
2798.60944,0.11601
2796.68070,0.11706
2794.75195,0.11794
2792.82320,0.11880
2790.89446,0.11975
2788.96571,0.12062
2787.03697,0.12127
2785.10822,0.12166
2783.17948,0.12205
2781.25073,0.12267
2779.32199,0.12323
2777.39324,0.12358
2775.46450,0.12397
2773.53575,0.12443
2771.60701,0.12488
2769.67826,0.12537
2767.74952,0.12580
2765.82077,0.12605
2763.89203,0.12613
2761.96328,0.12625
2760.03453,0.12661
2758.10579,0.12706
2756.17704,0.12748
2754.24830,0.12786
2752.31955,0.12800
2750.39081,0.12796
2748.46206,0.12803
2746.53332,0.12821
2744.60457,0.12847
2742.67583,0.12877
2740.74708,0.12885
2738.81834,0.12875
2736.88959,0.12883
2734.96085,0.12917
2733.03210,0.12958
2731.10336,0.13001
2729.17461,0.13048
2727.24586,0.13103
2725.31712,0.13158
2723.38837,0.13204
2721.45963,0.13242
2719.53088,0.13280
2717.60214,0.13328
2715.67339,0.13399
2713.74465,0.13497
2711.81590,0.13607
2709.88716,0.13701
2707.95841,0.13776
2706.02967,0.13857
2704.10092,0.13940
2702.17218,0.14005
2700.24343,0.14072
2698.31468,0.14169
2696.38594,0.14277
2694.45719,0.14366
2692.52845,0.14440
2690.59970,0.14519
2688.67096,0.14608
2686.74221,0.14696
2684.81347,0.14771
2682.88472,0.14838
2680.95598,0.14917
2679.02723,0.15006
2677.09849,0.15084
2675.16974,0.15149
2673.24100,0.15215
2671.31225,0.15279
2669.38351,0.15336
2667.45476,0.15394
2665.52601,0.15446
2663.59727,0.15490
2661.66852,0.15544
2659.73978,0.15607
2657.81103,0.15672
2655.88229,0.15728
2653.95354,0.15774
2652.02480,0.15833
2650.09605,0.15901
2648.16731,0.15951
2646.23856,0.15991
2644.30982,0.16059
2642.38107,0.16177
2640.45233,0.16293
2638.52358,0.16346
2636.59484,0.16367
2634.66609,0.16424
2632.73734,0.16509
2630.80860,0.16589
2628.87985,0.16662
2626.95111,0.16724
2625.02236,0.16771
2623.09362,0.16823
2621.16487,0.16894
2619.23613,0.16962
2617.30738,0.17006
2615.37864,0.17036
2613.44989,0.17078
2611.52115,0.17139
2609.59240,0.17209
2607.66366,0.17280
2605.73491,0.17344
2603.80616,0.17389
2601.87742,0.17428
2599.94867,0.17491
2598.01993,0.17564
2596.09118,0.17615
2594.16244,0.17648
2592.23369,0.17686
2590.30495,0.17745
2588.37620,0.17814
2586.44746,0.17859
2584.51871,0.17881
2582.58997,0.17914
2580.66122,0.17955
2578.73248,0.17987
2576.80373,0.18013
2574.87499,0.18035
2572.94624,0.18048
2571.01749,0.18053
2569.08875,0.18057
2567.16000,0.18080
2565.23126,0.18117
2563.30251,0.18143
2561.37377,0.18154
2559.44502,0.18169
2557.51628,0.18182
2555.58753,0.18186
2553.65879,0.18178
2551.73004,0.18167
2549.80130,0.18167
2547.87255,0.18184
2545.94381,0.18202
2544.01506,0.18213
2542.08631,0.18224
2540.15757,0.18242
2538.22882,0.18270
2536.30008,0.18308
2534.37133,0.18349
2532.44259,0.18392
2530.51384,0.18445
2528.58510,0.18513
2526.65635,0.18578
2524.72761,0.18631
2522.79886,0.18698
2520.87012,0.18773
2518.94137,0.18824
2517.01263,0.18856
2515.08388,0.18896
2513.15514,0.18954
2511.22639,0.19030
2509.29764,0.19119
2507.36890,0.19216
2505.44015,0.19325
2503.51141,0.19442
2501.58266,0.19563
2499.65392,0.19673
2497.72517,0.19758
2495.79643,0.19841
2493.86768,0.19934
2491.93894,0.20022
2490.01019,0.20104
2488.08145,0.20187
2486.15270,0.20271
2484.22396,0.20358
2482.29521,0.20442
2480.36647,0.20521
2478.43772,0.20605
2476.50897,0.20687
2474.58023,0.20757
2472.65148,0.20835
2470.72274,0.20930
2468.79399,0.21017
2466.86525,0.21086
2464.93650,0.21149
2463.00776,0.21224
2461.07901,0.21303
2459.15027,0.21377
2457.22152,0.21448
2455.29278,0.21513
2453.36403,0.21586
2451.43529,0.21673
2449.50654,0.21761
2447.57779,0.21850
2445.64905,0.21948
2443.72030,0.22056
2441.79156,0.22161
2439.86281,0.22247
2437.93407,0.22314
2436.00532,0.22381
2434.07658,0.22465
2432.14783,0.22577
2430.21909,0.22707
2428.29034,0.22823
2426.36160,0.22918
2424.43285,0.23012
2422.50411,0.23127
2420.57536,0.23253
2418.64662,0.23361
2416.71787,0.23456
2414.78912,0.23567
2412.86038,0.23692
2410.93163,0.23808
2409.00289,0.23906
2407.07414,0.24003
2405.14540,0.24102
2403.21665,0.24187
2401.28791,0.24255
2399.35916,0.24326
2397.43042,0.24423
2395.50167,0.24535
2393.57293,0.24629
2391.64418,0.24703
2389.71544,0.24780
2387.78669,0.24869
2385.85795,0.24959
2383.92920,0.25044
2382.00045,0.25133
2380.07171,0.25225
2378.14296,0.25313
2376.21422,0.25391
2374.28547,0.25464
2372.35673,0.25531
2370.42798,0.25586
2368.49924,0.25632
2366.57049,0.25697
2364.64175,0.25782
2362.71300,0.25853
2360.78426,0.25904
2358.85551,0.25950
2356.92677,0.26006
2354.99802,0.26068
2353.06927,0.26122
2351.14053,0.26168
2349.21178,0.26221
2347.28304,0.26288
2345.35429,0.26353
2343.42555,0.26402
2341.49680,0.26438
2339.56806,0.26483
2337.63931,0.26531
2335.71057,0.26561
2333.78182,0.26584
2331.85308,0.26618
2329.92433,0.26656
2327.99559,0.26683
2326.06684,0.26696
2324.13810,0.26711
2322.20935,0.26737
2320.28060,0.26758
2318.35186,0.26767
2316.42311,0.26772
2314.49437,0.26784
2312.56562,0.26803
2310.63688,0.26818
2308.70813,0.26813
2306.77939,0.26789
2304.85064,0.26759
2302.92190,0.26713
2300.99315,0.26651
2299.06441,0.26612
2297.13566,0.26613
2295.20692,0.26621
2293.27817,0.26608
2291.34943,0.26575
2289.42068,0.26540
2287.49193,0.26507
2285.56319,0.26485
2283.63444,0.26476
2281.70570,0.26453
2279.77695,0.26408
2277.84821,0.26353
2275.91946,0.26284
2273.99072,0.26209
2272.06197,0.26161
2270.13323,0.26132
2268.20448,0.26082
2266.27574,0.25994
2264.34699,0.25879
2262.41825,0.25765
2260.48950,0.25681
2258.56075,0.25628
2256.63201,0.25583
2254.70326,0.25530
2252.77452,0.25482
2250.84577,0.25448
2248.91703,0.25427
2246.98828,0.25417
2245.05954,0.25404
2243.13079,0.25375
2241.20205,0.25332
2239.27330,0.25277
2237.34456,0.25222
2235.41581,0.25179
2233.48707,0.25159
2231.55832,0.25149
2229.62958,0.25130
2227.70083,0.25100
2225.77208,0.25072
2223.84334,0.25055
2221.91459,0.25053
2219.98585,0.25058
2218.05710,0.25061
2216.12836,0.25062
2214.19961,0.25056
2212.27087,0.25034
2210.34212,0.24994
2208.41338,0.24944
2206.48463,0.24896
2204.55589,0.24857
2202.62714,0.24820
2200.69840,0.24769
2198.76965,0.24685
2196.84090,0.24578
2194.91216,0.24475
2192.98341,0.24389
2191.05467,0.24308
2189.12592,0.24207
2187.19718,0.24079
2185.26843,0.23950
2183.33969,0.23835
2181.41094,0.23716
2179.48220,0.23584
2177.55345,0.23443
2175.62471,0.23302
2173.69596,0.23187
2171.76722,0.23098
2169.83847,0.22990
2167.90973,0.22852
2165.98098,0.22725
2164.05223,0.22635
2162.12349,0.22559
2160.19474,0.22481
2158.26600,0.22409
2156.33725,0.22344
2154.40851,0.22283
2152.47976,0.22225
2150.55102,0.22176
2148.62227,0.22130
2146.69353,0.22069
2144.76478,0.22000
2142.83604,0.21938
2140.90729,0.21892
2138.97855,0.21860
2137.04980,0.21847
2135.12106,0.21859
2133.19231,0.21875
2131.26356,0.21870
2129.33482,0.21865
2127.40607,0.21887
2125.47733,0.21932
2123.54858,0.21979
2121.61984,0.22008
2119.69109,0.22029
2117.76235,0.22066
2115.83360,0.22117
2113.90486,0.22169
2111.97611,0.22215
2110.04737,0.22248
2108.11862,0.22278
2106.18988,0.22312
2104.26113,0.22346
2102.33238,0.22374
2100.40364,0.22401
2098.47489,0.22434
2096.54615,0.22469
2094.61740,0.22508
2092.68866,0.22553
2090.75991,0.22577
2088.83117,0.22573
2086.90242,0.22571
2084.97368,0.22570
2083.04493,0.22563
2081.11619,0.22567
2079.18744,0.22569
2077.25870,0.22543
2075.32995,0.22498
2073.40121,0.22447
2071.47246,0.22387
2069.54371,0.22332
2067.61497,0.22307
2065.68622,0.22303
2063.75748,0.22287
2061.82873,0.22252
2059.89999,0.22219
2057.97124,0.22202
2056.04250,0.22203
2054.11375,0.22220
2052.18501,0.22237
2050.25626,0.22260
2048.32752,0.22301
2046.39877,0.22343
2044.47003,0.22379
2042.54128,0.22433
2040.61254,0.22518
2038.68379,0.22616
2036.75504,0.22710
2034.82630,0.22807
2032.89755,0.22918
2030.96881,0.23047
2029.04006,0.23170
2027.11132,0.23268
2025.18257,0.23379
2023.25383,0.23520
2021.32508,0.23657
2019.39634,0.23768
2017.46759,0.23870
2015.53885,0.23980
2013.61010,0.24095
2011.68136,0.24200
2009.75261,0.24283
2007.82386,0.24346
2005.89512,0.24400
2003.96637,0.24465
2002.03763,0.24548
2000.10888,0.24630
1998.18014,0.24686
1996.25139,0.24731
1994.32265,0.24800
1992.39390,0.24902
1990.46516,0.24999
1988.53641,0.25060
1986.60767,0.25106
1984.67892,0.25167
1982.75018,0.25243
1980.82143,0.25311
1978.89269,0.25365
1976.96394,0.25406
1975.03519,0.25443
1973.10645,0.25487
1971.17770,0.25535
1969.24896,0.25582
1967.32021,0.25635
1965.39147,0.25695
1963.46272,0.25766
1961.53398,0.25851
1959.60523,0.25943
1957.67649,0.26030
1955.74774,0.26116
1953.81900,0.26215
1951.89025,0.26324
1949.96151,0.26427
1948.03276,0.26518
1946.10402,0.26620
1944.17527,0.26736
1942.24652,0.26845
1940.31778,0.26940
1938.38903,0.27031
1936.46029,0.27115
1934.53154,0.27189
1932.60280,0.27255
1930.67405,0.27316
1928.74531,0.27369
1926.81656,0.27410
1924.88782,0.27443
1922.95907,0.27478
1921.03033,0.27519
1919.10158,0.27559
1917.17284,0.27575
1915.24409,0.27571
1913.31534,0.27581
1911.38660,0.27604
1909.45785,0.27612
1907.52911,0.27596
1905.60036,0.27569
1903.67162,0.27539
1901.74287,0.27508
1899.81413,0.27484
1897.88538,0.27470
1895.95664,0.27456
1894.02789,0.27437
1892.09915,0.27416
1890.17040,0.27393
1888.24166,0.27378
1886.31291,0.27373
1884.38417,0.27363
1882.45542,0.27338
1880.52667,0.27311
1878.59793,0.27294
1876.66918,0.27288
1874.74044,0.27282
1872.81169,0.27269
1870.88295,0.27252
1868.95420,0.27224
1867.02546,0.27179
1865.09671,0.27133
1863.16797,0.27094
1861.23922,0.27046
1859.31048,0.26979
1857.38173,0.26904
1855.45299,0.26841
1853.52424,0.26788
1851.59549,0.26728
1849.66675,0.26655
1847.73800,0.26577
1845.80926,0.26496
1843.88051,0.26399
1841.95177,0.26292
1840.02302,0.26193
1838.09428,0.26098
1836.16553,0.26001
1834.23679,0.25901
1832.30804,0.25792
1830.37930,0.25683
1828.45055,0.25576
1826.52181,0.25452
1824.59306,0.25307
1822.66432,0.25164
1820.73557,0.25023
1818.80682,0.24863
1816.87808,0.24693
1814.94933,0.24520
1813.02059,0.24338
1811.09184,0.24134
1809.16310,0.23917
1807.23435,0.23703
1805.30561,0.23485
1803.37686,0.23247
1801.44812,0.22980
1799.51937,0.22691
1797.59063,0.22389
1795.66188,0.22082
1793.73314,0.21763
1791.80439,0.21429
1789.87565,0.21089
1787.94690,0.20729
1786.01815,0.20335
1784.08941,0.19907
1782.16066,0.19444
1780.23192,0.18946
1778.30317,0.18411
1776.37443,0.17850
1774.44568,0.17244
1772.51694,0.16526
1770.58819,0.15728
1768.65945,0.14930
1766.73070,0.14122
1764.80196,0.13309
1762.87321,0.12454
1760.94447,0.11574
1759.01572,0.10789
1757.08697,0.10078
1755.15823,0.09427
1753.22948,0.08876
1751.30074,0.08404
1749.37199,0.08013
1747.44325,0.07712
1745.51450,0.07472
1743.58576,0.07274
1741.65701,0.07124
1739.72827,0.07026
1737.79952,0.06987
1735.87078,0.06982
1733.94203,0.06977
1732.01329,0.06994
1730.08454,0.07065
1728.15580,0.07174
1726.22705,0.07288
1724.29830,0.07400
1722.36956,0.07531
1720.44081,0.07689
1718.51207,0.07883
1716.58332,0.08116
1714.65458,0.08355
1712.72583,0.08588
1710.79709,0.08815
1708.86834,0.09021
1706.93960,0.09209
1705.01085,0.09369
1703.08211,0.09472
1701.15336,0.09529
1699.22462,0.09554
1697.29587,0.09531
1695.36713,0.09459
1693.43838,0.09364
1691.50963,0.09243
1689.58089,0.09082
1687.65214,0.08909
1685.72340,0.08716
1683.79465,0.08466
1681.86591,0.08209
1679.93716,0.07991
1678.00842,0.07795
1676.07967,0.07591
1674.15093,0.07362
1672.22218,0.07150
1670.29344,0.06965
1668.36469,0.06810
1666.43595,0.06707
1664.50720,0.06622
1662.57845,0.06544
1660.64971,0.06518
1658.72096,0.06543
1656.79222,0.06582
1654.86347,0.06613
1652.93473,0.06647
1651.00598,0.06696
1649.07724,0.06747
1647.14849,0.06770
1645.21975,0.06754
1643.29100,0.06736
1641.36226,0.06728
1639.43351,0.06730
1637.50477,0.06745
1635.57602,0.06757
1633.64728,0.06762
1631.71853,0.06770
1629.78978,0.06784
1627.86104,0.06796
1625.93229,0.06797
1624.00355,0.06786
1622.07480,0.06771
1620.14606,0.06753
1618.21731,0.06729
1616.28857,0.06690
1614.35982,0.06614
1612.43108,0.06514
1610.50233,0.06415
1608.57359,0.06348
1606.64484,0.06317
1604.71610,0.06309
1602.78735,0.06305
1600.85861,0.06289
1598.92986,0.06264
1597.00111,0.06240
1595.07237,0.06237
1593.14362,0.06279
1591.21488,0.06366
1589.28613,0.06482
1587.35739,0.06640
1585.42864,0.06855
1583.49990,0.07115
1581.57115,0.07406
1579.64241,0.07719
1577.71366,0.08077
1575.78492,0.08500
1573.85617,0.08902
1571.92743,0.09268
1569.99868,0.09643
1568.06993,0.09975
1566.14119,0.10242
1564.21244,0.10475
1562.28370,0.10656
1560.35495,0.10786
1558.42621,0.10899
1556.49746,0.10980
1554.56872,0.11020
1552.63997,0.11022
1550.71123,0.10995
1548.78248,0.10953
1546.85374,0.10898
1544.92499,0.10818
1542.99625,0.10706
1541.06750,0.10567
1539.13876,0.10376
1537.21001,0.10163
1535.28126,0.09915
1533.35252,0.09549
1531.42377,0.09089
1529.49503,0.08609
1527.56628,0.08085
1525.63754,0.07509
1523.70879,0.06922
1521.78005,0.06312
1519.85130,0.05730
1517.92256,0.05284
1515.99381,0.04978
1514.06507,0.04792
1512.13632,0.04709
1510.20758,0.04720
1508.27883,0.04812
1506.35008,0.04953
1504.42134,0.05114
1502.49259,0.05300
1500.56385,0.05513
1498.63510,0.05742
1496.70636,0.05973
1494.77761,0.06170
1492.84887,0.06294
1490.92012,0.06343
1488.99138,0.06318
1487.06263,0.06232
1485.13389,0.06120
1483.20514,0.05999
1481.27640,0.05874
1479.34765,0.05741
1477.41891,0.05582
1475.49016,0.05380
1473.56141,0.05131
1471.63267,0.04876
1469.70392,0.04694
1467.77518,0.04592
1465.84643,0.04534
1463.91769,0.04502
1461.98894,0.04486
1460.06020,0.04478
1458.13145,0.04458
1456.20271,0.04424
1454.27396,0.04417
1452.34522,0.04433
1450.41647,0.04441
1448.48773,0.04445
1446.55898,0.04469
1444.63024,0.04508
1442.70149,0.04520
1440.77274,0.04479
1438.84400,0.04399
1436.91525,0.04305
1434.98651,0.04231
1433.05776,0.04190
1431.12902,0.04172
1429.20027,0.04165
1427.27153,0.04167
1425.34278,0.04184
1423.41404,0.04228
1421.48529,0.04294
1419.55655,0.04373
1417.62780,0.04442
1415.69906,0.04501
1413.77031,0.04570
1411.84156,0.04631
1409.91282,0.04665
1407.98407,0.04686
1406.05533,0.04698
1404.12658,0.04699
1402.19784,0.04694
1400.26909,0.04687
1398.34035,0.04685
1396.41160,0.04669
1394.48286,0.04616
1392.55411,0.04541
1390.62537,0.04466
1388.69662,0.04386
1386.76788,0.04285
1384.83913,0.04179
1382.91039,0.04087
1380.98164,0.04011
1379.05289,0.03972
1377.12415,0.03980
1375.19540,0.03997
1373.26666,0.04003
1371.33791,0.04023
1369.40917,0.04065
1367.48042,0.04112
1365.55168,0.04161
1363.62293,0.04200
1361.69419,0.04217
1359.76544,0.04226
1357.83670,0.04246
1355.90795,0.04277
1353.97921,0.04315
1352.05046,0.04348
1350.12172,0.04362
1348.19297,0.04354
1346.26422,0.04336
1344.33548,0.04312
1342.40673,0.04278
1340.47799,0.04246
1338.54924,0.04217
1336.62050,0.04194
1334.69175,0.04194
1332.76301,0.04212
1330.83426,0.04223
1328.90552,0.04205
1326.97677,0.04174
1325.04803,0.04151
1323.11928,0.04123
1321.19054,0.04094
1319.26179,0.04089
1317.33304,0.04108
1315.40430,0.04137
1313.47555,0.04173
1311.54681,0.04213
1309.61806,0.04253
1307.68932,0.04283
1305.76057,0.04291
1303.83183,0.04288
1301.90308,0.04291
1299.97434,0.04291
1298.04559,0.04267
1296.11685,0.04225
1294.18810,0.04175
1292.25936,0.04112
1290.33061,0.04049
1288.40187,0.03999
1286.47312,0.03958
1284.54437,0.03914
1282.61563,0.03867
1280.68688,0.03833
1278.75814,0.03815
1276.82939,0.03795
1274.90065,0.03768
1272.97190,0.03759
1271.04316,0.03780
1269.11441,0.03813
1267.18567,0.03848
1265.25692,0.03881
1263.32818,0.03911
1261.39943,0.03947
1259.47069,0.03980
1257.54194,0.04004
1255.61320,0.04030
1253.68445,0.04061
1251.75570,0.04076
1249.82696,0.04071
1247.89821,0.04068
1245.96947,0.04068
1244.04072,0.04055
1242.11198,0.04034
1240.18323,0.04024
1238.25449,0.04025
1236.32574,0.04024
1234.39700,0.04022
1232.46825,0.04035
1230.53951,0.04058
1228.61076,0.04090
1226.68202,0.04127
1224.75327,0.04147
1222.82452,0.04149
1220.89578,0.04145
1218.96703,0.04149
1217.03829,0.04157
1215.10954,0.04152
1213.18080,0.04136
1211.25205,0.04132
1209.32331,0.04131
1207.39456,0.04107
1205.46582,0.04081
1203.53707,0.04087
1201.60833,0.04116
1199.67958,0.04141
1197.75084,0.04144
1195.82209,0.04113
1193.89335,0.04062
1191.96460,0.04019
1190.03585,0.03974
1188.10711,0.03899
1186.17836,0.03802
1184.24962,0.03700
1182.32087,0.03591
1180.39213,0.03483
1178.46338,0.03392
1176.53464,0.03315
1174.60589,0.03252
1172.67715,0.03230
1170.74840,0.03266
1168.81966,0.03366
1166.89091,0.03507
1164.96217,0.03632
1163.03342,0.03715
1161.10467,0.03780
1159.17593,0.03834
1157.24718,0.03865
1155.31844,0.03858
1153.38969,0.03800
1151.46095,0.03728
1149.53220,0.03676
1147.60346,0.03620
1145.67471,0.03552
1143.74597,0.03487
1141.81722,0.03416
1139.88848,0.03340
1137.95973,0.03287
1136.03099,0.03262
1134.10224,0.03241
1132.17350,0.03207
1130.24475,0.03168
1128.31600,0.03154
1126.38726,0.03185
1124.45851,0.03232
1122.52977,0.03258
1120.60102,0.03267
1118.67228,0.03286
1116.74353,0.03332
1114.81479,0.03411
1112.88604,0.03506
1110.95730,0.03582
1109.02855,0.03628
1107.09981,0.03661
1105.17106,0.03694
1103.24232,0.03722
1101.31357,0.03728
1099.38483,0.03720
1097.45608,0.03690
1095.52733,0.03622
1093.59859,0.03556
1091.66984,0.03544
1089.74110,0.03577
1087.81235,0.03624
1085.88361,0.03685
1083.95486,0.03775
1082.02612,0.03887
1080.09737,0.04008
1078.16863,0.04133
1076.23988,0.04261
1074.31114,0.04389
1072.38239,0.04521
1070.45365,0.04663
1068.52490,0.04817
1066.59615,0.05008
1064.66741,0.05242
1062.73866,0.05485
1060.80992,0.05694
1058.88117,0.05829
1056.95243,0.05886
1055.02368,0.05907
1053.09494,0.05899
1051.16619,0.05830
1049.23745,0.05708
1047.30870,0.05604
1045.37996,0.05555
1043.45121,0.05557
1041.52247,0.05619
1039.59372,0.05743
1037.66498,0.05899
1035.73623,0.06053
1033.80748,0.06172
1031.87874,0.06241
1029.94999,0.06290
1028.02125,0.06343
1026.09250,0.06369
1024.16376,0.06348
1022.23501,0.06325
1020.30627,0.06342
1018.37752,0.06375
1016.44878,0.06397
1014.52003,0.06418
1012.59129,0.06447
1010.66254,0.06466
1008.73380,0.06458
1006.80505,0.06440
1004.87631,0.06415
1002.94756,0.06410
1001.01881,0.06445
999.09007,0.06500
997.16132,0.06552
995.23258,0.06595
993.30383,0.06624
991.37509,0.06674
989.44634,0.06758
987.51760,0.06855
985.58885,0.06983
983.66011,0.07163
981.73136,0.07367
979.80262,0.07554
977.87387,0.07702
975.94513,0.07810
974.01638,0.07885
972.08763,0.07941
970.15889,0.08003
968.23014,0.08070
966.30140,0.08132
964.37265,0.08187
962.44391,0.08242
960.51516,0.08334
958.58642,0.08475
956.65767,0.08601
954.72893,0.08687
952.80018,0.08782
950.87144,0.08902
948.94269,0.09019
947.01395,0.09107
945.08520,0.09152
943.15646,0.09183
941.22771,0.09246
939.29896,0.09336
937.37022,0.09408
935.44147,0.09470
933.51273,0.09553
931.58398,0.09640
929.65524,0.09701
927.72649,0.09745
925.79775,0.09767
923.86900,0.09753
921.94026,0.09711
920.01151,0.09640
918.08277,0.09551
916.15402,0.09459
914.22528,0.09314
912.29653,0.09100
910.36779,0.08885
908.43904,0.08703
906.51029,0.08512
904.58155,0.08298
902.65280,0.08112
900.72406,0.07991
898.79531,0.07935
896.86657,0.07946
894.93782,0.08010
893.00908,0.08110
891.08033,0.08233
889.15159,0.08357
887.22284,0.08482
885.29410,0.08605
883.36535,0.08696
881.43661,0.08749
879.50786,0.08769
877.57911,0.08768
875.65037,0.08778
873.72162,0.08811
871.79288,0.08833
869.86413,0.08840
867.93539,0.08876
866.00664,0.08960
864.07790,0.09049
862.14915,0.09116
860.22041,0.09179
858.29166,0.09235
856.36292,0.09281
854.43417,0.09330
852.50543,0.09375
850.57668,0.09435
848.64794,0.09539
846.71919,0.09643
844.79044,0.09687
842.86170,0.09653
840.93295,0.09560
839.00421,0.09458
837.07546,0.09374
835.14672,0.09287
833.21797,0.09191
831.28923,0.09101
829.36048,0.08995
827.43174,0.08851
825.50299,0.08696
823.57425,0.08545
821.64550,0.08401
819.71676,0.08263
817.78801,0.08111
815.85926,0.07945
813.93052,0.07800
812.00177,0.07720
810.07303,0.07707
808.14428,0.07716
806.21554,0.07715
804.28679,0.07720
802.35805,0.07759
800.42930,0.07792
798.50056,0.07775
796.57181,0.07757
794.64307,0.07769
792.71432,0.07776
790.78558,0.07764
788.85683,0.07722
786.92809,0.07644
784.99934,0.07548
783.07059,0.07467
781.14185,0.07435
779.21310,0.07433
777.28436,0.07401
775.35561,0.07323
773.42687,0.07249
771.49812,0.07201
769.56938,0.07146
767.64063,0.07067
765.71189,0.06995
763.78314,0.06967
761.85440,0.06980
759.92565,0.06991
757.99691,0.06951
756.06816,0.06870
754.13942,0.06792
752.21067,0.06706
750.28192,0.06605
748.35318,0.06544
746.42443,0.06534
744.49569,0.06528
742.56694,0.06501
740.63820,0.06452
738.70945,0.06396
736.78071,0.06344
734.85196,0.06277
732.92322,0.06204
730.99447,0.06156
729.06573,0.06114
727.13698,0.06033
725.20824,0.05920
723.27949,0.05825
721.35074,0.05794
719.42200,0.05811
717.49325,0.05801
715.56451,0.05736
713.63576,0.05676
711.70702,0.05635
709.77827,0.05582
707.84953,0.05550
705.92078,0.05559
703.99204,0.05573
702.06329,0.05564
700.13455,0.05540
698.20580,0.05522
696.27706,0.05492
694.34831,0.05413
692.41957,0.05309
690.49082,0.05256
688.56207,0.05270
686.63333,0.05282
684.70458,0.05228
682.77584,0.05149
680.84709,0.05147
678.91835,0.05193
676.98960,0.05174
675.06086,0.05122
673.13211,0.05121
671.20337,0.05112
669.27462,0.05038
667.34588,0.04981
665.41713,0.05006
663.48839,0.05044
661.55964,0.05040
659.63090,0.05045
657.70215,0.05092
655.77340,0.05129
653.84466,0.05120
651.91591,0.05098
649.98717,0.05092
648.05842,0.05094
646.12968,0.05073
644.20093,0.04984
642.27219,0.04851
640.34344,0.04805
638.41470,0.04878
636.48595,0.04933
634.55721,0.04907
632.62846,0.04861
630.69972,0.04823
628.77097,0.04792
626.84222,0.04804
624.91348,0.04889
622.98473,0.04970
621.05599,0.04982
619.12724,0.04986
617.19850,0.04979
615.26975,0.04880
613.34101,0.04785
611.41226,0.04846
609.48352,0.04959
607.55477,0.04977
605.62603,0.04913
603.69728,0.04872
601.76854,0.04977
599.83979,0.05146
