7497.03301,0.04822
7495.10426,0.05479
7493.17552,0.05415
7491.24677,0.04933
7489.31803,0.04686
7487.38928,0.04810
7485.46054,0.05123
7483.53179,0.05115
7481.60305,0.04707
7479.67430,0.04699
7477.74556,0.05232
7475.81681,0.05547
7473.88807,0.05309
7471.95932,0.04870
7470.03057,0.04657
7468.10183,0.05026
7466.17308,0.05517
7464.24434,0.05553
7462.31559,0.05451
7460.38685,0.05406
7458.45810,0.05134
7456.52936,0.05332
7454.60061,0.06384
7452.67187,0.06870
7450.74312,0.06142
7448.81438,0.05238
7446.88563,0.04557
7444.95689,0.04169
7443.02814,0.04336
7441.09940,0.04645
7439.17065,0.04782
7437.24190,0.05112
7435.31316,0.05661
7433.38441,0.05965
7431.45567,0.05888
7429.52692,0.05642
7427.59818,0.05287
7425.66943,0.05034
7423.74069,0.05111
7421.81194,0.05263
7419.88320,0.05150
7417.95445,0.05007
7416.02571,0.05153
7414.09696,0.05553
7412.16822,0.05829
7410.23947,0.05826
7408.31073,0.05841
7406.38198,0.05939
7404.45323,0.05960
7402.52449,0.05852
7400.59574,0.05654
7398.66700,0.05692
7396.73825,0.05833
7394.80951,0.05656
7392.88076,0.05213
7390.95202,0.04949
7389.02327,0.04857
7387.09453,0.04907
7385.16578,0.05099
7383.23704,0.04997
7381.30829,0.04693
7379.37955,0.04967
7377.45080,0.05815
7375.52205,0.06453
7373.59331,0.06238
7371.66456,0.05378
7369.73582,0.04552
7367.80707,0.04224
7365.87833,0.04410
7363.94958,0.04782
7362.02084,0.04945
7360.09209,0.04878
7358.16335,0.04787
7356.23460,0.04834
7354.30586,0.05183
7352.37711,0.05481
7350.44837,0.05190
7348.51962,0.04889
7346.59088,0.05247
7344.66213,0.05798
7342.73338,0.05922
7340.80464,0.05684
7338.87589,0.05362
7336.94715,0.05135
7335.01840,0.05104
7333.08966,0.05354
7331.16091,0.05723
7329.23217,0.05681
7327.30342,0.05138
7325.37468,0.04949
7323.44593,0.05409
7321.51719,0.05583
7319.58844,0.05034
7317.65970,0.04566
7315.73095,0.04804
7313.80221,0.05413
7311.87346,0.05667
7309.94471,0.05444
7308.01597,0.05017
7306.08722,0.04593
7304.15848,0.04546
7302.22973,0.05024
7300.30099,0.05474
7298.37224,0.05380
7296.44350,0.04940
7294.51475,0.04819
7292.58601,0.05063
7290.65726,0.05096
7288.72852,0.04971
7286.79977,0.05184
7284.87103,0.05389
7282.94228,0.05109
7281.01353,0.04726
7279.08479,0.04785
7277.15604,0.05387
7275.22730,0.05990
7273.29855,0.05986
7271.36981,0.05463
7269.44106,0.04926
7267.51232,0.04964
7265.58357,0.05382
7263.65483,0.05414
7261.72608,0.05290
7259.79734,0.05555
7257.86859,0.05779
7255.93985,0.05637
7254.01110,0.05525
7252.08236,0.05443
7250.15361,0.05067
7248.22486,0.04568
7246.29612,0.04104
7244.36737,0.03790
7242.43863,0.03849
7240.50988,0.04238
7238.58114,0.04583
7236.65239,0.04838
7234.72365,0.05236
7232.79490,0.05561
7230.86616,0.05307
7228.93741,0.04643
7227.00867,0.04204
7225.07992,0.04262
7223.15118,0.04482
7221.22243,0.04760
7219.29369,0.05265
7217.36494,0.05771
7215.43619,0.05703
7213.50745,0.05215
7211.57870,0.04823
7209.64996,0.04831
7207.72121,0.05206
7205.79247,0.05322
7203.86372,0.04753
7201.93498,0.04145
7200.00623,0.04111
7198.07749,0.04370
7196.14874,0.04573
7194.22000,0.04832
7192.29125,0.05131
7190.36251,0.05158
7188.43376,0.04865
7186.50501,0.04620
7184.57627,0.04588
7182.64752,0.04727
7180.71878,0.04993
7178.79003,0.05197
7176.86129,0.05259
7174.93254,0.05306
7173.00380,0.05408
7171.07505,0.05519
7169.14631,0.05443
7167.21756,0.05037
7165.28882,0.04378
7163.36007,0.03968
7161.43133,0.04258
7159.50258,0.04955
7157.57384,0.05371
7155.64509,0.05434
7153.71634,0.05524
7151.78760,0.05618
7149.85885,0.05526
7147.93011,0.05472
7146.00136,0.05470
7144.07262,0.05540
7142.14387,0.05843
7140.21513,0.06143
7138.28638,0.06105
7136.35764,0.05856
7134.42889,0.05700
7132.50015,0.05607
7130.57140,0.05270
7128.64266,0.04894
7126.71391,0.04836
7124.78516,0.05043
7122.85642,0.05313
7120.92767,0.05332
7118.99893,0.05111
7117.07018,0.04995
7115.14144,0.04963
7113.21269,0.04989
7111.28395,0.05079
7109.35520,0.05241
7107.42646,0.05404
7105.49771,0.05365
7103.56897,0.05371
7101.64022,0.05631
7099.71148,0.05781
7097.78273,0.05663
7095.85399,0.05451
7093.92524,0.05240
7091.99649,0.05067
7090.06775,0.05048
7088.13900,0.05005
7086.21026,0.04757
7084.28151,0.04639
7082.35277,0.04915
7080.42402,0.05288
7078.49528,0.05504
7076.56653,0.05495
7074.63779,0.05276
7072.70904,0.05041
7070.78030,0.04983
7068.85155,0.05094
7066.92281,0.05274
7064.99406,0.05292
7063.06532,0.05006
7061.13657,0.04733
7059.20782,0.04744
7057.27908,0.04825
7055.35033,0.04841
7053.42159,0.04713
7051.49284,0.04643
7049.56410,0.04991
7047.63535,0.05409
7045.70661,0.05359
7043.77786,0.05074
7041.84912,0.04836
7039.92037,0.04621
7037.99163,0.04449
7036.06288,0.04374
7034.13414,0.04414
7032.20539,0.04667
7030.27664,0.04927
7028.34790,0.05028
7026.41915,0.05045
7024.49041,0.05042
7022.56166,0.04952
7020.63292,0.04938
7018.70417,0.05184
7016.77543,0.05423
7014.84668,0.05234
7012.91794,0.04646
7010.98919,0.04072
7009.06045,0.03902
7007.13170,0.04210
7005.20296,0.04682
7003.27421,0.04970
7001.34547,0.05253
6999.41672,0.05585
6997.48797,0.05667
6995.55923,0.05345
6993.63048,0.04720
6991.70174,0.04085
6989.77299,0.03914
6987.84425,0.04193
6985.91550,0.04640
6983.98676,0.05144
6982.05801,0.05432
6980.12927,0.05329
6978.20052,0.05114
6976.27178,0.05000
6974.34303,0.04913
6972.41429,0.04807
6970.48554,0.04812
6968.55680,0.04875
6966.62805,0.04871
6964.69930,0.04834
6962.77056,0.04728
6960.84181,0.04636
6958.91307,0.04862
6956.98432,0.05256
6955.05558,0.05398
6953.12683,0.05409
6951.19809,0.05487
6949.26934,0.05276
6947.34060,0.04669
6945.41185,0.04187
6943.48311,0.04146
6941.55436,0.04365
6939.62562,0.04613
6937.69687,0.04824
6935.76812,0.05055
6933.83938,0.05205
6931.91063,0.05089
6929.98189,0.04781
6928.05314,0.04502
6926.12440,0.04433
6924.19565,0.04666
6922.26691,0.04907
6920.33816,0.04786
6918.40942,0.04496
6916.48067,0.04558
6914.55193,0.04914
6912.62318,0.05150
6910.69444,0.05094
6908.76569,0.04788
6906.83695,0.04594
6904.90820,0.04743
6902.97945,0.04877
6901.05071,0.04910
6899.12196,0.05129
6897.19322,0.05371
6895.26447,0.05201
6893.33573,0.04842
6891.40698,0.04842
6889.47824,0.05149
6887.54949,0.05347
6885.62075,0.05226
6883.69200,0.04870
6881.76326,0.04678
6879.83451,0.04796
6877.90577,0.04820
6875.97702,0.04613
6874.04828,0.04535
6872.11953,0.04594
6870.19078,0.04575
6868.26204,0.04586
6866.33329,0.04724
6864.40455,0.04766
6862.47580,0.04600
6860.54706,0.04417
6858.61831,0.04293
6856.68957,0.04159
6854.76082,0.04202
6852.83208,0.04443
6850.90333,0.04522
6848.97459,0.04451
6847.04584,0.04522
6845.11710,0.04590
6843.18835,0.04749
6841.25960,0.05169
6839.33086,0.05320
6837.40211,0.04973
6835.47337,0.04663
6833.54462,0.04621
6831.61588,0.04564
6829.68713,0.04587
6827.75839,0.05015
6825.82964,0.05381
6823.90090,0.05259
6821.97215,0.05015
6820.04341,0.05050
6818.11466,0.05168
6816.18592,0.05004
6814.25717,0.04773
6812.32843,0.04831
6810.39968,0.05005
6808.47093,0.04990
6806.54219,0.04871
6804.61344,0.04945
6802.68470,0.05046
6800.75595,0.04946
6798.82721,0.04900
6796.89846,0.05027
6794.96972,0.05149
6793.04097,0.05196
6791.11223,0.05078
6789.18348,0.04840
6787.25474,0.04646
6785.32599,0.04487
6783.39725,0.04313
6781.46850,0.04337
6779.53975,0.04593
6777.61101,0.04864
6775.68226,0.05044
6773.75352,0.04982
6771.82477,0.04674
6769.89603,0.04478
6767.96728,0.04441
6766.03854,0.04452
6764.10979,0.04530
6762.18105,0.04499
6760.25230,0.04328
6758.32356,0.04408
6756.39481,0.04794
6754.46607,0.05045
6752.53732,0.05038
6750.60858,0.04873
6748.67983,0.04531
6746.75108,0.04359
6744.82234,0.04526
6742.89359,0.04633
6740.96485,0.04484
6739.03610,0.04400
6737.10736,0.04687
6735.17861,0.05074
6733.24987,0.05139
6731.32112,0.05177
6729.39238,0.05358
6727.46363,0.05290
6725.53489,0.05022
6723.60614,0.04888
6721.67740,0.04692
6719.74865,0.04577
6717.81991,0.04930
6715.89116,0.05212
6713.96241,0.04954
6712.03367,0.04689
6710.10492,0.04838
6708.17618,0.05147
6706.24743,0.05291
6704.31869,0.05301
6702.38994,0.05324
6700.46120,0.05312
6698.53245,0.05201
6696.60371,0.05114
6694.67496,0.05043
6692.74622,0.04899
6690.81747,0.04867
6688.88873,0.05006
6686.95998,0.05009
6685.03123,0.04892
6683.10249,0.04785
6681.17374,0.04643
6679.24500,0.04561
6677.31625,0.04544
6675.38751,0.04534
6673.45876,0.04654
6671.53002,0.04853
6669.60127,0.05036
6667.67253,0.05112
6665.74378,0.04978
6663.81504,0.04827
6661.88629,0.04850
6659.95755,0.04759
6658.02880,0.04522
6656.10006,0.04538
6654.17131,0.04789
6652.24256,0.04958
6650.31382,0.05007
6648.38507,0.04857
6646.45633,0.04573
6644.52758,0.04591
6642.59884,0.04967
6640.67009,0.05212
6638.74135,0.05223
6636.81260,0.05184
6634.88386,0.05097
6632.95511,0.04938
6631.02637,0.04748
6629.09762,0.04620
6627.16888,0.04603
6625.24013,0.04679
6623.31139,0.04880
6621.38264,0.05060
6619.45389,0.04986
6617.52515,0.04720
6615.59640,0.04559
6613.66766,0.04605
6611.73891,0.04730
6609.81017,0.04779
6607.88142,0.04715
6605.95268,0.04631
6604.02393,0.04598
6602.09519,0.04616
6600.16644,0.04710
6598.23770,0.04789
6596.30895,0.04709
6594.38021,0.04554
6592.45146,0.04555
6590.52271,0.04665
6588.59397,0.04721
6586.66522,0.04714
6584.73648,0.04718
6582.80773,0.04757
6580.87899,0.04757
6578.95024,0.04785
6577.02150,0.04870
6575.09275,0.04813
6573.16401,0.04716
6571.23526,0.04717
6569.30652,0.04589
6567.37777,0.04368
6565.44903,0.04371
6563.52028,0.04606
6561.59154,0.04819
6559.66279,0.04860
6557.73404,0.04808
6555.80530,0.04693
6553.87655,0.04538
6551.94781,0.04542
6550.01906,0.04705
6548.09032,0.04833
6546.16157,0.04900
6544.23283,0.04922
6542.30408,0.04945
6540.37534,0.04966
6538.44659,0.04860
6536.51785,0.04689
6534.58910,0.04636
6532.66036,0.04736
6530.73161,0.04937
6528.80287,0.05088
6526.87412,0.05076
6524.94537,0.04983
6523.01663,0.04852
6521.08788,0.04614
6519.15914,0.04361
6517.23039,0.04277
6515.30165,0.04381
6513.37290,0.04608
6511.44416,0.04831
6509.51541,0.04856
6507.58667,0.04723
6505.65792,0.04581
6503.72918,0.04526
6501.80043,0.04578
6499.87169,0.04670
6497.94294,0.04900
6496.01419,0.05164
6494.08545,0.05082
6492.15670,0.04890
6490.22796,0.04935
6488.29921,0.04930
6486.37047,0.04742
6484.44172,0.04706
6482.51298,0.04823
6480.58423,0.04860
6478.65549,0.04921
6476.72674,0.05099
6474.79800,0.05247
6472.86925,0.05171
6470.94051,0.04932
6469.01176,0.04823
6467.08302,0.04867
6465.15427,0.04915
6463.22552,0.04933
6461.29678,0.04961
6459.36803,0.05028
6457.43929,0.05058
6455.51054,0.04982
6453.58180,0.04881
6451.65305,0.04892
6449.72431,0.05055
6447.79556,0.05174
6445.86682,0.05150
6443.93807,0.05185
6442.00933,0.05356
6440.08058,0.05476
6438.15184,0.05455
6436.22309,0.05291
6434.29434,0.05054
6432.36560,0.04937
6430.43685,0.05029
6428.50811,0.05113
6426.57936,0.05024
6424.65062,0.04977
6422.72187,0.05059
6420.79313,0.05020
6418.86438,0.04851
6416.93564,0.04839
6415.00689,0.04998
6413.07815,0.05057
6411.14940,0.04951
6409.22066,0.04800
6407.29191,0.04702
6405.36317,0.04615
6403.43442,0.04475
6401.50567,0.04408
6399.57693,0.04539
6397.64818,0.04782
6395.71944,0.05016
6393.79069,0.05155
6391.86195,0.05137
6389.93320,0.05014
6388.00446,0.04819
6386.07571,0.04564
6384.14697,0.04558
6382.21822,0.04962
6380.28948,0.05326
6378.36073,0.05253
6376.43199,0.04936
6374.50324,0.04823
6372.57450,0.05010
6370.64575,0.05171
6368.71700,0.05133
6366.78826,0.05028
6364.85951,0.04876
6362.93077,0.04719
6361.00202,0.04718
6359.07328,0.04787
6357.14453,0.04901
6355.21579,0.05015
6353.28704,0.04903
6351.35830,0.04714
6349.42955,0.04757
6347.50081,0.04926
6345.57206,0.05010
6343.64332,0.04972
6341.71457,0.04839
6339.78582,0.04762
6337.85708,0.04957
6335.92833,0.05270
6333.99959,0.05355
6332.07084,0.05112
6330.14210,0.04754
6328.21335,0.04582
6326.28461,0.04558
6324.35586,0.04492
6322.42712,0.04505
6320.49837,0.04740
6318.56963,0.05008
6316.64088,0.04994
6314.71214,0.04717
6312.78339,0.04563
6310.85465,0.04694
6308.92590,0.04796
6306.99715,0.04742
6305.06841,0.04778
6303.13966,0.04999
6301.21092,0.05275
6299.28217,0.05422
6297.35343,0.05365
6295.42468,0.05219
6293.49594,0.05044
6291.56719,0.04921
6289.63845,0.04952
6287.70970,0.04957
6285.78096,0.04806
6283.85221,0.04690
6281.92347,0.04703
6279.99472,0.04756
6278.06598,0.04804
6276.13723,0.04896
6274.20848,0.04950
6272.27974,0.04821
6270.35099,0.04559
6268.42225,0.04408
6266.49350,0.04571
6264.56476,0.04847
6262.63601,0.04847
6260.70727,0.04665
6258.77852,0.04644
6256.84978,0.04840
6254.92103,0.05002
6252.99229,0.04966
6251.06354,0.04855
6249.13480,0.04846
6247.20605,0.04967
6245.27730,0.05089
6243.34856,0.05056
6241.41981,0.04863
6239.49107,0.04728
6237.56232,0.04803
6235.63358,0.04944
6233.70483,0.04996
6231.77609,0.04961
6229.84734,0.04934
6227.91860,0.04908
6225.98985,0.04776
6224.06111,0.04694
6222.13236,0.04800
6220.20362,0.04900
6218.27487,0.04824
6216.34613,0.04632
6214.41738,0.04560
6212.48863,0.04674
6210.55989,0.04857
6208.63114,0.05013
6206.70240,0.05052
6204.77365,0.05019
6202.84491,0.05034
6200.91616,0.05011
6198.98742,0.04901
6197.05867,0.04789
6195.12993,0.04764
6193.20118,0.04939
6191.27244,0.05192
6189.34369,0.05226
6187.41495,0.05071
6185.48620,0.04912
6183.55746,0.04773
6181.62871,0.04723
6179.69996,0.04888
6177.77122,0.05059
6175.84247,0.04971
6173.91373,0.04827
6171.98498,0.04887
6170.05624,0.05018
6168.12749,0.04997
6166.19875,0.04845
6164.27000,0.04677
6162.34126,0.04584
6160.41251,0.04645
6158.48377,0.04730
6156.55502,0.04815
6154.62628,0.05048
6152.69753,0.05218
6150.76878,0.05054
6148.84004,0.04752
6146.91129,0.04636
6144.98255,0.04740
6143.05380,0.04951
6141.12506,0.05136
6139.19631,0.05116
6137.26757,0.04930
6135.33882,0.04794
6133.41008,0.04817
6131.48133,0.04915
6129.55259,0.04944
6127.62384,0.04880
6125.69510,0.04785
6123.76635,0.04760
6121.83761,0.04906
6119.90886,0.05047
6117.98011,0.04997
6116.05137,0.04947
6114.12262,0.05010
6112.19388,0.05001
6110.26513,0.04876
6108.33639,0.04784
6106.40764,0.04765
6104.47890,0.04690
6102.55015,0.04552
6100.62141,0.04513
6098.69266,0.04635
6096.76392,0.04821
6094.83517,0.04920
6092.90643,0.04886
6090.97768,0.04883
6089.04893,0.04990
6087.12019,0.05049
6085.19144,0.04972
6083.26270,0.04938
6081.33395,0.05073
6079.40521,0.05205
6077.47646,0.05166
6075.54772,0.05068
6073.61897,0.05003
6071.69023,0.04928
6069.76148,0.04835
6067.83274,0.04790
6065.90399,0.04840
6063.97525,0.04886
6062.04650,0.04844
6060.11776,0.04828
6058.18901,0.04930
6056.26026,0.05050
6054.33152,0.05082
6052.40277,0.05014
6050.47403,0.04864
6048.54528,0.04762
6046.61654,0.04829
6044.68779,0.04877
6042.75905,0.04791
6040.83030,0.04766
6038.90156,0.04823
6036.97281,0.04825
6035.04407,0.04808
6033.11532,0.04822
6031.18658,0.04873
6029.25783,0.05027
6027.32909,0.05178
6025.40034,0.05185
6023.47159,0.05108
6021.54285,0.05018
6019.61410,0.04928
6017.68536,0.04806
6015.75661,0.04633
6013.82787,0.04565
6011.89912,0.04700
6009.97038,0.04908
6008.04163,0.05001
6006.11289,0.04931
6004.18414,0.04852
6002.25540,0.04825
6000.32665,0.04753
5998.39791,0.04733
5996.46916,0.04894
5994.54041,0.05060
5992.61167,0.05046
5990.68292,0.04943
5988.75418,0.04916
5986.82543,0.04952
5984.89669,0.04928
5982.96794,0.04840
5981.03920,0.04762
5979.11045,0.04750
5977.18171,0.04785
5975.25296,0.04781
5973.32422,0.04788
5971.39547,0.04862
5969.46673,0.04912
5967.53798,0.04886
5965.60924,0.04769
5963.68049,0.04630
5961.75174,0.04593
5959.82300,0.04660
5957.89425,0.04735
5955.96551,0.04737
5954.03676,0.04710
5952.10802,0.04769
5950.17927,0.04889
5948.25053,0.04919
5946.32178,0.04820
5944.39304,0.04741
5942.46429,0.04803
5940.53555,0.04908
5938.60680,0.04919
5936.67806,0.04869
5934.74931,0.04794
5932.82057,0.04653
5930.89182,0.04542
5928.96307,0.04571
5927.03433,0.04703
5925.10558,0.04874
5923.17684,0.04972
5921.24809,0.04889
5919.31935,0.04684
5917.39060,0.04556
5915.46186,0.04631
5913.53311,0.04807
5911.60437,0.04886
5909.67562,0.04825
5907.74688,0.04725
5905.81813,0.04681
5903.88939,0.04679
5901.96064,0.04682
5900.03189,0.04710
5898.10315,0.04721
5896.17440,0.04681
5894.24566,0.04749
5892.31691,0.04949
5890.38817,0.05023
5888.45942,0.04911
5886.53068,0.04818
5884.60193,0.04821
5882.67319,0.04905
5880.74444,0.05020
5878.81570,0.05046
5876.88695,0.05014
5874.95821,0.05019
5873.02946,0.05019
5871.10072,0.04984
5869.17197,0.04918
5867.24322,0.04836
5865.31448,0.04779
5863.38573,0.04748
5861.45699,0.04734
5859.52824,0.04776
5857.59950,0.04875
5855.67075,0.04939
5853.74201,0.04958
5851.81326,0.05057
5849.88452,0.05181
5847.95577,0.05167
5846.02703,0.05042
5844.09828,0.04943
5842.16954,0.04947
5840.24079,0.04956
5838.31205,0.04820
5836.38330,0.04626
5834.45455,0.04542
5832.52581,0.04568
5830.59706,0.04678
5828.66832,0.04891
5826.73957,0.05069
5824.81083,0.05077
5822.88208,0.05022
5820.95334,0.04970
5819.02459,0.04878
5817.09585,0.04798
5815.16710,0.04794
5813.23836,0.04847
5811.30961,0.04893
5809.38087,0.04895
5807.45212,0.04843
5805.52337,0.04761
5803.59463,0.04769
5801.66588,0.04847
5799.73714,0.04834
5797.80839,0.04806
5795.87965,0.04892
5793.95090,0.05007
5792.02216,0.05025
5790.09341,0.04943
5788.16467,0.04841
5786.23592,0.04746
5784.30718,0.04685
5782.37843,0.04703
5780.44969,0.04755
5778.52094,0.04810
5776.59220,0.04896
5774.66345,0.04920
5772.73470,0.04801
5770.80596,0.04652
5768.87721,0.04580
5766.94847,0.04613
5765.01972,0.04722
5763.09098,0.04743
5761.16223,0.04616
5759.23349,0.04518
5757.30474,0.04559
5755.37600,0.04707
5753.44725,0.04903
5751.51851,0.05022
5749.58976,0.04958
5747.66102,0.04789
5745.73227,0.04703
5743.80352,0.04751
5741.87478,0.04771
5739.94603,0.04709
5738.01729,0.04683
5736.08854,0.04715
5734.15980,0.04765
5732.23105,0.04796
5730.30231,0.04797
5728.37356,0.04860
5726.44482,0.04955
5724.51607,0.04948
5722.58733,0.04883
5720.65858,0.04869
5718.72984,0.04888
5716.80109,0.04876
5714.87235,0.04827
5712.94360,0.04800
5711.01485,0.04762
5709.08611,0.04681
5707.15736,0.04716
5705.22862,0.04899
5703.29987,0.04999
5701.37113,0.04963
5699.44238,0.04960
5697.51364,0.04949
5695.58489,0.04792
5693.65615,0.04633
5691.72740,0.04645
5689.79866,0.04752
5687.86991,0.04846
5685.94117,0.04876
5684.01242,0.04783
5682.08368,0.04643
5680.15493,0.04642
5678.22618,0.04803
5676.29744,0.04968
5674.36869,0.05047
5672.43995,0.05111
5670.51120,0.05142
5668.58246,0.04986
5666.65371,0.04739
5664.72497,0.04697
5662.79622,0.04879
5660.86748,0.05013
5658.93873,0.04981
5657.00999,0.04882
5655.08124,0.04830
5653.15250,0.04828
5651.22375,0.04842
5649.29500,0.04937
5647.36626,0.05083
5645.43751,0.05090
5643.50877,0.04930
5641.58002,0.04828
5639.65128,0.04902
5637.72253,0.04998
5635.79379,0.05030
5633.86504,0.05011
5631.93630,0.04890
5630.00755,0.04735
5628.07881,0.04710
5626.15006,0.04832
5624.22132,0.04982
5622.29257,0.05052
5620.36383,0.05019
5618.43508,0.04940
5616.50633,0.04914
5614.57759,0.04926
5612.64884,0.04873
5610.72010,0.04745
5608.79135,0.04671
5606.86261,0.04724
5604.93386,0.04808
5603.00512,0.04898
5601.07637,0.04986
5599.14763,0.04944
5597.21888,0.04804
5595.29014,0.04756
5593.36139,0.04823
5591.43265,0.04870
5589.50390,0.04877
5587.57516,0.04896
5585.64641,0.04937
5583.71766,0.05004
5581.78892,0.05061
5579.86017,0.05028
5577.93143,0.04926
5576.00268,0.04891
5574.07394,0.04993
5572.14519,0.05100
5570.21645,0.05063
5568.28770,0.04917
5566.35896,0.04795
5564.43021,0.04743
5562.50147,0.04714
5560.57272,0.04699
5558.64398,0.04755
5556.71523,0.04838
5554.78648,0.04886
5552.85774,0.04925
5550.92899,0.04932
5549.00025,0.04915
5547.07150,0.04973
5545.14276,0.05045
5543.21401,0.04972
5541.28527,0.04834
5539.35652,0.04803
5537.42778,0.04858
5535.49903,0.04925
5533.57029,0.04957
5531.64154,0.04914
5529.71280,0.04866
5527.78405,0.04856
5525.85531,0.04856
5523.92656,0.04880
5521.99781,0.04870
5520.06907,0.04783
5518.14032,0.04735
5516.21158,0.04808
5514.28283,0.04961
5512.35409,0.05113
5510.42534,0.05180
5508.49660,0.05173
5506.56785,0.05128
5504.63911,0.05033
5502.71036,0.04943
5500.78162,0.04943
5498.85287,0.05012
5496.92413,0.05072
5494.99538,0.05029
5493.06664,0.04904
5491.13789,0.04816
5489.20914,0.04764
5487.28040,0.04719
5485.35165,0.04715
5483.42291,0.04763
5481.49416,0.04856
5479.56542,0.04943
5477.63667,0.04949
5475.70793,0.04874
5473.77918,0.04825
5471.85044,0.04829
5469.92169,0.04781
5467.99295,0.04709
5466.06420,0.04742
5464.13546,0.04807
5462.20671,0.04759
5460.27796,0.04664
5458.34922,0.04637
5456.42047,0.04666
5454.49173,0.04737
5452.56298,0.04816
5450.63424,0.04867
5448.70549,0.04905
5446.77675,0.04922
5444.84800,0.04939
5442.91926,0.04996
5440.99051,0.05047
5439.06177,0.05031
5437.13302,0.04962
5435.20428,0.04948
5433.27553,0.05004
5431.34679,0.05038
5429.41804,0.05093
5427.48929,0.05171
5425.56055,0.05155
5423.63180,0.05123
5421.70306,0.05141
5419.77431,0.05078
5417.84557,0.04938
5415.91682,0.04866
5413.98808,0.04861
5412.05933,0.04851
5410.13059,0.04885
5408.20184,0.04985
5406.27310,0.05041
5404.34435,0.04988
5402.41561,0.04902
5400.48686,0.04898
5398.55811,0.04974
5396.62937,0.05018
5394.70062,0.04978
5392.77188,0.04925
5390.84313,0.04902
5388.91439,0.04870
5386.98564,0.04827
5385.05690,0.04828
5383.12815,0.04860
5381.19941,0.04864
5379.27066,0.04838
5377.34192,0.04812
5375.41317,0.04845
5373.48443,0.04970
5371.55568,0.05060
5369.62694,0.05017
5367.69819,0.04938
5365.76944,0.04899
5363.84070,0.04891
5361.91195,0.04917
5359.98321,0.04938
5358.05446,0.04922
5356.12572,0.04891
5354.19697,0.04867
5352.26823,0.04856
5350.33948,0.04850
5348.41074,0.04855
5346.48199,0.04886
5344.55325,0.04936
5342.62450,0.04988
5340.69576,0.05031
5338.76701,0.05030
5336.83827,0.04978
5334.90952,0.04916
5332.98077,0.04866
5331.05203,0.04861
5329.12328,0.04931
5327.19454,0.05041
5325.26579,0.05112
5323.33705,0.05091
5321.40830,0.04993
5319.47956,0.04915
5317.55081,0.04920
5315.62207,0.04983
5313.69332,0.05057
5311.76458,0.05068
5309.83583,0.04992
5307.90709,0.04932
5305.97834,0.04959
5304.04959,0.05011
5302.12085,0.05030
5300.19210,0.05000
5298.26336,0.04924
5296.33461,0.04822
5294.40587,0.04745
5292.47712,0.04741
5290.54838,0.04803
5288.61963,0.04895
5286.69089,0.04984
5284.76214,0.05034
5282.83340,0.05014
5280.90465,0.04945
5278.97591,0.04897
5277.04716,0.04910
5275.11842,0.04928
5273.18967,0.04907
5271.26092,0.04876
5269.33218,0.04889
5267.40343,0.04942
5265.47469,0.04981
5263.54594,0.04977
5261.61720,0.04934
5259.68845,0.04849
5257.75971,0.04761
5255.83096,0.04730
5253.90222,0.04748
5251.97347,0.04769
5250.04473,0.04777
5248.11598,0.04776
5246.18724,0.04806
5244.25849,0.04871
5242.32975,0.04905
5240.40100,0.04860
5238.47225,0.04795
5236.54351,0.04770
5234.61476,0.04718
5232.68602,0.04652
5230.75727,0.04668
5228.82853,0.04747
5226.89978,0.04810
5224.97104,0.04786
5223.04229,0.04711
5221.11355,0.04711
5219.18480,0.04771
5217.25606,0.04778
5215.32731,0.04781
5213.39857,0.04887
5211.46982,0.04996
5209.54107,0.04964
5207.61233,0.04854
5205.68358,0.04802
5203.75484,0.04794
5201.82609,0.04754
5199.89735,0.04733
5197.96860,0.04772
5196.03986,0.04790
5194.11111,0.04770
5192.18237,0.04769
5190.25362,0.04802
5188.32488,0.04837
5186.39613,0.04840
5184.46739,0.04817
5182.53864,0.04796
5180.60990,0.04783
5178.68115,0.04804
5176.75240,0.04867
5174.82366,0.04903
5172.89491,0.04866
5170.96617,0.04789
5169.03742,0.04766
5167.10868,0.04843
5165.17993,0.04943
5163.25119,0.04987
5161.32244,0.04981
5159.39370,0.04936
5157.46495,0.04890
5155.53621,0.04889
5153.60746,0.04864
5151.67872,0.04793
5149.74997,0.04787
5147.82123,0.04830
5145.89248,0.04826
5143.96373,0.04797
5142.03499,0.04811
5140.10624,0.04871
5138.17750,0.04890
5136.24875,0.04873
5134.32001,0.04899
5132.39126,0.04918
5130.46252,0.04880
5128.53377,0.04835
5126.60503,0.04784
5124.67628,0.04729
5122.74754,0.04736
5120.81879,0.04798
5118.89005,0.04827
5116.96130,0.04836
5115.03255,0.04865
5113.10381,0.04862
5111.17506,0.04830
5109.24632,0.04826
5107.31757,0.04841
5105.38883,0.04861
5103.46008,0.04868
5101.53134,0.04824
5099.60259,0.04749
5097.67385,0.04723
5095.74510,0.04788
5093.81636,0.04877
5091.88761,0.04905
5089.95887,0.04881
5088.03012,0.04828
5086.10138,0.04756
5084.17263,0.04718
5082.24388,0.04750
5080.31514,0.04786
5078.38639,0.04756
5076.45765,0.04736
5074.52890,0.04776
5072.60016,0.04810
5070.67141,0.04854
5068.74267,0.04930
5066.81392,0.04948
5064.88518,0.04900
5062.95643,0.04853
5061.02769,0.04837
5059.09894,0.04873
5057.17020,0.04918
5055.24145,0.04926
5053.31270,0.04907
5051.38396,0.04842
5049.45521,0.04756
5047.52647,0.04735
5045.59772,0.04784
5043.66898,0.04872
5041.74023,0.04974
5039.81149,0.05013
5037.88274,0.04969
5035.95400,0.04910
5034.02525,0.04903
5032.09651,0.04970
5030.16776,0.05030
5028.23902,0.05003
5026.31027,0.04930
5024.38153,0.04879
5022.45278,0.04885
5020.52403,0.04931
5018.59529,0.04949
5016.66654,0.04920
5014.73780,0.04889
5012.80905,0.04873
5010.88031,0.04859
5008.95156,0.04854
5007.02282,0.04877
5005.09407,0.04919
5003.16533,0.04952
5001.23658,0.04961
4999.30784,0.04906
4997.37909,0.04825
4995.45035,0.04827
4993.52160,0.04888
4991.59286,0.04906
4989.66411,0.04883
4987.73536,0.04894
4985.80662,0.04915
4983.87787,0.04875
4981.94913,0.04836
4980.02038,0.04868
4978.09164,0.04920
4976.16289,0.04946
4974.23415,0.04945
4972.30540,0.04918
4970.37666,0.04878
4968.44791,0.04877
4966.51917,0.04919
4964.59042,0.04939
4962.66168,0.04897
4960.73293,0.04841
4958.80418,0.04831
4956.87544,0.04833
4954.94669,0.04821
4953.01795,0.04855
4951.08920,0.04928
4949.16046,0.04951
4947.23171,0.04914
4945.30297,0.04889
4943.37422,0.04923
4941.44548,0.04961
4939.51673,0.04928
4937.58799,0.04854
4935.65924,0.04802
4933.73050,0.04807
4931.80175,0.04836
4929.87301,0.04839
4927.94426,0.04842
4926.01551,0.04871
4924.08677,0.04893
4922.15802,0.04895
4920.22928,0.04884
4918.30053,0.04868
4916.37179,0.04872
4914.44304,0.04901
4912.51430,0.04929
4910.58555,0.04929
4908.65681,0.04900
4906.72806,0.04857
4904.79932,0.04831
4902.87057,0.04829
4900.94183,0.04810
4899.01308,0.04765
4897.08434,0.04767
4895.15559,0.04821
4893.22684,0.04846
4891.29810,0.04847
4889.36935,0.04850
4887.44061,0.04826
4885.51186,0.04790
4883.58312,0.04754
4881.65437,0.04731
4879.72563,0.04776
4877.79688,0.04858
4875.86814,0.04873
4873.93939,0.04805
4872.01065,0.04753
4870.08190,0.04768
4868.15316,0.04782
4866.22441,0.04750
4864.29566,0.04717
4862.36692,0.04714
4860.43817,0.04736
4858.50943,0.04766
4856.58068,0.04762
4854.65194,0.04727
4852.72319,0.04715
4850.79445,0.04741
4848.86570,0.04781
4846.93696,0.04819
4845.00821,0.04828
4843.07947,0.04794
4841.15072,0.04764
4839.22198,0.04775
4837.29323,0.04800
4835.36449,0.04806
4833.43574,0.04781
4831.50699,0.04748
4829.57825,0.04735
4827.64950,0.04750
4825.72076,0.04809
4823.79201,0.04858
4821.86327,0.04811
4819.93452,0.04706
4818.00578,0.04648
4816.07703,0.04656
4814.14829,0.04698
4812.21954,0.04744
4810.29080,0.04763
4808.36205,0.04778
4806.43331,0.04820
4804.50456,0.04843
4802.57582,0.04802
4800.64707,0.04731
4798.71832,0.04713
4796.78958,0.04741
4794.86083,0.04749
4792.93209,0.04738
4791.00334,0.04727
4789.07460,0.04734
4787.14585,0.04778
4785.21711,0.04820
4783.28836,0.04813
4781.35962,0.04795
4779.43087,0.04791
4777.50213,0.04756
4775.57338,0.04715
4773.64464,0.04725
4771.71589,0.04739
4769.78714,0.04705
4767.85840,0.04656
4765.92965,0.04638
4764.00091,0.04669
4762.07216,0.04719
4760.14342,0.04721
4758.21467,0.04693
4756.28593,0.04727
4754.35718,0.04797
4752.42844,0.04799
4750.49969,0.04748
4748.57095,0.04712
4746.64220,0.04677
4744.71346,0.04655
4742.78471,0.04676
4740.85597,0.04702
4738.92722,0.04704
4736.99847,0.04685
4735.06973,0.04639
4733.14098,0.04603
4731.21224,0.04629
4729.28349,0.04686
4727.35475,0.04707
4725.42600,0.04679
4723.49726,0.04637
4721.56851,0.04637
4719.63977,0.04680
4717.71102,0.04703
4715.78228,0.04713
4713.85353,0.04739
4711.92479,0.04739
4709.99604,0.04712
4708.06729,0.04710
4706.13855,0.04727
4704.20980,0.04726
4702.28106,0.04729
4700.35231,0.04757
4698.42357,0.04761
4696.49482,0.04719
4694.56608,0.04692
4692.63733,0.04694
4690.70859,0.04705
4688.77984,0.04727
4686.85110,0.04751
4684.92235,0.04790
4682.99361,0.04822
4681.06486,0.04799
4679.13612,0.04759
4677.20737,0.04739
4675.27862,0.04737
4673.34988,0.04763
4671.42113,0.04782
4669.49239,0.04747
4667.56364,0.04714
4665.63490,0.04725
4663.70615,0.04735
4661.77741,0.04742
4659.84866,0.04754
4657.91992,0.04751
4655.99117,0.04769
4654.06243,0.04800
4652.13368,0.04779
4650.20494,0.04739
4648.27619,0.04749
4646.34745,0.04788
4644.41870,0.04809
4642.48995,0.04796
4640.56121,0.04770
4638.63246,0.04750
4636.70372,0.04748
4634.77497,0.04758
4632.84623,0.04745
4630.91748,0.04699
4628.98874,0.04665
4627.05999,0.04690
4625.13125,0.04741
4623.20250,0.04763
4621.27376,0.04757
4619.34501,0.04754
4617.41627,0.04771
4615.48752,0.04778
4613.55877,0.04768
4611.63003,0.04778
4609.70128,0.04799
4607.77254,0.04787
4605.84379,0.04747
4603.91505,0.04720
4601.98630,0.04725
4600.05756,0.04749
4598.12881,0.04762
4596.20007,0.04757
4594.27132,0.04771
4592.34258,0.04814
4590.41383,0.04843
4588.48509,0.04843
4586.55634,0.04832
4584.62760,0.04816
4582.69885,0.04806
4580.77010,0.04819
4578.84136,0.04825
4576.91261,0.04812
4574.98387,0.04795
4573.05512,0.04781
4571.12638,0.04778
4569.19763,0.04785
4567.26889,0.04776
4565.34014,0.04729
4563.41140,0.04687
4561.48265,0.04701
4559.55391,0.04733
4557.62516,0.04752
4555.69642,0.04769
4553.76767,0.04778
4551.83893,0.04778
4549.91018,0.04777
4547.98143,0.04768
4546.05269,0.04764
4544.12394,0.04789
4542.19520,0.04813
4540.26645,0.04808
4538.33771,0.04773
4536.40896,0.04737
4534.48022,0.04757
4532.55147,0.04826
4530.62273,0.04880
4528.69398,0.04874
4526.76524,0.04807
4524.83649,0.04753
4522.90775,0.04772
4520.97900,0.04827
4519.05025,0.04856
4517.12151,0.04856
4515.19276,0.04858
4513.26402,0.04863
4511.33527,0.04857
4509.40653,0.04837
4507.47778,0.04799
4505.54904,0.04749
4503.62029,0.04720
4501.69155,0.04714
4499.76280,0.04712
4497.83406,0.04727
4495.90531,0.04738
4493.97657,0.04720
4492.04782,0.04706
4490.11908,0.04701
4488.19033,0.04699
4486.26158,0.04715
4484.33284,0.04744
4482.40409,0.04767
4480.47535,0.04773
4478.54660,0.04750
4476.61786,0.04714
4474.68911,0.04706
4472.76037,0.04729
4470.83162,0.04764
4468.90288,0.04802
4466.97413,0.04808
4465.04539,0.04759
4463.11664,0.04699
4461.18790,0.04670
4459.25915,0.04682
4457.33041,0.04708
4455.40166,0.04716
4453.47291,0.04700
4451.54417,0.04674
4449.61542,0.04648
4447.68668,0.04601
4445.75793,0.04542
4443.82919,0.04522
4441.90044,0.04563
4439.97170,0.04613
4438.04295,0.04611
4436.11421,0.04599
4434.18546,0.04633
4432.25672,0.04663
4430.32797,0.04641
4428.39923,0.04595
4426.47048,0.04570
4424.54173,0.04604
4422.61299,0.04689
4420.68424,0.04751
4418.75550,0.04744
4416.82675,0.04706
4414.89801,0.04669
4412.96926,0.04648
4411.04052,0.04662
4409.11177,0.04674
4407.18303,0.04637
4405.25428,0.04581
4403.32554,0.04545
4401.39679,0.04529
4399.46805,0.04535
4397.53930,0.04558
4395.61056,0.04589
4393.68181,0.04615
4391.75306,0.04625
4389.82432,0.04614
4387.89557,0.04584
4385.96683,0.04555
4384.03808,0.04561
4382.10934,0.04589
4380.18059,0.04593
4378.25185,0.04573
4376.32310,0.04558
4374.39436,0.04544
4372.46561,0.04532
4370.53687,0.04546
4368.60812,0.04569
4366.67938,0.04563
4364.75063,0.04544
4362.82189,0.04536
4360.89314,0.04537
4358.96439,0.04526
4357.03565,0.04521
4355.10690,0.04549
4353.17816,0.04554
4351.24941,0.04532
4349.32067,0.04557
4347.39192,0.04599
4345.46318,0.04605
4343.53443,0.04588
4341.60569,0.04574
4339.67694,0.04584
4337.74820,0.04606
4335.81945,0.04615
4333.89071,0.04617
4331.96196,0.04623
4330.03321,0.04628
4328.10447,0.04615
4326.17572,0.04578
4324.24698,0.04548
4322.31823,0.04539
4320.38949,0.04538
4318.46074,0.04553
4316.53200,0.04572
4314.60325,0.04558
4312.67451,0.04523
4310.74576,0.04536
4308.81702,0.04595
4306.88827,0.04636
4304.95953,0.04645
4303.03078,0.04617
4301.10204,0.04556
4299.17329,0.04522
4297.24454,0.04533
4295.31580,0.04528
4293.38705,0.04504
4291.45831,0.04490
4289.52956,0.04460
4287.60082,0.04421
4285.67207,0.04432
4283.74333,0.04489
4281.81458,0.04528
4279.88584,0.04536
4277.95709,0.04543
4276.02835,0.04554
4274.09960,0.04555
4272.17086,0.04557
4270.24211,0.04572
4268.31336,0.04593
4266.38462,0.04613
4264.45587,0.04617
4262.52713,0.04601
4260.59838,0.04577
4258.66964,0.04546
4256.74089,0.04521
4254.81215,0.04518
4252.88340,0.04524
4250.95466,0.04543
4249.02591,0.04575
4247.09717,0.04584
4245.16842,0.04569
4243.23968,0.04567
4241.31093,0.04576
4239.38219,0.04591
4237.45344,0.04601
4235.52469,0.04586
4233.59595,0.04571
4231.66720,0.04576
4229.73846,0.04580
4227.80971,0.04584
4225.88097,0.04583
4223.95222,0.04575
4222.02348,0.04590
4220.09473,0.04618
4218.16599,0.04621
4216.23724,0.04596
4214.30850,0.04565
4212.37975,0.04552
4210.45101,0.04558
4208.52226,0.04569
4206.59352,0.04570
4204.66477,0.04551
4202.73602,0.04528
4200.80728,0.04539
4198.87853,0.04581
4196.94979,0.04617
4195.02104,0.04644
4193.09230,0.04684
4191.16355,0.04731
4189.23481,0.04741
4187.30606,0.04706
4185.37732,0.04664
4183.44857,0.04622
4181.51983,0.04595
4179.59108,0.04604
4177.66234,0.04616
4175.73359,0.04608
4173.80484,0.04596
4171.87610,0.04578
4169.94735,0.04588
4168.01861,0.04639
4166.08986,0.04656
4164.16112,0.04622
4162.23237,0.04590
4160.30363,0.04575
4158.37488,0.04566
4156.44614,0.04574
4154.51739,0.04600
4152.58865,0.04626
4150.65990,0.04629
4148.73116,0.04607
4146.80241,0.04576
4144.87367,0.04546
4142.94492,0.04520
4141.01617,0.04503
4139.08743,0.04511
4137.15868,0.04559
4135.22994,0.04616
4133.30119,0.04616
4131.37245,0.04564
4129.44370,0.04532
4127.51496,0.04548
4125.58621,0.04572
4123.65747,0.04559
4121.72872,0.04526
4119.79998,0.04538
4117.87123,0.04602
4115.94249,0.04642
4114.01374,0.04612
4112.08500,0.04567
4110.15625,0.04567
4108.22750,0.04588
4106.29876,0.04576
4104.37001,0.04551
4102.44127,0.04548
4100.51252,0.04560
4098.58378,0.04575
4096.65503,0.04590
4094.72629,0.04590
4092.79754,0.04558
4090.86880,0.04511
4088.94005,0.04493
4087.01131,0.04495
4085.08256,0.04498
4083.15382,0.04521
4081.22507,0.04556
4079.29632,0.04560
4077.36758,0.04530
4075.43883,0.04496
4073.51009,0.04492
4071.58134,0.04510
4069.65260,0.04519
4067.72385,0.04510
4065.79511,0.04502
4063.86636,0.04499
4061.93762,0.04485
4060.00887,0.04471
4058.08013,0.04464
4056.15138,0.04443
4054.22264,0.04423
4052.29389,0.04420
4050.36515,0.04412
4048.43640,0.04398
4046.50765,0.04413
4044.57891,0.04455
4042.65016,0.04481
4040.72142,0.04475
4038.79267,0.04470
4036.86393,0.04486
4034.93518,0.04503
4033.00644,0.04507
4031.07769,0.04513
4029.14895,0.04524
4027.22020,0.04521
4025.29146,0.04508
4023.36271,0.04500
4021.43397,0.04496
4019.50522,0.04486
4017.57648,0.04475
4015.64773,0.04465
4013.71898,0.04450
4011.79024,0.04443
4009.86149,0.04449
4007.93275,0.04463
4006.00400,0.04497
4004.07526,0.04546
4002.14651,0.04559
4000.21777,0.04541
3998.28902,0.04524
3996.36028,0.04500
3994.43153,0.04482
3992.50279,0.04482
3990.57404,0.04476
3988.64530,0.04466
3986.71655,0.04496
3984.78780,0.04567
3982.85906,0.04605
3980.93031,0.04572
3979.00157,0.04511
3977.07282,0.04479
3975.14408,0.04490
3973.21533,0.04523
3971.28659,0.04566
3969.35784,0.04604
3967.42910,0.04596
3965.50035,0.04549
3963.57161,0.04515
3961.64286,0.04531
3959.71412,0.04580
3957.78537,0.04609
3955.85663,0.04593
3953.92788,0.04563
3951.99913,0.04546
3950.07039,0.04540
3948.14164,0.04535
3946.21290,0.04545
3944.28415,0.04579
3942.35541,0.04606
3940.42666,0.04606
3938.49792,0.04601
3936.56917,0.04594
3934.64043,0.04575
3932.71168,0.04558
3930.78294,0.04549
3928.85419,0.04545
3926.92545,0.04557
3924.99670,0.04570
3923.06795,0.04561
3921.13921,0.04555
3919.21046,0.04573
3917.28172,0.04595
3915.35297,0.04604
3913.42423,0.04609
3911.49548,0.04611
3909.56674,0.04584
3907.63799,0.04546
3905.70925,0.04558
3903.78050,0.04622
3901.85176,0.04672
3899.92301,0.04676
3897.99427,0.04665
3896.06552,0.04659
3894.13678,0.04639
3892.20803,0.04604
3890.27928,0.04604
3888.35054,0.04652
3886.42179,0.04679
3884.49305,0.04645
3882.56430,0.04610
3880.63556,0.04612
3878.70681,0.04609
3876.77807,0.04572
3874.84932,0.04541
3872.92058,0.04554
3870.99183,0.04573
3869.06309,0.04565
3867.13434,0.04570
3865.20560,0.04589
3863.27685,0.04580
3861.34811,0.04564
3859.41936,0.04576
3857.49061,0.04597
3855.56187,0.04606
3853.63312,0.04600
3851.70438,0.04614
3849.77563,0.04635
3847.84689,0.04631
3845.91814,0.04629
3843.98940,0.04660
3842.06065,0.04701
3840.13191,0.04718
3838.20316,0.04718
3836.27442,0.04728
3834.34567,0.04726
3832.41693,0.04683
3830.48818,0.04628
3828.55943,0.04628
3826.63069,0.04683
3824.70194,0.04724
3822.77320,0.04704
3820.84445,0.04631
3818.91571,0.04579
3816.98696,0.04570
3815.05822,0.04582
3813.12947,0.04612
3811.20073,0.04641
3809.27198,0.04656
3807.34324,0.04667
3805.41449,0.04689
3803.48575,0.04717
3801.55700,0.04737
3799.62826,0.04743
3797.69951,0.04719
3795.77076,0.04677
3793.84202,0.04650
3791.91327,0.04636
3789.98453,0.04618
3788.05578,0.04610
3786.12704,0.04623
3784.19829,0.04626
3782.26955,0.04613
3780.34080,0.04609
3778.41206,0.04623
3776.48331,0.04641
3774.55457,0.04645
3772.62582,0.04626
3770.69708,0.04612
3768.76833,0.04615
3766.83959,0.04610
3764.91084,0.04604
3762.98209,0.04626
3761.05335,0.04654
3759.12460,0.04663
3757.19586,0.04664
3755.26711,0.04672
3753.33837,0.04693
3751.40962,0.04705
3749.48088,0.04692
3747.55213,0.04690
3745.62339,0.04711
3743.69464,0.04716
3741.76590,0.04698
3739.83715,0.04693
3737.90841,0.04691
3735.97966,0.04658
3734.05091,0.04592
3732.12217,0.04536
3730.19342,0.04533
3728.26468,0.04576
3726.33593,0.04612
3724.40719,0.04612
3722.47844,0.04594
3720.54970,0.04586
3718.62095,0.04585
3716.69221,0.04564
3714.76346,0.04538
3712.83472,0.04533
3710.90597,0.04532
3708.97723,0.04520
3707.04848,0.04522
3705.11974,0.04546
3703.19099,0.04569
3701.26224,0.04584
3699.33350,0.04584
3697.40475,0.04553
3695.47601,0.04515
3693.54726,0.04510
3691.61852,0.04522
3689.68977,0.04505
3687.76103,0.04461
3685.83228,0.04432
3683.90354,0.04414
3681.97479,0.04393
3680.04605,0.04379
3678.11730,0.04385
3676.18856,0.04400
3674.25981,0.04405
3672.33107,0.04395
3670.40232,0.04368
3668.47357,0.04336
3666.54483,0.04314
3664.61608,0.04303
3662.68734,0.04301
3660.75859,0.04298
3658.82985,0.04290
3656.90110,0.04277
3654.97236,0.04244
3653.04361,0.04233
3651.11487,0.04254
3649.18612,0.04260
3647.25738,0.04241
3645.32863,0.04226
3643.39989,0.04210
3641.47114,0.04205
3639.54239,0.04207
3637.61365,0.04198
3635.68490,0.04189
3633.75616,0.04195
3631.82741,0.04205
3629.89867,0.04211
3627.96992,0.04221
3626.04118,0.04228
3624.11243,0.04229
3622.18369,0.04225
3620.25494,0.04200
3618.32620,0.04169
3616.39745,0.04170
3614.46871,0.04178
3612.53996,0.04161
3610.61122,0.04150
3608.68247,0.04170
3606.75372,0.04182
3604.82498,0.04166
3602.89623,0.04149
3600.96749,0.04138
3599.03874,0.04122
3597.11000,0.04098
3595.18125,0.04083
3593.25251,0.04089
3591.32376,0.04104
3589.39502,0.04115
3587.46627,0.04099
3585.53753,0.04060
3583.60878,0.04051
3581.68004,0.04088
3579.75129,0.04104
3577.82254,0.04066
3575.89380,0.04022
3573.96505,0.04040
3572.03631,0.04097
3570.10756,0.04095
3568.17882,0.04016
3566.25007,0.03955
3564.32133,0.03966
3562.39258,0.04008
3560.46384,0.04036
3558.53509,0.04036
3556.60635,0.04019
3554.67760,0.04009
3552.74886,0.04006
3550.82011,0.04005
3548.89137,0.04017
3546.96262,0.04033
3545.03387,0.04019
3543.10513,0.03986
3541.17638,0.03974
3539.24764,0.03982
3537.31889,0.03962
3535.39015,0.03916
3533.46140,0.03910
3531.53266,0.03939
3529.60391,0.03938
3527.67517,0.03924
3525.74642,0.03939
3523.81768,0.03943
3521.88893,0.03909
3519.96019,0.03907
3518.03144,0.03965
3516.10270,0.03995
3514.17395,0.03959
3512.24520,0.03920
3510.31646,0.03911
3508.38771,0.03911
3506.45897,0.03911
3504.53022,0.03903
3502.60148,0.03894
3500.67273,0.03896
3498.74399,0.03896
3496.81524,0.03889
3494.88650,0.03880
3492.95775,0.03878
3491.02901,0.03907
3489.10026,0.03965
3487.17152,0.03984
3485.24277,0.03943
3483.31402,0.03904
3481.38528,0.03903
3479.45653,0.03919
3477.52779,0.03915
3475.59904,0.03910
3473.67030,0.03930
3471.74155,0.03962
3469.81281,0.03995
3467.88406,0.04019
3465.95532,0.04019
3464.02657,0.03997
3462.09783,0.03977
3460.16908,0.03977
3458.24034,0.03982
3456.31159,0.03971
3454.38285,0.03971
3452.45410,0.04003
3450.52535,0.04024
3448.59661,0.04012
3446.66786,0.04008
3444.73912,0.04023
3442.81037,0.04028
3440.88163,0.04038
3438.95288,0.04067
3437.02414,0.04071
3435.09539,0.04042
3433.16665,0.04019
3431.23790,0.04014
3429.30916,0.04015
3427.38041,0.04022
3425.45167,0.04045
3423.52292,0.04071
3421.59418,0.04077
3419.66543,0.04072
3417.73668,0.04081
3415.80794,0.04090
3413.87919,0.04064
3411.95045,0.04007
3410.02170,0.03968
3408.09296,0.03964
3406.16421,0.03982
3404.23547,0.03993
3402.30672,0.03971
3400.37798,0.03945
3398.44923,0.03945
3396.52049,0.03953
3394.59174,0.03947
3392.66300,0.03939
3390.73425,0.03931
3388.80550,0.03910
3386.87676,0.03900
3384.94801,0.03935
3383.01927,0.03973
3381.09052,0.03986
3379.16178,0.04001
3377.23303,0.04018
3375.30429,0.04023
3373.37554,0.04007
3371.44680,0.03972
3369.51805,0.03925
3367.58931,0.03893
3365.66056,0.03906
3363.73182,0.03930
3361.80307,0.03917
3359.87433,0.03898
3357.94558,0.03920
3356.01683,0.03967
3354.08809,0.04000
3352.15934,0.03999
3350.23060,0.03964
3348.30185,0.03917
3346.37311,0.03888
3344.44436,0.03902
3342.51562,0.03936
3340.58687,0.03950
3338.65813,0.03953
3336.72938,0.03972
3334.80064,0.03996
3332.87189,0.04003
3330.94315,0.03985
3329.01440,0.03956
3327.08566,0.03922
3325.15691,0.03902
3323.22816,0.03930
3321.29942,0.03977
3319.37067,0.03981
3317.44193,0.03966
3315.51318,0.03976
3313.58444,0.03965
3311.65569,0.03922
3309.72695,0.03910
3307.79820,0.03920
3305.86946,0.03903
3303.94071,0.03883
3302.01197,0.03889
3300.08322,0.03904
3298.15448,0.03925
3296.22573,0.03963
3294.29698,0.03996
3292.36824,0.04010
3290.43949,0.04005
3288.51075,0.03986
3286.58200,0.03972
3284.65326,0.03977
3282.72451,0.03994
3280.79577,0.04002
3278.86702,0.03965
3276.93828,0.03901
3275.00953,0.03887
3273.08079,0.03929
3271.15204,0.03967
3269.22330,0.03970
3267.29455,0.03967
3265.36581,0.03983
3263.43706,0.03996
3261.50831,0.03989
3259.57957,0.03977
3257.65082,0.03972
3255.72208,0.03989
3253.79333,0.04041
3251.86459,0.04086
3249.93584,0.04078
3248.00710,0.04026
3246.07835,0.03976
3244.14961,0.03966
3242.22086,0.03974
3240.29212,0.03994
3238.36337,0.04042
3236.43463,0.04059
3234.50588,0.04014
3232.57713,0.03981
3230.64839,0.03995
3228.71964,0.04003
3226.79090,0.03992
3224.86215,0.03999
3222.93341,0.04012
3221.00466,0.03997
3219.07592,0.03961
3217.14717,0.03931
3215.21843,0.03925
3213.28968,0.03954
3211.36094,0.03983
3209.43219,0.03986
3207.50345,0.03980
3205.57470,0.03984
3203.64596,0.03994
3201.71721,0.03989
3199.78846,0.03965
3197.85972,0.03948
3195.93097,0.03959
3194.00223,0.03994
3192.07348,0.04032
3190.14474,0.04044
3188.21599,0.03999
3186.28725,0.03931
3184.35850,0.03915
3182.42976,0.03952
3180.50101,0.03994
3178.57227,0.04035
3176.64352,0.04071
3174.71478,0.04065
3172.78603,0.04023
3170.85729,0.04005
3168.92854,0.04037
3166.99979,0.04061
3165.07105,0.04026
3163.14230,0.03965
3161.21356,0.03929
3159.28481,0.03929
3157.35607,0.03944
3155.42732,0.03957
3153.49858,0.03981
3151.56983,0.04007
3149.64109,0.04005
3147.71234,0.03985
3145.78360,0.03974
3143.85485,0.03988
3141.92611,0.04030
3139.99736,0.04073
3138.06861,0.04082
3136.13987,0.04060
3134.21112,0.04033
3132.28238,0.04007
3130.35363,0.03984
3128.42489,0.03973
3126.49614,0.03975
3124.56740,0.03993
3122.63865,0.04019
3120.70991,0.04039
3118.78116,0.04049
3116.85242,0.04038
3114.92367,0.04015
3112.99493,0.04002
3111.06618,0.03996
3109.13744,0.03987
3107.20869,0.03978
3105.27994,0.03976
3103.35120,0.03992
3101.42245,0.04019
3099.49371,0.04034
3097.56496,0.04032
3095.63622,0.04018
3093.70747,0.03999
3091.77873,0.03988
3089.84998,0.03967
3087.92124,0.03929
3085.99249,0.03920
3084.06375,0.03951
3082.13500,0.03981
3080.20626,0.03996
3078.27751,0.04006
3076.34877,0.04010
3074.42002,0.04016
3072.49127,0.04017
3070.56253,0.03994
3068.63378,0.03953
3066.70504,0.03926
3064.77629,0.03932
3062.84755,0.03949
3060.91880,0.03960
3058.99006,0.03966
3057.06131,0.03953
3055.13257,0.03928
3053.20382,0.03930
3051.27508,0.03943
3049.34633,0.03928
3047.41759,0.03914
3045.48884,0.03919
3043.56009,0.03914
3041.63135,0.03908
3039.70260,0.03922
3037.77386,0.03931
3035.84511,0.03919
3033.91637,0.03893
3031.98762,0.03872
3030.05888,0.03874
3028.13013,0.03891
3026.20139,0.03895
3024.27264,0.03884
3022.34390,0.03880
3020.41515,0.03870
3018.48641,0.03851
3016.55766,0.03857
3014.62892,0.03866
3012.70017,0.03831
3010.77142,0.03781
3008.84268,0.03768
3006.91393,0.03785
3004.98519,0.03814
3003.05644,0.03827
3001.12770,0.03806
2999.19895,0.03786
2997.27021,0.03794
2995.34146,0.03813
2993.41272,0.03837
2991.48397,0.03858
2989.55523,0.03864
2987.62648,0.03870
2985.69774,0.03894
2983.76899,0.03911
2981.84025,0.03907
2979.91150,0.03886
2977.98275,0.03849
2976.05401,0.03827
2974.12526,0.03844
2972.19652,0.03862
2970.26777,0.03854
2968.33903,0.03839
2966.41028,0.03835
2964.48154,0.03831
2962.55279,0.03813
2960.62405,0.03802
2958.69530,0.03834
2956.76656,0.03884
2954.83781,0.03889
2952.90907,0.03858
2950.98032,0.03853
2949.05157,0.03878
2947.12283,0.03891
2945.19408,0.03884
2943.26534,0.03881
2941.33659,0.03901
2939.40785,0.03934
2937.47910,0.03967
2935.55036,0.04001
2933.62161,0.04044
2931.69287,0.04097
2929.76412,0.04142
2927.83538,0.04162
2925.90663,0.04167
2923.97789,0.04171
2922.04914,0.04180
2920.12040,0.04195
2918.19165,0.04205
2916.26290,0.04207
2914.33416,0.04209
2912.40541,0.04203
2910.47667,0.04187
2908.54792,0.04155
2906.61918,0.04123
2904.69043,0.04124
2902.76169,0.04141
2900.83294,0.04129
2898.90420,0.04094
2896.97545,0.04073
2895.04671,0.04085
2893.11796,0.04112
2891.18922,0.04114
2889.26047,0.04083
2887.33172,0.04052
2885.40298,0.04023
2883.47423,0.03986
2881.54549,0.03969
2879.61674,0.03990
2877.68800,0.04020
2875.75925,0.04024
2873.83051,0.04012
2871.90176,0.04004
2869.97302,0.04005
2868.04427,0.04008
2866.11553,0.04017
2864.18678,0.04039
2862.25804,0.04064
2860.32929,0.04067
2858.40055,0.04064
2856.47180,0.04088
2854.54305,0.04132
2852.61431,0.04167
2850.68556,0.04197
2848.75682,0.04229
2846.82807,0.04236
2844.89933,0.04213
2842.97058,0.04185
2841.04184,0.04164
2839.11309,0.04157
2837.18435,0.04156
2835.25560,0.04160
2833.32686,0.04168
2831.39811,0.04157
2829.46937,0.04129
2827.54062,0.04111
2825.61188,0.04117
2823.68313,0.04136
2821.75438,0.04154
2819.82564,0.04163
2817.89689,0.04162
2815.96815,0.04150
2814.03940,0.04129
2812.11066,0.04119
2810.18191,0.04131
2808.25317,0.04148
2806.32442,0.04150
2804.39568,0.04144
2802.46693,0.04141
2800.53819,0.04151
2798.60944,0.04163
2796.68070,0.04159
2794.75195,0.04159
2792.82320,0.04170
2790.89446,0.04157
2788.96571,0.04130
2787.03697,0.04135
2785.10822,0.04154
2783.17948,0.04162
2781.25073,0.04167
2779.32199,0.04177
2777.39324,0.04184
2775.46450,0.04177
2773.53575,0.04163
2771.60701,0.04167
2769.67826,0.04179
2767.74952,0.04182
2765.82077,0.04183
2763.89203,0.04183
2761.96328,0.04179
2760.03453,0.04173
2758.10579,0.04155
2756.17704,0.04141
2754.24830,0.04136
2752.31955,0.04122
2750.39081,0.04111
2748.46206,0.04127
2746.53332,0.04161
2744.60457,0.04180
2742.67583,0.04175
2740.74708,0.04171
2738.81834,0.04167
2736.88959,0.04146
2734.96085,0.04122
2733.03210,0.04120
2731.10336,0.04132
2729.17461,0.04145
2727.24586,0.04155
2725.31712,0.04155
2723.38837,0.04154
2721.45963,0.04160
2719.53088,0.04160
2717.60214,0.04149
2715.67339,0.04138
2713.74465,0.04125
2711.81590,0.04128
2709.88716,0.04158
2707.95841,0.04171
2706.02967,0.04150
2704.10092,0.04132
2702.17218,0.04125
2700.24343,0.04118
2698.31468,0.04128
2696.38594,0.04154
2694.45719,0.04163
2692.52845,0.04147
2690.59970,0.04133
2688.67096,0.04137
2686.74221,0.04142
2684.81347,0.04129
2682.88472,0.04108
2680.95598,0.04103
2679.02723,0.04120
2677.09849,0.04143
2675.16974,0.04147
2673.24100,0.04128
2671.31225,0.04108
2669.38351,0.04100
2667.45476,0.04096
2665.52601,0.04080
2663.59727,0.04062
2661.66852,0.04078
2659.73978,0.04126
2657.81103,0.04161
2655.88229,0.04171
2653.95354,0.04172
2652.02480,0.04169
2650.09605,0.04161
2648.16731,0.04149
2646.23856,0.04139
2644.30982,0.04134
2642.38107,0.04116
2640.45233,0.04091
2638.52358,0.04091
2636.59484,0.04108
2634.66609,0.04114
2632.73734,0.04104
2630.80860,0.04112
2628.87985,0.04144
2626.95111,0.04152
2625.02236,0.04127
2623.09362,0.04112
2621.16487,0.04110
2619.23613,0.04102
2617.30738,0.04102
2615.37864,0.04118
2613.44989,0.04131
2611.52115,0.04138
2609.59240,0.04142
2607.66366,0.04145
2605.73491,0.04141
2603.80616,0.04121
2601.87742,0.04108
2599.94867,0.04127
2598.01993,0.04154
2596.09118,0.04163
2594.16244,0.04155
2592.23369,0.04155
2590.30495,0.04152
2588.37620,0.04133
2586.44746,0.04123
2584.51871,0.04136
2582.58997,0.04148
2580.66122,0.04151
2578.73248,0.04148
2576.80373,0.04140
2574.87499,0.04135
2572.94624,0.04143
2571.01749,0.04144
2569.08875,0.04136
2567.16000,0.04138
2565.23126,0.04152
2563.30251,0.04165
2561.37377,0.04167
2559.44502,0.04155
2557.51628,0.04143
2555.58753,0.04140
2553.65879,0.04141
2551.73004,0.04144
2549.80130,0.04151
2547.87255,0.04160
2545.94381,0.04164
2544.01506,0.04157
2542.08631,0.04140
2540.15757,0.04127
2538.22882,0.04119
2536.30008,0.04109
2534.37133,0.04106
2532.44259,0.04122
2530.51384,0.04144
2528.58510,0.04147
2526.65635,0.04137
2524.72761,0.04130
2522.79886,0.04119
2520.87012,0.04109
2518.94137,0.04118
2517.01263,0.04132
2515.08388,0.04123
2513.15514,0.04106
2511.22639,0.04101
2509.29764,0.04100
2507.36890,0.04095
2505.44015,0.04103
2503.51141,0.04131
2501.58266,0.04157
2499.65392,0.04165
2497.72517,0.04165
2495.79643,0.04164
2493.86768,0.04158
2491.93894,0.04142
2490.01019,0.04116
2488.08145,0.04088
2486.15270,0.04080
2484.22396,0.04097
2482.29521,0.04114
2480.36647,0.04115
2478.43772,0.04111
2476.50897,0.04115
2474.58023,0.04119
2472.65148,0.04117
2470.72274,0.04126
2468.79399,0.04151
2466.86525,0.04166
2464.93650,0.04156
2463.00776,0.04139
2461.07901,0.04133
2459.15027,0.04131
2457.22152,0.04134
2455.29278,0.04150
2453.36403,0.04167
2451.43529,0.04156
2449.50654,0.04118
2447.57779,0.04092
2445.64905,0.04096
2443.72030,0.04112
2441.79156,0.04127
2439.86281,0.04136
2437.93407,0.04138
2436.00532,0.04139
2434.07658,0.04143
2432.14783,0.04144
2430.21909,0.04147
2428.29034,0.04144
2426.36160,0.04132
2424.43285,0.04131
2422.50411,0.04145
2420.57536,0.04149
2418.64662,0.04131
2416.71787,0.04117
2414.78912,0.04136
2412.86038,0.04172
2410.93163,0.04180
2409.00289,0.04154
2407.07414,0.04138
2405.14540,0.04140
2403.21665,0.04128
2401.28791,0.04103
2399.35916,0.04087
2397.43042,0.04092
2395.50167,0.04113
2393.57293,0.04133
2391.64418,0.04136
2389.71544,0.04124
2387.78669,0.04120
2385.85795,0.04140
2383.92920,0.04153
2382.00045,0.04141
2380.07171,0.04129
2378.14296,0.04124
2376.21422,0.04126
2374.28547,0.04141
2372.35673,0.04167
2370.42798,0.04185
2368.49924,0.04191
2366.57049,0.04199
2364.64175,0.04200
2362.71300,0.04179
2360.78426,0.04156
2358.85551,0.04152
2356.92677,0.04169
2354.99802,0.04187
2353.06927,0.04183
2351.14053,0.04162
2349.21178,0.04147
2347.28304,0.04154
2345.35429,0.04170
2343.42555,0.04179
2341.49680,0.04180
2339.56806,0.04182
2337.63931,0.04193
2335.71057,0.04200
2333.78182,0.04188
2331.85308,0.04151
2329.92433,0.04118
2327.99559,0.04117
2326.06684,0.04133
2324.13810,0.04138
2322.20935,0.04138
2320.28060,0.04138
2318.35186,0.04129
2316.42311,0.04124
2314.49437,0.04136
2312.56562,0.04152
2310.63688,0.04160
2308.70813,0.04159
2306.77939,0.04157
2304.85064,0.04160
2302.92190,0.04159
2300.99315,0.04143
2299.06441,0.04122
2297.13566,0.04116
2295.20692,0.04125
2293.27817,0.04136
2291.34943,0.04141
2289.42068,0.04140
2287.49193,0.04141
2285.56319,0.04141
2283.63444,0.04122
2281.70570,0.04100
2279.77695,0.04112
2277.84821,0.04148
2275.91946,0.04154
2273.99072,0.04130
2272.06197,0.04110
2270.13323,0.04111
2268.20448,0.04120
2266.27574,0.04123
2264.34699,0.04127
2262.41825,0.04143
2260.48950,0.04162
2258.56075,0.04156
2256.63201,0.04124
2254.70326,0.04101
2252.77452,0.04103
2250.84577,0.04106
2248.91703,0.04103
2246.98828,0.04103
2245.05954,0.04109
2243.13079,0.04114
2241.20205,0.04128
2239.27330,0.04153
2237.34456,0.04164
2235.41581,0.04157
2233.48707,0.04156
2231.55832,0.04142
2229.62958,0.04108
2227.70083,0.04100
2225.77208,0.04116
2223.84334,0.04118
2221.91459,0.04116
2219.98585,0.04126
2218.05710,0.04132
2216.12836,0.04123
2214.19961,0.04120
2212.27087,0.04128
2210.34212,0.04133
2208.41338,0.04132
2206.48463,0.04127
2204.55589,0.04122
2202.62714,0.04126
2200.69840,0.04138
2198.76965,0.04143
2196.84090,0.04130
2194.91216,0.04113
2192.98341,0.04105
2191.05467,0.04107
2189.12592,0.04108
2187.19718,0.04099
2185.26843,0.04081
2183.33969,0.04066
2181.41094,0.04064
2179.48220,0.04068
2177.55345,0.04072
2175.62471,0.04090
2173.69596,0.04114
2171.76722,0.04112
2169.83847,0.04086
2167.90973,0.04068
2165.98098,0.04062
2164.05223,0.04044
2162.12349,0.04024
2160.19474,0.04031
2158.26600,0.04059
2156.33725,0.04090
2154.40851,0.04104
2152.47976,0.04085
2150.55102,0.04054
2148.62227,0.04037
2146.69353,0.04031
2144.76478,0.04029
2142.83604,0.04027
2140.90729,0.04013
2138.97855,0.03997
2137.04980,0.03997
2135.12106,0.04008
2133.19231,0.04007
2131.26356,0.03996
2129.33482,0.03985
2127.40607,0.03980
2125.47733,0.03974
2123.54858,0.03970
2121.61984,0.03974
2119.69109,0.03982
2117.76235,0.03991
2115.83360,0.03995
2113.90486,0.03997
2111.97611,0.04011
2110.04737,0.04026
2108.11862,0.04021
2106.18988,0.04007
2104.26113,0.04006
2102.33238,0.04009
2100.40364,0.04000
2098.47489,0.03985
2096.54615,0.03974
2094.61740,0.03972
2092.68866,0.03977
2090.75991,0.03972
2088.83117,0.03956
2086.90242,0.03955
2084.97368,0.03970
2083.04493,0.03979
2081.11619,0.03982
2079.18744,0.03984
2077.25870,0.03977
2075.32995,0.03964
2073.40121,0.03964
2071.47246,0.03974
2069.54371,0.03987
2067.61497,0.03990
2065.68622,0.03982
2063.75748,0.03981
2061.82873,0.03982
2059.89999,0.03982
2057.97124,0.03996
2056.04250,0.04017
2054.11375,0.04013
2052.18501,0.03991
2050.25626,0.03976
2048.32752,0.03970
2046.39877,0.03972
2044.47003,0.03985
2042.54128,0.03995
2040.61254,0.03992
2038.68379,0.03985
2036.75504,0.03984
2034.82630,0.03984
2032.89755,0.03978
2030.96881,0.03971
2029.04006,0.03970
2027.11132,0.03967
2025.18257,0.03954
2023.25383,0.03945
2021.32508,0.03949
2019.39634,0.03956
2017.46759,0.03966
2015.53885,0.03976
2013.61010,0.03976
2011.68136,0.03981
2009.75261,0.03988
2007.82386,0.03979
2005.89512,0.03956
2003.96637,0.03933
2002.03763,0.03929
2000.10888,0.03941
1998.18014,0.03951
1996.25139,0.03955
1994.32265,0.03947
1992.39390,0.03930
1990.46516,0.03926
1988.53641,0.03931
1986.60767,0.03932
1984.67892,0.03931
1982.75018,0.03930
1980.82143,0.03928
1978.89269,0.03928
1976.96394,0.03926
1975.03519,0.03922
1973.10645,0.03925
1971.17770,0.03925
1969.24896,0.03925
1967.32021,0.03934
1965.39147,0.03931
1963.46272,0.03908
1961.53398,0.03895
1959.60523,0.03895
1957.67649,0.03889
1955.74774,0.03887
1953.81900,0.03901
1951.89025,0.03912
1949.96151,0.03905
1948.03276,0.03902
1946.10402,0.03913
1944.17527,0.03920
1942.24652,0.03910
1940.31778,0.03896
1938.38903,0.03888
1936.46029,0.03874
1934.53154,0.03855
1932.60280,0.03863
1930.67405,0.03895
1928.74531,0.03905
1926.81656,0.03886
1924.88782,0.03867
1922.95907,0.03866
1921.03033,0.03870
1919.10158,0.03869
1917.17284,0.03867
1915.24409,0.03862
1913.31534,0.03850
1911.38660,0.03838
1909.45785,0.03830
1907.52911,0.03817
1905.60036,0.03796
1903.67162,0.03774
1901.74287,0.03764
1899.81413,0.03770
1897.88538,0.03778
1895.95664,0.03781
1894.02789,0.03785
1892.09915,0.03786
1890.17040,0.03776
1888.24166,0.03763
1886.31291,0.03760
1884.38417,0.03757
1882.45542,0.03744
1880.52667,0.03718
1878.59793,0.03688
1876.66918,0.03672
1874.74044,0.03674
1872.81169,0.03679
1870.88295,0.03676
1868.95420,0.03661
1867.02546,0.03640
1865.09671,0.03629
1863.16797,0.03625
1861.23922,0.03611
1859.31048,0.03597
1857.38173,0.03598
1855.45299,0.03597
1853.52424,0.03573
1851.59549,0.03546
1849.66675,0.03531
1847.73800,0.03510
1845.80926,0.03485
1843.88051,0.03471
1841.95177,0.03464
1840.02302,0.03456
1838.09428,0.03438
1836.16553,0.03410
1834.23679,0.03387
1832.30804,0.03372
1830.37930,0.03348
1828.45055,0.03321
1826.52181,0.03292
1824.59306,0.03253
1822.66432,0.03230
1820.73557,0.03228
1818.80682,0.03220
1816.87808,0.03187
1814.94933,0.03146
1813.02059,0.03118
1811.09184,0.03095
1809.16310,0.03060
1807.23435,0.03014
1805.30561,0.02969
1803.37686,0.02917
1801.44812,0.02847
1799.51937,0.02770
1797.59063,0.02708
1795.66188,0.02654
1793.73314,0.02585
1791.80439,0.02492
1789.87565,0.02406
1787.94690,0.02341
1786.01815,0.02284
1784.08941,0.02259
1782.16066,0.02281
1780.23192,0.02329
1778.30317,0.02397
1776.37443,0.02506
1774.44568,0.02665
1772.51694,0.02889
1770.58819,0.03190
1768.65945,0.03587
1766.73070,0.04119
1764.80196,0.04776
1762.87321,0.05545
1760.94447,0.06359
1759.01572,0.07039
1757.08697,0.07519
1755.15823,0.07810
1753.22948,0.07956
1751.30074,0.07997
1749.37199,0.07934
1747.44325,0.07781
1745.51450,0.07572
1743.58576,0.07326
1741.65701,0.07059
1739.72827,0.06782
1737.79952,0.06541
1735.87078,0.06352
1733.94203,0.06140
1732.01329,0.05920
1730.08454,0.05760
1728.15580,0.05628
1726.22705,0.05512
1724.29830,0.05412
1722.36956,0.05328
1720.44081,0.05268
1718.51207,0.05218
1716.58332,0.05152
1714.65458,0.05080
1712.72583,0.05019
1710.79709,0.04956
1708.86834,0.04891
1706.93960,0.04830
1705.01085,0.04787
1703.08211,0.04761
1701.15336,0.04716
1699.22462,0.04649
1697.29587,0.04600
1695.36713,0.04557
1693.43838,0.04513
1691.50963,0.04479
1689.58089,0.04446
1687.65214,0.04431
1685.72340,0.04439
1683.79465,0.04417
1681.86591,0.04362
1679.93716,0.04326
1678.00842,0.04322
1676.07967,0.04322
1674.15093,0.04303
1672.22218,0.04296
1670.29344,0.04297
1668.36469,0.04266
1666.43595,0.04235
1664.50720,0.04231
1662.57845,0.04230
1660.64971,0.04216
1658.72096,0.04197
1656.79222,0.04196
1654.86347,0.04207
1652.93473,0.04190
1651.00598,0.04180
1649.07724,0.04210
1647.14849,0.04227
1645.21975,0.04193
1643.29100,0.04152
1641.36226,0.04137
1639.43351,0.04132
1637.50477,0.04128
1635.57602,0.04129
1633.64728,0.04130
1631.71853,0.04136
1629.78978,0.04145
1627.86104,0.04150
1625.93229,0.04151
1624.00355,0.04151
1622.07480,0.04138
1620.14606,0.04123
1618.21731,0.04105
1616.28857,0.04071
1614.35982,0.04049
1612.43108,0.04053
1610.50233,0.04047
1608.57359,0.04029
1606.64484,0.04019
1604.71610,0.04010
1602.78735,0.04001
1600.85861,0.04004
1598.92986,0.04006
1597.00111,0.03986
1595.07237,0.03964
1593.14362,0.03964
1591.21488,0.03974
1589.28613,0.03974
1587.35739,0.03976
1585.42864,0.03985
1583.49990,0.03986
1581.57115,0.03976
1579.64241,0.03964
1577.71366,0.03950
1575.78492,0.03923
1573.85617,0.03896
1571.92743,0.03891
1569.99868,0.03880
1568.06993,0.03847
1566.14119,0.03827
1564.21244,0.03828
1562.28370,0.03831
1560.35495,0.03829
1558.42621,0.03834
1556.49746,0.03844
1554.56872,0.03839
1552.63997,0.03824
1550.71123,0.03823
1548.78248,0.03831
1546.85374,0.03841
1544.92499,0.03859
1542.99625,0.03885
1541.06750,0.03899
1539.13876,0.03880
1537.21001,0.03852
1535.28126,0.03831
1533.35252,0.03802
1531.42377,0.03761
1529.49503,0.03728
1527.56628,0.03715
1525.63754,0.03717
1523.70879,0.03716
1521.78005,0.03700
1519.85130,0.03690
1517.92256,0.03705
1515.99381,0.03716
1514.06507,0.03702
1512.13632,0.03683
1510.20758,0.03676
1508.27883,0.03661
1506.35008,0.03607
1504.42134,0.03566
1502.49259,0.03572
1500.56385,0.03598
1498.63510,0.03612
1496.70636,0.03591
1494.77761,0.03559
1492.84887,0.03546
1490.92012,0.03538
1488.99138,0.03520
1487.06263,0.03493
1485.13389,0.03456
1483.20514,0.03416
1481.27640,0.03385
1479.34765,0.03362
1477.41891,0.03331
1475.49016,0.03298
1473.56141,0.03249
1471.63267,0.03164
1469.70392,0.03095
1467.77518,0.03060
1465.84643,0.03031
1463.91769,0.03021
1461.98894,0.03061
1460.06020,0.03156
1458.13145,0.03311
1456.20271,0.03475
1454.27396,0.03584
1452.34522,0.03665
1450.41647,0.03750
1448.48773,0.03841
1446.55898,0.03913
1444.63024,0.03946
1442.70149,0.03953
1440.77274,0.03955
1438.84400,0.03944
1436.91525,0.03886
1434.98651,0.03804
1433.05776,0.03752
1431.12902,0.03721
1429.20027,0.03690
1427.27153,0.03648
1425.34278,0.03600
1423.41404,0.03564
1421.48529,0.03537
1419.55655,0.03516
1417.62780,0.03502
1415.69906,0.03489
1413.77031,0.03466
1411.84156,0.03424
1409.91282,0.03376
1407.98407,0.03344
1406.05533,0.03318
1404.12658,0.03276
1402.19784,0.03223
1400.26909,0.03177
1398.34035,0.03132
1396.41160,0.03075
1394.48286,0.03010
1392.55411,0.02969
1390.62537,0.02975
1388.69662,0.03019
1386.76788,0.03091
1384.83913,0.03184
1382.91039,0.03281
1380.98164,0.03360
1379.05289,0.03420
1377.12415,0.03459
1375.19540,0.03439
1373.26666,0.03368
1371.33791,0.03323
1369.40917,0.03334
1367.48042,0.03376
1365.55168,0.03418
1363.62293,0.03454
1361.69419,0.03496
1359.76544,0.03544
1357.83670,0.03591
1355.90795,0.03639
1353.97921,0.03676
1352.05046,0.03685
1350.12172,0.03678
1348.19297,0.03670
1346.26422,0.03660
1344.33548,0.03648
1342.40673,0.03631
1340.47799,0.03600
1338.54924,0.03553
1336.62050,0.03505
1334.69175,0.03472
1332.76301,0.03460
1330.83426,0.03454
1328.90552,0.03429
1326.97677,0.03397
1325.04803,0.03382
1323.11928,0.03377
1321.19054,0.03355
1319.26179,0.03324
1317.33304,0.03298
1315.40430,0.03278
1313.47555,0.03268
1311.54681,0.03261
1309.61806,0.03244
1307.68932,0.03216
1305.76057,0.03190
1303.83183,0.03172
1301.90308,0.03154
1299.97434,0.03146
1298.04559,0.03145
1296.11685,0.03132
1294.18810,0.03109
1292.25936,0.03086
1290.33061,0.03044
1288.40187,0.02972
1286.47312,0.02892
1284.54437,0.02825
1282.61563,0.02774
1280.68688,0.02750
1278.75814,0.02772
1276.82939,0.02829
1274.90065,0.02890
1272.97190,0.02937
1271.04316,0.02986
1269.11441,0.03044
1267.18567,0.03081
1265.25692,0.03099
1263.32818,0.03134
1261.39943,0.03167
1259.47069,0.03155
1257.54194,0.03122
1255.61320,0.03109
1253.68445,0.03099
1251.75570,0.03067
1249.82696,0.03019
1247.89821,0.02968
1245.96947,0.02931
1244.04072,0.02901
1242.11198,0.02857
1240.18323,0.02799
1238.25449,0.02742
1236.32574,0.02691
1234.39700,0.02647
1232.46825,0.02622
1230.53951,0.02611
1228.61076,0.02602
1226.68202,0.02608
1224.75327,0.02648
1222.82452,0.02727
1220.89578,0.02840
1218.96703,0.02974
1217.03829,0.03125
1215.10954,0.03297
1213.18080,0.03467
1211.25205,0.03604
1209.32331,0.03702
1207.39456,0.03777
1205.46582,0.03835
1203.53707,0.03880
1201.60833,0.03925
1199.67958,0.03993
1197.75084,0.04099
1195.82209,0.04265
1193.89335,0.04535
1191.96460,0.04917
1190.03585,0.05386
1188.10711,0.05914
1186.17836,0.06461
1184.24962,0.06953
1182.32087,0.07273
1180.39213,0.07335
1178.46338,0.07161
1176.53464,0.06826
1174.60589,0.06395
1172.67715,0.05947
1170.74840,0.05564
1168.81966,0.05263
1166.89091,0.04999
1164.96217,0.04737
1163.03342,0.04497
1161.10467,0.04291
1159.17593,0.04107
1157.24718,0.03930
1155.31844,0.03742
1153.38969,0.03544
1151.46095,0.03353
1149.53220,0.03174
1147.60346,0.03019
1145.67471,0.02897
1143.74597,0.02841
1141.81722,0.02919
1139.88848,0.03180
1137.95973,0.03558
1136.03099,0.03931
1134.10224,0.04256
1132.17350,0.04530
1130.24475,0.04738
1128.31600,0.04880
1126.38726,0.04932
1124.45851,0.04866
1122.52977,0.04723
1120.60102,0.04561
1118.67228,0.04385
1116.74353,0.04206
1114.81479,0.04063
1112.88604,0.04004
1110.95730,0.04070
1109.02855,0.04268
1107.09981,0.04593
1105.17106,0.05045
1103.24232,0.05591
1101.31357,0.06151
1099.38483,0.06678
1097.45608,0.07182
1095.52733,0.07676
1093.59859,0.08150
1091.66984,0.08591
1089.74110,0.08986
1087.81235,0.09296
1085.88361,0.09458
1083.95486,0.09446
1082.02612,0.09324
1080.09737,0.09154
1078.16863,0.08941
1076.23988,0.08672
1074.31114,0.08358
1072.38239,0.08057
1070.45365,0.07813
1068.52490,0.07586
1066.59615,0.07324
1064.66741,0.07059
1062.73866,0.06852
1060.80992,0.06689
1058.88117,0.06529
1056.95243,0.06414
1055.02368,0.06389
1053.09494,0.06408
1051.16619,0.06425
1049.23745,0.06469
1047.30870,0.06550
1045.37996,0.06641
1043.45121,0.06732
1041.52247,0.06806
1039.59372,0.06844
1037.66498,0.06854
1035.73623,0.06855
1033.80748,0.06841
1031.87874,0.06812
1029.94999,0.06788
1028.02125,0.06781
1026.09250,0.06799
1024.16376,0.06851
1022.23501,0.06919
1020.30627,0.06978
1018.37752,0.07039
1016.44878,0.07100
1014.52003,0.07139
1012.59129,0.07171
1010.66254,0.07194
1008.73380,0.07168
1006.80505,0.07089
1004.87631,0.06979
1002.94756,0.06857
1001.01881,0.06740
999.09007,0.06646
997.16132,0.06563
995.23258,0.06473
993.30383,0.06408
991.37509,0.06380
989.44634,0.06349
987.51760,0.06294
985.58885,0.06233
983.66011,0.06167
981.73136,0.06092
979.80262,0.06025
977.87387,0.05978
975.94513,0.05940
974.01638,0.05886
972.08763,0.05812
970.15889,0.05734
968.23014,0.05673
966.30140,0.05620
964.37265,0.05558
962.44391,0.05492
960.51516,0.05445
958.58642,0.05431
956.65767,0.05438
954.72893,0.05444
952.80018,0.05452
950.87144,0.05469
948.94269,0.05482
947.01395,0.05479
945.08520,0.05453
943.15646,0.05410
941.22771,0.05376
939.29896,0.05359
937.37022,0.05334
935.44147,0.05294
933.51273,0.05267
931.58398,0.05262
929.65524,0.05253
927.72649,0.05241
925.79775,0.05232
923.86900,0.05203
921.94026,0.05171
920.01151,0.05155
918.08277,0.05131
916.15402,0.05088
914.22528,0.05047
912.29653,0.05033
910.36779,0.05040
908.43904,0.05037
906.51029,0.05025
904.58155,0.05020
902.65280,0.05014
900.72406,0.05021
898.79531,0.05024
896.86657,0.04982
894.93782,0.04936
893.00908,0.04939
891.08033,0.04969
889.15159,0.04959
887.22284,0.04898
885.29410,0.04863
883.36535,0.04868
881.43661,0.04852
879.50786,0.04797
877.57911,0.04725
875.65037,0.04674
873.72162,0.04697
871.79288,0.04795
869.86413,0.04898
867.93539,0.04951
866.00664,0.04970
864.07790,0.04998
862.14915,0.05053
860.22041,0.05114
858.29166,0.05153
856.36292,0.05156
854.43417,0.05127
852.50543,0.05084
850.57668,0.05050
848.64794,0.05033
846.71919,0.05027
844.79044,0.05026
842.86170,0.05028
840.93295,0.05013
839.00421,0.04971
837.07546,0.04929
835.14672,0.04898
833.21797,0.04880
831.28923,0.04892
829.36048,0.04909
827.43174,0.04919
825.50299,0.04949
823.57425,0.04961
821.64550,0.04912
819.71676,0.04844
817.78801,0.04809
815.85926,0.04814
813.93052,0.04810
812.00177,0.04765
810.07303,0.04732
808.14428,0.04732
806.21554,0.04738
804.28679,0.04728
802.35805,0.04696
800.42930,0.04659
798.50056,0.04651
796.57181,0.04675
794.64307,0.04694
792.71432,0.04688
790.78558,0.04670
788.85683,0.04631
786.92809,0.04565
784.99934,0.04493
783.07059,0.04435
781.14185,0.04417
779.21310,0.04445
777.28436,0.04471
775.35561,0.04466
773.42687,0.04458
771.49812,0.04454
769.56938,0.04429
767.64063,0.04398
765.71189,0.04384
763.78314,0.04385
761.85440,0.04405
759.92565,0.04453
757.99691,0.04516
756.06816,0.04570
754.13942,0.04603
752.21067,0.04628
750.28192,0.04662
748.35318,0.04691
746.42443,0.04685
744.49569,0.04664
742.56694,0.04686
740.63820,0.04734
738.70945,0.04747
736.78071,0.04737
734.85196,0.04734
732.92322,0.04740
730.99447,0.04736
729.06573,0.04689
727.13698,0.04619
725.20824,0.04556
723.27949,0.04516
721.35074,0.04523
719.42200,0.04547
717.49325,0.04574
715.56451,0.04614
713.63576,0.04613
711.70702,0.04540
709.77827,0.04471
707.84953,0.04467
705.92078,0.04516
703.99204,0.04578
702.06329,0.04606
700.13455,0.04585
698.20580,0.04532
696.27706,0.04507
694.34831,0.04564
692.41957,0.04637
690.49082,0.04652
688.56207,0.04632
686.63333,0.04630
684.70458,0.04664
682.77584,0.04697
680.84709,0.04683
678.91835,0.04641
676.98960,0.04623
675.06086,0.04653
673.13211,0.04711
671.20337,0.04773
669.27462,0.04821
667.34588,0.04817
665.41713,0.04788
663.48839,0.04776
661.55964,0.04747
659.63090,0.04692
657.70215,0.04649
655.77340,0.04613
653.84466,0.04588
651.91591,0.04584
649.98717,0.04580
648.05842,0.04584
646.12968,0.04599
644.20093,0.04596
642.27219,0.04590
640.34344,0.04584
638.41470,0.04577
636.48595,0.04649
634.55721,0.04792
632.62846,0.04828
630.69972,0.04721
628.77097,0.04626
626.84222,0.04611
624.91348,0.04597
622.98473,0.04517
621.05599,0.04469
619.12724,0.04559
617.19850,0.04652
615.26975,0.04578
613.34101,0.04425
611.41226,0.04412
609.48352,0.04491
607.55477,0.04439
605.62603,0.04332
603.69728,0.04337
601.76854,0.04406
599.83979,0.04471
