7497.03301,0.04504
7495.10426,0.04743
7493.17552,0.04460
7491.24677,0.03927
7489.31803,0.03883
7487.38928,0.04332
7485.46054,0.05010
7483.53179,0.05743
7481.60305,0.06008
7479.67430,0.05644
7477.74556,0.05292
7475.81681,0.05355
7473.88807,0.05518
7471.95932,0.05271
7470.03057,0.04633
7468.10183,0.04365
7466.17308,0.04633
7464.24434,0.05025
7462.31559,0.05394
7460.38685,0.05595
7458.45810,0.05531
7456.52936,0.05359
7454.60061,0.05191
7452.67187,0.05092
7450.74312,0.05265
7448.81438,0.05659
7446.88563,0.05855
7444.95689,0.05700
7443.02814,0.05192
7441.09940,0.04412
7439.17065,0.03949
7437.24190,0.04467
7435.31316,0.05288
7433.38441,0.05326
7431.45567,0.04921
7429.52692,0.04832
7427.59818,0.05106
7425.66943,0.05528
7423.74069,0.05798
7421.81194,0.05973
7419.88320,0.06020
7417.95445,0.05641
7416.02571,0.05130
7414.09696,0.05198
7412.16822,0.05745
7410.23947,0.05954
7408.31073,0.05623
7406.38198,0.05338
7404.45323,0.05161
7402.52449,0.04893
7400.59574,0.04630
7398.66700,0.04644
7396.73825,0.05093
7394.80951,0.05631
7392.88076,0.05672
7390.95202,0.05358
7389.02327,0.05177
7387.09453,0.05288
7385.16578,0.05468
7383.23704,0.05290
7381.30829,0.04663
7379.37955,0.04139
7377.45080,0.04181
7375.52205,0.04761
7373.59331,0.05440
7371.66456,0.05667
7369.73582,0.05306
7367.80707,0.05041
7365.87833,0.05359
7363.94958,0.05651
7362.02084,0.05516
7360.09209,0.05374
7358.16335,0.05521
7356.23460,0.05663
7354.30586,0.05306
7352.37711,0.04751
7350.44837,0.04613
7348.51962,0.04784
7346.59088,0.04781
7344.66213,0.04599
7342.73338,0.04627
7340.80464,0.05033
7338.87589,0.05400
7336.94715,0.05281
7335.01840,0.05050
7333.08966,0.05101
7331.16091,0.05111
7329.23217,0.05120
7327.30342,0.05079
7325.37468,0.04706
7323.44593,0.04573
7321.51719,0.05132
7319.58844,0.05781
7317.65970,0.06011
7315.73095,0.06043
7313.80221,0.06076
7311.87346,0.05990
7309.94471,0.05875
7308.01597,0.05864
7306.08722,0.05982
7304.15848,0.05985
7302.22973,0.05810
7300.30099,0.05807
7298.37224,0.05857
7296.44350,0.05508
7294.51475,0.04951
7292.58601,0.04597
7290.65726,0.04555
7288.72852,0.04758
7286.79977,0.05118
7284.87103,0.05336
7282.94228,0.05269
7281.01353,0.05156
7279.08479,0.05350
7277.15604,0.05593
7275.22730,0.05398
7273.29855,0.05095
7271.36981,0.05230
7269.44106,0.05627
7267.51232,0.05788
7265.58357,0.05584
7263.65483,0.05447
7261.72608,0.05678
7259.79734,0.05903
7257.86859,0.05637
7255.93985,0.04990
7254.01110,0.04500
7252.08236,0.04486
7250.15361,0.04580
7248.22486,0.04392
7246.29612,0.04342
7244.36737,0.04991
7242.43863,0.05737
7240.50988,0.05738
7238.58114,0.05489
7236.65239,0.05556
7234.72365,0.05454
7232.79490,0.04947
7230.86616,0.04614
7228.93741,0.04780
7227.00867,0.05027
7225.07992,0.05058
7223.15118,0.05001
7221.22243,0.04927
7219.29369,0.04893
7217.36494,0.04946
7215.43619,0.04809
7213.50745,0.04850
7211.57870,0.05490
7209.64996,0.05938
7207.72121,0.05577
7205.79247,0.04969
7203.86372,0.04675
7201.93498,0.04847
7200.00623,0.05255
7198.07749,0.05458
7196.14874,0.05480
7194.22000,0.05512
7192.29125,0.05383
7190.36251,0.05164
7188.43376,0.05082
7186.50501,0.05016
7184.57627,0.04953
7182.64752,0.04882
7180.71878,0.04803
7178.79003,0.05126
7176.86129,0.05584
7174.93254,0.05681
7173.00380,0.05730
7171.07505,0.05817
7169.14631,0.05723
7167.21756,0.05545
7165.28882,0.05131
7163.36007,0.04645
7161.43133,0.04780
7159.50258,0.05376
7157.57384,0.05599
7155.64509,0.05246
7153.71634,0.04648
7151.78760,0.04251
7149.85885,0.04495
7147.93011,0.05211
7146.00136,0.05587
7144.07262,0.05337
7142.14387,0.05026
7140.21513,0.04961
7138.28638,0.05011
7136.35764,0.05288
7134.42889,0.05721
7132.50015,0.05949
7130.57140,0.05806
7128.64266,0.05453
7126.71391,0.05063
7124.78516,0.04815
7122.85642,0.04847
7120.92767,0.05058
7118.99893,0.05189
7117.07018,0.05108
7115.14144,0.04847
7113.21269,0.04751
7111.28395,0.04968
7109.35520,0.05246
7107.42646,0.05477
7105.49771,0.05648
7103.56897,0.05545
7101.64022,0.05252
7099.71148,0.05115
7097.78273,0.05137
7095.85399,0.05189
7093.92524,0.05300
7091.99649,0.05357
7090.06775,0.05275
7088.13900,0.05127
7086.21026,0.04909
7084.28151,0.04717
7082.35277,0.04835
7080.42402,0.04952
7078.49528,0.04792
7076.56653,0.04738
7074.63779,0.04952
7072.70904,0.05241
7070.78030,0.05489
7068.85155,0.05532
7066.92281,0.05268
7064.99406,0.04828
7063.06532,0.04533
7061.13657,0.04557
7059.20782,0.04662
7057.27908,0.04611
7055.35033,0.04526
7053.42159,0.04526
7051.49284,0.04662
7049.56410,0.05038
7047.63535,0.05479
7045.70661,0.05573
7043.77786,0.05379
7041.84912,0.05338
7039.92037,0.05577
7037.99163,0.05701
7036.06288,0.05397
7034.13414,0.04980
7032.20539,0.04784
7030.27664,0.04670
7028.34790,0.04592
7026.41915,0.04576
7024.49041,0.04552
7022.56166,0.04520
7020.63292,0.04600
7018.70417,0.04848
7016.77543,0.05114
7014.84668,0.05095
7012.91794,0.04792
7010.98919,0.04605
7009.06045,0.04868
7007.13170,0.05347
7005.20296,0.05495
7003.27421,0.05312
7001.34547,0.05211
6999.41672,0.05202
6997.48797,0.05154
6995.55923,0.05146
6993.63048,0.05142
6991.70174,0.05037
6989.77299,0.04859
6987.84425,0.04549
6985.91550,0.04349
6983.98676,0.04705
6982.05801,0.05339
6980.12927,0.05814
6978.20052,0.06126
6976.27178,0.06097
6974.34303,0.05694
6972.41429,0.05279
6970.48554,0.05108
6968.55680,0.05139
6966.62805,0.05236
6964.69930,0.05263
6962.77056,0.05158
6960.84181,0.05001
6958.91307,0.05006
6956.98432,0.05198
6955.05558,0.05289
6953.12683,0.05178
6951.19809,0.05129
6949.26934,0.05261
6947.34060,0.05360
6945.41185,0.05206
6943.48311,0.04996
6941.55436,0.05051
6939.62562,0.05232
6937.69687,0.05225
6935.76812,0.05060
6933.83938,0.04952
6931.91063,0.05023
6929.98189,0.05138
6928.05314,0.05167
6926.12440,0.05235
6924.19565,0.05360
6922.26691,0.05217
6920.33816,0.04876
6918.40942,0.04814
6916.48067,0.04941
6914.55193,0.04789
6912.62318,0.04559
6910.69444,0.04723
6908.76569,0.05095
6906.83695,0.05305
6904.90820,0.05421
6902.97945,0.05499
6901.05071,0.05450
6899.12196,0.05374
6897.19322,0.05305
6895.26447,0.05090
6893.33573,0.04750
6891.40698,0.04463
6889.47824,0.04432
6887.54949,0.04592
6885.62075,0.04691
6883.69200,0.04840
6881.76326,0.05078
6879.83451,0.05015
6877.90577,0.04823
6875.97702,0.04923
6874.04828,0.05128
6872.11953,0.05212
6870.19078,0.05403
6868.26204,0.05600
6866.33329,0.05494
6864.40455,0.05215
6862.47580,0.04976
6860.54706,0.04877
6858.61831,0.05003
6856.68957,0.05094
6854.76082,0.04869
6852.83208,0.04561
6850.90333,0.04546
6848.97459,0.04668
6847.04584,0.04736
6845.11710,0.04902
6843.18835,0.04961
6841.25960,0.04677
6839.33086,0.04565
6837.40211,0.04826
6835.47337,0.05010
6833.54462,0.05087
6831.61588,0.05226
6829.68713,0.05315
6827.75839,0.05470
6825.82964,0.05809
6823.90090,0.06062
6821.97215,0.06052
6820.04341,0.05924
6818.11466,0.05691
6816.18592,0.05378
6814.25717,0.05140
6812.32843,0.04951
6810.39968,0.04834
6808.47093,0.04914
6806.54219,0.04923
6804.61344,0.04684
6802.68470,0.04590
6800.75595,0.04817
6798.82721,0.05006
6796.89846,0.05012
6794.96972,0.04998
6793.04097,0.05043
6791.11223,0.05093
6789.18348,0.05195
6787.25474,0.05283
6785.32599,0.05162
6783.39725,0.04961
6781.46850,0.04875
6779.53975,0.04775
6777.61101,0.04660
6775.68226,0.04665
6773.75352,0.04718
6771.82477,0.04776
6769.89603,0.04859
6767.96728,0.04889
6766.03854,0.04879
6764.10979,0.04781
6762.18105,0.04567
6760.25230,0.04523
6758.32356,0.04740
6756.39481,0.04857
6754.46607,0.04696
6752.53732,0.04609
6750.60858,0.04920
6748.67983,0.05364
6746.75108,0.05492
6744.82234,0.05143
6742.89359,0.04691
6740.96485,0.04603
6739.03610,0.04677
6737.10736,0.04593
6735.17861,0.04456
6733.24987,0.04489
6731.32112,0.04836
6729.39238,0.05118
6727.46363,0.04994
6725.53489,0.04923
6723.60614,0.05105
6721.67740,0.05143
6719.74865,0.05003
6717.81991,0.04855
6715.89116,0.04740
6713.96241,0.04743
6712.03367,0.04842
6710.10492,0.04877
6708.17618,0.04820
6706.24743,0.04781
6704.31869,0.04800
6702.38994,0.04812
6700.46120,0.04900
6698.53245,0.05007
6696.60371,0.04930
6694.67496,0.04820
6692.74622,0.04877
6690.81747,0.05042
6688.88873,0.05282
6686.95998,0.05321
6685.03123,0.04908
6683.10249,0.04490
6681.17374,0.04556
6679.24500,0.04842
6677.31625,0.04979
6675.38751,0.05032
6673.45876,0.05135
6671.53002,0.05231
6669.60127,0.05171
6667.67253,0.04973
6665.74378,0.04977
6663.81504,0.05148
6661.88629,0.05097
6659.95755,0.04951
6658.02880,0.04990
6656.10006,0.04979
6654.17131,0.04744
6652.24256,0.04503
6650.31382,0.04540
6648.38507,0.04857
6646.45633,0.05148
6644.52758,0.05192
6642.59884,0.05194
6640.67009,0.05210
6638.74135,0.05051
6636.81260,0.04777
6634.88386,0.04620
6632.95511,0.04624
6631.02637,0.04757
6629.09762,0.04953
6627.16888,0.04963
6625.24013,0.04761
6623.31139,0.04638
6621.38264,0.04676
6619.45389,0.04839
6617.52515,0.05019
6615.59640,0.05096
6613.66766,0.05111
6611.73891,0.05032
6609.81017,0.04832
6607.88142,0.04650
6605.95268,0.04581
6604.02393,0.04704
6602.09519,0.04939
6600.16644,0.05029
6598.23770,0.04919
6596.30895,0.04796
6594.38021,0.04751
6592.45146,0.04812
6590.52271,0.04954
6588.59397,0.05069
6586.66522,0.04995
6584.73648,0.04766
6582.80773,0.04721
6580.87899,0.04868
6578.95024,0.04932
6577.02150,0.04909
6575.09275,0.04855
6573.16401,0.04829
6571.23526,0.04860
6569.30652,0.04862
6567.37777,0.04814
6565.44903,0.04819
6563.52028,0.04905
6561.59154,0.04962
6559.66279,0.04948
6557.73404,0.04937
6555.80530,0.04917
6553.87655,0.04927
6551.94781,0.05039
6550.01906,0.05132
6548.09032,0.05122
6546.16157,0.05150
6544.23283,0.05172
6542.30408,0.05030
6540.37534,0.04845
6538.44659,0.04706
6536.51785,0.04579
6534.58910,0.04655
6532.66036,0.05008
6530.73161,0.05237
6528.80287,0.05124
6526.87412,0.04991
6524.94537,0.05014
6523.01663,0.05047
6521.08788,0.04886
6519.15914,0.04578
6517.23039,0.04498
6515.30165,0.04606
6513.37290,0.04514
6511.44416,0.04375
6509.51541,0.04430
6507.58667,0.04511
6505.65792,0.04607
6503.72918,0.04835
6501.80043,0.05031
6499.87169,0.05099
6497.94294,0.04997
6496.01419,0.04568
6494.08545,0.04066
6492.15670,0.04032
6490.22796,0.04378
6488.29921,0.04666
6486.37047,0.04881
6484.44172,0.05112
6482.51298,0.05164
6480.58423,0.05007
6478.65549,0.04952
6476.72674,0.05091
6474.79800,0.05151
6472.86925,0.05026
6470.94051,0.04919
6469.01176,0.04988
6467.08302,0.05129
6465.15427,0.05164
6463.22552,0.05081
6461.29678,0.04961
6459.36803,0.04870
6457.43929,0.04867
6455.51054,0.04964
6453.58180,0.05088
6451.65305,0.05090
6449.72431,0.04890
6447.79556,0.04675
6445.86682,0.04756
6443.93807,0.05042
6442.00933,0.05212
6440.08058,0.05339
6438.15184,0.05516
6436.22309,0.05492
6434.29434,0.05258
6432.36560,0.05073
6430.43685,0.05056
6428.50811,0.05143
6426.57936,0.05206
6424.65062,0.05182
6422.72187,0.05101
6420.79313,0.04987
6418.86438,0.04877
6416.93564,0.04827
6415.00689,0.04869
6413.07815,0.04885
6411.14940,0.04634
6409.22066,0.04293
6407.29191,0.04365
6405.36317,0.04736
6403.43442,0.04949
6401.50567,0.04877
6399.57693,0.04701
6397.64818,0.04675
6395.71944,0.04773
6393.79069,0.04747
6391.86195,0.04655
6389.93320,0.04669
6388.00446,0.04832
6386.07571,0.05107
6384.14697,0.05279
6382.21822,0.05181
6380.28948,0.04989
6378.36073,0.04924
6376.43199,0.04965
6374.50324,0.04938
6372.57450,0.04914
6370.64575,0.04998
6368.71700,0.04994
6366.78826,0.04848
6364.85951,0.04797
6362.93077,0.04915
6361.00202,0.05086
6359.07328,0.05208
6357.14453,0.05175
6355.21579,0.04953
6353.28704,0.04777
6351.35830,0.04946
6349.42955,0.05268
6347.50081,0.05340
6345.57206,0.05228
6343.64332,0.05144
6341.71457,0.05099
6339.78582,0.04985
6337.85708,0.04692
6335.92833,0.04404
6333.99959,0.04497
6332.07084,0.04888
6330.14210,0.05144
6328.21335,0.05201
6326.28461,0.05207
6324.35586,0.05104
6322.42712,0.04997
6320.49837,0.05041
6318.56963,0.05094
6316.64088,0.05002
6314.71214,0.04873
6312.78339,0.04867
6310.85465,0.04953
6308.92590,0.04895
6306.99715,0.04671
6305.06841,0.04566
6303.13966,0.04661
6301.21092,0.04750
6299.28217,0.04760
6297.35343,0.04728
6295.42468,0.04696
6293.49594,0.04784
6291.56719,0.05007
6289.63845,0.05202
6287.70970,0.05188
6285.78096,0.04937
6283.85221,0.04712
6281.92347,0.04721
6279.99472,0.04810
6278.06598,0.04911
6276.13723,0.05103
6274.20848,0.05208
6272.27974,0.05135
6270.35099,0.05011
6268.42225,0.04883
6266.49350,0.04790
6264.56476,0.04761
6262.63601,0.04696
6260.70727,0.04571
6258.77852,0.04473
6256.84978,0.04457
6254.92103,0.04534
6252.99229,0.04710
6251.06354,0.04904
6249.13480,0.05030
6247.20605,0.05030
6245.27730,0.04920
6243.34856,0.04814
6241.41981,0.04737
6239.49107,0.04719
6237.56232,0.04900
6235.63358,0.05182
6233.70483,0.05263
6231.77609,0.05113
6229.84734,0.04921
6227.91860,0.04711
6225.98985,0.04503
6224.06111,0.04548
6222.13236,0.04881
6220.20362,0.05117
6218.27487,0.05054
6216.34613,0.04861
6214.41738,0.04795
6212.48863,0.04958
6210.55989,0.05166
6208.63114,0.05211
6206.70240,0.05059
6204.77365,0.04831
6202.84491,0.04699
6200.91616,0.04704
6198.98742,0.04802
6197.05867,0.04922
6195.12993,0.05031
6193.20118,0.05094
6191.27244,0.05039
6189.34369,0.04955
6187.41495,0.04937
6185.48620,0.04904
6183.55746,0.04807
6181.62871,0.04726
6179.69996,0.04750
6177.77122,0.04812
6175.84247,0.04827
6173.91373,0.04861
6171.98498,0.04931
6170.05624,0.04871
6168.12749,0.04717
6166.19875,0.04723
6164.27000,0.04871
6162.34126,0.04950
6160.41251,0.04975
6158.48377,0.04970
6156.55502,0.04856
6154.62628,0.04758
6152.69753,0.04850
6150.76878,0.04979
6148.84004,0.05042
6146.91129,0.05140
6144.98255,0.05140
6143.05380,0.04976
6141.12506,0.04918
6139.19631,0.04952
6137.26757,0.04875
6135.33882,0.04833
6133.41008,0.04932
6131.48133,0.04961
6129.55259,0.04881
6127.62384,0.04838
6125.69510,0.04794
6123.76635,0.04676
6121.83761,0.04606
6119.90886,0.04620
6117.98011,0.04662
6116.05137,0.04801
6114.12262,0.05031
6112.19388,0.05109
6110.26513,0.04972
6108.33639,0.04868
6106.40764,0.04866
6104.47890,0.04896
6102.55015,0.04971
6100.62141,0.04963
6098.69266,0.04794
6096.76392,0.04696
6094.83517,0.04818
6092.90643,0.04968
6090.97768,0.04984
6089.04893,0.04881
6087.12019,0.04787
6085.19144,0.04824
6083.26270,0.04861
6081.33395,0.04727
6079.40521,0.04581
6077.47646,0.04654
6075.54772,0.04816
6073.61897,0.04862
6071.69023,0.04935
6069.76148,0.05108
6067.83274,0.05144
6065.90399,0.05028
6063.97525,0.05026
6062.04650,0.05177
6060.11776,0.05255
6058.18901,0.05147
6056.26026,0.04995
6054.33152,0.04946
6052.40277,0.04995
6050.47403,0.05032
6048.54528,0.04972
6046.61654,0.04891
6044.68779,0.04943
6042.75905,0.05127
6040.83030,0.05309
6038.90156,0.05377
6036.97281,0.05314
6035.04407,0.05211
6033.11532,0.05112
6031.18658,0.05113
6029.25783,0.05239
6027.32909,0.05206
6025.40034,0.04986
6023.47159,0.04878
6021.54285,0.04877
6019.61410,0.04870
6017.68536,0.04897
6015.75661,0.04942
6013.82787,0.04934
6011.89912,0.04871
6009.97038,0.04842
6008.04163,0.04857
6006.11289,0.04868
6004.18414,0.04893
6002.25540,0.04888
6000.32665,0.04831
5998.39791,0.04795
5996.46916,0.04837
5994.54041,0.04967
5992.61167,0.05039
5990.68292,0.04948
5988.75418,0.04869
5986.82543,0.04919
5984.89669,0.05022
5982.96794,0.05072
5981.03920,0.05015
5979.11045,0.04930
5977.18171,0.04928
5975.25296,0.05023
5973.32422,0.05139
5971.39547,0.05202
5969.46673,0.05217
5967.53798,0.05140
5965.60924,0.04886
5963.68049,0.04562
5961.75174,0.04470
5959.82300,0.04721
5957.89425,0.05017
5955.96551,0.05134
5954.03676,0.05179
5952.10802,0.05203
5950.17927,0.05120
5948.25053,0.04968
5946.32178,0.04815
5944.39304,0.04749
5942.46429,0.04845
5940.53555,0.04949
5938.60680,0.04877
5936.67806,0.04682
5934.74931,0.04575
5932.82057,0.04672
5930.89182,0.04799
5928.96307,0.04822
5927.03433,0.04780
5925.10558,0.04672
5923.17684,0.04559
5921.24809,0.04594
5919.31935,0.04757
5917.39060,0.04872
5915.46186,0.04913
5913.53311,0.04921
5911.60437,0.04845
5909.67562,0.04804
5907.74688,0.04936
5905.81813,0.05057
5903.88939,0.04959
5901.96064,0.04775
5900.03189,0.04744
5898.10315,0.04862
5896.17440,0.04981
5894.24566,0.05056
5892.31691,0.05072
5890.38817,0.05053
5888.45942,0.05109
5886.53068,0.05174
5884.60193,0.05077
5882.67319,0.04925
5880.74444,0.04882
5878.81570,0.04918
5876.88695,0.04916
5874.95821,0.04880
5873.02946,0.04890
5871.10072,0.04904
5869.17197,0.04867
5867.24322,0.04895
5865.31448,0.05033
5863.38573,0.05116
5861.45699,0.05035
5859.52824,0.04904
5857.59950,0.04871
5855.67075,0.04916
5853.74201,0.04913
5851.81326,0.04803
5849.88452,0.04644
5847.95577,0.04530
5846.02703,0.04496
5844.09828,0.04510
5842.16954,0.04592
5840.24079,0.04699
5838.31205,0.04670
5836.38330,0.04605
5834.45455,0.04694
5832.52581,0.04786
5830.59706,0.04739
5828.66832,0.04678
5826.73957,0.04747
5824.81083,0.04970
5822.88208,0.05147
5820.95334,0.05076
5819.02459,0.04911
5817.09585,0.04877
5815.16710,0.04877
5813.23836,0.04803
5811.30961,0.04767
5809.38087,0.04799
5807.45212,0.04811
5805.52337,0.04770
5803.59463,0.04691
5801.66588,0.04634
5799.73714,0.04645
5797.80839,0.04695
5795.87965,0.04743
5793.95090,0.04782
5792.02216,0.04786
5790.09341,0.04711
5788.16467,0.04628
5786.23592,0.04682
5784.30718,0.04855
5782.37843,0.04943
5780.44969,0.04852
5778.52094,0.04770
5776.59220,0.04827
5774.66345,0.04919
5772.73470,0.04961
5770.80596,0.04954
5768.87721,0.04883
5766.94847,0.04781
5765.01972,0.04714
5763.09098,0.04708
5761.16223,0.04746
5759.23349,0.04806
5757.30474,0.04863
5755.37600,0.04917
5753.44725,0.04969
5751.51851,0.04976
5749.58976,0.04891
5747.66102,0.04796
5745.73227,0.04806
5743.80352,0.04878
5741.87478,0.04904
5739.94603,0.04874
5738.01729,0.04876
5736.08854,0.04933
5734.15980,0.04927
5732.23105,0.04855
5730.30231,0.04865
5728.37356,0.04938
5726.44482,0.04988
5724.51607,0.04999
5722.58733,0.04910
5720.65858,0.04793
5718.72984,0.04764
5716.80109,0.04778
5714.87235,0.04776
5712.94360,0.04800
5711.01485,0.04947
5709.08611,0.05095
5707.15736,0.05017
5705.22862,0.04873
5703.29987,0.04894
5701.37113,0.04917
5699.44238,0.04811
5697.51364,0.04742
5695.58489,0.04799
5693.65615,0.04887
5691.72740,0.04927
5689.79866,0.04965
5687.86991,0.05059
5685.94117,0.05079
5684.01242,0.04921
5682.08368,0.04719
5680.15493,0.04670
5678.22618,0.04804
5676.29744,0.04956
5674.36869,0.05016
5672.43995,0.04991
5670.51120,0.04911
5668.58246,0.04880
5666.65371,0.04943
5664.72497,0.04955
5662.79622,0.04821
5660.86748,0.04658
5658.93873,0.04633
5657.00999,0.04763
5655.08124,0.04902
5653.15250,0.04932
5651.22375,0.04876
5649.29500,0.04828
5647.36626,0.04853
5645.43751,0.04863
5643.50877,0.04746
5641.58002,0.04613
5639.65128,0.04684
5637.72253,0.04937
5635.79379,0.05119
5633.86504,0.05121
5631.93630,0.05055
5630.00755,0.05038
5628.07881,0.05067
5626.15006,0.05044
5624.22132,0.04972
5622.29257,0.04942
5620.36383,0.04919
5618.43508,0.04867
5616.50633,0.04851
5614.57759,0.04856
5612.64884,0.04897
5610.72010,0.05037
5608.79135,0.05129
5606.86261,0.05049
5604.93386,0.04935
5603.00512,0.04898
5601.07637,0.04910
5599.14763,0.04945
5597.21888,0.04924
5595.29014,0.04826
5593.36139,0.04818
5591.43265,0.04968
5589.50390,0.05127
5587.57516,0.05185
5585.64641,0.05185
5583.71766,0.05167
5581.78892,0.05115
5579.86017,0.05034
5577.93143,0.04962
5576.00268,0.04903
5574.07394,0.04844
5572.14519,0.04808
5570.21645,0.04826
5568.28770,0.04917
5566.35896,0.05030
5564.43021,0.05063
5562.50147,0.05026
5560.57272,0.04972
5558.64398,0.04937
5556.71523,0.04936
5554.78648,0.04912
5552.85774,0.04849
5550.92899,0.04825
5549.00025,0.04869
5547.07150,0.04931
5545.14276,0.04959
5543.21401,0.04931
5541.28527,0.04818
5539.35652,0.04681
5537.42778,0.04658
5535.49903,0.04789
5533.57029,0.04900
5531.64154,0.04883
5529.71280,0.04897
5527.78405,0.04990
5525.85531,0.05002
5523.92656,0.04936
5521.99781,0.04907
5520.06907,0.04898
5518.14032,0.04815
5516.21158,0.04700
5514.28283,0.04696
5512.35409,0.04792
5510.42534,0.04870
5508.49660,0.04885
5506.56785,0.04820
5504.63911,0.04735
5502.71036,0.04704
5500.78162,0.04759
5498.85287,0.04897
5496.92413,0.04976
5494.99538,0.04955
5493.06664,0.04976
5491.13789,0.05050
5489.20914,0.05062
5487.28040,0.05036
5485.35165,0.05084
5483.42291,0.05161
5481.49416,0.05139
5479.56542,0.05048
5477.63667,0.04963
5475.70793,0.04877
5473.77918,0.04817
5471.85044,0.04811
5469.92169,0.04816
5467.99295,0.04848
5466.06420,0.04927
5464.13546,0.04971
5462.20671,0.04972
5460.27796,0.05005
5458.34922,0.05085
5456.42047,0.05117
5454.49173,0.05034
5452.56298,0.04915
5450.63424,0.04828
5448.70549,0.04782
5446.77675,0.04803
5444.84800,0.04880
5442.91926,0.04931
5440.99051,0.04873
5439.06177,0.04740
5437.13302,0.04670
5435.20428,0.04724
5433.27553,0.04811
5431.34679,0.04879
5429.41804,0.04946
5427.48929,0.04946
5425.56055,0.04904
5423.63180,0.04934
5421.70306,0.04988
5419.77431,0.05007
5417.84557,0.05010
5415.91682,0.04988
5413.98808,0.05016
5412.05933,0.05112
5410.13059,0.05123
5408.20184,0.05055
5406.27310,0.04998
5404.34435,0.04969
5402.41561,0.05027
5400.48686,0.05124
5398.55811,0.05130
5396.62937,0.05075
5394.70062,0.05023
5392.77188,0.04936
5390.84313,0.04865
5388.91439,0.04894
5386.98564,0.04944
5385.05690,0.04938
5383.12815,0.04921
5381.19941,0.04963
5379.27066,0.05069
5377.34192,0.05126
5375.41317,0.05053
5373.48443,0.04938
5371.55568,0.04891
5369.62694,0.04891
5367.69819,0.04903
5365.76944,0.04935
5363.84070,0.04979
5361.91195,0.05030
5359.98321,0.05053
5358.05446,0.05037
5356.12572,0.05037
5354.19697,0.05011
5352.26823,0.04932
5350.33948,0.04912
5348.41074,0.04973
5346.48199,0.05006
5344.55325,0.04940
5342.62450,0.04834
5340.69576,0.04792
5338.76701,0.04823
5336.83827,0.04849
5334.90952,0.04836
5332.98077,0.04842
5331.05203,0.04884
5329.12328,0.04902
5327.19454,0.04873
5325.26579,0.04862
5323.33705,0.04913
5321.40830,0.04988
5319.47956,0.05044
5317.55081,0.05076
5315.62207,0.05098
5313.69332,0.05081
5311.76458,0.05012
5309.83583,0.04951
5307.90709,0.04916
5305.97834,0.04868
5304.04959,0.04796
5302.12085,0.04747
5300.19210,0.04780
5298.26336,0.04891
5296.33461,0.05019
5294.40587,0.05111
5292.47712,0.05135
5290.54838,0.05094
5288.61963,0.04995
5286.69089,0.04887
5284.76214,0.04874
5282.83340,0.04918
5280.90465,0.04894
5278.97591,0.04835
5277.04716,0.04796
5275.11842,0.04744
5273.18967,0.04693
5271.26092,0.04658
5269.33218,0.04649
5267.40343,0.04710
5265.47469,0.04770
5263.54594,0.04775
5261.61720,0.04788
5259.68845,0.04802
5257.75971,0.04804
5255.83096,0.04812
5253.90222,0.04803
5251.97347,0.04788
5250.04473,0.04810
5248.11598,0.04865
5246.18724,0.04885
5244.25849,0.04827
5242.32975,0.04755
5240.40100,0.04781
5238.47225,0.04900
5236.54351,0.04976
5234.61476,0.04950
5232.68602,0.04848
5230.75727,0.04689
5228.82853,0.04582
5226.89978,0.04620
5224.97104,0.04759
5223.04229,0.04897
5221.11355,0.04938
5219.18480,0.04890
5217.25606,0.04872
5215.32731,0.04923
5213.39857,0.04953
5211.46982,0.04943
5209.54107,0.04930
5207.61233,0.04888
5205.68358,0.04813
5203.75484,0.04763
5201.82609,0.04753
5199.89735,0.04749
5197.96860,0.04728
5196.03986,0.04741
5194.11111,0.04776
5192.18237,0.04777
5190.25362,0.04800
5188.32488,0.04859
5186.39613,0.04880
5184.46739,0.04860
5182.53864,0.04810
5180.60990,0.04738
5178.68115,0.04707
5176.75240,0.04764
5174.82366,0.04843
5172.89491,0.04876
5170.96617,0.04894
5169.03742,0.04917
5167.10868,0.04934
5165.17993,0.04938
5163.25119,0.04878
5161.32244,0.04786
5159.39370,0.04763
5157.46495,0.04803
5155.53621,0.04842
5153.60746,0.04835
5151.67872,0.04785
5149.74997,0.04763
5147.82123,0.04772
5145.89248,0.04747
5143.96373,0.04714
5142.03499,0.04764
5140.10624,0.04871
5138.17750,0.04931
5136.24875,0.04960
5134.32001,0.04987
5132.39126,0.04950
5130.46252,0.04896
5128.53377,0.04926
5126.60503,0.04969
5124.67628,0.04956
5122.74754,0.04922
5120.81879,0.04866
5118.89005,0.04824
5116.96130,0.04848
5115.03255,0.04883
5113.10381,0.04873
5111.17506,0.04850
5109.24632,0.04867
5107.31757,0.04912
5105.38883,0.04944
5103.46008,0.04949
5101.53134,0.04943
5099.60259,0.04961
5097.67385,0.04973
5095.74510,0.04910
5093.81636,0.04819
5091.88761,0.04796
5089.95887,0.04828
5088.03012,0.04837
5086.10138,0.04801
5084.17263,0.04750
5082.24388,0.04730
5080.31514,0.04750
5078.38639,0.04759
5076.45765,0.04752
5074.52890,0.04748
5072.60016,0.04744
5070.67141,0.04750
5068.74267,0.04770
5066.81392,0.04779
5064.88518,0.04770
5062.95643,0.04789
5061.02769,0.04865
5059.09894,0.04921
5057.17020,0.04884
5055.24145,0.04822
5053.31270,0.04825
5051.38396,0.04867
5049.45521,0.04908
5047.52647,0.04928
5045.59772,0.04944
5043.66898,0.04999
5041.74023,0.05035
5039.81149,0.04977
5037.88274,0.04901
5035.95400,0.04914
5034.02525,0.04983
5032.09651,0.05014
5030.16776,0.05012
5028.23902,0.04992
5026.31027,0.04961
5024.38153,0.04947
5022.45278,0.04918
5020.52403,0.04864
5018.59529,0.04830
5016.66654,0.04842
5014.73780,0.04899
5012.80905,0.04965
5010.88031,0.05004
5008.95156,0.05001
5007.02282,0.04961
5005.09407,0.04918
5003.16533,0.04902
5001.23658,0.04911
4999.30784,0.04954
4997.37909,0.05000
4995.45035,0.04976
4993.52160,0.04926
4991.59286,0.04943
4989.66411,0.04990
4987.73536,0.04982
4985.80662,0.04923
4983.87787,0.04862
4981.94913,0.04810
4980.02038,0.04784
4978.09164,0.04819
4976.16289,0.04868
4974.23415,0.04878
4972.30540,0.04877
4970.37666,0.04879
4968.44791,0.04857
4966.51917,0.04801
4964.59042,0.04771
4962.66168,0.04843
4960.73293,0.04969
4958.80418,0.05027
4956.87544,0.04984
4954.94669,0.04901
4953.01795,0.04867
4951.08920,0.04900
4949.16046,0.04921
4947.23171,0.04894
4945.30297,0.04867
4943.37422,0.04863
4941.44548,0.04851
4939.51673,0.04829
4937.58799,0.04810
4935.65924,0.04784
4933.73050,0.04780
4931.80175,0.04791
4929.87301,0.04777
4927.94426,0.04774
4926.01551,0.04805
4924.08677,0.04849
4922.15802,0.04878
4920.22928,0.04865
4918.30053,0.04821
4916.37179,0.04792
4914.44304,0.04806
4912.51430,0.04831
4910.58555,0.04836
4908.65681,0.04860
4906.72806,0.04890
4904.79932,0.04858
4902.87057,0.04801
4900.94183,0.04792
4899.01308,0.04805
4897.08434,0.04825
4895.15559,0.04874
4893.22684,0.04910
4891.29810,0.04902
4889.36935,0.04872
4887.44061,0.04836
4885.51186,0.04831
4883.58312,0.04892
4881.65437,0.04967
4879.72563,0.04987
4877.79688,0.04947
4875.86814,0.04893
4873.93939,0.04866
4872.01065,0.04844
4870.08190,0.04824
4868.15316,0.04844
4866.22441,0.04866
4864.29566,0.04827
4862.36692,0.04749
4860.43817,0.04704
4858.50943,0.04723
4856.58068,0.04773
4854.65194,0.04836
4852.72319,0.04879
4850.79445,0.04872
4848.86570,0.04851
4846.93696,0.04838
4845.00821,0.04810
4843.07947,0.04769
4841.15072,0.04732
4839.22198,0.04708
4837.29323,0.04718
4835.36449,0.04738
4833.43574,0.04719
4831.50699,0.04672
4829.57825,0.04634
4827.64950,0.04642
4825.72076,0.04695
4823.79201,0.04740
4821.86327,0.04783
4819.93452,0.04820
4818.00578,0.04808
4816.07703,0.04770
4814.14829,0.04754
4812.21954,0.04737
4810.29080,0.04703
4808.36205,0.04736
4806.43331,0.04822
4804.50456,0.04815
4802.57582,0.04721
4800.64707,0.04691
4798.71832,0.04755
4796.78958,0.04814
4794.86083,0.04818
4792.93209,0.04792
4791.00334,0.04738
4789.07460,0.04682
4787.14585,0.04682
4785.21711,0.04712
4783.28836,0.04733
4781.35962,0.04758
4779.43087,0.04742
4777.50213,0.04667
4775.57338,0.04619
4773.64464,0.04635
4771.71589,0.04663
4769.78714,0.04684
4767.85840,0.04721
4765.92965,0.04768
4764.00091,0.04790
4762.07216,0.04782
4760.14342,0.04757
4758.21467,0.04732
4756.28593,0.04730
4754.35718,0.04734
4752.42844,0.04733
4750.49969,0.04733
4748.57095,0.04706
4746.64220,0.04650
4744.71346,0.04630
4742.78471,0.04686
4740.85597,0.04755
4738.92722,0.04760
4736.99847,0.04718
4735.06973,0.04687
4733.14098,0.04669
4731.21224,0.04665
4729.28349,0.04701
4727.35475,0.04732
4725.42600,0.04707
4723.49726,0.04677
4721.56851,0.04687
4719.63977,0.04710
4717.71102,0.04727
4715.78228,0.04733
4713.85353,0.04737
4711.92479,0.04764
4709.99604,0.04787
4708.06729,0.04754
4706.13855,0.04690
4704.20980,0.04656
4702.28106,0.04627
4700.35231,0.04589
4698.42357,0.04592
4696.49482,0.04641
4694.56608,0.04677
4692.63733,0.04674
4690.70859,0.04680
4688.77984,0.04725
4686.85110,0.04777
4684.92235,0.04812
4682.99361,0.04820
4681.06486,0.04791
4679.13612,0.04759
4677.20737,0.04761
4675.27862,0.04780
4673.34988,0.04800
4671.42113,0.04810
4669.49239,0.04794
4667.56364,0.04769
4665.63490,0.04747
4663.70615,0.04700
4661.77741,0.04646
4659.84866,0.04657
4657.91992,0.04729
4655.99117,0.04789
4654.06243,0.04799
4652.13368,0.04769
4650.20494,0.04762
4648.27619,0.04809
4646.34745,0.04842
4644.41870,0.04797
4642.48995,0.04739
4640.56121,0.04744
4638.63246,0.04770
4636.70372,0.04770
4634.77497,0.04765
4632.84623,0.04779
4630.91748,0.04793
4628.98874,0.04775
4627.05999,0.04741
4625.13125,0.04736
4623.20250,0.04760
4621.27376,0.04775
4619.34501,0.04770
4617.41627,0.04778
4615.48752,0.04793
4613.55877,0.04782
4611.63003,0.04765
4609.70128,0.04755
4607.77254,0.04737
4605.84379,0.04736
4603.91505,0.04776
4601.98630,0.04823
4600.05756,0.04846
4598.12881,0.04865
4596.20007,0.04873
4594.27132,0.04846
4592.34258,0.04826
4590.41383,0.04850
4588.48509,0.04857
4586.55634,0.04794
4584.62760,0.04726
4582.69885,0.04717
4580.77010,0.04748
4578.84136,0.04787
4576.91261,0.04827
4574.98387,0.04877
4573.05512,0.04894
4571.12638,0.04838
4569.19763,0.04766
4567.26889,0.04753
4565.34014,0.04783
4563.41140,0.04812
4561.48265,0.04837
4559.55391,0.04854
4557.62516,0.04832
4555.69642,0.04772
4553.76767,0.04730
4551.83893,0.04747
4549.91018,0.04778
4547.98143,0.04802
4546.05269,0.04834
4544.12394,0.04847
4542.19520,0.04816
4540.26645,0.04778
4538.33771,0.04772
4536.40896,0.04794
4534.48022,0.04814
4532.55147,0.04795
4530.62273,0.04750
4528.69398,0.04739
4526.76524,0.04755
4524.83649,0.04765
4522.90775,0.04780
4520.97900,0.04786
4519.05025,0.04782
4517.12151,0.04796
4515.19276,0.04814
4513.26402,0.04806
4511.33527,0.04799
4509.40653,0.04808
4507.47778,0.04824
4505.54904,0.04842
4503.62029,0.04847
4501.69155,0.04830
4499.76280,0.04804
4497.83406,0.04786
4495.90531,0.04802
4493.97657,0.04857
4492.04782,0.04885
4490.11908,0.04842
4488.19033,0.04778
4486.26158,0.04750
4484.33284,0.04747
4482.40409,0.04739
4480.47535,0.04731
4478.54660,0.04710
4476.61786,0.04665
4474.68911,0.04654
4472.76037,0.04693
4470.83162,0.04710
4468.90288,0.04684
4466.97413,0.04671
4465.04539,0.04688
4463.11664,0.04715
4461.18790,0.04729
4459.25915,0.04716
4457.33041,0.04690
4455.40166,0.04660
4453.47291,0.04623
4451.54417,0.04607
4449.61542,0.04618
4447.68668,0.04618
4445.75793,0.04610
4443.82919,0.04610
4441.90044,0.04600
4439.97170,0.04596
4438.04295,0.04616
4436.11421,0.04620
4434.18546,0.04584
4432.25672,0.04539
4430.32797,0.04547
4428.39923,0.04607
4426.47048,0.04644
4424.54173,0.04638
4422.61299,0.04639
4420.68424,0.04667
4418.75550,0.04671
4416.82675,0.04616
4414.89801,0.04557
4412.96926,0.04554
4411.04052,0.04576
4409.11177,0.04578
4407.18303,0.04574
4405.25428,0.04588
4403.32554,0.04602
4401.39679,0.04594
4399.46805,0.04570
4397.53930,0.04564
4395.61056,0.04593
4393.68181,0.04619
4391.75306,0.04616
4389.82432,0.04607
4387.89557,0.04597
4385.96683,0.04592
4384.03808,0.04605
4382.10934,0.04614
4380.18059,0.04598
4378.25185,0.04593
4376.32310,0.04589
4374.39436,0.04548
4372.46561,0.04516
4370.53687,0.04539
4368.60812,0.04569
4366.67938,0.04563
4364.75063,0.04550
4362.82189,0.04557
4360.89314,0.04556
4358.96439,0.04535
4357.03565,0.04525
4355.10690,0.04520
4353.17816,0.04508
4351.24941,0.04525
4349.32067,0.04559
4347.39192,0.04563
4345.46318,0.04549
4343.53443,0.04543
4341.60569,0.04546
4339.67694,0.04569
4337.74820,0.04608
4335.81945,0.04612
4333.89071,0.04566
4331.96196,0.04527
4330.03321,0.04524
4328.10447,0.04531
4326.17572,0.04540
4324.24698,0.04561
4322.31823,0.04563
4320.38949,0.04535
4318.46074,0.04519
4316.53200,0.04527
4314.60325,0.04532
4312.67451,0.04530
4310.74576,0.04537
4308.81702,0.04549
4306.88827,0.04520
4304.95953,0.04453
4303.03078,0.04426
4301.10204,0.04479
4299.17329,0.04567
4297.24454,0.04621
4295.31580,0.04630
4293.38705,0.04614
4291.45831,0.04588
4289.52956,0.04580
4287.60082,0.04603
4285.67207,0.04622
4283.74333,0.04605
4281.81458,0.04575
4279.88584,0.04562
4277.95709,0.04564
4276.02835,0.04567
4274.09960,0.04555
4272.17086,0.04542
4270.24211,0.04557
4268.31336,0.04580
4266.38462,0.04571
4264.45587,0.04548
4262.52713,0.04564
4260.59838,0.04615
4258.66964,0.04620
4256.74089,0.04564
4254.81215,0.04516
4252.88340,0.04508
4250.95466,0.04514
4249.02591,0.04514
4247.09717,0.04508
4245.16842,0.04499
4243.23968,0.04508
4241.31093,0.04529
4239.38219,0.04543
4237.45344,0.04564
4235.52469,0.04603
4233.59595,0.04633
4231.66720,0.04617
4229.73846,0.04569
4227.80971,0.04558
4225.88097,0.04588
4223.95222,0.04594
4222.02348,0.04571
4220.09473,0.04556
4218.16599,0.04540
4216.23724,0.04533
4214.30850,0.04564
4212.37975,0.04597
4210.45101,0.04604
4208.52226,0.04606
4206.59352,0.04615
4204.66477,0.04616
4202.73602,0.04594
4200.80728,0.04577
4198.87853,0.04595
4196.94979,0.04629
4195.02104,0.04645
4193.09230,0.04639
4191.16355,0.04630
4189.23481,0.04639
4187.30606,0.04664
4185.37732,0.04681
4183.44857,0.04664
4181.51983,0.04623
4179.59108,0.04585
4177.66234,0.04545
4175.73359,0.04509
4173.80484,0.04509
4171.87610,0.04520
4169.94735,0.04526
4168.01861,0.04558
4166.08986,0.04612
4164.16112,0.04640
4162.23237,0.04616
4160.30363,0.04567
4158.37488,0.04545
4156.44614,0.04548
4154.51739,0.04550
4152.58865,0.04560
4150.65990,0.04586
4148.73116,0.04600
4146.80241,0.04591
4144.87367,0.04583
4142.94492,0.04577
4141.01617,0.04568
4139.08743,0.04559
4137.15868,0.04551
4135.22994,0.04545
4133.30119,0.04543
4131.37245,0.04555
4129.44370,0.04575
4127.51496,0.04580
4125.58621,0.04569
4123.65747,0.04558
4121.72872,0.04559
4119.79998,0.04566
4117.87123,0.04565
4115.94249,0.04573
4114.01374,0.04591
4112.08500,0.04575
4110.15625,0.04529
4108.22750,0.04490
4106.29876,0.04479
4104.37001,0.04492
4102.44127,0.04499
4100.51252,0.04504
4098.58378,0.04529
4096.65503,0.04534
4094.72629,0.04512
4092.79754,0.04523
4090.86880,0.04550
4088.94005,0.04536
4087.01131,0.04504
4085.08256,0.04483
4083.15382,0.04477
4081.22507,0.04495
4079.29632,0.04515
4077.36758,0.04511
4075.43883,0.04495
4073.51009,0.04484
4071.58134,0.04485
4069.65260,0.04499
4067.72385,0.04510
4065.79511,0.04490
4063.86636,0.04467
4061.93762,0.04477
4060.00887,0.04492
4058.08013,0.04495
4056.15138,0.04492
4054.22264,0.04483
4052.29389,0.04469
4050.36515,0.04463
4048.43640,0.04476
4046.50765,0.04482
4044.57891,0.04461
4042.65016,0.04448
4040.72142,0.04457
4038.79267,0.04467
4036.86393,0.04457
4034.93518,0.04423
4033.00644,0.04386
4031.07769,0.04384
4029.14895,0.04406
4027.22020,0.04406
4025.29146,0.04396
4023.36271,0.04411
4021.43397,0.04446
4019.50522,0.04489
4017.57648,0.04524
4015.64773,0.04553
4013.71898,0.04573
4011.79024,0.04545
4009.86149,0.04479
4007.93275,0.04438
4006.00400,0.04437
4004.07526,0.04459
4002.14651,0.04499
4000.21777,0.04538
3998.28902,0.04537
3996.36028,0.04494
3994.43153,0.04453
3992.50279,0.04453
3990.57404,0.04492
3988.64530,0.04539
3986.71655,0.04573
3984.78780,0.04587
3982.85906,0.04573
3980.93031,0.04533
3979.00157,0.04505
3977.07282,0.04496
3975.14408,0.04475
3973.21533,0.04465
3971.28659,0.04487
3969.35784,0.04509
3967.42910,0.04525
3965.50035,0.04541
3963.57161,0.04544
3961.64286,0.04555
3959.71412,0.04577
3957.78537,0.04566
3955.85663,0.04536
3953.92788,0.04525
3951.99913,0.04519
3950.07039,0.04518
3948.14164,0.04531
3946.21290,0.04531
3944.28415,0.04513
3942.35541,0.04505
3940.42666,0.04514
3938.49792,0.04529
3936.56917,0.04532
3934.64043,0.04526
3932.71168,0.04528
3930.78294,0.04520
3928.85419,0.04509
3926.92545,0.04530
3924.99670,0.04577
3923.06795,0.04628
3921.13921,0.04659
3919.21046,0.04645
3917.28172,0.04598
3915.35297,0.04562
3913.42423,0.04547
3911.49548,0.04540
3909.56674,0.04534
3907.63799,0.04543
3905.70925,0.04588
3903.78050,0.04634
3901.85176,0.04640
3899.92301,0.04607
3897.99427,0.04561
3896.06552,0.04528
3894.13678,0.04526
3892.20803,0.04561
3890.27928,0.04622
3888.35054,0.04664
3886.42179,0.04665
3884.49305,0.04636
3882.56430,0.04600
3880.63556,0.04566
3878.70681,0.04540
3876.77807,0.04515
3874.84932,0.04497
3872.92058,0.04525
3870.99183,0.04599
3869.06309,0.04659
3867.13434,0.04660
3865.20560,0.04631
3863.27685,0.04608
3861.34811,0.04586
3859.41936,0.04563
3857.49061,0.04571
3855.56187,0.04635
3853.63312,0.04703
3851.70438,0.04688
3849.77563,0.04632
3847.84689,0.04599
3845.91814,0.04603
3843.98940,0.04626
3842.06065,0.04648
3840.13191,0.04665
3838.20316,0.04656
3836.27442,0.04613
3834.34567,0.04579
3832.41693,0.04585
3830.48818,0.04591
3828.55943,0.04577
3826.63069,0.04560
3824.70194,0.04556
3822.77320,0.04575
3820.84445,0.04622
3818.91571,0.04674
3816.98696,0.04708
3815.05822,0.04700
3813.12947,0.04655
3811.20073,0.04624
3809.27198,0.04619
3807.34324,0.04604
3805.41449,0.04586
3803.48575,0.04596
3801.55700,0.04616
3799.62826,0.04637
3797.69951,0.04661
3795.77076,0.04673
3793.84202,0.04671
3791.91327,0.04663
3789.98453,0.04643
3788.05578,0.04605
3786.12704,0.04559
3784.19829,0.04544
3782.26955,0.04567
3780.34080,0.04594
3778.41206,0.04609
3776.48331,0.04610
3774.55457,0.04597
3772.62582,0.04610
3770.69708,0.04659
3768.76833,0.04693
3766.83959,0.04675
3764.91084,0.04622
3762.98209,0.04577
3761.05335,0.04561
3759.12460,0.04573
3757.19586,0.04615
3755.26711,0.04640
3753.33837,0.04624
3751.40962,0.04593
3749.48088,0.04579
3747.55213,0.04594
3745.62339,0.04615
3743.69464,0.04613
3741.76590,0.04621
3739.83715,0.04650
3737.90841,0.04666
3735.97966,0.04645
3734.05091,0.04617
3732.12217,0.04612
3730.19342,0.04610
3728.26468,0.04603
3726.33593,0.04588
3724.40719,0.04557
3722.47844,0.04547
3720.54970,0.04578
3718.62095,0.04603
3716.69221,0.04595
3714.76346,0.04585
3712.83472,0.04575
3710.90597,0.04544
3708.97723,0.04508
3707.04848,0.04478
3705.11974,0.04452
3703.19099,0.04439
3701.26224,0.04443
3699.33350,0.04451
3697.40475,0.04455
3695.47601,0.04470
3693.54726,0.04510
3691.61852,0.04538
3689.68977,0.04505
3687.76103,0.04439
3685.83228,0.04402
3683.90354,0.04376
3681.97479,0.04362
3680.04605,0.04384
3678.11730,0.04400
3676.18856,0.04365
3674.25981,0.04329
3672.33107,0.04329
3670.40232,0.04316
3668.47357,0.04268
3666.54483,0.04242
3664.61608,0.04239
3662.68734,0.04231
3660.75859,0.04242
3658.82985,0.04284
3656.90110,0.04287
3654.97236,0.04244
3653.04361,0.04246
3651.11487,0.04283
3649.18612,0.04286
3647.25738,0.04249
3645.32863,0.04205
3643.39989,0.04171
3641.47114,0.04159
3639.54239,0.04160
3637.61365,0.04170
3635.68490,0.04183
3633.75616,0.04175
3631.82741,0.04156
3629.89867,0.04168
3627.96992,0.04204
3626.04118,0.04214
3624.11243,0.04200
3622.18369,0.04193
3620.25494,0.04193
3618.32620,0.04198
3616.39745,0.04229
3614.46871,0.04260
3612.53996,0.04249
3610.61122,0.04210
3608.68247,0.04194
3606.75372,0.04210
3604.82498,0.04208
3602.89623,0.04179
3600.96749,0.04154
3599.03874,0.04128
3597.11000,0.04091
3595.18125,0.04072
3593.25251,0.04080
3591.32376,0.04080
3589.39502,0.04049
3587.46627,0.04021
3585.53753,0.04048
3583.60878,0.04094
3581.68004,0.04105
3579.75129,0.04090
3577.82254,0.04076
3575.89380,0.04066
3573.96505,0.04050
3572.03631,0.04041
3570.10756,0.04049
3568.17882,0.04042
3566.25007,0.04018
3564.32133,0.04008
3562.39258,0.04005
3560.46384,0.04009
3558.53509,0.04023
3556.60635,0.04016
3554.67760,0.03978
3552.74886,0.03940
3550.82011,0.03927
3548.89137,0.03936
3546.96262,0.03938
3545.03387,0.03937
3543.10513,0.03955
3541.17638,0.03967
3539.24764,0.03951
3537.31889,0.03916
3535.39015,0.03876
3533.46140,0.03857
3531.53266,0.03867
3529.60391,0.03877
3527.67517,0.03888
3525.74642,0.03908
3523.81768,0.03919
3521.88893,0.03912
3519.96019,0.03906
3518.03144,0.03911
3516.10270,0.03924
3514.17395,0.03925
3512.24520,0.03900
3510.31646,0.03878
3508.38771,0.03880
3506.45897,0.03889
3504.53022,0.03890
3502.60148,0.03889
3500.67273,0.03883
3498.74399,0.03869
3496.81524,0.03865
3494.88650,0.03883
3492.95775,0.03907
3491.02901,0.03906
3489.10026,0.03880
3487.17152,0.03882
3485.24277,0.03907
3483.31402,0.03903
3481.38528,0.03888
3479.45653,0.03885
3477.52779,0.03890
3475.59904,0.03923
3473.67030,0.03957
3471.74155,0.03946
3469.81281,0.03918
3467.88406,0.03917
3465.95532,0.03941
3464.02657,0.03965
3462.09783,0.03974
3460.16908,0.03990
3458.24034,0.04022
3456.31159,0.04033
3454.38285,0.04015
3452.45410,0.03997
3450.52535,0.03989
3448.59661,0.03999
3446.66786,0.04027
3444.73912,0.04044
3442.81037,0.04039
3440.88163,0.04029
3438.95288,0.04025
3437.02414,0.04022
3435.09539,0.04001
3433.16665,0.03969
3431.23790,0.03964
3429.30916,0.03981
3427.38041,0.03984
3425.45167,0.03976
3423.52292,0.03982
3421.59418,0.04001
3419.66543,0.04015
3417.73668,0.04008
3415.80794,0.03990
3413.87919,0.03971
3411.95045,0.03959
3410.02170,0.03952
3408.09296,0.03939
3406.16421,0.03917
3404.23547,0.03898
3402.30672,0.03898
3400.37798,0.03921
3398.44923,0.03946
3396.52049,0.03961
3394.59174,0.03975
3392.66300,0.03991
3390.73425,0.04006
3388.80550,0.04012
3386.87676,0.04019
3384.94801,0.04017
3383.01927,0.03999
3381.09052,0.04001
3379.16178,0.04021
3377.23303,0.04027
3375.30429,0.04033
3373.37554,0.04032
3371.44680,0.03997
3369.51805,0.03942
3367.58931,0.03911
3365.66056,0.03926
3363.73182,0.03967
3361.80307,0.03983
3359.87433,0.03966
3357.94558,0.03952
3356.01683,0.03948
3354.08809,0.03939
3352.15934,0.03937
3350.23060,0.03950
3348.30185,0.03965
3346.37311,0.03962
3344.44436,0.03938
3342.51562,0.03903
3340.58687,0.03869
3338.65813,0.03847
3336.72938,0.03855
3334.80064,0.03892
3332.87189,0.03926
3330.94315,0.03946
3329.01440,0.03957
3327.08566,0.03955
3325.15691,0.03947
3323.22816,0.03927
3321.29942,0.03904
3319.37067,0.03889
3317.44193,0.03876
3315.51318,0.03883
3313.58444,0.03914
3311.65569,0.03929
3309.72695,0.03908
3307.79820,0.03886
3305.86946,0.03889
3303.94071,0.03898
3302.01197,0.03895
3300.08322,0.03886
3298.15448,0.03873
3296.22573,0.03869
3294.29698,0.03895
3292.36824,0.03949
3290.43949,0.04000
3288.51075,0.03996
3286.58200,0.03936
3284.65326,0.03872
3282.72451,0.03845
3280.79577,0.03863
3278.86702,0.03887
3276.93828,0.03886
3275.00953,0.03887
3273.08079,0.03916
3271.15204,0.03966
3269.22330,0.04006
3267.29455,0.04014
3265.36581,0.04010
3263.43706,0.04006
3261.50831,0.03989
3259.57957,0.03969
3257.65082,0.03967
3255.72208,0.03981
3253.79333,0.03978
3251.86459,0.03941
3249.93584,0.03904
3248.00710,0.03902
3246.07835,0.03920
3244.14961,0.03913
3242.22086,0.03893
3240.29212,0.03898
3238.36337,0.03917
3236.43463,0.03945
3234.50588,0.03996
3232.57713,0.04042
3230.64839,0.04050
3228.71964,0.04017
3226.79090,0.03985
3224.86215,0.03981
3222.93341,0.03972
3221.00466,0.03938
3219.07592,0.03909
3217.14717,0.03905
3215.21843,0.03921
3213.28968,0.03934
3211.36094,0.03927
3209.43219,0.03928
3207.50345,0.03953
3205.57470,0.03957
3203.64596,0.03934
3201.71721,0.03945
3199.78846,0.03992
3197.85972,0.04009
3195.93097,0.03975
3194.00223,0.03937
3192.07348,0.03928
3190.14474,0.03940
3188.21599,0.03953
3186.28725,0.03974
3184.35850,0.03995
3182.42976,0.03999
3180.50101,0.04007
3178.57227,0.04019
3176.64352,0.04017
3174.71478,0.04004
3172.78603,0.03978
3170.85729,0.03955
3168.92854,0.03964
3166.99979,0.03986
3165.07105,0.03992
3163.14230,0.03982
3161.21356,0.03968
3159.28481,0.03963
3157.35607,0.03967
3155.42732,0.03977
3153.49858,0.03994
3151.56983,0.03999
3149.64109,0.03983
3147.71234,0.03973
3145.78360,0.03994
3143.85485,0.04015
3141.92611,0.04013
3139.99736,0.04017
3138.06861,0.04023
3136.13987,0.03995
3134.21112,0.03963
3132.28238,0.03967
3130.35363,0.03982
3128.42489,0.03980
3126.49614,0.03972
3124.56740,0.03968
3122.63865,0.03978
3120.70991,0.03996
3118.78116,0.03997
3116.85242,0.03972
3114.92367,0.03950
3112.99493,0.03953
3111.06618,0.03955
3109.13744,0.03953
3107.20869,0.03969
3105.27994,0.03985
3103.35120,0.03977
3101.42245,0.03976
3099.49371,0.03976
3097.56496,0.03952
3095.63622,0.03928
3093.70747,0.03935
3091.77873,0.03957
3089.84998,0.03970
3087.92124,0.03970
3085.99249,0.03958
3084.06375,0.03934
3082.13500,0.03911
3080.20626,0.03905
3078.27751,0.03907
3076.34877,0.03911
3074.42002,0.03927
3072.49127,0.03964
3070.56253,0.04005
3068.63378,0.04013
3066.70504,0.03995
3064.77629,0.03983
3062.84755,0.03954
3060.91880,0.03900
3058.99006,0.03871
3057.06131,0.03886
3055.13257,0.03914
3053.20382,0.03937
3051.27508,0.03947
3049.34633,0.03947
3047.41759,0.03959
3045.48884,0.03979
3043.56009,0.03975
3041.63135,0.03940
3039.70260,0.03903
3037.77386,0.03894
3035.84511,0.03912
3033.91637,0.03930
3031.98762,0.03933
3030.05888,0.03910
3028.13013,0.03873
3026.20139,0.03851
3024.27264,0.03846
3022.34390,0.03844
3020.41515,0.03838
3018.48641,0.03821
3016.55766,0.03794
3014.62892,0.03764
3012.70017,0.03741
3010.77142,0.03731
3008.84268,0.03734
3006.91393,0.03739
3004.98519,0.03747
3003.05644,0.03754
3001.12770,0.03747
2999.19895,0.03728
2997.27021,0.03733
2995.34146,0.03772
2993.41272,0.03829
2991.48397,0.03871
2989.55523,0.03876
2987.62648,0.03851
2985.69774,0.03826
2983.76899,0.03819
2981.84025,0.03827
2979.91150,0.03840
2977.98275,0.03852
2976.05401,0.03860
2974.12526,0.03860
2972.19652,0.03843
2970.26777,0.03825
2968.33903,0.03821
2966.41028,0.03832
2964.48154,0.03844
2962.55279,0.03838
2960.62405,0.03817
2958.69530,0.03803
2956.76656,0.03808
2954.83781,0.03826
2952.90907,0.03827
2950.98032,0.03805
2949.05157,0.03794
2947.12283,0.03812
2945.19408,0.03838
2943.26534,0.03865
2941.33659,0.03904
2939.40785,0.03938
2937.47910,0.03953
2935.55036,0.03964
2933.62161,0.03989
2931.69287,0.04023
2929.76412,0.04049
2927.83538,0.04067
2925.90663,0.04092
2923.97789,0.04125
2922.04914,0.04163
2920.12040,0.04187
2918.19165,0.04182
2916.26290,0.04166
2914.33416,0.04159
2912.40541,0.04149
2910.47667,0.04125
2908.54792,0.04110
2906.61918,0.04115
2904.69043,0.04116
2902.76169,0.04111
2900.83294,0.04110
2898.90420,0.04103
2896.97545,0.04077
2895.04671,0.04046
2893.11796,0.04028
2891.18922,0.04025
2889.26047,0.04022
2887.33172,0.04008
2885.40298,0.03983
2883.47423,0.03961
2881.54549,0.03960
2879.61674,0.03962
2877.68800,0.03953
2875.75925,0.03948
2873.83051,0.03964
2871.90176,0.03984
2869.97302,0.03982
2868.04427,0.03970
2866.11553,0.03979
2864.18678,0.04009
2862.25804,0.04025
2860.32929,0.04022
2858.40055,0.04038
2856.47180,0.04063
2854.54305,0.04070
2852.61431,0.04091
2850.68556,0.04138
2848.75682,0.04158
2846.82807,0.04142
2844.89933,0.04131
2842.97058,0.04135
2841.04184,0.04128
2839.11309,0.04103
2837.18435,0.04083
2835.25560,0.04075
2833.32686,0.04066
2831.39811,0.04061
2829.46937,0.04067
2827.54062,0.04084
2825.61188,0.04101
2823.68313,0.04099
2821.75438,0.04080
2819.82564,0.04073
2817.89689,0.04093
2815.96815,0.04118
2814.03940,0.04129
2812.11066,0.04124
2810.18191,0.04110
2808.25317,0.04109
2806.32442,0.04122
2804.39568,0.04126
2802.46693,0.04121
2800.53819,0.04122
2798.60944,0.04127
2796.68070,0.04130
2794.75195,0.04138
2792.82320,0.04153
2790.89446,0.04165
2788.96571,0.04168
2787.03697,0.04162
2785.10822,0.04146
2783.17948,0.04136
2781.25073,0.04134
2779.32199,0.04119
2777.39324,0.04103
2775.46450,0.04121
2773.53575,0.04151
2771.60701,0.04153
2769.67826,0.04131
2767.74952,0.04111
2765.82077,0.04102
2763.89203,0.04107
2761.96328,0.04117
2760.03453,0.04125
2758.10579,0.04132
2756.17704,0.04123
2754.24830,0.04091
2752.31955,0.04078
2750.39081,0.04112
2748.46206,0.04148
2746.53332,0.04145
2744.60457,0.04115
2742.67583,0.04083
2740.74708,0.04061
2738.81834,0.04066
2736.88959,0.04097
2734.96085,0.04121
2733.03210,0.04115
2731.10336,0.04107
2729.17461,0.04112
2727.24586,0.04114
2725.31712,0.04109
2723.38837,0.04105
2721.45963,0.04100
2719.53088,0.04092
2717.60214,0.04099
2715.67339,0.04121
2713.74465,0.04139
2711.81590,0.04136
2709.88716,0.04115
2707.95841,0.04097
2706.02967,0.04086
2704.10092,0.04087
2702.17218,0.04101
2700.24343,0.04108
2698.31468,0.04097
2696.38594,0.04091
2694.45719,0.04093
2692.52845,0.04102
2690.59970,0.04117
2688.67096,0.04120
2686.74221,0.04113
2684.81347,0.04109
2682.88472,0.04101
2680.95598,0.04088
2679.02723,0.04074
2677.09849,0.04081
2675.16974,0.04111
2673.24100,0.04136
2671.31225,0.04141
2669.38351,0.04125
2667.45476,0.04096
2665.52601,0.04079
2663.59727,0.04089
2661.66852,0.04103
2659.73978,0.04097
2657.81103,0.04090
2655.88229,0.04098
2653.95354,0.04112
2652.02480,0.04114
2650.09605,0.04105
2648.16731,0.04098
2646.23856,0.04090
2644.30982,0.04077
2642.38107,0.04070
2640.45233,0.04065
2638.52358,0.04050
2636.59484,0.04043
2634.66609,0.04064
2632.73734,0.04085
2630.80860,0.04088
2628.87985,0.04090
2626.95111,0.04097
2625.02236,0.04108
2623.09362,0.04131
2621.16487,0.04155
2619.23613,0.04150
2617.30738,0.04118
2615.37864,0.04094
2613.44989,0.04095
2611.52115,0.04092
2609.59240,0.04075
2607.66366,0.04069
2605.73491,0.04084
2603.80616,0.04092
2601.87742,0.04082
2599.94867,0.04083
2598.01993,0.04101
2596.09118,0.04113
2594.16244,0.04111
2592.23369,0.04103
2590.30495,0.04098
2588.37620,0.04090
2586.44746,0.04078
2584.51871,0.04080
2582.58997,0.04090
2580.66122,0.04098
2578.73248,0.04096
2576.80373,0.04078
2574.87499,0.04058
2572.94624,0.04051
2571.01749,0.04061
2569.08875,0.04083
2567.16000,0.04098
2565.23126,0.04097
2563.30251,0.04089
2561.37377,0.04086
2559.44502,0.04089
2557.51628,0.04091
2555.58753,0.04088
2553.65879,0.04076
2551.73004,0.04074
2549.80130,0.04087
2547.87255,0.04097
2545.94381,0.04093
2544.01506,0.04095
2542.08631,0.04105
2540.15757,0.04106
2538.22882,0.04101
2536.30008,0.04106
2534.37133,0.04108
2532.44259,0.04094
2530.51384,0.04065
2528.58510,0.04035
2526.65635,0.04021
2524.72761,0.04028
2522.79886,0.04038
2520.87012,0.04050
2518.94137,0.04069
2517.01263,0.04079
2515.08388,0.04077
2513.15514,0.04069
2511.22639,0.04065
2509.29764,0.04077
2507.36890,0.04092
2505.44015,0.04091
2503.51141,0.04073
2501.58266,0.04056
2499.65392,0.04056
2497.72517,0.04070
2495.79643,0.04080
2493.86768,0.04088
2491.93894,0.04102
2490.01019,0.04108
2488.08145,0.04096
2486.15270,0.04081
2484.22396,0.04083
2482.29521,0.04099
2480.36647,0.04111
2478.43772,0.04116
2476.50897,0.04120
2474.58023,0.04124
2472.65148,0.04136
2470.72274,0.04164
2468.79399,0.04175
2466.86525,0.04157
2464.93650,0.04141
2463.00776,0.04136
2461.07901,0.04118
2459.15027,0.04092
2457.22152,0.04081
2455.29278,0.04091
2453.36403,0.04117
2451.43529,0.04141
2449.50654,0.04144
2447.57779,0.04130
2445.64905,0.04118
2443.72030,0.04136
2441.79156,0.04163
2439.86281,0.04160
2437.93407,0.04136
2436.00532,0.04119
2434.07658,0.04109
2432.14783,0.04099
2430.21909,0.04092
2428.29034,0.04103
2426.36160,0.04131
2424.43285,0.04149
2422.50411,0.04142
2420.57536,0.04135
2418.64662,0.04137
2416.71787,0.04117
2414.78912,0.04087
2412.86038,0.04092
2410.93163,0.04120
2409.00289,0.04125
2407.07414,0.04120
2405.14540,0.04136
2403.21665,0.04151
2401.28791,0.04137
2399.35916,0.04112
2397.43042,0.04102
2395.50167,0.04108
2393.57293,0.04117
2391.64418,0.04118
2389.71544,0.04105
2387.78669,0.04085
2385.85795,0.04072
2383.92920,0.04072
2382.00045,0.04085
2380.07171,0.04106
2378.14296,0.04112
2376.21422,0.04106
2374.28547,0.04108
2372.35673,0.04106
2370.42798,0.04103
2368.49924,0.04125
2366.57049,0.04163
2364.64175,0.04180
2362.71300,0.04167
2360.78426,0.04151
2358.85551,0.04150
2356.92677,0.04146
2354.99802,0.04130
2353.06927,0.04120
2351.14053,0.04120
2349.21178,0.04124
2347.28304,0.04127
2345.35429,0.04125
2343.42555,0.04116
2341.49680,0.04117
2339.56806,0.04128
2337.63931,0.04131
2335.71057,0.04125
2333.78182,0.04126
2331.85308,0.04142
2329.92433,0.04156
2327.99559,0.04155
2326.06684,0.04145
2324.13810,0.04134
2322.20935,0.04119
2320.28060,0.04104
2318.35186,0.04102
2316.42311,0.04107
2314.49437,0.04115
2312.56562,0.04126
2310.63688,0.04134
2308.70813,0.04126
2306.77939,0.04106
2304.85064,0.04095
2302.92190,0.04104
2300.99315,0.04113
2299.06441,0.04106
2297.13566,0.04095
2295.20692,0.04093
2293.27817,0.04095
2291.34943,0.04101
2289.42068,0.04111
2287.49193,0.04113
2285.56319,0.04111
2283.63444,0.04116
2281.70570,0.04126
2279.77695,0.04140
2277.84821,0.04151
2275.91946,0.04151
2273.99072,0.04137
2272.06197,0.04120
2270.13323,0.04115
2268.20448,0.04120
2266.27574,0.04120
2264.34699,0.04114
2262.41825,0.04109
2260.48950,0.04100
2258.56075,0.04084
2256.63201,0.04083
2254.70326,0.04093
2252.77452,0.04095
2250.84577,0.04092
2248.91703,0.04094
2246.98828,0.04094
2245.05954,0.04087
2243.13079,0.04088
2241.20205,0.04107
2239.27330,0.04120
2237.34456,0.04108
2235.41581,0.04091
2233.48707,0.04085
2231.55832,0.04076
2229.62958,0.04058
2227.70083,0.04055
2225.77208,0.04074
2223.84334,0.04096
2221.91459,0.04108
2219.98585,0.04107
2218.05710,0.04102
2216.12836,0.04103
2214.19961,0.04102
2212.27087,0.04091
2210.34212,0.04080
2208.41338,0.04078
2206.48463,0.04081
2204.55589,0.04082
2202.62714,0.04083
2200.69840,0.04084
2198.76965,0.04081
2196.84090,0.04077
2194.91216,0.04085
2192.98341,0.04105
2191.05467,0.04129
2189.12592,0.04135
2187.19718,0.04118
2185.26843,0.04101
2183.33969,0.04097
2181.41094,0.04092
2179.48220,0.04071
2177.55345,0.04046
2175.62471,0.04034
2173.69596,0.04027
2171.76722,0.04019
2169.83847,0.04010
2167.90973,0.04006
2165.98098,0.04025
2164.05223,0.04047
2162.12349,0.04046
2160.19474,0.04041
2158.26600,0.04043
2156.33725,0.04031
2154.40851,0.04008
2152.47976,0.03990
2150.55102,0.03985
2148.62227,0.03996
2146.69353,0.04024
2144.76478,0.04044
2142.83604,0.04037
2140.90729,0.04015
2138.97855,0.04003
2137.04980,0.03998
2135.12106,0.03981
2133.19231,0.03962
2131.26356,0.03962
2129.33482,0.03975
2127.40607,0.03975
2125.47733,0.03954
2123.54858,0.03929
2121.61984,0.03924
2119.69109,0.03947
2117.76235,0.03972
2115.83360,0.03964
2113.90486,0.03934
2111.97611,0.03921
2110.04737,0.03929
2108.11862,0.03935
2106.18988,0.03931
2104.26113,0.03922
2102.33238,0.03933
2100.40364,0.03966
2098.47489,0.03981
2096.54615,0.03970
2094.61740,0.03954
2092.68866,0.03937
2090.75991,0.03927
2088.83117,0.03935
2086.90242,0.03948
2084.97368,0.03948
2083.04493,0.03938
2081.11619,0.03915
2079.18744,0.03895
2077.25870,0.03904
2075.32995,0.03929
2073.40121,0.03943
2071.47246,0.03944
2069.54371,0.03943
2067.61497,0.03948
2065.68622,0.03960
2063.75748,0.03972
2061.82873,0.03973
2059.89999,0.03962
2057.97124,0.03945
2056.04250,0.03934
2054.11375,0.03934
2052.18501,0.03937
2050.25626,0.03932
2048.32752,0.03928
2046.39877,0.03944
2044.47003,0.03966
2042.54128,0.03976
2040.61254,0.03981
2038.68379,0.03974
2036.75504,0.03948
2034.82630,0.03944
2032.89755,0.03968
2030.96881,0.03980
2029.04006,0.03972
2027.11132,0.03964
2025.18257,0.03951
2023.25383,0.03927
2021.32508,0.03917
2019.39634,0.03936
2017.46759,0.03963
2015.53885,0.03970
2013.61010,0.03953
2011.68136,0.03932
2009.75261,0.03923
2007.82386,0.03926
2005.89512,0.03927
2003.96637,0.03922
2002.03763,0.03924
2000.10888,0.03927
1998.18014,0.03921
1996.25139,0.03914
1994.32265,0.03914
1992.39390,0.03917
1990.46516,0.03923
1988.53641,0.03931
1986.60767,0.03931
1984.67892,0.03917
1982.75018,0.03891
1980.82143,0.03877
1978.89269,0.03889
1976.96394,0.03916
1975.03519,0.03929
1973.10645,0.03912
1971.17770,0.03889
1969.24896,0.03892
1967.32021,0.03914
1965.39147,0.03926
1963.46272,0.03921
1961.53398,0.03910
1959.60523,0.03898
1957.67649,0.03880
1955.74774,0.03860
1953.81900,0.03850
1951.89025,0.03850
1949.96151,0.03866
1948.03276,0.03895
1946.10402,0.03908
1944.17527,0.03901
1942.24652,0.03887
1940.31778,0.03877
1938.38903,0.03878
1936.46029,0.03890
1934.53154,0.03890
1932.60280,0.03870
1930.67405,0.03845
1928.74531,0.03834
1926.81656,0.03840
1924.88782,0.03848
1922.95907,0.03843
1921.03033,0.03836
1919.10158,0.03831
1917.17284,0.03821
1915.24409,0.03802
1913.31534,0.03787
1911.38660,0.03788
1909.45785,0.03798
1907.52911,0.03800
1905.60036,0.03795
1903.67162,0.03784
1901.74287,0.03771
1899.81413,0.03768
1897.88538,0.03767
1895.95664,0.03755
1894.02789,0.03737
1892.09915,0.03723
1890.17040,0.03713
1888.24166,0.03713
1886.31291,0.03720
1884.38417,0.03717
1882.45542,0.03709
1880.52667,0.03706
1878.59793,0.03709
1876.66918,0.03713
1874.74044,0.03707
1872.81169,0.03686
1870.88295,0.03664
1868.95420,0.03645
1867.02546,0.03626
1865.09671,0.03611
1863.16797,0.03599
1861.23922,0.03591
1859.31048,0.03596
1857.38173,0.03590
1855.45299,0.03563
1853.52424,0.03537
1851.59549,0.03519
1849.66675,0.03503
1847.73800,0.03495
1845.80926,0.03481
1843.88051,0.03453
1841.95177,0.03434
1840.02302,0.03425
1838.09428,0.03396
1836.16553,0.03357
1834.23679,0.03343
1832.30804,0.03342
1830.37930,0.03324
1828.45055,0.03301
1826.52181,0.03294
1824.59306,0.03273
1822.66432,0.03230
1820.73557,0.03197
1818.80682,0.03173
1816.87808,0.03133
1814.94933,0.03085
1813.02059,0.03047
1811.09184,0.03024
1809.16310,0.03008
1807.23435,0.02976
1805.30561,0.02923
1803.37686,0.02869
1801.44812,0.02820
1799.51937,0.02758
1797.59063,0.02690
1795.66188,0.02637
1793.73314,0.02576
1791.80439,0.02485
1789.87565,0.02394
1787.94690,0.02332
1786.01815,0.02287
1784.08941,0.02260
1782.16066,0.02270
1780.23192,0.02325
1778.30317,0.02413
1776.37443,0.02530
1774.44568,0.02690
1772.51694,0.02913
1770.58819,0.03207
1768.65945,0.03595
1766.73070,0.04106
1764.80196,0.04722
1762.87321,0.05457
1760.94447,0.06246
1759.01572,0.06915
1757.08697,0.07415
1755.15823,0.07722
1753.22948,0.07846
1751.30074,0.07852
1749.37199,0.07775
1747.44325,0.07646
1745.51450,0.07470
1743.58576,0.07245
1741.65701,0.06989
1739.72827,0.06713
1737.79952,0.06469
1735.87078,0.06276
1733.94203,0.06061
1732.01329,0.05842
1730.08454,0.05675
1728.15580,0.05536
1726.22705,0.05410
1724.29830,0.05301
1722.36956,0.05230
1720.44081,0.05199
1718.51207,0.05160
1716.58332,0.05085
1714.65458,0.05013
1712.72583,0.04965
1710.79709,0.04928
1708.86834,0.04885
1706.93960,0.04818
1705.01085,0.04746
1703.08211,0.04706
1701.15336,0.04676
1699.22462,0.04609
1697.29587,0.04536
1695.36713,0.04485
1693.43838,0.04450
1691.50963,0.04427
1689.58089,0.04403
1687.65214,0.04381
1685.72340,0.04368
1683.79465,0.04345
1681.86591,0.04317
1679.93716,0.04303
1678.00842,0.04294
1676.07967,0.04276
1674.15093,0.04246
1672.22218,0.04218
1670.29344,0.04192
1668.36469,0.04159
1666.43595,0.04136
1664.50720,0.04138
1662.57845,0.04151
1660.64971,0.04158
1658.72096,0.04166
1656.79222,0.04201
1654.86347,0.04253
1652.93473,0.04254
1651.00598,0.04202
1649.07724,0.04172
1647.14849,0.04153
1645.21975,0.04124
1643.29100,0.04109
1641.36226,0.04113
1639.43351,0.04117
1637.50477,0.04110
1635.57602,0.04092
1633.64728,0.04072
1631.71853,0.04058
1629.78978,0.04048
1627.86104,0.04052
1625.93229,0.04075
1624.00355,0.04085
1622.07480,0.04061
1620.14606,0.04042
1618.21731,0.04041
1616.28857,0.04018
1614.35982,0.03985
1612.43108,0.03983
1610.50233,0.03997
1608.57359,0.03997
1606.64484,0.03974
1604.71610,0.03956
1602.78735,0.03957
1600.85861,0.03951
1598.92986,0.03933
1597.00111,0.03924
1595.07237,0.03928
1593.14362,0.03931
1591.21488,0.03926
1589.28613,0.03919
1587.35739,0.03911
1585.42864,0.03902
1583.49990,0.03880
1581.57115,0.03847
1579.64241,0.03839
1577.71366,0.03872
1575.78492,0.03892
1573.85617,0.03872
1571.92743,0.03863
1569.99868,0.03869
1568.06993,0.03851
1566.14119,0.03826
1564.21244,0.03815
1562.28370,0.03817
1560.35495,0.03834
1558.42621,0.03847
1556.49746,0.03839
1554.56872,0.03828
1552.63997,0.03818
1550.71123,0.03797
1548.78248,0.03764
1546.85374,0.03744
1544.92499,0.03755
1542.99625,0.03784
1541.06750,0.03794
1539.13876,0.03775
1537.21001,0.03763
1535.28126,0.03761
1533.35252,0.03751
1531.42377,0.03734
1529.49503,0.03725
1527.56628,0.03723
1525.63754,0.03723
1523.70879,0.03718
1521.78005,0.03702
1519.85130,0.03688
1517.92256,0.03678
1515.99381,0.03657
1514.06507,0.03634
1512.13632,0.03621
1510.20758,0.03609
1508.27883,0.03597
1506.35008,0.03582
1504.42134,0.03566
1502.49259,0.03551
1500.56385,0.03535
1498.63510,0.03514
1496.70636,0.03484
1494.77761,0.03472
1492.84887,0.03481
1490.92012,0.03481
1488.99138,0.03456
1487.06263,0.03416
1485.13389,0.03377
1483.20514,0.03347
1481.27640,0.03328
1479.34765,0.03314
1477.41891,0.03299
1475.49016,0.03274
1473.56141,0.03231
1471.63267,0.03174
1469.70392,0.03134
1467.77518,0.03102
1465.84643,0.03059
1463.91769,0.03028
1461.98894,0.03049
1460.06020,0.03133
1458.13145,0.03263
1456.20271,0.03395
1454.27396,0.03499
1452.34522,0.03595
1450.41647,0.03696
1448.48773,0.03787
1446.55898,0.03846
1444.63024,0.03879
1442.70149,0.03891
1440.77274,0.03882
1438.84400,0.03870
1436.91525,0.03847
1434.98651,0.03798
1433.05776,0.03749
1431.12902,0.03705
1429.20027,0.03652
1427.27153,0.03609
1425.34278,0.03590
1423.41404,0.03576
1421.48529,0.03545
1419.55655,0.03504
1417.62780,0.03471
1415.69906,0.03447
1413.77031,0.03416
1411.84156,0.03377
1409.91282,0.03338
1407.98407,0.03309
1406.05533,0.03286
1404.12658,0.03247
1402.19784,0.03187
1400.26909,0.03125
1398.34035,0.03069
1396.41160,0.03024
1394.48286,0.02994
1392.55411,0.02973
1390.62537,0.02960
1388.69662,0.02981
1386.76788,0.03059
1384.83913,0.03163
1382.91039,0.03258
1380.98164,0.03336
1379.05289,0.03388
1377.12415,0.03395
1375.19540,0.03347
1373.26666,0.03287
1371.33791,0.03276
1369.40917,0.03312
1367.48042,0.03362
1365.55168,0.03401
1363.62293,0.03436
1361.69419,0.03479
1359.76544,0.03518
1357.83670,0.03544
1355.90795,0.03566
1353.97921,0.03587
1352.05046,0.03598
1350.12172,0.03597
1348.19297,0.03593
1346.26422,0.03592
1344.33548,0.03579
1342.40673,0.03545
1340.47799,0.03500
1338.54924,0.03464
1336.62050,0.03446
1334.69175,0.03432
1332.76301,0.03414
1330.83426,0.03400
1328.90552,0.03391
1326.97677,0.03371
1325.04803,0.03339
1323.11928,0.03309
1321.19054,0.03281
1319.26179,0.03254
1317.33304,0.03241
1315.40430,0.03240
1313.47555,0.03227
1311.54681,0.03200
1309.61806,0.03183
1307.68932,0.03184
1305.76057,0.03190
1303.83183,0.03195
1301.90308,0.03185
1299.97434,0.03151
1298.04559,0.03116
1296.11685,0.03097
1294.18810,0.03078
1292.25936,0.03038
1290.33061,0.02986
1288.40187,0.02930
1286.47312,0.02876
1284.54437,0.02834
1282.61563,0.02812
1280.68688,0.02790
1278.75814,0.02772
1276.82939,0.02788
1274.90065,0.02832
1272.97190,0.02873
1271.04316,0.02911
1269.11441,0.02956
1267.18567,0.03001
1265.25692,0.03043
1263.32818,0.03078
1261.39943,0.03101
1259.47069,0.03110
1257.54194,0.03109
1255.61320,0.03092
1253.68445,0.03059
1251.75570,0.03016
1249.82696,0.02964
1247.89821,0.02911
1245.96947,0.02864
1244.04072,0.02809
1242.11198,0.02747
1240.18323,0.02707
1238.25449,0.02686
1236.32574,0.02656
1234.39700,0.02615
1232.46825,0.02595
1230.53951,0.02597
1228.61076,0.02598
1226.68202,0.02607
1224.75327,0.02642
1222.82452,0.02722
1220.89578,0.02843
1218.96703,0.02983
1217.03829,0.03130
1215.10954,0.03284
1213.18080,0.03428
1211.25205,0.03548
1209.32331,0.03651
1207.39456,0.03734
1205.46582,0.03779
1203.53707,0.03809
1201.60833,0.03870
1199.67958,0.03971
1197.75084,0.04096
1195.82209,0.04249
1193.89335,0.04473
1191.96460,0.04812
1190.03585,0.05266
1188.10711,0.05802
1186.17836,0.06363
1184.24962,0.06851
1182.32087,0.07154
1180.39213,0.07206
1178.46338,0.07007
1176.53464,0.06634
1174.60589,0.06203
1172.67715,0.05801
1170.74840,0.05449
1168.81966,0.05118
1166.89091,0.04809
1164.96217,0.04555
1163.03342,0.04369
1161.10467,0.04217
1159.17593,0.04050
1157.24718,0.03871
1155.31844,0.03702
1153.38969,0.03531
1151.46095,0.03342
1149.53220,0.03151
1147.60346,0.02987
1145.67471,0.02882
1143.74597,0.02856
1141.81722,0.02930
1139.88848,0.03137
1137.95973,0.03463
1136.03099,0.03820
1134.10224,0.04137
1132.17350,0.04398
1130.24475,0.04612
1128.31600,0.04762
1126.38726,0.04809
1124.45851,0.04749
1122.52977,0.04633
1120.60102,0.04489
1118.67228,0.04307
1116.74353,0.04123
1114.81479,0.03996
1112.88604,0.03941
1110.95730,0.03975
1109.02855,0.04145
1107.09981,0.04471
1105.17106,0.04920
1103.24232,0.05444
1101.31357,0.05990
1099.38483,0.06523
1097.45608,0.07056
1095.52733,0.07574
1093.59859,0.08051
1091.66984,0.08470
1089.74110,0.08802
1087.81235,0.09050
1085.88361,0.09220
1083.95486,0.09267
1082.02612,0.09179
1080.09737,0.09002
1078.16863,0.08769
1076.23988,0.08509
1074.31114,0.08239
1072.38239,0.07954
1070.45365,0.07674
1068.52490,0.07436
1066.59615,0.07214
1064.66741,0.06973
1062.73866,0.06739
1060.80992,0.06556
1058.88117,0.06424
1056.95243,0.06330
1055.02368,0.06286
1053.09494,0.06282
1051.16619,0.06292
1049.23745,0.06321
1047.30870,0.06379
1045.37996,0.06474
1043.45121,0.06590
1041.52247,0.06673
1039.59372,0.06705
1037.66498,0.06723
1035.73623,0.06733
1033.80748,0.06698
1031.87874,0.06639
1029.94999,0.06619
1028.02125,0.06639
1026.09250,0.06667
1024.16376,0.06703
1022.23501,0.06760
1020.30627,0.06837
1018.37752,0.06915
1016.44878,0.06966
1014.52003,0.06978
1012.59129,0.06956
1010.66254,0.06922
1008.73380,0.06896
1006.80505,0.06861
1004.87631,0.06801
1002.94756,0.06719
1001.01881,0.06608
999.09007,0.06472
997.16132,0.06342
995.23258,0.06263
993.30383,0.06247
991.37509,0.06244
989.44634,0.06210
987.51760,0.06150
985.58885,0.06083
983.66011,0.06031
981.73136,0.05997
979.80262,0.05956
977.87387,0.05892
975.94513,0.05826
974.01638,0.05759
972.08763,0.05685
970.15889,0.05603
968.23014,0.05520
966.30140,0.05460
964.37265,0.05434
962.44391,0.05406
960.51516,0.05350
958.58642,0.05303
956.65767,0.05298
954.72893,0.05316
952.80018,0.05336
950.87144,0.05357
948.94269,0.05368
947.01395,0.05356
945.08520,0.05334
943.15646,0.05308
941.22771,0.05273
939.29896,0.05247
937.37022,0.05240
935.44147,0.05235
933.51273,0.05229
931.58398,0.05227
929.65524,0.05215
927.72649,0.05171
925.79775,0.05118
923.86900,0.05093
921.94026,0.05100
920.01151,0.05101
918.08277,0.05071
916.15402,0.05027
914.22528,0.04982
912.29653,0.04940
910.36779,0.04917
908.43904,0.04914
906.51029,0.04907
904.58155,0.04887
902.65280,0.04863
900.72406,0.04838
898.79531,0.04829
896.86657,0.04841
894.93782,0.04847
893.00908,0.04834
891.08033,0.04825
889.15159,0.04810
887.22284,0.04766
885.29410,0.04730
883.36535,0.04706
881.43661,0.04672
879.50786,0.04661
877.57911,0.04671
875.65037,0.04668
873.72162,0.04682
871.79288,0.04751
869.86413,0.04836
867.93539,0.04879
866.00664,0.04896
864.07790,0.04928
862.14915,0.04973
860.22041,0.05013
858.29166,0.05039
856.36292,0.05038
854.43417,0.04995
852.50543,0.04934
850.57668,0.04912
848.64794,0.04933
846.71919,0.04943
844.79044,0.04925
842.86170,0.04905
840.93295,0.04900
839.00421,0.04904
837.07546,0.04892
835.14672,0.04856
833.21797,0.04820
831.28923,0.04804
829.36048,0.04801
827.43174,0.04790
825.50299,0.04764
823.57425,0.04760
821.64550,0.04770
819.71676,0.04744
817.78801,0.04698
815.85926,0.04699
813.93052,0.04738
812.00177,0.04755
810.07303,0.04735
808.14428,0.04696
806.21554,0.04658
804.28679,0.04638
802.35805,0.04643
800.42930,0.04655
798.50056,0.04651
796.57181,0.04631
794.64307,0.04608
792.71432,0.04568
790.78558,0.04506
788.85683,0.04441
786.92809,0.04393
784.99934,0.04383
783.07059,0.04398
781.14185,0.04410
779.21310,0.04414
777.28436,0.04393
775.35561,0.04348
773.42687,0.04326
771.49812,0.04336
769.56938,0.04347
767.64063,0.04348
765.71189,0.04344
763.78314,0.04347
761.85440,0.04367
759.92565,0.04395
757.99691,0.04412
756.06816,0.04447
754.13942,0.04537
752.21067,0.04611
750.28192,0.04601
748.35318,0.04573
746.42443,0.04591
744.49569,0.04628
742.56694,0.04659
740.63820,0.04687
738.70945,0.04704
736.78071,0.04698
734.85196,0.04674
732.92322,0.04643
730.99447,0.04606
729.06573,0.04587
727.13698,0.04614
725.20824,0.04632
723.27949,0.04590
721.35074,0.04538
719.42200,0.04504
717.49325,0.04473
715.56451,0.04471
713.63576,0.04488
711.70702,0.04480
709.77827,0.04476
707.84953,0.04499
705.92078,0.04504
703.99204,0.04507
702.06329,0.04540
700.13455,0.04545
698.20580,0.04498
696.27706,0.04470
694.34831,0.04501
692.41957,0.04554
690.49082,0.04587
688.56207,0.04602
686.63333,0.04625
684.70458,0.04671
682.77584,0.04713
680.84709,0.04695
678.91835,0.04611
676.98960,0.04530
675.06086,0.04516
673.13211,0.04582
671.20337,0.04689
669.27462,0.04741
667.34588,0.04704
665.41713,0.04684
663.48839,0.04707
661.55964,0.04673
659.63090,0.04580
657.70215,0.04515
655.77340,0.04494
653.84466,0.04450
651.91591,0.04371
649.98717,0.04336
648.05842,0.04367
646.12968,0.04398
644.20093,0.04426
642.27219,0.04482
640.34344,0.04521
638.41470,0.04476
636.48595,0.04393
634.55721,0.04369
632.62846,0.04396
630.69972,0.04347
628.77097,0.04250
626.84222,0.04278
624.91348,0.04376
622.98473,0.04345
621.05599,0.04239
619.12724,0.04267
617.19850,0.04379
615.26975,0.04388
613.34101,0.04333
611.41226,0.04377
609.48352,0.04523
607.55477,0.04587
605.62603,0.04494
603.69728,0.04372
601.76854,0.04308
599.83979,0.04280
