7497.03301,0.05932
7495.10426,0.05716
7493.17552,0.05750
7491.24677,0.05934
7489.31803,0.05846
7487.38928,0.05549
7485.46054,0.05295
7483.53179,0.05145
7481.60305,0.05179
7479.67430,0.05227
7477.74556,0.05005
7475.81681,0.04854
7473.88807,0.04900
7471.95932,0.04842
7470.03057,0.04652
7468.10183,0.04403
7466.17308,0.04067
7464.24434,0.03916
7462.31559,0.04307
7460.38685,0.05135
7458.45810,0.05912
7456.52936,0.06296
7454.60061,0.06247
7452.67187,0.05990
7450.74312,0.05824
7448.81438,0.05792
7446.88563,0.05640
7444.95689,0.05517
7443.02814,0.05715
7441.09940,0.05824
7439.17065,0.05480
7437.24190,0.05053
7435.31316,0.05081
7433.38441,0.05477
7431.45567,0.05545
7429.52692,0.05231
7427.59818,0.05015
7425.66943,0.04845
7423.74069,0.04456
7421.81194,0.04250
7419.88320,0.04485
7417.95445,0.04716
7416.02571,0.04705
7414.09696,0.04961
7412.16822,0.05625
7410.23947,0.05957
7408.31073,0.05531
7406.38198,0.04744
7404.45323,0.04105
7402.52449,0.03954
7400.59574,0.04169
7398.66700,0.04385
7396.73825,0.04624
7394.80951,0.05051
7392.88076,0.05385
7390.95202,0.05307
7389.02327,0.05175
7387.09453,0.05479
7385.16578,0.05879
7383.23704,0.05975
7381.30829,0.05637
7379.37955,0.04961
7377.45080,0.04309
7375.52205,0.04028
7373.59331,0.04150
7371.66456,0.04543
7369.73582,0.04907
7367.80707,0.05012
7365.87833,0.05026
7363.94958,0.05027
7362.02084,0.04827
7360.09209,0.04662
7358.16335,0.04889
7356.23460,0.05233
7354.30586,0.05253
7352.37711,0.05081
7350.44837,0.04695
7348.51962,0.04197
7346.59088,0.04200
7344.66213,0.04743
7342.73338,0.05201
7340.80464,0.05259
7338.87589,0.04979
7336.94715,0.04958
7335.01840,0.05402
7333.08966,0.05979
7331.16091,0.06190
7329.23217,0.05801
7327.30342,0.05389
7325.37468,0.05623
7323.44593,0.06055
7321.51719,0.06320
7319.58844,0.06525
7317.65970,0.06489
7315.73095,0.06132
7313.80221,0.05665
7311.87346,0.05307
7309.94471,0.05339
7308.01597,0.05575
7306.08722,0.05591
7304.15848,0.05706
7302.22973,0.06122
7300.30099,0.06079
7298.37224,0.05405
7296.44350,0.04890
7294.51475,0.04653
7292.58601,0.04359
7290.65726,0.04304
7288.72852,0.04619
7286.79977,0.04875
7284.87103,0.04746
7282.94228,0.04448
7281.01353,0.04125
7279.08479,0.04012
7277.15604,0.04278
7275.22730,0.04571
7273.29855,0.04743
7271.36981,0.05191
7269.44106,0.05824
7267.51232,0.06006
7265.58357,0.05560
7263.65483,0.04941
7261.72608,0.04664
7259.79734,0.04974
7257.86859,0.05350
7255.93985,0.05188
7254.01110,0.04833
7252.08236,0.04734
7250.15361,0.04733
7248.22486,0.04822
7246.29612,0.05011
7244.36737,0.05015
7242.43863,0.04678
7240.50988,0.04377
7238.58114,0.04436
7236.65239,0.04695
7234.72365,0.04835
7232.79490,0.04749
7230.86616,0.04528
7228.93741,0.04279
7227.00867,0.04068
7225.07992,0.04319
7223.15118,0.04952
7221.22243,0.05222
7219.29369,0.04987
7217.36494,0.04703
7215.43619,0.04728
7213.50745,0.05132
7211.57870,0.05516
7209.64996,0.05545
7207.72121,0.05300
7205.79247,0.05001
7203.86372,0.04938
7201.93498,0.05207
7200.00623,0.05336
7198.07749,0.05068
7196.14874,0.04703
7194.22000,0.04709
7192.29125,0.05153
7190.36251,0.05525
7188.43376,0.05370
7186.50501,0.04809
7184.57627,0.04333
7182.64752,0.04319
7180.71878,0.04678
7178.79003,0.04984
7176.86129,0.04876
7174.93254,0.04628
7173.00380,0.04708
7171.07505,0.04999
7169.14631,0.05147
7167.21756,0.05090
7165.28882,0.04965
7163.36007,0.04943
7161.43133,0.04983
7159.50258,0.04878
7157.57384,0.04696
7155.64509,0.04725
7153.71634,0.04975
7151.78760,0.05162
7149.85885,0.05089
7147.93011,0.05066
7146.00136,0.05404
7144.07262,0.05671
7142.14387,0.05457
7140.21513,0.05168
7138.28638,0.05244
7136.35764,0.05418
7134.42889,0.05173
7132.50015,0.04673
7130.57140,0.04416
7128.64266,0.04482
7126.71391,0.04790
7124.78516,0.05086
7122.85642,0.05009
7120.92767,0.04736
7118.99893,0.04595
7117.07018,0.04586
7115.14144,0.04683
7113.21269,0.04852
7111.28395,0.04809
7109.35520,0.04655
7107.42646,0.04696
7105.49771,0.04679
7103.56897,0.04459
7101.64022,0.04407
7099.71148,0.04543
7097.78273,0.04626
7095.85399,0.04656
7093.92524,0.04590
7091.99649,0.04404
7090.06775,0.04309
7088.13900,0.04317
7086.21026,0.04363
7084.28151,0.04516
7082.35277,0.04895
7080.42402,0.05413
7078.49528,0.05580
7076.56653,0.05063
7074.63779,0.04337
7072.70904,0.04041
7070.78030,0.04262
7068.85155,0.04659
7066.92281,0.04923
7064.99406,0.05092
7063.06532,0.05281
7061.13657,0.05308
7059.20782,0.05231
7057.27908,0.05230
7055.35033,0.05222
7053.42159,0.05247
7051.49284,0.05390
7049.56410,0.05560
7047.63535,0.05550
7045.70661,0.05222
7043.77786,0.04743
7041.84912,0.04548
7039.92037,0.04802
7037.99163,0.05086
7036.06288,0.05169
7034.13414,0.05061
7032.20539,0.04742
7030.27664,0.04505
7028.34790,0.04651
7026.41915,0.04955
7024.49041,0.05055
7022.56166,0.05000
7020.63292,0.05045
7018.70417,0.05212
7016.77543,0.05225
7014.84668,0.05053
7012.91794,0.05109
7010.98919,0.05291
7009.06045,0.05213
7007.13170,0.04893
7005.20296,0.04529
7003.27421,0.04519
7001.34547,0.05035
6999.41672,0.05510
6997.48797,0.05331
6995.55923,0.04755
6993.63048,0.04525
6991.70174,0.04778
6989.77299,0.05089
6987.84425,0.05207
6985.91550,0.05145
6983.98676,0.05012
6982.05801,0.05108
6980.12927,0.05384
6978.20052,0.05455
6976.27178,0.05404
6974.34303,0.05501
6972.41429,0.05619
6970.48554,0.05602
6968.55680,0.05508
6966.62805,0.05433
6964.69930,0.05294
6962.77056,0.05121
6960.84181,0.05142
6958.91307,0.05258
6956.98432,0.05194
6955.05558,0.05047
6953.12683,0.04841
6951.19809,0.04560
6949.26934,0.04408
6947.34060,0.04333
6945.41185,0.04233
6943.48311,0.04335
6941.55436,0.04703
6939.62562,0.05035
6937.69687,0.05200
6935.76812,0.05338
6933.83938,0.05249
6931.91063,0.04758
6929.98189,0.04270
6928.05314,0.04201
6926.12440,0.04402
6924.19565,0.04626
6922.26691,0.04903
6920.33816,0.05145
6918.40942,0.05192
6916.48067,0.05111
6914.55193,0.05120
6912.62318,0.05269
6910.69444,0.05253
6908.76569,0.05137
6906.83695,0.05281
6904.90820,0.05510
6902.97945,0.05555
6901.05071,0.05492
6899.12196,0.05303
6897.19322,0.05044
6895.26447,0.04927
6893.33573,0.04967
6891.40698,0.04947
6889.47824,0.04777
6887.54949,0.04616
6885.62075,0.04612
6883.69200,0.04561
6881.76326,0.04234
6879.83451,0.03807
6877.90577,0.03582
6875.97702,0.03792
6874.04828,0.04373
6872.11953,0.04901
6870.19078,0.05198
6868.26204,0.05367
6866.33329,0.05413
6864.40455,0.05375
6862.47580,0.05399
6860.54706,0.05491
6858.61831,0.05557
6856.68957,0.05558
6854.76082,0.05474
6852.83208,0.05212
6850.90333,0.04788
6848.97459,0.04537
6847.04584,0.04671
6845.11710,0.04946
6843.18835,0.05173
6841.25960,0.05399
6839.33086,0.05494
6837.40211,0.05162
6835.47337,0.04734
6833.54462,0.04794
6831.61588,0.05180
6829.68713,0.05378
6827.75839,0.05354
6825.82964,0.05336
6823.90090,0.05205
6821.97215,0.04712
6820.04341,0.04312
6818.11466,0.04424
6816.18592,0.04793
6814.25717,0.05096
6812.32843,0.05301
6810.39968,0.05252
6808.47093,0.04948
6806.54219,0.04803
6804.61344,0.04907
6802.68470,0.05033
6800.75595,0.05128
6798.82721,0.05067
6796.89846,0.04828
6794.96972,0.04720
6793.04097,0.04866
6791.11223,0.04987
6789.18348,0.04973
6787.25474,0.04887
6785.32599,0.04758
6783.39725,0.04704
6781.46850,0.04773
6779.53975,0.04906
6777.61101,0.04834
6775.68226,0.04493
6773.75352,0.04480
6771.82477,0.04912
6769.89603,0.05216
6767.96728,0.05148
6766.03854,0.05039
6764.10979,0.05127
6762.18105,0.05214
6760.25230,0.05104
6758.32356,0.04968
6756.39481,0.04943
6754.46607,0.04906
6752.53732,0.04758
6750.60858,0.04649
6748.67983,0.04590
6746.75108,0.04557
6744.82234,0.04747
6742.89359,0.05052
6740.96485,0.05018
6739.03610,0.04638
6737.10736,0.04369
6735.17861,0.04459
6733.24987,0.04697
6731.32112,0.04750
6729.39238,0.04572
6727.46363,0.04428
6725.53489,0.04412
6723.60614,0.04404
6721.67740,0.04518
6719.74865,0.04861
6717.81991,0.05054
6715.89116,0.04918
6713.96241,0.04851
6712.03367,0.04940
6710.10492,0.04961
6708.17618,0.04961
6706.24743,0.04941
6704.31869,0.04866
6702.38994,0.04861
6700.46120,0.04967
6698.53245,0.05090
6696.60371,0.05109
6694.67496,0.05069
6692.74622,0.05045
6690.81747,0.04914
6688.88873,0.04746
6686.95998,0.04702
6685.03123,0.04856
6683.10249,0.05276
6681.17374,0.05709
6679.24500,0.05733
6677.31625,0.05394
6675.38751,0.05047
6673.45876,0.04940
6671.53002,0.05014
6669.60127,0.05021
6667.67253,0.04903
6665.74378,0.04753
6663.81504,0.04601
6661.88629,0.04567
6659.95755,0.04753
6658.02880,0.04882
6656.10006,0.04605
6654.17131,0.04229
6652.24256,0.04240
6650.31382,0.04492
6648.38507,0.04672
6646.45633,0.04779
6644.52758,0.04785
6642.59884,0.04731
6640.67009,0.04751
6638.74135,0.04844
6636.81260,0.04976
6634.88386,0.05081
6632.95511,0.05001
6631.02637,0.04857
6629.09762,0.04763
6627.16888,0.04670
6625.24013,0.04738
6623.31139,0.05020
6621.38264,0.05229
6619.45389,0.05202
6617.52515,0.04973
6615.59640,0.04771
6613.66766,0.04772
6611.73891,0.04887
6609.81017,0.04958
6607.88142,0.04998
6605.95268,0.05147
6604.02393,0.05320
6602.09519,0.05218
6600.16644,0.04892
6598.23770,0.04705
6596.30895,0.04754
6594.38021,0.04845
6592.45146,0.04889
6590.52271,0.04782
6588.59397,0.04595
6586.66522,0.04595
6584.73648,0.04787
6582.80773,0.04990
6580.87899,0.05014
6578.95024,0.04787
6577.02150,0.04551
6575.09275,0.04545
6573.16401,0.04839
6571.23526,0.05282
6569.30652,0.05610
6567.37777,0.05556
6565.44903,0.05215
6563.52028,0.05001
6561.59154,0.04905
6559.66279,0.04652
6557.73404,0.04415
6555.80530,0.04375
6553.87655,0.04461
6551.94781,0.04619
6550.01906,0.04772
6548.09032,0.04822
6546.16157,0.04812
6544.23283,0.04769
6542.30408,0.04778
6540.37534,0.04954
6538.44659,0.05104
6536.51785,0.04970
6534.58910,0.04779
6532.66036,0.04834
6530.73161,0.04983
6528.80287,0.04916
6526.87412,0.04716
6524.94537,0.04712
6523.01663,0.04876
6521.08788,0.04898
6519.15914,0.04872
6517.23039,0.04951
6515.30165,0.04954
6513.37290,0.04812
6511.44416,0.04699
6509.51541,0.04723
6507.58667,0.04834
6505.65792,0.04918
6503.72918,0.04852
6501.80043,0.04713
6499.87169,0.04767
6497.94294,0.04946
6496.01419,0.05010
6494.08545,0.04972
6492.15670,0.04874
6490.22796,0.04822
6488.29921,0.04951
6486.37047,0.05141
6484.44172,0.05248
6482.51298,0.05258
6480.58423,0.05218
6478.65549,0.05213
6476.72674,0.05256
6474.79800,0.05296
6472.86925,0.05238
6470.94051,0.05025
6469.01176,0.04809
6467.08302,0.04657
6465.15427,0.04508
6463.22552,0.04485
6461.29678,0.04652
6459.36803,0.04791
6457.43929,0.04884
6455.51054,0.04994
6453.58180,0.04983
6451.65305,0.04899
6449.72431,0.04934
6447.79556,0.04978
6445.86682,0.04894
6443.93807,0.04769
6442.00933,0.04722
6440.08058,0.04797
6438.15184,0.04987
6436.22309,0.05118
6434.29434,0.04953
6432.36560,0.04538
6430.43685,0.04179
6428.50811,0.04109
6426.57936,0.04238
6424.65062,0.04414
6422.72187,0.04647
6420.79313,0.04835
6418.86438,0.04890
6416.93564,0.04890
6415.00689,0.04908
6413.07815,0.04929
6411.14940,0.04899
6409.22066,0.04872
6407.29191,0.04945
6405.36317,0.05011
6403.43442,0.04864
6401.50567,0.04676
6399.57693,0.04720
6397.64818,0.04821
6395.71944,0.04738
6393.79069,0.04497
6391.86195,0.04287
6389.93320,0.04286
6388.00446,0.04518
6386.07571,0.04823
6384.14697,0.04957
6382.21822,0.04902
6380.28948,0.04869
6378.36073,0.04899
6376.43199,0.04830
6374.50324,0.04703
6372.57450,0.04727
6370.64575,0.04836
6368.71700,0.04872
6366.78826,0.04811
6364.85951,0.04693
6362.93077,0.04650
6361.00202,0.04807
6359.07328,0.05013
6357.14453,0.05035
6355.21579,0.04913
6353.28704,0.04808
6351.35830,0.04763
6349.42955,0.04730
6347.50081,0.04600
6345.57206,0.04397
6343.64332,0.04318
6341.71457,0.04495
6339.78582,0.04857
6337.85708,0.05177
6335.92833,0.05232
6333.99959,0.05062
6332.07084,0.04883
6330.14210,0.04817
6328.21335,0.04870
6326.28461,0.04937
6324.35586,0.04926
6322.42712,0.04903
6320.49837,0.04837
6318.56963,0.04627
6316.64088,0.04441
6314.71214,0.04486
6312.78339,0.04636
6310.85465,0.04765
6308.92590,0.04880
6306.99715,0.04868
6305.06841,0.04681
6303.13966,0.04520
6301.21092,0.04528
6299.28217,0.04699
6297.35343,0.04978
6295.42468,0.05164
6293.49594,0.05102
6291.56719,0.04978
6289.63845,0.04974
6287.70970,0.04991
6285.78096,0.04910
6283.85221,0.04770
6281.92347,0.04731
6279.99472,0.04880
6278.06598,0.05033
6276.13723,0.04974
6274.20848,0.04796
6272.27974,0.04716
6270.35099,0.04795
6268.42225,0.05005
6266.49350,0.05098
6264.56476,0.04988
6262.63601,0.04974
6260.70727,0.05067
6258.77852,0.05084
6256.84978,0.05133
6254.92103,0.05160
6252.99229,0.04977
6251.06354,0.04750
6249.13480,0.04721
6247.20605,0.04794
6245.27730,0.04851
6243.34856,0.04946
6241.41981,0.05006
6239.49107,0.04834
6237.56232,0.04616
6235.63358,0.04674
6233.70483,0.04916
6231.77609,0.05128
6229.84734,0.05201
6227.91860,0.05073
6225.98985,0.04965
6224.06111,0.04978
6222.13236,0.04936
6220.20362,0.04930
6218.27487,0.05058
6216.34613,0.05073
6214.41738,0.04916
6212.48863,0.04782
6210.55989,0.04686
6208.63114,0.04620
6206.70240,0.04656
6204.77365,0.04739
6202.84491,0.04777
6200.91616,0.04716
6198.98742,0.04523
6197.05867,0.04292
6195.12993,0.04251
6193.20118,0.04486
6191.27244,0.04816
6189.34369,0.05000
6187.41495,0.05035
6185.48620,0.05146
6183.55746,0.05290
6181.62871,0.05202
6179.69996,0.04985
6177.77122,0.04833
6175.84247,0.04756
6173.91373,0.04829
6171.98498,0.04939
6170.05624,0.04913
6168.12749,0.04905
6166.19875,0.04967
6164.27000,0.04977
6162.34126,0.04920
6160.41251,0.04847
6158.48377,0.04793
6156.55502,0.04740
6154.62628,0.04696
6152.69753,0.04740
6150.76878,0.04894
6148.84004,0.05023
6146.91129,0.04987
6144.98255,0.04879
6143.05380,0.04889
6141.12506,0.05018
6139.19631,0.05089
6137.26757,0.04939
6135.33882,0.04593
6133.41008,0.04344
6131.48133,0.04449
6129.55259,0.04783
6127.62384,0.05063
6125.69510,0.05168
6123.76635,0.05122
6121.83761,0.05056
6119.90886,0.05127
6117.98011,0.05280
6116.05137,0.05306
6114.12262,0.05197
6112.19388,0.05127
6110.26513,0.05206
6108.33639,0.05313
6106.40764,0.05233
6104.47890,0.04967
6102.55015,0.04726
6100.62141,0.04680
6098.69266,0.04780
6096.76392,0.04900
6094.83517,0.04969
6092.90643,0.04972
6090.97768,0.05000
6089.04893,0.05029
6087.12019,0.04902
6085.19144,0.04642
6083.26270,0.04455
6081.33395,0.04496
6079.40521,0.04754
6077.47646,0.05038
6075.54772,0.05117
6073.61897,0.05010
6071.69023,0.04908
6069.76148,0.04870
6067.83274,0.04867
6065.90399,0.04850
6063.97525,0.04764
6062.04650,0.04676
6060.11776,0.04719
6058.18901,0.04795
6056.26026,0.04758
6054.33152,0.04703
6052.40277,0.04724
6050.47403,0.04733
6048.54528,0.04692
6046.61654,0.04715
6044.68779,0.04816
6042.75905,0.04792
6040.83030,0.04680
6038.90156,0.04722
6036.97281,0.04950
6035.04407,0.05186
6033.11532,0.05269
6031.18658,0.05208
6029.25783,0.05081
6027.32909,0.04918
6025.40034,0.04768
6023.47159,0.04716
6021.54285,0.04771
6019.61410,0.04786
6017.68536,0.04704
6015.75661,0.04676
6013.82787,0.04745
6011.89912,0.04796
6009.97038,0.04751
6008.04163,0.04691
6006.11289,0.04874
6004.18414,0.05194
6002.25540,0.05164
6000.32665,0.04861
5998.39791,0.04768
5996.46916,0.04791
5994.54041,0.04650
5992.61167,0.04578
5990.68292,0.04788
5988.75418,0.04978
5986.82543,0.04960
5984.89669,0.04949
5982.96794,0.05047
5981.03920,0.05123
5979.11045,0.05070
5977.18171,0.04897
5975.25296,0.04712
5973.32422,0.04633
5971.39547,0.04718
5969.46673,0.04851
5967.53798,0.04896
5965.60924,0.04955
5963.68049,0.05142
5961.75174,0.05308
5959.82300,0.05286
5957.89425,0.05218
5955.96551,0.05196
5954.03676,0.05039
5952.10802,0.04825
5950.17927,0.04785
5948.25053,0.04879
5946.32178,0.04966
5944.39304,0.04987
5942.46429,0.04956
5940.53555,0.04929
5938.60680,0.04926
5936.67806,0.04919
5934.74931,0.04883
5932.82057,0.04861
5930.89182,0.04907
5928.96307,0.04963
5927.03433,0.04921
5925.10558,0.04807
5923.17684,0.04726
5921.24809,0.04752
5919.31935,0.04830
5917.39060,0.04878
5915.46186,0.04978
5913.53311,0.05130
5911.60437,0.05163
5909.67562,0.05083
5907.74688,0.04998
5905.81813,0.04923
5903.88939,0.04889
5901.96064,0.04943
5900.03189,0.04998
5898.10315,0.04980
5896.17440,0.04946
5894.24566,0.04931
5892.31691,0.04928
5890.38817,0.04961
5888.45942,0.04977
5886.53068,0.04865
5884.60193,0.04692
5882.67319,0.04653
5880.74444,0.04751
5878.81570,0.04827
5876.88695,0.04882
5874.95821,0.05009
5873.02946,0.05092
5871.10072,0.04986
5869.17197,0.04806
5867.24322,0.04718
5865.31448,0.04699
5863.38573,0.04709
5861.45699,0.04754
5859.52824,0.04823
5857.59950,0.04887
5855.67075,0.04900
5853.74201,0.04871
5851.81326,0.04834
5849.88452,0.04806
5847.95577,0.04866
5846.02703,0.04997
5844.09828,0.05045
5842.16954,0.04952
5840.24079,0.04827
5838.31205,0.04777
5836.38330,0.04793
5834.45455,0.04812
5832.52581,0.04808
5830.59706,0.04770
5828.66832,0.04673
5826.73957,0.04593
5824.81083,0.04636
5822.88208,0.04733
5820.95334,0.04802
5819.02459,0.04834
5817.09585,0.04801
5815.16710,0.04708
5813.23836,0.04677
5811.30961,0.04786
5809.38087,0.04925
5807.45212,0.04950
5805.52337,0.04845
5803.59463,0.04763
5801.66588,0.04792
5799.73714,0.04828
5797.80839,0.04845
5795.87965,0.04851
5793.95090,0.04805
5792.02216,0.04808
5790.09341,0.04903
5788.16467,0.04927
5786.23592,0.04819
5784.30718,0.04689
5782.37843,0.04646
5780.44969,0.04712
5778.52094,0.04777
5776.59220,0.04762
5774.66345,0.04715
5772.73470,0.04670
5770.80596,0.04659
5768.87721,0.04725
5766.94847,0.04813
5765.01972,0.04856
5763.09098,0.04869
5761.16223,0.04847
5759.23349,0.04780
5757.30474,0.04683
5755.37600,0.04623
5753.44725,0.04656
5751.51851,0.04717
5749.58976,0.04755
5747.66102,0.04766
5745.73227,0.04746
5743.80352,0.04790
5741.87478,0.04946
5739.94603,0.05152
5738.01729,0.05306
5736.08854,0.05325
5734.15980,0.05191
5732.23105,0.04971
5730.30231,0.04781
5728.37356,0.04735
5726.44482,0.04803
5724.51607,0.04858
5722.58733,0.04871
5720.65858,0.04900
5718.72984,0.04968
5716.80109,0.05022
5714.87235,0.05017
5712.94360,0.04967
5711.01485,0.04894
5709.08611,0.04891
5707.15736,0.05018
5705.22862,0.05159
5703.29987,0.05149
5701.37113,0.04988
5699.44238,0.04831
5697.51364,0.04757
5695.58489,0.04766
5693.65615,0.04836
5691.72740,0.04867
5689.79866,0.04856
5687.86991,0.04881
5685.94117,0.04909
5684.01242,0.04861
5682.08368,0.04783
5680.15493,0.04779
5678.22618,0.04826
5676.29744,0.04865
5674.36869,0.04927
5672.43995,0.04961
5670.51120,0.04904
5668.58246,0.04820
5666.65371,0.04760
5664.72497,0.04766
5662.79622,0.04821
5660.86748,0.04832
5658.93873,0.04852
5657.00999,0.04940
5655.08124,0.05005
5653.15250,0.05010
5651.22375,0.05000
5649.29500,0.04963
5647.36626,0.04913
5645.43751,0.04908
5643.50877,0.04877
5641.58002,0.04760
5639.65128,0.04666
5637.72253,0.04693
5635.79379,0.04837
5633.86504,0.04982
5631.93630,0.05013
5630.00755,0.05011
5628.07881,0.05030
5626.15006,0.04990
5624.22132,0.04937
5622.29257,0.04932
5620.36383,0.04910
5618.43508,0.04903
5616.50633,0.04949
5614.57759,0.04962
5612.64884,0.04921
5610.72010,0.04836
5608.79135,0.04728
5606.86261,0.04741
5604.93386,0.04939
5603.00512,0.05147
5601.07637,0.05140
5599.14763,0.04964
5597.21888,0.04911
5595.29014,0.05008
5593.36139,0.05005
5591.43265,0.04900
5589.50390,0.04886
5587.57516,0.04965
5585.64641,0.04974
5583.71766,0.04847
5581.78892,0.04719
5579.86017,0.04726
5577.93143,0.04798
5576.00268,0.04877
5574.07394,0.04971
5572.14519,0.04978
5570.21645,0.04911
5568.28770,0.04871
5566.35896,0.04832
5564.43021,0.04834
5562.50147,0.04902
5560.57272,0.04930
5558.64398,0.04939
5556.71523,0.05023
5554.78648,0.05107
5552.85774,0.05092
5550.92899,0.05044
5549.00025,0.05028
5547.07150,0.04993
5545.14276,0.04942
5543.21401,0.04975
5541.28527,0.05036
5539.35652,0.04998
5537.42778,0.04956
5535.49903,0.04952
5533.57029,0.04859
5531.64154,0.04757
5529.71280,0.04783
5527.78405,0.04865
5525.85531,0.04892
5523.92656,0.04862
5521.99781,0.04868
5520.06907,0.04941
5518.14032,0.04993
5516.21158,0.04949
5514.28283,0.04825
5512.35409,0.04731
5510.42534,0.04745
5508.49660,0.04828
5506.56785,0.04893
5504.63911,0.04937
5502.71036,0.05009
5500.78162,0.05070
5498.85287,0.05069
5496.92413,0.05004
5494.99538,0.04937
5493.06664,0.04976
5491.13789,0.05057
5489.20914,0.05040
5487.28040,0.04989
5485.35165,0.04971
5483.42291,0.04981
5481.49416,0.05034
5479.56542,0.05011
5477.63667,0.04861
5475.70793,0.04778
5473.77918,0.04847
5471.85044,0.04930
5469.92169,0.04980
5467.99295,0.05045
5466.06420,0.05080
5464.13546,0.05041
5462.20671,0.04988
5460.27796,0.04949
5458.34922,0.04910
5456.42047,0.04870
5454.49173,0.04855
5452.56298,0.04898
5450.63424,0.04977
5448.70549,0.05017
5446.77675,0.04961
5444.84800,0.04859
5442.91926,0.04814
5440.99051,0.04844
5439.06177,0.04904
5437.13302,0.04950
5435.20428,0.04981
5433.27553,0.05020
5431.34679,0.05059
5429.41804,0.05082
5427.48929,0.05111
5425.56055,0.05125
5423.63180,0.05040
5421.70306,0.04910
5419.77431,0.04883
5417.84557,0.04947
5415.91682,0.04979
5413.98808,0.04933
5412.05933,0.04885
5410.13059,0.04917
5408.20184,0.04983
5406.27310,0.04974
5404.34435,0.04932
5402.41561,0.04952
5400.48686,0.04961
5398.55811,0.04907
5396.62937,0.04888
5394.70062,0.04943
5392.77188,0.04985
5390.84313,0.04958
5388.91439,0.04934
5386.98564,0.04976
5385.05690,0.05022
5383.12815,0.05022
5381.19941,0.05005
5379.27066,0.04981
5377.34192,0.04940
5375.41317,0.04912
5373.48443,0.04922
5371.55568,0.04923
5369.62694,0.04897
5367.69819,0.04912
5365.76944,0.04985
5363.84070,0.05035
5361.91195,0.04986
5359.98321,0.04903
5358.05446,0.04865
5356.12572,0.04823
5354.19697,0.04778
5352.26823,0.04791
5350.33948,0.04845
5348.41074,0.04902
5346.48199,0.04972
5344.55325,0.05041
5342.62450,0.05082
5340.69576,0.05084
5338.76701,0.05031
5336.83827,0.04960
5334.90952,0.04933
5332.98077,0.04917
5331.05203,0.04881
5329.12328,0.04875
5327.19454,0.04925
5325.26579,0.04958
5323.33705,0.04930
5321.40830,0.04907
5319.47956,0.04951
5317.55081,0.05019
5315.62207,0.05033
5313.69332,0.04986
5311.76458,0.04924
5309.83583,0.04892
5307.90709,0.04897
5305.97834,0.04893
5304.04959,0.04885
5302.12085,0.04879
5300.19210,0.04811
5298.26336,0.04726
5296.33461,0.04765
5294.40587,0.04884
5292.47712,0.04945
5290.54838,0.04949
5288.61963,0.04978
5286.69089,0.05032
5284.76214,0.05045
5282.83340,0.05007
5280.90465,0.04986
5278.97591,0.05000
5277.04716,0.05004
5275.11842,0.04964
5273.18967,0.04927
5271.26092,0.04956
5269.33218,0.05013
5267.40343,0.05001
5265.47469,0.04922
5263.54594,0.04874
5261.61720,0.04885
5259.68845,0.04884
5257.75971,0.04857
5255.83096,0.04842
5253.90222,0.04820
5251.97347,0.04798
5250.04473,0.04840
5248.11598,0.04922
5246.18724,0.04943
5244.25849,0.04880
5242.32975,0.04790
5240.40100,0.04738
5238.47225,0.04742
5236.54351,0.04771
5234.61476,0.04835
5232.68602,0.04930
5230.75727,0.04965
5228.82853,0.04866
5226.89978,0.04705
5224.97104,0.04607
5223.04229,0.04620
5221.11355,0.04706
5219.18480,0.04790
5217.25606,0.04820
5215.32731,0.04796
5213.39857,0.04761
5211.46982,0.04771
5209.54107,0.04816
5207.61233,0.04836
5205.68358,0.04837
5203.75484,0.04836
5201.82609,0.04840
5199.89735,0.04867
5197.96860,0.04851
5196.03986,0.04785
5194.11111,0.04767
5192.18237,0.04781
5190.25362,0.04772
5188.32488,0.04789
5186.39613,0.04841
5184.46739,0.04837
5182.53864,0.04754
5180.60990,0.04691
5178.68115,0.04688
5176.75240,0.04710
5174.82366,0.04736
5172.89491,0.04751
5170.96617,0.04755
5169.03742,0.04768
5167.10868,0.04802
5165.17993,0.04841
5163.25119,0.04808
5161.32244,0.04739
5159.39370,0.04750
5157.46495,0.04809
5155.53621,0.04839
5153.60746,0.04816
5151.67872,0.04769
5149.74997,0.04771
5147.82123,0.04804
5145.89248,0.04787
5143.96373,0.04752
5142.03499,0.04782
5140.10624,0.04856
5138.17750,0.04893
5136.24875,0.04901
5134.32001,0.04902
5132.39126,0.04830
5130.46252,0.04708
5128.53377,0.04670
5126.60503,0.04728
5124.67628,0.04774
5122.74754,0.04750
5120.81879,0.04703
5118.89005,0.04711
5116.96130,0.04750
5115.03255,0.04781
5113.10381,0.04846
5111.17506,0.04941
5109.24632,0.04979
5107.31757,0.04926
5105.38883,0.04864
5103.46008,0.04880
5101.53134,0.04926
5099.60259,0.04891
5097.67385,0.04787
5095.74510,0.04726
5093.81636,0.04729
5091.88761,0.04744
5089.95887,0.04777
5088.03012,0.04857
5086.10138,0.04963
5084.17263,0.05041
5082.24388,0.05057
5080.31514,0.05028
5078.38639,0.04982
5076.45765,0.04906
5074.52890,0.04819
5072.60016,0.04796
5070.67141,0.04835
5068.74267,0.04864
5066.81392,0.04860
5064.88518,0.04871
5062.95643,0.04945
5061.02769,0.05027
5059.09894,0.05035
5057.17020,0.05010
5055.24145,0.05003
5053.31270,0.04980
5051.38396,0.04934
5049.45521,0.04914
5047.52647,0.04910
5045.59772,0.04868
5043.66898,0.04805
5041.74023,0.04790
5039.81149,0.04834
5037.88274,0.04870
5035.95400,0.04869
5034.02525,0.04862
5032.09651,0.04828
5030.16776,0.04781
5028.23902,0.04795
5026.31027,0.04849
5024.38153,0.04857
5022.45278,0.04828
5020.52403,0.04833
5018.59529,0.04877
5016.66654,0.04890
5014.73780,0.04842
5012.80905,0.04784
5010.88031,0.04787
5008.95156,0.04846
5007.02282,0.04885
5005.09407,0.04879
5003.16533,0.04866
5001.23658,0.04838
4999.30784,0.04793
4997.37909,0.04797
4995.45035,0.04848
4993.52160,0.04882
4991.59286,0.04907
4989.66411,0.04928
4987.73536,0.04921
4985.80662,0.04872
4983.87787,0.04793
4981.94913,0.04753
4980.02038,0.04771
4978.09164,0.04797
4976.16289,0.04820
4974.23415,0.04841
4972.30540,0.04848
4970.37666,0.04864
4968.44791,0.04891
4966.51917,0.04867
4964.59042,0.04798
4962.66168,0.04753
4960.73293,0.04741
4958.80418,0.04748
4956.87544,0.04767
4954.94669,0.04754
4953.01795,0.04733
4951.08920,0.04756
4949.16046,0.04813
4947.23171,0.04882
4945.30297,0.04932
4943.37422,0.04945
4941.44548,0.04942
4939.51673,0.04908
4937.58799,0.04873
4935.65924,0.04891
4933.73050,0.04920
4931.80175,0.04926
4929.87301,0.04923
4927.94426,0.04906
4926.01551,0.04887
4924.08677,0.04888
4922.15802,0.04898
4920.22928,0.04888
4918.30053,0.04850
4916.37179,0.04804
4914.44304,0.04776
4912.51430,0.04791
4910.58555,0.04864
4908.65681,0.04911
4906.72806,0.04841
4904.79932,0.04734
4902.87057,0.04724
4900.94183,0.04810
4899.01308,0.04908
4897.08434,0.04949
4895.15559,0.04915
4893.22684,0.04851
4891.29810,0.04820
4889.36935,0.04812
4887.44061,0.04817
4885.51186,0.04849
4883.58312,0.04873
4881.65437,0.04861
4879.72563,0.04837
4877.79688,0.04817
4875.86814,0.04778
4873.93939,0.04732
4872.01065,0.04746
4870.08190,0.04806
4868.15316,0.04838
4866.22441,0.04823
4864.29566,0.04777
4862.36692,0.04723
4860.43817,0.04700
4858.50943,0.04739
4856.58068,0.04810
4854.65194,0.04844
4852.72319,0.04821
4850.79445,0.04794
4848.86570,0.04801
4846.93696,0.04815
4845.00821,0.04814
4843.07947,0.04819
4841.15072,0.04841
4839.22198,0.04859
4837.29323,0.04849
4835.36449,0.04823
4833.43574,0.04801
4831.50699,0.04763
4829.57825,0.04715
4827.64950,0.04719
4825.72076,0.04750
4823.79201,0.04744
4821.86327,0.04723
4819.93452,0.04706
4818.00578,0.04699
4816.07703,0.04715
4814.14829,0.04751
4812.21954,0.04779
4810.29080,0.04760
4808.36205,0.04711
4806.43331,0.04688
4804.50456,0.04692
4802.57582,0.04704
4800.64707,0.04722
4798.71832,0.04721
4796.78958,0.04693
4794.86083,0.04660
4792.93209,0.04636
4791.00334,0.04632
4789.07460,0.04643
4787.14585,0.04653
4785.21711,0.04660
4783.28836,0.04636
4781.35962,0.04590
4779.43087,0.04580
4777.50213,0.04602
4775.57338,0.04627
4773.64464,0.04638
4771.71589,0.04631
4769.78714,0.04622
4767.85840,0.04640
4765.92965,0.04676
4764.00091,0.04704
4762.07216,0.04732
4760.14342,0.04778
4758.21467,0.04825
4756.28593,0.04833
4754.35718,0.04818
4752.42844,0.04819
4750.49969,0.04799
4748.57095,0.04721
4746.64220,0.04641
4744.71346,0.04604
4742.78471,0.04598
4740.85597,0.04612
4738.92722,0.04617
4736.99847,0.04594
4735.06973,0.04595
4733.14098,0.04610
4731.21224,0.04618
4729.28349,0.04685
4727.35475,0.04781
4725.42600,0.04779
4723.49726,0.04695
4721.56851,0.04654
4719.63977,0.04675
4717.71102,0.04711
4715.78228,0.04749
4713.85353,0.04784
4711.92479,0.04791
4709.99604,0.04774
4708.06729,0.04767
4706.13855,0.04772
4704.20980,0.04755
4702.28106,0.04712
4700.35231,0.04667
4698.42357,0.04656
4696.49482,0.04667
4694.56608,0.04652
4692.63733,0.04639
4690.70859,0.04690
4688.77984,0.04769
4686.85110,0.04796
4684.92235,0.04776
4682.99361,0.04754
4681.06486,0.04729
4679.13612,0.04696
4677.20737,0.04694
4675.27862,0.04732
4673.34988,0.04755
4671.42113,0.04726
4669.49239,0.04670
4667.56364,0.04640
4665.63490,0.04638
4663.70615,0.04663
4661.77741,0.04724
4659.84866,0.04773
4657.91992,0.04766
4655.99117,0.04722
4654.06243,0.04705
4652.13368,0.04744
4650.20494,0.04769
4648.27619,0.04758
4646.34745,0.04756
4644.41870,0.04749
4642.48995,0.04728
4640.56121,0.04722
4638.63246,0.04730
4636.70372,0.04732
4634.77497,0.04735
4632.84623,0.04763
4630.91748,0.04799
4628.98874,0.04800
4627.05999,0.04794
4625.13125,0.04826
4623.20250,0.04853
4621.27376,0.04815
4619.34501,0.04729
4617.41627,0.04677
4615.48752,0.04719
4613.55877,0.04805
4611.63003,0.04853
4609.70128,0.04856
4607.77254,0.04847
4605.84379,0.04853
4603.91505,0.04873
4601.98630,0.04866
4600.05756,0.04818
4598.12881,0.04778
4596.20007,0.04780
4594.27132,0.04813
4592.34258,0.04828
4590.41383,0.04809
4588.48509,0.04800
4586.55634,0.04808
4584.62760,0.04790
4582.69885,0.04765
4580.77010,0.04763
4578.84136,0.04768
4576.91261,0.04785
4574.98387,0.04812
4573.05512,0.04797
4571.12638,0.04739
4569.19763,0.04713
4567.26889,0.04742
4565.34014,0.04790
4563.41140,0.04822
4561.48265,0.04820
4559.55391,0.04814
4557.62516,0.04797
4555.69642,0.04753
4553.76767,0.04732
4551.83893,0.04735
4549.91018,0.04729
4547.98143,0.04743
4546.05269,0.04780
4544.12394,0.04798
4542.19520,0.04777
4540.26645,0.04738
4538.33771,0.04740
4536.40896,0.04793
4534.48022,0.04832
4532.55147,0.04838
4530.62273,0.04852
4528.69398,0.04871
4526.76524,0.04841
4524.83649,0.04770
4522.90775,0.04719
4520.97900,0.04718
4519.05025,0.04764
4517.12151,0.04819
4515.19276,0.04828
4513.26402,0.04796
4511.33527,0.04767
4509.40653,0.04772
4507.47778,0.04803
4505.54904,0.04829
4503.62029,0.04844
4501.69155,0.04844
4499.76280,0.04796
4497.83406,0.04719
4495.90531,0.04685
4493.97657,0.04715
4492.04782,0.04776
4490.11908,0.04803
4488.19033,0.04765
4486.26158,0.04718
4484.33284,0.04722
4482.40409,0.04761
4480.47535,0.04781
4478.54660,0.04775
4476.61786,0.04788
4474.68911,0.04804
4472.76037,0.04789
4470.83162,0.04768
4468.90288,0.04731
4466.97413,0.04665
4465.04539,0.04627
4463.11664,0.04643
4461.18790,0.04678
4459.25915,0.04700
4457.33041,0.04702
4455.40166,0.04676
4453.47291,0.04616
4451.54417,0.04573
4449.61542,0.04582
4447.68668,0.04604
4445.75793,0.04609
4443.82919,0.04591
4441.90044,0.04568
4439.97170,0.04560
4438.04295,0.04560
4436.11421,0.04575
4434.18546,0.04597
4432.25672,0.04606
4430.32797,0.04601
4428.39923,0.04597
4426.47048,0.04612
4424.54173,0.04632
4422.61299,0.04616
4420.68424,0.04575
4418.75550,0.04562
4416.82675,0.04585
4414.89801,0.04623
4412.96926,0.04664
4411.04052,0.04703
4409.11177,0.04721
4407.18303,0.04691
4405.25428,0.04621
4403.32554,0.04573
4401.39679,0.04567
4399.46805,0.04573
4397.53930,0.04569
4395.61056,0.04558
4393.68181,0.04560
4391.75306,0.04581
4389.82432,0.04604
4387.89557,0.04624
4385.96683,0.04626
4384.03808,0.04587
4382.10934,0.04521
4380.18059,0.04468
4378.25185,0.04448
4376.32310,0.04448
4374.39436,0.04470
4372.46561,0.04522
4370.53687,0.04553
4368.60812,0.04519
4366.67938,0.04467
4364.75063,0.04456
4362.82189,0.04478
4360.89314,0.04476
4358.96439,0.04456
4357.03565,0.04471
4355.10690,0.04508
4353.17816,0.04519
4351.24941,0.04502
4349.32067,0.04483
4347.39192,0.04487
4345.46318,0.04510
4343.53443,0.04526
4341.60569,0.04539
4339.67694,0.04553
4337.74820,0.04566
4335.81945,0.04580
4333.89071,0.04587
4331.96196,0.04580
4330.03321,0.04550
4328.10447,0.04497
4326.17572,0.04460
4324.24698,0.04472
4322.31823,0.04506
4320.38949,0.04519
4318.46074,0.04519
4316.53200,0.04539
4314.60325,0.04569
4312.67451,0.04576
4310.74576,0.04562
4308.81702,0.04547
4306.88827,0.04544
4304.95953,0.04556
4303.03078,0.04556
4301.10204,0.04534
4299.17329,0.04512
4297.24454,0.04508
4295.31580,0.04515
4293.38705,0.04510
4291.45831,0.04508
4289.52956,0.04520
4287.60082,0.04513
4285.67207,0.04499
4283.74333,0.04513
4281.81458,0.04546
4279.88584,0.04568
4277.95709,0.04566
4276.02835,0.04560
4274.09960,0.04584
4272.17086,0.04606
4270.24211,0.04585
4268.31336,0.04539
4266.38462,0.04505
4264.45587,0.04503
4262.52713,0.04537
4260.59838,0.04572
4258.66964,0.04561
4256.74089,0.04514
4254.81215,0.04482
4252.88340,0.04490
4250.95466,0.04521
4249.02591,0.04543
4247.09717,0.04551
4245.16842,0.04573
4243.23968,0.04614
4241.31093,0.04638
4239.38219,0.04622
4237.45344,0.04589
4235.52469,0.04568
4233.59595,0.04564
4231.66720,0.04561
4229.73846,0.04542
4227.80971,0.04528
4225.88097,0.04544
4223.95222,0.04580
4222.02348,0.04608
4220.09473,0.04622
4218.16599,0.04621
4216.23724,0.04616
4214.30850,0.04621
4212.37975,0.04621
4210.45101,0.04598
4208.52226,0.04575
4206.59352,0.04560
4204.66477,0.04548
4202.73602,0.04549
4200.80728,0.04562
4198.87853,0.04565
4196.94979,0.04554
4195.02104,0.04554
4193.09230,0.04570
4191.16355,0.04599
4189.23481,0.04619
4187.30606,0.04599
4185.37732,0.04562
4183.44857,0.04544
4181.51983,0.04543
4179.59108,0.04553
4177.66234,0.04570
4175.73359,0.04576
4173.80484,0.04577
4171.87610,0.04590
4169.94735,0.04606
4168.01861,0.04595
4166.08986,0.04561
4164.16112,0.04550
4162.23237,0.04587
4160.30363,0.04642
4158.37488,0.04646
4156.44614,0.04578
4154.51739,0.04518
4152.58865,0.04520
4150.65990,0.04549
4148.73116,0.04564
4146.80241,0.04565
4144.87367,0.04571
4142.94492,0.04572
4141.01617,0.04546
4139.08743,0.04512
4137.15868,0.04507
4135.22994,0.04537
4133.30119,0.04564
4131.37245,0.04546
4129.44370,0.04493
4127.51496,0.04468
4125.58621,0.04507
4123.65747,0.04563
4121.72872,0.04575
4119.79998,0.04548
4117.87123,0.04520
4115.94249,0.04514
4114.01374,0.04519
4112.08500,0.04517
4110.15625,0.04531
4108.22750,0.04550
4106.29876,0.04534
4104.37001,0.04493
4102.44127,0.04460
4100.51252,0.04449
4098.58378,0.04467
4096.65503,0.04490
4094.72629,0.04495
4092.79754,0.04491
4090.86880,0.04484
4088.94005,0.04475
4087.01131,0.04472
4085.08256,0.04462
4083.15382,0.04437
4081.22507,0.04424
4079.29632,0.04449
4077.36758,0.04495
4075.43883,0.04521
4073.51009,0.04510
4071.58134,0.04491
4069.65260,0.04481
4067.72385,0.04463
4065.79511,0.04447
4063.86636,0.04455
4061.93762,0.04469
4060.00887,0.04472
4058.08013,0.04479
4056.15138,0.04497
4054.22264,0.04502
4052.29389,0.04485
4050.36515,0.04473
4048.43640,0.04476
4046.50765,0.04490
4044.57891,0.04493
4042.65016,0.04460
4040.72142,0.04438
4038.79267,0.04463
4036.86393,0.04485
4034.93518,0.04472
4033.00644,0.04466
4031.07769,0.04484
4029.14895,0.04479
4027.22020,0.04444
4025.29146,0.04438
4023.36271,0.04454
4021.43397,0.04450
4019.50522,0.04444
4017.57648,0.04440
4015.64773,0.04413
4013.71898,0.04397
4011.79024,0.04421
4009.86149,0.04451
4007.93275,0.04480
4006.00400,0.04530
4004.07526,0.04556
4002.14651,0.04518
4000.21777,0.04461
3998.28902,0.04436
3996.36028,0.04447
3994.43153,0.04473
3992.50279,0.04489
3990.57404,0.04508
3988.64530,0.04539
3986.71655,0.04561
3984.78780,0.04561
3982.85906,0.04539
3980.93031,0.04499
3979.00157,0.04478
3977.07282,0.04496
3975.14408,0.04514
3973.21533,0.04517
3971.28659,0.04524
3969.35784,0.04516
3967.42910,0.04500
3965.50035,0.04498
3963.57161,0.04483
3961.64286,0.04473
3959.71412,0.04515
3957.78537,0.04563
3955.85663,0.04563
3953.92788,0.04537
3951.99913,0.04506
3950.07039,0.04497
3948.14164,0.04539
3946.21290,0.04577
3944.28415,0.04564
3942.35541,0.04542
3940.42666,0.04525
3938.49792,0.04505
3936.56917,0.04518
3934.64043,0.04560
3932.71168,0.04576
3930.78294,0.04569
3928.85419,0.04568
3926.92545,0.04578
3924.99670,0.04591
3923.06795,0.04598
3921.13921,0.04593
3919.21046,0.04580
3917.28172,0.04558
3915.35297,0.04537
3913.42423,0.04529
3911.49548,0.04542
3909.56674,0.04575
3907.63799,0.04606
3905.70925,0.04619
3903.78050,0.04628
3901.85176,0.04640
3899.92301,0.04646
3897.99427,0.04624
3896.06552,0.04572
3894.13678,0.04543
3892.20803,0.04568
3890.27928,0.04609
3888.35054,0.04620
3886.42179,0.04604
3884.49305,0.04589
3882.56430,0.04592
3880.63556,0.04586
3878.70681,0.04571
3876.77807,0.04590
3874.84932,0.04638
3872.92058,0.04654
3870.99183,0.04633
3869.06309,0.04618
3867.13434,0.04629
3865.20560,0.04656
3863.27685,0.04664
3861.34811,0.04635
3859.41936,0.04594
3857.49061,0.04571
3855.56187,0.04580
3853.63312,0.04618
3851.70438,0.04631
3849.77563,0.04611
3847.84689,0.04603
3845.91814,0.04615
3843.98940,0.04626
3842.06065,0.04628
3840.13191,0.04609
3838.20316,0.04564
3836.27442,0.04533
3834.34567,0.04542
3832.41693,0.04578
3830.48818,0.04623
3828.55943,0.04650
3826.63069,0.04661
3824.70194,0.04665
3822.77320,0.04653
3820.84445,0.04634
3818.91571,0.04618
3816.98696,0.04589
3815.05822,0.04580
3813.12947,0.04608
3811.20073,0.04623
3809.27198,0.04613
3807.34324,0.04617
3805.41449,0.04660
3803.48575,0.04686
3801.55700,0.04640
3799.62826,0.04589
3797.69951,0.04605
3795.77076,0.04634
3793.84202,0.04627
3791.91327,0.04612
3789.98453,0.04614
3788.05578,0.04622
3786.12704,0.04626
3784.19829,0.04638
3782.26955,0.04656
3780.34080,0.04666
3778.41206,0.04671
3776.48331,0.04667
3774.55457,0.04642
3772.62582,0.04613
3770.69708,0.04618
3768.76833,0.04658
3766.83959,0.04671
3764.91084,0.04642
3762.98209,0.04606
3761.05335,0.04586
3759.12460,0.04600
3757.19586,0.04642
3755.26711,0.04671
3753.33837,0.04663
3751.40962,0.04602
3749.48088,0.04539
3747.55213,0.04550
3745.62339,0.04600
3743.69464,0.04632
3741.76590,0.04634
3739.83715,0.04626
3737.90841,0.04620
3735.97966,0.04613
3734.05091,0.04594
3732.12217,0.04585
3730.19342,0.04597
3728.26468,0.04598
3726.33593,0.04566
3724.40719,0.04517
3722.47844,0.04493
3720.54970,0.04520
3718.62095,0.04571
3716.69221,0.04595
3714.76346,0.04589
3712.83472,0.04568
3710.90597,0.04545
3708.97723,0.04529
3707.04848,0.04518
3705.11974,0.04504
3703.19099,0.04483
3701.26224,0.04467
3699.33350,0.04464
3697.40475,0.04462
3695.47601,0.04449
3693.54726,0.04446
3691.61852,0.04467
3689.68977,0.04454
3687.76103,0.04388
3685.83228,0.04368
3683.90354,0.04413
3681.97479,0.04458
3680.04605,0.04453
3678.11730,0.04381
3676.18856,0.04277
3674.25981,0.04234
3672.33107,0.04260
3670.40232,0.04289
3668.47357,0.04295
3666.54483,0.04270
3664.61608,0.04228
3662.68734,0.04205
3660.75859,0.04209
3658.82985,0.04221
3656.90110,0.04230
3654.97236,0.04239
3653.04361,0.04261
3651.11487,0.04275
3649.18612,0.04253
3647.25738,0.04208
3645.32863,0.04166
3643.39989,0.04158
3641.47114,0.04197
3639.54239,0.04241
3637.61365,0.04250
3635.68490,0.04216
3633.75616,0.04161
3631.82741,0.04138
3629.89867,0.04160
3627.96992,0.04184
3626.04118,0.04192
3624.11243,0.04195
3622.18369,0.04200
3620.25494,0.04202
3618.32620,0.04182
3616.39745,0.04153
3614.46871,0.04159
3612.53996,0.04190
3610.61122,0.04188
3608.68247,0.04132
3606.75372,0.04068
3604.82498,0.04052
3602.89623,0.04090
3600.96749,0.04139
3599.03874,0.04143
3597.11000,0.04110
3595.18125,0.04095
3593.25251,0.04102
3591.32376,0.04094
3589.39502,0.04084
3587.46627,0.04099
3585.53753,0.04111
3583.60878,0.04084
3581.68004,0.04040
3579.75129,0.04009
3577.82254,0.04005
3575.89380,0.04036
3573.96505,0.04086
3572.03631,0.04095
3570.10756,0.04045
3568.17882,0.04011
3566.25007,0.04033
3564.32133,0.04045
3562.39258,0.04014
3560.46384,0.03981
3558.53509,0.03979
3556.60635,0.04015
3554.67760,0.04056
3552.74886,0.04047
3550.82011,0.04011
3548.89137,0.03999
3546.96262,0.03989
3545.03387,0.03963
3543.10513,0.03941
3541.17638,0.03931
3539.24764,0.03921
3537.31889,0.03902
3535.39015,0.03898
3533.46140,0.03926
3531.53266,0.03959
3529.60391,0.03965
3527.67517,0.03949
3525.74642,0.03937
3523.81768,0.03943
3521.88893,0.03953
3519.96019,0.03949
3518.03144,0.03924
3516.10270,0.03897
3514.17395,0.03896
3512.24520,0.03908
3510.31646,0.03911
3508.38771,0.03917
3506.45897,0.03925
3504.53022,0.03920
3502.60148,0.03908
3500.67273,0.03892
3498.74399,0.03874
3496.81524,0.03864
3494.88650,0.03875
3492.95775,0.03893
3491.02901,0.03902
3489.10026,0.03908
3487.17152,0.03909
3485.24277,0.03909
3483.31402,0.03917
3481.38528,0.03937
3479.45653,0.03975
3477.52779,0.04010
3475.59904,0.04019
3473.67030,0.04028
3471.74155,0.04059
3469.81281,0.04069
3467.88406,0.04014
3465.95532,0.03940
3464.02657,0.03914
3462.09783,0.03936
3460.16908,0.03972
3458.24034,0.03995
3456.31159,0.03987
3454.38285,0.03953
3452.45410,0.03926
3450.52535,0.03941
3448.59661,0.03995
3446.66786,0.04030
3444.73912,0.04017
3442.81037,0.04002
3440.88163,0.04002
3438.95288,0.04005
3437.02414,0.04023
3435.09539,0.04046
3433.16665,0.04045
3431.23790,0.04028
3429.30916,0.04011
3427.38041,0.04002
3425.45167,0.04015
3423.52292,0.04031
3421.59418,0.04017
3419.66543,0.03984
3417.73668,0.03964
3415.80794,0.03963
3413.87919,0.03977
3411.95045,0.04002
3410.02170,0.04020
3408.09296,0.03991
3406.16421,0.03916
3404.23547,0.03885
3402.30672,0.03933
3400.37798,0.03964
3398.44923,0.03944
3396.52049,0.03939
3394.59174,0.03953
3392.66300,0.03943
3390.73425,0.03912
3388.80550,0.03916
3386.87676,0.03949
3384.94801,0.03938
3383.01927,0.03900
3381.09052,0.03892
3379.16178,0.03895
3377.23303,0.03903
3375.30429,0.03929
3373.37554,0.03946
3371.44680,0.03945
3369.51805,0.03951
3367.58931,0.03969
3365.66056,0.03991
3363.73182,0.03999
3361.80307,0.03980
3359.87433,0.03956
3357.94558,0.03968
3356.01683,0.04016
3354.08809,0.04027
3352.15934,0.03956
3350.23060,0.03883
3348.30185,0.03896
3346.37311,0.03965
3344.44436,0.04011
3342.51562,0.04008
3340.58687,0.03989
3338.65813,0.03980
3336.72938,0.03957
3334.80064,0.03913
3332.87189,0.03888
3330.94315,0.03897
3329.01440,0.03919
3327.08566,0.03930
3325.15691,0.03938
3323.22816,0.03924
3321.29942,0.03872
3319.37067,0.03836
3317.44193,0.03833
3315.51318,0.03840
3313.58444,0.03873
3311.65569,0.03936
3309.72695,0.03990
3307.79820,0.04008
3305.86946,0.03988
3303.94071,0.03951
3302.01197,0.03915
3300.08322,0.03885
3298.15448,0.03869
3296.22573,0.03867
3294.29698,0.03875
3292.36824,0.03910
3290.43949,0.03961
3288.51075,0.03991
3286.58200,0.03982
3284.65326,0.03961
3282.72451,0.03976
3280.79577,0.04003
3278.86702,0.03993
3276.93828,0.03977
3275.00953,0.03995
3273.08079,0.04027
3271.15204,0.04047
3269.22330,0.04031
3267.29455,0.03997
3265.36581,0.03986
3263.43706,0.03987
3261.50831,0.03968
3259.57957,0.03961
3257.65082,0.03987
3255.72208,0.04005
3253.79333,0.03986
3251.86459,0.03968
3249.93584,0.03981
3248.00710,0.03996
3246.07835,0.04006
3244.14961,0.04026
3242.22086,0.04036
3240.29212,0.04021
3238.36337,0.04000
3236.43463,0.03969
3234.50588,0.03919
3232.57713,0.03897
3230.64839,0.03935
3228.71964,0.03973
3226.79090,0.03973
3224.86215,0.03990
3222.93341,0.04031
3221.00466,0.04027
3219.07592,0.03989
3217.14717,0.03981
3215.21843,0.03990
3213.28968,0.03975
3211.36094,0.03948
3209.43219,0.03939
3207.50345,0.03948
3205.57470,0.03969
3203.64596,0.03985
3201.71721,0.03989
3199.78846,0.04009
3197.85972,0.04041
3195.93097,0.04050
3194.00223,0.04055
3192.07348,0.04082
3190.14474,0.04096
3188.21599,0.04075
3186.28725,0.04045
3184.35850,0.04018
3182.42976,0.03981
3180.50101,0.03952
3178.57227,0.03931
3176.64352,0.03900
3174.71478,0.03892
3172.78603,0.03924
3170.85729,0.03964
3168.92854,0.03973
3166.99979,0.03955
3165.07105,0.03956
3163.14230,0.03975
3161.21356,0.03978
3159.28481,0.03979
3157.35607,0.04000
3155.42732,0.04014
3153.49858,0.04005
3151.56983,0.04004
3149.64109,0.04020
3147.71234,0.04015
3145.78360,0.03979
3143.85485,0.03952
3141.92611,0.03946
3139.99736,0.03949
3138.06861,0.03955
3136.13987,0.03939
3134.21112,0.03909
3132.28238,0.03916
3130.35363,0.03950
3128.42489,0.03977
3126.49614,0.04013
3124.56740,0.04066
3122.63865,0.04071
3120.70991,0.04006
3118.78116,0.03948
3116.85242,0.03942
3114.92367,0.03957
3112.99493,0.03974
3111.06618,0.03970
3109.13744,0.03920
3107.20869,0.03884
3105.27994,0.03902
3103.35120,0.03940
3101.42245,0.03965
3099.49371,0.03967
3097.56496,0.03970
3095.63622,0.03988
3093.70747,0.03996
3091.77873,0.03994
3089.84998,0.04005
3087.92124,0.04012
3085.99249,0.03989
3084.06375,0.03955
3082.13500,0.03937
3080.20626,0.03937
3078.27751,0.03942
3076.34877,0.03947
3074.42002,0.03950
3072.49127,0.03937
3070.56253,0.03913
3068.63378,0.03908
3066.70504,0.03922
3064.77629,0.03927
3062.84755,0.03926
3060.91880,0.03932
3058.99006,0.03923
3057.06131,0.03899
3055.13257,0.03898
3053.20382,0.03924
3051.27508,0.03940
3049.34633,0.03936
3047.41759,0.03926
3045.48884,0.03918
3043.56009,0.03907
3041.63135,0.03881
3039.70260,0.03855
3037.77386,0.03850
3035.84511,0.03864
3033.91637,0.03863
3031.98762,0.03838
3030.05888,0.03827
3028.13013,0.03838
3026.20139,0.03832
3024.27264,0.03803
3022.34390,0.03784
3020.41515,0.03774
3018.48641,0.03767
3016.55766,0.03777
3014.62892,0.03790
3012.70017,0.03799
3010.77142,0.03814
3008.84268,0.03818
3006.91393,0.03799
3004.98519,0.03786
3003.05644,0.03778
3001.12770,0.03763
2999.19895,0.03766
2997.27021,0.03794
2995.34146,0.03818
2993.41272,0.03819
2991.48397,0.03822
2989.55523,0.03870
2987.62648,0.03925
2985.69774,0.03917
2983.76899,0.03883
2981.84025,0.03892
2979.91150,0.03917
2977.98275,0.03911
2976.05401,0.03878
2974.12526,0.03836
2972.19652,0.03803
2970.26777,0.03797
2968.33903,0.03808
2966.41028,0.03820
2964.48154,0.03835
2962.55279,0.03854
2960.62405,0.03859
2958.69530,0.03851
2956.76656,0.03853
2954.83781,0.03848
2952.90907,0.03821
2950.98032,0.03793
2949.05157,0.03781
2947.12283,0.03791
2945.19408,0.03824
2943.26534,0.03880
2941.33659,0.03944
2939.40785,0.03974
2937.47910,0.03967
2935.55036,0.03972
2933.62161,0.03999
2931.69287,0.04034
2929.76412,0.04068
2927.83538,0.04106
2925.90663,0.04156
2923.97789,0.04198
2922.04914,0.04221
2920.12040,0.04226
2918.19165,0.04219
2916.26290,0.04215
2914.33416,0.04222
2912.40541,0.04213
2910.47667,0.04171
2908.54792,0.04130
2906.61918,0.04112
2904.69043,0.04107
2902.76169,0.04110
2900.83294,0.04103
2898.90420,0.04092
2896.97545,0.04100
2895.04671,0.04109
2893.11796,0.04072
2891.18922,0.04007
2889.26047,0.03982
2887.33172,0.04004
2885.40298,0.04026
2883.47423,0.04022
2881.54549,0.04008
2879.61674,0.04008
2877.68800,0.04015
2875.75925,0.04011
2873.83051,0.03999
2871.90176,0.03994
2869.97302,0.03996
2868.04427,0.03997
2866.11553,0.03986
2864.18678,0.03976
2862.25804,0.03988
2860.32929,0.04015
2858.40055,0.04030
2856.47180,0.04047
2854.54305,0.04092
2852.61431,0.04148
2850.68556,0.04184
2848.75682,0.04201
2846.82807,0.04201
2844.89933,0.04184
2842.97058,0.04157
2841.04184,0.04134
2839.11309,0.04128
2837.18435,0.04135
2835.25560,0.04129
2833.32686,0.04110
2831.39811,0.04097
2829.46937,0.04100
2827.54062,0.04103
2825.61188,0.04094
2823.68313,0.04092
2821.75438,0.04111
2819.82564,0.04134
2817.89689,0.04146
2815.96815,0.04149
2814.03940,0.04141
2812.11066,0.04122
2810.18191,0.04105
2808.25317,0.04095
2806.32442,0.04090
2804.39568,0.04095
2802.46693,0.04092
2800.53819,0.04068
2798.60944,0.04058
2796.68070,0.04087
2794.75195,0.04123
2792.82320,0.04128
2790.89446,0.04100
2788.96571,0.04081
2787.03697,0.04098
2785.10822,0.04132
2783.17948,0.04147
2781.25073,0.04142
2779.32199,0.04142
2777.39324,0.04160
2775.46450,0.04173
2773.53575,0.04162
2771.60701,0.04145
2769.67826,0.04139
2767.74952,0.04142
2765.82077,0.04139
2763.89203,0.04121
2761.96328,0.04108
2760.03453,0.04121
2758.10579,0.04144
2756.17704,0.04146
2754.24830,0.04132
2752.31955,0.04124
2750.39081,0.04122
2748.46206,0.04121
2746.53332,0.04127
2744.60457,0.04140
2742.67583,0.04139
2740.74708,0.04116
2738.81834,0.04096
2736.88959,0.04086
2734.96085,0.04077
2733.03210,0.04069
2731.10336,0.04065
2729.17461,0.04071
2727.24586,0.04098
2725.31712,0.04124
2723.38837,0.04121
2721.45963,0.04099
2719.53088,0.04087
2717.60214,0.04106
2715.67339,0.04135
2713.74465,0.04139
2711.81590,0.04131
2709.88716,0.04134
2707.95841,0.04131
2706.02967,0.04111
2704.10092,0.04093
2702.17218,0.04088
2700.24343,0.04090
2698.31468,0.04097
2696.38594,0.04100
2694.45719,0.04099
2692.52845,0.04108
2690.59970,0.04117
2688.67096,0.04121
2686.74221,0.04129
2684.81347,0.04126
2682.88472,0.04100
2680.95598,0.04077
2679.02723,0.04073
2677.09849,0.04083
2675.16974,0.04096
2673.24100,0.04094
2671.31225,0.04090
2669.38351,0.04105
2667.45476,0.04130
2665.52601,0.04143
2663.59727,0.04128
2661.66852,0.04096
2659.73978,0.04077
2657.81103,0.04086
2655.88229,0.04109
2653.95354,0.04124
2652.02480,0.04132
2650.09605,0.04138
2648.16731,0.04142
2646.23856,0.04138
2644.30982,0.04121
2642.38107,0.04103
2640.45233,0.04097
2638.52358,0.04099
2636.59484,0.04104
2634.66609,0.04106
2632.73734,0.04099
2630.80860,0.04096
2628.87985,0.04111
2626.95111,0.04129
2625.02236,0.04128
2623.09362,0.04122
2621.16487,0.04134
2619.23613,0.04138
2617.30738,0.04124
2615.37864,0.04118
2613.44989,0.04118
2611.52115,0.04105
2609.59240,0.04090
2607.66366,0.04090
2605.73491,0.04103
2603.80616,0.04122
2601.87742,0.04129
2599.94867,0.04125
2598.01993,0.04122
2596.09118,0.04121
2594.16244,0.04123
2592.23369,0.04121
2590.30495,0.04115
2588.37620,0.04117
2586.44746,0.04125
2584.51871,0.04127
2582.58997,0.04128
2580.66122,0.04132
2578.73248,0.04131
2576.80373,0.04118
2574.87499,0.04099
2572.94624,0.04086
2571.01749,0.04077
2569.08875,0.04067
2567.16000,0.04074
2565.23126,0.04107
2563.30251,0.04139
2561.37377,0.04146
2559.44502,0.04132
2557.51628,0.04116
2555.58753,0.04106
2553.65879,0.04099
2551.73004,0.04095
2549.80130,0.04087
2547.87255,0.04078
2545.94381,0.04083
2544.01506,0.04098
2542.08631,0.04103
2540.15757,0.04096
2538.22882,0.04081
2536.30008,0.04072
2534.37133,0.04077
2532.44259,0.04088
2530.51384,0.04100
2528.58510,0.04107
2526.65635,0.04101
2524.72761,0.04095
2522.79886,0.04101
2520.87012,0.04100
2518.94137,0.04084
2517.01263,0.04076
2515.08388,0.04086
2513.15514,0.04097
2511.22639,0.04104
2509.29764,0.04099
2507.36890,0.04078
2505.44015,0.04065
2503.51141,0.04083
2501.58266,0.04110
2499.65392,0.04123
2497.72517,0.04124
2495.79643,0.04122
2493.86768,0.04125
2491.93894,0.04134
2490.01019,0.04138
2488.08145,0.04124
2486.15270,0.04103
2484.22396,0.04103
2482.29521,0.04115
2480.36647,0.04114
2478.43772,0.04110
2476.50897,0.04108
2474.58023,0.04102
2472.65148,0.04103
2470.72274,0.04110
2468.79399,0.04120
2466.86525,0.04131
2464.93650,0.04122
2463.00776,0.04105
2461.07901,0.04101
2459.15027,0.04101
2457.22152,0.04106
2455.29278,0.04118
2453.36403,0.04122
2451.43529,0.04114
2449.50654,0.04103
2447.57779,0.04102
2445.64905,0.04126
2443.72030,0.04154
2441.79156,0.04142
2439.86281,0.04105
2437.93407,0.04094
2436.00532,0.04103
2434.07658,0.04104
2432.14783,0.04092
2430.21909,0.04079
2428.29034,0.04080
2426.36160,0.04095
2424.43285,0.04109
2422.50411,0.04106
2420.57536,0.04091
2418.64662,0.04078
2416.71787,0.04086
2414.78912,0.04102
2412.86038,0.04101
2410.93163,0.04094
2409.00289,0.04092
2407.07414,0.04088
2405.14540,0.04087
2403.21665,0.04095
2401.28791,0.04106
2399.35916,0.04109
2397.43042,0.04109
2395.50167,0.04115
2393.57293,0.04120
2391.64418,0.04112
2389.71544,0.04104
2387.78669,0.04111
2385.85795,0.04124
2383.92920,0.04133
2382.00045,0.04133
2380.07171,0.04120
2378.14296,0.04115
2376.21422,0.04130
2374.28547,0.04138
2372.35673,0.04129
2370.42798,0.04127
2368.49924,0.04133
2366.57049,0.04130
2364.64175,0.04138
2362.71300,0.04162
2360.78426,0.04183
2358.85551,0.04193
2356.92677,0.04192
2354.99802,0.04177
2353.06927,0.04156
2351.14053,0.04141
2349.21178,0.04132
2347.28304,0.04136
2345.35429,0.04151
2343.42555,0.04162
2341.49680,0.04159
2339.56806,0.04156
2337.63931,0.04168
2335.71057,0.04179
2333.78182,0.04166
2331.85308,0.04145
2329.92433,0.04133
2327.99559,0.04128
2326.06684,0.04130
2324.13810,0.04135
2322.20935,0.04141
2320.28060,0.04146
2318.35186,0.04141
2316.42311,0.04121
2314.49437,0.04101
2312.56562,0.04092
2310.63688,0.04100
2308.70813,0.04122
2306.77939,0.04140
2304.85064,0.04144
2302.92190,0.04142
2300.99315,0.04136
2299.06441,0.04133
2297.13566,0.04144
2295.20692,0.04156
2293.27817,0.04158
2291.34943,0.04145
2289.42068,0.04120
2287.49193,0.04093
2285.56319,0.04079
2283.63444,0.04088
2281.70570,0.04108
2279.77695,0.04120
2277.84821,0.04118
2275.91946,0.04108
2273.99072,0.04107
2272.06197,0.04117
2270.13323,0.04131
2268.20448,0.04140
2266.27574,0.04142
2264.34699,0.04138
2262.41825,0.04138
2260.48950,0.04142
2258.56075,0.04134
2256.63201,0.04113
2254.70326,0.04101
2252.77452,0.04104
2250.84577,0.04106
2248.91703,0.04098
2246.98828,0.04093
2245.05954,0.04102
2243.13079,0.04115
2241.20205,0.04125
2239.27330,0.04128
2237.34456,0.04122
2235.41581,0.04111
2233.48707,0.04102
2231.55832,0.04095
2229.62958,0.04087
2227.70083,0.04077
2225.77208,0.04068
2223.84334,0.04072
2221.91459,0.04087
2219.98585,0.04097
2218.05710,0.04090
2216.12836,0.04082
2214.19961,0.04089
2212.27087,0.04096
2210.34212,0.04104
2208.41338,0.04111
2206.48463,0.04098
2204.55589,0.04075
2202.62714,0.04076
2200.69840,0.04095
2198.76965,0.04109
2196.84090,0.04115
2194.91216,0.04113
2192.98341,0.04105
2191.05467,0.04100
2189.12592,0.04093
2187.19718,0.04078
2185.26843,0.04066
2183.33969,0.04057
2181.41094,0.04047
2179.48220,0.04040
2177.55345,0.04039
2175.62471,0.04043
2173.69596,0.04047
2171.76722,0.04049
2169.83847,0.04050
2167.90973,0.04052
2165.98098,0.04055
2164.05223,0.04058
2162.12349,0.04051
2160.19474,0.04031
2158.26600,0.04000
2156.33725,0.03987
2154.40851,0.03998
2152.47976,0.03994
2150.55102,0.03979
2148.62227,0.03993
2146.69353,0.04023
2144.76478,0.04040
2142.83604,0.04044
2140.90729,0.04034
2138.97855,0.04013
2137.04980,0.03996
2135.12106,0.03986
2133.19231,0.03970
2131.26356,0.03954
2129.33482,0.03957
2127.40607,0.03972
2125.47733,0.03976
2123.54858,0.03969
2121.61984,0.03966
2119.69109,0.03973
2117.76235,0.03981
2115.83360,0.03980
2113.90486,0.03978
2111.97611,0.03980
2110.04737,0.03978
2108.11862,0.03979
2106.18988,0.03987
2104.26113,0.03994
2102.33238,0.03999
2100.40364,0.04003
2098.47489,0.03996
2096.54615,0.03989
2094.61740,0.03990
2092.68866,0.03976
2090.75991,0.03952
2088.83117,0.03947
2086.90242,0.03953
2084.97368,0.03939
2083.04493,0.03921
2081.11619,0.03932
2079.18744,0.03953
2077.25870,0.03958
2075.32995,0.03960
2073.40121,0.03966
2071.47246,0.03965
2069.54371,0.03952
2067.61497,0.03936
2065.68622,0.03929
2063.75748,0.03935
2061.82873,0.03954
2059.89999,0.03982
2057.97124,0.04002
2056.04250,0.03999
2054.11375,0.03969
2052.18501,0.03949
2050.25626,0.03962
2048.32752,0.03967
2046.39877,0.03952
2044.47003,0.03951
2042.54128,0.03971
2040.61254,0.03985
2038.68379,0.03974
2036.75504,0.03960
2034.82630,0.03958
2032.89755,0.03960
2030.96881,0.03961
2029.04006,0.03967
2027.11132,0.03975
2025.18257,0.03976
2023.25383,0.03967
2021.32508,0.03961
2019.39634,0.03962
2017.46759,0.03960
2015.53885,0.03958
2013.61010,0.03957
2011.68136,0.03942
2009.75261,0.03923
2007.82386,0.03926
2005.89512,0.03941
2003.96637,0.03944
2002.03763,0.03934
2000.10888,0.03919
1998.18014,0.03913
1996.25139,0.03929
1994.32265,0.03944
1992.39390,0.03946
1990.46516,0.03943
1988.53641,0.03931
1986.60767,0.03918
1984.67892,0.03921
1982.75018,0.03930
1980.82143,0.03930
1978.89269,0.03926
1976.96394,0.03924
1975.03519,0.03913
1973.10645,0.03896
1971.17770,0.03890
1969.24896,0.03899
1967.32021,0.03907
1965.39147,0.03897
1963.46272,0.03879
1961.53398,0.03867
1959.60523,0.03860
1957.67649,0.03865
1955.74774,0.03883
1953.81900,0.03894
1951.89025,0.03889
1949.96151,0.03884
1948.03276,0.03894
1946.10402,0.03906
1944.17527,0.03905
1942.24652,0.03894
1940.31778,0.03883
1938.38903,0.03876
1936.46029,0.03875
1934.53154,0.03877
1932.60280,0.03885
1930.67405,0.03886
1928.74531,0.03877
1926.81656,0.03865
1924.88782,0.03850
1922.95907,0.03834
1921.03033,0.03835
1919.10158,0.03842
1917.17284,0.03831
1915.24409,0.03814
1913.31534,0.03806
1911.38660,0.03797
1909.45785,0.03787
1907.52911,0.03786
1905.60036,0.03792
1903.67162,0.03791
1901.74287,0.03789
1899.81413,0.03793
1897.88538,0.03796
1895.95664,0.03784
1894.02789,0.03759
1892.09915,0.03741
1890.17040,0.03748
1888.24166,0.03758
1886.31291,0.03752
1884.38417,0.03741
1882.45542,0.03732
1880.52667,0.03715
1878.59793,0.03701
1876.66918,0.03705
1874.74044,0.03711
1872.81169,0.03702
1870.88295,0.03677
1868.95420,0.03646
1867.02546,0.03628
1865.09671,0.03624
1863.16797,0.03613
1861.23922,0.03587
1859.31048,0.03567
1857.38173,0.03569
1855.45299,0.03579
1853.52424,0.03574
1851.59549,0.03558
1849.66675,0.03548
1847.73800,0.03541
1845.80926,0.03526
1843.88051,0.03495
1841.95177,0.03465
1840.02302,0.03443
1838.09428,0.03416
1836.16553,0.03382
1834.23679,0.03352
1832.30804,0.03339
1830.37930,0.03333
1828.45055,0.03319
1826.52181,0.03296
1824.59306,0.03267
1822.66432,0.03242
1820.73557,0.03221
1818.80682,0.03204
1816.87808,0.03181
1814.94933,0.03151
1813.02059,0.03122
1811.09184,0.03086
1809.16310,0.03037
1807.23435,0.02982
1805.30561,0.02938
1803.37686,0.02903
1801.44812,0.02846
1799.51937,0.02764
1797.59063,0.02693
1795.66188,0.02649
1793.73314,0.02601
1791.80439,0.02518
1789.87565,0.02423
1787.94690,0.02349
1786.01815,0.02288
1784.08941,0.02239
1782.16066,0.02239
1780.23192,0.02302
1778.30317,0.02405
1776.37443,0.02533
1774.44568,0.02707
1772.51694,0.02956
1770.58819,0.03274
1768.65945,0.03669
1766.73070,0.04177
1764.80196,0.04793
1762.87321,0.05532
1760.94447,0.06325
1759.01572,0.06979
1757.08697,0.07449
1755.15823,0.07747
1753.22948,0.07877
1751.30074,0.07887
1749.37199,0.07809
1747.44325,0.07661
1745.51450,0.07477
1743.58576,0.07275
1741.65701,0.07034
1739.72827,0.06757
1737.79952,0.06502
1735.87078,0.06272
1733.94203,0.06028
1732.01329,0.05839
1730.08454,0.05721
1728.15580,0.05599
1726.22705,0.05473
1724.29830,0.05363
1722.36956,0.05277
1720.44081,0.05215
1718.51207,0.05171
1716.58332,0.05124
1714.65458,0.05065
1712.72583,0.05005
1710.79709,0.04954
1708.86834,0.04907
1706.93960,0.04842
1705.01085,0.04766
1703.08211,0.04712
1701.15336,0.04674
1699.22462,0.04638
1697.29587,0.04603
1695.36713,0.04553
1693.43838,0.04501
1691.50963,0.04475
1689.58089,0.04444
1687.65214,0.04404
1685.72340,0.04381
1683.79465,0.04367
1681.86591,0.04341
1679.93716,0.04317
1678.00842,0.04310
1676.07967,0.04306
1674.15093,0.04293
1672.22218,0.04279
1670.29344,0.04261
1668.36469,0.04239
1666.43595,0.04220
1664.50720,0.04203
1662.57845,0.04182
1660.64971,0.04173
1658.72096,0.04189
1656.79222,0.04220
1654.86347,0.04255
1652.93473,0.04256
1651.00598,0.04222
1649.07724,0.04203
1647.14849,0.04192
1645.21975,0.04162
1643.29100,0.04126
1641.36226,0.04103
1639.43351,0.04106
1637.50477,0.04131
1635.57602,0.04140
1633.64728,0.04106
1631.71853,0.04068
1629.78978,0.04054
1627.86104,0.04075
1625.93229,0.04103
1624.00355,0.04100
1622.07480,0.04072
1620.14606,0.04057
1618.21731,0.04050
1616.28857,0.04034
1614.35982,0.04019
1612.43108,0.04018
1610.50233,0.04021
1608.57359,0.04013
1606.64484,0.03995
1604.71610,0.03985
1602.78735,0.03973
1600.85861,0.03958
1598.92986,0.03961
1597.00111,0.03969
1595.07237,0.03963
1593.14362,0.03945
1591.21488,0.03923
1589.28613,0.03902
1587.35739,0.03898
1585.42864,0.03912
1583.49990,0.03926
1581.57115,0.03923
1579.64241,0.03906
1577.71366,0.03894
1575.78492,0.03890
1573.85617,0.03893
1571.92743,0.03902
1569.99868,0.03892
1568.06993,0.03858
1566.14119,0.03834
1564.21244,0.03827
1562.28370,0.03830
1560.35495,0.03834
1558.42621,0.03830
1556.49746,0.03812
1554.56872,0.03786
1552.63997,0.03775
1550.71123,0.03789
1548.78248,0.03805
1546.85374,0.03805
1544.92499,0.03798
1542.99625,0.03803
1541.06750,0.03822
1539.13876,0.03823
1537.21001,0.03807
1535.28126,0.03793
1533.35252,0.03773
1531.42377,0.03748
1529.49503,0.03733
1527.56628,0.03721
1525.63754,0.03712
1523.70879,0.03709
1521.78005,0.03705
1519.85130,0.03703
1517.92256,0.03683
1515.99381,0.03641
1514.06507,0.03617
1512.13632,0.03626
1510.20758,0.03650
1508.27883,0.03662
1506.35008,0.03630
1504.42134,0.03580
1502.49259,0.03564
1500.56385,0.03568
1498.63510,0.03566
1496.70636,0.03545
1494.77761,0.03513
1492.84887,0.03497
1490.92012,0.03494
1488.99138,0.03488
1487.06263,0.03479
1485.13389,0.03453
1483.20514,0.03401
1481.27640,0.03343
1479.34765,0.03299
1477.41891,0.03273
1475.49016,0.03266
1473.56141,0.03246
1471.63267,0.03183
1469.70392,0.03127
1467.77518,0.03103
1465.84643,0.03081
1463.91769,0.03066
1461.98894,0.03083
1460.06020,0.03141
1458.13145,0.03262
1456.20271,0.03424
1454.27396,0.03548
1452.34522,0.03648
1450.41647,0.03763
1448.48773,0.03872
1446.55898,0.03919
1444.63024,0.03918
1442.70149,0.03924
1440.77274,0.03932
1438.84400,0.03920
1436.91525,0.03875
1434.98651,0.03798
1433.05776,0.03734
1431.12902,0.03694
1429.20027,0.03656
1427.27153,0.03629
1425.34278,0.03618
1423.41404,0.03607
1421.48529,0.03580
1419.55655,0.03532
1417.62780,0.03484
1415.69906,0.03456
1413.77031,0.03434
1411.84156,0.03401
1409.91282,0.03357
1407.98407,0.03317
1406.05533,0.03286
1404.12658,0.03250
1402.19784,0.03200
1400.26909,0.03154
1398.34035,0.03112
1396.41160,0.03059
1394.48286,0.02999
1392.55411,0.02959
1390.62537,0.02960
1388.69662,0.02997
1386.76788,0.03068
1384.83913,0.03170
1382.91039,0.03279
1380.98164,0.03354
1379.05289,0.03389
1377.12415,0.03400
1375.19540,0.03379
1373.26666,0.03340
1371.33791,0.03321
1369.40917,0.03339
1367.48042,0.03379
1365.55168,0.03418
1363.62293,0.03447
1361.69419,0.03476
1359.76544,0.03512
1357.83670,0.03552
1355.90795,0.03589
1353.97921,0.03626
1352.05046,0.03665
1350.12172,0.03681
1348.19297,0.03663
1346.26422,0.03635
1344.33548,0.03605
1342.40673,0.03572
1340.47799,0.03547
1338.54924,0.03533
1336.62050,0.03515
1334.69175,0.03482
1332.76301,0.03447
1330.83426,0.03422
1328.90552,0.03398
1326.97677,0.03370
1325.04803,0.03347
1323.11928,0.03325
1321.19054,0.03292
1319.26179,0.03274
1317.33304,0.03279
1315.40430,0.03268
1313.47555,0.03243
1311.54681,0.03234
1309.61806,0.03241
1307.68932,0.03248
1305.76057,0.03242
1303.83183,0.03219
1301.90308,0.03194
1299.97434,0.03175
1298.04559,0.03160
1296.11685,0.03150
1294.18810,0.03124
1292.25936,0.03063
1290.33061,0.02978
1288.40187,0.02896
1286.47312,0.02843
1284.54437,0.02822
1282.61563,0.02810
1280.68688,0.02802
1278.75814,0.02808
1276.82939,0.02832
1274.90065,0.02874
1272.97190,0.02936
1271.04316,0.03007
1269.11441,0.03055
1267.18567,0.03086
1265.25692,0.03122
1263.32818,0.03157
1261.39943,0.03179
1259.47069,0.03187
1257.54194,0.03168
1255.61320,0.03116
1253.68445,0.03057
1251.75570,0.03010
1249.82696,0.02975
1247.89821,0.02946
1245.96947,0.02911
1244.04072,0.02863
1242.11198,0.02802
1240.18323,0.02744
1238.25449,0.02696
1236.32574,0.02656
1234.39700,0.02633
1232.46825,0.02623
1230.53951,0.02612
1228.61076,0.02615
1226.68202,0.02637
1224.75327,0.02667
1222.82452,0.02713
1220.89578,0.02804
1218.96703,0.02951
1217.03829,0.03131
1215.10954,0.03307
1213.18080,0.03459
1211.25205,0.03589
1209.32331,0.03699
1207.39456,0.03787
1205.46582,0.03849
1203.53707,0.03881
1201.60833,0.03904
1199.67958,0.03955
1197.75084,0.04063
1195.82209,0.04242
1193.89335,0.04506
1191.96460,0.04869
1190.03585,0.05346
1188.10711,0.05918
1186.17836,0.06491
1184.24962,0.06959
1182.32087,0.07236
1180.39213,0.07260
1178.46338,0.07043
1176.53464,0.06686
1174.60589,0.06288
1172.67715,0.05893
1170.74840,0.05528
1168.81966,0.05202
1166.89091,0.04916
1164.96217,0.04675
1163.03342,0.04468
1161.10467,0.04278
1159.17593,0.04103
1157.24718,0.03925
1155.31844,0.03724
1153.38969,0.03531
1151.46095,0.03369
1149.53220,0.03206
1147.60346,0.03033
1145.67471,0.02911
1143.74597,0.02895
1141.81722,0.02990
1139.88848,0.03197
1137.95973,0.03508
1136.03099,0.03871
1134.10224,0.04215
1132.17350,0.04497
1130.24475,0.04713
1128.31600,0.04861
1126.38726,0.04909
1124.45851,0.04836
1122.52977,0.04688
1120.60102,0.04528
1118.67228,0.04370
1116.74353,0.04218
1114.81479,0.04110
1112.88604,0.04078
1110.95730,0.04130
1109.02855,0.04290
1107.09981,0.04581
1105.17106,0.05002
1103.24232,0.05524
1101.31357,0.06094
1099.38483,0.06664
1097.45608,0.07204
1095.52733,0.07710
1093.59859,0.08181
1091.66984,0.08604
1089.74110,0.08966
1087.81235,0.09249
1085.88361,0.09407
1083.95486,0.09411
1082.02612,0.09288
1080.09737,0.09101
1078.16863,0.08890
1076.23988,0.08657
1074.31114,0.08411
1072.38239,0.08154
1070.45365,0.07858
1068.52490,0.07542
1066.59615,0.07258
1064.66741,0.07021
1062.73866,0.06814
1060.80992,0.06627
1058.88117,0.06496
1056.95243,0.06440
1055.02368,0.06414
1053.09494,0.06395
1051.16619,0.06405
1049.23745,0.06472
1047.30870,0.06569
1045.37996,0.06636
1043.45121,0.06685
1041.52247,0.06749
1039.59372,0.06806
1037.66498,0.06833
1035.73623,0.06846
1033.80748,0.06852
1031.87874,0.06827
1029.94999,0.06788
1028.02125,0.06766
1026.09250,0.06750
1024.16376,0.06751
1022.23501,0.06809
1020.30627,0.06916
1018.37752,0.07015
1016.44878,0.07073
1014.52003,0.07090
1012.59129,0.07087
1010.66254,0.07074
1008.73380,0.07039
1006.80505,0.06975
1004.87631,0.06899
1002.94756,0.06824
1001.01881,0.06741
999.09007,0.06655
997.16132,0.06571
995.23258,0.06476
993.30383,0.06370
991.37509,0.06285
989.44634,0.06245
987.51760,0.06229
985.58885,0.06197
983.66011,0.06148
981.73136,0.06098
979.80262,0.06046
977.87387,0.05983
975.94513,0.05903
974.01638,0.05821
972.08763,0.05756
970.15889,0.05715
968.23014,0.05693
966.30140,0.05654
964.37265,0.05583
962.44391,0.05511
960.51516,0.05468
958.58642,0.05436
956.65767,0.05408
954.72893,0.05408
952.80018,0.05429
950.87144,0.05437
948.94269,0.05426
947.01395,0.05412
945.08520,0.05408
943.15646,0.05413
941.22771,0.05399
939.29896,0.05358
937.37022,0.05310
935.44147,0.05271
933.51273,0.05253
931.58398,0.05255
929.65524,0.05248
927.72649,0.05219
925.79775,0.05182
923.86900,0.05157
921.94026,0.05142
920.01151,0.05120
918.08277,0.05086
916.15402,0.05068
914.22528,0.05084
912.29653,0.05107
910.36779,0.05106
908.43904,0.05081
906.51029,0.05051
904.58155,0.05024
902.65280,0.04995
900.72406,0.04963
898.79531,0.04944
896.86657,0.04940
894.93782,0.04949
893.00908,0.04960
891.08033,0.04949
889.15159,0.04927
887.22284,0.04909
885.29410,0.04879
883.36535,0.04841
881.43661,0.04819
879.50786,0.04797
877.57911,0.04757
875.65037,0.04735
873.72162,0.04757
871.79288,0.04798
869.86413,0.04840
867.93539,0.04890
866.00664,0.04943
864.07790,0.05001
862.14915,0.05063
860.22041,0.05110
858.29166,0.05120
856.36292,0.05090
854.43417,0.05040
852.50543,0.05015
850.57668,0.05015
848.64794,0.05017
846.71919,0.05032
844.79044,0.05050
842.86170,0.05020
840.93295,0.04960
839.00421,0.04944
837.07546,0.04968
835.14672,0.04966
833.21797,0.04952
831.28923,0.04962
829.36048,0.04951
827.43174,0.04911
825.50299,0.04887
823.57425,0.04876
821.64550,0.04856
819.71676,0.04836
817.78801,0.04816
815.85926,0.04782
813.93052,0.04739
812.00177,0.04714
810.07303,0.04719
808.14428,0.04749
806.21554,0.04779
804.28679,0.04766
802.35805,0.04697
800.42930,0.04611
798.50056,0.04577
796.57181,0.04599
794.64307,0.04607
792.71432,0.04595
790.78558,0.04614
788.85683,0.04646
786.92809,0.04631
784.99934,0.04578
783.07059,0.04528
781.14185,0.04503
779.21310,0.04493
777.28436,0.04475
775.35561,0.04443
773.42687,0.04405
771.49812,0.04370
769.56938,0.04354
767.64063,0.04362
765.71189,0.04391
763.78314,0.04424
761.85440,0.04435
759.92565,0.04437
757.99691,0.04460
756.06816,0.04510
754.13942,0.04588
752.21067,0.04690
750.28192,0.04767
748.35318,0.04784
746.42443,0.04763
744.49569,0.04734
742.56694,0.04723
740.63820,0.04741
738.70945,0.04768
736.78071,0.04784
734.85196,0.04771
732.92322,0.04725
730.99447,0.04675
729.06573,0.04634
727.13698,0.04595
725.20824,0.04558
723.27949,0.04518
721.35074,0.04473
719.42200,0.04450
717.49325,0.04485
715.56451,0.04564
713.63576,0.04617
711.70702,0.04598
709.77827,0.04539
707.84953,0.04516
705.92078,0.04545
703.99204,0.04580
702.06329,0.04618
700.13455,0.04656
698.20580,0.04655
696.27706,0.04651
694.34831,0.04684
692.41957,0.04683
690.49082,0.04637
688.56207,0.04614
686.63333,0.04593
684.70458,0.04543
682.77584,0.04525
680.84709,0.04554
678.91835,0.04587
676.98960,0.04640
675.06086,0.04729
673.13211,0.04793
671.20337,0.04812
669.27462,0.04827
667.34588,0.04828
665.41713,0.04784
663.48839,0.04746
661.55964,0.04727
659.63090,0.04672
657.70215,0.04595
655.77340,0.04548
653.84466,0.04542
651.91591,0.04552
649.98717,0.04587
648.05842,0.04674
646.12968,0.04713
644.20093,0.04626
642.27219,0.04536
640.34344,0.04512
638.41470,0.04495
636.48595,0.04449
634.55721,0.04375
632.62846,0.04338
630.69972,0.04396
628.77097,0.04484
626.84222,0.04525
624.91348,0.04537
622.98473,0.04530
621.05599,0.04494
619.12724,0.04471
617.19850,0.04449
615.26975,0.04368
613.34101,0.04263
611.41226,0.04230
609.48352,0.04316
607.55477,0.04435
605.62603,0.04496
603.69728,0.04515
601.76854,0.04501
599.83979,0.04478
