7497.03301,0.04882
7495.10426,0.04493
7493.17552,0.04258
7491.24677,0.04321
7489.31803,0.04785
7487.38928,0.05367
7485.46054,0.05384
7483.53179,0.05053
7481.60305,0.04831
7479.67430,0.04698
7477.74556,0.04554
7475.81681,0.04375
7473.88807,0.04384
7471.95932,0.04682
7470.03057,0.04731
7468.10183,0.04327
7466.17308,0.04005
7464.24434,0.04003
7462.31559,0.03979
7460.38685,0.03950
7458.45810,0.04376
7456.52936,0.05185
7454.60061,0.05724
7452.67187,0.05794
7450.74312,0.05769
7448.81438,0.05924
7446.88563,0.05996
7444.95689,0.05886
7443.02814,0.05950
7441.09940,0.06088
7439.17065,0.05873
7437.24190,0.05510
7435.31316,0.05326
7433.38441,0.05142
7431.45567,0.04887
7429.52692,0.04980
7427.59818,0.05412
7425.66943,0.05638
7423.74069,0.05469
7421.81194,0.05370
7419.88320,0.05500
7417.95445,0.05532
7416.02571,0.05337
7414.09696,0.05280
7412.16822,0.05554
7410.23947,0.05521
7408.31073,0.04968
7406.38198,0.04952
7404.45323,0.05807
7402.52449,0.06290
7400.59574,0.05651
7398.66700,0.04600
7396.73825,0.04007
7394.80951,0.04002
7392.88076,0.04289
7390.95202,0.04747
7389.02327,0.05077
7387.09453,0.04932
7385.16578,0.04671
7383.23704,0.04686
7381.30829,0.04800
7379.37955,0.04789
7377.45080,0.04697
7375.52205,0.04972
7373.59331,0.05475
7371.66456,0.05376
7369.73582,0.04886
7367.80707,0.05180
7365.87833,0.05893
7363.94958,0.06169
7362.02084,0.06313
7360.09209,0.06420
7358.16335,0.06136
7356.23460,0.05715
7354.30586,0.05380
7352.37711,0.05038
7350.44837,0.04977
7348.51962,0.05464
7346.59088,0.05936
7344.66213,0.05856
7342.73338,0.05495
7340.80464,0.05339
7338.87589,0.05331
7336.94715,0.05281
7335.01840,0.05230
7333.08966,0.04964
7331.16091,0.04404
7329.23217,0.04156
7327.30342,0.04545
7325.37468,0.05089
7323.44593,0.05304
7321.51719,0.05148
7319.58844,0.04856
7317.65970,0.04950
7315.73095,0.05249
7313.80221,0.05070
7311.87346,0.04509
7309.94471,0.04122
7308.01597,0.04351
7306.08722,0.04948
7304.15848,0.05042
7302.22973,0.04788
7300.30099,0.04813
7298.37224,0.04958
7296.44350,0.04841
7294.51475,0.04654
7292.58601,0.04600
7290.65726,0.04440
7288.72852,0.04093
7286.79977,0.03998
7284.87103,0.04449
7282.94228,0.04996
7281.01353,0.05135
7279.08479,0.05029
7277.15604,0.04817
7275.22730,0.04833
7273.29855,0.05254
7271.36981,0.05463
7269.44106,0.05336
7267.51232,0.05261
7265.58357,0.05043
7263.65483,0.04699
7261.72608,0.04769
7259.79734,0.05385
7257.86859,0.05987
7255.93985,0.05963
7254.01110,0.05526
7252.08236,0.05415
7250.15361,0.05547
7248.22486,0.05494
7246.29612,0.05511
7244.36737,0.05853
7242.43863,0.05962
7240.50988,0.05470
7238.58114,0.04989
7236.65239,0.04934
7234.72365,0.05006
7232.79490,0.05153
7230.86616,0.05502
7228.93741,0.05702
7227.00867,0.05582
7225.07992,0.05531
7223.15118,0.05521
7221.22243,0.05113
7219.29369,0.04475
7217.36494,0.04342
7215.43619,0.04826
7213.50745,0.05169
7211.57870,0.04964
7209.64996,0.04624
7207.72121,0.04705
7205.79247,0.05354
7203.86372,0.05808
7201.93498,0.05321
7200.00623,0.04583
7198.07749,0.04482
7196.14874,0.04875
7194.22000,0.05411
7192.29125,0.05805
7190.36251,0.05791
7188.43376,0.05536
7186.50501,0.05372
7184.57627,0.05378
7182.64752,0.05493
7180.71878,0.05433
7178.79003,0.05196
7176.86129,0.05175
7174.93254,0.05323
7173.00380,0.05349
7171.07505,0.05368
7169.14631,0.05441
7167.21756,0.05533
7165.28882,0.05610
7163.36007,0.05611
7161.43133,0.05418
7159.50258,0.05044
7157.57384,0.04871
7155.64509,0.05116
7153.71634,0.05271
7151.78760,0.05138
7149.85885,0.04912
7147.93011,0.04549
7146.00136,0.04083
7144.07262,0.04010
7142.14387,0.04343
7140.21513,0.04723
7138.28638,0.05101
7136.35764,0.05427
7134.42889,0.05566
7132.50015,0.05385
7130.57140,0.04934
7128.64266,0.04669
7126.71391,0.04696
7124.78516,0.04709
7122.85642,0.04758
7120.92767,0.05081
7118.99893,0.05485
7117.07018,0.05478
7115.14144,0.05040
7113.21269,0.04785
7111.28395,0.04845
7109.35520,0.05007
7107.42646,0.05124
7105.49771,0.05100
7103.56897,0.05062
7101.64022,0.05240
7099.71148,0.05348
7097.78273,0.05122
7095.85399,0.04952
7093.92524,0.05015
7091.99649,0.04838
7090.06775,0.04462
7088.13900,0.04292
7086.21026,0.04419
7084.28151,0.04701
7082.35277,0.04906
7080.42402,0.04984
7078.49528,0.05047
7076.56653,0.05086
7074.63779,0.05175
7072.70904,0.05213
7070.78030,0.05016
7068.85155,0.04806
7066.92281,0.04964
7064.99406,0.05305
7063.06532,0.05443
7061.13657,0.05320
7059.20782,0.05113
7057.27908,0.04925
7055.35033,0.04774
7053.42159,0.04697
7051.49284,0.04791
7049.56410,0.04956
7047.63535,0.04929
7045.70661,0.04696
7043.77786,0.04626
7041.84912,0.04843
7039.92037,0.05004
7037.99163,0.04859
7036.06288,0.04664
7034.13414,0.04565
7032.20539,0.04527
7030.27664,0.04659
7028.34790,0.04783
7026.41915,0.04602
7024.49041,0.04303
7022.56166,0.04208
7020.63292,0.04400
7018.70417,0.04688
7016.77543,0.04878
7014.84668,0.05015
7012.91794,0.05040
7010.98919,0.04830
7009.06045,0.04742
7007.13170,0.04972
7005.20296,0.05199
7003.27421,0.05157
7001.34547,0.05049
6999.41672,0.05054
6997.48797,0.05101
6995.55923,0.05179
6993.63048,0.05345
6991.70174,0.05364
6989.77299,0.05148
6987.84425,0.04895
6985.91550,0.04759
6983.98676,0.04752
6982.05801,0.04743
6980.12927,0.04698
6978.20052,0.04755
6976.27178,0.04926
6974.34303,0.05016
6972.41429,0.04881
6970.48554,0.04900
6968.55680,0.05173
6966.62805,0.05225
6964.69930,0.05131
6962.77056,0.05335
6960.84181,0.05556
6958.91307,0.05329
6956.98432,0.04961
6955.05558,0.04917
6953.12683,0.04948
6951.19809,0.04815
6949.26934,0.04748
6947.34060,0.04744
6945.41185,0.04638
6943.48311,0.04563
6941.55436,0.04575
6939.62562,0.04758
6937.69687,0.04978
6935.76812,0.04868
6933.83938,0.04777
6931.91063,0.05006
6929.98189,0.05152
6928.05314,0.05002
6926.12440,0.04741
6924.19565,0.04686
6922.26691,0.04799
6920.33816,0.04850
6918.40942,0.04939
6916.48067,0.05161
6914.55193,0.05237
6912.62318,0.04989
6910.69444,0.04705
6908.76569,0.04717
6906.83695,0.04965
6904.90820,0.05225
6902.97945,0.05302
6901.05071,0.05202
6899.12196,0.05054
6897.19322,0.04916
6895.26447,0.04985
6893.33573,0.05307
6891.40698,0.05454
6889.47824,0.05349
6887.54949,0.05291
6885.62075,0.05175
6883.69200,0.04909
6881.76326,0.04736
6879.83451,0.04681
6877.90577,0.04674
6875.97702,0.04829
6874.04828,0.05078
6872.11953,0.05127
6870.19078,0.05042
6868.26204,0.05019
6866.33329,0.05011
6864.40455,0.04947
6862.47580,0.04898
6860.54706,0.04878
6858.61831,0.04772
6856.68957,0.04540
6854.76082,0.04311
6852.83208,0.04248
6850.90333,0.04348
6848.97459,0.04477
6847.04584,0.04653
6845.11710,0.04944
6843.18835,0.05234
6841.25960,0.05377
6839.33086,0.05318
6837.40211,0.04983
6835.47337,0.04666
6833.54462,0.04604
6831.61588,0.04613
6829.68713,0.04685
6827.75839,0.04943
6825.82964,0.05204
6823.90090,0.05232
6821.97215,0.05090
6820.04341,0.04932
6818.11466,0.04784
6816.18592,0.04832
6814.25717,0.04982
6812.32843,0.04871
6810.39968,0.04665
6808.47093,0.04768
6806.54219,0.05101
6804.61344,0.05286
6802.68470,0.05189
6800.75595,0.05011
6798.82721,0.04993
6796.89846,0.05110
6794.96972,0.05165
6793.04097,0.05133
6791.11223,0.05080
6789.18348,0.05126
6787.25474,0.05222
6785.32599,0.05123
6783.39725,0.04955
6781.46850,0.05046
6779.53975,0.05181
6777.61101,0.04972
6775.68226,0.04675
6773.75352,0.04760
6771.82477,0.05000
6769.89603,0.04978
6767.96728,0.04713
6766.03854,0.04546
6764.10979,0.04554
6762.18105,0.04554
6760.25230,0.04513
6758.32356,0.04511
6756.39481,0.04472
6754.46607,0.04463
6752.53732,0.04674
6750.60858,0.04973
6748.67983,0.05059
6746.75108,0.04918
6744.82234,0.04680
6742.89359,0.04506
6740.96485,0.04422
6739.03610,0.04357
6737.10736,0.04429
6735.17861,0.04731
6733.24987,0.04909
6731.32112,0.04778
6729.39238,0.04817
6727.46363,0.05074
6725.53489,0.05036
6723.60614,0.04757
6721.67740,0.04570
6719.74865,0.04552
6717.81991,0.04681
6715.89116,0.04840
6713.96241,0.04984
6712.03367,0.05156
6710.10492,0.05254
6708.17618,0.05238
6706.24743,0.05051
6704.31869,0.04645
6702.38994,0.04376
6700.46120,0.04554
6698.53245,0.04873
6696.60371,0.04964
6694.67496,0.04864
6692.74622,0.04774
6690.81747,0.04737
6688.88873,0.04802
6686.95998,0.04911
6685.03123,0.04882
6683.10249,0.04872
6681.17374,0.05076
6679.24500,0.05188
6677.31625,0.05041
6675.38751,0.04904
6673.45876,0.04849
6671.53002,0.04788
6669.60127,0.04791
6667.67253,0.04782
6665.74378,0.04767
6663.81504,0.04876
6661.88629,0.05034
6659.95755,0.05158
6658.02880,0.05291
6656.10006,0.05264
6654.17131,0.05043
6652.24256,0.05010
6650.31382,0.05279
6648.38507,0.05298
6646.45633,0.04804
6644.52758,0.04382
6642.59884,0.04522
6640.67009,0.04930
6638.74135,0.05137
6636.81260,0.05046
6634.88386,0.04931
6632.95511,0.04889
6631.02637,0.04801
6629.09762,0.04618
6627.16888,0.04400
6625.24013,0.04329
6623.31139,0.04599
6621.38264,0.04923
6619.45389,0.04967
6617.52515,0.04791
6615.59640,0.04729
6613.66766,0.04928
6611.73891,0.05144
6609.81017,0.05082
6607.88142,0.04850
6605.95268,0.04767
6604.02393,0.04943
6602.09519,0.05105
6600.16644,0.05017
6598.23770,0.04758
6596.30895,0.04598
6594.38021,0.04778
6592.45146,0.05095
6590.52271,0.05116
6588.59397,0.04903
6586.66522,0.04740
6584.73648,0.04622
6582.80773,0.04627
6580.87899,0.04895
6578.95024,0.05092
6577.02150,0.04983
6575.09275,0.04813
6573.16401,0.04675
6571.23526,0.04602
6569.30652,0.04720
6567.37777,0.04819
6565.44903,0.04841
6563.52028,0.04999
6561.59154,0.05160
6559.66279,0.05149
6557.73404,0.05161
6555.80530,0.05308
6553.87655,0.05359
6551.94781,0.05238
6550.01906,0.05143
6548.09032,0.04984
6546.16157,0.04658
6544.23283,0.04465
6542.30408,0.04589
6540.37534,0.04859
6538.44659,0.05035
6536.51785,0.04998
6534.58910,0.04796
6532.66036,0.04626
6530.73161,0.04644
6528.80287,0.04722
6526.87412,0.04773
6524.94537,0.04845
6523.01663,0.04871
6521.08788,0.04843
6519.15914,0.04822
6517.23039,0.04759
6515.30165,0.04670
6513.37290,0.04598
6511.44416,0.04617
6509.51541,0.04748
6507.58667,0.04864
6505.65792,0.04892
6503.72918,0.04898
6501.80043,0.04897
6499.87169,0.04852
6497.94294,0.04780
6496.01419,0.04804
6494.08545,0.04960
6492.15670,0.05187
6490.22796,0.05297
6488.29921,0.05221
6486.37047,0.05218
6484.44172,0.05257
6482.51298,0.05015
6480.58423,0.04631
6478.65549,0.04438
6476.72674,0.04434
6474.79800,0.04522
6472.86925,0.04712
6470.94051,0.04876
6469.01176,0.04925
6467.08302,0.04979
6465.15427,0.05000
6463.22552,0.04863
6461.29678,0.04630
6459.36803,0.04438
6457.43929,0.04470
6455.51054,0.04755
6453.58180,0.05003
6451.65305,0.05087
6449.72431,0.05169
6447.79556,0.05250
6445.86682,0.05251
6443.93807,0.05151
6442.00933,0.04889
6440.08058,0.04566
6438.15184,0.04473
6436.22309,0.04685
6434.29434,0.05015
6432.36560,0.05271
6430.43685,0.05355
6428.50811,0.05275
6426.57936,0.05151
6424.65062,0.05056
6422.72187,0.04941
6420.79313,0.04880
6418.86438,0.04947
6416.93564,0.04948
6415.00689,0.04843
6413.07815,0.04845
6411.14940,0.05020
6409.22066,0.05067
6407.29191,0.04809
6405.36317,0.04630
6403.43442,0.04770
6401.50567,0.04969
6399.57693,0.04994
6397.64818,0.04779
6395.71944,0.04453
6393.79069,0.04282
6391.86195,0.04317
6389.93320,0.04448
6388.00446,0.04640
6386.07571,0.04799
6384.14697,0.04942
6382.21822,0.05106
6380.28948,0.05130
6378.36073,0.05118
6376.43199,0.05200
6374.50324,0.05179
6372.57450,0.05056
6370.64575,0.04977
6368.71700,0.05037
6366.78826,0.05196
6364.85951,0.05262
6362.93077,0.05129
6361.00202,0.04858
6359.07328,0.04598
6357.14453,0.04558
6355.21579,0.04717
6353.28704,0.04769
6351.35830,0.04604
6349.42955,0.04544
6347.50081,0.04676
6345.57206,0.04729
6343.64332,0.04718
6341.71457,0.04844
6339.78582,0.04963
6337.85708,0.04950
6335.92833,0.04941
6333.99959,0.04912
6332.07084,0.04833
6330.14210,0.04801
6328.21335,0.04706
6326.28461,0.04626
6324.35586,0.04757
6322.42712,0.04948
6320.49837,0.04984
6318.56963,0.04852
6316.64088,0.04737
6314.71214,0.04794
6312.78339,0.04846
6310.85465,0.04735
6308.92590,0.04611
6306.99715,0.04621
6305.06841,0.04738
6303.13966,0.04903
6301.21092,0.05034
6299.28217,0.05064
6297.35343,0.05005
6295.42468,0.04928
6293.49594,0.04856
6291.56719,0.04789
6289.63845,0.04821
6287.70970,0.04958
6285.78096,0.04974
6283.85221,0.04821
6281.92347,0.04763
6279.99472,0.04902
6278.06598,0.05019
6276.13723,0.04961
6274.20848,0.04774
6272.27974,0.04583
6270.35099,0.04507
6268.42225,0.04557
6266.49350,0.04650
6264.56476,0.04765
6262.63601,0.04890
6260.70727,0.04947
6258.77852,0.04907
6256.84978,0.04831
6254.92103,0.04782
6252.99229,0.04804
6251.06354,0.04821
6249.13480,0.04688
6247.20605,0.04563
6245.27730,0.04689
6243.34856,0.04918
6241.41981,0.05058
6239.49107,0.05080
6237.56232,0.05041
6235.63358,0.05013
6233.70483,0.04911
6231.77609,0.04710
6229.84734,0.04541
6227.91860,0.04500
6225.98985,0.04583
6224.06111,0.04670
6222.13236,0.04716
6220.20362,0.04673
6218.27487,0.04493
6216.34613,0.04425
6214.41738,0.04677
6212.48863,0.04956
6210.55989,0.04962
6208.63114,0.04821
6206.70240,0.04745
6204.77365,0.04724
6202.84491,0.04677
6200.91616,0.04629
6198.98742,0.04661
6197.05867,0.04751
6195.12993,0.04810
6193.20118,0.04824
6191.27244,0.04902
6189.34369,0.05079
6187.41495,0.05197
6185.48620,0.05132
6183.55746,0.04933
6181.62871,0.04754
6179.69996,0.04746
6177.77122,0.04888
6175.84247,0.05010
6173.91373,0.04990
6171.98498,0.04894
6170.05624,0.04859
6168.12749,0.04874
6166.19875,0.04844
6164.27000,0.04856
6162.34126,0.04950
6160.41251,0.04944
6158.48377,0.04832
6156.55502,0.04718
6154.62628,0.04572
6152.69753,0.04474
6150.76878,0.04447
6148.84004,0.04460
6146.91129,0.04629
6144.98255,0.04890
6143.05380,0.05019
6141.12506,0.04999
6139.19631,0.04929
6137.26757,0.04885
6135.33882,0.04919
6133.41008,0.05075
6131.48133,0.05272
6129.55259,0.05304
6127.62384,0.05104
6125.69510,0.04850
6123.76635,0.04702
6121.83761,0.04706
6119.90886,0.04809
6117.98011,0.04869
6116.05137,0.04823
6114.12262,0.04735
6112.19388,0.04725
6110.26513,0.04879
6108.33639,0.05059
6106.40764,0.05046
6104.47890,0.04964
6102.55015,0.04977
6100.62141,0.04922
6098.69266,0.04837
6096.76392,0.04902
6094.83517,0.04940
6092.90643,0.04829
6090.97768,0.04730
6089.04893,0.04756
6087.12019,0.04858
6085.19144,0.04900
6083.26270,0.04772
6081.33395,0.04609
6079.40521,0.04705
6077.47646,0.04970
6075.54772,0.05109
6073.61897,0.05108
6071.69023,0.04982
6069.76148,0.04774
6067.83274,0.04699
6065.90399,0.04782
6063.97525,0.04855
6062.04650,0.04828
6060.11776,0.04707
6058.18901,0.04611
6056.26026,0.04688
6054.33152,0.04892
6052.40277,0.05057
6050.47403,0.05074
6048.54528,0.04966
6046.61654,0.04894
6044.68779,0.04896
6042.75905,0.04847
6040.83030,0.04796
6038.90156,0.04842
6036.97281,0.04904
6035.04407,0.04887
6033.11532,0.04840
6031.18658,0.04824
6029.25783,0.04822
6027.32909,0.04773
6025.40034,0.04690
6023.47159,0.04678
6021.54285,0.04752
6019.61410,0.04782
6017.68536,0.04780
6015.75661,0.04774
6013.82787,0.04674
6011.89912,0.04583
6009.97038,0.04658
6008.04163,0.04803
6006.11289,0.04898
6004.18414,0.04943
6002.25540,0.04946
6000.32665,0.04837
5998.39791,0.04677
5996.46916,0.04644
5994.54041,0.04685
5992.61167,0.04699
5990.68292,0.04815
5988.75418,0.05016
5986.82543,0.05087
5984.89669,0.05064
5982.96794,0.05105
5981.03920,0.05129
5979.11045,0.05014
5977.18171,0.04839
5975.25296,0.04762
5973.32422,0.04809
5971.39547,0.04902
5969.46673,0.04976
5967.53798,0.04950
5965.60924,0.04873
5963.68049,0.04935
5961.75174,0.05061
5959.82300,0.05070
5957.89425,0.05027
5955.96551,0.05027
5954.03676,0.05039
5952.10802,0.05035
5950.17927,0.05025
5948.25053,0.04941
5946.32178,0.04703
5944.39304,0.04464
5942.46429,0.04391
5940.53555,0.04425
5938.60680,0.04511
5936.67806,0.04604
5934.74931,0.04629
5932.82057,0.04648
5930.89182,0.04679
5928.96307,0.04620
5927.03433,0.04574
5925.10558,0.04717
5923.17684,0.04972
5921.24809,0.05108
5919.31935,0.04983
5917.39060,0.04764
5915.46186,0.04694
5913.53311,0.04711
5911.60437,0.04690
5909.67562,0.04677
5907.74688,0.04707
5905.81813,0.04721
5903.88939,0.04707
5901.96064,0.04729
5900.03189,0.04765
5898.10315,0.04774
5896.17440,0.04787
5894.24566,0.04835
5892.31691,0.04919
5890.38817,0.05021
5888.45942,0.05093
5886.53068,0.05058
5884.60193,0.04911
5882.67319,0.04847
5880.74444,0.04936
5878.81570,0.04970
5876.88695,0.04861
5874.95821,0.04710
5873.02946,0.04574
5871.10072,0.04508
5869.17197,0.04560
5867.24322,0.04669
5865.31448,0.04781
5863.38573,0.04913
5861.45699,0.04997
5859.52824,0.05002
5857.59950,0.05011
5855.67075,0.05029
5853.74201,0.04964
5851.81326,0.04783
5849.88452,0.04616
5847.95577,0.04640
5846.02703,0.04804
5844.09828,0.04934
5842.16954,0.04948
5840.24079,0.04861
5838.31205,0.04749
5836.38330,0.04670
5834.45455,0.04649
5832.52581,0.04703
5830.59706,0.04780
5828.66832,0.04827
5826.73957,0.04827
5824.81083,0.04812
5822.88208,0.04846
5820.95334,0.04885
5819.02459,0.04884
5817.09585,0.04853
5815.16710,0.04809
5813.23836,0.04820
5811.30961,0.04889
5809.38087,0.04920
5807.45212,0.04916
5805.52337,0.04951
5803.59463,0.04995
5801.66588,0.04984
5799.73714,0.04961
5797.80839,0.04991
5795.87965,0.05000
5793.95090,0.04902
5792.02216,0.04796
5790.09341,0.04816
5788.16467,0.04894
5786.23592,0.04931
5784.30718,0.04925
5782.37843,0.04880
5780.44969,0.04845
5778.52094,0.04857
5776.59220,0.04902
5774.66345,0.04967
5772.73470,0.04947
5770.80596,0.04815
5768.87721,0.04768
5766.94847,0.04813
5765.01972,0.04804
5763.09098,0.04806
5761.16223,0.04859
5759.23349,0.04857
5757.30474,0.04769
5755.37600,0.04697
5753.44725,0.04710
5751.51851,0.04764
5749.58976,0.04767
5747.66102,0.04687
5745.73227,0.04653
5743.80352,0.04750
5741.87478,0.04854
5739.94603,0.04899
5738.01729,0.04917
5736.08854,0.04911
5734.15980,0.04886
5732.23105,0.04820
5730.30231,0.04798
5728.37356,0.04894
5726.44482,0.04959
5724.51607,0.04942
5722.58733,0.04914
5720.65858,0.04855
5718.72984,0.04759
5716.80109,0.04708
5714.87235,0.04758
5712.94360,0.04832
5711.01485,0.04815
5709.08611,0.04740
5707.15736,0.04699
5705.22862,0.04674
5703.29987,0.04672
5701.37113,0.04773
5699.44238,0.04937
5697.51364,0.05023
5695.58489,0.04973
5693.65615,0.04880
5691.72740,0.04869
5689.79866,0.04933
5687.86991,0.04980
5685.94117,0.04964
5684.01242,0.04897
5682.08368,0.04842
5680.15493,0.04814
5678.22618,0.04774
5676.29744,0.04720
5674.36869,0.04713
5672.43995,0.04788
5670.51120,0.04890
5668.58246,0.04961
5666.65371,0.04990
5664.72497,0.04942
5662.79622,0.04851
5660.86748,0.04819
5658.93873,0.04805
5657.00999,0.04746
5655.08124,0.04695
5653.15250,0.04647
5651.22375,0.04620
5649.29500,0.04716
5647.36626,0.04864
5645.43751,0.04930
5643.50877,0.04975
5641.58002,0.05041
5639.65128,0.05044
5637.72253,0.04993
5635.79379,0.04937
5633.86504,0.04890
5631.93630,0.04886
5630.00755,0.04926
5628.07881,0.04959
5626.15006,0.04956
5624.22132,0.04989
5622.29257,0.05064
5620.36383,0.05085
5618.43508,0.05086
5616.50633,0.05149
5614.57759,0.05147
5612.64884,0.04937
5610.72010,0.04726
5608.79135,0.04774
5606.86261,0.04933
5604.93386,0.04953
5603.00512,0.04839
5601.07637,0.04730
5599.14763,0.04709
5597.21888,0.04738
5595.29014,0.04755
5593.36139,0.04756
5591.43265,0.04774
5589.50390,0.04819
5587.57516,0.04855
5585.64641,0.04866
5583.71766,0.04860
5581.78892,0.04824
5579.86017,0.04740
5577.93143,0.04688
5576.00268,0.04758
5574.07394,0.04839
5572.14519,0.04809
5570.21645,0.04735
5568.28770,0.04715
5566.35896,0.04776
5564.43021,0.04872
5562.50147,0.04924
5560.57272,0.04899
5558.64398,0.04868
5556.71523,0.04904
5554.78648,0.04936
5552.85774,0.04903
5550.92899,0.04838
5549.00025,0.04781
5547.07150,0.04780
5545.14276,0.04813
5543.21401,0.04838
5541.28527,0.04889
5539.35652,0.04959
5537.42778,0.04999
5535.49903,0.04992
5533.57029,0.04951
5531.64154,0.04902
5529.71280,0.04903
5527.78405,0.04992
5525.85531,0.05084
5523.92656,0.05059
5521.99781,0.04887
5520.06907,0.04682
5518.14032,0.04632
5516.21158,0.04738
5514.28283,0.04787
5512.35409,0.04719
5510.42534,0.04749
5508.49660,0.04918
5506.56785,0.04982
5504.63911,0.04900
5502.71036,0.04826
5500.78162,0.04812
5498.85287,0.04840
5496.92413,0.04875
5494.99538,0.04907
5493.06664,0.05021
5491.13789,0.05167
5489.20914,0.05181
5487.28040,0.05110
5485.35165,0.05056
5483.42291,0.04969
5481.49416,0.04885
5479.56542,0.04894
5477.63667,0.04953
5475.70793,0.04985
5473.77918,0.04953
5471.85044,0.04860
5469.92169,0.04784
5467.99295,0.04796
5466.06420,0.04868
5464.13546,0.04922
5462.20671,0.04949
5460.27796,0.04990
5458.34922,0.04987
5456.42047,0.04889
5454.49173,0.04817
5452.56298,0.04852
5450.63424,0.04858
5448.70549,0.04753
5446.77675,0.04683
5444.84800,0.04743
5442.91926,0.04830
5440.99051,0.04861
5439.06177,0.04857
5437.13302,0.04858
5435.20428,0.04921
5433.27553,0.05016
5431.34679,0.05027
5429.41804,0.04903
5427.48929,0.04737
5425.56055,0.04700
5423.63180,0.04821
5421.70306,0.04937
5419.77431,0.04960
5417.84557,0.04940
5415.91682,0.04932
5413.98808,0.04923
5412.05933,0.04883
5410.13059,0.04846
5408.20184,0.04857
5406.27310,0.04912
5404.34435,0.05002
5402.41561,0.05082
5400.48686,0.05083
5398.55811,0.05010
5396.62937,0.04915
5394.70062,0.04860
5392.77188,0.04880
5390.84313,0.04945
5388.91439,0.05013
5386.98564,0.05042
5385.05690,0.04993
5383.12815,0.04872
5381.19941,0.04768
5379.27066,0.04764
5377.34192,0.04831
5375.41317,0.04911
5373.48443,0.04992
5371.55568,0.04989
5369.62694,0.04896
5367.69819,0.04868
5365.76944,0.04956
5363.84070,0.05061
5361.91195,0.05096
5359.98321,0.05024
5358.05446,0.04913
5356.12572,0.04841
5354.19697,0.04777
5352.26823,0.04707
5350.33948,0.04641
5348.41074,0.04596
5346.48199,0.04640
5344.55325,0.04785
5342.62450,0.04904
5340.69576,0.04936
5338.76701,0.04979
5336.83827,0.05049
5334.90952,0.05064
5332.98077,0.05038
5331.05203,0.04989
5329.12328,0.04926
5327.19454,0.04904
5325.26579,0.04922
5323.33705,0.04934
5321.40830,0.04918
5319.47956,0.04866
5317.55081,0.04811
5315.62207,0.04776
5313.69332,0.04767
5311.76458,0.04825
5309.83583,0.04953
5307.90709,0.05054
5305.97834,0.05015
5304.04959,0.04903
5302.12085,0.04891
5300.19210,0.04958
5298.26336,0.04980
5296.33461,0.04961
5294.40587,0.04943
5292.47712,0.04936
5290.54838,0.04917
5288.61963,0.04855
5286.69089,0.04775
5284.76214,0.04756
5282.83340,0.04826
5280.90465,0.04904
5278.97591,0.04959
5277.04716,0.05026
5275.11842,0.05018
5273.18967,0.04877
5271.26092,0.04727
5269.33218,0.04686
5267.40343,0.04733
5265.47469,0.04766
5263.54594,0.04745
5261.61720,0.04740
5259.68845,0.04753
5257.75971,0.04728
5255.83096,0.04679
5253.90222,0.04680
5251.97347,0.04807
5250.04473,0.04982
5248.11598,0.05038
5246.18724,0.04967
5244.25849,0.04885
5242.32975,0.04848
5240.40100,0.04823
5238.47225,0.04791
5236.54351,0.04809
5234.61476,0.04883
5232.68602,0.04920
5230.75727,0.04860
5228.82853,0.04771
5226.89978,0.04790
5224.97104,0.04906
5223.04229,0.04979
5221.11355,0.04969
5219.18480,0.04911
5217.25606,0.04825
5215.32731,0.04759
5213.39857,0.04777
5211.46982,0.04849
5209.54107,0.04866
5207.61233,0.04803
5205.68358,0.04717
5203.75484,0.04642
5201.82609,0.04624
5199.89735,0.04728
5197.96860,0.04863
5196.03986,0.04857
5194.11111,0.04766
5192.18237,0.04748
5190.25362,0.04749
5188.32488,0.04712
5186.39613,0.04717
5184.46739,0.04783
5182.53864,0.04841
5180.60990,0.04842
5178.68115,0.04822
5176.75240,0.04846
5174.82366,0.04866
5172.89491,0.04827
5170.96617,0.04795
5169.03742,0.04825
5167.10868,0.04857
5165.17993,0.04825
5163.25119,0.04786
5161.32244,0.04813
5159.39370,0.04846
5157.46495,0.04820
5155.53621,0.04751
5153.60746,0.04700
5151.67872,0.04710
5149.74997,0.04759
5147.82123,0.04784
5145.89248,0.04790
5143.96373,0.04828
5142.03499,0.04865
5140.10624,0.04846
5138.17750,0.04806
5136.24875,0.04810
5134.32001,0.04851
5132.39126,0.04866
5130.46252,0.04852
5128.53377,0.04835
5126.60503,0.04799
5124.67628,0.04746
5122.74754,0.04716
5120.81879,0.04741
5118.89005,0.04810
5116.96130,0.04846
5115.03255,0.04776
5113.10381,0.04659
5111.17506,0.04623
5109.24632,0.04687
5107.31757,0.04767
5105.38883,0.04808
5103.46008,0.04816
5101.53134,0.04792
5099.60259,0.04777
5097.67385,0.04821
5095.74510,0.04876
5093.81636,0.04885
5091.88761,0.04873
5089.95887,0.04849
5088.03012,0.04802
5086.10138,0.04762
5084.17263,0.04775
5082.24388,0.04814
5080.31514,0.04802
5078.38639,0.04784
5076.45765,0.04842
5074.52890,0.04919
5072.60016,0.04952
5070.67141,0.04944
5068.74267,0.04890
5066.81392,0.04820
5064.88518,0.04792
5062.95643,0.04816
5061.02769,0.04849
5059.09894,0.04857
5057.17020,0.04883
5055.24145,0.04931
5053.31270,0.04914
5051.38396,0.04816
5049.45521,0.04705
5047.52647,0.04641
5045.59772,0.04656
5043.66898,0.04698
5041.74023,0.04719
5039.81149,0.04780
5037.88274,0.04871
5035.95400,0.04899
5034.02525,0.04891
5032.09651,0.04887
5030.16776,0.04847
5028.23902,0.04758
5026.31027,0.04685
5024.38153,0.04701
5022.45278,0.04780
5020.52403,0.04838
5018.59529,0.04857
5016.66654,0.04870
5014.73780,0.04880
5012.80905,0.04830
5010.88031,0.04757
5008.95156,0.04731
5007.02282,0.04733
5005.09407,0.04780
5003.16533,0.04880
5001.23658,0.04956
4999.30784,0.05000
4997.37909,0.05024
4995.45035,0.04982
4993.52160,0.04900
4991.59286,0.04856
4989.66411,0.04838
4987.73536,0.04811
4985.80662,0.04809
4983.87787,0.04849
4981.94913,0.04865
4980.02038,0.04843
4978.09164,0.04850
4976.16289,0.04903
4974.23415,0.04940
4972.30540,0.04882
4970.37666,0.04759
4968.44791,0.04697
4966.51917,0.04713
4964.59042,0.04756
4962.66168,0.04812
4960.73293,0.04858
4958.80418,0.04863
4956.87544,0.04843
4954.94669,0.04856
4953.01795,0.04908
4951.08920,0.04946
4949.16046,0.04937
4947.23171,0.04894
4945.30297,0.04869
4943.37422,0.04872
4941.44548,0.04851
4939.51673,0.04808
4937.58799,0.04790
4935.65924,0.04798
4933.73050,0.04801
4931.80175,0.04778
4929.87301,0.04750
4927.94426,0.04773
4926.01551,0.04829
4924.08677,0.04847
4922.15802,0.04820
4920.22928,0.04775
4918.30053,0.04736
4916.37179,0.04715
4914.44304,0.04703
4912.51430,0.04675
4910.58555,0.04644
4908.65681,0.04671
4906.72806,0.04763
4904.79932,0.04856
4902.87057,0.04927
4900.94183,0.04947
4899.01308,0.04884
4897.08434,0.04829
4895.15559,0.04837
4893.22684,0.04830
4891.29810,0.04785
4889.36935,0.04752
4887.44061,0.04737
4885.51186,0.04731
4883.58312,0.04728
4881.65437,0.04724
4879.72563,0.04750
4877.79688,0.04800
4875.86814,0.04805
4873.93939,0.04755
4872.01065,0.04706
4870.08190,0.04705
4868.15316,0.04756
4866.22441,0.04794
4864.29566,0.04775
4862.36692,0.04733
4860.43817,0.04736
4858.50943,0.04767
4856.58068,0.04759
4854.65194,0.04746
4852.72319,0.04750
4850.79445,0.04707
4848.86570,0.04644
4846.93696,0.04658
4845.00821,0.04746
4843.07947,0.04817
4841.15072,0.04793
4839.22198,0.04705
4837.29323,0.04673
4835.36449,0.04728
4833.43574,0.04811
4831.50699,0.04846
4829.57825,0.04801
4827.64950,0.04752
4825.72076,0.04751
4823.79201,0.04752
4821.86327,0.04728
4819.93452,0.04702
4818.00578,0.04685
4816.07703,0.04682
4814.14829,0.04721
4812.21954,0.04773
4810.29080,0.04751
4808.36205,0.04690
4806.43331,0.04696
4804.50456,0.04751
4802.57582,0.04782
4800.64707,0.04790
4798.71832,0.04774
4796.78958,0.04740
4794.86083,0.04748
4792.93209,0.04773
4791.00334,0.04763
4789.07460,0.04751
4787.14585,0.04739
4785.21711,0.04698
4783.28836,0.04669
4781.35962,0.04674
4779.43087,0.04687
4777.50213,0.04702
4775.57338,0.04718
4773.64464,0.04708
4771.71589,0.04673
4769.78714,0.04675
4767.85840,0.04727
4765.92965,0.04737
4764.00091,0.04706
4762.07216,0.04727
4760.14342,0.04749
4758.21467,0.04679
4756.28593,0.04600
4754.35718,0.04587
4752.42844,0.04584
4750.49969,0.04571
4748.57095,0.04588
4746.64220,0.04640
4744.71346,0.04660
4742.78471,0.04633
4740.85597,0.04630
4738.92722,0.04672
4736.99847,0.04705
4735.06973,0.04696
4733.14098,0.04659
4731.21224,0.04632
4729.28349,0.04627
4727.35475,0.04641
4725.42600,0.04679
4723.49726,0.04723
4721.56851,0.04744
4719.63977,0.04742
4717.71102,0.04728
4715.78228,0.04700
4713.85353,0.04668
4711.92479,0.04680
4709.99604,0.04752
4708.06729,0.04789
4706.13855,0.04724
4704.20980,0.04649
4702.28106,0.04669
4700.35231,0.04744
4698.42357,0.04785
4696.49482,0.04753
4694.56608,0.04686
4692.63733,0.04675
4690.70859,0.04708
4688.77984,0.04692
4686.85110,0.04618
4684.92235,0.04566
4682.99361,0.04601
4681.06486,0.04680
4679.13612,0.04710
4677.20737,0.04690
4675.27862,0.04684
4673.34988,0.04711
4671.42113,0.04752
4669.49239,0.04766
4667.56364,0.04730
4665.63490,0.04698
4663.70615,0.04702
4661.77741,0.04700
4659.84866,0.04708
4657.91992,0.04759
4655.99117,0.04765
4654.06243,0.04703
4652.13368,0.04698
4650.20494,0.04757
4648.27619,0.04770
4646.34745,0.04736
4644.41870,0.04721
4642.48995,0.04722
4640.56121,0.04701
4638.63246,0.04681
4636.70372,0.04709
4634.77497,0.04748
4632.84623,0.04743
4630.91748,0.04730
4628.98874,0.04747
4627.05999,0.04778
4625.13125,0.04806
4623.20250,0.04812
4621.27376,0.04773
4619.34501,0.04709
4617.41627,0.04677
4615.48752,0.04690
4613.55877,0.04703
4611.63003,0.04689
4609.70128,0.04682
4607.77254,0.04721
4605.84379,0.04769
4603.91505,0.04770
4601.98630,0.04746
4600.05756,0.04734
4598.12881,0.04739
4596.20007,0.04763
4594.27132,0.04773
4592.34258,0.04748
4590.41383,0.04724
4588.48509,0.04724
4586.55634,0.04735
4584.62760,0.04736
4582.69885,0.04710
4580.77010,0.04675
4578.84136,0.04663
4576.91261,0.04672
4574.98387,0.04685
4573.05512,0.04706
4571.12638,0.04748
4569.19763,0.04794
4567.26889,0.04804
4565.34014,0.04752
4563.41140,0.04685
4561.48265,0.04676
4559.55391,0.04723
4557.62516,0.04765
4555.69642,0.04771
4553.76767,0.04744
4551.83893,0.04721
4549.91018,0.04725
4547.98143,0.04744
4546.05269,0.04762
4544.12394,0.04785
4542.19520,0.04800
4540.26645,0.04785
4538.33771,0.04767
4536.40896,0.04763
4534.48022,0.04733
4532.55147,0.04690
4530.62273,0.04685
4528.69398,0.04722
4526.76524,0.04765
4524.83649,0.04777
4522.90775,0.04771
4520.97900,0.04789
4519.05025,0.04803
4517.12151,0.04766
4515.19276,0.04725
4513.26402,0.04729
4511.33527,0.04747
4509.40653,0.04750
4507.47778,0.04747
4505.54904,0.04754
4503.62029,0.04765
4501.69155,0.04754
4499.76280,0.04729
4497.83406,0.04724
4495.90531,0.04738
4493.97657,0.04754
4492.04782,0.04778
4490.11908,0.04802
4488.19033,0.04796
4486.26158,0.04778
4484.33284,0.04768
4482.40409,0.04738
4480.47535,0.04698
4478.54660,0.04680
4476.61786,0.04676
4474.68911,0.04672
4472.76037,0.04686
4470.83162,0.04718
4468.90288,0.04739
4466.97413,0.04722
4465.04539,0.04696
4463.11664,0.04705
4461.18790,0.04694
4459.25915,0.04613
4457.33041,0.04540
4455.40166,0.04543
4453.47291,0.04582
4451.54417,0.04596
4449.61542,0.04572
4447.68668,0.04530
4445.75793,0.04511
4443.82919,0.04535
4441.90044,0.04556
4439.97170,0.04546
4438.04295,0.04541
4436.11421,0.04558
4434.18546,0.04585
4432.25672,0.04603
4430.32797,0.04592
4428.39923,0.04580
4426.47048,0.04598
4424.54173,0.04624
4422.61299,0.04632
4420.68424,0.04609
4418.75550,0.04580
4416.82675,0.04565
4414.89801,0.04547
4412.96926,0.04520
4411.04052,0.04489
4409.11177,0.04490
4407.18303,0.04541
4405.25428,0.04573
4403.32554,0.04545
4401.39679,0.04532
4399.46805,0.04561
4397.53930,0.04574
4395.61056,0.04577
4393.68181,0.04597
4391.75306,0.04610
4389.82432,0.04612
4387.89557,0.04606
4385.96683,0.04575
4384.03808,0.04532
4382.10934,0.04505
4380.18059,0.04490
4378.25185,0.04473
4376.32310,0.04444
4374.39436,0.04416
4372.46561,0.04422
4370.53687,0.04447
4368.60812,0.04453
4366.67938,0.04454
4364.75063,0.04470
4362.82189,0.04474
4360.89314,0.04466
4358.96439,0.04476
4357.03565,0.04500
4355.10690,0.04509
4353.17816,0.04499
4351.24941,0.04490
4349.32067,0.04481
4347.39192,0.04498
4345.46318,0.04545
4343.53443,0.04545
4341.60569,0.04503
4339.67694,0.04500
4337.74820,0.04528
4335.81945,0.04545
4333.89071,0.04552
4331.96196,0.04540
4330.03321,0.04523
4328.10447,0.04519
4326.17572,0.04511
4324.24698,0.04502
4322.31823,0.04533
4320.38949,0.04573
4318.46074,0.04557
4316.53200,0.04507
4314.60325,0.04478
4312.67451,0.04465
4310.74576,0.04464
4308.81702,0.04487
4306.88827,0.04503
4304.95953,0.04481
4303.03078,0.04459
4301.10204,0.04453
4299.17329,0.04439
4297.24454,0.04445
4295.31580,0.04498
4293.38705,0.04547
4291.45831,0.04534
4289.52956,0.04491
4287.60082,0.04488
4285.67207,0.04510
4283.74333,0.04525
4281.81458,0.04531
4279.88584,0.04510
4277.95709,0.04495
4276.02835,0.04525
4274.09960,0.04565
4272.17086,0.04561
4270.24211,0.04521
4268.31336,0.04491
4266.38462,0.04489
4264.45587,0.04498
4262.52713,0.04502
4260.59838,0.04509
4258.66964,0.04538
4256.74089,0.04582
4254.81215,0.04605
4252.88340,0.04586
4250.95466,0.04543
4249.02591,0.04521
4247.09717,0.04514
4245.16842,0.04500
4243.23968,0.04511
4241.31093,0.04553
4239.38219,0.04562
4237.45344,0.04530
4235.52469,0.04505
4233.59595,0.04513
4231.66720,0.04542
4229.73846,0.04577
4227.80971,0.04595
4225.88097,0.04572
4223.95222,0.04537
4222.02348,0.04549
4220.09473,0.04587
4218.16599,0.04573
4216.23724,0.04524
4214.30850,0.04514
4212.37975,0.04544
4210.45101,0.04586
4208.52226,0.04605
4206.59352,0.04567
4204.66477,0.04511
4202.73602,0.04503
4200.80728,0.04539
4198.87853,0.04572
4196.94979,0.04586
4195.02104,0.04597
4193.09230,0.04604
4191.16355,0.04598
4189.23481,0.04584
4187.30606,0.04568
4185.37732,0.04547
4183.44857,0.04552
4181.51983,0.04588
4179.59108,0.04590
4177.66234,0.04545
4175.73359,0.04531
4173.80484,0.04567
4171.87610,0.04573
4169.94735,0.04543
4168.01861,0.04536
4166.08986,0.04551
4164.16112,0.04559
4162.23237,0.04543
4160.30363,0.04527
4158.37488,0.04531
4156.44614,0.04533
4154.51739,0.04526
4152.58865,0.04539
4150.65990,0.04568
4148.73116,0.04581
4146.80241,0.04558
4144.87367,0.04506
4142.94492,0.04475
4141.01617,0.04501
4139.08743,0.04553
4137.15868,0.04577
4135.22994,0.04560
4133.30119,0.04530
4131.37245,0.04501
4129.44370,0.04483
4127.51496,0.04491
4125.58621,0.04501
4123.65747,0.04484
4121.72872,0.04456
4119.79998,0.04445
4117.87123,0.04465
4115.94249,0.04507
4114.01374,0.04541
4112.08500,0.04550
4110.15625,0.04559
4108.22750,0.04565
4106.29876,0.04546
4104.37001,0.04525
4102.44127,0.04523
4100.51252,0.04536
4098.58378,0.04547
4096.65503,0.04543
4094.72629,0.04531
4092.79754,0.04515
4090.86880,0.04494
4088.94005,0.04488
4087.01131,0.04491
4085.08256,0.04474
4083.15382,0.04454
4081.22507,0.04472
4079.29632,0.04509
4077.36758,0.04507
4075.43883,0.04461
4073.51009,0.04448
4071.58134,0.04497
4069.65260,0.04541
4067.72385,0.04541
4065.79511,0.04531
4063.86636,0.04522
4061.93762,0.04476
4060.00887,0.04414
4058.08013,0.04400
4056.15138,0.04431
4054.22264,0.04446
4052.29389,0.04426
4050.36515,0.04402
4048.43640,0.04378
4046.50765,0.04367
4044.57891,0.04417
4042.65016,0.04480
4040.72142,0.04468
4038.79267,0.04414
4036.86393,0.04400
4034.93518,0.04426
4033.00644,0.04455
4031.07769,0.04465
4029.14895,0.04454
4027.22020,0.04431
4025.29146,0.04409
4023.36271,0.04408
4021.43397,0.04446
4019.50522,0.04487
4017.57648,0.04502
4015.64773,0.04514
4013.71898,0.04521
4011.79024,0.04492
4009.86149,0.04452
4007.93275,0.04462
4006.00400,0.04502
4004.07526,0.04512
4002.14651,0.04485
4000.21777,0.04452
3998.28902,0.04442
3996.36028,0.04459
3994.43153,0.04474
3992.50279,0.04478
3990.57404,0.04474
3988.64530,0.04466
3986.71655,0.04474
3984.78780,0.04491
3982.85906,0.04491
3980.93031,0.04491
3979.00157,0.04487
3977.07282,0.04470
3975.14408,0.04476
3973.21533,0.04504
3971.28659,0.04516
3969.35784,0.04511
3967.42910,0.04499
3965.50035,0.04503
3963.57161,0.04521
3961.64286,0.04524
3959.71412,0.04517
3957.78537,0.04510
3955.85663,0.04499
3953.92788,0.04477
3951.99913,0.04467
3950.07039,0.04494
3948.14164,0.04521
3946.21290,0.04505
3944.28415,0.04480
3942.35541,0.04483
3940.42666,0.04495
3938.49792,0.04493
3936.56917,0.04493
3934.64043,0.04518
3932.71168,0.04550
3930.78294,0.04566
3928.85419,0.04575
3926.92545,0.04576
3924.99670,0.04561
3923.06795,0.04539
3921.13921,0.04519
3919.21046,0.04510
3917.28172,0.04519
3915.35297,0.04535
3913.42423,0.04553
3911.49548,0.04559
3909.56674,0.04538
3907.63799,0.04525
3905.70925,0.04542
3903.78050,0.04549
3901.85176,0.04541
3899.92301,0.04548
3897.99427,0.04562
3896.06552,0.04557
3894.13678,0.04536
3892.20803,0.04526
3890.27928,0.04546
3888.35054,0.04579
3886.42179,0.04594
3884.49305,0.04577
3882.56430,0.04552
3880.63556,0.04543
3878.70681,0.04545
3876.77807,0.04549
3874.84932,0.04562
3872.92058,0.04591
3870.99183,0.04626
3869.06309,0.04651
3867.13434,0.04656
3865.20560,0.04644
3863.27685,0.04621
3861.34811,0.04605
3859.41936,0.04614
3857.49061,0.04647
3855.56187,0.04669
3853.63312,0.04637
3851.70438,0.04603
3849.77563,0.04621
3847.84689,0.04645
3845.91814,0.04641
3843.98940,0.04622
3842.06065,0.04636
3840.13191,0.04678
3838.20316,0.04682
3836.27442,0.04642
3834.34567,0.04620
3832.41693,0.04608
3830.48818,0.04577
3828.55943,0.04555
3826.63069,0.04572
3824.70194,0.04613
3822.77320,0.04630
3820.84445,0.04587
3818.91571,0.04542
3816.98696,0.04556
3815.05822,0.04608
3813.12947,0.04632
3811.20073,0.04611
3809.27198,0.04582
3807.34324,0.04572
3805.41449,0.04586
3803.48575,0.04609
3801.55700,0.04617
3799.62826,0.04608
3797.69951,0.04599
3795.77076,0.04595
3793.84202,0.04587
3791.91327,0.04565
3789.98453,0.04545
3788.05578,0.04554
3786.12704,0.04579
3784.19829,0.04589
3782.26955,0.04589
3780.34080,0.04603
3778.41206,0.04630
3776.48331,0.04631
3774.55457,0.04603
3772.62582,0.04594
3770.69708,0.04611
3768.76833,0.04613
3766.83959,0.04600
3764.91084,0.04604
3762.98209,0.04626
3761.05335,0.04641
3759.12460,0.04616
3757.19586,0.04564
3755.26711,0.04531
3753.33837,0.04528
3751.40962,0.04531
3749.48088,0.04544
3747.55213,0.04582
3745.62339,0.04630
3743.69464,0.04645
3741.76590,0.04620
3739.83715,0.04610
3737.90841,0.04611
3735.97966,0.04580
3734.05091,0.04529
3732.12217,0.04503
3730.19342,0.04508
3728.26468,0.04522
3726.33593,0.04510
3724.40719,0.04484
3722.47844,0.04493
3720.54970,0.04536
3718.62095,0.04572
3716.69221,0.04581
3714.76346,0.04575
3712.83472,0.04560
3710.90597,0.04541
3708.97723,0.04537
3707.04848,0.04536
3705.11974,0.04520
3703.19099,0.04493
3701.26224,0.04460
3699.33350,0.04441
3697.40475,0.04446
3695.47601,0.04462
3693.54726,0.04491
3691.61852,0.04513
3689.68977,0.04485
3687.76103,0.04432
3685.83228,0.04406
3683.90354,0.04369
3681.97479,0.04310
3680.04605,0.04275
3678.11730,0.04263
3676.18856,0.04244
3674.25981,0.04252
3672.33107,0.04275
3670.40232,0.04251
3668.47357,0.04209
3666.54483,0.04208
3664.61608,0.04222
3662.68734,0.04213
3660.75859,0.04184
3658.82985,0.04166
3656.90110,0.04173
3654.97236,0.04198
3653.04361,0.04207
3651.11487,0.04184
3649.18612,0.04159
3647.25738,0.04156
3645.32863,0.04155
3643.39989,0.04144
3641.47114,0.04137
3639.54239,0.04138
3637.61365,0.04137
3635.68490,0.04130
3633.75616,0.04110
3631.82741,0.04082
3629.89867,0.04090
3627.96992,0.04153
3626.04118,0.04201
3624.11243,0.04209
3622.18369,0.04226
3620.25494,0.04255
3618.32620,0.04237
3616.39745,0.04178
3614.46871,0.04143
3612.53996,0.04138
3610.61122,0.04134
3608.68247,0.04122
3606.75372,0.04093
3604.82498,0.04071
3602.89623,0.04098
3600.96749,0.04140
3599.03874,0.04126
3597.11000,0.04082
3595.18125,0.04065
3593.25251,0.04075
3591.32376,0.04115
3589.39502,0.04155
3587.46627,0.04129
3585.53753,0.04070
3583.60878,0.04041
3581.68004,0.04033
3579.75129,0.04032
3577.82254,0.04036
3575.89380,0.04040
3573.96505,0.04052
3572.03631,0.04077
3570.10756,0.04087
3568.17882,0.04066
3566.25007,0.04033
3564.32133,0.04002
3562.39258,0.03987
3560.46384,0.04011
3558.53509,0.04024
3556.60635,0.03995
3554.67760,0.03977
3552.74886,0.03969
3550.82011,0.03947
3548.89137,0.03953
3546.96262,0.03985
3545.03387,0.03991
3543.10513,0.03962
3541.17638,0.03930
3539.24764,0.03911
3537.31889,0.03915
3535.39015,0.03942
3533.46140,0.03967
3531.53266,0.03964
3529.60391,0.03946
3527.67517,0.03935
3525.74642,0.03929
3523.81768,0.03920
3521.88893,0.03899
3519.96019,0.03870
3518.03144,0.03863
3516.10270,0.03884
3514.17395,0.03899
3512.24520,0.03901
3510.31646,0.03905
3508.38771,0.03890
3506.45897,0.03850
3504.53022,0.03815
3502.60148,0.03809
3500.67273,0.03830
3498.74399,0.03847
3496.81524,0.03849
3494.88650,0.03866
3492.95775,0.03913
3491.02901,0.03947
3489.10026,0.03934
3487.17152,0.03900
3485.24277,0.03895
3483.31402,0.03939
3481.38528,0.04002
3479.45653,0.04027
3477.52779,0.03988
3475.59904,0.03927
3473.67030,0.03903
3471.74155,0.03919
3469.81281,0.03939
3467.88406,0.03947
3465.95532,0.03964
3464.02657,0.04000
3462.09783,0.04013
3460.16908,0.03964
3458.24034,0.03900
3456.31159,0.03877
3454.38285,0.03897
3452.45410,0.03933
3450.52535,0.03954
3448.59661,0.03940
3446.66786,0.03924
3444.73912,0.03955
3442.81037,0.04006
3440.88163,0.04018
3438.95288,0.03986
3437.02414,0.03952
3435.09539,0.03952
3433.16665,0.03977
3431.23790,0.03985
3429.30916,0.03981
3427.38041,0.03994
3425.45167,0.04003
3423.52292,0.03975
3421.59418,0.03939
3419.66543,0.03944
3417.73668,0.03972
3415.80794,0.03986
3413.87919,0.03991
3411.95045,0.03982
3410.02170,0.03952
3408.09296,0.03938
3406.16421,0.03954
3404.23547,0.03974
3402.30672,0.03980
3400.37798,0.03974
3398.44923,0.03978
3396.52049,0.04007
3394.59174,0.04038
3392.66300,0.04032
3390.73425,0.03979
3388.80550,0.03926
3386.87676,0.03924
3384.94801,0.03967
3383.01927,0.03990
3381.09052,0.03965
3379.16178,0.03943
3377.23303,0.03950
3375.30429,0.03970
3373.37554,0.03978
3371.44680,0.03966
3369.51805,0.03969
3367.58931,0.03992
3365.66056,0.04001
3363.73182,0.03986
3361.80307,0.03974
3359.87433,0.03965
3357.94558,0.03955
3356.01683,0.03967
3354.08809,0.03985
3352.15934,0.03975
3350.23060,0.03958
3348.30185,0.03964
3346.37311,0.03981
3344.44436,0.03981
3342.51562,0.03968
3340.58687,0.03966
3338.65813,0.03970
3336.72938,0.03963
3334.80064,0.03958
3332.87189,0.03968
3330.94315,0.03979
3329.01440,0.03982
3327.08566,0.03975
3325.15691,0.03950
3323.22816,0.03922
3321.29942,0.03912
3319.37067,0.03923
3317.44193,0.03939
3315.51318,0.03949
3313.58444,0.03959
3311.65569,0.03965
3309.72695,0.03951
3307.79820,0.03910
3305.86946,0.03865
3303.94071,0.03850
3302.01197,0.03842
3300.08322,0.03852
3298.15448,0.03908
3296.22573,0.03962
3294.29698,0.03964
3292.36824,0.03942
3290.43949,0.03932
3288.51075,0.03940
3286.58200,0.03950
3284.65326,0.03945
3282.72451,0.03930
3280.79577,0.03913
3278.86702,0.03903
3276.93828,0.03903
3275.00953,0.03914
3273.08079,0.03938
3271.15204,0.03974
3269.22330,0.04011
3267.29455,0.04033
3265.36581,0.04020
3263.43706,0.03994
3261.50831,0.03985
3259.57957,0.03991
3257.65082,0.04010
3255.72208,0.04040
3253.79333,0.04056
3251.86459,0.04049
3249.93584,0.04032
3248.00710,0.04012
3246.07835,0.04013
3244.14961,0.04049
3242.22086,0.04069
3240.29212,0.04048
3238.36337,0.04009
3236.43463,0.03989
3234.50588,0.04030
3232.57713,0.04101
3230.64839,0.04117
3228.71964,0.04058
3226.79090,0.03982
3224.86215,0.03955
3222.93341,0.03965
3221.00466,0.03976
3219.07592,0.03988
3217.14717,0.03990
3215.21843,0.03972
3213.28968,0.03968
3211.36094,0.03991
3209.43219,0.04008
3207.50345,0.04007
3205.57470,0.04000
3203.64596,0.03997
3201.71721,0.04004
3199.78846,0.04020
3197.85972,0.04020
3195.93097,0.04010
3194.00223,0.04020
3192.07348,0.04028
3190.14474,0.04017
3188.21599,0.04015
3186.28725,0.04015
3184.35850,0.03991
3182.42976,0.03978
3180.50101,0.03989
3178.57227,0.03977
3176.64352,0.03948
3174.71478,0.03943
3172.78603,0.03964
3170.85729,0.03987
3168.92854,0.03996
3166.99979,0.03991
3165.07105,0.03984
3163.14230,0.03991
3161.21356,0.04014
3159.28481,0.04018
3157.35607,0.03998
3155.42732,0.03991
3153.49858,0.04006
3151.56983,0.04002
3149.64109,0.03958
3147.71234,0.03915
3145.78360,0.03919
3143.85485,0.03961
3141.92611,0.04000
3139.99736,0.04007
3138.06861,0.03996
3136.13987,0.03998
3134.21112,0.04011
3132.28238,0.03998
3130.35363,0.03959
3128.42489,0.03928
3126.49614,0.03919
3124.56740,0.03935
3122.63865,0.03988
3120.70991,0.04043
3118.78116,0.04055
3116.85242,0.04037
3114.92367,0.04013
3112.99493,0.03980
3111.06618,0.03953
3109.13744,0.03940
3107.20869,0.03941
3105.27994,0.03955
3103.35120,0.03972
3101.42245,0.03976
3099.49371,0.03968
3097.56496,0.03957
3095.63622,0.03943
3093.70747,0.03927
3091.77873,0.03919
3089.84998,0.03925
3087.92124,0.03935
3085.99249,0.03945
3084.06375,0.03957
3082.13500,0.03963
3080.20626,0.03956
3078.27751,0.03943
3076.34877,0.03930
3074.42002,0.03923
3072.49127,0.03927
3070.56253,0.03929
3068.63378,0.03919
3066.70504,0.03916
3064.77629,0.03929
3062.84755,0.03928
3060.91880,0.03906
3058.99006,0.03894
3057.06131,0.03903
3055.13257,0.03923
3053.20382,0.03933
3051.27508,0.03927
3049.34633,0.03925
3047.41759,0.03938
3045.48884,0.03941
3043.56009,0.03931
3041.63135,0.03927
3039.70260,0.03926
3037.77386,0.03914
3035.84511,0.03894
3033.91637,0.03871
3031.98762,0.03851
3030.05888,0.03843
3028.13013,0.03835
3026.20139,0.03819
3024.27264,0.03800
3022.34390,0.03786
3020.41515,0.03794
3018.48641,0.03814
3016.55766,0.03810
3014.62892,0.03780
3012.70017,0.03758
3010.77142,0.03742
3008.84268,0.03725
3006.91393,0.03722
3004.98519,0.03732
3003.05644,0.03746
3001.12770,0.03758
2999.19895,0.03773
2997.27021,0.03804
2995.34146,0.03834
2993.41272,0.03850
2991.48397,0.03866
2989.55523,0.03889
2987.62648,0.03902
2985.69774,0.03897
2983.76899,0.03882
2981.84025,0.03863
2979.91150,0.03846
2977.98275,0.03832
2976.05401,0.03815
2974.12526,0.03811
2972.19652,0.03818
2970.26777,0.03809
2968.33903,0.03795
2966.41028,0.03808
2964.48154,0.03837
2962.55279,0.03855
2960.62405,0.03856
2958.69530,0.03845
2956.76656,0.03830
2954.83781,0.03823
2952.90907,0.03825
2950.98032,0.03819
2949.05157,0.03818
2947.12283,0.03837
2945.19408,0.03868
2943.26534,0.03895
2941.33659,0.03911
2939.40785,0.03929
2937.47910,0.03960
2935.55036,0.04002
2933.62161,0.04045
2931.69287,0.04073
2929.76412,0.04074
2927.83538,0.04069
2925.90663,0.04104
2923.97789,0.04168
2922.04914,0.04214
2920.12040,0.04238
2918.19165,0.04257
2916.26290,0.04257
2914.33416,0.04227
2912.40541,0.04196
2910.47667,0.04166
2908.54792,0.04130
2906.61918,0.04115
2904.69043,0.04119
2902.76169,0.04104
2900.83294,0.04077
2898.90420,0.04069
2896.97545,0.04073
2895.04671,0.04066
2893.11796,0.04043
2891.18922,0.04010
2889.26047,0.03991
2887.33172,0.04004
2885.40298,0.04024
2883.47423,0.04019
2881.54549,0.04004
2879.61674,0.03998
2877.68800,0.03983
2875.75925,0.03965
2873.83051,0.03970
2871.90176,0.03991
2869.97302,0.04012
2868.04427,0.04021
2866.11553,0.04017
2864.18678,0.04019
2862.25804,0.04032
2860.32929,0.04031
2858.40055,0.04021
2856.47180,0.04032
2854.54305,0.04064
2852.61431,0.04109
2850.68556,0.04158
2848.75682,0.04186
2846.82807,0.04175
2844.89933,0.04146
2842.97058,0.04126
2841.04184,0.04114
2839.11309,0.04101
2837.18435,0.04093
2835.25560,0.04092
2833.32686,0.04102
2831.39811,0.04119
2829.46937,0.04117
2827.54062,0.04093
2825.61188,0.04079
2823.68313,0.04090
2821.75438,0.04112
2819.82564,0.04122
2817.89689,0.04110
2815.96815,0.04097
2814.03940,0.04095
2812.11066,0.04096
2810.18191,0.04102
2808.25317,0.04110
2806.32442,0.04120
2804.39568,0.04128
2802.46693,0.04125
2800.53819,0.04117
2798.60944,0.04112
2796.68070,0.04112
2794.75195,0.04106
2792.82320,0.04097
2790.89446,0.04100
2788.96571,0.04109
2787.03697,0.04103
2785.10822,0.04088
2783.17948,0.04101
2781.25073,0.04137
2779.32199,0.04158
2777.39324,0.04162
2775.46450,0.04153
2773.53575,0.04121
2771.60701,0.04095
2769.67826,0.04100
2767.74952,0.04117
2765.82077,0.04132
2763.89203,0.04144
2761.96328,0.04143
2760.03453,0.04136
2758.10579,0.04139
2756.17704,0.04137
2754.24830,0.04119
2752.31955,0.04096
2750.39081,0.04084
2748.46206,0.04085
2746.53332,0.04091
2744.60457,0.04090
2742.67583,0.04088
2740.74708,0.04098
2738.81834,0.04119
2736.88959,0.04127
2734.96085,0.04119
2733.03210,0.04117
2731.10336,0.04131
2729.17461,0.04146
2727.24586,0.04150
2725.31712,0.04149
2723.38837,0.04136
2721.45963,0.04112
2719.53088,0.04100
2717.60214,0.04103
2715.67339,0.04111
2713.74465,0.04118
2711.81590,0.04115
2709.88716,0.04104
2707.95841,0.04096
2706.02967,0.04089
2704.10092,0.04082
2702.17218,0.04085
2700.24343,0.04090
2698.31468,0.04091
2696.38594,0.04096
2694.45719,0.04097
2692.52845,0.04094
2690.59970,0.04102
2688.67096,0.04103
2686.74221,0.04083
2684.81347,0.04072
2682.88472,0.04089
2680.95598,0.04109
2679.02723,0.04112
2677.09849,0.04099
2675.16974,0.04082
2673.24100,0.04074
2671.31225,0.04084
2669.38351,0.04113
2667.45476,0.04143
2665.52601,0.04154
2663.59727,0.04141
2661.66852,0.04108
2659.73978,0.04082
2657.81103,0.04094
2655.88229,0.04123
2653.95354,0.04123
2652.02480,0.04108
2650.09605,0.04111
2648.16731,0.04122
2646.23856,0.04126
2644.30982,0.04127
2642.38107,0.04128
2640.45233,0.04127
2638.52358,0.04118
2636.59484,0.04101
2634.66609,0.04096
2632.73734,0.04105
2630.80860,0.04101
2628.87985,0.04085
2626.95111,0.04089
2625.02236,0.04120
2623.09362,0.04145
2621.16487,0.04145
2619.23613,0.04130
2617.30738,0.04112
2615.37864,0.04101
2613.44989,0.04104
2611.52115,0.04115
2609.59240,0.04127
2607.66366,0.04126
2605.73491,0.04102
2603.80616,0.04076
2601.87742,0.04078
2599.94867,0.04117
2598.01993,0.04152
2596.09118,0.04144
2594.16244,0.04111
2592.23369,0.04086
2590.30495,0.04077
2588.37620,0.04082
2586.44746,0.04090
2584.51871,0.04098
2582.58997,0.04104
2580.66122,0.04108
2578.73248,0.04116
2576.80373,0.04123
2574.87499,0.04121
2572.94624,0.04118
2571.01749,0.04123
2569.08875,0.04127
2567.16000,0.04125
2565.23126,0.04119
2563.30251,0.04114
2561.37377,0.04120
2559.44502,0.04125
2557.51628,0.04107
2555.58753,0.04077
2553.65879,0.04064
2551.73004,0.04077
2549.80130,0.04096
2547.87255,0.04107
2545.94381,0.04114
2544.01506,0.04120
2542.08631,0.04113
2540.15757,0.04096
2538.22882,0.04092
2536.30008,0.04099
2534.37133,0.04100
2532.44259,0.04088
2530.51384,0.04072
2528.58510,0.04075
2526.65635,0.04091
2524.72761,0.04104
2522.79886,0.04117
2520.87012,0.04116
2518.94137,0.04094
2517.01263,0.04078
2515.08388,0.04079
2513.15514,0.04091
2511.22639,0.04094
2509.29764,0.04080
2507.36890,0.04072
2505.44015,0.04084
2503.51141,0.04086
2501.58266,0.04073
2499.65392,0.04067
2497.72517,0.04065
2495.79643,0.04063
2493.86768,0.04082
2491.93894,0.04101
2490.01019,0.04083
2488.08145,0.04054
2486.15270,0.04054
2484.22396,0.04067
2482.29521,0.04072
2480.36647,0.04078
2478.43772,0.04091
2476.50897,0.04112
2474.58023,0.04141
2472.65148,0.04160
2470.72274,0.04152
2468.79399,0.04129
2466.86525,0.04108
2464.93650,0.04091
2463.00776,0.04091
2461.07901,0.04107
2459.15027,0.04113
2457.22152,0.04103
2455.29278,0.04093
2453.36403,0.04081
2451.43529,0.04071
2449.50654,0.04074
2447.57779,0.04087
2445.64905,0.04099
2443.72030,0.04099
2441.79156,0.04095
2439.86281,0.04097
2437.93407,0.04096
2436.00532,0.04087
2434.07658,0.04079
2432.14783,0.04079
2430.21909,0.04095
2428.29034,0.04111
2426.36160,0.04098
2424.43285,0.04072
2422.50411,0.04067
2420.57536,0.04080
2418.64662,0.04088
2416.71787,0.04092
2414.78912,0.04092
2412.86038,0.04085
2410.93163,0.04082
2409.00289,0.04087
2407.07414,0.04085
2405.14540,0.04084
2403.21665,0.04100
2401.28791,0.04111
2399.35916,0.04097
2397.43042,0.04073
2395.50167,0.04061
2393.57293,0.04064
2391.64418,0.04074
2389.71544,0.04085
2387.78669,0.04090
2385.85795,0.04083
2383.92920,0.04077
2382.00045,0.04084
2380.07171,0.04093
2378.14296,0.04092
2376.21422,0.04099
2374.28547,0.04107
2372.35673,0.04107
2370.42798,0.04100
2368.49924,0.04090
2366.57049,0.04096
2364.64175,0.04125
2362.71300,0.04152
2360.78426,0.04154
2358.85551,0.04138
2356.92677,0.04132
2354.99802,0.04144
2353.06927,0.04145
2351.14053,0.04128
2349.21178,0.04113
2347.28304,0.04101
2345.35429,0.04091
2343.42555,0.04083
2341.49680,0.04082
2339.56806,0.04091
2337.63931,0.04108
2335.71057,0.04118
2333.78182,0.04114
2331.85308,0.04108
2329.92433,0.04111
2327.99559,0.04123
2326.06684,0.04134
2324.13810,0.04127
2322.20935,0.04107
2320.28060,0.04090
2318.35186,0.04084
2316.42311,0.04088
2314.49437,0.04099
2312.56562,0.04104
2310.63688,0.04097
2308.70813,0.04091
2306.77939,0.04092
2304.85064,0.04094
2302.92190,0.04106
2300.99315,0.04121
2299.06441,0.04123
2297.13566,0.04126
2295.20692,0.04114
2293.27817,0.04080
2291.34943,0.04060
2289.42068,0.04077
2287.49193,0.04111
2285.56319,0.04117
2283.63444,0.04092
2281.70570,0.04070
2279.77695,0.04063
2277.84821,0.04071
2275.91946,0.04085
2273.99072,0.04087
2272.06197,0.04083
2270.13323,0.04100
2268.20448,0.04120
2266.27574,0.04116
2264.34699,0.04106
2262.41825,0.04111
2260.48950,0.04113
2258.56075,0.04101
2256.63201,0.04087
2254.70326,0.04083
2252.77452,0.04086
2250.84577,0.04078
2248.91703,0.04051
2246.98828,0.04034
2245.05954,0.04043
2243.13079,0.04051
2241.20205,0.04044
2239.27330,0.04048
2237.34456,0.04070
2235.41581,0.04086
2233.48707,0.04089
2231.55832,0.04100
2229.62958,0.04110
2227.70083,0.04092
2225.77208,0.04070
2223.84334,0.04071
2221.91459,0.04071
2219.98585,0.04053
2218.05710,0.04033
2216.12836,0.04033
2214.19961,0.04061
2212.27087,0.04088
2210.34212,0.04084
2208.41338,0.04069
2206.48463,0.04064
2204.55589,0.04070
2202.62714,0.04092
2200.69840,0.04105
2198.76965,0.04087
2196.84090,0.04069
2194.91216,0.04064
2192.98341,0.04053
2191.05467,0.04042
2189.12592,0.04046
2187.19718,0.04054
2185.26843,0.04055
2183.33969,0.04046
2181.41094,0.04026
2179.48220,0.04019
2177.55345,0.04040
2175.62471,0.04061
2173.69596,0.04057
2171.76722,0.04044
2169.83847,0.04035
2167.90973,0.04030
2165.98098,0.04029
2164.05223,0.04033
2162.12349,0.04034
2160.19474,0.04024
2158.26600,0.04005
2156.33725,0.03992
2154.40851,0.03993
2152.47976,0.03991
2150.55102,0.03988
2148.62227,0.03993
2146.69353,0.03992
2144.76478,0.03988
2142.83604,0.03989
2140.90729,0.03987
2138.97855,0.03979
2137.04980,0.03968
2135.12106,0.03949
2133.19231,0.03934
2131.26356,0.03934
2129.33482,0.03942
2127.40607,0.03954
2125.47733,0.03966
2123.54858,0.03962
2121.61984,0.03945
2119.69109,0.03936
2117.76235,0.03942
2115.83360,0.03960
2113.90486,0.03972
2111.97611,0.03967
2110.04737,0.03957
2108.11862,0.03948
2106.18988,0.03939
2104.26113,0.03940
2102.33238,0.03952
2100.40364,0.03968
2098.47489,0.03977
2096.54615,0.03972
2094.61740,0.03958
2092.68866,0.03946
2090.75991,0.03942
2088.83117,0.03947
2086.90242,0.03954
2084.97368,0.03958
2083.04493,0.03957
2081.11619,0.03953
2079.18744,0.03954
2077.25870,0.03962
2075.32995,0.03966
2073.40121,0.03964
2071.47246,0.03960
2069.54371,0.03952
2067.61497,0.03951
2065.68622,0.03954
2063.75748,0.03950
2061.82873,0.03936
2059.89999,0.03926
2057.97124,0.03935
2056.04250,0.03950
2054.11375,0.03955
2052.18501,0.03957
2050.25626,0.03953
2048.32752,0.03946
2046.39877,0.03950
2044.47003,0.03964
2042.54128,0.03976
2040.61254,0.03980
2038.68379,0.03979
2036.75504,0.03980
2034.82630,0.03977
2032.89755,0.03963
2030.96881,0.03956
2029.04006,0.03966
2027.11132,0.03976
2025.18257,0.03971
2023.25383,0.03959
2021.32508,0.03951
2019.39634,0.03951
2017.46759,0.03944
2015.53885,0.03940
2013.61010,0.03952
2011.68136,0.03958
2009.75261,0.03951
2007.82386,0.03946
2005.89512,0.03938
2003.96637,0.03919
2002.03763,0.03902
2000.10888,0.03902
1998.18014,0.03909
1996.25139,0.03917
1994.32265,0.03924
1992.39390,0.03930
1990.46516,0.03938
1988.53641,0.03939
1986.60767,0.03921
1984.67892,0.03899
1982.75018,0.03894
1980.82143,0.03895
1978.89269,0.03887
1976.96394,0.03862
1975.03519,0.03835
1973.10645,0.03825
1971.17770,0.03839
1969.24896,0.03859
1967.32021,0.03868
1965.39147,0.03867
1963.46272,0.03866
1961.53398,0.03859
1959.60523,0.03848
1957.67649,0.03842
1955.74774,0.03845
1953.81900,0.03854
1951.89025,0.03858
1949.96151,0.03855
1948.03276,0.03856
1946.10402,0.03869
1944.17527,0.03883
1942.24652,0.03883
1940.31778,0.03869
1938.38903,0.03848
1936.46029,0.03829
1934.53154,0.03819
1932.60280,0.03818
1930.67405,0.03820
1928.74531,0.03818
1926.81656,0.03817
1924.88782,0.03815
1922.95907,0.03804
1921.03033,0.03797
1919.10158,0.03812
1917.17284,0.03830
1915.24409,0.03818
1913.31534,0.03789
1911.38660,0.03770
1909.45785,0.03767
1907.52911,0.03769
1905.60036,0.03763
1903.67162,0.03748
1901.74287,0.03745
1899.81413,0.03752
1897.88538,0.03753
1895.95664,0.03757
1894.02789,0.03757
1892.09915,0.03739
1890.17040,0.03714
1888.24166,0.03704
1886.31291,0.03710
1884.38417,0.03710
1882.45542,0.03692
1880.52667,0.03672
1878.59793,0.03664
1876.66918,0.03664
1874.74044,0.03660
1872.81169,0.03651
1870.88295,0.03643
1868.95420,0.03638
1867.02546,0.03634
1865.09671,0.03625
1863.16797,0.03608
1861.23922,0.03602
1859.31048,0.03608
1857.38173,0.03594
1855.45299,0.03559
1853.52424,0.03531
1851.59549,0.03524
1849.66675,0.03527
1847.73800,0.03523
1845.80926,0.03505
1843.88051,0.03472
1841.95177,0.03439
1840.02302,0.03422
1838.09428,0.03410
1836.16553,0.03384
1834.23679,0.03350
1832.30804,0.03328
1830.37930,0.03315
1828.45055,0.03303
1826.52181,0.03291
1824.59306,0.03263
1822.66432,0.03228
1820.73557,0.03207
1818.80682,0.03190
1816.87808,0.03166
1814.94933,0.03140
1813.02059,0.03104
1811.09184,0.03054
1809.16310,0.03000
1807.23435,0.02950
1805.30561,0.02910
1803.37686,0.02872
1801.44812,0.02824
1799.51937,0.02764
1797.59063,0.02698
1795.66188,0.02633
1793.73314,0.02568
1791.80439,0.02491
1789.87565,0.02406
1787.94690,0.02323
1786.01815,0.02256
1784.08941,0.02223
1782.16066,0.02225
1780.23192,0.02263
1778.30317,0.02346
1776.37443,0.02470
1774.44568,0.02640
1772.51694,0.02874
1770.58819,0.03179
1768.65945,0.03584
1766.73070,0.04123
1764.80196,0.04768
1762.87321,0.05519
1760.94447,0.06309
1759.01572,0.06963
1757.08697,0.07442
1755.15823,0.07744
1753.22948,0.07879
1751.30074,0.07898
1749.37199,0.07824
1747.44325,0.07682
1745.51450,0.07493
1743.58576,0.07269
1741.65701,0.07020
1739.72827,0.06743
1737.79952,0.06482
1735.87078,0.06278
1733.94203,0.06072
1732.01329,0.05869
1730.08454,0.05709
1728.15580,0.05571
1726.22705,0.05459
1724.29830,0.05360
1722.36956,0.05273
1720.44081,0.05217
1718.51207,0.05167
1716.58332,0.05085
1714.65458,0.05012
1712.72583,0.04971
1710.79709,0.04930
1708.86834,0.04876
1706.93960,0.04812
1705.01085,0.04744
1703.08211,0.04694
1701.15336,0.04658
1699.22462,0.04615
1697.29587,0.04565
1695.36713,0.04505
1693.43838,0.04450
1691.50963,0.04422
1689.58089,0.04400
1687.65214,0.04379
1685.72340,0.04364
1683.79465,0.04345
1681.86591,0.04315
1679.93716,0.04295
1678.00842,0.04296
1676.07967,0.04292
1674.15093,0.04265
1672.22218,0.04251
1670.29344,0.04251
1668.36469,0.04226
1666.43595,0.04181
1664.50720,0.04153
1662.57845,0.04156
1660.64971,0.04181
1658.72096,0.04206
1656.79222,0.04220
1654.86347,0.04224
1652.93473,0.04217
1651.00598,0.04224
1649.07724,0.04237
1647.14849,0.04208
1645.21975,0.04143
1643.29100,0.04110
1641.36226,0.04116
1639.43351,0.04135
1637.50477,0.04148
1635.57602,0.04123
1633.64728,0.04080
1631.71853,0.04068
1629.78978,0.04077
1627.86104,0.04084
1625.93229,0.04078
1624.00355,0.04058
1622.07480,0.04041
1620.14606,0.04050
1618.21731,0.04063
1616.28857,0.04052
1614.35982,0.04031
1612.43108,0.04014
1610.50233,0.03996
1608.57359,0.03978
1606.64484,0.03965
1604.71610,0.03956
1602.78735,0.03959
1600.85861,0.03966
1598.92986,0.03969
1597.00111,0.03968
1595.07237,0.03956
1593.14362,0.03943
1591.21488,0.03944
1589.28613,0.03938
1587.35739,0.03915
1585.42864,0.03888
1583.49990,0.03866
1581.57115,0.03856
1579.64241,0.03865
1577.71366,0.03884
1575.78492,0.03886
1573.85617,0.03877
1571.92743,0.03876
1569.99868,0.03873
1568.06993,0.03865
1566.14119,0.03854
1564.21244,0.03845
1562.28370,0.03857
1560.35495,0.03877
1558.42621,0.03847
1556.49746,0.03793
1554.56872,0.03773
1552.63997,0.03769
1550.71123,0.03761
1548.78248,0.03753
1546.85374,0.03759
1544.92499,0.03783
1542.99625,0.03813
1541.06750,0.03822
1539.13876,0.03791
1537.21001,0.03773
1535.28126,0.03786
1533.35252,0.03791
1531.42377,0.03763
1529.49503,0.03720
1527.56628,0.03691
1525.63754,0.03702
1523.70879,0.03734
1521.78005,0.03737
1519.85130,0.03703
1517.92256,0.03674
1515.99381,0.03651
1514.06507,0.03626
1512.13632,0.03617
1510.20758,0.03628
1508.27883,0.03629
1506.35008,0.03596
1504.42134,0.03560
1502.49259,0.03549
1500.56385,0.03558
1498.63510,0.03577
1496.70636,0.03572
1494.77761,0.03537
1492.84887,0.03507
1490.92012,0.03490
1488.99138,0.03469
1487.06263,0.03440
1485.13389,0.03406
1483.20514,0.03370
1481.27640,0.03340
1479.34765,0.03317
1477.41891,0.03292
1475.49016,0.03267
1473.56141,0.03224
1471.63267,0.03147
1469.70392,0.03078
1467.77518,0.03037
1465.84643,0.03010
1463.91769,0.03014
1461.98894,0.03072
1460.06020,0.03167
1458.13145,0.03288
1456.20271,0.03426
1454.27396,0.03540
1452.34522,0.03635
1450.41647,0.03726
1448.48773,0.03805
1446.55898,0.03868
1444.63024,0.03907
1442.70149,0.03911
1440.77274,0.03889
1438.84400,0.03863
1436.91525,0.03824
1434.98651,0.03763
1433.05776,0.03709
1431.12902,0.03683
1429.20027,0.03669
1427.27153,0.03640
1425.34278,0.03598
1423.41404,0.03568
1421.48529,0.03550
1419.55655,0.03523
1417.62780,0.03491
1415.69906,0.03460
1413.77031,0.03417
1411.84156,0.03365
1409.91282,0.03327
1407.98407,0.03317
1406.05533,0.03315
1404.12658,0.03288
1402.19784,0.03233
1400.26909,0.03166
1398.34035,0.03097
1396.41160,0.03036
1394.48286,0.02987
1392.55411,0.02953
1390.62537,0.02942
1388.69662,0.02985
1386.76788,0.03082
1384.83913,0.03187
1382.91039,0.03275
1380.98164,0.03343
1379.05289,0.03384
1377.12415,0.03396
1375.19540,0.03375
1373.26666,0.03335
1371.33791,0.03319
1369.40917,0.03341
1367.48042,0.03381
1365.55168,0.03421
1363.62293,0.03451
1361.69419,0.03482
1359.76544,0.03530
1357.83670,0.03586
1355.90795,0.03631
1353.97921,0.03656
1352.05046,0.03664
1350.12172,0.03663
1348.19297,0.03655
1346.26422,0.03636
1344.33548,0.03601
1342.40673,0.03561
1340.47799,0.03536
1338.54924,0.03522
1336.62050,0.03505
1334.69175,0.03484
1332.76301,0.03461
1330.83426,0.03440
1328.90552,0.03422
1326.97677,0.03400
1325.04803,0.03371
1323.11928,0.03338
1321.19054,0.03307
1319.26179,0.03284
1317.33304,0.03276
1315.40430,0.03271
1313.47555,0.03258
1311.54681,0.03238
1309.61806,0.03221
1307.68932,0.03215
1305.76057,0.03207
1303.83183,0.03179
1301.90308,0.03149
1299.97434,0.03135
1298.04559,0.03132
1296.11685,0.03121
1294.18810,0.03100
1292.25936,0.03069
1290.33061,0.03014
1288.40187,0.02944
1286.47312,0.02884
1284.54437,0.02836
1282.61563,0.02797
1280.68688,0.02782
1278.75814,0.02806
1276.82939,0.02849
1274.90065,0.02882
1272.97190,0.02912
1271.04316,0.02955
1269.11441,0.03001
1267.18567,0.03038
1265.25692,0.03069
1263.32818,0.03104
1261.39943,0.03132
1259.47069,0.03131
1257.54194,0.03108
1255.61320,0.03083
1253.68445,0.03052
1251.75570,0.03002
1249.82696,0.02943
1247.89821,0.02908
1245.96947,0.02900
1244.04072,0.02877
1242.11198,0.02829
1240.18323,0.02777
1238.25449,0.02722
1236.32574,0.02677
1234.39700,0.02645
1232.46825,0.02615
1230.53951,0.02592
1228.61076,0.02583
1226.68202,0.02600
1224.75327,0.02652
1222.82452,0.02727
1220.89578,0.02825
1218.96703,0.02965
1217.03829,0.03137
1215.10954,0.03290
1213.18080,0.03412
1211.25205,0.03530
1209.32331,0.03638
1207.39456,0.03727
1205.46582,0.03803
1203.53707,0.03854
1201.60833,0.03884
1199.67958,0.03948
1197.75084,0.04085
1195.82209,0.04280
1193.89335,0.04525
1191.96460,0.04854
1190.03585,0.05294
1188.10711,0.05828
1186.17836,0.06397
1184.24962,0.06890
1182.32087,0.07203
1180.39213,0.07282
1178.46338,0.07113
1176.53464,0.06747
1174.60589,0.06295
1172.67715,0.05862
1170.74840,0.05490
1168.81966,0.05177
1166.89091,0.04912
1164.96217,0.04672
1163.03342,0.04445
1161.10467,0.04253
1159.17593,0.04086
1157.24718,0.03918
1155.31844,0.03740
1153.38969,0.03552
1151.46095,0.03364
1149.53220,0.03177
1147.60346,0.02998
1145.67471,0.02860
1143.74597,0.02808
1141.81722,0.02901
1139.88848,0.03156
1137.95973,0.03519
1136.03099,0.03904
1134.10224,0.04235
1132.17350,0.04483
1130.24475,0.04671
1128.31600,0.04802
1126.38726,0.04841
1124.45851,0.04772
1122.52977,0.04607
1120.60102,0.04397
1118.67228,0.04220
1116.74353,0.04108
1114.81479,0.04043
1112.88604,0.04013
1110.95730,0.04060
1109.02855,0.04257
1107.09981,0.04610
1105.17106,0.05063
1103.24232,0.05563
1101.31357,0.06100
1099.38483,0.06674
1097.45608,0.07247
1095.52733,0.07765
1093.59859,0.08214
1091.66984,0.08608
1089.74110,0.08943
1087.81235,0.09200
1085.88361,0.09361
1083.95486,0.09411
1082.02612,0.09335
1080.09737,0.09142
1078.16863,0.08883
1076.23988,0.08590
1074.31114,0.08288
1072.38239,0.08013
1070.45365,0.07766
1068.52490,0.07523
1066.59615,0.07291
1064.66741,0.07063
1062.73866,0.06817
1060.80992,0.06589
1058.88117,0.06436
1056.95243,0.06363
1055.02368,0.06333
1053.09494,0.06330
1051.16619,0.06360
1049.23745,0.06411
1047.30870,0.06480
1045.37996,0.06561
1043.45121,0.06623
1041.52247,0.06675
1039.59372,0.06741
1037.66498,0.06794
1035.73623,0.06819
1033.80748,0.06819
1031.87874,0.06800
1029.94999,0.06786
1028.02125,0.06786
1026.09250,0.06775
1024.16376,0.06765
1022.23501,0.06807
1020.30627,0.06909
1018.37752,0.07009
1016.44878,0.07053
1014.52003,0.07058
1012.59129,0.07060
1010.66254,0.07046
1008.73380,0.06993
1006.80505,0.06917
1004.87631,0.06847
1002.94756,0.06784
1001.01881,0.06714
999.09007,0.06644
997.16132,0.06572
995.23258,0.06487
993.30383,0.06409
991.37509,0.06360
989.44634,0.06328
987.51760,0.06279
985.58885,0.06203
983.66011,0.06118
981.73136,0.06051
979.80262,0.06010
977.87387,0.05978
975.94513,0.05939
974.01638,0.05880
972.08763,0.05800
970.15889,0.05723
968.23014,0.05652
966.30140,0.05573
964.37265,0.05487
962.44391,0.05412
960.51516,0.05377
958.58642,0.05384
956.65767,0.05398
954.72893,0.05409
952.80018,0.05438
950.87144,0.05474
948.94269,0.05478
947.01395,0.05429
945.08520,0.05356
943.15646,0.05319
941.22771,0.05311
939.29896,0.05291
937.37022,0.05276
935.44147,0.05274
933.51273,0.05247
931.58398,0.05196
929.65524,0.05157
927.72649,0.05150
925.79775,0.05166
923.86900,0.05161
921.94026,0.05141
920.01151,0.05143
918.08277,0.05150
916.15402,0.05130
914.22528,0.05094
912.29653,0.05064
910.36779,0.05030
908.43904,0.04979
906.51029,0.04931
904.58155,0.04901
902.65280,0.04878
900.72406,0.04870
898.79531,0.04876
896.86657,0.04881
894.93782,0.04895
893.00908,0.04911
891.08033,0.04896
889.15159,0.04861
887.22284,0.04818
885.29410,0.04777
883.36535,0.04744
881.43661,0.04715
879.50786,0.04703
877.57911,0.04707
875.65037,0.04710
873.72162,0.04717
871.79288,0.04723
869.86413,0.04731
867.93539,0.04795
866.00664,0.04895
864.07790,0.04966
862.14915,0.05024
860.22041,0.05095
858.29166,0.05149
856.36292,0.05160
854.43417,0.05132
852.50543,0.05067
850.57668,0.05019
848.64794,0.05038
846.71919,0.05081
844.79044,0.05086
842.86170,0.05064
840.93295,0.05029
839.00421,0.04978
837.07546,0.04934
835.14672,0.04921
833.21797,0.04909
831.28923,0.04884
829.36048,0.04870
827.43174,0.04876
825.50299,0.04885
823.57425,0.04881
821.64550,0.04863
819.71676,0.04829
817.78801,0.04802
815.85926,0.04785
813.93052,0.04735
812.00177,0.04673
810.07303,0.04647
808.14428,0.04653
806.21554,0.04663
804.28679,0.04668
802.35805,0.04667
800.42930,0.04642
798.50056,0.04628
796.57181,0.04638
794.64307,0.04635
792.71432,0.04628
790.78558,0.04617
788.85683,0.04580
786.92809,0.04547
784.99934,0.04525
783.07059,0.04479
781.14185,0.04436
779.21310,0.04425
777.28436,0.04420
775.35561,0.04402
773.42687,0.04385
771.49812,0.04377
769.56938,0.04367
767.64063,0.04352
765.71189,0.04330
763.78314,0.04300
761.85440,0.04309
759.92565,0.04389
757.99691,0.04480
756.06816,0.04521
754.13942,0.04541
752.21067,0.04599
750.28192,0.04694
748.35318,0.04763
746.42443,0.04771
744.49569,0.04755
742.56694,0.04745
740.63820,0.04752
738.70945,0.04769
736.78071,0.04780
734.85196,0.04772
732.92322,0.04730
730.99447,0.04666
729.06573,0.04612
727.13698,0.04575
725.20824,0.04549
723.27949,0.04515
721.35074,0.04478
719.42200,0.04482
717.49325,0.04519
715.56451,0.04563
713.63576,0.04618
711.70702,0.04644
709.77827,0.04607
707.84953,0.04539
705.92078,0.04475
703.99204,0.04466
702.06329,0.04541
700.13455,0.04647
698.20580,0.04725
696.27706,0.04717
694.34831,0.04627
692.41957,0.04560
690.49082,0.04583
688.56207,0.04634
686.63333,0.04657
684.70458,0.04652
682.77584,0.04630
680.84709,0.04641
678.91835,0.04688
676.98960,0.04696
675.06086,0.04664
673.13211,0.04640
671.20337,0.04617
669.27462,0.04598
667.34588,0.04624
665.41713,0.04685
663.48839,0.04707
661.55964,0.04655
659.63090,0.04588
657.70215,0.04550
655.77340,0.04530
653.84466,0.04509
651.91591,0.04498
649.98717,0.04526
648.05842,0.04600
646.12968,0.04684
644.20093,0.04712
642.27219,0.04649
640.34344,0.04562
638.41470,0.04537
636.48595,0.04601
634.55721,0.04668
632.62846,0.04641
630.69972,0.04572
628.77097,0.04530
626.84222,0.04457
624.91348,0.04334
622.98473,0.04293
621.05599,0.04428
619.12724,0.04620
617.19850,0.04687
615.26975,0.04618
613.34101,0.04527
611.41226,0.04458
609.48352,0.04378
607.55477,0.04320
605.62603,0.04356
603.69728,0.04406
601.76854,0.04399
599.83979,0.04463
