7497.03301,0.71683
7495.10426,0.71912
7493.17552,0.72241
7491.24677,0.72660
7489.31803,0.72852
7487.38928,0.72402
7485.46054,0.71904
7483.53179,0.72225
7481.60305,0.73117
7479.67430,0.73530
7477.74556,0.73396
7475.81681,0.73215
7473.88807,0.72871
7471.95932,0.72440
7470.03057,0.72303
7468.10183,0.72607
7466.17308,0.73251
7464.24434,0.73780
7462.31559,0.73743
7460.38685,0.73073
7458.45810,0.72095
7456.52936,0.71384
7454.60061,0.71209
7452.67187,0.71348
7450.74312,0.71536
7448.81438,0.71669
7446.88563,0.71815
7444.95689,0.71867
7443.02814,0.71814
7441.09940,0.72277
7439.17065,0.72883
7437.24190,0.72444
7435.31316,0.71644
7433.38441,0.71497
7431.45567,0.71585
7429.52692,0.71785
7427.59818,0.72134
7425.66943,0.72210
7423.74069,0.72207
7421.81194,0.72353
7419.88320,0.72315
7417.95445,0.72252
7416.02571,0.72580
7414.09696,0.72866
7412.16822,0.72455
7410.23947,0.71855
7408.31073,0.72016
7406.38198,0.72542
7404.45323,0.72440
7402.52449,0.71886
7400.59574,0.71407
7398.66700,0.71225
7396.73825,0.71437
7394.80951,0.71405
7392.88076,0.70843
7390.95202,0.70647
7389.02327,0.71148
7387.09453,0.71786
7385.16578,0.72369
7383.23704,0.72677
7381.30829,0.72221
7379.37955,0.71639
7377.45080,0.71648
7375.52205,0.71809
7373.59331,0.71975
7371.66456,0.72211
7369.73582,0.72129
7367.80707,0.71622
7365.87833,0.70868
7363.94958,0.70108
7362.02084,0.69781
7360.09209,0.70038
7358.16335,0.70390
7356.23460,0.70659
7354.30586,0.71192
7352.37711,0.71672
7350.44837,0.71425
7348.51962,0.70811
7346.59088,0.70639
7344.66213,0.70728
7342.73338,0.70541
7340.80464,0.70177
7338.87589,0.69932
7336.94715,0.69761
7335.01840,0.69416
7333.08966,0.68988
7331.16091,0.68755
7329.23217,0.68624
7327.30342,0.68435
7325.37468,0.68338
7323.44593,0.68360
7321.51719,0.68325
7319.58844,0.68166
7317.65970,0.67997
7315.73095,0.68106
7313.80221,0.68408
7311.87346,0.68532
7309.94471,0.68472
7308.01597,0.68287
7306.08722,0.68158
7304.15848,0.68259
7302.22973,0.68227
7300.30099,0.67972
7298.37224,0.67933
7296.44350,0.68013
7294.51475,0.67726
7292.58601,0.67243
7290.65726,0.66975
7288.72852,0.66886
7286.79977,0.67013
7284.87103,0.67466
7282.94228,0.67810
7281.01353,0.67481
7279.08479,0.66801
7277.15604,0.66493
7275.22730,0.66324
7273.29855,0.65780
7271.36981,0.65403
7269.44106,0.65545
7267.51232,0.65541
7265.58357,0.65166
7263.65483,0.64949
7261.72608,0.65209
7259.79734,0.65702
7257.86859,0.65914
7255.93985,0.65638
7254.01110,0.65165
7252.08236,0.64748
7250.15361,0.64229
7248.22486,0.63792
7246.29612,0.63940
7244.36737,0.64334
7242.43863,0.64181
7240.50988,0.63559
7238.58114,0.63056
7236.65239,0.62699
7234.72365,0.62395
7232.79490,0.62556
7230.86616,0.63156
7228.93741,0.63408
7227.00867,0.63091
7225.07992,0.62589
7223.15118,0.62265
7221.22243,0.62273
7219.29369,0.62157
7217.36494,0.61725
7215.43619,0.61706
7213.50745,0.62178
7211.57870,0.62427
7209.64996,0.62340
7207.72121,0.62356
7205.79247,0.62607
7203.86372,0.62710
7201.93498,0.62407
7200.00623,0.61971
7198.07749,0.61785
7196.14874,0.61972
7194.22000,0.62389
7192.29125,0.62707
7190.36251,0.62627
7188.43376,0.62486
7186.50501,0.62789
7184.57627,0.63159
7182.64752,0.63089
7180.71878,0.62747
7178.79003,0.62340
7176.86129,0.62016
7174.93254,0.61972
7173.00380,0.62072
7171.07505,0.62119
7169.14631,0.62106
7167.21756,0.62045
7165.28882,0.61905
7163.36007,0.61754
7161.43133,0.62035
7159.50258,0.62846
7157.57384,0.63352
7155.64509,0.63124
7153.71634,0.62772
7151.78760,0.62837
7149.85885,0.63185
7147.93011,0.63253
7146.00136,0.62737
7144.07262,0.62257
7142.14387,0.62395
7140.21513,0.62644
7138.28638,0.62447
7136.35764,0.62008
7134.42889,0.61648
7132.50015,0.61402
7130.57140,0.61396
7128.64266,0.61808
7126.71391,0.62243
7124.78516,0.62296
7122.85642,0.62284
7120.92767,0.62479
7118.99893,0.62689
7117.07018,0.62668
7115.14144,0.62303
7113.21269,0.61801
7111.28395,0.61703
7109.35520,0.62189
7107.42646,0.62631
7105.49771,0.62577
7103.56897,0.62336
7101.64022,0.62099
7099.71148,0.61884
7097.78273,0.61804
7095.85399,0.61513
7093.92524,0.61046
7091.99649,0.61180
7090.06775,0.61810
7088.13900,0.62186
7086.21026,0.62108
7084.28151,0.61799
7082.35277,0.61513
7080.42402,0.61288
7078.49528,0.61170
7076.56653,0.61189
7074.63779,0.61239
7072.70904,0.61519
7070.78030,0.62122
7068.85155,0.62612
7066.92281,0.62647
7064.99406,0.62258
7063.06532,0.61828
7061.13657,0.61683
7059.20782,0.61656
7057.27908,0.61716
7055.35033,0.62079
7053.42159,0.62533
7051.49284,0.62673
7049.56410,0.62490
7047.63535,0.62418
7045.70661,0.62619
7043.77786,0.62542
7041.84912,0.62047
7039.92037,0.61822
7037.99163,0.62111
7036.06288,0.62538
7034.13414,0.62927
7032.20539,0.63176
7030.27664,0.63016
7028.34790,0.62496
7026.41915,0.62062
7024.49041,0.62030
7022.56166,0.62294
7020.63292,0.62576
7018.70417,0.62748
7016.77543,0.62739
7014.84668,0.62575
7012.91794,0.62379
7010.98919,0.62066
7009.06045,0.61772
7007.13170,0.61873
7005.20296,0.62154
7003.27421,0.62291
7001.34547,0.62404
6999.41672,0.62475
6997.48797,0.62471
6995.55923,0.62630
6993.63048,0.62992
6991.70174,0.63292
6989.77299,0.63456
6987.84425,0.63565
6985.91550,0.63524
6983.98676,0.63364
6982.05801,0.63246
6980.12927,0.63157
6978.20052,0.63134
6976.27178,0.63092
6974.34303,0.62872
6972.41429,0.62804
6970.48554,0.63094
6968.55680,0.63426
6966.62805,0.63634
6964.69930,0.63825
6962.77056,0.64024
6960.84181,0.63949
6958.91307,0.63628
6956.98432,0.63515
6955.05558,0.63584
6953.12683,0.63567
6951.19809,0.63537
6949.26934,0.63649
6947.34060,0.63783
6945.41185,0.63809
6943.48311,0.63961
6941.55436,0.64349
6939.62562,0.64744
6937.69687,0.64794
6935.76812,0.64398
6933.83938,0.64041
6931.91063,0.64034
6929.98189,0.64140
6928.05314,0.64352
6926.12440,0.64827
6924.19565,0.65157
6922.26691,0.64917
6920.33816,0.64465
6918.40942,0.64293
6916.48067,0.64337
6914.55193,0.64381
6912.62318,0.64458
6910.69444,0.64487
6908.76569,0.64343
6906.83695,0.64294
6904.90820,0.64447
6902.97945,0.64436
6901.05071,0.64135
6899.12196,0.63928
6897.19322,0.64132
6895.26447,0.64607
6893.33573,0.65018
6891.40698,0.65243
6889.47824,0.65284
6887.54949,0.65022
6885.62075,0.64547
6883.69200,0.64292
6881.76326,0.64259
6879.83451,0.64191
6877.90577,0.64359
6875.97702,0.64891
6874.04828,0.65309
6872.11953,0.65301
6870.19078,0.65132
6868.26204,0.65210
6866.33329,0.65386
6864.40455,0.65422
6862.47580,0.65508
6860.54706,0.65608
6858.61831,0.65580
6856.68957,0.65538
6854.76082,0.65528
6852.83208,0.65536
6850.90333,0.65538
6848.97459,0.65527
6847.04584,0.65718
6845.11710,0.66123
6843.18835,0.66209
6841.25960,0.65843
6839.33086,0.65518
6837.40211,0.65485
6835.47337,0.65610
6833.54462,0.65613
6831.61588,0.65466
6829.68713,0.65459
6827.75839,0.65632
6825.82964,0.65680
6823.90090,0.65460
6821.97215,0.65173
6820.04341,0.64928
6818.11466,0.64748
6816.18592,0.64741
6814.25717,0.64842
6812.32843,0.64913
6810.39968,0.64963
6808.47093,0.65100
6806.54219,0.65304
6804.61344,0.65411
6802.68470,0.65398
6800.75595,0.65305
6798.82721,0.65026
6796.89846,0.64670
6794.96972,0.64589
6793.04097,0.64681
6791.11223,0.64529
6789.18348,0.64208
6787.25474,0.64175
6785.32599,0.64457
6783.39725,0.64607
6781.46850,0.64481
6779.53975,0.64280
6777.61101,0.64064
6775.68226,0.63753
6773.75352,0.63276
6771.82477,0.62901
6769.89603,0.62902
6767.96728,0.63024
6766.03854,0.63071
6764.10979,0.63197
6762.18105,0.63377
6760.25230,0.63408
6758.32356,0.63221
6756.39481,0.62915
6754.46607,0.62671
6752.53732,0.62578
6750.60858,0.62528
6748.67983,0.62494
6746.75108,0.62538
6744.82234,0.62488
6742.89359,0.62243
6740.96485,0.62132
6739.03610,0.62352
6737.10736,0.62599
6735.17861,0.62600
6733.24987,0.62435
6731.32112,0.62324
6729.39238,0.62438
6727.46363,0.62796
6725.53489,0.63124
6723.60614,0.63107
6721.67740,0.62946
6719.74865,0.63003
6717.81991,0.63125
6715.89116,0.62982
6713.96241,0.62566
6712.03367,0.62054
6710.10492,0.61526
6708.17618,0.61163
6706.24743,0.61333
6704.31869,0.61809
6702.38994,0.61986
6700.46120,0.61937
6698.53245,0.61940
6696.60371,0.61897
6694.67496,0.61721
6692.74622,0.61454
6690.81747,0.61251
6688.88873,0.61232
6686.95998,0.61277
6685.03123,0.61276
6683.10249,0.61247
6681.17374,0.61157
6679.24500,0.61035
6677.31625,0.61037
6675.38751,0.61083
6673.45876,0.60956
6671.53002,0.60850
6669.60127,0.61004
6667.67253,0.61156
6665.74378,0.60951
6663.81504,0.60385
6661.88629,0.59847
6659.95755,0.59710
6658.02880,0.59838
6656.10006,0.59918
6654.17131,0.59946
6652.24256,0.60015
6650.31382,0.59966
6648.38507,0.59578
6646.45633,0.59053
6644.52758,0.58704
6642.59884,0.58528
6640.67009,0.58484
6638.74135,0.58502
6636.81260,0.58390
6634.88386,0.58172
6632.95511,0.58015
6631.02637,0.57849
6629.09762,0.57621
6627.16888,0.57574
6625.24013,0.57689
6623.31139,0.57613
6621.38264,0.57300
6619.45389,0.56957
6617.52515,0.56756
6615.59640,0.56688
6613.66766,0.56559
6611.73891,0.56371
6609.81017,0.56369
6607.88142,0.56610
6605.95268,0.56858
6604.02393,0.56961
6602.09519,0.56915
6600.16644,0.56660
6598.23770,0.56363
6596.30895,0.56334
6594.38021,0.56469
6592.45146,0.56462
6590.52271,0.56379
6588.59397,0.56428
6586.66522,0.56526
6584.73648,0.56600
6582.80773,0.56682
6580.87899,0.56672
6578.95024,0.56521
6577.02150,0.56297
6575.09275,0.56138
6573.16401,0.56183
6571.23526,0.56280
6569.30652,0.56297
6567.37777,0.56351
6565.44903,0.56375
6563.52028,0.56233
6561.59154,0.55990
6559.66279,0.55732
6557.73404,0.55535
6555.80530,0.55436
6553.87655,0.55276
6551.94781,0.54971
6550.01906,0.54775
6548.09032,0.54754
6546.16157,0.54697
6544.23283,0.54755
6542.30408,0.54981
6540.37534,0.54985
6538.44659,0.54734
6536.51785,0.54491
6534.58910,0.54313
6532.66036,0.54177
6530.73161,0.53902
6528.80287,0.53378
6526.87412,0.52996
6524.94537,0.53017
6523.01663,0.53162
6521.08788,0.53199
6519.15914,0.53192
6517.23039,0.53244
6515.30165,0.53369
6513.37290,0.53489
6511.44416,0.53488
6509.51541,0.53339
6507.58667,0.53147
6505.65792,0.53003
6503.72918,0.52921
6501.80043,0.52884
6499.87169,0.52805
6497.94294,0.52774
6496.01419,0.53042
6494.08545,0.53371
6492.15670,0.53356
6490.22796,0.53141
6488.29921,0.52933
6486.37047,0.52835
6484.44172,0.52981
6482.51298,0.53240
6480.58423,0.53419
6478.65549,0.53560
6476.72674,0.53756
6474.79800,0.53973
6472.86925,0.54222
6470.94051,0.54572
6469.01176,0.54948
6467.08302,0.55234
6465.15427,0.55486
6463.22552,0.55866
6461.29678,0.56319
6459.36803,0.56693
6457.43929,0.57158
6455.51054,0.57754
6453.58180,0.58027
6451.65305,0.57911
6449.72431,0.57979
6447.79556,0.58423
6445.86682,0.58871
6443.93807,0.59090
6442.00933,0.59205
6440.08058,0.59333
6438.15184,0.59353
6436.22309,0.59295
6434.29434,0.59401
6432.36560,0.59684
6430.43685,0.59884
6428.50811,0.59842
6426.57936,0.59710
6424.65062,0.59615
6422.72187,0.59553
6420.79313,0.59627
6418.86438,0.59838
6416.93564,0.60056
6415.00689,0.60107
6413.07815,0.59914
6411.14940,0.59655
6409.22066,0.59446
6407.29191,0.59288
6405.36317,0.59239
6403.43442,0.59217
6401.50567,0.59060
6399.57693,0.58918
6397.64818,0.58922
6395.71944,0.58769
6393.79069,0.58379
6391.86195,0.58100
6389.93320,0.58025
6388.00446,0.58051
6386.07571,0.57995
6384.14697,0.57626
6382.21822,0.57129
6380.28948,0.56915
6378.36073,0.57037
6376.43199,0.57189
6374.50324,0.57096
6372.57450,0.56839
6370.64575,0.56642
6368.71700,0.56547
6366.78826,0.56524
6364.85951,0.56571
6362.93077,0.56545
6361.00202,0.56296
6359.07328,0.56051
6357.14453,0.56016
6355.21579,0.56020
6353.28704,0.55966
6351.35830,0.55877
6349.42955,0.55737
6347.50081,0.55693
6345.57206,0.55879
6343.64332,0.56147
6341.71457,0.56320
6339.78582,0.56434
6337.85708,0.56538
6335.92833,0.56488
6333.99959,0.56272
6332.07084,0.56275
6330.14210,0.56675
6328.21335,0.57126
6326.28461,0.57427
6324.35586,0.57628
6322.42712,0.57691
6320.49837,0.57705
6318.56963,0.57811
6316.64088,0.57935
6314.71214,0.58015
6312.78339,0.58084
6310.85465,0.58166
6308.92590,0.58386
6306.99715,0.58726
6305.06841,0.58806
6303.13966,0.58524
6301.21092,0.58267
6299.28217,0.58304
6297.35343,0.58565
6295.42468,0.58772
6293.49594,0.58800
6291.56719,0.58823
6289.63845,0.58893
6287.70970,0.58805
6285.78096,0.58493
6283.85221,0.58248
6281.92347,0.58241
6279.99472,0.58268
6278.06598,0.58221
6276.13723,0.58210
6274.20848,0.58281
6272.27974,0.58340
6270.35099,0.58303
6268.42225,0.58210
6266.49350,0.58049
6264.56476,0.57767
6262.63601,0.57506
6260.70727,0.57401
6258.77852,0.57352
6256.84978,0.57323
6254.92103,0.57341
6252.99229,0.57255
6251.06354,0.57103
6249.13480,0.57095
6247.20605,0.57201
6245.27730,0.57294
6243.34856,0.57341
6241.41981,0.57335
6239.49107,0.57324
6237.56232,0.57369
6235.63358,0.57406
6233.70483,0.57406
6231.77609,0.57509
6229.84734,0.57728
6227.91860,0.57813
6225.98985,0.57714
6224.06111,0.57685
6222.13236,0.57790
6220.20362,0.57910
6218.27487,0.58004
6216.34613,0.57998
6214.41738,0.57866
6212.48863,0.57746
6210.55989,0.57715
6208.63114,0.57762
6206.70240,0.57971
6204.77365,0.58374
6202.84491,0.58775
6200.91616,0.58909
6198.98742,0.58725
6197.05867,0.58528
6195.12993,0.58623
6193.20118,0.58899
6191.27244,0.59053
6189.34369,0.59068
6187.41495,0.59087
6185.48620,0.59069
6183.55746,0.59106
6181.62871,0.59440
6179.69996,0.59820
6177.77122,0.59883
6175.84247,0.59900
6173.91373,0.60191
6171.98498,0.60492
6170.05624,0.60553
6168.12749,0.60596
6166.19875,0.60818
6164.27000,0.61084
6162.34126,0.61298
6160.41251,0.61520
6158.48377,0.61644
6156.55502,0.61606
6154.62628,0.61621
6152.69753,0.61806
6150.76878,0.62027
6148.84004,0.62194
6146.91129,0.62336
6144.98255,0.62502
6143.05380,0.62704
6141.12506,0.62860
6139.19631,0.62864
6137.26757,0.62783
6135.33882,0.62842
6133.41008,0.63100
6131.48133,0.63324
6129.55259,0.63396
6127.62384,0.63478
6125.69510,0.63685
6123.76635,0.63895
6121.83761,0.63971
6119.90886,0.63958
6117.98011,0.63952
6116.05137,0.64021
6114.12262,0.64121
6112.19388,0.64085
6110.26513,0.63958
6108.33639,0.63908
6106.40764,0.63907
6104.47890,0.63909
6102.55015,0.63977
6100.62141,0.64063
6098.69266,0.64093
6096.76392,0.64106
6094.83517,0.64087
6092.90643,0.64017
6090.97768,0.63934
6089.04893,0.63833
6087.12019,0.63749
6085.19144,0.63748
6083.26270,0.63830
6081.33395,0.63908
6079.40521,0.63919
6077.47646,0.63883
6075.54772,0.63861
6073.61897,0.63869
6071.69023,0.63820
6069.76148,0.63735
6067.83274,0.63786
6065.90399,0.63931
6063.97525,0.63968
6062.04650,0.63871
6060.11776,0.63723
6058.18901,0.63566
6056.26026,0.63466
6054.33152,0.63433
6052.40277,0.63430
6050.47403,0.63443
6048.54528,0.63402
6046.61654,0.63385
6044.68779,0.63527
6042.75905,0.63613
6040.83030,0.63478
6038.90156,0.63338
6036.97281,0.63261
6035.04407,0.63152
6033.11532,0.63136
6031.18658,0.63195
6029.25783,0.63153
6027.32909,0.63118
6025.40034,0.63205
6023.47159,0.63279
6021.54285,0.63181
6019.61410,0.62908
6017.68536,0.62683
6015.75661,0.62680
6013.82787,0.62776
6011.89912,0.62782
6009.97038,0.62622
6008.04163,0.62359
6006.11289,0.62155
6004.18414,0.62104
6002.25540,0.62231
6000.32665,0.62429
5998.39791,0.62485
5996.46916,0.62378
5994.54041,0.62198
5992.61167,0.61974
5990.68292,0.61798
5988.75418,0.61711
5986.82543,0.61656
5984.89669,0.61638
5982.96794,0.61653
5981.03920,0.61624
5979.11045,0.61518
5977.18171,0.61314
5975.25296,0.61032
5973.32422,0.60831
5971.39547,0.60805
5969.46673,0.60743
5967.53798,0.60531
5965.60924,0.60411
5963.68049,0.60439
5961.75174,0.60406
5959.82300,0.60278
5957.89425,0.60087
5955.96551,0.59827
5954.03676,0.59601
5952.10802,0.59463
5950.17927,0.59264
5948.25053,0.58953
5946.32178,0.58687
5944.39304,0.58540
5942.46429,0.58456
5940.53555,0.58381
5938.60680,0.58267
5936.67806,0.58079
5934.74931,0.57825
5932.82057,0.57547
5930.89182,0.57238
5928.96307,0.56874
5927.03433,0.56535
5925.10558,0.56282
5923.17684,0.56048
5921.24809,0.55765
5919.31935,0.55476
5917.39060,0.55127
5915.46186,0.54591
5913.53311,0.53999
5911.60437,0.53570
5909.67562,0.53264
5907.74688,0.52911
5905.81813,0.52454
5903.88939,0.51965
5901.96064,0.51486
5900.03189,0.51002
5898.10315,0.50543
5896.17440,0.50080
5894.24566,0.49501
5892.31691,0.48952
5890.38817,0.48672
5888.45942,0.48435
5886.53068,0.47924
5884.60193,0.47324
5882.67319,0.46920
5880.74444,0.46683
5878.81570,0.46385
5876.88695,0.45910
5874.95821,0.45427
5873.02946,0.45093
5871.10072,0.44816
5869.17197,0.44503
5867.24322,0.44194
5865.31448,0.43933
5863.38573,0.43682
5861.45699,0.43362
5859.52824,0.42994
5857.59950,0.42660
5855.67075,0.42367
5853.74201,0.42171
5851.81326,0.42101
5849.88452,0.41979
5847.95577,0.41695
5846.02703,0.41331
5844.09828,0.41014
5842.16954,0.40862
5840.24079,0.40861
5838.31205,0.40863
5836.38330,0.40790
5834.45455,0.40681
5832.52581,0.40594
5830.59706,0.40521
5828.66832,0.40457
5826.73957,0.40411
5824.81083,0.40337
5822.88208,0.40265
5820.95334,0.40265
5819.02459,0.40266
5817.09585,0.40282
5815.16710,0.40404
5813.23836,0.40579
5811.30961,0.40724
5809.38087,0.40782
5807.45212,0.40770
5805.52337,0.40817
5803.59463,0.40961
5801.66588,0.41103
5799.73714,0.41207
5797.80839,0.41400
5795.87965,0.41693
5793.95090,0.41843
5792.02216,0.41785
5790.09341,0.41765
5788.16467,0.41933
5786.23592,0.42153
5784.30718,0.42335
5782.37843,0.42534
5780.44969,0.42658
5778.52094,0.42688
5776.59220,0.42809
5774.66345,0.43013
5772.73470,0.43156
5770.80596,0.43220
5768.87721,0.43245
5766.94847,0.43288
5765.01972,0.43407
5763.09098,0.43542
5761.16223,0.43608
5759.23349,0.43628
5757.30474,0.43620
5755.37600,0.43574
5753.44725,0.43520
5751.51851,0.43519
5749.58976,0.43638
5747.66102,0.43709
5745.73227,0.43509
5743.80352,0.43223
5741.87478,0.43086
5739.94603,0.43005
5738.01729,0.42868
5736.08854,0.42713
5734.15980,0.42571
5732.23105,0.42456
5730.30231,0.42361
5728.37356,0.42265
5726.44482,0.42217
5724.51607,0.42210
5722.58733,0.42139
5720.65858,0.41995
5718.72984,0.41881
5716.80109,0.41871
5714.87235,0.41842
5712.94360,0.41686
5711.01485,0.41585
5709.08611,0.41650
5707.15736,0.41751
5705.22862,0.41821
5703.29987,0.41860
5701.37113,0.41901
5699.44238,0.41958
5697.51364,0.41978
5695.58489,0.42042
5693.65615,0.42266
5691.72740,0.42508
5689.79866,0.42591
5687.86991,0.42570
5685.94117,0.42610
5684.01242,0.42815
5682.08368,0.43106
5680.15493,0.43305
5678.22618,0.43375
5676.29744,0.43470
5674.36869,0.43723
5672.43995,0.44052
5670.51120,0.44312
5668.58246,0.44514
5666.65371,0.44682
5664.72497,0.44828
5662.79622,0.45032
5660.86748,0.45297
5658.93873,0.45597
5657.00999,0.45894
5655.08124,0.46053
5653.15250,0.46086
5651.22375,0.46175
5649.29500,0.46369
5647.36626,0.46565
5645.43751,0.46705
5643.50877,0.46894
5641.58002,0.47181
5639.65128,0.47399
5637.72253,0.47522
5635.79379,0.47674
5633.86504,0.47833
5631.93630,0.47993
5630.00755,0.48203
5628.07881,0.48415
5626.15006,0.48541
5624.22132,0.48594
5622.29257,0.48630
5620.36383,0.48639
5618.43508,0.48649
5616.50633,0.48709
5614.57759,0.48798
5612.64884,0.48929
5610.72010,0.49071
5608.79135,0.49148
5606.86261,0.49195
5604.93386,0.49236
5603.00512,0.49186
5601.07637,0.49115
5599.14763,0.49193
5597.21888,0.49334
5595.29014,0.49340
5593.36139,0.49218
5591.43265,0.49130
5589.50390,0.49180
5587.57516,0.49329
5585.64641,0.49437
5583.71766,0.49425
5581.78892,0.49387
5579.86017,0.49406
5577.93143,0.49489
5576.00268,0.49631
5574.07394,0.49751
5572.14519,0.49801
5570.21645,0.49798
5568.28770,0.49763
5566.35896,0.49774
5564.43021,0.49868
5562.50147,0.50020
5560.57272,0.50211
5558.64398,0.50324
5556.71523,0.50214
5554.78648,0.49998
5552.85774,0.49910
5550.92899,0.49951
5549.00025,0.50012
5547.07150,0.50061
5545.14276,0.50084
5543.21401,0.50084
5541.28527,0.50121
5539.35652,0.50206
5537.42778,0.50261
5535.49903,0.50253
5533.57029,0.50221
5531.64154,0.50221
5529.71280,0.50292
5527.78405,0.50411
5525.85531,0.50475
5523.92656,0.50419
5521.99781,0.50340
5520.06907,0.50363
5518.14032,0.50510
5516.21158,0.50666
5514.28283,0.50705
5512.35409,0.50710
5510.42534,0.50792
5508.49660,0.50889
5506.56785,0.50922
5504.63911,0.50917
5502.71036,0.50953
5500.78162,0.51060
5498.85287,0.51181
5496.92413,0.51223
5494.99538,0.51145
5493.06664,0.51009
5491.13789,0.50961
5489.20914,0.51086
5487.28040,0.51238
5485.35165,0.51267
5483.42291,0.51249
5481.49416,0.51271
5479.56542,0.51325
5477.63667,0.51415
5475.70793,0.51512
5473.77918,0.51514
5471.85044,0.51441
5469.92169,0.51461
5467.99295,0.51541
5466.06420,0.51525
5464.13546,0.51486
5462.20671,0.51507
5460.27796,0.51512
5458.34922,0.51487
5456.42047,0.51486
5454.49173,0.51497
5452.56298,0.51507
5450.63424,0.51595
5448.70549,0.51768
5446.77675,0.51874
5444.84800,0.51876
5442.91926,0.51902
5440.99051,0.51969
5439.06177,0.52039
5437.13302,0.52121
5435.20428,0.52152
5433.27553,0.52095
5431.34679,0.52024
5429.41804,0.51994
5427.48929,0.52030
5425.56055,0.52132
5423.63180,0.52281
5421.70306,0.52430
5419.77431,0.52521
5417.84557,0.52615
5415.91682,0.52722
5413.98808,0.52713
5412.05933,0.52629
5410.13059,0.52633
5408.20184,0.52735
5406.27310,0.52850
5404.34435,0.52920
5402.41561,0.52941
5400.48686,0.52976
5398.55811,0.53051
5396.62937,0.53134
5394.70062,0.53218
5392.77188,0.53282
5390.84313,0.53307
5388.91439,0.53334
5386.98564,0.53389
5385.05690,0.53480
5383.12815,0.53627
5381.19941,0.53782
5379.27066,0.53899
5377.34192,0.53966
5375.41317,0.53953
5373.48443,0.53906
5371.55568,0.53944
5369.62694,0.54097
5367.69819,0.54247
5365.76944,0.54281
5363.84070,0.54268
5361.91195,0.54299
5359.98321,0.54338
5358.05446,0.54384
5356.12572,0.54432
5354.19697,0.54410
5352.26823,0.54363
5350.33948,0.54427
5348.41074,0.54549
5346.48199,0.54567
5344.55325,0.54509
5342.62450,0.54529
5340.69576,0.54605
5338.76701,0.54631
5336.83827,0.54630
5334.90952,0.54660
5332.98077,0.54655
5331.05203,0.54577
5329.12328,0.54536
5327.19454,0.54612
5325.26579,0.54707
5323.33705,0.54730
5321.40830,0.54737
5319.47956,0.54737
5317.55081,0.54658
5315.62207,0.54530
5313.69332,0.54458
5311.76458,0.54476
5309.83583,0.54500
5307.90709,0.54436
5305.97834,0.54321
5304.04959,0.54248
5302.12085,0.54219
5300.19210,0.54197
5298.26336,0.54182
5296.33461,0.54175
5294.40587,0.54116
5292.47712,0.53986
5290.54838,0.53851
5288.61963,0.53755
5286.69089,0.53678
5284.76214,0.53588
5282.83340,0.53517
5280.90465,0.53526
5278.97591,0.53561
5277.04716,0.53502
5275.11842,0.53368
5273.18967,0.53262
5271.26092,0.53184
5269.33218,0.53110
5267.40343,0.53085
5265.47469,0.53069
5263.54594,0.52975
5261.61720,0.52883
5259.68845,0.52844
5257.75971,0.52778
5255.83096,0.52715
5253.90222,0.52708
5251.97347,0.52702
5250.04473,0.52651
5248.11598,0.52538
5246.18724,0.52437
5244.25849,0.52388
5242.32975,0.52302
5240.40100,0.52196
5238.47225,0.52151
5236.54351,0.52137
5234.61476,0.52131
5232.68602,0.52129
5230.75727,0.52092
5228.82853,0.52008
5226.89978,0.51870
5224.97104,0.51750
5223.04229,0.51766
5221.11355,0.51827
5219.18480,0.51747
5217.25606,0.51545
5215.32731,0.51380
5213.39857,0.51317
5211.46982,0.51288
5209.54107,0.51215
5207.61233,0.51120
5205.68358,0.51032
5203.75484,0.50909
5201.82609,0.50769
5199.89735,0.50693
5197.96860,0.50676
5196.03986,0.50628
5194.11111,0.50479
5192.18237,0.50302
5190.25362,0.50232
5188.32488,0.50255
5186.39613,0.50257
5184.46739,0.50206
5182.53864,0.50111
5180.60990,0.50000
5178.68115,0.49942
5176.75240,0.49914
5174.82366,0.49824
5172.89491,0.49698
5170.96617,0.49574
5169.03742,0.49457
5167.10868,0.49360
5165.17993,0.49276
5163.25119,0.49186
5161.32244,0.49091
5159.39370,0.49013
5157.46495,0.48956
5155.53621,0.48900
5153.60746,0.48842
5151.67872,0.48761
5149.74997,0.48639
5147.82123,0.48527
5145.89248,0.48456
5143.96373,0.48429
5142.03499,0.48439
5140.10624,0.48430
5138.17750,0.48399
5136.24875,0.48396
5134.32001,0.48374
5132.39126,0.48305
5130.46252,0.48249
5128.53377,0.48237
5126.60503,0.48273
5124.67628,0.48343
5122.74754,0.48381
5120.81879,0.48361
5118.89005,0.48353
5116.96130,0.48383
5115.03255,0.48398
5113.10381,0.48386
5111.17506,0.48384
5109.24632,0.48410
5107.31757,0.48447
5105.38883,0.48485
5103.46008,0.48532
5101.53134,0.48596
5099.60259,0.48659
5097.67385,0.48714
5095.74510,0.48804
5093.81636,0.48930
5091.88761,0.48998
5089.95887,0.48972
5088.03012,0.48935
5086.10138,0.48927
5084.17263,0.48911
5082.24388,0.48907
5080.31514,0.48938
5078.38639,0.48973
5076.45765,0.49007
5074.52890,0.49001
5072.60016,0.48996
5070.67141,0.49106
5068.74267,0.49247
5066.81392,0.49287
5064.88518,0.49253
5062.95643,0.49234
5061.02769,0.49284
5059.09894,0.49359
5057.17020,0.49371
5055.24145,0.49321
5053.31270,0.49292
5051.38396,0.49321
5049.45521,0.49348
5047.52647,0.49355
5045.59772,0.49378
5043.66898,0.49381
5041.74023,0.49347
5039.81149,0.49319
5037.88274,0.49245
5035.95400,0.49118
5034.02525,0.49066
5032.09651,0.49094
5030.16776,0.49089
5028.23902,0.49020
5026.31027,0.48920
5024.38153,0.48815
5022.45278,0.48700
5020.52403,0.48556
5018.59529,0.48402
5016.66654,0.48276
5014.73780,0.48152
5012.80905,0.47983
5010.88031,0.47778
5008.95156,0.47559
5007.02282,0.47350
5005.09407,0.47160
5003.16533,0.46929
5001.23658,0.46597
4999.30784,0.46218
4997.37909,0.45883
4995.45035,0.45573
4993.52160,0.45208
4991.59286,0.44824
4989.66411,0.44470
4987.73536,0.44103
4985.80662,0.43705
4983.87787,0.43269
4981.94913,0.42822
4980.02038,0.42458
4978.09164,0.42192
4976.16289,0.41944
4974.23415,0.41692
4972.30540,0.41485
4970.37666,0.41331
4968.44791,0.41194
4966.51917,0.41065
4964.59042,0.40998
4962.66168,0.41014
4960.73293,0.41018
4958.80418,0.40952
4956.87544,0.40846
4954.94669,0.40716
4953.01795,0.40598
4951.08920,0.40545
4949.16046,0.40558
4947.23171,0.40592
4945.30297,0.40596
4943.37422,0.40531
4941.44548,0.40413
4939.51673,0.40307
4937.58799,0.40231
4935.65924,0.40171
4933.73050,0.40113
4931.80175,0.40043
4929.87301,0.39989
4927.94426,0.39934
4926.01551,0.39824
4924.08677,0.39684
4922.15802,0.39550
4920.22928,0.39358
4918.30053,0.39040
4916.37179,0.38660
4914.44304,0.38274
4912.51430,0.37858
4910.58555,0.37449
4908.65681,0.37073
4906.72806,0.36628
4904.79932,0.36054
4902.87057,0.35451
4900.94183,0.34917
4899.01308,0.34423
4897.08434,0.33900
4895.15559,0.33356
4893.22684,0.32849
4891.29810,0.32415
4889.36935,0.32016
4887.44061,0.31601
4885.51186,0.31225
4883.58312,0.30947
4881.65437,0.30721
4879.72563,0.30478
4877.79688,0.30220
4875.86814,0.29995
4873.93939,0.29852
4872.01065,0.29797
4870.08190,0.29836
4868.15316,0.30025
4866.22441,0.30364
4864.29566,0.30780
4862.36692,0.31256
4860.43817,0.31803
4858.50943,0.32395
4856.58068,0.32982
4854.65194,0.33566
4852.72319,0.34204
4850.79445,0.34918
4848.86570,0.35671
4846.93696,0.36393
4845.00821,0.37069
4843.07947,0.37732
4841.15072,0.38378
4839.22198,0.38977
4837.29323,0.39499
4835.36449,0.39993
4833.43574,0.40515
4831.50699,0.41000
4829.57825,0.41379
4827.64950,0.41696
4825.72076,0.42016
4823.79201,0.42340
4821.86327,0.42622
4819.93452,0.42844
4818.00578,0.43038
4816.07703,0.43212
4814.14829,0.43348
4812.21954,0.43420
4810.29080,0.43421
4808.36205,0.43391
4806.43331,0.43355
4804.50456,0.43309
4802.57582,0.43262
4800.64707,0.43232
4798.71832,0.43201
4796.78958,0.43127
4794.86083,0.43051
4792.93209,0.43013
4791.00334,0.42972
4789.07460,0.42937
4787.14585,0.42946
4785.21711,0.42931
4783.28836,0.42845
4781.35962,0.42751
4779.43087,0.42672
4777.50213,0.42614
4775.57338,0.42590
4773.64464,0.42530
4771.71589,0.42430
4769.78714,0.42358
4767.85840,0.42295
4765.92965,0.42206
4764.00091,0.42127
4762.07216,0.42079
4760.14342,0.42005
4758.21467,0.41873
4756.28593,0.41726
4754.35718,0.41579
4752.42844,0.41441
4750.49969,0.41342
4748.57095,0.41256
4746.64220,0.41116
4744.71346,0.40924
4742.78471,0.40741
4740.85597,0.40608
4738.92722,0.40500
4736.99847,0.40367
4735.06973,0.40221
4733.14098,0.40075
4731.21224,0.39901
4729.28349,0.39722
4727.35475,0.39551
4725.42600,0.39366
4723.49726,0.39183
4721.56851,0.39010
4719.63977,0.38820
4717.71102,0.38621
4715.78228,0.38417
4713.85353,0.38170
4711.92479,0.37885
4709.99604,0.37601
4708.06729,0.37349
4706.13855,0.37174
4704.20980,0.37061
4702.28106,0.36897
4700.35231,0.36638
4698.42357,0.36404
4696.49482,0.36278
4694.56608,0.36195
4692.63733,0.36088
4690.70859,0.35970
4688.77984,0.35871
4686.85110,0.35809
4684.92235,0.35804
4682.99361,0.35838
4681.06486,0.35849
4679.13612,0.35837
4677.20737,0.35845
4675.27862,0.35856
4673.34988,0.35841
4671.42113,0.35803
4669.49239,0.35762
4667.56364,0.35761
4665.63490,0.35798
4663.70615,0.35831
4661.77741,0.35854
4659.84866,0.35865
4657.91992,0.35857
4655.99117,0.35847
4654.06243,0.35848
4652.13368,0.35844
4650.20494,0.35822
4648.27619,0.35772
4646.34745,0.35668
4644.41870,0.35514
4642.48995,0.35382
4640.56121,0.35293
4638.63246,0.35179
4636.70372,0.35005
4634.77497,0.34780
4632.84623,0.34519
4630.91748,0.34267
4628.98874,0.34046
4627.05999,0.33851
4625.13125,0.33691
4623.20250,0.33569
4621.27376,0.33442
4619.34501,0.33270
4617.41627,0.33063
4615.48752,0.32853
4613.55877,0.32686
4611.63003,0.32573
4609.70128,0.32451
4607.77254,0.32285
4605.84379,0.32115
4603.91505,0.31961
4601.98630,0.31800
4600.05756,0.31661
4598.12881,0.31588
4596.20007,0.31523
4594.27132,0.31415
4592.34258,0.31299
4590.41383,0.31213
4588.48509,0.31133
4586.55634,0.31025
4584.62760,0.30938
4582.69885,0.30933
4580.77010,0.30961
4578.84136,0.30963
4576.91261,0.30955
4574.98387,0.30947
4573.05512,0.30928
4571.12638,0.30910
4569.19763,0.30926
4567.26889,0.30959
4565.34014,0.30982
4563.41140,0.31025
4561.48265,0.31122
4559.55391,0.31261
4557.62516,0.31411
4555.69642,0.31545
4553.76767,0.31647
4551.83893,0.31732
4549.91018,0.31835
4547.98143,0.31953
4546.05269,0.32054
4544.12394,0.32111
4542.19520,0.32118
4540.26645,0.32111
4538.33771,0.32142
4536.40896,0.32196
4534.48022,0.32224
4532.55147,0.32255
4530.62273,0.32330
4528.69398,0.32393
4526.76524,0.32413
4524.83649,0.32456
4522.90775,0.32574
4520.97900,0.32728
4519.05025,0.32862
4517.12151,0.32991
4515.19276,0.33149
4513.26402,0.33298
4511.33527,0.33414
4509.40653,0.33530
4507.47778,0.33666
4505.54904,0.33815
4503.62029,0.33980
4501.69155,0.34139
4499.76280,0.34257
4497.83406,0.34343
4495.90531,0.34446
4493.97657,0.34545
4492.04782,0.34560
4490.11908,0.34519
4488.19033,0.34502
4486.26158,0.34513
4484.33284,0.34548
4482.40409,0.34586
4480.47535,0.34583
4478.54660,0.34548
4476.61786,0.34487
4474.68911,0.34409
4472.76037,0.34383
4470.83162,0.34419
4468.90288,0.34437
4466.97413,0.34405
4465.04539,0.34363
4463.11664,0.34318
4461.18790,0.34273
4459.25915,0.34255
4457.33041,0.34218
4455.40166,0.34110
4453.47291,0.33967
4451.54417,0.33815
4449.61542,0.33639
4447.68668,0.33434
4445.75793,0.33212
4443.82919,0.33008
4441.90044,0.32828
4439.97170,0.32639
4438.04295,0.32396
4436.11421,0.32103
4434.18546,0.31828
4432.25672,0.31572
4430.32797,0.31296
4428.39923,0.31009
4426.47048,0.30724
4424.54173,0.30423
4422.61299,0.30111
4420.68424,0.29800
4418.75550,0.29470
4416.82675,0.29150
4414.89801,0.28878
4412.96926,0.28607
4411.04052,0.28313
4409.11177,0.28018
4407.18303,0.27715
4405.25428,0.27390
4403.32554,0.27049
4401.39679,0.26707
4399.46805,0.26382
4397.53930,0.26042
4395.61056,0.25648
4393.68181,0.25222
4391.75306,0.24799
4389.82432,0.24383
4387.89557,0.23963
4385.96683,0.23540
4384.03808,0.23114
4382.10934,0.22664
4380.18059,0.22196
4378.25185,0.21740
4376.32310,0.21325
4374.39436,0.20952
4372.46561,0.20585
4370.53687,0.20201
4368.60812,0.19819
4366.67938,0.19468
4364.75063,0.19142
4362.82189,0.18825
4360.89314,0.18553
4358.96439,0.18380
4357.03565,0.18298
4355.10690,0.18287
4353.17816,0.18352
4351.24941,0.18500
4349.32067,0.18727
4347.39192,0.19009
4345.46318,0.19326
4343.53443,0.19691
4341.60569,0.20096
4339.67694,0.20496
4337.74820,0.20875
4335.81945,0.21245
4333.89071,0.21581
4331.96196,0.21840
4330.03321,0.22032
4328.10447,0.22187
4326.17572,0.22328
4324.24698,0.22487
4322.31823,0.22675
4320.38949,0.22894
4318.46074,0.23136
4316.53200,0.23358
4314.60325,0.23539
4312.67451,0.23719
4310.74576,0.23894
4308.81702,0.24017
4306.88827,0.24118
4304.95953,0.24267
4303.03078,0.24426
4301.10204,0.24494
4299.17329,0.24472
4297.24454,0.24434
4295.31580,0.24386
4293.38705,0.24304
4291.45831,0.24200
4289.52956,0.24064
4287.60082,0.23870
4285.67207,0.23631
4283.74333,0.23386
4281.81458,0.23139
4279.88584,0.22872
4277.95709,0.22572
4276.02835,0.22257
4274.09960,0.21955
4272.17086,0.21673
4270.24211,0.21423
4268.31336,0.21215
4266.38462,0.21053
4264.45587,0.20950
4262.52713,0.20876
4260.59838,0.20842
4258.66964,0.20908
4256.74089,0.21026
4254.81215,0.21146
4252.88340,0.21294
4250.95466,0.21465
4249.02591,0.21605
4247.09717,0.21674
4245.16842,0.21667
4243.23968,0.21615
4241.31093,0.21577
4239.38219,0.21554
4237.45344,0.21531
4235.52469,0.21519
4233.59595,0.21472
4231.66720,0.21367
4229.73846,0.21275
4227.80971,0.21217
4225.88097,0.21173
4223.95222,0.21172
4222.02348,0.21209
4220.09473,0.21228
4218.16599,0.21217
4216.23724,0.21218
4214.30850,0.21246
4212.37975,0.21283
4210.45101,0.21330
4208.52226,0.21373
4206.59352,0.21398
4204.66477,0.21438
4202.73602,0.21504
4200.80728,0.21560
4198.87853,0.21593
4196.94979,0.21621
4195.02104,0.21640
4193.09230,0.21633
4191.16355,0.21627
4189.23481,0.21648
4187.30606,0.21673
4185.37732,0.21698
4183.44857,0.21769
4181.51983,0.21928
4179.59108,0.22138
4177.66234,0.22338
4175.73359,0.22521
4173.80484,0.22696
4171.87610,0.22860
4169.94735,0.23015
4168.01861,0.23171
4166.08986,0.23320
4164.16112,0.23459
4162.23237,0.23585
4160.30363,0.23698
4158.37488,0.23819
4156.44614,0.23934
4154.51739,0.24047
4152.58865,0.24197
4150.65990,0.24377
4148.73116,0.24547
4146.80241,0.24704
4144.87367,0.24899
4142.94492,0.25126
4141.01617,0.25310
4139.08743,0.25439
4137.15868,0.25556
4135.22994,0.25664
4133.30119,0.25760
4131.37245,0.25856
4129.44370,0.25943
4127.51496,0.26023
4125.58621,0.26113
4123.65747,0.26166
4121.72872,0.26150
4119.79998,0.26112
4117.87123,0.26100
4115.94249,0.26093
4114.01374,0.26050
4112.08500,0.25978
4110.15625,0.25908
4108.22750,0.25857
4106.29876,0.25834
4104.37001,0.25827
4102.44127,0.25839
4100.51252,0.25903
4098.58378,0.25997
4096.65503,0.26058
4094.72629,0.26090
4092.79754,0.26150
4090.86880,0.26247
4088.94005,0.26331
4087.01131,0.26373
4085.08256,0.26377
4083.15382,0.26355
4081.22507,0.26347
4079.29632,0.26356
4077.36758,0.26329
4075.43883,0.26254
4073.51009,0.26176
4071.58134,0.26134
4069.65260,0.26092
4067.72385,0.25995
4065.79511,0.25840
4063.86636,0.25659
4061.93762,0.25481
4060.00887,0.25327
4058.08013,0.25188
4056.15138,0.25026
4054.22264,0.24835
4052.29389,0.24649
4050.36515,0.24484
4048.43640,0.24347
4046.50765,0.24254
4044.57891,0.24189
4042.65016,0.24108
4040.72142,0.23982
4038.79267,0.23844
4036.86393,0.23733
4034.93518,0.23638
4033.00644,0.23542
4031.07769,0.23447
4029.14895,0.23362
4027.22020,0.23306
4025.29146,0.23292
4023.36271,0.23309
4021.43397,0.23342
4019.50522,0.23385
4017.57648,0.23423
4015.64773,0.23439
4013.71898,0.23461
4011.79024,0.23501
4009.86149,0.23565
4007.93275,0.23671
4006.00400,0.23811
4004.07526,0.23991
4002.14651,0.24220
4000.21777,0.24465
3998.28902,0.24709
3996.36028,0.24972
3994.43153,0.25252
3992.50279,0.25516
3990.57404,0.25741
3988.64530,0.25924
3986.71655,0.26082
3984.78780,0.26245
3982.85906,0.26414
3980.93031,0.26542
3979.00157,0.26628
3977.07282,0.26714
3975.14408,0.26821
3973.21533,0.26951
3971.28659,0.27084
3969.35784,0.27197
3967.42910,0.27295
3965.50035,0.27390
3963.57161,0.27484
3961.64286,0.27570
3959.71412,0.27645
3957.78537,0.27717
3955.85663,0.27791
3953.92788,0.27862
3951.99913,0.27923
3950.07039,0.27997
3948.14164,0.28087
3946.21290,0.28170
3944.28415,0.28235
3942.35541,0.28298
3940.42666,0.28387
3938.49792,0.28518
3936.56917,0.28662
3934.64043,0.28796
3932.71168,0.28925
3930.78294,0.29065
3928.85419,0.29250
3926.92545,0.29464
3924.99670,0.29648
3923.06795,0.29810
3921.13921,0.29962
3919.21046,0.30095
3917.28172,0.30231
3915.35297,0.30372
3913.42423,0.30493
3911.49548,0.30609
3909.56674,0.30735
3907.63799,0.30861
3905.70925,0.30956
3903.78050,0.31013
3901.85176,0.31054
3899.92301,0.31097
3897.99427,0.31176
3896.06552,0.31305
3894.13678,0.31432
3892.20803,0.31517
3890.27928,0.31593
3888.35054,0.31684
3886.42179,0.31775
3884.49305,0.31871
3882.56430,0.31980
3880.63556,0.32098
3878.70681,0.32230
3876.77807,0.32341
3874.84932,0.32391
3872.92058,0.32409
3870.99183,0.32418
3869.06309,0.32383
3867.13434,0.32291
3865.20560,0.32147
3863.27685,0.31952
3861.34811,0.31700
3859.41936,0.31414
3857.49061,0.31170
3855.56187,0.30998
3853.63312,0.30891
3851.70438,0.30911
3849.77563,0.31036
3847.84689,0.31215
3845.91814,0.31452
3843.98940,0.31712
3842.06065,0.31946
3840.13191,0.32140
3838.20316,0.32298
3836.27442,0.32404
3834.34567,0.32448
3832.41693,0.32480
3830.48818,0.32533
3828.55943,0.32572
3826.63069,0.32588
3824.70194,0.32620
3822.77320,0.32686
3820.84445,0.32790
3818.91571,0.32925
3816.98696,0.33078
3815.05822,0.33245
3813.12947,0.33395
3811.20073,0.33510
3809.27198,0.33615
3807.34324,0.33725
3805.41449,0.33817
3803.48575,0.33875
3801.55700,0.33928
3799.62826,0.34019
3797.69951,0.34125
3795.77076,0.34198
3793.84202,0.34245
3791.91327,0.34284
3789.98453,0.34293
3788.05578,0.34262
3786.12704,0.34230
3784.19829,0.34230
3782.26955,0.34238
3780.34080,0.34213
3778.41206,0.34140
3776.48331,0.34048
3774.55457,0.33968
3772.62582,0.33894
3770.69708,0.33820
3768.76833,0.33761
3766.83959,0.33725
3764.91084,0.33706
3762.98209,0.33704
3761.05335,0.33698
3759.12460,0.33663
3757.19586,0.33615
3755.26711,0.33585
3753.33837,0.33571
3751.40962,0.33543
3749.48088,0.33498
3747.55213,0.33467
3745.62339,0.33453
3743.69464,0.33504
3741.76590,0.33642
3739.83715,0.33784
3737.90841,0.33894
3735.97966,0.34009
3734.05091,0.34148
3732.12217,0.34283
3730.19342,0.34396
3728.26468,0.34486
3726.33593,0.34565
3724.40719,0.34628
3722.47844,0.34628
3720.54970,0.34546
3718.62095,0.34431
3716.69221,0.34330
3714.76346,0.34238
3712.83472,0.34117
3710.90597,0.33947
3708.97723,0.33797
3707.04848,0.33703
3705.11974,0.33609
3703.19099,0.33449
3701.26224,0.33205
3699.33350,0.32940
3697.40475,0.32701
3695.47601,0.32472
3693.54726,0.32210
3691.61852,0.31869
3689.68977,0.31433
3687.76103,0.30938
3685.83228,0.30437
3683.90354,0.29969
3681.97479,0.29559
3680.04605,0.29195
3678.11730,0.28836
3676.18856,0.28477
3674.25981,0.28220
3672.33107,0.28103
3670.40232,0.28004
3668.47357,0.27873
3666.54483,0.27775
3664.61608,0.27723
3662.68734,0.27673
3660.75859,0.27596
3658.82985,0.27483
3656.90110,0.27331
3654.97236,0.27188
3653.04361,0.27069
3651.11487,0.26881
3649.18612,0.26569
3647.25738,0.26231
3645.32863,0.25929
3643.39989,0.25624
3641.47114,0.25295
3639.54239,0.24939
3637.61365,0.24571
3635.68490,0.24210
3633.75616,0.23859
3631.82741,0.23536
3629.89867,0.23206
3627.96992,0.22865
3626.04118,0.22607
3624.11243,0.22385
3622.18369,0.22135
3620.25494,0.21868
3618.32620,0.21599
3616.39745,0.21341
3614.46871,0.21093
3612.53996,0.20859
3610.61122,0.20637
3608.68247,0.20398
3606.75372,0.20147
3604.82498,0.19892
3602.89623,0.19635
3600.96749,0.19381
3599.03874,0.19126
3597.11000,0.18877
3595.18125,0.18649
3593.25251,0.18422
3591.32376,0.18171
3589.39502,0.17885
3587.46627,0.17569
3585.53753,0.17261
3583.60878,0.16988
3581.68004,0.16742
3579.75129,0.16504
3577.82254,0.16257
3575.89380,0.16008
3573.96505,0.15773
3572.03631,0.15541
3570.10756,0.15292
3568.17882,0.15032
3566.25007,0.14770
3564.32133,0.14506
3562.39258,0.14250
3560.46384,0.14011
3558.53509,0.13775
3556.60635,0.13522
3554.67760,0.13263
3552.74886,0.13005
3550.82011,0.12748
3548.89137,0.12516
3546.96262,0.12331
3545.03387,0.12154
3543.10513,0.11949
3541.17638,0.11724
3539.24764,0.11498
3537.31889,0.11300
3535.39015,0.11143
3533.46140,0.10970
3531.53266,0.10742
3529.60391,0.10516
3527.67517,0.10331
3525.74642,0.10172
3523.81768,0.10024
3521.88893,0.09865
3519.96019,0.09692
3518.03144,0.09535
3516.10270,0.09380
3514.17395,0.09219
3512.24520,0.09084
3510.31646,0.08964
3508.38771,0.08841
3506.45897,0.08726
3504.53022,0.08616
3502.60148,0.08511
3500.67273,0.08413
3498.74399,0.08319
3496.81524,0.08236
3494.88650,0.08168
3492.95775,0.08100
3491.02901,0.08021
3489.10026,0.07937
3487.17152,0.07862
3485.24277,0.07795
3483.31402,0.07737
3481.38528,0.07690
3479.45653,0.07645
3477.52779,0.07600
3475.59904,0.07555
3473.67030,0.07508
3471.74155,0.07446
3469.81281,0.07358
3467.88406,0.07271
3465.95532,0.07201
3464.02657,0.07119
3462.09783,0.07028
3460.16908,0.06942
3458.24034,0.06841
3456.31159,0.06749
3454.38285,0.06690
3452.45410,0.06636
3450.52535,0.06579
3448.59661,0.06531
3446.66786,0.06474
3444.73912,0.06413
3442.81037,0.06381
3440.88163,0.06382
3438.95288,0.06370
3437.02414,0.06315
3435.09539,0.06246
3433.16665,0.06171
3431.23790,0.06076
3429.30916,0.05980
3427.38041,0.05879
3425.45167,0.05750
3423.52292,0.05627
3421.59418,0.05548
3419.66543,0.05474
3417.73668,0.05376
3415.80794,0.05289
3413.87919,0.05227
3411.95045,0.05152
3410.02170,0.05051
3408.09296,0.04941
3406.16421,0.04820
3404.23547,0.04687
3402.30672,0.04570
3400.37798,0.04453
3398.44923,0.04318
3396.52049,0.04199
3394.59174,0.04109
3392.66300,0.04026
3390.73425,0.03948
3388.80550,0.03864
3386.87676,0.03768
3384.94801,0.03683
3383.01927,0.03609
3381.09052,0.03520
3379.16178,0.03407
3377.23303,0.03280
3375.30429,0.03146
3373.37554,0.03052
3371.44680,0.03013
3369.51805,0.02970
3367.58931,0.02895
3365.66056,0.02795
3363.73182,0.02691
3361.80307,0.02625
3359.87433,0.02609
3357.94558,0.02593
3356.01683,0.02528
3354.08809,0.02446
3352.15934,0.02386
3350.23060,0.02349
3348.30185,0.02315
3346.37311,0.02285
3344.44436,0.02283
3342.51562,0.02296
3340.58687,0.02294
3338.65813,0.02273
3336.72938,0.02238
3334.80064,0.02204
3332.87189,0.02184
3330.94315,0.02172
3329.01440,0.02171
3327.08566,0.02174
3325.15691,0.02160
3323.22816,0.02138
3321.29942,0.02137
3319.37067,0.02152
3317.44193,0.02161
3315.51318,0.02167
3313.58444,0.02180
3311.65569,0.02190
3309.72695,0.02194
3307.79820,0.02208
3305.86946,0.02230
3303.94071,0.02252
3302.01197,0.02273
3300.08322,0.02295
3298.15448,0.02328
3296.22573,0.02367
3294.29698,0.02399
3292.36824,0.02422
3290.43949,0.02413
3288.51075,0.02368
3286.58200,0.02337
3284.65326,0.02348
3282.72451,0.02386
3280.79577,0.02436
3278.86702,0.02482
3276.93828,0.02509
3275.00953,0.02506
3273.08079,0.02482
3271.15204,0.02482
3269.22330,0.02504
3267.29455,0.02502
3265.36581,0.02479
3263.43706,0.02479
3261.50831,0.02505
3259.57957,0.02526
3257.65082,0.02531
3255.72208,0.02525
3253.79333,0.02516
3251.86459,0.02520
3249.93584,0.02535
3248.00710,0.02560
3246.07835,0.02604
3244.14961,0.02651
3242.22086,0.02674
3240.29212,0.02688
3238.36337,0.02724
3236.43463,0.02764
3234.50588,0.02774
3232.57713,0.02769
3230.64839,0.02782
3228.71964,0.02806
3226.79090,0.02836
3224.86215,0.02887
3222.93341,0.02943
3221.00466,0.02969
3219.07592,0.02985
3217.14717,0.03021
3215.21843,0.03046
3213.28968,0.03028
3211.36094,0.03010
3209.43219,0.03028
3207.50345,0.03060
3205.57470,0.03081
3203.64596,0.03090
3201.71721,0.03099
3199.78846,0.03123
3197.85972,0.03170
3195.93097,0.03236
3194.00223,0.03313
3192.07348,0.03380
3190.14474,0.03424
3188.21599,0.03443
3186.28725,0.03456
3184.35850,0.03505
3182.42976,0.03599
3180.50101,0.03704
3178.57227,0.03798
3176.64352,0.03876
3174.71478,0.03936
3172.78603,0.04005
3170.85729,0.04092
3168.92854,0.04182
3166.99979,0.04263
3165.07105,0.04323
3163.14230,0.04368
3161.21356,0.04412
3159.28481,0.04454
3157.35607,0.04484
3155.42732,0.04511
3153.49858,0.04554
3151.56983,0.04621
3149.64109,0.04676
3147.71234,0.04695
3145.78360,0.04702
3143.85485,0.04696
3141.92611,0.04672
3139.99736,0.04652
3138.06861,0.04642
3136.13987,0.04613
3134.21112,0.04547
3132.28238,0.04457
3130.35363,0.04355
3128.42489,0.04263
3126.49614,0.04208
3124.56740,0.04168
3122.63865,0.04103
3120.70991,0.04010
3118.78116,0.03913
3116.85242,0.03821
3114.92367,0.03732
3112.99493,0.03639
3111.06618,0.03546
3109.13744,0.03455
3107.20869,0.03358
3105.27994,0.03285
3103.35120,0.03241
3101.42245,0.03186
3099.49371,0.03124
3097.56496,0.03066
3095.63622,0.03008
3093.70747,0.02975
3091.77873,0.02973
3089.84998,0.02975
3087.92124,0.02960
3085.99249,0.02921
3084.06375,0.02891
3082.13500,0.02900
3080.20626,0.02935
3078.27751,0.02973
3076.34877,0.03004
3074.42002,0.03034
3072.49127,0.03069
3070.56253,0.03101
3068.63378,0.03132
3066.70504,0.03168
3064.77629,0.03221
3062.84755,0.03287
3060.91880,0.03338
3058.99006,0.03386
3057.06131,0.03465
3055.13257,0.03573
3053.20382,0.03687
3051.27508,0.03801
3049.34633,0.03911
3047.41759,0.04024
3045.48884,0.04153
3043.56009,0.04311
3041.63135,0.04481
3039.70260,0.04642
3037.77386,0.04785
3035.84511,0.04906
3033.91637,0.05019
3031.98762,0.05129
3030.05888,0.05209
3028.13013,0.05269
3026.20139,0.05340
3024.27264,0.05421
3022.34390,0.05499
3020.41515,0.05564
3018.48641,0.05600
3016.55766,0.05610
3014.62892,0.05613
3012.70017,0.05601
3010.77142,0.05564
3008.84268,0.05519
3006.91393,0.05492
3004.98519,0.05492
3003.05644,0.05478
3001.12770,0.05412
2999.19895,0.05300
2997.27021,0.05170
2995.34146,0.05042
2993.41272,0.04926
2991.48397,0.04801
2989.55523,0.04630
2987.62648,0.04407
2985.69774,0.04172
2983.76899,0.03949
2981.84025,0.03722
2979.91150,0.03487
2977.98275,0.03263
2976.05401,0.03062
2974.12526,0.02897
2972.19652,0.02778
2970.26777,0.02681
2968.33903,0.02581
2966.41028,0.02492
2964.48154,0.02422
2962.55279,0.02355
2960.62405,0.02282
2958.69530,0.02221
2956.76656,0.02202
2954.83781,0.02216
2952.90907,0.02236
2950.98032,0.02234
2949.05157,0.02186
2947.12283,0.02150
2945.19408,0.02178
2943.26534,0.02215
2941.33659,0.02215
2939.40785,0.02216
2937.47910,0.02245
2935.55036,0.02275
2933.62161,0.02273
2931.69287,0.02257
2929.76412,0.02266
2927.83538,0.02303
2925.90663,0.02337
2923.97789,0.02354
2922.04914,0.02366
2920.12040,0.02380
2918.19165,0.02398
2916.26290,0.02418
2914.33416,0.02432
2912.40541,0.02447
2910.47667,0.02470
2908.54792,0.02487
2906.61918,0.02495
2904.69043,0.02494
2902.76169,0.02486
2900.83294,0.02495
2898.90420,0.02514
2896.97545,0.02524
2895.04671,0.02548
2893.11796,0.02582
2891.18922,0.02598
2889.26047,0.02597
2887.33172,0.02595
2885.40298,0.02596
2883.47423,0.02586
2881.54549,0.02551
2879.61674,0.02495
2877.68800,0.02439
2875.75925,0.02400
2873.83051,0.02390
2871.90176,0.02422
2869.97302,0.02470
2868.04427,0.02488
2866.11553,0.02467
2864.18678,0.02440
2862.25804,0.02438
2860.32929,0.02456
2858.40055,0.02475
2856.47180,0.02499
2854.54305,0.02531
2852.61431,0.02560
2850.68556,0.02600
2848.75682,0.02680
2846.82807,0.02815
2844.89933,0.02995
2842.97058,0.03199
2841.04184,0.03426
2839.11309,0.03672
2837.18435,0.03895
2835.25560,0.04086
2833.32686,0.04279
2831.39811,0.04468
2829.46937,0.04606
2827.54062,0.04699
2825.61188,0.04786
2823.68313,0.04880
2821.75438,0.04981
2819.82564,0.05097
2817.89689,0.05241
2815.96815,0.05411
2814.03940,0.05582
2812.11066,0.05737
2810.18191,0.05888
2808.25317,0.06024
2806.32442,0.06132
2804.39568,0.06245
2802.46693,0.06386
2800.53819,0.06525
2798.60944,0.06640
2796.68070,0.06752
2794.75195,0.06883
2792.82320,0.07020
2790.89446,0.07140
2788.96571,0.07248
2787.03697,0.07364
2785.10822,0.07482
2783.17948,0.07595
2781.25073,0.07718
2779.32199,0.07849
2777.39324,0.07965
2775.46450,0.08072
2773.53575,0.08199
2771.60701,0.08339
2769.67826,0.08472
2767.74952,0.08586
2765.82077,0.08681
2763.89203,0.08748
2761.96328,0.08786
2760.03453,0.08803
2758.10579,0.08803
2756.17704,0.08786
2754.24830,0.08770
2752.31955,0.08776
2750.39081,0.08790
2748.46206,0.08784
2746.53332,0.08773
2744.60457,0.08789
2742.67583,0.08836
2740.74708,0.08913
2738.81834,0.09016
2736.88959,0.09135
2734.96085,0.09275
2733.03210,0.09434
2731.10336,0.09592
2729.17461,0.09739
2727.24586,0.09884
2725.31712,0.10032
2723.38837,0.10175
2721.45963,0.10320
2719.53088,0.10487
2717.60214,0.10667
2715.67339,0.10829
2713.74465,0.10973
2711.81590,0.11114
2709.88716,0.11235
2707.95841,0.11318
2706.02967,0.11393
2704.10092,0.11474
2702.17218,0.11543
2700.24343,0.11606
2698.31468,0.11689
2696.38594,0.11798
2694.45719,0.11902
2692.52845,0.11983
2690.59970,0.12059
2688.67096,0.12134
2686.74221,0.12202
2684.81347,0.12269
2682.88472,0.12335
2680.95598,0.12398
2679.02723,0.12470
2677.09849,0.12555
2675.16974,0.12635
2673.24100,0.12688
2671.31225,0.12726
2669.38351,0.12779
2667.45476,0.12847
2665.52601,0.12902
2663.59727,0.12921
2661.66852,0.12907
2659.73978,0.12881
2657.81103,0.12868
2655.88229,0.12890
2653.95354,0.12936
2652.02480,0.12990
2650.09605,0.13067
2648.16731,0.13171
2646.23856,0.13285
2644.30982,0.13389
2642.38107,0.13474
2640.45233,0.13553
2638.52358,0.13638
2636.59484,0.13712
2634.66609,0.13766
2632.73734,0.13812
2630.80860,0.13865
2628.87985,0.13919
2626.95111,0.13952
2625.02236,0.13974
2623.09362,0.14032
2621.16487,0.14132
2619.23613,0.14231
2617.30738,0.14307
2615.37864,0.14386
2613.44989,0.14485
2611.52115,0.14588
2609.59240,0.14669
2607.66366,0.14735
2605.73491,0.14816
2603.80616,0.14897
2601.87742,0.14962
2599.94867,0.15019
2598.01993,0.15061
2596.09118,0.15091
2594.16244,0.15124
2592.23369,0.15158
2590.30495,0.15188
2588.37620,0.15207
2586.44746,0.15212
2584.51871,0.15236
2582.58997,0.15290
2580.66122,0.15349
2578.73248,0.15408
2576.80373,0.15483
2574.87499,0.15565
2572.94624,0.15624
2571.01749,0.15655
2569.08875,0.15666
2567.16000,0.15670
2565.23126,0.15694
2563.30251,0.15728
2561.37377,0.15738
2559.44502,0.15732
2557.51628,0.15721
2555.58753,0.15696
2553.65879,0.15661
2551.73004,0.15638
2549.80130,0.15656
2547.87255,0.15718
2545.94381,0.15800
2544.01506,0.15897
2542.08631,0.16010
2540.15757,0.16137
2538.22882,0.16294
2536.30008,0.16475
2534.37133,0.16642
2532.44259,0.16796
2530.51384,0.16964
2528.58510,0.17132
2526.65635,0.17290
2524.72761,0.17446
2522.79886,0.17604
2520.87012,0.17772
2518.94137,0.17957
2517.01263,0.18133
2515.08388,0.18273
2513.15514,0.18387
2511.22639,0.18498
2509.29764,0.18605
2507.36890,0.18682
2505.44015,0.18723
2503.51141,0.18749
2501.58266,0.18766
2499.65392,0.18766
2497.72517,0.18743
2495.79643,0.18689
2493.86768,0.18613
2491.93894,0.18544
2490.01019,0.18486
2488.08145,0.18435
2486.15270,0.18400
2484.22396,0.18376
2482.29521,0.18357
2480.36647,0.18347
2478.43772,0.18367
2476.50897,0.18423
2474.58023,0.18493
2472.65148,0.18574
2470.72274,0.18687
2468.79399,0.18823
2466.86525,0.18967
2464.93650,0.19118
2463.00776,0.19283
2461.07901,0.19459
2459.15027,0.19618
2457.22152,0.19744
2455.29278,0.19866
2453.36403,0.19993
2451.43529,0.20096
2449.50654,0.20185
2447.57779,0.20304
2445.64905,0.20460
2443.72030,0.20613
2441.79156,0.20750
2439.86281,0.20879
2437.93407,0.20991
2436.00532,0.21090
2434.07658,0.21184
2432.14783,0.21270
2430.21909,0.21344
2428.29034,0.21415
2426.36160,0.21486
2424.43285,0.21548
2422.50411,0.21597
2420.57536,0.21653
2418.64662,0.21713
2416.71787,0.21755
2414.78912,0.21764
2412.86038,0.21751
2410.93163,0.21743
2409.00289,0.21742
2407.07414,0.21732
2405.14540,0.21720
2403.21665,0.21729
2401.28791,0.21747
2399.35916,0.21761
2397.43042,0.21775
2395.50167,0.21786
2393.57293,0.21782
2391.64418,0.21761
2389.71544,0.21742
2387.78669,0.21748
2385.85795,0.21784
2383.92920,0.21835
2382.00045,0.21892
2380.07171,0.21945
2378.14296,0.21993
2376.21422,0.22055
2374.28547,0.22141
2372.35673,0.22230
2370.42798,0.22314
2368.49924,0.22399
2366.57049,0.22464
2364.64175,0.22495
2362.71300,0.22502
2360.78426,0.22501
2358.85551,0.22504
2356.92677,0.22502
2354.99802,0.22483
2353.06927,0.22442
2351.14053,0.22416
2349.21178,0.22419
2347.28304,0.22402
2345.35429,0.22347
2343.42555,0.22296
2341.49680,0.22245
2339.56806,0.22173
2337.63931,0.22126
2335.71057,0.22122
2333.78182,0.22133
2331.85308,0.22152
2329.92433,0.22155
2327.99559,0.22131
2326.06684,0.22113
2324.13810,0.22106
2322.20935,0.22097
2320.28060,0.22103
2318.35186,0.22131
2316.42311,0.22165
2314.49437,0.22215
2312.56562,0.22283
2310.63688,0.22346
2308.70813,0.22413
2306.77939,0.22497
2304.85064,0.22579
2302.92190,0.22649
2300.99315,0.22716
2299.06441,0.22768
2297.13566,0.22786
2295.20692,0.22793
2293.27817,0.22815
2291.34943,0.22841
2289.42068,0.22874
2287.49193,0.22930
2285.56319,0.22999
2283.63444,0.23063
2281.70570,0.23115
2279.77695,0.23142
2277.84821,0.23146
2275.91946,0.23152
2273.99072,0.23163
2272.06197,0.23174
2270.13323,0.23198
2268.20448,0.23247
2266.27574,0.23311
2264.34699,0.23383
2262.41825,0.23471
2260.48950,0.23573
2258.56075,0.23682
2256.63201,0.23792
2254.70326,0.23882
2252.77452,0.23943
2250.84577,0.24006
2248.91703,0.24080
2246.98828,0.24139
2245.05954,0.24179
2243.13079,0.24210
2241.20205,0.24239
2239.27330,0.24260
2237.34456,0.24258
2235.41581,0.24228
2233.48707,0.24175
2231.55832,0.24110
2229.62958,0.24042
2227.70083,0.23964
2225.77208,0.23875
2223.84334,0.23782
2221.91459,0.23681
2219.98585,0.23561
2218.05710,0.23425
2216.12836,0.23281
2214.19961,0.23129
2212.27087,0.22989
2210.34212,0.22875
2208.41338,0.22776
2206.48463,0.22669
2204.55589,0.22547
2202.62714,0.22418
2200.69840,0.22274
2198.76965,0.22109
2196.84090,0.21945
2194.91216,0.21826
2192.98341,0.21771
2191.05467,0.21766
2189.12592,0.21795
2187.19718,0.21860
2185.26843,0.21953
2183.33969,0.22052
2181.41094,0.22157
2179.48220,0.22276
2177.55345,0.22397
2175.62471,0.22498
2173.69596,0.22566
2171.76722,0.22611
2169.83847,0.22656
2167.90973,0.22720
2165.98098,0.22789
2164.05223,0.22851
2162.12349,0.22910
2160.19474,0.22957
2158.26600,0.22982
2156.33725,0.23001
2154.40851,0.23018
2152.47976,0.23026
2150.55102,0.23024
2148.62227,0.23018
2146.69353,0.23019
2144.76478,0.23027
2142.83604,0.23032
2140.90729,0.23023
2138.97855,0.23000
2137.04980,0.22960
2135.12106,0.22904
2133.19231,0.22854
2131.26356,0.22838
2129.33482,0.22842
2127.40607,0.22851
2125.47733,0.22874
2123.54858,0.22917
2121.61984,0.22986
2119.69109,0.23085
2117.76235,0.23202
2115.83360,0.23326
2113.90486,0.23436
2111.97611,0.23529
2110.04737,0.23634
2108.11862,0.23747
2106.18988,0.23838
2104.26113,0.23884
2102.33238,0.23889
2100.40364,0.23875
2098.47489,0.23857
2096.54615,0.23836
2094.61740,0.23794
2092.68866,0.23725
2090.75991,0.23644
2088.83117,0.23570
2086.90242,0.23507
2084.97368,0.23444
2083.04493,0.23377
2081.11619,0.23309
2079.18744,0.23234
2077.25870,0.23146
2075.32995,0.23056
2073.40121,0.22980
2071.47246,0.22925
2069.54371,0.22888
2067.61497,0.22874
2065.68622,0.22897
2063.75748,0.22972
2061.82873,0.23091
2059.89999,0.23235
2057.97124,0.23387
2056.04250,0.23530
2054.11375,0.23650
2052.18501,0.23728
2050.25626,0.23739
2048.32752,0.23682
2046.39877,0.23591
2044.47003,0.23479
2042.54128,0.23361
2040.61254,0.23283
2038.68379,0.23285
2036.75504,0.23362
2034.82630,0.23479
2032.89755,0.23601
2030.96881,0.23727
2029.04006,0.23863
2027.11132,0.23989
2025.18257,0.24094
2023.25383,0.24196
2021.32508,0.24313
2019.39634,0.24433
2017.46759,0.24528
2015.53885,0.24591
2013.61010,0.24636
2011.68136,0.24682
2009.75261,0.24742
2007.82386,0.24812
2005.89512,0.24881
2003.96637,0.24930
2002.03763,0.24944
2000.10888,0.24937
1998.18014,0.24929
1996.25139,0.24921
1994.32265,0.24893
1992.39390,0.24831
1990.46516,0.24748
1988.53641,0.24656
1986.60767,0.24567
1984.67892,0.24509
1982.75018,0.24490
1980.82143,0.24495
1978.89269,0.24511
1976.96394,0.24522
1975.03519,0.24521
1973.10645,0.24536
1971.17770,0.24614
1969.24896,0.24734
1967.32021,0.24840
1965.39147,0.24935
1963.46272,0.25038
1961.53398,0.25140
1959.60523,0.25235
1957.67649,0.25323
1955.74774,0.25393
1953.81900,0.25430
1951.89025,0.25437
1949.96151,0.25423
1948.03276,0.25406
1946.10402,0.25394
1944.17527,0.25373
1942.24652,0.25327
1940.31778,0.25285
1938.38903,0.25296
1936.46029,0.25346
1934.53154,0.25394
1932.60280,0.25435
1930.67405,0.25477
1928.74531,0.25504
1926.81656,0.25500
1924.88782,0.25477
1922.95907,0.25436
1921.03033,0.25360
1919.10158,0.25245
1917.17284,0.25094
1915.24409,0.24915
1913.31534,0.24721
1911.38660,0.24519
1909.45785,0.24316
1907.52911,0.24131
1905.60036,0.23976
1903.67162,0.23849
1901.74287,0.23752
1899.81413,0.23707
1897.88538,0.23707
1895.95664,0.23726
1894.02789,0.23762
1892.09915,0.23816
1890.17040,0.23877
1888.24166,0.23927
1886.31291,0.23963
1884.38417,0.24006
1882.45542,0.24057
1880.52667,0.24094
1878.59793,0.24116
1876.66918,0.24130
1874.74044,0.24140
1872.81169,0.24156
1870.88295,0.24172
1868.95420,0.24169
1867.02546,0.24151
1865.09671,0.24129
1863.16797,0.24103
1861.23922,0.24066
1859.31048,0.24019
1857.38173,0.23952
1855.45299,0.23854
1853.52424,0.23729
1851.59549,0.23591
1849.66675,0.23435
1847.73800,0.23267
1845.80926,0.23082
1843.88051,0.22860
1841.95177,0.22648
1840.02302,0.22493
1838.09428,0.22370
1836.16553,0.22257
1834.23679,0.22151
1832.30804,0.22035
1830.37930,0.21896
1828.45055,0.21760
1826.52181,0.21643
1824.59306,0.21516
1822.66432,0.21374
1820.73557,0.21231
1818.80682,0.21085
1816.87808,0.20934
1814.94933,0.20765
1813.02059,0.20573
1811.09184,0.20370
1809.16310,0.20173
1807.23435,0.19973
1805.30561,0.19755
1803.37686,0.19523
1801.44812,0.19271
1799.51937,0.19010
1797.59063,0.18762
1795.66188,0.18529
1793.73314,0.18290
1791.80439,0.18035
1789.87565,0.17792
1787.94690,0.17559
1786.01815,0.17304
1784.08941,0.17031
1782.16066,0.16747
1780.23192,0.16435
1778.30317,0.16116
1776.37443,0.15818
1774.44568,0.15496
1772.51694,0.15090
1770.58819,0.14640
1768.65945,0.14202
1766.73070,0.13759
1764.80196,0.13311
1762.87321,0.12825
1760.94447,0.12292
1759.01572,0.11782
1757.08697,0.11272
1755.15823,0.10752
1753.22948,0.10248
1751.30074,0.09710
1749.37199,0.09125
1747.44325,0.08578
1745.51450,0.08108
1743.58576,0.07695
1741.65701,0.07329
1739.72827,0.07018
1737.79952,0.06800
1735.87078,0.06663
1733.94203,0.06535
1732.01329,0.06430
1730.08454,0.06384
1728.15580,0.06357
1726.22705,0.06322
1724.29830,0.06283
1722.36956,0.06239
1720.44081,0.06189
1718.51207,0.06135
1716.58332,0.06066
1714.65458,0.05959
1712.72583,0.05824
1710.79709,0.05681
1708.86834,0.05525
1706.93960,0.05336
1705.01085,0.05130
1703.08211,0.04940
1701.15336,0.04702
1699.22462,0.04370
1697.29587,0.04032
1695.36713,0.03677
1693.43838,0.03338
1691.50963,0.03060
1689.58089,0.02801
1687.65214,0.02575
1685.72340,0.02365
1683.79465,0.02111
1681.86591,0.01902
1679.93716,0.01800
1678.00842,0.01743
1676.07967,0.01692
1674.15093,0.01651
1672.22218,0.01624
1670.29344,0.01585
1668.36469,0.01551
1666.43595,0.01561
1664.50720,0.01604
1662.57845,0.01666
1660.64971,0.01729
1658.72096,0.01779
1656.79222,0.01844
1654.86347,0.01948
1652.93473,0.02083
1651.00598,0.02206
1649.07724,0.02349
1647.14849,0.02571
1645.21975,0.02841
1643.29100,0.03060
1641.36226,0.03210
1639.43351,0.03305
1637.50477,0.03334
1635.57602,0.03257
1633.64728,0.03121
1631.71853,0.03017
1629.78978,0.02940
1627.86104,0.02862
1625.93229,0.02795
1624.00355,0.02745
1622.07480,0.02700
1620.14606,0.02660
1618.21731,0.02628
1616.28857,0.02599
1614.35982,0.02573
1612.43108,0.02568
1610.50233,0.02573
1608.57359,0.02564
1606.64484,0.02546
1604.71610,0.02528
1602.78735,0.02515
1600.85861,0.02513
1598.92986,0.02510
1597.00111,0.02484
1595.07237,0.02436
1593.14362,0.02378
1591.21488,0.02321
1589.28613,0.02275
1587.35739,0.02242
1585.42864,0.02213
1583.49990,0.02158
1581.57115,0.02090
1579.64241,0.02044
1577.71366,0.02004
1575.78492,0.01950
1573.85617,0.01926
1571.92743,0.01942
1569.99868,0.01965
1568.06993,0.01980
1566.14119,0.01992
1564.21244,0.02013
1562.28370,0.02048
1560.35495,0.02092
1558.42621,0.02129
1556.49746,0.02146
1554.56872,0.02168
1552.63997,0.02224
1550.71123,0.02346
1548.78248,0.02534
1546.85374,0.02745
1544.92499,0.02943
1542.99625,0.03105
1541.06750,0.03205
1539.13876,0.03234
1537.21001,0.03240
1535.28126,0.03246
1533.35252,0.03225
1531.42377,0.03180
1529.49503,0.03135
1527.56628,0.03091
1525.63754,0.03047
1523.70879,0.03003
1521.78005,0.02963
1519.85130,0.02937
1517.92256,0.02919
1515.99381,0.02909
1514.06507,0.02919
1512.13632,0.02925
1510.20758,0.02910
1508.27883,0.02904
1506.35008,0.02926
1504.42134,0.02949
1502.49259,0.02964
1500.56385,0.02987
1498.63510,0.03021
1496.70636,0.03056
1494.77761,0.03065
1492.84887,0.03056
1490.92012,0.03054
1488.99138,0.03039
1487.06263,0.02972
1485.13389,0.02868
1483.20514,0.02766
1481.27640,0.02682
1479.34765,0.02617
1477.41891,0.02585
1475.49016,0.02596
1473.56141,0.02615
1471.63267,0.02604
1469.70392,0.02577
1467.77518,0.02555
1465.84643,0.02536
1463.91769,0.02533
1461.98894,0.02548
1460.06020,0.02560
1458.13145,0.02569
1456.20271,0.02590
1454.27396,0.02599
1452.34522,0.02589
1450.41647,0.02583
1448.48773,0.02591
1446.55898,0.02599
1444.63024,0.02598
1442.70149,0.02594
1440.77274,0.02597
1438.84400,0.02607
1436.91525,0.02613
1434.98651,0.02625
1433.05776,0.02657
1431.12902,0.02694
1429.20027,0.02717
1427.27153,0.02730
1425.34278,0.02739
1423.41404,0.02745
1421.48529,0.02752
1419.55655,0.02769
1417.62780,0.02806
1415.69906,0.02862
1413.77031,0.02915
1411.84156,0.02957
1409.91282,0.03003
1407.98407,0.03058
1406.05533,0.03103
1404.12658,0.03120
1402.19784,0.03119
1400.26909,0.03108
1398.34035,0.03063
1396.41160,0.02979
1394.48286,0.02886
1392.55411,0.02807
1390.62537,0.02750
1388.69662,0.02697
1386.76788,0.02636
1384.83913,0.02582
1382.91039,0.02538
1380.98164,0.02499
1379.05289,0.02476
1377.12415,0.02478
1375.19540,0.02499
1373.26666,0.02519
1371.33791,0.02535
1369.40917,0.02558
1367.48042,0.02581
1365.55168,0.02598
1363.62293,0.02620
1361.69419,0.02643
1359.76544,0.02654
1357.83670,0.02668
1355.90795,0.02695
1353.97921,0.02721
1352.05046,0.02735
1350.12172,0.02747
1348.19297,0.02768
1346.26422,0.02811
1344.33548,0.02869
1342.40673,0.02914
1340.47799,0.02937
1338.54924,0.02944
1336.62050,0.02936
1334.69175,0.02935
1332.76301,0.02955
1330.83426,0.02976
1328.90552,0.02978
1326.97677,0.02969
1325.04803,0.02958
1323.11928,0.02934
1321.19054,0.02904
1319.26179,0.02878
1317.33304,0.02838
1315.40430,0.02781
1313.47555,0.02731
1311.54681,0.02691
1309.61806,0.02658
1307.68932,0.02635
1305.76057,0.02629
1303.83183,0.02633
1301.90308,0.02631
1299.97434,0.02628
1298.04559,0.02650
1296.11685,0.02683
1294.18810,0.02693
1292.25936,0.02689
1290.33061,0.02684
1288.40187,0.02662
1286.47312,0.02620
1284.54437,0.02571
1282.61563,0.02523
1280.68688,0.02490
1278.75814,0.02472
1276.82939,0.02462
1274.90065,0.02459
1272.97190,0.02463
1271.04316,0.02471
1269.11441,0.02486
1267.18567,0.02525
1265.25692,0.02591
1263.32818,0.02656
1261.39943,0.02698
1259.47069,0.02727
1257.54194,0.02755
1255.61320,0.02771
1253.68445,0.02778
1251.75570,0.02796
1249.82696,0.02820
1247.89821,0.02832
1245.96947,0.02833
1244.04072,0.02831
1242.11198,0.02823
1240.18323,0.02811
1238.25449,0.02810
1236.32574,0.02831
1234.39700,0.02872
1232.46825,0.02933
1230.53951,0.03026
1228.61076,0.03139
1226.68202,0.03243
1224.75327,0.03310
1222.82452,0.03299
1220.89578,0.03186
1218.96703,0.03026
1217.03829,0.02899
1215.10954,0.02829
1213.18080,0.02808
1211.25205,0.02817
1209.32331,0.02820
1207.39456,0.02813
1205.46582,0.02821
1203.53707,0.02854
1201.60833,0.02916
1199.67958,0.03012
1197.75084,0.03123
1195.82209,0.03223
1193.89335,0.03320
1191.96460,0.03417
1190.03585,0.03504
1188.10711,0.03587
1186.17836,0.03665
1184.24962,0.03687
1182.32087,0.03611
1180.39213,0.03470
1178.46338,0.03314
1176.53464,0.03146
1174.60589,0.02988
1172.67715,0.02885
1170.74840,0.02862
1168.81966,0.02919
1166.89091,0.03052
1164.96217,0.03260
1163.03342,0.03532
1161.10467,0.03857
1159.17593,0.04226
1157.24718,0.04607
1155.31844,0.04977
1153.38969,0.05350
1151.46095,0.05710
1149.53220,0.06021
1147.60346,0.06305
1145.67471,0.06596
1143.74597,0.06854
1141.81722,0.07039
1139.88848,0.07155
1137.95973,0.07195
1136.03099,0.07105
1134.10224,0.06831
1132.17350,0.06362
1130.24475,0.05768
1128.31600,0.05184
1126.38726,0.04714
1124.45851,0.04375
1122.52977,0.04174
1120.60102,0.04129
1118.67228,0.04232
1116.74353,0.04445
1114.81479,0.04716
1112.88604,0.04996
1110.95730,0.05257
1109.02855,0.05519
1107.09981,0.05825
1105.17106,0.06173
1103.24232,0.06523
1101.31357,0.06843
1099.38483,0.07087
1097.45608,0.07212
1095.52733,0.07228
1093.59859,0.07182
1091.66984,0.07093
1089.74110,0.06943
1087.81235,0.06733
1085.88361,0.06512
1083.95486,0.06316
1082.02612,0.06153
1080.09737,0.06039
1078.16863,0.05998
1076.23988,0.06022
1074.31114,0.06109
1072.38239,0.06258
1070.45365,0.06442
1068.52490,0.06652
1066.59615,0.06898
1064.66741,0.07149
1062.73866,0.07378
1060.80992,0.07603
1058.88117,0.07841
1056.95243,0.08070
1055.02368,0.08234
1053.09494,0.08296
1051.16619,0.08262
1049.23745,0.08143
1047.30870,0.07943
1045.37996,0.07711
1043.45121,0.07508
1041.52247,0.07341
1039.59372,0.07253
1037.66498,0.07288
1035.73623,0.07347
1033.80748,0.07309
1031.87874,0.07218
1029.94999,0.07223
1028.02125,0.07443
1026.09250,0.07870
1024.16376,0.08376
1022.23501,0.08839
1020.30627,0.09197
1018.37752,0.09430
1016.44878,0.09567
1014.52003,0.09650
1012.59129,0.09691
1010.66254,0.09694
1008.73380,0.09645
1006.80505,0.09524
1004.87631,0.09333
1002.94756,0.09109
1001.01881,0.08944
999.09007,0.08903
997.16132,0.08933
995.23258,0.08923
993.30383,0.08833
991.37509,0.08668
989.44634,0.08440
987.51760,0.08197
985.58885,0.07969
983.66011,0.07748
981.73136,0.07519
979.80262,0.07266
977.87387,0.07001
975.94513,0.06823
974.01638,0.06828
972.08763,0.06996
970.15889,0.07224
968.23014,0.07417
966.30140,0.07491
964.37265,0.07383
962.44391,0.07145
960.51516,0.06988
958.58642,0.07134
956.65767,0.07538
954.72893,0.07907
952.80018,0.08096
950.87144,0.08293
948.94269,0.08703
947.01395,0.09260
945.08520,0.09746
943.15646,0.10027
941.22771,0.10072
939.29896,0.09861
937.37022,0.09404
935.44147,0.08767
933.51273,0.08049
931.58398,0.07396
929.65524,0.07007
927.72649,0.07037
925.79775,0.07473
923.86900,0.08137
921.94026,0.08817
920.01151,0.09397
918.08277,0.09869
916.15402,0.10268
914.22528,0.10634
912.29653,0.10989
910.36779,0.11332
908.43904,0.11653
906.51029,0.11939
904.58155,0.12182
902.65280,0.12372
900.72406,0.12488
898.79531,0.12543
896.86657,0.12547
894.93782,0.12502
893.00908,0.12466
891.08033,0.12485
889.15159,0.12523
887.22284,0.12562
885.29410,0.12615
883.36535,0.12672
881.43661,0.12721
879.50786,0.12747
877.57911,0.12773
875.65037,0.12839
873.72162,0.12897
871.79288,0.12894
869.86413,0.12850
867.93539,0.12818
866.00664,0.12797
864.07790,0.12734
862.14915,0.12624
860.22041,0.12519
858.29166,0.12440
856.36292,0.12361
854.43417,0.12268
852.50543,0.12149
850.57668,0.11984
848.64794,0.11770
846.71919,0.11518
844.79044,0.11258
842.86170,0.10998
840.93295,0.10685
839.00421,0.10256
837.07546,0.09732
835.14672,0.09303
833.21797,0.09222
831.28923,0.09484
829.36048,0.09842
827.43174,0.10103
825.50299,0.10210
823.57425,0.10202
821.64550,0.10137
819.71676,0.10029
817.78801,0.09902
815.85926,0.09763
813.93052,0.09559
812.00177,0.09289
810.07303,0.09027
808.14428,0.08791
806.21554,0.08541
804.28679,0.08282
802.35805,0.08047
800.42930,0.07821
798.50056,0.07589
796.57181,0.07347
794.64307,0.07096
792.71432,0.06842
790.78558,0.06557
788.85683,0.06256
786.92809,0.06002
784.99934,0.05796
783.07059,0.05614
781.14185,0.05444
779.21310,0.05286
777.28436,0.05172
775.35561,0.05107
773.42687,0.05040
771.49812,0.04952
769.56938,0.04857
767.64063,0.04748
765.71189,0.04620
763.78314,0.04504
761.85440,0.04406
759.92565,0.04272
757.99691,0.04097
756.06816,0.03931
754.13942,0.03782
752.21067,0.03666
750.28192,0.03609
748.35318,0.03545
746.42443,0.03438
744.49569,0.03351
742.56694,0.03294
740.63820,0.03210
738.70945,0.03089
736.78071,0.02970
734.85196,0.02869
732.92322,0.02788
730.99447,0.02758
729.06573,0.02788
727.13698,0.02822
725.20824,0.02807
723.27949,0.02770
721.35074,0.02747
719.42200,0.02700
717.49325,0.02621
715.56451,0.02551
713.63576,0.02495
711.70702,0.02467
709.77827,0.02527
707.84953,0.02648
705.92078,0.02719
703.99204,0.02709
702.06329,0.02680
700.13455,0.02682
698.20580,0.02697
696.27706,0.02707
694.34831,0.02732
692.41957,0.02792
690.49082,0.02873
688.56207,0.02932
686.63333,0.02942
684.70458,0.02916
682.77584,0.02940
680.84709,0.03061
678.91835,0.03191
676.98960,0.03287
675.06086,0.03390
673.13211,0.03493
671.20337,0.03576
669.27462,0.03701
667.34588,0.03902
665.41713,0.04076
663.48839,0.04162
661.55964,0.04189
659.63090,0.04243
657.70215,0.04376
655.77340,0.04548
653.84466,0.04667
651.91591,0.04739
649.98717,0.04843
648.05842,0.04940
646.12968,0.04954
644.20093,0.04902
642.27219,0.04840
640.34344,0.04803
638.41470,0.04761
636.48595,0.04711
634.55721,0.04701
632.62846,0.04694
630.69972,0.04626
628.77097,0.04571
626.84222,0.04555
624.91348,0.04507
622.98473,0.04481
621.05599,0.04503
619.12724,0.04509
617.19850,0.04497
615.26975,0.04491
613.34101,0.04509
611.41226,0.04567
609.48352,0.04661
607.55477,0.04732
605.62603,0.04694
603.69728,0.04545
601.76854,0.04432
599.83979,0.04407
