7497.03301,0.73115
7495.10426,0.73390
7493.17552,0.73415
7491.24677,0.73451
7489.31803,0.73477
7487.38928,0.72904
7485.46054,0.72103
7483.53179,0.71956
7481.60305,0.72074
7479.67430,0.72065
7477.74556,0.72368
7475.81681,0.72631
7473.88807,0.72453
7471.95932,0.72588
7470.03057,0.73065
7468.10183,0.72952
7466.17308,0.72170
7464.24434,0.71593
7462.31559,0.71767
7460.38685,0.72027
7458.45810,0.71588
7456.52936,0.71055
7454.60061,0.71326
7452.67187,0.71972
7450.74312,0.72172
7448.81438,0.72009
7446.88563,0.71770
7444.95689,0.71616
7443.02814,0.71692
7441.09940,0.71915
7439.17065,0.72129
7437.24190,0.72114
7435.31316,0.71991
7433.38441,0.71988
7431.45567,0.71909
7429.52692,0.71872
7427.59818,0.72036
7425.66943,0.72177
7423.74069,0.72223
7421.81194,0.72076
7419.88320,0.71866
7417.95445,0.72052
7416.02571,0.72350
7414.09696,0.72246
7412.16822,0.72047
7410.23947,0.72075
7408.31073,0.72268
7406.38198,0.72495
7404.45323,0.72418
7402.52449,0.72000
7400.59574,0.71658
7398.66700,0.71336
7396.73825,0.70803
7394.80951,0.70664
7392.88076,0.71397
7390.95202,0.72242
7389.02327,0.72282
7387.09453,0.71640
7385.16578,0.71191
7383.23704,0.71261
7381.30829,0.71399
7379.37955,0.71620
7377.45080,0.71996
7375.52205,0.71891
7373.59331,0.71185
7371.66456,0.70592
7369.73582,0.70465
7367.80707,0.70586
7365.87833,0.70610
7363.94958,0.70527
7362.02084,0.70684
7360.09209,0.70946
7358.16335,0.70943
7356.23460,0.70911
7354.30586,0.70937
7352.37711,0.70760
7350.44837,0.70505
7348.51962,0.70246
7346.59088,0.69792
7344.66213,0.69536
7342.73338,0.69745
7340.80464,0.69692
7338.87589,0.69266
7336.94715,0.69090
7335.01840,0.69055
7333.08966,0.68942
7331.16091,0.68779
7329.23217,0.68625
7327.30342,0.68618
7325.37468,0.68688
7323.44593,0.68703
7321.51719,0.68670
7319.58844,0.68646
7317.65970,0.68673
7315.73095,0.68857
7313.80221,0.69109
7311.87346,0.68748
7309.94471,0.67737
7308.01597,0.67172
7306.08722,0.67421
7304.15848,0.67804
7302.22973,0.67842
7300.30099,0.67601
7298.37224,0.67364
7296.44350,0.67275
7294.51475,0.67364
7292.58601,0.67516
7290.65726,0.67429
7288.72852,0.67186
7286.79977,0.67165
7284.87103,0.67167
7282.94228,0.66578
7281.01353,0.65548
7279.08479,0.64976
7277.15604,0.65198
7275.22730,0.65901
7273.29855,0.66639
7271.36981,0.66833
7269.44106,0.66403
7267.51232,0.65962
7265.58357,0.65796
7263.65483,0.65542
7261.72608,0.65178
7259.79734,0.65258
7257.86859,0.65568
7255.93985,0.65356
7254.01110,0.65015
7252.08236,0.65094
7250.15361,0.65122
7248.22486,0.64994
7246.29612,0.64929
7244.36737,0.64640
7242.43863,0.64174
7240.50988,0.63884
7238.58114,0.63739
7236.65239,0.63498
7234.72365,0.63007
7232.79490,0.62658
7230.86616,0.62910
7228.93741,0.63398
7227.00867,0.63332
7225.07992,0.62591
7223.15118,0.62149
7221.22243,0.62347
7219.29369,0.62267
7217.36494,0.61724
7215.43619,0.61423
7213.50745,0.61596
7211.57870,0.61881
7209.64996,0.61960
7207.72121,0.61864
7205.79247,0.61739
7203.86372,0.61612
7201.93498,0.61352
7200.00623,0.61187
7198.07749,0.61381
7196.14874,0.61683
7194.22000,0.62045
7192.29125,0.62407
7190.36251,0.62409
7188.43376,0.62196
7186.50501,0.62270
7184.57627,0.62723
7182.64752,0.62991
7180.71878,0.62541
7178.79003,0.61939
7176.86129,0.62137
7174.93254,0.62845
7173.00380,0.62949
7171.07505,0.62373
7169.14631,0.61992
7167.21756,0.62087
7165.28882,0.62323
7163.36007,0.62591
7161.43133,0.62816
7159.50258,0.62784
7157.57384,0.62565
7155.64509,0.62334
7153.71634,0.62090
7151.78760,0.61973
7149.85885,0.62159
7147.93011,0.62540
7146.00136,0.62884
7144.07262,0.62979
7142.14387,0.62913
7140.21513,0.62949
7138.28638,0.62917
7136.35764,0.62755
7134.42889,0.62725
7132.50015,0.62802
7130.57140,0.62845
7128.64266,0.62689
7126.71391,0.62257
7124.78516,0.61943
7122.85642,0.62048
7120.92767,0.62227
7118.99893,0.62059
7117.07018,0.61808
7115.14144,0.61983
7113.21269,0.62301
7111.28395,0.62193
7109.35520,0.61798
7107.42646,0.61484
7105.49771,0.61435
7103.56897,0.61580
7101.64022,0.61644
7099.71148,0.61752
7097.78273,0.61955
7095.85399,0.61862
7093.92524,0.61540
7091.99649,0.61477
7090.06775,0.61684
7088.13900,0.61693
7086.21026,0.61427
7084.28151,0.61209
7082.35277,0.61087
7080.42402,0.61067
7078.49528,0.61292
7076.56653,0.61617
7074.63779,0.61784
7072.70904,0.61973
7070.78030,0.62396
7068.85155,0.62737
7066.92281,0.62681
7064.99406,0.62201
7063.06532,0.61600
7061.13657,0.61492
7059.20782,0.61883
7057.27908,0.62144
7055.35033,0.62155
7053.42159,0.62133
7051.49284,0.62197
7049.56410,0.62596
7047.63535,0.63045
7045.70661,0.62790
7043.77786,0.62154
7041.84912,0.62027
7039.92037,0.62278
7037.99163,0.62448
7036.06288,0.62570
7034.13414,0.62528
7032.20539,0.62176
7030.27664,0.61787
7028.34790,0.61643
7026.41915,0.61757
7024.49041,0.61929
7022.56166,0.62052
7020.63292,0.62286
7018.70417,0.62599
7016.77543,0.62652
7014.84668,0.62349
7012.91794,0.62037
7010.98919,0.62084
7009.06045,0.62362
7007.13170,0.62480
7005.20296,0.62407
7003.27421,0.62324
7001.34547,0.62282
6999.41672,0.62331
6997.48797,0.62511
6995.55923,0.62713
6993.63048,0.62846
6991.70174,0.62992
6989.77299,0.63244
6987.84425,0.63477
6985.91550,0.63420
6983.98676,0.63108
6982.05801,0.63036
6980.12927,0.63360
6978.20052,0.63648
6976.27178,0.63739
6974.34303,0.63646
6972.41429,0.63426
6970.48554,0.63518
6968.55680,0.63915
6966.62805,0.64159
6964.69930,0.64161
6962.77056,0.63936
6960.84181,0.63589
6958.91307,0.63418
6956.98432,0.63509
6955.05558,0.63655
6953.12683,0.63652
6951.19809,0.63609
6949.26934,0.63724
6947.34060,0.63956
6945.41185,0.64189
6943.48311,0.64276
6941.55436,0.63938
6939.62562,0.63339
6937.69687,0.63206
6935.76812,0.63575
6933.83938,0.63871
6931.91063,0.64061
6929.98189,0.64168
6928.05314,0.64090
6926.12440,0.64080
6924.19565,0.64271
6922.26691,0.64541
6920.33816,0.64746
6918.40942,0.64817
6916.48067,0.64898
6914.55193,0.64997
6912.62318,0.64941
6910.69444,0.64667
6908.76569,0.64372
6906.83695,0.64441
6904.90820,0.64614
6902.97945,0.64331
6901.05071,0.64015
6899.12196,0.64298
6897.19322,0.64873
6895.26447,0.65189
6893.33573,0.65283
6891.40698,0.65292
6889.47824,0.65083
6887.54949,0.64699
6885.62075,0.64431
6883.69200,0.64591
6881.76326,0.64994
6879.83451,0.65105
6877.90577,0.64917
6875.97702,0.64856
6874.04828,0.65207
6872.11953,0.65660
6870.19078,0.65670
6868.26204,0.65407
6866.33329,0.65398
6864.40455,0.65598
6862.47580,0.65600
6860.54706,0.65474
6858.61831,0.65500
6856.68957,0.65655
6854.76082,0.65958
6852.83208,0.66253
6850.90333,0.66250
6848.97459,0.66020
6847.04584,0.65828
6845.11710,0.65779
6843.18835,0.65793
6841.25960,0.65788
6839.33086,0.65674
6837.40211,0.65548
6835.47337,0.65622
6833.54462,0.65722
6831.61588,0.65527
6829.68713,0.65034
6827.75839,0.64680
6825.82964,0.64833
6823.90090,0.65279
6821.97215,0.65654
6820.04341,0.65685
6818.11466,0.65407
6816.18592,0.65272
6814.25717,0.65284
6812.32843,0.65142
6810.39968,0.65034
6808.47093,0.65038
6806.54219,0.64968
6804.61344,0.64891
6802.68470,0.64883
6800.75595,0.64959
6798.82721,0.65035
6796.89846,0.64986
6794.96972,0.64912
6793.04097,0.64840
6791.11223,0.64749
6789.18348,0.64783
6787.25474,0.64842
6785.32599,0.64572
6783.39725,0.64103
6781.46850,0.63960
6779.53975,0.64004
6777.61101,0.63806
6775.68226,0.63609
6773.75352,0.63736
6771.82477,0.63864
6769.89603,0.63550
6767.96728,0.62978
6766.03854,0.62597
6764.10979,0.62474
6762.18105,0.62469
6760.25230,0.62544
6758.32356,0.62718
6756.39481,0.62932
6754.46607,0.62964
6752.53732,0.62655
6750.60858,0.62388
6748.67983,0.62553
6746.75108,0.62735
6744.82234,0.62533
6742.89359,0.62363
6740.96485,0.62586
6739.03610,0.62833
6737.10736,0.62714
6735.17861,0.62369
6733.24987,0.62090
6731.32112,0.62040
6729.39238,0.62098
6727.46363,0.62091
6725.53489,0.62067
6723.60614,0.62058
6721.67740,0.62013
6719.74865,0.61992
6717.81991,0.62062
6715.89116,0.62061
6713.96241,0.62019
6712.03367,0.62269
6710.10492,0.62598
6708.17618,0.62512
6706.24743,0.62111
6704.31869,0.61835
6702.38994,0.61911
6700.46120,0.62138
6698.53245,0.62286
6696.60371,0.62304
6694.67496,0.61934
6692.74622,0.61315
6690.81747,0.61094
6688.88873,0.61329
6686.95998,0.61487
6685.03123,0.61342
6683.10249,0.61220
6681.17374,0.61325
6679.24500,0.61388
6677.31625,0.61216
6675.38751,0.61009
6673.45876,0.60874
6671.53002,0.60617
6669.60127,0.60278
6667.67253,0.60098
6665.74378,0.60131
6663.81504,0.60350
6661.88629,0.60586
6659.95755,0.60582
6658.02880,0.60347
6656.10006,0.60155
6654.17131,0.60115
6652.24256,0.60058
6650.31382,0.59918
6648.38507,0.59702
6646.45633,0.59348
6644.52758,0.58935
6642.59884,0.58668
6640.67009,0.58550
6638.74135,0.58407
6636.81260,0.58203
6634.88386,0.58077
6632.95511,0.58095
6631.02637,0.57960
6629.09762,0.57495
6627.16888,0.57109
6625.24013,0.57023
6623.31139,0.56854
6621.38264,0.56445
6619.45389,0.56185
6617.52515,0.56252
6615.59640,0.56459
6613.66766,0.56594
6611.73891,0.56527
6609.81017,0.56438
6607.88142,0.56469
6605.95268,0.56457
6604.02393,0.56386
6602.09519,0.56426
6600.16644,0.56610
6598.23770,0.56630
6596.30895,0.56277
6594.38021,0.56064
6592.45146,0.56506
6590.52271,0.57057
6588.59397,0.56960
6586.66522,0.56556
6584.73648,0.56450
6582.80773,0.56501
6580.87899,0.56414
6578.95024,0.56242
6577.02150,0.56165
6575.09275,0.56231
6573.16401,0.56170
6571.23526,0.55864
6569.30652,0.55633
6567.37777,0.55515
6565.44903,0.55349
6563.52028,0.55238
6561.59154,0.55299
6559.66279,0.55504
6557.73404,0.55606
6555.80530,0.55427
6553.87655,0.55155
6551.94781,0.54934
6550.01906,0.54788
6548.09032,0.54782
6546.16157,0.54858
6544.23283,0.54913
6542.30408,0.54920
6540.37534,0.54812
6538.44659,0.54650
6536.51785,0.54599
6534.58910,0.54528
6532.66036,0.54281
6530.73161,0.54100
6528.80287,0.54092
6526.87412,0.53957
6524.94537,0.53706
6523.01663,0.53648
6521.08788,0.53640
6519.15914,0.53505
6517.23039,0.53454
6515.30165,0.53477
6513.37290,0.53292
6511.44416,0.52866
6509.51541,0.52516
6507.58667,0.52484
6505.65792,0.52626
6503.72918,0.52713
6501.80043,0.52673
6499.87169,0.52537
6497.94294,0.52493
6496.01419,0.52596
6494.08545,0.52693
6492.15670,0.52765
6490.22796,0.52836
6488.29921,0.52842
6486.37047,0.52841
6484.44172,0.52944
6482.51298,0.53132
6480.58423,0.53407
6478.65549,0.53758
6476.72674,0.54026
6474.79800,0.54156
6472.86925,0.54230
6470.94051,0.54438
6469.01176,0.54956
6467.08302,0.55512
6465.15427,0.55811
6463.22552,0.56030
6461.29678,0.56378
6459.36803,0.56789
6457.43929,0.57123
6455.51054,0.57346
6453.58180,0.57464
6451.65305,0.57541
6449.72431,0.57880
6447.79556,0.58627
6445.86682,0.59268
6443.93807,0.59279
6442.00933,0.59067
6440.08058,0.59251
6438.15184,0.59622
6436.22309,0.59784
6434.29434,0.59782
6432.36560,0.59711
6430.43685,0.59693
6428.50811,0.59884
6426.57936,0.60122
6424.65062,0.60162
6422.72187,0.60067
6420.79313,0.60001
6418.86438,0.59915
6416.93564,0.59692
6415.00689,0.59548
6413.07815,0.59646
6411.14940,0.59623
6409.22066,0.59348
6407.29191,0.59179
6405.36317,0.59207
6403.43442,0.59218
6401.50567,0.59147
6399.57693,0.59124
6397.64818,0.59154
6395.71944,0.59091
6393.79069,0.58882
6391.86195,0.58649
6389.93320,0.58499
6388.00446,0.58298
6386.07571,0.57989
6384.14697,0.57686
6382.21822,0.57372
6380.28948,0.57146
6378.36073,0.57095
6376.43199,0.57041
6374.50324,0.56948
6372.57450,0.56848
6370.64575,0.56734
6368.71700,0.56731
6366.78826,0.56688
6364.85951,0.56373
6362.93077,0.56070
6361.00202,0.56006
6359.07328,0.56004
6357.14453,0.55968
6355.21579,0.55929
6353.28704,0.55865
6351.35830,0.55680
6349.42955,0.55486
6347.50081,0.55583
6345.57206,0.55863
6343.64332,0.56027
6341.71457,0.56147
6339.78582,0.56268
6337.85708,0.56276
6335.92833,0.56289
6333.99959,0.56419
6332.07084,0.56579
6330.14210,0.56681
6328.21335,0.56740
6326.28461,0.56862
6324.35586,0.57060
6322.42712,0.57275
6320.49837,0.57469
6318.56963,0.57575
6316.64088,0.57659
6314.71214,0.57808
6312.78339,0.57919
6310.85465,0.57950
6308.92590,0.58037
6306.99715,0.58226
6305.06841,0.58374
6303.13966,0.58438
6301.21092,0.58541
6299.28217,0.58639
6297.35343,0.58589
6295.42468,0.58494
6293.49594,0.58524
6291.56719,0.58649
6289.63845,0.58757
6287.70970,0.58758
6285.78096,0.58606
6283.85221,0.58388
6281.92347,0.58326
6279.99472,0.58415
6278.06598,0.58428
6276.13723,0.58346
6274.20848,0.58201
6272.27974,0.57907
6270.35099,0.57529
6268.42225,0.57288
6266.49350,0.57232
6264.56476,0.57213
6262.63601,0.57212
6260.70727,0.57313
6258.77852,0.57475
6256.84978,0.57573
6254.92103,0.57523
6252.99229,0.57398
6251.06354,0.57367
6249.13480,0.57419
6247.20605,0.57383
6245.27730,0.57216
6243.34856,0.57076
6241.41981,0.57084
6239.49107,0.57167
6237.56232,0.57286
6235.63358,0.57434
6233.70483,0.57493
6231.77609,0.57460
6229.84734,0.57402
6227.91860,0.57317
6225.98985,0.57345
6224.06111,0.57626
6222.13236,0.57915
6220.20362,0.57929
6218.27487,0.57815
6216.34613,0.57831
6214.41738,0.58027
6212.48863,0.58250
6210.55989,0.58356
6208.63114,0.58414
6206.70240,0.58539
6204.77365,0.58689
6202.84491,0.58703
6200.91616,0.58622
6198.98742,0.58659
6197.05867,0.58767
6195.12993,0.58830
6193.20118,0.58872
6191.27244,0.58942
6189.34369,0.59080
6187.41495,0.59252
6185.48620,0.59405
6183.55746,0.59549
6181.62871,0.59684
6179.69996,0.59775
6177.77122,0.59786
6175.84247,0.59738
6173.91373,0.59815
6171.98498,0.60133
6170.05624,0.60510
6168.12749,0.60794
6166.19875,0.61020
6164.27000,0.61189
6162.34126,0.61275
6160.41251,0.61359
6158.48377,0.61512
6156.55502,0.61662
6154.62628,0.61808
6152.69753,0.62029
6150.76878,0.62256
6148.84004,0.62370
6146.91129,0.62416
6144.98255,0.62519
6143.05380,0.62701
6141.12506,0.62889
6139.19631,0.63083
6137.26757,0.63298
6135.33882,0.63419
6133.41008,0.63473
6131.48133,0.63587
6129.55259,0.63641
6127.62384,0.63602
6125.69510,0.63622
6123.76635,0.63670
6121.83761,0.63757
6119.90886,0.63958
6117.98011,0.64194
6116.05137,0.64436
6114.12262,0.64531
6112.19388,0.64260
6110.26513,0.63939
6108.33639,0.63982
6106.40764,0.64164
6104.47890,0.64108
6102.55015,0.63930
6100.62141,0.63890
6098.69266,0.64008
6096.76392,0.64188
6094.83517,0.64307
6092.90643,0.64276
6090.97768,0.64122
6089.04893,0.64021
6087.12019,0.64059
6085.19144,0.64036
6083.26270,0.63944
6081.33395,0.63962
6079.40521,0.64014
6077.47646,0.64010
6075.54772,0.63958
6073.61897,0.63835
6071.69023,0.63694
6069.76148,0.63653
6067.83274,0.63706
6065.90399,0.63710
6063.97525,0.63624
6062.04650,0.63530
6060.11776,0.63522
6058.18901,0.63599
6056.26026,0.63618
6054.33152,0.63507
6052.40277,0.63399
6050.47403,0.63408
6048.54528,0.63496
6046.61654,0.63565
6044.68779,0.63588
6042.75905,0.63590
6040.83030,0.63601
6038.90156,0.63564
6036.97281,0.63333
6035.04407,0.63075
6033.11532,0.63102
6031.18658,0.63275
6029.25783,0.63289
6027.32909,0.63097
6025.40034,0.62872
6023.47159,0.62791
6021.54285,0.62836
6019.61410,0.62905
6017.68536,0.62921
6015.75661,0.62848
6013.82787,0.62786
6011.89912,0.62768
6009.97038,0.62669
6008.04163,0.62505
6006.11289,0.62425
6004.18414,0.62443
6002.25540,0.62433
6000.32665,0.62261
5998.39791,0.62019
5996.46916,0.61912
5994.54041,0.61918
5992.61167,0.61942
5990.68292,0.62050
5988.75418,0.62177
5986.82543,0.62021
5984.89669,0.61610
5982.96794,0.61348
5981.03920,0.61323
5979.11045,0.61281
5977.18171,0.61131
5975.25296,0.61003
5973.32422,0.60956
5971.39547,0.60872
5969.46673,0.60682
5967.53798,0.60486
5965.60924,0.60363
5963.68049,0.60254
5961.75174,0.60088
5959.82300,0.59909
5957.89425,0.59801
5955.96551,0.59735
5954.03676,0.59606
5952.10802,0.59428
5950.17927,0.59345
5948.25053,0.59338
5946.32178,0.59258
5944.39304,0.59130
5942.46429,0.58980
5940.53555,0.58722
5938.60680,0.58468
5936.67806,0.58315
5934.74931,0.58071
5932.82057,0.57673
5930.89182,0.57296
5928.96307,0.56963
5927.03433,0.56574
5925.10558,0.56167
5923.17684,0.55832
5921.24809,0.55550
5919.31935,0.55210
5917.39060,0.54754
5915.46186,0.54318
5913.53311,0.53986
5911.60437,0.53654
5909.67562,0.53253
5907.74688,0.52776
5905.81813,0.52257
5903.88939,0.51756
5901.96064,0.51248
5900.03189,0.50713
5898.10315,0.50185
5896.17440,0.49738
5894.24566,0.49471
5892.31691,0.49311
5890.38817,0.49054
5888.45942,0.48586
5886.53068,0.48032
5884.60193,0.47641
5882.67319,0.47352
5880.74444,0.46874
5878.81570,0.46264
5876.88695,0.45798
5874.95821,0.45490
5873.02946,0.45200
5871.10072,0.44870
5869.17197,0.44517
5867.24322,0.44168
5865.31448,0.43843
5863.38573,0.43552
5861.45699,0.43315
5859.52824,0.43132
5857.59950,0.42914
5855.67075,0.42607
5853.74201,0.42306
5851.81326,0.42131
5849.88452,0.41983
5847.95577,0.41685
5846.02703,0.41354
5844.09828,0.41147
5842.16954,0.40984
5840.24079,0.40804
5838.31205,0.40643
5836.38330,0.40513
5834.45455,0.40391
5832.52581,0.40316
5830.59706,0.40331
5828.66832,0.40374
5826.73957,0.40376
5824.81083,0.40309
5822.88208,0.40257
5820.95334,0.40353
5819.02459,0.40535
5817.09585,0.40609
5815.16710,0.40516
5813.23836,0.40416
5811.30961,0.40457
5809.38087,0.40610
5807.45212,0.40785
5805.52337,0.40907
5803.59463,0.41018
5801.66588,0.41178
5799.73714,0.41294
5797.80839,0.41379
5795.87965,0.41558
5793.95090,0.41783
5792.02216,0.41937
5790.09341,0.42047
5788.16467,0.42240
5786.23592,0.42499
5784.30718,0.42660
5782.37843,0.42658
5780.44969,0.42529
5778.52094,0.42447
5776.59220,0.42567
5774.66345,0.42755
5772.73470,0.42901
5770.80596,0.43086
5768.87721,0.43261
5766.94847,0.43332
5765.01972,0.43372
5763.09098,0.43451
5761.16223,0.43577
5759.23349,0.43750
5757.30474,0.43889
5755.37600,0.43925
5753.44725,0.43932
5751.51851,0.43959
5749.58976,0.43955
5747.66102,0.43852
5745.73227,0.43668
5743.80352,0.43555
5741.87478,0.43538
5739.94603,0.43446
5738.01729,0.43238
5736.08854,0.43023
5734.15980,0.42868
5732.23105,0.42746
5730.30231,0.42624
5728.37356,0.42501
5726.44482,0.42333
5724.51607,0.42110
5722.58733,0.41901
5720.65858,0.41705
5718.72984,0.41527
5716.80109,0.41452
5714.87235,0.41461
5712.94360,0.41490
5711.01485,0.41635
5709.08611,0.41880
5707.15736,0.41991
5705.22862,0.41939
5703.29987,0.41900
5701.37113,0.41934
5699.44238,0.41995
5697.51364,0.42075
5695.58489,0.42182
5693.65615,0.42269
5691.72740,0.42333
5689.79866,0.42491
5687.86991,0.42749
5685.94117,0.42944
5684.01242,0.42989
5682.08368,0.43009
5680.15493,0.43153
5678.22618,0.43396
5676.29744,0.43585
5674.36869,0.43701
5672.43995,0.43850
5670.51120,0.44036
5668.58246,0.44238
5666.65371,0.44527
5664.72497,0.44870
5662.79622,0.45196
5660.86748,0.45481
5658.93873,0.45640
5657.00999,0.45694
5655.08124,0.45790
5653.15250,0.46021
5651.22375,0.46366
5649.29500,0.46654
5647.36626,0.46784
5645.43751,0.46860
5643.50877,0.46984
5641.58002,0.47189
5639.65128,0.47436
5637.72253,0.47615
5635.79379,0.47700
5633.86504,0.47764
5631.93630,0.47859
5630.00755,0.48009
5628.07881,0.48204
5626.15006,0.48400
5624.22132,0.48569
5622.29257,0.48711
5620.36383,0.48808
5618.43508,0.48811
5616.50633,0.48762
5614.57759,0.48792
5612.64884,0.48895
5610.72010,0.48999
5608.79135,0.49121
5606.86261,0.49193
5604.93386,0.49141
5603.00512,0.49043
5601.07637,0.48963
5599.14763,0.48938
5597.21888,0.49000
5595.29014,0.49102
5593.36139,0.49232
5591.43265,0.49408
5589.50390,0.49554
5587.57516,0.49585
5585.64641,0.49525
5583.71766,0.49467
5581.78892,0.49474
5579.86017,0.49530
5577.93143,0.49610
5576.00268,0.49743
5574.07394,0.49877
5572.14519,0.49925
5570.21645,0.49909
5568.28770,0.49910
5566.35896,0.49945
5564.43021,0.49940
5562.50147,0.49893
5560.57272,0.49916
5558.64398,0.50031
5556.71523,0.50175
5554.78648,0.50285
5552.85774,0.50312
5550.92899,0.50253
5549.00025,0.50162
5547.07150,0.50133
5545.14276,0.50215
5543.21401,0.50320
5541.28527,0.50356
5539.35652,0.50348
5537.42778,0.50327
5535.49903,0.50294
5533.57029,0.50297
5531.64154,0.50366
5529.71280,0.50460
5527.78405,0.50568
5525.85531,0.50690
5523.92656,0.50750
5521.99781,0.50694
5520.06907,0.50637
5518.14032,0.50662
5516.21158,0.50663
5514.28283,0.50634
5512.35409,0.50684
5510.42534,0.50772
5508.49660,0.50842
5506.56785,0.50947
5504.63911,0.51057
5502.71036,0.51112
5500.78162,0.51141
5498.85287,0.51170
5496.92413,0.51152
5494.99538,0.51065
5493.06664,0.51013
5491.13789,0.51086
5489.20914,0.51222
5487.28040,0.51350
5485.35165,0.51456
5483.42291,0.51491
5481.49416,0.51409
5479.56542,0.51305
5477.63667,0.51319
5475.70793,0.51444
5473.77918,0.51557
5471.85044,0.51574
5469.92169,0.51496
5467.99295,0.51380
5466.06420,0.51372
5464.13546,0.51538
5462.20671,0.51697
5460.27796,0.51717
5458.34922,0.51707
5456.42047,0.51727
5454.49173,0.51732
5452.56298,0.51735
5450.63424,0.51762
5448.70549,0.51783
5446.77675,0.51758
5444.84800,0.51711
5442.91926,0.51703
5440.99051,0.51754
5439.06177,0.51880
5437.13302,0.52073
5435.20428,0.52226
5433.27553,0.52245
5431.34679,0.52193
5429.41804,0.52163
5427.48929,0.52211
5425.56055,0.52340
5423.63180,0.52421
5421.70306,0.52402
5419.77431,0.52442
5417.84557,0.52566
5415.91682,0.52657
5413.98808,0.52715
5412.05933,0.52747
5410.13059,0.52711
5408.20184,0.52668
5406.27310,0.52724
5404.34435,0.52833
5402.41561,0.52906
5400.48686,0.52981
5398.55811,0.53082
5396.62937,0.53183
5394.70062,0.53256
5392.77188,0.53254
5390.84313,0.53249
5388.91439,0.53355
5386.98564,0.53514
5385.05690,0.53592
5383.12815,0.53580
5381.19941,0.53605
5379.27066,0.53732
5377.34192,0.53883
5375.41317,0.53979
5373.48443,0.54037
5371.55568,0.54111
5369.62694,0.54207
5367.69819,0.54316
5365.76944,0.54448
5363.84070,0.54551
5361.91195,0.54557
5359.98321,0.54518
5358.05446,0.54499
5356.12572,0.54483
5354.19697,0.54467
5352.26823,0.54476
5350.33948,0.54503
5348.41074,0.54532
5346.48199,0.54523
5344.55325,0.54494
5342.62450,0.54533
5340.69576,0.54621
5338.76701,0.54677
5336.83827,0.54718
5334.90952,0.54807
5332.98077,0.54905
5331.05203,0.54912
5329.12328,0.54816
5327.19454,0.54693
5325.26579,0.54641
5323.33705,0.54664
5321.40830,0.54692
5319.47956,0.54693
5317.55081,0.54664
5315.62207,0.54620
5313.69332,0.54577
5311.76458,0.54549
5309.83583,0.54551
5307.90709,0.54541
5305.97834,0.54461
5304.04959,0.54339
5302.12085,0.54283
5300.19210,0.54316
5298.26336,0.54298
5296.33461,0.54139
5294.40587,0.53925
5292.47712,0.53782
5290.54838,0.53768
5288.61963,0.53821
5286.69089,0.53809
5284.76214,0.53696
5282.83340,0.53532
5280.90465,0.53375
5278.97591,0.53310
5277.04716,0.53325
5275.11842,0.53292
5273.18967,0.53195
5271.26092,0.53116
5269.33218,0.53080
5267.40343,0.53030
5265.47469,0.52907
5263.54594,0.52771
5261.61720,0.52697
5259.68845,0.52648
5257.75971,0.52620
5255.83096,0.52619
5253.90222,0.52562
5251.97347,0.52457
5250.04473,0.52382
5248.11598,0.52317
5246.18724,0.52246
5244.25849,0.52205
5242.32975,0.52215
5240.40100,0.52214
5238.47225,0.52113
5236.54351,0.51945
5234.61476,0.51800
5232.68602,0.51709
5230.75727,0.51693
5228.82853,0.51731
5226.89978,0.51759
5224.97104,0.51741
5223.04229,0.51671
5221.11355,0.51544
5219.18480,0.51370
5217.25606,0.51241
5215.32731,0.51201
5213.39857,0.51169
5211.46982,0.51111
5209.54107,0.51034
5207.61233,0.50901
5205.68358,0.50729
5203.75484,0.50576
5201.82609,0.50475
5199.89735,0.50407
5197.96860,0.50300
5196.03986,0.50139
5194.11111,0.50032
5192.18237,0.50028
5190.25362,0.49984
5188.32488,0.49817
5186.39613,0.49673
5184.46739,0.49645
5182.53864,0.49659
5180.60990,0.49640
5178.68115,0.49552
5176.75240,0.49443
5174.82366,0.49382
5172.89491,0.49330
5170.96617,0.49207
5169.03742,0.49027
5167.10868,0.48902
5165.17993,0.48864
5163.25119,0.48850
5161.32244,0.48818
5159.39370,0.48754
5157.46495,0.48644
5155.53621,0.48523
5153.60746,0.48448
5151.67872,0.48396
5149.74997,0.48324
5147.82123,0.48249
5145.89248,0.48208
5143.96373,0.48205
5142.03499,0.48213
5140.10624,0.48192
5138.17750,0.48101
5136.24875,0.47987
5134.32001,0.47961
5132.39126,0.47991
5130.46252,0.47955
5128.53377,0.47873
5126.60503,0.47858
5124.67628,0.47925
5122.74754,0.47994
5120.81879,0.48014
5118.89005,0.47975
5116.96130,0.47919
5115.03255,0.47910
5113.10381,0.47927
5111.17506,0.47936
5109.24632,0.47971
5107.31757,0.48022
5105.38883,0.48064
5103.46008,0.48133
5101.53134,0.48249
5099.60259,0.48360
5097.67385,0.48401
5095.74510,0.48375
5093.81636,0.48356
5091.88761,0.48398
5089.95887,0.48467
5088.03012,0.48521
5086.10138,0.48571
5084.17263,0.48602
5082.24388,0.48630
5080.31514,0.48678
5078.38639,0.48670
5076.45765,0.48634
5074.52890,0.48698
5072.60016,0.48808
5070.67141,0.48864
5068.74267,0.48929
5066.81392,0.49017
5064.88518,0.49052
5062.95643,0.49030
5061.02769,0.49012
5059.09894,0.49057
5057.17020,0.49127
5055.24145,0.49134
5053.31270,0.49114
5051.38396,0.49108
5049.45521,0.49097
5047.52647,0.49125
5045.59772,0.49185
5043.66898,0.49155
5041.74023,0.49064
5039.81149,0.49031
5037.88274,0.49028
5035.95400,0.49015
5034.02525,0.49011
5032.09651,0.48995
5030.16776,0.48906
5028.23902,0.48735
5026.31027,0.48574
5024.38153,0.48443
5022.45278,0.48283
5020.52403,0.48128
5018.59529,0.48061
5016.66654,0.48045
5014.73780,0.47945
5012.80905,0.47737
5010.88031,0.47484
5008.95156,0.47220
5007.02282,0.47031
5005.09407,0.46931
5003.16533,0.46750
5001.23658,0.46437
4999.30784,0.46153
4997.37909,0.45926
4995.45035,0.45640
4993.52160,0.45280
4991.59286,0.44901
4989.66411,0.44524
4987.73536,0.44133
4985.80662,0.43696
4983.87787,0.43213
4981.94913,0.42757
4980.02038,0.42411
4978.09164,0.42151
4976.16289,0.41899
4974.23415,0.41669
4972.30540,0.41510
4970.37666,0.41387
4968.44791,0.41252
4966.51917,0.41124
4964.59042,0.41036
4962.66168,0.40982
4960.73293,0.40929
4958.80418,0.40870
4956.87544,0.40810
4954.94669,0.40730
4953.01795,0.40648
4951.08920,0.40630
4949.16046,0.40670
4947.23171,0.40663
4945.30297,0.40562
4943.37422,0.40455
4941.44548,0.40393
4939.51673,0.40332
4937.58799,0.40287
4935.65924,0.40277
4933.73050,0.40215
4931.80175,0.40087
4929.87301,0.39997
4927.94426,0.39944
4926.01551,0.39842
4924.08677,0.39698
4922.15802,0.39561
4920.22928,0.39408
4918.30053,0.39176
4916.37179,0.38853
4914.44304,0.38464
4912.51430,0.38024
4910.58555,0.37574
4908.65681,0.37149
4906.72806,0.36684
4904.79932,0.36141
4902.87057,0.35578
4900.94183,0.35036
4899.01308,0.34502
4897.08434,0.33945
4895.15559,0.33400
4893.22684,0.32941
4891.29810,0.32551
4889.36935,0.32159
4887.44061,0.31746
4885.51186,0.31374
4883.58312,0.31107
4881.65437,0.30870
4879.72563,0.30573
4877.79688,0.30285
4875.86814,0.30085
4873.93939,0.29944
4872.01065,0.29845
4870.08190,0.29858
4868.15316,0.30065
4866.22441,0.30451
4864.29566,0.30926
4862.36692,0.31429
4860.43817,0.31948
4858.50943,0.32514
4856.58068,0.33146
4854.65194,0.33759
4852.72319,0.34307
4850.79445,0.34886
4848.86570,0.35571
4846.93696,0.36311
4845.00821,0.37019
4843.07947,0.37663
4841.15072,0.38285
4839.22198,0.38923
4837.29323,0.39558
4835.36449,0.40157
4833.43574,0.40657
4831.50699,0.41042
4829.57825,0.41410
4827.64950,0.41801
4825.72076,0.42143
4823.79201,0.42414
4821.86327,0.42657
4819.93452,0.42885
4818.00578,0.43074
4816.07703,0.43204
4814.14829,0.43284
4812.21954,0.43313
4810.29080,0.43315
4808.36205,0.43313
4806.43331,0.43280
4804.50456,0.43223
4802.57582,0.43177
4800.64707,0.43143
4798.71832,0.43107
4796.78958,0.43061
4794.86083,0.43044
4792.93209,0.43087
4791.00334,0.43134
4789.07460,0.43096
4787.14585,0.43014
4785.21711,0.42972
4783.28836,0.42923
4781.35962,0.42831
4779.43087,0.42742
4777.50213,0.42654
4775.57338,0.42555
4773.64464,0.42472
4771.71589,0.42417
4769.78714,0.42361
4767.85840,0.42279
4765.92965,0.42178
4764.00091,0.42077
4762.07216,0.41971
4760.14342,0.41847
4758.21467,0.41725
4756.28593,0.41633
4754.35718,0.41552
4752.42844,0.41462
4750.49969,0.41360
4748.57095,0.41243
4746.64220,0.41135
4744.71346,0.41034
4742.78471,0.40906
4740.85597,0.40756
4738.92722,0.40607
4736.99847,0.40458
4735.06973,0.40271
4733.14098,0.40051
4731.21224,0.39896
4729.28349,0.39823
4727.35475,0.39730
4725.42600,0.39549
4723.49726,0.39290
4721.56851,0.38996
4719.63977,0.38737
4717.71102,0.38545
4715.78228,0.38365
4713.85353,0.38150
4711.92479,0.37899
4709.99604,0.37640
4708.06729,0.37416
4706.13855,0.37205
4704.20980,0.37015
4702.28106,0.36895
4700.35231,0.36771
4698.42357,0.36585
4696.49482,0.36394
4694.56608,0.36231
4692.63733,0.36106
4690.70859,0.36025
4688.77984,0.35971
4686.85110,0.35899
4684.92235,0.35805
4682.99361,0.35768
4681.06486,0.35784
4679.13612,0.35772
4677.20737,0.35761
4675.27862,0.35799
4673.34988,0.35832
4671.42113,0.35846
4669.49239,0.35869
4667.56364,0.35873
4665.63490,0.35860
4663.70615,0.35895
4661.77741,0.35964
4659.84866,0.36006
4657.91992,0.36011
4655.99117,0.35982
4654.06243,0.35946
4652.13368,0.35931
4650.20494,0.35879
4648.27619,0.35759
4646.34745,0.35620
4644.41870,0.35501
4642.48995,0.35412
4640.56121,0.35340
4638.63246,0.35220
4636.70372,0.35002
4634.77497,0.34738
4632.84623,0.34511
4630.91748,0.34324
4628.98874,0.34136
4627.05999,0.33942
4625.13125,0.33755
4623.20250,0.33574
4621.27376,0.33395
4619.34501,0.33212
4617.41627,0.33021
4615.48752,0.32854
4613.55877,0.32734
4611.63003,0.32599
4609.70128,0.32428
4607.77254,0.32262
4605.84379,0.32119
4603.91505,0.32018
4601.98630,0.31928
4600.05756,0.31781
4598.12881,0.31632
4596.20007,0.31533
4594.27132,0.31444
4592.34258,0.31355
4590.41383,0.31286
4588.48509,0.31218
4586.55634,0.31136
4584.62760,0.31078
4582.69885,0.31063
4580.77010,0.31034
4578.84136,0.30972
4576.91261,0.30926
4574.98387,0.30917
4573.05512,0.30937
4571.12638,0.30951
4569.19763,0.30935
4567.26889,0.30931
4565.34014,0.30974
4563.41140,0.31040
4561.48265,0.31132
4559.55391,0.31270
4557.62516,0.31426
4555.69642,0.31526
4553.76767,0.31564
4551.83893,0.31630
4549.91018,0.31773
4547.98143,0.31929
4546.05269,0.32023
4544.12394,0.32078
4542.19520,0.32149
4540.26645,0.32217
4538.33771,0.32239
4536.40896,0.32241
4534.48022,0.32263
4532.55147,0.32294
4530.62273,0.32321
4528.69398,0.32348
4526.76524,0.32392
4524.83649,0.32483
4522.90775,0.32633
4520.97900,0.32813
4519.05025,0.32955
4517.12151,0.33062
4515.19276,0.33188
4513.26402,0.33326
4511.33527,0.33468
4509.40653,0.33632
4507.47778,0.33801
4505.54904,0.33956
4503.62029,0.34076
4501.69155,0.34159
4499.76280,0.34253
4497.83406,0.34391
4495.90531,0.34522
4493.97657,0.34587
4492.04782,0.34600
4490.11908,0.34593
4488.19033,0.34582
4486.26158,0.34572
4484.33284,0.34562
4482.40409,0.34569
4480.47535,0.34598
4478.54660,0.34614
4476.61786,0.34601
4474.68911,0.34572
4472.76037,0.34542
4470.83162,0.34505
4468.90288,0.34464
4466.97413,0.34451
4465.04539,0.34476
4463.11664,0.34500
4461.18790,0.34465
4459.25915,0.34356
4457.33041,0.34226
4455.40166,0.34115
4453.47291,0.34022
4451.54417,0.33912
4449.61542,0.33746
4447.68668,0.33532
4445.75793,0.33311
4443.82919,0.33113
4441.90044,0.32920
4439.97170,0.32683
4438.04295,0.32420
4436.11421,0.32192
4434.18546,0.31980
4432.25672,0.31732
4430.32797,0.31448
4428.39923,0.31131
4426.47048,0.30801
4424.54173,0.30494
4422.61299,0.30204
4420.68424,0.29903
4418.75550,0.29572
4416.82675,0.29222
4414.89801,0.28889
4412.96926,0.28593
4411.04052,0.28338
4409.11177,0.28069
4407.18303,0.27746
4405.25428,0.27409
4403.32554,0.27072
4401.39679,0.26724
4399.46805,0.26391
4397.53930,0.26072
4395.61056,0.25722
4393.68181,0.25308
4391.75306,0.24852
4389.82432,0.24423
4387.89557,0.24040
4385.96683,0.23663
4384.03808,0.23257
4382.10934,0.22805
4380.18059,0.22330
4378.25185,0.21871
4376.32310,0.21407
4374.39436,0.20931
4372.46561,0.20484
4370.53687,0.20067
4368.60812,0.19683
4366.67938,0.19372
4364.75063,0.19119
4362.82189,0.18860
4360.89314,0.18600
4358.96439,0.18407
4357.03565,0.18300
4355.10690,0.18283
4353.17816,0.18371
4351.24941,0.18519
4349.32067,0.18694
4347.39192,0.18938
4345.46318,0.19286
4343.53443,0.19718
4341.60569,0.20175
4339.67694,0.20601
4337.74820,0.20980
4335.81945,0.21315
4333.89071,0.21610
4331.96196,0.21876
4330.03321,0.22115
4328.10447,0.22320
4326.17572,0.22484
4324.24698,0.22632
4322.31823,0.22825
4320.38949,0.23062
4318.46074,0.23279
4316.53200,0.23465
4314.60325,0.23654
4312.67451,0.23809
4310.74576,0.23902
4308.81702,0.23992
4306.88827,0.24110
4304.95953,0.24248
4303.03078,0.24381
4301.10204,0.24469
4299.17329,0.24504
4297.24454,0.24499
4295.31580,0.24450
4293.38705,0.24364
4291.45831,0.24249
4289.52956,0.24076
4287.60082,0.23852
4285.67207,0.23628
4283.74333,0.23395
4281.81458,0.23101
4279.88584,0.22777
4277.95709,0.22507
4276.02835,0.22286
4274.09960,0.22070
4272.17086,0.21860
4270.24211,0.21648
4268.31336,0.21416
4266.38462,0.21200
4264.45587,0.21049
4262.52713,0.20956
4260.59838,0.20920
4258.66964,0.20966
4256.74089,0.21076
4254.81215,0.21208
4252.88340,0.21359
4250.95466,0.21517
4249.02591,0.21629
4247.09717,0.21669
4245.16842,0.21658
4243.23968,0.21611
4241.31093,0.21554
4239.38219,0.21495
4237.45344,0.21427
4235.52469,0.21378
4233.59595,0.21357
4231.66720,0.21344
4229.73846,0.21329
4227.80971,0.21300
4225.88097,0.21252
4223.95222,0.21205
4222.02348,0.21171
4220.09473,0.21150
4218.16599,0.21154
4216.23724,0.21202
4214.30850,0.21280
4212.37975,0.21363
4210.45101,0.21433
4208.52226,0.21462
4206.59352,0.21458
4204.66477,0.21488
4202.73602,0.21545
4200.80728,0.21561
4198.87853,0.21549
4196.94979,0.21569
4195.02104,0.21627
4193.09230,0.21676
4191.16355,0.21681
4189.23481,0.21663
4187.30606,0.21681
4185.37732,0.21773
4183.44857,0.21917
4181.51983,0.22055
4179.59108,0.22177
4177.66234,0.22324
4175.73359,0.22507
4173.80484,0.22679
4171.87610,0.22841
4169.94735,0.23025
4168.01861,0.23227
4166.08986,0.23412
4164.16112,0.23550
4162.23237,0.23658
4160.30363,0.23779
4158.37488,0.23915
4156.44614,0.24054
4154.51739,0.24207
4152.58865,0.24364
4150.65990,0.24524
4148.73116,0.24692
4146.80241,0.24858
4144.87367,0.25007
4142.94492,0.25147
4141.01617,0.25284
4139.08743,0.25402
4137.15868,0.25505
4135.22994,0.25629
4133.30119,0.25773
4131.37245,0.25893
4129.44370,0.25985
4127.51496,0.26061
4125.58621,0.26115
4123.65747,0.26163
4121.72872,0.26206
4119.79998,0.26221
4117.87123,0.26207
4115.94249,0.26155
4114.01374,0.26078
4112.08500,0.26011
4110.15625,0.25954
4108.22750,0.25885
4106.29876,0.25821
4104.37001,0.25804
4102.44127,0.25839
4100.51252,0.25905
4098.58378,0.25992
4096.65503,0.26086
4094.72629,0.26166
4092.79754,0.26211
4090.86880,0.26237
4088.94005,0.26276
4087.01131,0.26331
4085.08256,0.26381
4083.15382,0.26411
4081.22507,0.26418
4079.29632,0.26400
4077.36758,0.26354
4075.43883,0.26295
4073.51009,0.26239
4071.58134,0.26174
4069.65260,0.26091
4067.72385,0.25982
4065.79511,0.25855
4063.86636,0.25719
4061.93762,0.25558
4060.00887,0.25365
4058.08013,0.25170
4056.15138,0.24994
4054.22264,0.24832
4052.29389,0.24675
4050.36515,0.24540
4048.43640,0.24446
4046.50765,0.24362
4044.57891,0.24252
4042.65016,0.24120
4040.72142,0.24003
4038.79267,0.23929
4036.86393,0.23845
4034.93518,0.23711
4033.00644,0.23587
4031.07769,0.23526
4029.14895,0.23504
4027.22020,0.23463
4025.29146,0.23378
4023.36271,0.23299
4021.43397,0.23285
4019.50522,0.23331
4017.57648,0.23395
4015.64773,0.23467
4013.71898,0.23543
4011.79024,0.23604
4009.86149,0.23676
4007.93275,0.23784
4006.00400,0.23914
4004.07526,0.24075
4002.14651,0.24268
4000.21777,0.24484
3998.28902,0.24737
3996.36028,0.25025
3994.43153,0.25295
3992.50279,0.25535
3990.57404,0.25766
3988.64530,0.25973
3986.71655,0.26159
3984.78780,0.26319
3982.85906,0.26435
3980.93031,0.26536
3979.00157,0.26647
3977.07282,0.26754
3975.14408,0.26861
3973.21533,0.26976
3971.28659,0.27087
3969.35784,0.27197
3967.42910,0.27324
3965.50035,0.27453
3963.57161,0.27562
3961.64286,0.27659
3959.71412,0.27748
3957.78537,0.27815
3955.85663,0.27872
3953.92788,0.27931
3951.99913,0.27987
3950.07039,0.28042
3948.14164,0.28107
3946.21290,0.28175
3944.28415,0.28228
3942.35541,0.28273
3940.42666,0.28336
3938.49792,0.28438
3936.56917,0.28577
3934.64043,0.28735
3932.71168,0.28912
3930.78294,0.29110
3928.85419,0.29317
3926.92545,0.29517
3924.99670,0.29698
3923.06795,0.29850
3921.13921,0.29982
3919.21046,0.30119
3917.28172,0.30272
3915.35297,0.30437
3913.42423,0.30593
3911.49548,0.30724
3909.56674,0.30833
3907.63799,0.30920
3905.70925,0.30980
3903.78050,0.31018
3901.85176,0.31058
3899.92301,0.31143
3897.99427,0.31281
3896.06552,0.31424
3894.13678,0.31521
3892.20803,0.31570
3890.27928,0.31619
3888.35054,0.31717
3886.42179,0.31835
3884.49305,0.31932
3882.56430,0.32033
3880.63556,0.32155
3878.70681,0.32263
3876.77807,0.32354
3874.84932,0.32438
3872.92058,0.32476
3870.99183,0.32442
3869.06309,0.32382
3867.13434,0.32320
3865.20560,0.32208
3863.27685,0.32017
3861.34811,0.31776
3859.41936,0.31512
3857.49061,0.31249
3855.56187,0.31013
3853.63312,0.30851
3851.70438,0.30855
3849.77563,0.31012
3847.84689,0.31250
3845.91814,0.31499
3843.98940,0.31723
3842.06065,0.31936
3840.13191,0.32133
3838.20316,0.32299
3836.27442,0.32429
3834.34567,0.32507
3832.41693,0.32550
3830.48818,0.32591
3828.55943,0.32635
3826.63069,0.32663
3824.70194,0.32685
3822.77320,0.32739
3820.84445,0.32842
3818.91571,0.32967
3816.98696,0.33085
3815.05822,0.33213
3813.12947,0.33361
3811.20073,0.33502
3809.27198,0.33626
3807.34324,0.33752
3805.41449,0.33881
3803.48575,0.33984
3801.55700,0.34049
3799.62826,0.34095
3797.69951,0.34141
3795.77076,0.34176
3793.84202,0.34200
3791.91327,0.34233
3789.98453,0.34286
3788.05578,0.34316
3786.12704,0.34301
3784.19829,0.34289
3782.26955,0.34279
3780.34080,0.34240
3778.41206,0.34172
3776.48331,0.34084
3774.55457,0.34007
3772.62582,0.33965
3770.69708,0.33915
3768.76833,0.33839
3766.83959,0.33778
3764.91084,0.33730
3762.98209,0.33685
3761.05335,0.33649
3759.12460,0.33629
3757.19586,0.33633
3755.26711,0.33634
3753.33837,0.33611
3751.40962,0.33562
3749.48088,0.33509
3747.55213,0.33497
3745.62339,0.33515
3743.69464,0.33545
3741.76590,0.33611
3739.83715,0.33723
3737.90841,0.33861
3735.97966,0.33999
3734.05091,0.34125
3732.12217,0.34248
3730.19342,0.34380
3728.26468,0.34488
3726.33593,0.34545
3724.40719,0.34572
3722.47844,0.34554
3720.54970,0.34466
3718.62095,0.34367
3716.69221,0.34311
3714.76346,0.34237
3712.83472,0.34080
3710.90597,0.33870
3708.97723,0.33685
3707.04848,0.33537
3705.11974,0.33387
3703.19099,0.33218
3701.26224,0.33032
3699.33350,0.32823
3697.40475,0.32582
3695.47601,0.32314
3693.54726,0.32031
3691.61852,0.31726
3689.68977,0.31316
3687.76103,0.30746
3685.83228,0.30167
3683.90354,0.29659
3681.97479,0.29183
3680.04605,0.28759
3678.11730,0.28411
3676.18856,0.28075
3674.25981,0.27782
3672.33107,0.27612
3670.40232,0.27487
3668.47357,0.27362
3666.54483,0.27278
3664.61608,0.27213
3662.68734,0.27136
3660.75859,0.27050
3658.82985,0.26944
3656.90110,0.26793
3654.97236,0.26641
3653.04361,0.26521
3651.11487,0.26329
3649.18612,0.25988
3647.25738,0.25626
3645.32863,0.25321
3643.39989,0.25003
3641.47114,0.24660
3639.54239,0.24333
3637.61365,0.24004
3635.68490,0.23645
3633.75616,0.23278
3631.82741,0.22940
3629.89867,0.22604
3627.96992,0.22240
3626.04118,0.21931
3624.11243,0.21689
3622.18369,0.21453
3620.25494,0.21172
3618.32620,0.20874
3616.39745,0.20628
3614.46871,0.20402
3612.53996,0.20150
3610.61122,0.19894
3608.68247,0.19640
3606.75372,0.19380
3604.82498,0.19132
3602.89623,0.18900
3600.96749,0.18657
3599.03874,0.18385
3597.11000,0.18099
3595.18125,0.17809
3593.25251,0.17527
3591.32376,0.17295
3589.39502,0.17095
3587.46627,0.16842
3585.53753,0.16537
3583.60878,0.16257
3581.68004,0.16020
3579.75129,0.15769
3577.82254,0.15473
3575.89380,0.15182
3573.96505,0.14938
3572.03631,0.14725
3570.10756,0.14518
3568.17882,0.14293
3566.25007,0.14029
3564.32133,0.13756
3562.39258,0.13486
3560.46384,0.13207
3558.53509,0.12936
3556.60635,0.12710
3554.67760,0.12523
3552.74886,0.12320
3550.82011,0.12089
3548.89137,0.11866
3546.96262,0.11643
3545.03387,0.11422
3543.10513,0.11222
3541.17638,0.11013
3539.24764,0.10798
3537.31889,0.10599
3535.39015,0.10405
3533.46140,0.10228
3531.53266,0.10082
3529.60391,0.09933
3527.67517,0.09744
3525.74642,0.09522
3523.81768,0.09316
3521.88893,0.09150
3519.96019,0.08997
3518.03144,0.08855
3516.10270,0.08731
3514.17395,0.08605
3512.24520,0.08454
3510.31646,0.08296
3508.38771,0.08164
3506.45897,0.08061
3504.53022,0.07962
3502.60148,0.07876
3500.67273,0.07821
3498.74399,0.07763
3496.81524,0.07680
3494.88650,0.07596
3492.95775,0.07525
3491.02901,0.07468
3489.10026,0.07414
3487.17152,0.07349
3485.24277,0.07280
3483.31402,0.07215
3481.38528,0.07153
3479.45653,0.07127
3477.52779,0.07123
3475.59904,0.07061
3473.67030,0.06942
3471.74155,0.06847
3469.81281,0.06811
3467.88406,0.06793
3465.95532,0.06765
3464.02657,0.06719
3462.09783,0.06650
3460.16908,0.06565
3458.24034,0.06481
3456.31159,0.06417
3454.38285,0.06364
3452.45410,0.06299
3450.52535,0.06214
3448.59661,0.06124
3446.66786,0.06068
3444.73912,0.06038
3442.81037,0.05981
3440.88163,0.05899
3438.95288,0.05849
3437.02414,0.05827
3435.09539,0.05797
3433.16665,0.05760
3431.23790,0.05710
3429.30916,0.05646
3427.38041,0.05576
3425.45167,0.05498
3423.52292,0.05413
3421.59418,0.05337
3419.66543,0.05260
3417.73668,0.05154
3415.80794,0.05046
3413.87919,0.04967
3411.95045,0.04882
3410.02170,0.04770
3408.09296,0.04671
3406.16421,0.04589
3404.23547,0.04481
3402.30672,0.04365
3400.37798,0.04301
3398.44923,0.04267
3396.52049,0.04192
3394.59174,0.04088
3392.66300,0.03995
3390.73425,0.03891
3388.80550,0.03755
3386.87676,0.03631
3384.94801,0.03545
3383.01927,0.03468
3381.09052,0.03388
3379.16178,0.03297
3377.23303,0.03183
3375.30429,0.03082
3373.37554,0.03013
3371.44680,0.02956
3369.51805,0.02910
3367.58931,0.02864
3365.66056,0.02818
3363.73182,0.02775
3361.80307,0.02716
3359.87433,0.02640
3357.94558,0.02573
3356.01683,0.02512
3354.08809,0.02467
3352.15934,0.02447
3350.23060,0.02408
3348.30185,0.02347
3346.37311,0.02305
3344.44436,0.02271
3342.51562,0.02244
3340.58687,0.02243
3338.65813,0.02262
3336.72938,0.02279
3334.80064,0.02268
3332.87189,0.02235
3330.94315,0.02193
3329.01440,0.02136
3327.08566,0.02072
3325.15691,0.02047
3323.22816,0.02071
3321.29942,0.02102
3319.37067,0.02130
3317.44193,0.02148
3315.51318,0.02132
3313.58444,0.02103
3311.65569,0.02088
3309.72695,0.02090
3307.79820,0.02128
3305.86946,0.02207
3303.94071,0.02278
3302.01197,0.02298
3300.08322,0.02301
3298.15448,0.02345
3296.22573,0.02396
3294.29698,0.02410
3292.36824,0.02409
3290.43949,0.02414
3288.51075,0.02405
3286.58200,0.02370
3284.65326,0.02358
3282.72451,0.02403
3280.79577,0.02453
3278.86702,0.02458
3276.93828,0.02432
3275.00953,0.02414
3273.08079,0.02415
3271.15204,0.02413
3269.22330,0.02410
3267.29455,0.02427
3265.36581,0.02448
3263.43706,0.02469
3261.50831,0.02513
3259.57957,0.02556
3257.65082,0.02559
3255.72208,0.02531
3253.79333,0.02503
3251.86459,0.02491
3249.93584,0.02509
3248.00710,0.02569
3246.07835,0.02613
3244.14961,0.02615
3242.22086,0.02637
3240.29212,0.02695
3238.36337,0.02748
3236.43463,0.02791
3234.50588,0.02824
3232.57713,0.02818
3230.64839,0.02796
3228.71964,0.02810
3226.79090,0.02841
3224.86215,0.02854
3222.93341,0.02869
3221.00466,0.02913
3219.07592,0.02963
3217.14717,0.02972
3215.21843,0.02962
3213.28968,0.02991
3211.36094,0.03030
3209.43219,0.03025
3207.50345,0.02998
3205.57470,0.03014
3203.64596,0.03063
3201.71721,0.03091
3199.78846,0.03113
3197.85972,0.03156
3195.93097,0.03193
3194.00223,0.03216
3192.07348,0.03252
3190.14474,0.03314
3188.21599,0.03380
3186.28725,0.03430
3184.35850,0.03488
3182.42976,0.03568
3180.50101,0.03631
3178.57227,0.03666
3176.64352,0.03723
3174.71478,0.03820
3172.78603,0.03924
3170.85729,0.04008
3168.92854,0.04071
3166.99979,0.04136
3165.07105,0.04218
3163.14230,0.04301
3161.21356,0.04373
3159.28481,0.04442
3157.35607,0.04504
3155.42732,0.04534
3153.49858,0.04535
3151.56983,0.04550
3149.64109,0.04603
3147.71234,0.04644
3145.78360,0.04638
3143.85485,0.04615
3141.92611,0.04593
3139.99736,0.04563
3138.06861,0.04519
3136.13987,0.04490
3134.21112,0.04486
3132.28238,0.04458
3130.35363,0.04371
3128.42489,0.04262
3126.49614,0.04181
3124.56740,0.04130
3122.63865,0.04075
3120.70991,0.03986
3118.78116,0.03872
3116.85242,0.03769
3114.92367,0.03672
3112.99493,0.03556
3111.06618,0.03445
3109.13744,0.03374
3107.20869,0.03343
3105.27994,0.03311
3103.35120,0.03242
3101.42245,0.03159
3099.49371,0.03101
3097.56496,0.03068
3095.63622,0.03042
3093.70747,0.03015
3091.77873,0.02993
3089.84998,0.02959
3087.92124,0.02928
3085.99249,0.02934
3084.06375,0.02952
3082.13500,0.02952
3080.20626,0.02937
3078.27751,0.02922
3076.34877,0.02936
3074.42002,0.02976
3072.49127,0.03015
3070.56253,0.03054
3068.63378,0.03110
3066.70504,0.03168
3064.77629,0.03209
3062.84755,0.03257
3060.91880,0.03320
3058.99006,0.03370
3057.06131,0.03413
3055.13257,0.03491
3053.20382,0.03614
3051.27508,0.03753
3049.34633,0.03889
3047.41759,0.04017
3045.48884,0.04149
3043.56009,0.04304
3041.63135,0.04474
3039.70260,0.04628
3037.77386,0.04761
3035.84511,0.04885
3033.91637,0.04995
3031.98762,0.05098
3030.05888,0.05192
3028.13013,0.05266
3026.20139,0.05327
3024.27264,0.05394
3022.34390,0.05458
3020.41515,0.05508
3018.48641,0.05549
3016.55766,0.05573
3014.62892,0.05580
3012.70017,0.05591
3010.77142,0.05584
3008.84268,0.05544
3006.91393,0.05506
3004.98519,0.05470
3003.05644,0.05425
3001.12770,0.05377
2999.19895,0.05315
2997.27021,0.05210
2995.34146,0.05067
2993.41272,0.04918
2991.48397,0.04760
2989.55523,0.04581
2987.62648,0.04373
2985.69774,0.04146
2983.76899,0.03921
2981.84025,0.03699
2979.91150,0.03470
2977.98275,0.03240
2976.05401,0.03034
2974.12526,0.02863
2972.19652,0.02724
2970.26777,0.02623
2968.33903,0.02543
2966.41028,0.02457
2964.48154,0.02377
2962.55279,0.02331
2960.62405,0.02314
2958.69530,0.02301
2956.76656,0.02278
2954.83781,0.02243
2952.90907,0.02202
2950.98032,0.02177
2949.05157,0.02176
2947.12283,0.02195
2945.19408,0.02228
2943.26534,0.02248
2941.33659,0.02237
2939.40785,0.02224
2937.47910,0.02247
2935.55036,0.02294
2933.62161,0.02320
2931.69287,0.02315
2929.76412,0.02303
2927.83538,0.02315
2925.90663,0.02349
2923.97789,0.02372
2922.04914,0.02385
2920.12040,0.02405
2918.19165,0.02417
2916.26290,0.02407
2914.33416,0.02390
2912.40541,0.02411
2910.47667,0.02467
2908.54792,0.02503
2906.61918,0.02495
2904.69043,0.02472
2902.76169,0.02458
2900.83294,0.02469
2898.90420,0.02497
2896.97545,0.02521
2895.04671,0.02552
2893.11796,0.02603
2891.18922,0.02646
2889.26047,0.02655
2887.33172,0.02637
2885.40298,0.02594
2883.47423,0.02547
2881.54549,0.02528
2879.61674,0.02507
2877.68800,0.02457
2875.75925,0.02422
2873.83051,0.02415
2871.90176,0.02404
2869.97302,0.02391
2868.04427,0.02393
2866.11553,0.02409
2864.18678,0.02416
2862.25804,0.02401
2860.32929,0.02400
2858.40055,0.02434
2856.47180,0.02475
2854.54305,0.02510
2852.61431,0.02556
2850.68556,0.02608
2848.75682,0.02684
2846.82807,0.02825
2844.89933,0.03010
2842.97058,0.03204
2841.04184,0.03412
2839.11309,0.03647
2837.18435,0.03882
2835.25560,0.04083
2833.32686,0.04245
2831.39811,0.04382
2829.46937,0.04508
2827.54062,0.04626
2825.61188,0.04737
2823.68313,0.04842
2821.75438,0.04955
2819.82564,0.05090
2817.89689,0.05237
2815.96815,0.05388
2814.03940,0.05554
2812.11066,0.05728
2810.18191,0.05883
2808.25317,0.06025
2806.32442,0.06172
2804.39568,0.06314
2802.46693,0.06446
2800.53819,0.06559
2798.60944,0.06662
2796.68070,0.06780
2794.75195,0.06890
2792.82320,0.06982
2790.89446,0.07087
2788.96571,0.07210
2787.03697,0.07345
2785.10822,0.07476
2783.17948,0.07602
2781.25073,0.07736
2779.32199,0.07868
2777.39324,0.07986
2775.46450,0.08105
2773.53575,0.08227
2771.60701,0.08333
2769.67826,0.08433
2767.74952,0.08547
2765.82077,0.08667
2763.89203,0.08748
2761.96328,0.08781
2760.03453,0.08796
2758.10579,0.08810
2756.17704,0.08819
2754.24830,0.08816
2752.31955,0.08796
2750.39081,0.08753
2748.46206,0.08713
2746.53332,0.08724
2744.60457,0.08776
2742.67583,0.08833
2740.74708,0.08904
2738.81834,0.09005
2736.88959,0.09133
2734.96085,0.09278
2733.03210,0.09428
2731.10336,0.09580
2729.17461,0.09729
2727.24586,0.09873
2725.31712,0.10020
2723.38837,0.10178
2721.45963,0.10351
2719.53088,0.10531
2717.60214,0.10694
2715.67339,0.10835
2713.74465,0.10969
2711.81590,0.11116
2709.88716,0.11269
2707.95841,0.11384
2706.02967,0.11447
2704.10092,0.11495
2702.17218,0.11568
2700.24343,0.11662
2698.31468,0.11735
2696.38594,0.11794
2694.45719,0.11871
2692.52845,0.11961
2690.59970,0.12053
2688.67096,0.12144
2686.74221,0.12219
2684.81347,0.12266
2682.88472,0.12314
2680.95598,0.12393
2679.02723,0.12477
2677.09849,0.12547
2675.16974,0.12618
2673.24100,0.12688
2671.31225,0.12750
2669.38351,0.12813
2667.45476,0.12875
2665.52601,0.12907
2663.59727,0.12915
2661.66852,0.12910
2659.73978,0.12887
2657.81103,0.12872
2655.88229,0.12904
2653.95354,0.12973
2652.02480,0.13052
2650.09605,0.13134
2648.16731,0.13217
2646.23856,0.13291
2644.30982,0.13369
2642.38107,0.13467
2640.45233,0.13582
2638.52358,0.13684
2636.59484,0.13749
2634.66609,0.13792
2632.73734,0.13838
2630.80860,0.13882
2628.87985,0.13915
2626.95111,0.13962
2625.02236,0.14025
2623.09362,0.14081
2621.16487,0.14150
2619.23613,0.14245
2617.30738,0.14337
2615.37864,0.14423
2613.44989,0.14516
2611.52115,0.14607
2609.59240,0.14681
2607.66366,0.14747
2605.73491,0.14819
2603.80616,0.14887
2601.87742,0.14952
2599.94867,0.15021
2598.01993,0.15081
2596.09118,0.15131
2594.16244,0.15178
2592.23369,0.15211
2590.30495,0.15222
2588.37620,0.15226
2586.44746,0.15232
2584.51871,0.15247
2582.58997,0.15276
2580.66122,0.15317
2578.73248,0.15376
2576.80373,0.15463
2574.87499,0.15557
2572.94624,0.15621
2571.01749,0.15663
2569.08875,0.15711
2567.16000,0.15757
2565.23126,0.15777
2563.30251,0.15782
2561.37377,0.15780
2559.44502,0.15765
2557.51628,0.15742
2555.58753,0.15721
2553.65879,0.15700
2551.73004,0.15678
2549.80130,0.15674
2547.87255,0.15703
2545.94381,0.15776
2544.01506,0.15890
2542.08631,0.16022
2540.15757,0.16167
2538.22882,0.16337
2536.30008,0.16526
2534.37133,0.16701
2532.44259,0.16850
2530.51384,0.16993
2528.58510,0.17126
2526.65635,0.17246
2524.72761,0.17391
2522.79886,0.17577
2520.87012,0.17777
2518.94137,0.17972
2517.01263,0.18139
2515.08388,0.18263
2513.15514,0.18363
2511.22639,0.18465
2509.29764,0.18571
2507.36890,0.18665
2505.44015,0.18727
2503.51141,0.18763
2501.58266,0.18793
2499.65392,0.18809
2497.72517,0.18789
2495.79643,0.18727
2493.86768,0.18644
2491.93894,0.18568
2490.01019,0.18513
2488.08145,0.18473
2486.15270,0.18442
2484.22396,0.18418
2482.29521,0.18399
2480.36647,0.18396
2478.43772,0.18420
2476.50897,0.18469
2474.58023,0.18527
2472.65148,0.18591
2470.72274,0.18687
2468.79399,0.18827
2466.86525,0.18987
2464.93650,0.19147
2463.00776,0.19305
2461.07901,0.19458
2459.15027,0.19596
2457.22152,0.19718
2455.29278,0.19837
2453.36403,0.19957
2451.43529,0.20072
2449.50654,0.20195
2447.57779,0.20343
2445.64905,0.20509
2443.72030,0.20669
2441.79156,0.20805
2439.86281,0.20910
2437.93407,0.21002
2436.00532,0.21098
2434.07658,0.21194
2432.14783,0.21279
2430.21909,0.21364
2428.29034,0.21453
2426.36160,0.21522
2424.43285,0.21553
2422.50411,0.21581
2420.57536,0.21628
2418.64662,0.21678
2416.71787,0.21721
2414.78912,0.21751
2412.86038,0.21765
2410.93163,0.21770
2409.00289,0.21759
2407.07414,0.21733
2405.14540,0.21717
2403.21665,0.21731
2401.28791,0.21753
2399.35916,0.21767
2397.43042,0.21784
2395.50167,0.21800
2393.57293,0.21802
2391.64418,0.21790
2389.71544,0.21774
2387.78669,0.21767
2385.85795,0.21781
2383.92920,0.21815
2382.00045,0.21852
2380.07171,0.21894
2378.14296,0.21944
2376.21422,0.21984
2374.28547,0.22021
2372.35673,0.22080
2370.42798,0.22145
2368.49924,0.22202
2366.57049,0.22260
2364.64175,0.22290
2362.71300,0.22274
2360.78426,0.22254
2358.85551,0.22272
2356.92677,0.22311
2354.99802,0.22329
2353.06927,0.22325
2351.14053,0.22328
2349.21178,0.22322
2347.28304,0.22282
2345.35429,0.22218
2343.42555,0.22144
2341.49680,0.22080
2339.56806,0.22024
2337.63931,0.21972
2335.71057,0.21944
2333.78182,0.21952
2331.85308,0.21970
2329.92433,0.21978
2327.99559,0.21981
2326.06684,0.21983
2324.13810,0.21988
2322.20935,0.22004
2320.28060,0.22026
2318.35186,0.22032
2316.42311,0.22039
2314.49437,0.22090
2312.56562,0.22179
2310.63688,0.22270
2308.70813,0.22356
2306.77939,0.22452
2304.85064,0.22544
2302.92190,0.22613
2300.99315,0.22661
2299.06441,0.22704
2297.13566,0.22738
2295.20692,0.22758
2293.27817,0.22784
2291.34943,0.22825
2289.42068,0.22865
2287.49193,0.22893
2285.56319,0.22928
2283.63444,0.22983
2281.70570,0.23037
2279.77695,0.23074
2277.84821,0.23103
2275.91946,0.23120
2273.99072,0.23110
2272.06197,0.23100
2270.13323,0.23126
2268.20448,0.23178
2266.27574,0.23244
2264.34699,0.23330
2262.41825,0.23431
2260.48950,0.23534
2258.56075,0.23632
2256.63201,0.23732
2254.70326,0.23827
2252.77452,0.23900
2250.84577,0.23961
2248.91703,0.24019
2246.98828,0.24066
2245.05954,0.24103
2243.13079,0.24134
2241.20205,0.24158
2239.27330,0.24167
2237.34456,0.24155
2235.41581,0.24130
2233.48707,0.24092
2231.55832,0.24026
2229.62958,0.23938
2227.70083,0.23857
2225.77208,0.23778
2223.84334,0.23677
2221.91459,0.23556
2219.98585,0.23440
2218.05710,0.23336
2216.12836,0.23210
2214.19961,0.23052
2212.27087,0.22897
2210.34212,0.22773
2208.41338,0.22668
2206.48463,0.22554
2204.55589,0.22419
2202.62714,0.22287
2200.69840,0.22164
2198.76965,0.22020
2196.84090,0.21868
2194.91216,0.21748
2192.98341,0.21679
2191.05467,0.21661
2189.12592,0.21680
2187.19718,0.21742
2185.26843,0.21844
2183.33969,0.21957
2181.41094,0.22061
2179.48220,0.22158
2177.55345,0.22245
2175.62471,0.22320
2173.69596,0.22387
2171.76722,0.22454
2169.83847,0.22512
2167.90973,0.22555
2165.98098,0.22601
2164.05223,0.22667
2162.12349,0.22748
2160.19474,0.22820
2158.26600,0.22859
2156.33725,0.22863
2154.40851,0.22858
2152.47976,0.22870
2150.55102,0.22888
2148.62227,0.22887
2146.69353,0.22871
2144.76478,0.22859
2142.83604,0.22862
2140.90729,0.22877
2138.97855,0.22878
2137.04980,0.22849
2135.12106,0.22811
2133.19231,0.22785
2131.26356,0.22762
2129.33482,0.22737
2127.40607,0.22728
2125.47733,0.22761
2123.54858,0.22824
2121.61984,0.22892
2119.69109,0.22981
2117.76235,0.23106
2115.83360,0.23240
2113.90486,0.23363
2111.97611,0.23475
2110.04737,0.23575
2108.11862,0.23668
2106.18988,0.23749
2104.26113,0.23801
2102.33238,0.23821
2100.40364,0.23812
2098.47489,0.23775
2096.54615,0.23717
2094.61740,0.23649
2092.68866,0.23580
2090.75991,0.23506
2088.83117,0.23425
2086.90242,0.23359
2084.97368,0.23318
2083.04493,0.23262
2081.11619,0.23168
2079.18744,0.23077
2077.25870,0.23014
2075.32995,0.22966
2073.40121,0.22919
2071.47246,0.22866
2069.54371,0.22823
2067.61497,0.22817
2065.68622,0.22855
2063.75748,0.22937
2061.82873,0.23052
2059.89999,0.23179
2057.97124,0.23315
2056.04250,0.23461
2054.11375,0.23591
2052.18501,0.23673
2050.25626,0.23681
2048.32752,0.23615
2046.39877,0.23506
2044.47003,0.23390
2042.54128,0.23297
2040.61254,0.23254
2038.68379,0.23275
2036.75504,0.23351
2034.82630,0.23451
2032.89755,0.23559
2030.96881,0.23678
2029.04006,0.23799
2027.11132,0.23918
2025.18257,0.24040
2023.25383,0.24162
2021.32508,0.24274
2019.39634,0.24380
2017.46759,0.24488
2015.53885,0.24581
2013.61010,0.24639
2011.68136,0.24682
2009.75261,0.24732
2007.82386,0.24784
2005.89512,0.24834
2003.96637,0.24883
2002.03763,0.24917
2000.10888,0.24920
1998.18014,0.24906
1996.25139,0.24891
1994.32265,0.24856
1992.39390,0.24779
1990.46516,0.24681
1988.53641,0.24606
1986.60767,0.24560
1984.67892,0.24527
1982.75018,0.24503
1980.82143,0.24486
1978.89269,0.24480
1976.96394,0.24489
1975.03519,0.24503
1973.10645,0.24533
1971.17770,0.24605
1969.24896,0.24715
1967.32021,0.24824
1965.39147,0.24917
1963.46272,0.25011
1961.53398,0.25123
1959.60523,0.25238
1957.67649,0.25322
1955.74774,0.25375
1953.81900,0.25410
1951.89025,0.25427
1949.96151,0.25431
1948.03276,0.25427
1946.10402,0.25403
1944.17527,0.25364
1942.24652,0.25335
1940.31778,0.25330
1938.38903,0.25338
1936.46029,0.25346
1934.53154,0.25367
1932.60280,0.25413
1930.67405,0.25465
1928.74531,0.25494
1926.81656,0.25497
1924.88782,0.25478
1922.95907,0.25433
1921.03033,0.25369
1919.10158,0.25273
1917.17284,0.25119
1915.24409,0.24919
1913.31534,0.24712
1911.38660,0.24515
1909.45785,0.24319
1907.52911,0.24119
1905.60036,0.23934
1903.67162,0.23786
1901.74287,0.23696
1899.81413,0.23669
1897.88538,0.23687
1895.95664,0.23723
1894.02789,0.23756
1892.09915,0.23793
1890.17040,0.23849
1888.24166,0.23920
1886.31291,0.23978
1884.38417,0.24012
1882.45542,0.24042
1880.52667,0.24074
1878.59793,0.24101
1876.66918,0.24129
1874.74044,0.24155
1872.81169,0.24166
1870.88295,0.24162
1868.95420,0.24154
1867.02546,0.24139
1865.09671,0.24116
1863.16797,0.24098
1861.23922,0.24077
1859.31048,0.24026
1857.38173,0.23940
1855.45299,0.23836
1853.52424,0.23722
1851.59549,0.23599
1849.66675,0.23448
1847.73800,0.23270
1845.80926,0.23085
1843.88051,0.22878
1841.95177,0.22668
1840.02302,0.22493
1838.09428,0.22356
1836.16553,0.22244
1834.23679,0.22147
1832.30804,0.22052
1830.37930,0.21935
1828.45055,0.21802
1826.52181,0.21683
1824.59306,0.21560
1822.66432,0.21417
1820.73557,0.21262
1818.80682,0.21104
1816.87808,0.20947
1814.94933,0.20782
1813.02059,0.20611
1811.09184,0.20432
1809.16310,0.20226
1807.23435,0.20005
1805.30561,0.19789
1803.37686,0.19568
1801.44812,0.19316
1799.51937,0.19044
1797.59063,0.18791
1795.66188,0.18567
1793.73314,0.18339
1791.80439,0.18069
1789.87565,0.17793
1787.94690,0.17551
1786.01815,0.17313
1784.08941,0.17046
1782.16066,0.16760
1780.23192,0.16458
1778.30317,0.16144
1776.37443,0.15840
1774.44568,0.15518
1772.51694,0.15115
1770.58819,0.14657
1768.65945,0.14215
1766.73070,0.13782
1764.80196,0.13350
1762.87321,0.12881
1760.94447,0.12351
1759.01572,0.11820
1757.08697,0.11292
1755.15823,0.10781
1753.22948,0.10293
1751.30074,0.09745
1749.37199,0.09147
1747.44325,0.08588
1745.51450,0.08086
1743.58576,0.07650
1741.65701,0.07293
1739.72827,0.07003
1737.79952,0.06796
1735.87078,0.06663
1733.94203,0.06548
1732.01329,0.06462
1730.08454,0.06422
1728.15580,0.06390
1726.22705,0.06354
1724.29830,0.06314
1722.36956,0.06264
1720.44081,0.06216
1718.51207,0.06167
1716.58332,0.06086
1714.65458,0.05965
1712.72583,0.05824
1710.79709,0.05668
1708.86834,0.05498
1706.93960,0.05310
1705.01085,0.05109
1703.08211,0.04905
1701.15336,0.04642
1699.22462,0.04317
1697.29587,0.04022
1695.36713,0.03697
1693.43838,0.03353
1691.50963,0.03061
1689.58089,0.02789
1687.65214,0.02537
1685.72340,0.02301
1683.79465,0.02070
1681.86591,0.01915
1679.93716,0.01830
1678.00842,0.01760
1676.07967,0.01684
1674.15093,0.01618
1672.22218,0.01591
1670.29344,0.01594
1668.36469,0.01593
1666.43595,0.01594
1664.50720,0.01614
1662.57845,0.01642
1660.64971,0.01676
1658.72096,0.01730
1656.79222,0.01815
1654.86347,0.01937
1652.93473,0.02094
1651.00598,0.02236
1649.07724,0.02383
1647.14849,0.02599
1645.21975,0.02849
1643.29100,0.03050
1641.36226,0.03189
1639.43351,0.03268
1637.50477,0.03275
1635.57602,0.03214
1633.64728,0.03121
1631.71853,0.03029
1629.78978,0.02946
1627.86104,0.02871
1625.93229,0.02798
1624.00355,0.02728
1622.07480,0.02671
1620.14606,0.02638
1618.21731,0.02630
1616.28857,0.02624
1614.35982,0.02596
1612.43108,0.02566
1610.50233,0.02559
1608.57359,0.02565
1606.64484,0.02570
1604.71610,0.02569
1602.78735,0.02556
1600.85861,0.02533
1598.92986,0.02514
1597.00111,0.02494
1595.07237,0.02463
1593.14362,0.02414
1591.21488,0.02355
1589.28613,0.02293
1587.35739,0.02234
1585.42864,0.02184
1583.49990,0.02137
1581.57115,0.02081
1579.64241,0.02025
1577.71366,0.01972
1575.78492,0.01927
1573.85617,0.01921
1571.92743,0.01952
1569.99868,0.01996
1568.06993,0.02027
1566.14119,0.02032
1564.21244,0.02026
1562.28370,0.02026
1560.35495,0.02033
1558.42621,0.02059
1556.49746,0.02097
1554.56872,0.02148
1552.63997,0.02247
1550.71123,0.02402
1548.78248,0.02580
1546.85374,0.02757
1544.92499,0.02939
1542.99625,0.03101
1541.06750,0.03203
1539.13876,0.03238
1537.21001,0.03235
1535.28126,0.03215
1533.35252,0.03173
1531.42377,0.03133
1529.49503,0.03111
1527.56628,0.03090
1525.63754,0.03063
1523.70879,0.03031
1521.78005,0.02984
1519.85130,0.02942
1517.92256,0.02935
1515.99381,0.02940
1514.06507,0.02937
1512.13632,0.02931
1510.20758,0.02930
1508.27883,0.02941
1506.35008,0.02948
1504.42134,0.02934
1502.49259,0.02927
1500.56385,0.02951
1498.63510,0.03006
1496.70636,0.03054
1494.77761,0.03066
1492.84887,0.03073
1490.92012,0.03078
1488.99138,0.03045
1487.06263,0.02964
1485.13389,0.02870
1483.20514,0.02772
1481.27640,0.02670
1479.34765,0.02589
1477.41891,0.02557
1475.49016,0.02572
1473.56141,0.02606
1471.63267,0.02617
1469.70392,0.02590
1467.77518,0.02549
1465.84643,0.02522
1463.91769,0.02521
1461.98894,0.02536
1460.06020,0.02563
1458.13145,0.02596
1456.20271,0.02606
1454.27396,0.02584
1452.34522,0.02571
1450.41647,0.02577
1448.48773,0.02585
1446.55898,0.02581
1444.63024,0.02579
1442.70149,0.02595
1440.77274,0.02614
1438.84400,0.02614
1436.91525,0.02608
1434.98651,0.02611
1433.05776,0.02628
1431.12902,0.02665
1429.20027,0.02708
1427.27153,0.02740
1425.34278,0.02765
1423.41404,0.02779
1421.48529,0.02772
1419.55655,0.02762
1417.62780,0.02777
1415.69906,0.02815
1413.77031,0.02872
1411.84156,0.02940
1409.91282,0.03014
1407.98407,0.03090
1406.05533,0.03150
1404.12658,0.03170
1402.19784,0.03161
1400.26909,0.03141
1398.34035,0.03096
1396.41160,0.03012
1394.48286,0.02900
1392.55411,0.02795
1390.62537,0.02731
1388.69662,0.02697
1386.76788,0.02652
1384.83913,0.02581
1382.91039,0.02514
1380.98164,0.02473
1379.05289,0.02464
1377.12415,0.02483
1375.19540,0.02509
1373.26666,0.02524
1371.33791,0.02530
1369.40917,0.02537
1367.48042,0.02556
1365.55168,0.02578
1363.62293,0.02595
1361.69419,0.02620
1359.76544,0.02655
1357.83670,0.02682
1355.90795,0.02690
1353.97921,0.02702
1352.05046,0.02738
1350.12172,0.02782
1348.19297,0.02817
1346.26422,0.02847
1344.33548,0.02881
1342.40673,0.02914
1340.47799,0.02935
1338.54924,0.02936
1336.62050,0.02933
1334.69175,0.02928
1332.76301,0.02923
1330.83426,0.02932
1328.90552,0.02955
1326.97677,0.02968
1325.04803,0.02965
1323.11928,0.02959
1321.19054,0.02936
1319.26179,0.02883
1317.33304,0.02826
1315.40430,0.02788
1313.47555,0.02761
1311.54681,0.02725
1309.61806,0.02679
1307.68932,0.02642
1305.76057,0.02617
1303.83183,0.02599
1301.90308,0.02594
1299.97434,0.02605
1298.04559,0.02622
1296.11685,0.02632
1294.18810,0.02628
1292.25936,0.02623
1290.33061,0.02620
1288.40187,0.02602
1286.47312,0.02567
1284.54437,0.02537
1282.61563,0.02517
1280.68688,0.02495
1278.75814,0.02474
1276.82939,0.02466
1274.90065,0.02467
1272.97190,0.02473
1271.04316,0.02489
1269.11441,0.02512
1267.18567,0.02547
1265.25692,0.02593
1263.32818,0.02630
1261.39943,0.02667
1259.47069,0.02717
1257.54194,0.02753
1255.61320,0.02780
1253.68445,0.02813
1251.75570,0.02837
1249.82696,0.02832
1247.89821,0.02813
1245.96947,0.02807
1244.04072,0.02811
1242.11198,0.02806
1240.18323,0.02803
1238.25449,0.02807
1236.32574,0.02824
1234.39700,0.02864
1232.46825,0.02926
1230.53951,0.03019
1228.61076,0.03151
1226.68202,0.03284
1224.75327,0.03348
1222.82452,0.03319
1220.89578,0.03219
1218.96703,0.03074
1217.03829,0.02931
1215.10954,0.02843
1213.18080,0.02825
1211.25205,0.02843
1209.32331,0.02851
1207.39456,0.02843
1205.46582,0.02843
1203.53707,0.02876
1201.60833,0.02946
1199.67958,0.03045
1197.75084,0.03148
1195.82209,0.03237
1193.89335,0.03308
1191.96460,0.03385
1190.03585,0.03492
1188.10711,0.03612
1186.17836,0.03696
1184.24962,0.03704
1182.32087,0.03624
1180.39213,0.03470
1178.46338,0.03269
1176.53464,0.03065
1174.60589,0.02906
1172.67715,0.02818
1170.74840,0.02803
1168.81966,0.02850
1166.89091,0.02975
1164.96217,0.03203
1163.03342,0.03520
1161.10467,0.03884
1159.17593,0.04268
1157.24718,0.04648
1155.31844,0.04997
1153.38969,0.05336
1151.46095,0.05692
1149.53220,0.06025
1147.60346,0.06315
1145.67471,0.06593
1143.74597,0.06855
1141.81722,0.07064
1139.88848,0.07195
1137.95973,0.07231
1136.03099,0.07119
1134.10224,0.06814
1132.17350,0.06328
1130.24475,0.05744
1128.31600,0.05173
1126.38726,0.04699
1124.45851,0.04366
1122.52977,0.04196
1120.60102,0.04178
1118.67228,0.04275
1116.74353,0.04448
1114.81479,0.04679
1112.88604,0.04945
1110.95730,0.05227
1109.02855,0.05536
1107.09981,0.05876
1105.17106,0.06217
1103.24232,0.06533
1101.31357,0.06815
1099.38483,0.07050
1097.45608,0.07207
1095.52733,0.07242
1093.59859,0.07151
1091.66984,0.06988
1089.74110,0.06823
1087.81235,0.06681
1085.88361,0.06518
1083.95486,0.06315
1082.02612,0.06123
1080.09737,0.05996
1078.16863,0.05953
1076.23988,0.05992
1074.31114,0.06101
1072.38239,0.06275
1070.45365,0.06508
1068.52490,0.06750
1066.59615,0.06940
1064.66741,0.07102
1062.73866,0.07319
1060.80992,0.07610
1058.88117,0.07890
1056.95243,0.08094
1055.02368,0.08233
1053.09494,0.08313
1051.16619,0.08269
1049.23745,0.08087
1047.30870,0.07875
1045.37996,0.07677
1043.45121,0.07473
1041.52247,0.07336
1039.59372,0.07297
1037.66498,0.07291
1035.73623,0.07288
1033.80748,0.07269
1031.87874,0.07225
1029.94999,0.07252
1028.02125,0.07483
1026.09250,0.07916
1024.16376,0.08419
1022.23501,0.08864
1020.30627,0.09188
1018.37752,0.09398
1016.44878,0.09543
1014.52003,0.09650
1012.59129,0.09700
1010.66254,0.09684
1008.73380,0.09614
1006.80505,0.09475
1004.87631,0.09265
1002.94756,0.09050
1001.01881,0.08911
999.09007,0.08879
997.16132,0.08898
995.23258,0.08866
993.30383,0.08742
991.37509,0.08566
989.44634,0.08375
987.51760,0.08172
985.58885,0.07950
983.66011,0.07725
981.73136,0.07507
979.80262,0.07285
977.87387,0.07057
975.94513,0.06875
974.01638,0.06814
972.08763,0.06930
970.15889,0.07179
968.23014,0.07401
966.30140,0.07464
964.37265,0.07341
962.44391,0.07112
960.51516,0.06989
958.58642,0.07149
956.65767,0.07517
954.72893,0.07845
952.80018,0.08038
950.87144,0.08269
948.94269,0.08703
947.01395,0.09262
945.08520,0.09738
943.15646,0.10000
941.22771,0.10033
939.29896,0.09835
937.37022,0.09400
935.44147,0.08770
933.51273,0.08058
931.58398,0.07427
929.65524,0.07042
927.72649,0.07040
925.79775,0.07453
923.86900,0.08145
921.94026,0.08881
920.01151,0.09481
918.08277,0.09921
916.15402,0.10289
914.22528,0.10651
912.29653,0.11010
910.36779,0.11350
908.43904,0.11655
906.51029,0.11912
904.58155,0.12109
902.65280,0.12257
900.72406,0.12375
898.79531,0.12458
896.86657,0.12468
894.93782,0.12404
893.00908,0.12346
891.08033,0.12355
889.15159,0.12409
887.22284,0.12501
885.29410,0.12598
883.36535,0.12655
881.43661,0.12702
879.50786,0.12749
877.57911,0.12777
875.65037,0.12798
873.72162,0.12809
871.79288,0.12795
869.86413,0.12779
867.93539,0.12776
866.00664,0.12754
864.07790,0.12685
862.14915,0.12595
860.22041,0.12498
858.29166,0.12384
856.36292,0.12284
854.43417,0.12189
852.50543,0.12046
850.57668,0.11857
848.64794,0.11656
846.71919,0.11452
844.79044,0.11213
842.86170,0.10905
840.93295,0.10546
839.00421,0.10139
837.07546,0.09689
835.14672,0.09322
833.21797,0.09222
831.28923,0.09414
829.36048,0.09724
827.43174,0.09970
825.50299,0.10092
823.57425,0.10099
821.64550,0.10043
819.71676,0.09971
817.78801,0.09848
815.85926,0.09646
813.93052,0.09419
812.00177,0.09211
810.07303,0.09017
808.14428,0.08813
806.21554,0.08570
804.28679,0.08276
802.35805,0.07982
800.42930,0.07718
798.50056,0.07458
796.57181,0.07195
794.64307,0.06958
792.71432,0.06766
790.78558,0.06580
788.85683,0.06356
786.92809,0.06107
784.99934,0.05861
783.07059,0.05648
781.14185,0.05474
779.21310,0.05317
777.28436,0.05174
775.35561,0.05081
773.42687,0.05030
771.49812,0.04954
769.56938,0.04823
767.64063,0.04669
765.71189,0.04549
763.78314,0.04477
761.85440,0.04392
759.92565,0.04247
757.99691,0.04063
756.06816,0.03871
754.13942,0.03697
752.21067,0.03577
750.28192,0.03492
748.35318,0.03410
746.42443,0.03328
744.49569,0.03252
742.56694,0.03190
740.63820,0.03114
738.70945,0.02991
736.78071,0.02865
734.85196,0.02787
732.92322,0.02751
730.99447,0.02750
729.06573,0.02770
727.13698,0.02785
725.20824,0.02772
723.27949,0.02749
721.35074,0.02739
719.42200,0.02721
717.49325,0.02662
715.56451,0.02593
713.63576,0.02552
711.70702,0.02523
709.77827,0.02510
707.84953,0.02575
705.92078,0.02691
703.99204,0.02745
702.06329,0.02718
700.13455,0.02687
698.20580,0.02687
696.27706,0.02705
694.34831,0.02741
692.41957,0.02802
690.49082,0.02860
688.56207,0.02877
686.63333,0.02907
684.70458,0.02992
682.77584,0.03071
680.84709,0.03130
678.91835,0.03216
676.98960,0.03330
675.06086,0.03400
673.13211,0.03412
671.20337,0.03468
669.27462,0.03628
667.34588,0.03805
665.41713,0.03911
663.48839,0.03999
661.55964,0.04100
659.63090,0.04205
657.70215,0.04297
655.77340,0.04363
653.84466,0.04437
651.91591,0.04523
649.98717,0.04593
648.05842,0.04658
646.12968,0.04733
644.20093,0.04811
642.27219,0.04826
640.34344,0.04786
638.41470,0.04807
636.48595,0.04849
634.55721,0.04799
632.62846,0.04694
630.69972,0.04565
628.77097,0.04451
626.84222,0.04413
624.91348,0.04390
622.98473,0.04365
621.05599,0.04382
619.12724,0.04411
617.19850,0.04484
615.26975,0.04661
613.34101,0.04851
611.41226,0.04956
609.48352,0.04972
607.55477,0.04885
605.62603,0.04710
603.69728,0.04542
601.76854,0.04410
599.83979,0.04286
