7497.03301,0.73798
7495.10426,0.73848
7493.17552,0.73141
7491.24677,0.72671
7489.31803,0.72737
7487.38928,0.72736
7485.46054,0.72350
7483.53179,0.71803
7481.60305,0.71533
7479.67430,0.71859
7477.74556,0.72485
7475.81681,0.72967
7473.88807,0.73152
7471.95932,0.73201
7470.03057,0.73308
7468.10183,0.73306
7466.17308,0.73336
7464.24434,0.73487
7462.31559,0.73316
7460.38685,0.72869
7458.45810,0.72573
7456.52936,0.72693
7454.60061,0.72977
7452.67187,0.72694
7450.74312,0.71989
7448.81438,0.71721
7446.88563,0.71911
7444.95689,0.72216
7443.02814,0.72500
7441.09940,0.72214
7439.17065,0.71358
7437.24190,0.70967
7435.31316,0.71461
7433.38441,0.71969
7431.45567,0.71781
7429.52692,0.71561
7427.59818,0.71815
7425.66943,0.72058
7423.74069,0.72301
7421.81194,0.72846
7419.88320,0.73070
7417.95445,0.72433
7416.02571,0.71680
7414.09696,0.71411
7412.16822,0.71447
7410.23947,0.71714
7408.31073,0.71974
7406.38198,0.72017
7404.45323,0.71926
7402.52449,0.71745
7400.59574,0.71526
7398.66700,0.71332
7396.73825,0.71423
7394.80951,0.71759
7392.88076,0.71906
7390.95202,0.71923
7389.02327,0.71980
7387.09453,0.71779
7385.16578,0.71304
7383.23704,0.71067
7381.30829,0.71102
7379.37955,0.71072
7377.45080,0.71216
7375.52205,0.71579
7373.59331,0.71341
7371.66456,0.70364
7369.73582,0.69800
7367.80707,0.70130
7365.87833,0.70629
7363.94958,0.70911
7362.02084,0.71133
7360.09209,0.71374
7358.16335,0.71464
7356.23460,0.71104
7354.30586,0.70727
7352.37711,0.70999
7350.44837,0.71338
7348.51962,0.71037
7346.59088,0.70545
7344.66213,0.70433
7342.73338,0.70486
7340.80464,0.70116
7338.87589,0.69520
7336.94715,0.69187
7335.01840,0.68855
7333.08966,0.68640
7331.16091,0.68942
7329.23217,0.69353
7327.30342,0.69410
7325.37468,0.69236
7323.44593,0.68955
7321.51719,0.68512
7319.58844,0.68130
7317.65970,0.68313
7315.73095,0.68902
7313.80221,0.69075
7311.87346,0.68930
7309.94471,0.69033
7308.01597,0.69021
7306.08722,0.68775
7304.15848,0.68717
7302.22973,0.68795
7300.30099,0.68798
7298.37224,0.68683
7296.44350,0.68581
7294.51475,0.68381
7292.58601,0.67713
7290.65726,0.67025
7288.72852,0.66882
7286.79977,0.66662
7284.87103,0.65854
7282.94228,0.65219
7281.01353,0.65441
7279.08479,0.66046
7277.15604,0.66143
7275.22730,0.65646
7273.29855,0.65278
7271.36981,0.65566
7269.44106,0.65958
7267.51232,0.65496
7265.58357,0.64609
7263.65483,0.64416
7261.72608,0.64903
7259.79734,0.65339
7257.86859,0.65314
7255.93985,0.64812
7254.01110,0.64001
7252.08236,0.63280
7250.15361,0.63107
7248.22486,0.63454
7246.29612,0.63879
7244.36737,0.64129
7242.43863,0.64212
7240.50988,0.64265
7238.58114,0.64435
7236.65239,0.64442
7234.72365,0.63935
7232.79490,0.63349
7230.86616,0.63139
7228.93741,0.62799
7227.00867,0.62248
7225.07992,0.62222
7223.15118,0.62499
7221.22243,0.62417
7219.29369,0.62282
7217.36494,0.62313
7215.43619,0.62269
7213.50745,0.62253
7211.57870,0.62432
7209.64996,0.62747
7207.72121,0.62876
7205.79247,0.62515
7203.86372,0.61879
7201.93498,0.61476
7200.00623,0.61643
7198.07749,0.62145
7196.14874,0.62536
7194.22000,0.62804
7192.29125,0.62791
7190.36251,0.62395
7188.43376,0.62171
7186.50501,0.62522
7184.57627,0.63158
7182.64752,0.63534
7180.71878,0.63572
7178.79003,0.63476
7176.86129,0.63357
7174.93254,0.63429
7173.00380,0.63412
7171.07505,0.62953
7169.14631,0.62538
7167.21756,0.62628
7165.28882,0.63016
7163.36007,0.63178
7161.43133,0.62861
7159.50258,0.62411
7157.57384,0.62155
7155.64509,0.62014
7153.71634,0.61917
7151.78760,0.61973
7149.85885,0.62113
7147.93011,0.62083
7146.00136,0.62077
7144.07262,0.62338
7142.14387,0.62573
7140.21513,0.62645
7138.28638,0.62668
7136.35764,0.62722
7134.42889,0.62798
7132.50015,0.62595
7130.57140,0.62117
7128.64266,0.61783
7126.71391,0.61651
7124.78516,0.61555
7122.85642,0.61482
7120.92767,0.61361
7118.99893,0.61317
7117.07018,0.61607
7115.14144,0.61784
7113.21269,0.61543
7111.28395,0.61487
7109.35520,0.61870
7107.42646,0.62232
7105.49771,0.62390
7103.56897,0.62518
7101.64022,0.62530
7099.71148,0.62327
7097.78273,0.62031
7095.85399,0.61682
7093.92524,0.61524
7091.99649,0.61827
7090.06775,0.62125
7088.13900,0.61850
7086.21026,0.61420
7084.28151,0.61397
7082.35277,0.61459
7080.42402,0.61372
7078.49528,0.61464
7076.56653,0.61547
7074.63779,0.61401
7072.70904,0.61580
7070.78030,0.62138
7068.85155,0.62404
7066.92281,0.62113
7064.99406,0.61549
7063.06532,0.61284
7061.13657,0.61515
7059.20782,0.61830
7057.27908,0.61813
7055.35033,0.61622
7053.42159,0.61777
7051.49284,0.61991
7049.56410,0.61748
7047.63535,0.61511
7045.70661,0.61884
7043.77786,0.62656
7041.84912,0.63137
7039.92037,0.63114
7037.99163,0.62929
7036.06288,0.62805
7034.13414,0.62570
7032.20539,0.62209
7030.27664,0.62195
7028.34790,0.62467
7026.41915,0.62457
7024.49041,0.62248
7022.56166,0.62236
7020.63292,0.62532
7018.70417,0.62882
7016.77543,0.62796
7014.84668,0.62333
7012.91794,0.62054
7010.98919,0.62132
7009.06045,0.62479
7007.13170,0.62905
7005.20296,0.63184
7003.27421,0.63381
7001.34547,0.63519
6999.41672,0.63414
6997.48797,0.63041
6995.55923,0.62667
6993.63048,0.62630
6991.70174,0.62914
6989.77299,0.63229
6987.84425,0.63368
6985.91550,0.63284
6983.98676,0.63175
6982.05801,0.63245
6980.12927,0.63371
6978.20052,0.63429
6976.27178,0.63310
6974.34303,0.63083
6972.41429,0.63156
6970.48554,0.63495
6968.55680,0.63884
6966.62805,0.64254
6964.69930,0.64177
6962.77056,0.63737
6960.84181,0.63640
6958.91307,0.63939
6956.98432,0.64041
6955.05558,0.63691
6953.12683,0.63366
6951.19809,0.63577
6949.26934,0.64132
6947.34060,0.64447
6945.41185,0.64366
6943.48311,0.64175
6941.55436,0.64072
6939.62562,0.64091
6937.69687,0.64204
6935.76812,0.64332
6933.83938,0.64338
6931.91063,0.64166
6929.98189,0.63978
6928.05314,0.63979
6926.12440,0.64230
6924.19565,0.64565
6922.26691,0.64879
6920.33816,0.65157
6918.40942,0.65138
6916.48067,0.64924
6914.55193,0.64957
6912.62318,0.65023
6910.69444,0.64746
6908.76569,0.64452
6906.83695,0.64680
6904.90820,0.65282
6902.97945,0.65531
6901.05071,0.65249
6899.12196,0.64956
6897.19322,0.65074
6895.26447,0.65414
6893.33573,0.65408
6891.40698,0.65096
6889.47824,0.64956
6887.54949,0.65055
6885.62075,0.65185
6883.69200,0.65219
6881.76326,0.65248
6879.83451,0.65281
6877.90577,0.65201
6875.97702,0.65031
6874.04828,0.64854
6872.11953,0.64951
6870.19078,0.65415
6868.26204,0.65793
6866.33329,0.65795
6864.40455,0.65594
6862.47580,0.65496
6860.54706,0.65581
6858.61831,0.65641
6856.68957,0.65566
6854.76082,0.65401
6852.83208,0.65197
6850.90333,0.64983
6848.97459,0.64855
6847.04584,0.65013
6845.11710,0.65362
6843.18835,0.65609
6841.25960,0.65776
6839.33086,0.65974
6837.40211,0.66128
6835.47337,0.66198
6833.54462,0.66162
6831.61588,0.65953
6829.68713,0.65674
6827.75839,0.65496
6825.82964,0.65449
6823.90090,0.65588
6821.97215,0.65838
6820.04341,0.65812
6818.11466,0.65423
6816.18592,0.65309
6814.25717,0.65829
6812.32843,0.66303
6810.39968,0.66132
6808.47093,0.65571
6806.54219,0.65135
6804.61344,0.65054
6802.68470,0.65080
6800.75595,0.65024
6798.82721,0.64938
6796.89846,0.64752
6794.96972,0.64615
6793.04097,0.64731
6791.11223,0.64922
6789.18348,0.65039
6787.25474,0.64966
6785.32599,0.64480
6783.39725,0.63805
6781.46850,0.63465
6779.53975,0.63497
6777.61101,0.63625
6775.68226,0.63747
6773.75352,0.63794
6771.82477,0.63728
6769.89603,0.63605
6767.96728,0.63429
6766.03854,0.63220
6764.10979,0.63003
6762.18105,0.62814
6760.25230,0.62770
6758.32356,0.62769
6756.39481,0.62624
6754.46607,0.62502
6752.53732,0.62606
6750.60858,0.62733
6748.67983,0.62603
6746.75108,0.62419
6744.82234,0.62584
6742.89359,0.62995
6740.96485,0.63228
6739.03610,0.63114
6737.10736,0.62730
6735.17861,0.62360
6733.24987,0.62310
6731.32112,0.62324
6729.39238,0.62037
6727.46363,0.61883
6725.53489,0.62244
6723.60614,0.62565
6721.67740,0.62492
6719.74865,0.62464
6717.81991,0.62636
6715.89116,0.62743
6713.96241,0.62706
6712.03367,0.62503
6710.10492,0.62155
6708.17618,0.61945
6706.24743,0.61971
6704.31869,0.62015
6702.38994,0.62064
6700.46120,0.62136
6698.53245,0.62079
6696.60371,0.61875
6694.67496,0.61796
6692.74622,0.62012
6690.81747,0.62054
6688.88873,0.61765
6686.95998,0.61689
6685.03123,0.61721
6683.10249,0.61498
6681.17374,0.61282
6679.24500,0.61165
6677.31625,0.60964
6675.38751,0.60765
6673.45876,0.60587
6671.53002,0.60314
6669.60127,0.60148
6667.67253,0.60199
6665.74378,0.60163
6663.81504,0.59920
6661.88629,0.59750
6659.95755,0.59894
6658.02880,0.60231
6656.10006,0.60425
6654.17131,0.60203
6652.24256,0.59653
6650.31382,0.59239
6648.38507,0.59103
6646.45633,0.58936
6644.52758,0.58773
6642.59884,0.58831
6640.67009,0.58876
6638.74135,0.58671
6636.81260,0.58360
6634.88386,0.58179
6632.95511,0.58202
6631.02637,0.58184
6629.09762,0.57907
6627.16888,0.57544
6625.24013,0.57250
6623.31139,0.56970
6621.38264,0.56762
6619.45389,0.56581
6617.52515,0.56259
6615.59640,0.55984
6613.66766,0.56040
6611.73891,0.56333
6609.81017,0.56553
6607.88142,0.56464
6605.95268,0.56222
6604.02393,0.56191
6602.09519,0.56323
6600.16644,0.56367
6598.23770,0.56365
6596.30895,0.56348
6594.38021,0.56339
6592.45146,0.56558
6590.52271,0.56848
6588.59397,0.56723
6586.66522,0.56301
6584.73648,0.56047
6582.80773,0.55864
6580.87899,0.55602
6578.95024,0.55690
6577.02150,0.56238
6575.09275,0.56653
6573.16401,0.56567
6571.23526,0.56225
6569.30652,0.56035
6567.37777,0.56104
6565.44903,0.56156
6563.52028,0.55970
6561.59154,0.55787
6559.66279,0.55755
6557.73404,0.55680
6555.80530,0.55586
6553.87655,0.55511
6551.94781,0.55330
6550.01906,0.55070
6548.09032,0.54863
6546.16157,0.54828
6544.23283,0.54785
6542.30408,0.54517
6540.37534,0.54204
6538.44659,0.53999
6536.51785,0.53884
6534.58910,0.53897
6532.66036,0.53984
6530.73161,0.53950
6528.80287,0.53783
6526.87412,0.53643
6524.94537,0.53477
6523.01663,0.53229
6521.08788,0.53151
6519.15914,0.53258
6517.23039,0.53190
6515.30165,0.53028
6513.37290,0.53090
6511.44416,0.53118
6509.51541,0.52892
6507.58667,0.52654
6505.65792,0.52496
6503.72918,0.52437
6501.80043,0.52564
6499.87169,0.52766
6497.94294,0.52930
6496.01419,0.53048
6494.08545,0.53132
6492.15670,0.53265
6490.22796,0.53461
6488.29921,0.53621
6486.37047,0.53650
6484.44172,0.53581
6482.51298,0.53571
6480.58423,0.53624
6478.65549,0.53768
6476.72674,0.54097
6474.79800,0.54416
6472.86925,0.54609
6470.94051,0.54807
6469.01176,0.55082
6467.08302,0.55470
6465.15427,0.55908
6463.22552,0.56294
6461.29678,0.56687
6459.36803,0.57049
6457.43929,0.57315
6455.51054,0.57620
6453.58180,0.57899
6451.65305,0.57975
6449.72431,0.58015
6447.79556,0.58244
6445.86682,0.58641
6443.93807,0.59083
6442.00933,0.59393
6440.08058,0.59440
6438.15184,0.59455
6436.22309,0.59624
6434.29434,0.59704
6432.36560,0.59712
6430.43685,0.59848
6428.50811,0.59925
6426.57936,0.59842
6424.65062,0.59682
6422.72187,0.59512
6420.79313,0.59542
6418.86438,0.59782
6416.93564,0.59903
6415.00689,0.59826
6413.07815,0.59755
6411.14940,0.59678
6409.22066,0.59477
6407.29191,0.59301
6405.36317,0.59306
6403.43442,0.59336
6401.50567,0.59301
6399.57693,0.59251
6397.64818,0.59111
6395.71944,0.58908
6393.79069,0.58738
6391.86195,0.58597
6389.93320,0.58483
6388.00446,0.58358
6386.07571,0.58170
6384.14697,0.57945
6382.21822,0.57698
6380.28948,0.57428
6378.36073,0.57244
6376.43199,0.57259
6374.50324,0.57290
6372.57450,0.57168
6370.64575,0.56958
6368.71700,0.56635
6366.78826,0.56285
6364.85951,0.56193
6362.93077,0.56319
6361.00202,0.56297
6359.07328,0.56023
6357.14453,0.55783
6355.21579,0.55788
6353.28704,0.55957
6351.35830,0.56083
6349.42955,0.56073
6347.50081,0.56037
6345.57206,0.56078
6343.64332,0.56132
6341.71457,0.56139
6339.78582,0.56248
6337.85708,0.56496
6335.92833,0.56668
6333.99959,0.56732
6332.07084,0.56754
6330.14210,0.56697
6328.21335,0.56708
6326.28461,0.56924
6324.35586,0.57134
6322.42712,0.57225
6320.49837,0.57382
6318.56963,0.57640
6316.64088,0.57871
6314.71214,0.57968
6312.78339,0.57932
6310.85465,0.57991
6308.92590,0.58266
6306.99715,0.58550
6305.06841,0.58611
6303.13966,0.58492
6301.21092,0.58427
6299.28217,0.58458
6297.35343,0.58509
6295.42468,0.58616
6293.49594,0.58702
6291.56719,0.58687
6289.63845,0.58653
6287.70970,0.58595
6285.78096,0.58493
6283.85221,0.58414
6281.92347,0.58374
6279.99472,0.58385
6278.06598,0.58415
6276.13723,0.58386
6274.20848,0.58320
6272.27974,0.58268
6270.35099,0.58154
6268.42225,0.57935
6266.49350,0.57712
6264.56476,0.57546
6262.63601,0.57428
6260.70727,0.57336
6258.77852,0.57288
6256.84978,0.57356
6254.92103,0.57512
6252.99229,0.57610
6251.06354,0.57549
6249.13480,0.57477
6247.20605,0.57519
6245.27730,0.57561
6243.34856,0.57584
6241.41981,0.57578
6239.49107,0.57449
6237.56232,0.57331
6235.63358,0.57447
6233.70483,0.57667
6231.77609,0.57701
6229.84734,0.57651
6227.91860,0.57746
6225.98985,0.57936
6224.06111,0.58061
6222.13236,0.57978
6220.20362,0.57752
6218.27487,0.57586
6216.34613,0.57525
6214.41738,0.57608
6212.48863,0.57851
6210.55989,0.58089
6208.63114,0.58239
6206.70240,0.58366
6204.77365,0.58480
6202.84491,0.58564
6200.91616,0.58569
6198.98742,0.58528
6197.05867,0.58642
6195.12993,0.58865
6193.20118,0.58950
6191.27244,0.59040
6189.34369,0.59268
6187.41495,0.59337
6185.48620,0.59213
6183.55746,0.59136
6181.62871,0.59177
6179.69996,0.59356
6177.77122,0.59668
6175.84247,0.60058
6173.91373,0.60415
6171.98498,0.60580
6170.05624,0.60536
6168.12749,0.60547
6166.19875,0.60829
6164.27000,0.61149
6162.34126,0.61296
6160.41251,0.61373
6158.48377,0.61426
6156.55502,0.61507
6154.62628,0.61746
6152.69753,0.62081
6150.76878,0.62313
6148.84004,0.62438
6146.91129,0.62597
6144.98255,0.62797
6143.05380,0.62974
6141.12506,0.63123
6139.19631,0.63243
6137.26757,0.63324
6135.33882,0.63379
6133.41008,0.63430
6131.48133,0.63509
6129.55259,0.63641
6127.62384,0.63707
6125.69510,0.63631
6123.76635,0.63635
6121.83761,0.63836
6119.90886,0.63979
6117.98011,0.63953
6116.05137,0.63942
6114.12262,0.63970
6112.19388,0.63938
6110.26513,0.63835
6108.33639,0.63725
6106.40764,0.63814
6104.47890,0.64083
6102.55015,0.64136
6100.62141,0.63946
6098.69266,0.63923
6096.76392,0.64128
6094.83517,0.64330
6092.90643,0.64410
6090.97768,0.64343
6089.04893,0.64257
6087.12019,0.64282
6085.19144,0.64299
6083.26270,0.64181
6081.33395,0.64014
6079.40521,0.63938
6077.47646,0.63964
6075.54772,0.63986
6073.61897,0.63937
6071.69023,0.63901
6069.76148,0.63935
6067.83274,0.63909
6065.90399,0.63754
6063.97525,0.63634
6062.04650,0.63694
6060.11776,0.63834
6058.18901,0.63864
6056.26026,0.63769
6054.33152,0.63624
6052.40277,0.63521
6050.47403,0.63541
6048.54528,0.63562
6046.61654,0.63469
6044.68779,0.63391
6042.75905,0.63346
6040.83030,0.63242
6038.90156,0.63211
6036.97281,0.63365
6035.04407,0.63538
6033.11532,0.63491
6031.18658,0.63255
6029.25783,0.63155
6027.32909,0.63247
6025.40034,0.63277
6023.47159,0.63211
6021.54285,0.63141
6019.61410,0.63110
6017.68536,0.63173
6015.75661,0.63229
6013.82787,0.63130
6011.89912,0.62939
6009.97038,0.62763
6008.04163,0.62670
6006.11289,0.62649
6004.18414,0.62552
6002.25540,0.62385
6000.32665,0.62342
5998.39791,0.62427
5996.46916,0.62404
5994.54041,0.62157
5992.61167,0.61870
5990.68292,0.61689
5988.75418,0.61575
5986.82543,0.61554
5984.89669,0.61606
5982.96794,0.61574
5981.03920,0.61482
5979.11045,0.61444
5977.18171,0.61391
5975.25296,0.61291
5973.32422,0.61165
5971.39547,0.60952
5969.46673,0.60751
5967.53798,0.60683
5965.60924,0.60662
5963.68049,0.60604
5961.75174,0.60463
5959.82300,0.60224
5957.89425,0.59951
5955.96551,0.59734
5954.03676,0.59624
5952.10802,0.59562
5950.17927,0.59444
5948.25053,0.59233
5946.32178,0.58989
5944.39304,0.58779
5942.46429,0.58562
5940.53555,0.58299
5938.60680,0.58003
5936.67806,0.57675
5934.74931,0.57406
5932.82057,0.57283
5930.89182,0.57130
5928.96307,0.56775
5927.03433,0.56424
5925.10558,0.56243
5923.17684,0.56055
5921.24809,0.55739
5919.31935,0.55350
5917.39060,0.54915
5915.46186,0.54437
5913.53311,0.54003
5911.60437,0.53640
5909.67562,0.53197
5907.74688,0.52652
5905.81813,0.52137
5903.88939,0.51722
5901.96064,0.51431
5900.03189,0.51068
5898.10315,0.50462
5896.17440,0.49888
5894.24566,0.49550
5892.31691,0.49246
5890.38817,0.48804
5888.45942,0.48301
5886.53068,0.47838
5884.60193,0.47412
5882.67319,0.47061
5880.74444,0.46825
5878.81570,0.46609
5876.88695,0.46309
5874.95821,0.45880
5873.02946,0.45369
5871.10072,0.44976
5869.17197,0.44772
5867.24322,0.44542
5865.31448,0.44121
5863.38573,0.43625
5861.45699,0.43281
5859.52824,0.43112
5857.59950,0.42864
5855.67075,0.42493
5853.74201,0.42218
5851.81326,0.42051
5849.88452,0.41899
5847.95577,0.41736
5846.02703,0.41430
5844.09828,0.40955
5842.16954,0.40587
5840.24079,0.40550
5838.31205,0.40714
5836.38330,0.40753
5834.45455,0.40601
5832.52581,0.40527
5830.59706,0.40594
5828.66832,0.40632
5826.73957,0.40652
5824.81083,0.40679
5822.88208,0.40595
5820.95334,0.40467
5819.02459,0.40514
5817.09585,0.40661
5815.16710,0.40690
5813.23836,0.40602
5811.30961,0.40506
5809.38087,0.40503
5807.45212,0.40643
5805.52337,0.40890
5803.59463,0.41149
5801.66588,0.41290
5799.73714,0.41331
5797.80839,0.41431
5795.87965,0.41625
5793.95090,0.41851
5792.02216,0.42104
5790.09341,0.42355
5788.16467,0.42522
5786.23592,0.42575
5784.30718,0.42518
5782.37843,0.42442
5780.44969,0.42487
5778.52094,0.42646
5776.59220,0.42827
5774.66345,0.43019
5772.73470,0.43190
5770.80596,0.43279
5768.87721,0.43414
5766.94847,0.43647
5765.01972,0.43777
5763.09098,0.43794
5761.16223,0.43831
5759.23349,0.43796
5757.30474,0.43671
5755.37600,0.43661
5753.44725,0.43823
5751.51851,0.43972
5749.58976,0.43949
5747.66102,0.43818
5745.73227,0.43686
5743.80352,0.43512
5741.87478,0.43306
5739.94603,0.43170
5738.01729,0.43096
5736.08854,0.43021
5734.15980,0.42904
5732.23105,0.42699
5730.30231,0.42470
5728.37356,0.42335
5726.44482,0.42273
5724.51607,0.42231
5722.58733,0.42214
5720.65858,0.42148
5718.72984,0.41981
5716.80109,0.41836
5714.87235,0.41807
5712.94360,0.41791
5711.01485,0.41741
5709.08611,0.41760
5707.15736,0.41863
5705.22862,0.41942
5703.29987,0.41949
5701.37113,0.41966
5699.44238,0.42044
5697.51364,0.42197
5695.58489,0.42430
5693.65615,0.42582
5691.72740,0.42554
5689.79866,0.42489
5687.86991,0.42535
5685.94117,0.42711
5684.01242,0.42947
5682.08368,0.43103
5680.15493,0.43111
5678.22618,0.43147
5676.29744,0.43369
5674.36869,0.43678
5672.43995,0.43952
5670.51120,0.44172
5668.58246,0.44322
5666.65371,0.44422
5664.72497,0.44598
5662.79622,0.44975
5660.86748,0.45429
5658.93873,0.45667
5657.00999,0.45714
5655.08124,0.45831
5653.15250,0.46050
5651.22375,0.46317
5649.29500,0.46620
5647.36626,0.46849
5645.43751,0.46928
5643.50877,0.46967
5641.58002,0.47113
5639.65128,0.47341
5637.72253,0.47520
5635.79379,0.47648
5633.86504,0.47831
5631.93630,0.48064
5630.00755,0.48267
5628.07881,0.48403
5626.15006,0.48476
5624.22132,0.48537
5622.29257,0.48644
5620.36383,0.48801
5618.43508,0.48915
5616.50633,0.48869
5614.57759,0.48744
5612.64884,0.48748
5610.72010,0.48916
5608.79135,0.49091
5606.86261,0.49193
5604.93386,0.49260
5603.00512,0.49294
5601.07637,0.49302
5599.14763,0.49302
5597.21888,0.49300
5595.29014,0.49298
5593.36139,0.49289
5591.43265,0.49334
5589.50390,0.49463
5587.57516,0.49566
5585.64641,0.49611
5583.71766,0.49681
5581.78892,0.49777
5579.86017,0.49828
5577.93143,0.49814
5576.00268,0.49771
5574.07394,0.49737
5572.14519,0.49750
5570.21645,0.49854
5568.28770,0.49994
5566.35896,0.50053
5564.43021,0.50000
5562.50147,0.49897
5560.57272,0.49848
5558.64398,0.49888
5556.71523,0.49969
5554.78648,0.50077
5552.85774,0.50189
5550.92899,0.50298
5549.00025,0.50359
5547.07150,0.50274
5545.14276,0.50158
5543.21401,0.50197
5541.28527,0.50294
5539.35652,0.50310
5537.42778,0.50332
5535.49903,0.50426
5533.57029,0.50462
5531.64154,0.50370
5529.71280,0.50286
5527.78405,0.50307
5525.85531,0.50378
5523.92656,0.50427
5521.99781,0.50470
5520.06907,0.50520
5518.14032,0.50531
5516.21158,0.50539
5514.28283,0.50642
5512.35409,0.50778
5510.42534,0.50881
5508.49660,0.51071
5506.56785,0.51309
5504.63911,0.51312
5502.71036,0.51109
5500.78162,0.51047
5498.85287,0.51178
5496.92413,0.51252
5494.99538,0.51206
5493.06664,0.51163
5491.13789,0.51211
5489.20914,0.51356
5487.28040,0.51477
5485.35165,0.51484
5483.42291,0.51446
5481.49416,0.51441
5479.56542,0.51488
5477.63667,0.51541
5475.70793,0.51535
5473.77918,0.51467
5471.85044,0.51414
5469.92169,0.51472
5467.99295,0.51611
5466.06420,0.51690
5464.13546,0.51659
5462.20671,0.51607
5460.27796,0.51625
5458.34922,0.51706
5456.42047,0.51770
5454.49173,0.51789
5452.56298,0.51805
5450.63424,0.51813
5448.70549,0.51794
5446.77675,0.51804
5444.84800,0.51880
5442.91926,0.51979
5440.99051,0.52037
5439.06177,0.52065
5437.13302,0.52135
5435.20428,0.52249
5433.27553,0.52359
5431.34679,0.52397
5429.41804,0.52347
5427.48929,0.52280
5425.56055,0.52227
5423.63180,0.52196
5421.70306,0.52251
5419.77431,0.52400
5417.84557,0.52559
5415.91682,0.52662
5413.98808,0.52676
5412.05933,0.52606
5410.13059,0.52572
5408.20184,0.52658
5406.27310,0.52791
5404.34435,0.52884
5402.41561,0.52915
5400.48686,0.52954
5398.55811,0.53088
5396.62937,0.53234
5394.70062,0.53266
5392.77188,0.53309
5390.84313,0.53449
5388.91439,0.53547
5386.98564,0.53588
5385.05690,0.53628
5383.12815,0.53648
5381.19941,0.53713
5379.27066,0.53828
5377.34192,0.53880
5375.41317,0.53886
5373.48443,0.53964
5371.55568,0.54121
5369.62694,0.54234
5367.69819,0.54258
5365.76944,0.54274
5363.84070,0.54302
5361.91195,0.54317
5359.98321,0.54326
5358.05446,0.54360
5356.12572,0.54468
5354.19697,0.54581
5352.26823,0.54624
5350.33948,0.54655
5348.41074,0.54686
5346.48199,0.54668
5344.55325,0.54642
5342.62450,0.54632
5340.69576,0.54626
5338.76701,0.54668
5336.83827,0.54752
5334.90952,0.54805
5332.98077,0.54808
5331.05203,0.54790
5329.12328,0.54782
5327.19454,0.54793
5325.26579,0.54781
5323.33705,0.54743
5321.40830,0.54784
5319.47956,0.54892
5317.55081,0.54896
5315.62207,0.54793
5313.69332,0.54724
5311.76458,0.54697
5309.83583,0.54619
5307.90709,0.54511
5305.97834,0.54510
5304.04959,0.54576
5302.12085,0.54563
5300.19210,0.54488
5298.26336,0.54404
5296.33461,0.54266
5294.40587,0.54060
5292.47712,0.53868
5290.54838,0.53795
5288.61963,0.53827
5286.69089,0.53842
5284.76214,0.53815
5282.83340,0.53803
5280.90465,0.53801
5278.97591,0.53745
5277.04716,0.53606
5275.11842,0.53481
5273.18967,0.53431
5271.26092,0.53360
5269.33218,0.53246
5267.40343,0.53196
5265.47469,0.53220
5263.54594,0.53186
5261.61720,0.53061
5259.68845,0.52953
5257.75971,0.52906
5255.83096,0.52886
5253.90222,0.52871
5251.97347,0.52830
5250.04473,0.52735
5248.11598,0.52606
5246.18724,0.52491
5244.25849,0.52386
5242.32975,0.52280
5240.40100,0.52231
5238.47225,0.52211
5236.54351,0.52167
5234.61476,0.52197
5232.68602,0.52290
5230.75727,0.52293
5228.82853,0.52194
5226.89978,0.52072
5224.97104,0.51992
5223.04229,0.51961
5221.11355,0.51899
5219.18480,0.51787
5217.25606,0.51698
5215.32731,0.51638
5213.39857,0.51528
5211.46982,0.51382
5209.54107,0.51292
5207.61233,0.51214
5205.68358,0.51080
5203.75484,0.50986
5201.82609,0.50976
5199.89735,0.50956
5197.96860,0.50898
5196.03986,0.50856
5194.11111,0.50781
5192.18237,0.50573
5190.25362,0.50339
5188.32488,0.50267
5186.39613,0.50270
5184.46739,0.50162
5182.53864,0.50014
5180.60990,0.49966
5178.68115,0.49994
5176.75240,0.49998
5174.82366,0.49890
5172.89491,0.49681
5170.96617,0.49517
5169.03742,0.49475
5167.10868,0.49477
5165.17993,0.49438
5163.25119,0.49343
5161.32244,0.49227
5159.39370,0.49112
5157.46495,0.49035
5155.53621,0.49021
5153.60746,0.48984
5151.67872,0.48884
5149.74997,0.48806
5147.82123,0.48743
5145.89248,0.48657
5143.96373,0.48629
5142.03499,0.48693
5140.10624,0.48723
5138.17750,0.48625
5136.24875,0.48481
5134.32001,0.48389
5132.39126,0.48367
5130.46252,0.48420
5128.53377,0.48500
5126.60503,0.48528
5124.67628,0.48492
5122.74754,0.48438
5120.81879,0.48426
5118.89005,0.48439
5116.96130,0.48430
5115.03255,0.48413
5113.10381,0.48402
5111.17506,0.48389
5109.24632,0.48420
5107.31757,0.48532
5105.38883,0.48650
5103.46008,0.48704
5101.53134,0.48725
5099.60259,0.48767
5097.67385,0.48839
5095.74510,0.48903
5093.81636,0.48941
5091.88761,0.48976
5089.95887,0.49016
5088.03012,0.49034
5086.10138,0.49022
5084.17263,0.49027
5082.24388,0.49080
5080.31514,0.49144
5078.38639,0.49181
5076.45765,0.49224
5074.52890,0.49290
5072.60016,0.49330
5070.67141,0.49306
5068.74267,0.49258
5066.81392,0.49251
5064.88518,0.49270
5062.95643,0.49284
5061.02769,0.49336
5059.09894,0.49408
5057.17020,0.49401
5055.24145,0.49319
5053.31270,0.49295
5051.38396,0.49367
5049.45521,0.49426
5047.52647,0.49423
5045.59772,0.49420
5043.66898,0.49438
5041.74023,0.49436
5039.81149,0.49394
5037.88274,0.49348
5035.95400,0.49306
5034.02525,0.49248
5032.09651,0.49187
5030.16776,0.49113
5028.23902,0.49008
5026.31027,0.48892
5024.38153,0.48763
5022.45278,0.48633
5020.52403,0.48534
5018.59529,0.48434
5016.66654,0.48314
5014.73780,0.48208
5012.80905,0.48070
5010.88031,0.47831
5008.95156,0.47562
5007.02282,0.47369
5005.09407,0.47193
5003.16533,0.46919
5001.23658,0.46565
4999.30784,0.46229
4997.37909,0.45933
4995.45035,0.45640
4993.52160,0.45352
4991.59286,0.45019
4989.66411,0.44591
4987.73536,0.44149
4985.80662,0.43753
4983.87787,0.43362
4981.94913,0.42963
4980.02038,0.42567
4978.09164,0.42202
4976.16289,0.41919
4974.23415,0.41719
4972.30540,0.41574
4970.37666,0.41457
4968.44791,0.41308
4966.51917,0.41128
4964.59042,0.41008
4962.66168,0.40968
4960.73293,0.40929
4958.80418,0.40837
4956.87544,0.40721
4954.94669,0.40641
4953.01795,0.40619
4951.08920,0.40632
4949.16046,0.40641
4947.23171,0.40638
4945.30297,0.40628
4943.37422,0.40580
4941.44548,0.40485
4939.51673,0.40368
4937.58799,0.40280
4935.65924,0.40247
4933.73050,0.40227
4931.80175,0.40190
4929.87301,0.40154
4927.94426,0.40107
4926.01551,0.40019
4924.08677,0.39867
4922.15802,0.39641
4920.22928,0.39360
4918.30053,0.39034
4916.37179,0.38692
4914.44304,0.38373
4912.51430,0.38050
4910.58555,0.37675
4908.65681,0.37251
4906.72806,0.36783
4904.79932,0.36253
4902.87057,0.35699
4900.94183,0.35149
4899.01308,0.34564
4897.08434,0.33960
4895.15559,0.33394
4893.22684,0.32885
4891.29810,0.32445
4889.36935,0.32084
4887.44061,0.31781
4885.51186,0.31479
4883.58312,0.31129
4881.65437,0.30766
4879.72563,0.30456
4877.79688,0.30208
4875.86814,0.30009
4873.93939,0.29869
4872.01065,0.29831
4870.08190,0.29935
4868.15316,0.30161
4866.22441,0.30455
4864.29566,0.30805
4862.36692,0.31259
4860.43817,0.31824
4858.50943,0.32423
4856.58068,0.33003
4854.65194,0.33577
4852.72319,0.34199
4850.79445,0.34892
4848.86570,0.35624
4846.93696,0.36364
4845.00821,0.37068
4843.07947,0.37705
4841.15072,0.38304
4839.22198,0.38901
4837.29323,0.39501
4835.36449,0.40059
4833.43574,0.40533
4831.50699,0.40970
4829.57825,0.41409
4827.64950,0.41788
4825.72076,0.42074
4823.79201,0.42323
4821.86327,0.42562
4819.93452,0.42799
4818.00578,0.43038
4816.07703,0.43232
4814.14829,0.43335
4812.21954,0.43362
4810.29080,0.43374
4808.36205,0.43419
4806.43331,0.43448
4804.50456,0.43414
4802.57582,0.43380
4800.64707,0.43369
4798.71832,0.43315
4796.78958,0.43213
4794.86083,0.43129
4792.93209,0.43103
4791.00334,0.43104
4789.07460,0.43088
4787.14585,0.43044
4785.21711,0.42989
4783.28836,0.42907
4781.35962,0.42776
4779.43087,0.42652
4777.50213,0.42607
4775.57338,0.42622
4773.64464,0.42618
4771.71589,0.42551
4769.78714,0.42450
4767.85840,0.42353
4765.92965,0.42259
4764.00091,0.42154
4762.07216,0.42048
4760.14342,0.41961
4758.21467,0.41888
4756.28593,0.41779
4754.35718,0.41615
4752.42844,0.41448
4750.49969,0.41316
4748.57095,0.41218
4746.64220,0.41139
4744.71346,0.41047
4742.78471,0.40929
4740.85597,0.40809
4738.92722,0.40691
4736.99847,0.40553
4735.06973,0.40380
4733.14098,0.40193
4731.21224,0.40021
4729.28349,0.39870
4727.35475,0.39738
4725.42600,0.39590
4723.49726,0.39397
4721.56851,0.39187
4719.63977,0.38965
4717.71102,0.38708
4715.78228,0.38430
4713.85353,0.38149
4711.92479,0.37877
4709.99604,0.37624
4708.06729,0.37376
4706.13855,0.37137
4704.20980,0.36956
4702.28106,0.36839
4700.35231,0.36714
4698.42357,0.36551
4696.49482,0.36418
4694.56608,0.36330
4692.63733,0.36237
4690.70859,0.36138
4688.77984,0.36067
4686.85110,0.36029
4684.92235,0.36021
4682.99361,0.35985
4681.06486,0.35883
4679.13612,0.35791
4677.20737,0.35781
4675.27862,0.35827
4673.34988,0.35867
4671.42113,0.35872
4669.49239,0.35869
4667.56364,0.35898
4665.63490,0.35940
4663.70615,0.35949
4661.77741,0.35950
4659.84866,0.35964
4657.91992,0.35961
4655.99117,0.35955
4654.06243,0.35953
4652.13368,0.35908
4650.20494,0.35821
4648.27619,0.35737
4646.34745,0.35658
4644.41870,0.35551
4642.48995,0.35427
4640.56121,0.35301
4638.63246,0.35160
4636.70372,0.34998
4634.77497,0.34820
4632.84623,0.34628
4630.91748,0.34415
4628.98874,0.34180
4627.05999,0.33968
4625.13125,0.33812
4623.20250,0.33642
4621.27376,0.33386
4619.34501,0.33122
4617.41627,0.32942
4615.48752,0.32828
4613.55877,0.32738
4611.63003,0.32626
4609.70128,0.32471
4607.77254,0.32327
4605.84379,0.32188
4603.91505,0.32021
4601.98630,0.31872
4600.05756,0.31765
4598.12881,0.31680
4596.20007,0.31617
4594.27132,0.31545
4592.34258,0.31422
4590.41383,0.31271
4588.48509,0.31160
4586.55634,0.31108
4584.62760,0.31058
4582.69885,0.30987
4580.77010,0.30942
4578.84136,0.30927
4576.91261,0.30895
4574.98387,0.30866
4573.05512,0.30892
4571.12638,0.30944
4569.19763,0.30977
4567.26889,0.31025
4565.34014,0.31105
4563.41140,0.31176
4561.48265,0.31213
4559.55391,0.31256
4557.62516,0.31353
4555.69642,0.31476
4553.76767,0.31566
4551.83893,0.31634
4549.91018,0.31740
4547.98143,0.31883
4546.05269,0.32000
4544.12394,0.32063
4542.19520,0.32098
4540.26645,0.32132
4538.33771,0.32193
4536.40896,0.32283
4534.48022,0.32322
4532.55147,0.32281
4530.62273,0.32273
4528.69398,0.32340
4526.76524,0.32421
4524.83649,0.32509
4522.90775,0.32618
4520.97900,0.32746
4519.05025,0.32868
4517.12151,0.32972
4515.19276,0.33104
4513.26402,0.33255
4511.33527,0.33373
4509.40653,0.33489
4507.47778,0.33666
4505.54904,0.33896
4503.62029,0.34089
4501.69155,0.34186
4499.76280,0.34216
4497.83406,0.34259
4495.90531,0.34348
4493.97657,0.34456
4492.04782,0.34542
4490.11908,0.34585
4488.19033,0.34612
4486.26158,0.34637
4484.33284,0.34639
4482.40409,0.34620
4480.47535,0.34599
4478.54660,0.34588
4476.61786,0.34569
4474.68911,0.34538
4472.76037,0.34540
4470.83162,0.34557
4468.90288,0.34537
4466.97413,0.34515
4465.04539,0.34513
4463.11664,0.34483
4461.18790,0.34420
4459.25915,0.34361
4457.33041,0.34292
4455.40166,0.34177
4453.47291,0.34014
4451.54417,0.33827
4449.61542,0.33641
4447.68668,0.33467
4445.75793,0.33290
4443.82919,0.33104
4441.90044,0.32927
4439.97170,0.32726
4438.04295,0.32472
4436.11421,0.32216
4434.18546,0.31969
4432.25672,0.31690
4430.32797,0.31393
4428.39923,0.31086
4426.47048,0.30757
4424.54173,0.30431
4422.61299,0.30127
4420.68424,0.29840
4418.75550,0.29564
4416.82675,0.29272
4414.89801,0.28956
4412.96926,0.28645
4411.04052,0.28338
4409.11177,0.28025
4407.18303,0.27709
4405.25428,0.27390
4403.32554,0.27069
4401.39679,0.26733
4399.46805,0.26375
4397.53930,0.26020
4395.61056,0.25668
4393.68181,0.25295
4391.75306,0.24883
4389.82432,0.24446
4387.89557,0.24020
4385.96683,0.23605
4384.03808,0.23181
4382.10934,0.22746
4380.18059,0.22311
4378.25185,0.21872
4376.32310,0.21413
4374.39436,0.20943
4372.46561,0.20498
4370.53687,0.20084
4368.60812,0.19689
4366.67938,0.19354
4364.75063,0.19107
4362.82189,0.18889
4360.89314,0.18660
4358.96439,0.18455
4357.03565,0.18313
4355.10690,0.18260
4353.17816,0.18317
4351.24941,0.18476
4349.32067,0.18714
4347.39192,0.19002
4345.46318,0.19339
4343.53443,0.19741
4341.60569,0.20171
4339.67694,0.20576
4337.74820,0.20958
4335.81945,0.21319
4333.89071,0.21626
4331.96196,0.21879
4330.03321,0.22095
4328.10447,0.22265
4326.17572,0.22406
4324.24698,0.22572
4322.31823,0.22782
4320.38949,0.23000
4318.46074,0.23199
4316.53200,0.23398
4314.60325,0.23623
4312.67451,0.23828
4310.74576,0.23945
4308.81702,0.24007
4306.88827,0.24092
4304.95953,0.24222
4303.03078,0.24359
4301.10204,0.24428
4299.17329,0.24428
4297.24454,0.24416
4295.31580,0.24380
4293.38705,0.24285
4291.45831,0.24149
4289.52956,0.24014
4287.60082,0.23871
4285.67207,0.23673
4283.74333,0.23424
4281.81458,0.23146
4279.88584,0.22846
4277.95709,0.22548
4276.02835,0.22291
4274.09960,0.22057
4272.17086,0.21796
4270.24211,0.21518
4268.31336,0.21269
4266.38462,0.21074
4264.45587,0.20957
4262.52713,0.20928
4260.59838,0.20956
4258.66964,0.21030
4256.74089,0.21153
4254.81215,0.21293
4252.88340,0.21417
4250.95466,0.21529
4249.02591,0.21621
4247.09717,0.21662
4245.16842,0.21656
4243.23968,0.21628
4241.31093,0.21580
4239.38219,0.21535
4237.45344,0.21516
4235.52469,0.21499
4233.59595,0.21448
4231.66720,0.21369
4229.73846,0.21310
4227.80971,0.21283
4225.88097,0.21256
4223.95222,0.21227
4222.02348,0.21213
4220.09473,0.21217
4218.16599,0.21225
4216.23724,0.21214
4214.30850,0.21206
4212.37975,0.21240
4210.45101,0.21305
4208.52226,0.21380
4206.59352,0.21459
4204.66477,0.21515
4202.73602,0.21528
4200.80728,0.21523
4198.87853,0.21549
4196.94979,0.21605
4195.02104,0.21654
4193.09230,0.21682
4191.16355,0.21688
4189.23481,0.21670
4187.30606,0.21665
4185.37732,0.21723
4183.44857,0.21839
4181.51983,0.21988
4179.59108,0.22179
4177.66234,0.22393
4175.73359,0.22584
4173.80484,0.22745
4171.87610,0.22885
4169.94735,0.23029
4168.01861,0.23199
4166.08986,0.23356
4164.16112,0.23456
4162.23237,0.23538
4160.30363,0.23640
4158.37488,0.23768
4156.44614,0.23911
4154.51739,0.24042
4152.58865,0.24167
4150.65990,0.24326
4148.73116,0.24529
4146.80241,0.24749
4144.87367,0.24942
4142.94492,0.25093
4141.01617,0.25229
4139.08743,0.25382
4137.15868,0.25552
4135.22994,0.25701
4133.30119,0.25826
4131.37245,0.25952
4129.44370,0.26062
4127.51496,0.26131
4125.58621,0.26173
4123.65747,0.26198
4121.72872,0.26212
4119.79998,0.26235
4117.87123,0.26246
4115.94249,0.26213
4114.01374,0.26149
4112.08500,0.26067
4110.15625,0.25981
4108.22750,0.25910
4106.29876,0.25853
4104.37001,0.25836
4102.44127,0.25867
4100.51252,0.25925
4098.58378,0.26002
4096.65503,0.26085
4094.72629,0.26156
4092.79754,0.26218
4090.86880,0.26279
4088.94005,0.26341
4087.01131,0.26397
4085.08256,0.26432
4083.15382,0.26432
4081.22507,0.26416
4079.29632,0.26390
4077.36758,0.26344
4075.43883,0.26287
4073.51009,0.26218
4071.58134,0.26134
4069.65260,0.26041
4067.72385,0.25925
4065.79511,0.25792
4063.86636,0.25676
4061.93762,0.25568
4060.00887,0.25424
4058.08013,0.25234
4056.15138,0.25010
4054.22264,0.24791
4052.29389,0.24607
4050.36515,0.24458
4048.43640,0.24347
4046.50765,0.24267
4044.57891,0.24203
4042.65016,0.24140
4040.72142,0.24057
4038.79267,0.23950
4036.86393,0.23817
4034.93518,0.23659
4033.00644,0.23536
4031.07769,0.23472
4029.14895,0.23411
4027.22020,0.23337
4025.29146,0.23298
4023.36271,0.23331
4021.43397,0.23414
4019.50522,0.23468
4017.57648,0.23461
4015.64773,0.23451
4013.71898,0.23481
4011.79024,0.23534
4009.86149,0.23600
4007.93275,0.23706
4006.00400,0.23857
4004.07526,0.24041
4002.14651,0.24256
4000.21777,0.24495
3998.28902,0.24742
3996.36028,0.24999
3994.43153,0.25270
3992.50279,0.25523
3990.57404,0.25744
3988.64530,0.25951
3986.71655,0.26146
3984.78780,0.26313
3982.85906,0.26433
3980.93031,0.26507
3979.00157,0.26589
3977.07282,0.26729
3975.14408,0.26885
3973.21533,0.26995
3971.28659,0.27070
3969.35784,0.27175
3967.42910,0.27319
3965.50035,0.27449
3963.57161,0.27549
3961.64286,0.27638
3959.71412,0.27717
3957.78537,0.27788
3955.85663,0.27868
3953.92788,0.27953
3951.99913,0.28021
3950.07039,0.28078
3948.14164,0.28129
3946.21290,0.28163
3944.28415,0.28186
3942.35541,0.28231
3940.42666,0.28333
3938.49792,0.28461
3936.56917,0.28586
3934.64043,0.28745
3932.71168,0.28947
3930.78294,0.29149
3928.85419,0.29336
3926.92545,0.29514
3924.99670,0.29694
3923.06795,0.29883
3921.13921,0.30050
3919.21046,0.30193
3917.28172,0.30351
3915.35297,0.30506
3913.42423,0.30625
3911.49548,0.30714
3909.56674,0.30788
3907.63799,0.30868
3905.70925,0.30968
3903.78050,0.31040
3901.85176,0.31067
3899.92301,0.31114
3897.99427,0.31221
3896.06552,0.31357
3894.13678,0.31485
3892.20803,0.31594
3890.27928,0.31678
3888.35054,0.31744
3886.42179,0.31813
3884.49305,0.31909
3882.56430,0.32032
3880.63556,0.32153
3878.70681,0.32259
3876.77807,0.32353
3874.84932,0.32419
3872.92058,0.32438
3870.99183,0.32428
3869.06309,0.32399
3867.13434,0.32323
3865.20560,0.32173
3863.27685,0.31964
3861.34811,0.31719
3859.41936,0.31462
3857.49061,0.31231
3855.56187,0.31044
3853.63312,0.30920
3851.70438,0.30932
3849.77563,0.31057
3847.84689,0.31241
3845.91814,0.31469
3843.98940,0.31714
3842.06065,0.31957
3840.13191,0.32184
3838.20316,0.32350
3836.27442,0.32456
3834.34567,0.32538
3832.41693,0.32582
3830.48818,0.32599
3828.55943,0.32631
3826.63069,0.32669
3824.70194,0.32708
3822.77320,0.32775
3820.84445,0.32867
3818.91571,0.32962
3816.98696,0.33084
3815.05822,0.33244
3813.12947,0.33403
3811.20073,0.33564
3809.27198,0.33729
3807.34324,0.33842
3805.41449,0.33878
3803.48575,0.33900
3801.55700,0.33964
3799.62826,0.34063
3797.69951,0.34164
3795.77076,0.34241
3793.84202,0.34275
3791.91327,0.34286
3789.98453,0.34302
3788.05578,0.34314
3786.12704,0.34319
3784.19829,0.34329
3782.26955,0.34324
3780.34080,0.34271
3778.41206,0.34179
3776.48331,0.34086
3774.55457,0.34016
3772.62582,0.33962
3770.69708,0.33890
3768.76833,0.33822
3766.83959,0.33807
3764.91084,0.33824
3762.98209,0.33830
3761.05335,0.33788
3759.12460,0.33690
3757.19586,0.33618
3755.26711,0.33616
3753.33837,0.33629
3751.40962,0.33612
3749.48088,0.33568
3747.55213,0.33528
3745.62339,0.33515
3743.69464,0.33562
3741.76590,0.33662
3739.83715,0.33784
3737.90841,0.33914
3735.97966,0.34028
3734.05091,0.34143
3732.12217,0.34294
3730.19342,0.34446
3728.26468,0.34551
3726.33593,0.34617
3724.40719,0.34651
3722.47844,0.34640
3720.54970,0.34575
3718.62095,0.34486
3716.69221,0.34412
3714.76346,0.34343
3712.83472,0.34227
3710.90597,0.34048
3708.97723,0.33879
3707.04848,0.33744
3705.11974,0.33596
3703.19099,0.33414
3701.26224,0.33205
3699.33350,0.32996
3697.40475,0.32775
3695.47601,0.32515
3693.54726,0.32238
3691.61852,0.31934
3689.68977,0.31530
3687.76103,0.31019
3685.83228,0.30506
3683.90354,0.30046
3681.97479,0.29636
3680.04605,0.29274
3678.11730,0.28953
3676.18856,0.28645
3674.25981,0.28380
3672.33107,0.28192
3670.40232,0.28034
3668.47357,0.27908
3666.54483,0.27826
3664.61608,0.27750
3662.68734,0.27679
3660.75859,0.27626
3658.82985,0.27547
3656.90110,0.27401
3654.97236,0.27255
3653.04361,0.27144
3651.11487,0.26960
3649.18612,0.26640
3647.25738,0.26300
3645.32863,0.26010
3643.39989,0.25734
3641.47114,0.25449
3639.54239,0.25135
3637.61365,0.24767
3635.68490,0.24361
3633.75616,0.23975
3631.82741,0.23654
3629.89867,0.23350
3627.96992,0.23000
3626.04118,0.22680
3624.11243,0.22432
3622.18369,0.22213
3620.25494,0.21967
3618.32620,0.21697
3616.39745,0.21477
3614.46871,0.21290
3612.53996,0.21072
3610.61122,0.20810
3608.68247,0.20529
3606.75372,0.20280
3604.82498,0.20074
3602.89623,0.19859
3600.96749,0.19608
3599.03874,0.19331
3597.11000,0.19039
3595.18125,0.18748
3593.25251,0.18490
3591.32376,0.18264
3589.39502,0.18006
3587.46627,0.17712
3585.53753,0.17451
3583.60878,0.17231
3581.68004,0.17011
3579.75129,0.16746
3577.82254,0.16434
3575.89380,0.16133
3573.96505,0.15876
3572.03631,0.15635
3570.10756,0.15385
3568.17882,0.15131
3566.25007,0.14879
3564.32133,0.14639
3562.39258,0.14397
3560.46384,0.14144
3558.53509,0.13894
3556.60635,0.13644
3554.67760,0.13382
3552.74886,0.13122
3550.82011,0.12882
3548.89137,0.12660
3546.96262,0.12452
3545.03387,0.12268
3543.10513,0.12084
3541.17638,0.11886
3539.24764,0.11690
3537.31889,0.11487
3535.39015,0.11256
3533.46140,0.11011
3531.53266,0.10786
3529.60391,0.10589
3527.67517,0.10401
3525.74642,0.10229
3523.81768,0.10085
3521.88893,0.09943
3519.96019,0.09775
3518.03144,0.09589
3516.10270,0.09417
3514.17395,0.09284
3512.24520,0.09181
3510.31646,0.09083
3508.38771,0.08976
3506.45897,0.08870
3504.53022,0.08741
3502.60148,0.08588
3500.67273,0.08464
3498.74399,0.08379
3496.81524,0.08301
3494.88650,0.08215
3492.95775,0.08128
3491.02901,0.08067
3489.10026,0.08043
3487.17152,0.08009
3485.24277,0.07924
3483.31402,0.07817
3481.38528,0.07734
3479.45653,0.07690
3477.52779,0.07655
3475.59904,0.07608
3473.67030,0.07549
3471.74155,0.07479
3469.81281,0.07411
3467.88406,0.07351
3465.95532,0.07292
3464.02657,0.07225
3462.09783,0.07152
3460.16908,0.07080
3458.24034,0.06995
3456.31159,0.06893
3454.38285,0.06792
3452.45410,0.06706
3450.52535,0.06614
3448.59661,0.06521
3446.66786,0.06467
3444.73912,0.06438
3442.81037,0.06410
3440.88163,0.06383
3438.95288,0.06348
3437.02414,0.06292
3435.09539,0.06214
3433.16665,0.06116
3431.23790,0.06021
3429.30916,0.05936
3427.38041,0.05831
3425.45167,0.05720
3423.52292,0.05635
3421.59418,0.05573
3419.66543,0.05511
3417.73668,0.05440
3415.80794,0.05354
3413.87919,0.05235
3411.95045,0.05101
3410.02170,0.05001
3408.09296,0.04923
3406.16421,0.04819
3404.23547,0.04695
3402.30672,0.04586
3400.37798,0.04494
3398.44923,0.04403
3396.52049,0.04286
3394.59174,0.04149
3392.66300,0.04018
3390.73425,0.03909
3388.80550,0.03813
3386.87676,0.03713
3384.94801,0.03607
3383.01927,0.03502
3381.09052,0.03403
3379.16178,0.03308
3377.23303,0.03213
3375.30429,0.03122
3373.37554,0.03065
3371.44680,0.03035
3369.51805,0.02973
3367.58931,0.02873
3365.66056,0.02781
3363.73182,0.02718
3361.80307,0.02670
3359.87433,0.02607
3357.94558,0.02527
3356.01683,0.02471
3354.08809,0.02458
3352.15934,0.02445
3350.23060,0.02397
3348.30185,0.02343
3346.37311,0.02303
3344.44436,0.02261
3342.51562,0.02214
3340.58687,0.02185
3338.65813,0.02179
3336.72938,0.02188
3334.80064,0.02199
3332.87189,0.02187
3330.94315,0.02152
3329.01440,0.02131
3327.08566,0.02143
3325.15691,0.02157
3323.22816,0.02158
3321.29942,0.02157
3319.37067,0.02138
3317.44193,0.02101
3315.51318,0.02098
3313.58444,0.02138
3311.65569,0.02163
3309.72695,0.02143
3307.79820,0.02129
3305.86946,0.02153
3303.94071,0.02198
3302.01197,0.02260
3300.08322,0.02323
3298.15448,0.02345
3296.22573,0.02323
3294.29698,0.02308
3292.36824,0.02332
3290.43949,0.02378
3288.51075,0.02416
3286.58200,0.02420
3284.65326,0.02398
3282.72451,0.02374
3280.79577,0.02355
3278.86702,0.02364
3276.93828,0.02392
3275.00953,0.02397
3273.08079,0.02395
3271.15204,0.02412
3269.22330,0.02436
3267.29455,0.02462
3265.36581,0.02478
3263.43706,0.02468
3261.50831,0.02457
3259.57957,0.02473
3257.65082,0.02482
3255.72208,0.02478
3253.79333,0.02506
3251.86459,0.02553
3249.93584,0.02565
3248.00710,0.02556
3246.07835,0.02585
3244.14961,0.02632
3242.22086,0.02629
3240.29212,0.02607
3238.36337,0.02638
3236.43463,0.02709
3234.50588,0.02788
3232.57713,0.02862
3230.64839,0.02910
3228.71964,0.02924
3226.79090,0.02932
3224.86215,0.02950
3222.93341,0.02958
3221.00466,0.02960
3219.07592,0.02952
3217.14717,0.02936
3215.21843,0.02953
3213.28968,0.03004
3211.36094,0.03049
3209.43219,0.03075
3207.50345,0.03080
3205.57470,0.03078
3203.64596,0.03108
3201.71721,0.03175
3199.78846,0.03234
3197.85972,0.03271
3195.93097,0.03305
3194.00223,0.03344
3192.07348,0.03391
3190.14474,0.03430
3188.21599,0.03442
3186.28725,0.03461
3184.35850,0.03522
3182.42976,0.03607
3180.50101,0.03679
3178.57227,0.03740
3176.64352,0.03808
3174.71478,0.03888
3172.78603,0.03979
3170.85729,0.04074
3168.92854,0.04153
3166.99979,0.04233
3165.07105,0.04339
3163.14230,0.04448
3161.21356,0.04516
3159.28481,0.04533
3157.35607,0.04525
3155.42732,0.04536
3153.49858,0.04562
3151.56983,0.04580
3149.64109,0.04610
3147.71234,0.04658
3145.78360,0.04685
3143.85485,0.04678
3141.92611,0.04652
3139.99736,0.04619
3138.06861,0.04588
3136.13987,0.04549
3134.21112,0.04485
3132.28238,0.04419
3130.35363,0.04371
3128.42489,0.04307
3126.49614,0.04221
3124.56740,0.04164
3122.63865,0.04135
3120.70991,0.04078
3118.78116,0.03977
3116.85242,0.03842
3114.92367,0.03706
3112.99493,0.03615
3111.06618,0.03564
3109.13744,0.03490
3107.20869,0.03367
3105.27994,0.03237
3103.35120,0.03141
3101.42245,0.03082
3099.49371,0.03047
3097.56496,0.03029
3095.63622,0.03015
3093.70747,0.02995
3091.77873,0.02984
3089.84998,0.02999
3087.92124,0.03019
3085.99249,0.03015
3084.06375,0.03000
3082.13500,0.02999
3080.20626,0.03006
3078.27751,0.03020
3076.34877,0.03030
3074.42002,0.03033
3072.49127,0.03047
3070.56253,0.03073
3068.63378,0.03100
3066.70504,0.03139
3064.77629,0.03196
3062.84755,0.03252
3060.91880,0.03299
3058.99006,0.03361
3057.06131,0.03464
3055.13257,0.03578
3053.20382,0.03681
3051.27508,0.03791
3049.34633,0.03915
3047.41759,0.04045
3045.48884,0.04171
3043.56009,0.04307
3041.63135,0.04465
3039.70260,0.04625
3037.77386,0.04779
3035.84511,0.04921
3033.91637,0.05031
3031.98762,0.05112
3030.05888,0.05187
3028.13013,0.05259
3026.20139,0.05327
3024.27264,0.05406
3022.34390,0.05481
3020.41515,0.05526
3018.48641,0.05544
3016.55766,0.05554
3014.62892,0.05565
3012.70017,0.05581
3010.77142,0.05590
3008.84268,0.05579
3006.91393,0.05562
3004.98519,0.05538
3003.05644,0.05482
3001.12770,0.05389
2999.19895,0.05277
2997.27021,0.05166
2995.34146,0.05050
2993.41272,0.04910
2991.48397,0.04743
2989.55523,0.04553
2987.62648,0.04349
2985.69774,0.04155
2983.76899,0.03961
2981.84025,0.03731
2979.91150,0.03492
2977.98275,0.03277
2976.05401,0.03069
2974.12526,0.02880
2972.19652,0.02743
2970.26777,0.02636
2968.33903,0.02530
2966.41028,0.02449
2964.48154,0.02408
2962.55279,0.02364
2960.62405,0.02294
2958.69530,0.02248
2956.76656,0.02248
2954.83781,0.02244
2952.90907,0.02211
2950.98032,0.02184
2949.05157,0.02180
2947.12283,0.02182
2945.19408,0.02181
2943.26534,0.02190
2941.33659,0.02212
2939.40785,0.02228
2937.47910,0.02225
2935.55036,0.02226
2933.62161,0.02243
2931.69287,0.02258
2929.76412,0.02262
2927.83538,0.02280
2925.90663,0.02311
2923.97789,0.02318
2922.04914,0.02312
2920.12040,0.02324
2918.19165,0.02361
2916.26290,0.02410
2914.33416,0.02441
2912.40541,0.02459
2910.47667,0.02487
2908.54792,0.02506
2906.61918,0.02495
2904.69043,0.02479
2902.76169,0.02478
2900.83294,0.02486
2898.90420,0.02496
2896.97545,0.02510
2895.04671,0.02536
2893.11796,0.02573
2891.18922,0.02600
2889.26047,0.02611
2887.33172,0.02621
2885.40298,0.02622
2883.47423,0.02595
2881.54549,0.02550
2879.61674,0.02514
2877.68800,0.02490
2875.75925,0.02474
2873.83051,0.02460
2871.90176,0.02433
2869.97302,0.02402
2868.04427,0.02394
2866.11553,0.02408
2864.18678,0.02411
2862.25804,0.02409
2860.32929,0.02428
2858.40055,0.02466
2856.47180,0.02502
2854.54305,0.02529
2852.61431,0.02562
2850.68556,0.02621
2848.75682,0.02721
2846.82807,0.02857
2844.89933,0.03001
2842.97058,0.03171
2841.04184,0.03407
2839.11309,0.03685
2837.18435,0.03922
2835.25560,0.04099
2833.32686,0.04264
2831.39811,0.04429
2829.46937,0.04563
2827.54062,0.04669
2825.61188,0.04774
2823.68313,0.04881
2821.75438,0.04985
2819.82564,0.05093
2817.89689,0.05205
2815.96815,0.05334
2814.03940,0.05503
2812.11066,0.05705
2810.18191,0.05907
2808.25317,0.06079
2806.32442,0.06215
2804.39568,0.06333
2802.46693,0.06450
2800.53819,0.06558
2798.60944,0.06650
2796.68070,0.06744
2794.75195,0.06863
2792.82320,0.07002
2790.89446,0.07136
2788.96571,0.07256
2787.03697,0.07369
2785.10822,0.07473
2783.17948,0.07568
2781.25073,0.07684
2779.32199,0.07829
2777.39324,0.07973
2775.46450,0.08104
2773.53575,0.08230
2771.60701,0.08361
2769.67826,0.08478
2767.74952,0.08570
2765.82077,0.08656
2763.89203,0.08741
2761.96328,0.08804
2760.03453,0.08838
2758.10579,0.08850
2756.17704,0.08838
2754.24830,0.08812
2752.31955,0.08796
2750.39081,0.08801
2748.46206,0.08806
2746.53332,0.08788
2744.60457,0.08781
2742.67583,0.08840
2740.74708,0.08951
2738.81834,0.09067
2736.88959,0.09182
2734.96085,0.09306
2733.03210,0.09426
2731.10336,0.09536
2729.17461,0.09670
2727.24586,0.09838
2725.31712,0.10017
2723.38837,0.10184
2721.45963,0.10334
2719.53088,0.10482
2717.60214,0.10645
2715.67339,0.10818
2713.74465,0.10982
2711.81590,0.11121
2709.88716,0.11236
2707.95841,0.11343
2706.02967,0.11426
2704.10092,0.11470
2702.17218,0.11502
2700.24343,0.11567
2698.31468,0.11671
2696.38594,0.11779
2694.45719,0.11871
2692.52845,0.11963
2690.59970,0.12064
2688.67096,0.12157
2686.74221,0.12225
2684.81347,0.12279
2682.88472,0.12353
2680.95598,0.12447
2679.02723,0.12526
2677.09849,0.12582
2675.16974,0.12641
2673.24100,0.12703
2671.31225,0.12761
2669.38351,0.12818
2667.45476,0.12869
2665.52601,0.12901
2663.59727,0.12914
2661.66852,0.12920
2659.73978,0.12921
2657.81103,0.12919
2655.88229,0.12933
2653.95354,0.12966
2652.02480,0.13021
2650.09605,0.13099
2648.16731,0.13194
2646.23856,0.13306
2644.30982,0.13416
2642.38107,0.13493
2640.45233,0.13559
2638.52358,0.13638
2636.59484,0.13707
2634.66609,0.13760
2632.73734,0.13825
2630.80860,0.13887
2628.87985,0.13930
2626.95111,0.13974
2625.02236,0.14030
2623.09362,0.14095
2621.16487,0.14172
2619.23613,0.14263
2617.30738,0.14362
2615.37864,0.14446
2613.44989,0.14516
2611.52115,0.14600
2609.59240,0.14697
2607.66366,0.14786
2605.73491,0.14865
2603.80616,0.14934
2601.87742,0.14992
2599.94867,0.15044
2598.01993,0.15094
2596.09118,0.15138
2594.16244,0.15168
2592.23369,0.15198
2590.30495,0.15221
2588.37620,0.15222
2586.44746,0.15217
2584.51871,0.15233
2582.58997,0.15271
2580.66122,0.15328
2578.73248,0.15407
2576.80373,0.15493
2574.87499,0.15567
2572.94624,0.15628
2571.01749,0.15679
2569.08875,0.15722
2567.16000,0.15762
2565.23126,0.15795
2563.30251,0.15813
2561.37377,0.15803
2559.44502,0.15769
2557.51628,0.15731
2555.58753,0.15699
2553.65879,0.15679
2551.73004,0.15678
2549.80130,0.15699
2547.87255,0.15734
2545.94381,0.15780
2544.01506,0.15862
2542.08631,0.16000
2540.15757,0.16182
2538.22882,0.16380
2536.30008,0.16566
2534.37133,0.16726
2532.44259,0.16873
2530.51384,0.17012
2528.58510,0.17144
2526.65635,0.17289
2524.72761,0.17463
2522.79886,0.17651
2520.87012,0.17829
2518.94137,0.17997
2517.01263,0.18159
2515.08388,0.18306
2513.15514,0.18433
2511.22639,0.18542
2509.29764,0.18638
2507.36890,0.18719
2505.44015,0.18777
2503.51141,0.18807
2501.58266,0.18809
2499.65392,0.18785
2497.72517,0.18753
2495.79643,0.18716
2493.86768,0.18674
2491.93894,0.18629
2490.01019,0.18570
2488.08145,0.18508
2486.15270,0.18457
2484.22396,0.18403
2482.29521,0.18355
2480.36647,0.18340
2478.43772,0.18366
2476.50897,0.18423
2474.58023,0.18487
2472.65148,0.18569
2470.72274,0.18697
2468.79399,0.18852
2466.86525,0.19005
2464.93650,0.19161
2463.00776,0.19323
2461.07901,0.19473
2459.15027,0.19606
2457.22152,0.19739
2455.29278,0.19876
2453.36403,0.20002
2451.43529,0.20122
2449.50654,0.20251
2447.57779,0.20396
2445.64905,0.20541
2443.72030,0.20671
2441.79156,0.20799
2439.86281,0.20927
2437.93407,0.21033
2436.00532,0.21129
2434.07658,0.21224
2432.14783,0.21313
2430.21909,0.21396
2428.29034,0.21463
2426.36160,0.21503
2424.43285,0.21543
2422.50411,0.21602
2420.57536,0.21673
2418.64662,0.21742
2416.71787,0.21788
2414.78912,0.21795
2412.86038,0.21788
2410.93163,0.21787
2409.00289,0.21776
2407.07414,0.21751
2405.14540,0.21729
2403.21665,0.21720
2401.28791,0.21728
2399.35916,0.21757
2397.43042,0.21798
2395.50167,0.21836
2393.57293,0.21859
2391.64418,0.21857
2389.71544,0.21831
2387.78669,0.21810
2385.85795,0.21812
2383.92920,0.21825
2382.00045,0.21862
2380.07171,0.21937
2378.14296,0.22014
2376.21422,0.22065
2374.28547,0.22120
2372.35673,0.22196
2370.42798,0.22269
2368.49924,0.22329
2366.57049,0.22374
2364.64175,0.22392
2362.71300,0.22399
2360.78426,0.22413
2358.85551,0.22411
2356.92677,0.22390
2354.99802,0.22380
2353.06927,0.22383
2351.14053,0.22385
2349.21178,0.22386
2347.28304,0.22369
2345.35429,0.22315
2343.42555,0.22246
2341.49680,0.22193
2339.56806,0.22147
2337.63931,0.22106
2335.71057,0.22096
2333.78182,0.22125
2331.85308,0.22160
2329.92433,0.22167
2327.99559,0.22154
2326.06684,0.22140
2324.13810,0.22132
2322.20935,0.22128
2320.28060,0.22128
2318.35186,0.22142
2316.42311,0.22183
2314.49437,0.22255
2312.56562,0.22346
2310.63688,0.22424
2308.70813,0.22476
2306.77939,0.22531
2304.85064,0.22608
2302.92190,0.22681
2300.99315,0.22739
2299.06441,0.22791
2297.13566,0.22839
2295.20692,0.22872
2293.27817,0.22880
2291.34943,0.22874
2289.42068,0.22891
2287.49193,0.22945
2285.56319,0.23021
2283.63444,0.23103
2281.70570,0.23169
2279.77695,0.23205
2277.84821,0.23220
2275.91946,0.23217
2273.99072,0.23204
2272.06197,0.23203
2270.13323,0.23231
2268.20448,0.23289
2266.27574,0.23376
2264.34699,0.23476
2262.41825,0.23574
2260.48950,0.23679
2258.56075,0.23787
2256.63201,0.23875
2254.70326,0.23947
2252.77452,0.24024
2250.84577,0.24096
2248.91703,0.24140
2246.98828,0.24170
2245.05954,0.24208
2243.13079,0.24257
2241.20205,0.24303
2239.27330,0.24326
2237.34456,0.24314
2235.41581,0.24277
2233.48707,0.24234
2231.55832,0.24179
2229.62958,0.24105
2227.70083,0.24022
2225.77208,0.23935
2223.84334,0.23837
2221.91459,0.23722
2219.98585,0.23603
2218.05710,0.23488
2216.12836,0.23353
2214.19961,0.23200
2212.27087,0.23050
2210.34212,0.22915
2208.41338,0.22803
2206.48463,0.22696
2204.55589,0.22571
2202.62714,0.22435
2200.69840,0.22297
2198.76965,0.22161
2196.84090,0.22032
2194.91216,0.21919
2192.98341,0.21834
2191.05467,0.21800
2189.12592,0.21827
2187.19718,0.21902
2185.26843,0.22004
2183.33969,0.22116
2181.41094,0.22214
2179.48220,0.22299
2177.55345,0.22392
2175.62471,0.22496
2173.69596,0.22600
2171.76722,0.22679
2169.83847,0.22729
2167.90973,0.22780
2165.98098,0.22839
2164.05223,0.22897
2162.12349,0.22958
2160.19474,0.23014
2158.26600,0.23041
2156.33725,0.23044
2154.40851,0.23048
2152.47976,0.23063
2150.55102,0.23078
2148.62227,0.23091
2146.69353,0.23103
2144.76478,0.23108
2142.83604,0.23109
2140.90729,0.23105
2138.97855,0.23078
2137.04980,0.23029
2135.12106,0.22983
2133.19231,0.22943
2131.26356,0.22917
2129.33482,0.22919
2127.40607,0.22932
2125.47733,0.22947
2123.54858,0.22984
2121.61984,0.23056
2119.69109,0.23153
2117.76235,0.23260
2115.83360,0.23373
2113.90486,0.23501
2111.97611,0.23631
2110.04737,0.23744
2108.11862,0.23838
2106.18988,0.23907
2104.26113,0.23940
2102.33238,0.23951
2100.40364,0.23952
2098.47489,0.23927
2096.54615,0.23883
2094.61740,0.23838
2092.68866,0.23783
2090.75991,0.23703
2088.83117,0.23609
2086.90242,0.23528
2084.97368,0.23469
2083.04493,0.23408
2081.11619,0.23333
2079.18744,0.23258
2077.25870,0.23193
2075.32995,0.23123
2073.40121,0.23037
2071.47246,0.22957
2069.54371,0.22917
2067.61497,0.22920
2065.68622,0.22957
2063.75748,0.23031
2061.82873,0.23145
2059.89999,0.23284
2057.97124,0.23429
2056.04250,0.23564
2054.11375,0.23673
2052.18501,0.23744
2050.25626,0.23768
2048.32752,0.23728
2046.39877,0.23625
2044.47003,0.23496
2042.54128,0.23397
2040.61254,0.23350
2038.68379,0.23362
2036.75504,0.23434
2034.82630,0.23542
2032.89755,0.23650
2030.96881,0.23760
2029.04006,0.23877
2027.11132,0.24004
2025.18257,0.24142
2023.25383,0.24274
2021.32508,0.24389
2019.39634,0.24484
2017.46759,0.24565
2015.53885,0.24648
2013.61010,0.24718
2011.68136,0.24763
2009.75261,0.24798
2007.82386,0.24831
2005.89512,0.24870
2003.96637,0.24922
2002.03763,0.24965
2000.10888,0.24985
1998.18014,0.24989
1996.25139,0.24969
1994.32265,0.24913
1992.39390,0.24839
1990.46516,0.24763
1988.53641,0.24683
1986.60767,0.24613
1984.67892,0.24577
1982.75018,0.24568
1980.82143,0.24561
1978.89269,0.24550
1976.96394,0.24551
1975.03519,0.24567
1973.10645,0.24598
1971.17770,0.24652
1969.24896,0.24735
1967.32021,0.24845
1965.39147,0.24957
1963.46272,0.25059
1961.53398,0.25166
1959.60523,0.25265
1957.67649,0.25350
1955.74774,0.25423
1953.81900,0.25469
1951.89025,0.25489
1949.96151,0.25487
1948.03276,0.25462
1946.10402,0.25435
1944.17527,0.25418
1942.24652,0.25397
1940.31778,0.25376
1938.38903,0.25374
1936.46029,0.25397
1934.53154,0.25438
1932.60280,0.25490
1930.67405,0.25534
1928.74531,0.25552
1926.81656,0.25540
1924.88782,0.25512
1922.95907,0.25467
1921.03033,0.25399
1919.10158,0.25294
1917.17284,0.25139
1915.24409,0.24957
1913.31534,0.24778
1911.38660,0.24591
1909.45785,0.24390
1907.52911,0.24186
1905.60036,0.24003
1903.67162,0.23861
1901.74287,0.23778
1899.81413,0.23750
1897.88538,0.23752
1895.95664,0.23771
1894.02789,0.23810
1892.09915,0.23869
1890.17040,0.23932
1888.24166,0.23975
1886.31291,0.24003
1884.38417,0.24041
1882.45542,0.24083
1880.52667,0.24110
1878.59793,0.24128
1876.66918,0.24149
1874.74044,0.24169
1872.81169,0.24191
1870.88295,0.24216
1868.95420,0.24224
1867.02546,0.24211
1865.09671,0.24191
1863.16797,0.24158
1861.23922,0.24109
1859.31048,0.24052
1857.38173,0.23979
1855.45299,0.23887
1853.52424,0.23770
1851.59549,0.23627
1849.66675,0.23475
1847.73800,0.23315
1845.80926,0.23127
1843.88051,0.22913
1841.95177,0.22713
1840.02302,0.22544
1838.09428,0.22391
1836.16553,0.22258
1834.23679,0.22154
1832.30804,0.22068
1830.37930,0.21958
1828.45055,0.21821
1826.52181,0.21692
1824.59306,0.21564
1822.66432,0.21428
1820.73557,0.21290
1818.80682,0.21140
1816.87808,0.20973
1814.94933,0.20796
1813.02059,0.20618
1811.09184,0.20431
1809.16310,0.20237
1807.23435,0.20030
1805.30561,0.19800
1803.37686,0.19562
1801.44812,0.19309
1799.51937,0.19038
1797.59063,0.18781
1795.66188,0.18553
1793.73314,0.18325
1791.80439,0.18069
1789.87565,0.17810
1787.94690,0.17568
1786.01815,0.17319
1784.08941,0.17043
1782.16066,0.16754
1780.23192,0.16461
1778.30317,0.16157
1776.37443,0.15846
1774.44568,0.15511
1772.51694,0.15109
1770.58819,0.14669
1768.65945,0.14236
1766.73070,0.13792
1764.80196,0.13343
1762.87321,0.12854
1760.94447,0.12319
1759.01572,0.11808
1757.08697,0.11296
1755.15823,0.10782
1753.22948,0.10289
1751.30074,0.09745
1749.37199,0.09152
1747.44325,0.08607
1745.51450,0.08128
1743.58576,0.07693
1741.65701,0.07307
1739.72827,0.06988
1737.79952,0.06770
1735.87078,0.06632
1733.94203,0.06525
1732.01329,0.06448
1730.08454,0.06403
1728.15580,0.06376
1726.22705,0.06355
1724.29830,0.06323
1722.36956,0.06282
1720.44081,0.06245
1718.51207,0.06186
1716.58332,0.06072
1714.65458,0.05937
1712.72583,0.05811
1710.79709,0.05679
1708.86834,0.05532
1706.93960,0.05350
1705.01085,0.05124
1703.08211,0.04898
1701.15336,0.04641
1699.22462,0.04312
1697.29587,0.03988
1695.36713,0.03656
1693.43838,0.03348
1691.50963,0.03081
1689.58089,0.02796
1687.65214,0.02523
1685.72340,0.02268
1683.79465,0.02007
1681.86591,0.01840
1679.93716,0.01777
1678.00842,0.01737
1676.07967,0.01691
1674.15093,0.01651
1672.22218,0.01617
1670.29344,0.01580
1668.36469,0.01566
1666.43595,0.01603
1664.50720,0.01652
1662.57845,0.01686
1660.64971,0.01719
1658.72096,0.01762
1656.79222,0.01821
1654.86347,0.01907
1652.93473,0.02048
1651.00598,0.02211
1649.07724,0.02364
1647.14849,0.02546
1645.21975,0.02767
1643.29100,0.02989
1641.36226,0.03183
1639.43351,0.03318
1637.50477,0.03357
1635.57602,0.03283
1633.64728,0.03156
1631.71853,0.03045
1629.78978,0.02946
1627.86104,0.02858
1625.93229,0.02794
1624.00355,0.02745
1622.07480,0.02699
1620.14606,0.02678
1618.21731,0.02676
1616.28857,0.02646
1614.35982,0.02592
1612.43108,0.02557
1610.50233,0.02553
1608.57359,0.02563
1606.64484,0.02562
1604.71610,0.02551
1602.78735,0.02537
1600.85861,0.02518
1598.92986,0.02502
1597.00111,0.02481
1595.07237,0.02436
1593.14362,0.02378
1591.21488,0.02329
1589.28613,0.02281
1587.35739,0.02227
1585.42864,0.02172
1583.49990,0.02122
1581.57115,0.02083
1579.64241,0.02052
1577.71366,0.02013
1575.78492,0.01967
1573.85617,0.01953
1571.92743,0.01967
1569.99868,0.01976
1568.06993,0.01980
1566.14119,0.01993
1564.21244,0.02012
1562.28370,0.02037
1560.35495,0.02069
1558.42621,0.02091
1556.49746,0.02104
1554.56872,0.02156
1552.63997,0.02258
1550.71123,0.02394
1548.78248,0.02551
1546.85374,0.02716
1544.92499,0.02876
1542.99625,0.03014
1541.06750,0.03124
1539.13876,0.03198
1537.21001,0.03222
1535.28126,0.03203
1533.35252,0.03153
1531.42377,0.03106
1529.49503,0.03075
1527.56628,0.03045
1525.63754,0.03012
1523.70879,0.02988
1521.78005,0.02976
1519.85130,0.02961
1517.92256,0.02935
1515.99381,0.02907
1514.06507,0.02892
1512.13632,0.02895
1510.20758,0.02912
1508.27883,0.02934
1506.35008,0.02955
1504.42134,0.02985
1502.49259,0.03021
1500.56385,0.03048
1498.63510,0.03061
1496.70636,0.03059
1494.77761,0.03056
1492.84887,0.03061
1490.92012,0.03059
1488.99138,0.03029
1487.06263,0.02954
1485.13389,0.02849
1483.20514,0.02746
1481.27640,0.02662
1479.34765,0.02608
1477.41891,0.02594
1475.49016,0.02607
1473.56141,0.02618
1471.63267,0.02606
1469.70392,0.02577
1467.77518,0.02549
1465.84643,0.02528
1463.91769,0.02526
1461.98894,0.02560
1460.06020,0.02614
1458.13145,0.02640
1456.20271,0.02621
1454.27396,0.02598
1452.34522,0.02594
1450.41647,0.02613
1448.48773,0.02638
1446.55898,0.02637
1444.63024,0.02618
1442.70149,0.02608
1440.77274,0.02609
1438.84400,0.02614
1436.91525,0.02628
1434.98651,0.02654
1433.05776,0.02680
1431.12902,0.02698
1429.20027,0.02713
1427.27153,0.02721
1425.34278,0.02726
1423.41404,0.02736
1421.48529,0.02745
1419.55655,0.02742
1417.62780,0.02752
1415.69906,0.02802
1413.77031,0.02875
1411.84156,0.02949
1409.91282,0.03026
1407.98407,0.03109
1406.05533,0.03166
1404.12658,0.03171
1402.19784,0.03144
1400.26909,0.03106
1398.34035,0.03052
1396.41160,0.02979
1394.48286,0.02902
1392.55411,0.02846
1390.62537,0.02801
1388.69662,0.02735
1386.76788,0.02650
1384.83913,0.02581
1382.91039,0.02532
1380.98164,0.02490
1379.05289,0.02469
1377.12415,0.02485
1375.19540,0.02512
1373.26666,0.02520
1371.33791,0.02531
1369.40917,0.02562
1367.48042,0.02590
1365.55168,0.02600
1363.62293,0.02602
1361.69419,0.02619
1359.76544,0.02658
1357.83670,0.02706
1355.90795,0.02749
1353.97921,0.02777
1352.05046,0.02790
1350.12172,0.02793
1348.19297,0.02795
1346.26422,0.02812
1344.33548,0.02855
1342.40673,0.02900
1340.47799,0.02915
1338.54924,0.02908
1336.62050,0.02908
1334.69175,0.02934
1332.76301,0.02964
1330.83426,0.02969
1328.90552,0.02962
1326.97677,0.02964
1325.04803,0.02960
1323.11928,0.02933
1321.19054,0.02892
1319.26179,0.02851
1317.33304,0.02814
1315.40430,0.02776
1313.47555,0.02736
1311.54681,0.02703
1309.61806,0.02672
1307.68932,0.02634
1305.76057,0.02603
1303.83183,0.02595
1301.90308,0.02607
1299.97434,0.02623
1298.04559,0.02635
1296.11685,0.02644
1294.18810,0.02657
1292.25936,0.02669
1290.33061,0.02669
1288.40187,0.02653
1286.47312,0.02628
1284.54437,0.02592
1282.61563,0.02547
1280.68688,0.02507
1278.75814,0.02468
1276.82939,0.02439
1274.90065,0.02444
1272.97190,0.02463
1271.04316,0.02475
1269.11441,0.02500
1267.18567,0.02547
1265.25692,0.02613
1263.32818,0.02681
1261.39943,0.02725
1259.47069,0.02742
1257.54194,0.02747
1255.61320,0.02756
1253.68445,0.02780
1251.75570,0.02814
1249.82696,0.02831
1247.89821,0.02821
1245.96947,0.02804
1244.04072,0.02798
1242.11198,0.02799
1240.18323,0.02797
1238.25449,0.02795
1236.32574,0.02805
1234.39700,0.02846
1232.46825,0.02930
1230.53951,0.03043
1228.61076,0.03157
1226.68202,0.03257
1224.75327,0.03312
1222.82452,0.03283
1220.89578,0.03166
1218.96703,0.03016
1217.03829,0.02901
1215.10954,0.02838
1213.18080,0.02809
1211.25205,0.02809
1209.32331,0.02824
1207.39456,0.02840
1205.46582,0.02847
1203.53707,0.02857
1201.60833,0.02911
1199.67958,0.03015
1197.75084,0.03124
1195.82209,0.03214
1193.89335,0.03304
1191.96460,0.03412
1190.03585,0.03531
1188.10711,0.03641
1186.17836,0.03700
1184.24962,0.03689
1182.32087,0.03625
1180.39213,0.03505
1178.46338,0.03313
1176.53464,0.03083
1174.60589,0.02898
1172.67715,0.02810
1170.74840,0.02800
1168.81966,0.02853
1166.89091,0.02988
1164.96217,0.03221
1163.03342,0.03526
1161.10467,0.03869
1159.17593,0.04244
1157.24718,0.04624
1155.31844,0.04987
1153.38969,0.05343
1151.46095,0.05699
1149.53220,0.06045
1147.60346,0.06350
1145.67471,0.06599
1143.74597,0.06820
1141.81722,0.07042
1139.88848,0.07208
1137.95973,0.07244
1136.03099,0.07126
1134.10224,0.06842
1132.17350,0.06379
1130.24475,0.05782
1128.31600,0.05179
1126.38726,0.04689
1124.45851,0.04350
1122.52977,0.04171
1120.60102,0.04159
1118.67228,0.04281
1116.74353,0.04490
1114.81479,0.04750
1112.88604,0.05016
1110.95730,0.05268
1109.02855,0.05539
1107.09981,0.05845
1105.17106,0.06183
1103.24232,0.06526
1101.31357,0.06812
1099.38483,0.06999
1097.45608,0.07099
1095.52733,0.07142
1093.59859,0.07144
1091.66984,0.07083
1089.74110,0.06940
1087.81235,0.06729
1085.88361,0.06510
1083.95486,0.06325
1082.02612,0.06160
1080.09737,0.06032
1078.16863,0.05977
1076.23988,0.06005
1074.31114,0.06118
1072.38239,0.06291
1070.45365,0.06485
1068.52490,0.06698
1066.59615,0.06930
1064.66741,0.07158
1062.73866,0.07383
1060.80992,0.07613
1058.88117,0.07847
1056.95243,0.08063
1055.02368,0.08225
1053.09494,0.08307
1051.16619,0.08293
1049.23745,0.08157
1047.30870,0.07922
1045.37996,0.07691
1043.45121,0.07541
1041.52247,0.07432
1039.59372,0.07327
1037.66498,0.07271
1035.73623,0.07278
1033.80748,0.07255
1031.87874,0.07165
1029.94999,0.07180
1028.02125,0.07445
1026.09250,0.07893
1024.16376,0.08394
1022.23501,0.08860
1020.30627,0.09230
1018.37752,0.09472
1016.44878,0.09613
1014.52003,0.09697
1012.59129,0.09732
1010.66254,0.09709
1008.73380,0.09635
1006.80505,0.09505
1004.87631,0.09308
1002.94756,0.09082
1001.01881,0.08923
999.09007,0.08888
997.16132,0.08922
995.23258,0.08908
993.30383,0.08790
991.37509,0.08606
989.44634,0.08403
987.51760,0.08186
985.58885,0.07959
983.66011,0.07731
981.73136,0.07497
979.80262,0.07255
977.87387,0.07016
975.94513,0.06835
974.01638,0.06797
972.08763,0.06944
970.15889,0.07213
968.23014,0.07459
966.30140,0.07543
964.37265,0.07413
962.44391,0.07156
960.51516,0.07007
958.58642,0.07171
956.65767,0.07577
954.72893,0.07935
952.80018,0.08120
950.87144,0.08343
948.94269,0.08788
947.01395,0.09345
945.08520,0.09811
943.15646,0.10084
941.22771,0.10121
939.29896,0.09902
937.37022,0.09435
935.44147,0.08778
933.51273,0.08039
931.58398,0.07384
929.65524,0.07009
927.72649,0.07043
925.79775,0.07465
923.86900,0.08131
921.94026,0.08857
920.01151,0.09482
918.08277,0.09959
916.15402,0.10331
914.22528,0.10648
912.29653,0.10955
910.36779,0.11285
908.43904,0.11612
906.51029,0.11901
904.58155,0.12162
902.65280,0.12393
900.72406,0.12540
898.79531,0.12574
896.86657,0.12536
894.93782,0.12474
893.00908,0.12442
891.08033,0.12476
889.15159,0.12556
887.22284,0.12644
885.29410,0.12719
883.36535,0.12768
881.43661,0.12801
879.50786,0.12839
877.57911,0.12870
875.65037,0.12866
873.72162,0.12840
871.79288,0.12824
869.86413,0.12813
867.93539,0.12797
866.00664,0.12778
864.07790,0.12741
862.14915,0.12671
860.22041,0.12577
858.29166,0.12473
856.36292,0.12363
854.43417,0.12243
852.50543,0.12103
850.57668,0.11920
848.64794,0.11699
846.71919,0.11465
844.79044,0.11220
842.86170,0.10947
840.93295,0.10613
839.00421,0.10174
837.07546,0.09663
835.14672,0.09272
833.21797,0.09222
831.28923,0.09520
829.36048,0.09931
827.43174,0.10182
825.50299,0.10210
823.57425,0.10155
821.64550,0.10112
819.71676,0.10040
817.78801,0.09908
815.85926,0.09732
813.93052,0.09512
812.00177,0.09275
810.07303,0.09055
808.14428,0.08819
806.21554,0.08538
804.28679,0.08256
802.35805,0.07995
800.42930,0.07743
798.50056,0.07505
796.57181,0.07279
794.64307,0.07052
792.71432,0.06821
790.78558,0.06571
788.85683,0.06303
786.92809,0.06046
784.99934,0.05814
783.07059,0.05622
781.14185,0.05475
779.21310,0.05362
777.28436,0.05288
775.35561,0.05227
773.42687,0.05133
771.49812,0.05004
769.56938,0.04860
767.64063,0.04718
765.71189,0.04605
763.78314,0.04504
761.85440,0.04365
759.92565,0.04188
757.99691,0.04002
756.06816,0.03838
754.13942,0.03724
752.21067,0.03644
750.28192,0.03559
748.35318,0.03477
746.42443,0.03405
744.49569,0.03329
742.56694,0.03273
740.63820,0.03235
738.70945,0.03157
736.78071,0.03046
734.85196,0.02928
732.92322,0.02811
730.99447,0.02742
729.06573,0.02745
727.13698,0.02772
725.20824,0.02767
723.27949,0.02747
721.35074,0.02747
719.42200,0.02732
717.49325,0.02697
715.56451,0.02682
713.63576,0.02671
711.70702,0.02635
709.77827,0.02610
707.84953,0.02635
705.92078,0.02672
703.99204,0.02683
702.06329,0.02698
700.13455,0.02740
698.20580,0.02762
696.27706,0.02752
694.34831,0.02773
692.41957,0.02826
690.49082,0.02841
688.56207,0.02812
686.63333,0.02834
684.70458,0.02941
682.77584,0.03049
680.84709,0.03105
678.91835,0.03150
676.98960,0.03247
675.06086,0.03378
673.13211,0.03460
671.20337,0.03488
669.27462,0.03550
667.34588,0.03726
665.41713,0.03941
663.48839,0.04101
661.55964,0.04211
659.63090,0.04327
657.70215,0.04447
655.77340,0.04520
653.84466,0.04621
651.91591,0.04821
649.98717,0.04973
648.05842,0.04947
646.12968,0.04848
644.20093,0.04782
642.27219,0.04775
640.34344,0.04800
638.41470,0.04763
636.48595,0.04680
634.55721,0.04633
632.62846,0.04617
630.69972,0.04596
628.77097,0.04548
626.84222,0.04477
624.91348,0.04421
622.98473,0.04410
621.05599,0.04458
619.12724,0.04536
617.19850,0.04557
615.26975,0.04556
613.34101,0.04649
611.41226,0.04792
609.48352,0.04837
607.55477,0.04728
605.62603,0.04590
603.69728,0.04573
601.76854,0.04603
599.83979,0.04501
