7497.03301,0.71852
7495.10426,0.71268
7493.17552,0.71710
7491.24677,0.72474
7489.31803,0.72916
7487.38928,0.73124
7485.46054,0.73028
7483.53179,0.72609
7481.60305,0.72247
7479.67430,0.72182
7477.74556,0.72213
7475.81681,0.72010
7473.88807,0.71645
7471.95932,0.71602
7470.03057,0.71837
7468.10183,0.71876
7466.17308,0.72055
7464.24434,0.72488
7462.31559,0.72506
7460.38685,0.72158
7458.45810,0.71816
7456.52936,0.71782
7454.60061,0.72057
7452.67187,0.71861
7450.74312,0.71248
7448.81438,0.71146
7446.88563,0.71660
7444.95689,0.72178
7443.02814,0.72283
7441.09940,0.72100
7439.17065,0.71796
7437.24190,0.71346
7435.31316,0.70997
7433.38441,0.71098
7431.45567,0.71542
7429.52692,0.71865
7427.59818,0.71982
7425.66943,0.72256
7423.74069,0.72863
7421.81194,0.73475
7419.88320,0.73462
7417.95445,0.72814
7416.02571,0.72215
7414.09696,0.71889
7412.16822,0.71737
7410.23947,0.71934
7408.31073,0.72203
7406.38198,0.71814
7404.45323,0.71156
7402.52449,0.71115
7400.59574,0.71280
7398.66700,0.71191
7396.73825,0.71277
7394.80951,0.71511
7392.88076,0.71581
7390.95202,0.71745
7389.02327,0.71990
7387.09453,0.71881
7385.16578,0.71613
7383.23704,0.71483
7381.30829,0.71344
7379.37955,0.71534
7377.45080,0.72038
7375.52205,0.71927
7373.59331,0.71239
7371.66456,0.70767
7369.73582,0.70595
7367.80707,0.70579
7365.87833,0.70889
7363.94958,0.71416
7362.02084,0.71599
7360.09209,0.71434
7358.16335,0.71429
7356.23460,0.71416
7354.30586,0.71061
7352.37711,0.70744
7350.44837,0.70687
7348.51962,0.70590
7346.59088,0.70482
7344.66213,0.70637
7342.73338,0.70887
7340.80464,0.70920
7338.87589,0.70788
7336.94715,0.70770
7335.01840,0.70896
7333.08966,0.70691
7331.16091,0.69814
7329.23217,0.68732
7327.30342,0.67996
7325.37468,0.67619
7323.44593,0.67575
7321.51719,0.67975
7319.58844,0.68639
7317.65970,0.69035
7315.73095,0.69067
7313.80221,0.69115
7311.87346,0.69024
7309.94471,0.68475
7308.01597,0.67658
7306.08722,0.66986
7304.15848,0.66726
7302.22973,0.66937
7300.30099,0.67629
7298.37224,0.68288
7296.44350,0.68290
7294.51475,0.67799
7292.58601,0.67041
7290.65726,0.66178
7288.72852,0.65805
7286.79977,0.66145
7284.87103,0.66577
7282.94228,0.66624
7281.01353,0.66406
7279.08479,0.66130
7277.15604,0.65993
7275.22730,0.66023
7273.29855,0.65882
7271.36981,0.65459
7269.44106,0.65044
7267.51232,0.64914
7265.58357,0.65072
7263.65483,0.65212
7261.72608,0.65153
7259.79734,0.64946
7257.86859,0.64571
7255.93985,0.64140
7254.01110,0.63754
7252.08236,0.63363
7250.15361,0.62941
7248.22486,0.62575
7246.29612,0.62529
7244.36737,0.62759
7242.43863,0.63057
7240.50988,0.63417
7238.58114,0.63489
7236.65239,0.62987
7234.72365,0.62316
7232.79490,0.61999
7230.86616,0.62225
7228.93741,0.62646
7227.00867,0.62622
7225.07992,0.62186
7223.15118,0.61935
7221.22243,0.61971
7219.29369,0.62084
7217.36494,0.62202
7215.43619,0.62309
7213.50745,0.62410
7211.57870,0.62409
7209.64996,0.62421
7207.72121,0.62725
7205.79247,0.62926
7203.86372,0.62535
7201.93498,0.62116
7200.00623,0.62342
7198.07749,0.62895
7196.14874,0.63070
7194.22000,0.62680
7192.29125,0.62227
7190.36251,0.62204
7188.43376,0.62396
7186.50501,0.62247
7184.57627,0.61798
7182.64752,0.61714
7180.71878,0.62226
7178.79003,0.62717
7176.86129,0.62741
7174.93254,0.62646
7173.00380,0.62757
7171.07505,0.62805
7169.14631,0.62581
7167.21756,0.62311
7165.28882,0.62103
7163.36007,0.61792
7161.43133,0.61567
7159.50258,0.61852
7157.57384,0.62344
7155.64509,0.62344
7153.71634,0.61939
7151.78760,0.61901
7149.85885,0.62455
7147.93011,0.63017
7146.00136,0.63207
7144.07262,0.63055
7142.14387,0.62649
7140.21513,0.62132
7138.28638,0.61546
7136.35764,0.61136
7134.42889,0.61306
7132.50015,0.62037
7130.57140,0.62734
7128.64266,0.62685
7126.71391,0.62059
7124.78516,0.61652
7122.85642,0.61531
7120.92767,0.61458
7118.99893,0.61590
7117.07018,0.61860
7115.14144,0.62089
7113.21269,0.62322
7111.28395,0.62486
7109.35520,0.62453
7107.42646,0.62217
7105.49771,0.61906
7103.56897,0.61782
7101.64022,0.61986
7099.71148,0.62302
7097.78273,0.62381
7095.85399,0.62196
7093.92524,0.61872
7091.99649,0.61458
7090.06775,0.61191
7088.13900,0.61138
7086.21026,0.61080
7084.28151,0.60995
7082.35277,0.60884
7080.42402,0.60736
7078.49528,0.60841
7076.56653,0.61262
7074.63779,0.61569
7072.70904,0.61568
7070.78030,0.61508
7068.85155,0.61570
7066.92281,0.61728
7064.99406,0.61882
7063.06532,0.61859
7061.13657,0.61707
7059.20782,0.61742
7057.27908,0.61955
7055.35033,0.61988
7053.42159,0.61790
7051.49284,0.61654
7049.56410,0.61805
7047.63535,0.62171
7045.70661,0.62251
7043.77786,0.61986
7041.84912,0.62083
7039.92037,0.62568
7037.99163,0.62865
7036.06288,0.62890
7034.13414,0.62791
7032.20539,0.62586
7030.27664,0.62374
7028.34790,0.62350
7026.41915,0.62431
7024.49041,0.62279
7022.56166,0.61936
7020.63292,0.61829
7018.70417,0.62084
7016.77543,0.62320
7014.84668,0.62283
7012.91794,0.62121
7010.98919,0.61988
7009.06045,0.62020
7007.13170,0.62192
7005.20296,0.62267
7003.27421,0.62250
7001.34547,0.62191
6999.41672,0.62092
6997.48797,0.62161
6995.55923,0.62305
6993.63048,0.62237
6991.70174,0.62168
6989.77299,0.62350
6987.84425,0.62547
6985.91550,0.62586
6983.98676,0.62543
6982.05801,0.62421
6980.12927,0.62389
6978.20052,0.62540
6976.27178,0.62627
6974.34303,0.62603
6972.41429,0.62749
6970.48554,0.63199
6968.55680,0.63559
6966.62805,0.63496
6964.69930,0.63250
6962.77056,0.63045
6960.84181,0.62988
6958.91307,0.63036
6956.98432,0.62995
6955.05558,0.62921
6953.12683,0.62986
6951.19809,0.63208
6949.26934,0.63425
6947.34060,0.63441
6945.41185,0.63257
6943.48311,0.63070
6941.55436,0.63131
6939.62562,0.63367
6937.69687,0.63459
6935.76812,0.63438
6933.83938,0.63524
6931.91063,0.63609
6929.98189,0.63571
6928.05314,0.63652
6926.12440,0.63934
6924.19565,0.64005
6922.26691,0.63869
6920.33816,0.64127
6918.40942,0.64649
6916.48067,0.64747
6914.55193,0.64398
6912.62318,0.64044
6910.69444,0.63972
6908.76569,0.64114
6906.83695,0.64254
6904.90820,0.64368
6902.97945,0.64508
6901.05071,0.64694
6899.12196,0.64825
6897.19322,0.64670
6895.26447,0.64387
6893.33573,0.64418
6891.40698,0.64727
6889.47824,0.64886
6887.54949,0.64707
6885.62075,0.64431
6883.69200,0.64396
6881.76326,0.64606
6879.83451,0.64726
6877.90577,0.64652
6875.97702,0.64653
6874.04828,0.64678
6872.11953,0.64599
6870.19078,0.64668
6868.26204,0.64841
6866.33329,0.64807
6864.40455,0.64618
6862.47580,0.64563
6860.54706,0.64689
6858.61831,0.64721
6856.68957,0.64471
6854.76082,0.64173
6852.83208,0.64201
6850.90333,0.64522
6848.97459,0.64909
6847.04584,0.65165
6845.11710,0.65110
6843.18835,0.64887
6841.25960,0.64726
6839.33086,0.64824
6837.40211,0.65225
6835.47337,0.65513
6833.54462,0.65436
6831.61588,0.65264
6829.68713,0.65189
6827.75839,0.65232
6825.82964,0.65530
6823.90090,0.65831
6821.97215,0.65585
6820.04341,0.65065
6818.11466,0.64913
6816.18592,0.65141
6814.25717,0.65377
6812.32843,0.65280
6810.39968,0.64934
6808.47093,0.64774
6806.54219,0.64876
6804.61344,0.64995
6802.68470,0.64954
6800.75595,0.64751
6798.82721,0.64667
6796.89846,0.64755
6794.96972,0.64702
6793.04097,0.64524
6791.11223,0.64416
6789.18348,0.64305
6787.25474,0.64129
6785.32599,0.63988
6783.39725,0.63864
6781.46850,0.63716
6779.53975,0.63658
6777.61101,0.63729
6775.68226,0.63702
6773.75352,0.63376
6771.82477,0.63038
6769.89603,0.63076
6767.96728,0.63209
6766.03854,0.63039
6764.10979,0.62769
6762.18105,0.62647
6760.25230,0.62529
6758.32356,0.62290
6756.39481,0.62187
6754.46607,0.62357
6752.53732,0.62439
6750.60858,0.62263
6748.67983,0.62174
6746.75108,0.62296
6744.82234,0.62334
6742.89359,0.62244
6740.96485,0.62250
6739.03610,0.62394
6737.10736,0.62617
6735.17861,0.62774
6733.24987,0.62638
6731.32112,0.62286
6729.39238,0.61981
6727.46363,0.61842
6725.53489,0.61833
6723.60614,0.61807
6721.67740,0.61710
6719.74865,0.61688
6717.81991,0.61916
6715.89116,0.62202
6713.96241,0.62158
6712.03367,0.61985
6710.10492,0.61990
6708.17618,0.61960
6706.24743,0.61808
6704.31869,0.61691
6702.38994,0.61549
6700.46120,0.61302
6698.53245,0.61091
6696.60371,0.61054
6694.67496,0.61221
6692.74622,0.61459
6690.81747,0.61456
6688.88873,0.61126
6686.95998,0.60787
6685.03123,0.60734
6683.10249,0.60922
6681.17374,0.61134
6679.24500,0.61217
6677.31625,0.61109
6675.38751,0.60924
6673.45876,0.60845
6671.53002,0.60830
6669.60127,0.60695
6667.67253,0.60368
6665.74378,0.60071
6663.81504,0.60056
6661.88629,0.60039
6659.95755,0.59684
6658.02880,0.59372
6656.10006,0.59492
6654.17131,0.59818
6652.24256,0.59907
6650.31382,0.59629
6648.38507,0.59315
6646.45633,0.59235
6644.52758,0.59210
6642.59884,0.58938
6640.67009,0.58491
6638.74135,0.58114
6636.81260,0.57815
6634.88386,0.57700
6632.95511,0.57819
6631.02637,0.57816
6629.09762,0.57418
6627.16888,0.56813
6625.24013,0.56458
6623.31139,0.56541
6621.38264,0.56807
6619.45389,0.56925
6617.52515,0.56811
6615.59640,0.56658
6613.66766,0.56561
6611.73891,0.56424
6609.81017,0.56285
6607.88142,0.56304
6605.95268,0.56501
6604.02393,0.56583
6602.09519,0.56368
6600.16644,0.56127
6598.23770,0.56138
6596.30895,0.56309
6594.38021,0.56358
6592.45146,0.56191
6590.52271,0.55930
6588.59397,0.55730
6586.66522,0.55764
6584.73648,0.56079
6582.80773,0.56407
6580.87899,0.56461
6578.95024,0.56350
6577.02150,0.56234
6575.09275,0.56090
6573.16401,0.56039
6571.23526,0.56046
6569.30652,0.55887
6567.37777,0.55678
6565.44903,0.55575
6563.52028,0.55523
6561.59154,0.55558
6559.66279,0.55662
6557.73404,0.55637
6555.80530,0.55558
6553.87655,0.55646
6551.94781,0.55629
6550.01906,0.55224
6548.09032,0.54732
6546.16157,0.54418
6544.23283,0.54225
6542.30408,0.54202
6540.37534,0.54311
6538.44659,0.54226
6536.51785,0.53889
6534.58910,0.53666
6532.66036,0.53718
6530.73161,0.53793
6528.80287,0.53678
6526.87412,0.53471
6524.94537,0.53314
6523.01663,0.53206
6521.08788,0.53172
6519.15914,0.53288
6517.23039,0.53387
6515.30165,0.53248
6513.37290,0.53033
6511.44416,0.52961
6509.51541,0.52881
6507.58667,0.52652
6505.65792,0.52490
6503.72918,0.52580
6501.80043,0.52736
6499.87169,0.52825
6497.94294,0.52950
6496.01419,0.53021
6494.08545,0.52884
6492.15670,0.52766
6490.22796,0.52902
6488.29921,0.53130
6486.37047,0.53267
6484.44172,0.53385
6482.51298,0.53617
6480.58423,0.53870
6478.65549,0.53949
6476.72674,0.53985
6474.79800,0.54182
6472.86925,0.54384
6470.94051,0.54415
6469.01176,0.54488
6467.08302,0.54851
6465.15427,0.55399
6463.22552,0.55907
6461.29678,0.56227
6459.36803,0.56386
6457.43929,0.56561
6455.51054,0.56855
6453.58180,0.57233
6451.65305,0.57617
6449.72431,0.57999
6447.79556,0.58380
6445.86682,0.58669
6443.93807,0.58843
6442.00933,0.58974
6440.08058,0.59152
6438.15184,0.59424
6436.22309,0.59671
6434.29434,0.59764
6432.36560,0.59766
6430.43685,0.59760
6428.50811,0.59740
6426.57936,0.59668
6424.65062,0.59522
6422.72187,0.59397
6420.79313,0.59400
6418.86438,0.59464
6416.93564,0.59430
6415.00689,0.59252
6413.07815,0.58986
6411.14940,0.58748
6409.22066,0.58730
6407.29191,0.58959
6405.36317,0.59124
6403.43442,0.59003
6401.50567,0.58741
6399.57693,0.58560
6397.64818,0.58415
6395.71944,0.58156
6393.79069,0.57875
6391.86195,0.57807
6389.93320,0.58013
6388.00446,0.58219
6386.07571,0.58095
6384.14697,0.57767
6382.21822,0.57530
6380.28948,0.57386
6378.36073,0.57207
6376.43199,0.56948
6374.50324,0.56695
6372.57450,0.56458
6370.64575,0.56201
6368.71700,0.56050
6366.78826,0.56029
6364.85951,0.55965
6362.93077,0.55829
6361.00202,0.55876
6359.07328,0.56187
6357.14453,0.56346
6355.21579,0.56117
6353.28704,0.55824
6351.35830,0.55740
6349.42955,0.55775
6347.50081,0.55807
6345.57206,0.55854
6343.64332,0.55958
6341.71457,0.56031
6339.78582,0.55938
6337.85708,0.55791
6335.92833,0.55806
6333.99959,0.56014
6332.07084,0.56249
6330.14210,0.56335
6328.21335,0.56332
6326.28461,0.56437
6324.35586,0.56712
6322.42712,0.57000
6320.49837,0.57154
6318.56963,0.57285
6316.64088,0.57454
6314.71214,0.57589
6312.78339,0.57712
6310.85465,0.57874
6308.92590,0.58120
6306.99715,0.58408
6305.06841,0.58532
6303.13966,0.58434
6301.21092,0.58319
6299.28217,0.58357
6297.35343,0.58503
6295.42468,0.58591
6293.49594,0.58544
6291.56719,0.58385
6289.63845,0.58206
6287.70970,0.58124
6285.78096,0.58091
6283.85221,0.58009
6281.92347,0.57964
6279.99472,0.58007
6278.06598,0.57972
6276.13723,0.57871
6274.20848,0.57897
6272.27974,0.57914
6270.35099,0.57731
6268.42225,0.57485
6266.49350,0.57370
6264.56476,0.57399
6262.63601,0.57463
6260.70727,0.57537
6258.77852,0.57664
6256.84978,0.57754
6254.92103,0.57616
6252.99229,0.57251
6251.06354,0.56949
6249.13480,0.56872
6247.20605,0.56874
6245.27730,0.56878
6243.34856,0.56984
6241.41981,0.57073
6239.49107,0.57002
6237.56232,0.56964
6235.63358,0.57073
6233.70483,0.57184
6231.77609,0.57190
6229.84734,0.57149
6227.91860,0.57166
6225.98985,0.57283
6224.06111,0.57441
6222.13236,0.57527
6220.20362,0.57599
6218.27487,0.57726
6216.34613,0.57816
6214.41738,0.57886
6212.48863,0.57995
6210.55989,0.58141
6208.63114,0.58342
6206.70240,0.58500
6204.77365,0.58470
6202.84491,0.58353
6200.91616,0.58357
6198.98742,0.58487
6197.05867,0.58667
6195.12993,0.58936
6193.20118,0.59148
6191.27244,0.58999
6189.34369,0.58724
6187.41495,0.58808
6185.48620,0.59122
6183.55746,0.59352
6181.62871,0.59553
6179.69996,0.59729
6177.77122,0.59777
6175.84247,0.59789
6173.91373,0.59811
6171.98498,0.59807
6170.05624,0.59898
6168.12749,0.60223
6166.19875,0.60743
6164.27000,0.61202
6162.34126,0.61442
6160.41251,0.61647
6158.48377,0.61859
6156.55502,0.61843
6154.62628,0.61659
6152.69753,0.61614
6150.76878,0.61817
6148.84004,0.62152
6146.91129,0.62413
6144.98255,0.62511
6143.05380,0.62575
6141.12506,0.62662
6139.19631,0.62698
6137.26757,0.62693
6135.33882,0.62758
6133.41008,0.62943
6131.48133,0.63105
6129.55259,0.63202
6127.62384,0.63357
6125.69510,0.63475
6123.76635,0.63464
6121.83761,0.63478
6119.90886,0.63541
6117.98011,0.63584
6116.05137,0.63620
6114.12262,0.63652
6112.19388,0.63742
6110.26513,0.63924
6108.33639,0.64067
6106.40764,0.64066
6104.47890,0.63960
6102.55015,0.63865
6100.62141,0.63868
6098.69266,0.63983
6096.76392,0.64083
6094.83517,0.63998
6092.90643,0.63827
6090.97768,0.63802
6089.04893,0.63857
6087.12019,0.63835
6085.19144,0.63862
6083.26270,0.64006
6081.33395,0.64109
6079.40521,0.64096
6077.47646,0.64002
6075.54772,0.63917
6073.61897,0.63870
6071.69023,0.63760
6069.76148,0.63596
6067.83274,0.63537
6065.90399,0.63621
6063.97525,0.63732
6062.04650,0.63760
6060.11776,0.63642
6058.18901,0.63439
6056.26026,0.63317
6054.33152,0.63318
6052.40277,0.63372
6050.47403,0.63385
6048.54528,0.63318
6046.61654,0.63255
6044.68779,0.63228
6042.75905,0.63184
6040.83030,0.63178
6038.90156,0.63214
6036.97281,0.63187
6035.04407,0.63149
6033.11532,0.63131
6031.18658,0.63053
6029.25783,0.62926
6027.32909,0.62755
6025.40034,0.62597
6023.47159,0.62569
6021.54285,0.62532
6019.61410,0.62317
6017.68536,0.62157
6015.75661,0.62290
6013.82787,0.62529
6011.89912,0.62622
6009.97038,0.62582
6008.04163,0.62511
6006.11289,0.62416
6004.18414,0.62259
6002.25540,0.62059
6000.32665,0.61898
5998.39791,0.61870
5996.46916,0.61896
5994.54041,0.61786
5992.61167,0.61596
5990.68292,0.61582
5988.75418,0.61691
5986.82543,0.61576
5984.89669,0.61330
5982.96794,0.61310
5981.03920,0.61379
5979.11045,0.61336
5977.18171,0.61240
5975.25296,0.61062
5973.32422,0.60801
5971.39547,0.60610
5969.46673,0.60571
5967.53798,0.60561
5965.60924,0.60394
5963.68049,0.60168
5961.75174,0.60098
5959.82300,0.60086
5957.89425,0.60002
5955.96551,0.59922
5954.03676,0.59822
5952.10802,0.59615
5950.17927,0.59383
5948.25053,0.59245
5946.32178,0.59146
5944.39304,0.58956
5942.46429,0.58671
5940.53555,0.58373
5938.60680,0.58214
5936.67806,0.58209
5934.74931,0.58044
5932.82057,0.57617
5930.89182,0.57169
5928.96307,0.56755
5927.03433,0.56338
5925.10558,0.56068
5923.17684,0.55939
5921.24809,0.55643
5919.31935,0.55094
5917.39060,0.54612
5915.46186,0.54318
5913.53311,0.53992
5911.60437,0.53589
5909.67562,0.53144
5907.74688,0.52606
5905.81813,0.52056
5903.88939,0.51568
5901.96064,0.51154
5900.03189,0.50822
5898.10315,0.50477
5896.17440,0.50054
5894.24566,0.49566
5892.31691,0.49087
5890.38817,0.48648
5888.45942,0.48216
5886.53068,0.47905
5884.60193,0.47702
5882.67319,0.47381
5880.74444,0.46935
5878.81570,0.46472
5876.88695,0.45979
5874.95821,0.45506
5873.02946,0.45131
5871.10072,0.44813
5869.17197,0.44472
5867.24322,0.44109
5865.31448,0.43848
5863.38573,0.43698
5861.45699,0.43420
5859.52824,0.42975
5857.59950,0.42545
5855.67075,0.42191
5853.74201,0.41956
5851.81326,0.41876
5849.88452,0.41811
5847.95577,0.41630
5846.02703,0.41403
5844.09828,0.41209
5842.16954,0.41056
5840.24079,0.40950
5838.31205,0.40854
5836.38330,0.40757
5834.45455,0.40631
5832.52581,0.40435
5830.59706,0.40236
5828.66832,0.40107
5826.73957,0.40013
5824.81083,0.39944
5822.88208,0.40032
5820.95334,0.40174
5819.02459,0.40164
5817.09585,0.40198
5815.16710,0.40402
5813.23836,0.40566
5811.30961,0.40580
5809.38087,0.40503
5807.45212,0.40470
5805.52337,0.40571
5803.59463,0.40747
5801.66588,0.40914
5799.73714,0.41049
5797.80839,0.41249
5795.87965,0.41544
5793.95090,0.41728
5792.02216,0.41743
5790.09341,0.41854
5788.16467,0.42107
5786.23592,0.42259
5784.30718,0.42283
5782.37843,0.42327
5780.44969,0.42417
5778.52094,0.42512
5776.59220,0.42603
5774.66345,0.42733
5772.73470,0.42888
5770.80596,0.42997
5768.87721,0.43123
5766.94847,0.43328
5765.01972,0.43520
5763.09098,0.43561
5761.16223,0.43471
5759.23349,0.43437
5757.30474,0.43527
5755.37600,0.43646
5753.44725,0.43690
5751.51851,0.43624
5749.58976,0.43504
5747.66102,0.43400
5745.73227,0.43354
5743.80352,0.43350
5741.87478,0.43323
5739.94603,0.43243
5738.01729,0.43128
5736.08854,0.43037
5734.15980,0.42957
5732.23105,0.42810
5730.30231,0.42578
5728.37356,0.42331
5726.44482,0.42205
5724.51607,0.42147
5722.58733,0.41994
5720.65858,0.41803
5718.72984,0.41685
5716.80109,0.41649
5714.87235,0.41683
5712.94360,0.41729
5711.01485,0.41717
5709.08611,0.41647
5707.15736,0.41608
5705.22862,0.41725
5703.29987,0.42014
5701.37113,0.42276
5699.44238,0.42302
5697.51364,0.42186
5695.58489,0.42167
5693.65615,0.42253
5691.72740,0.42342
5689.79866,0.42427
5687.86991,0.42498
5685.94117,0.42534
5684.01242,0.42628
5682.08368,0.42861
5680.15493,0.43147
5678.22618,0.43354
5676.29744,0.43487
5674.36869,0.43687
5672.43995,0.44011
5670.51120,0.44308
5668.58246,0.44510
5666.65371,0.44697
5664.72497,0.44875
5662.79622,0.45006
5660.86748,0.45096
5658.93873,0.45206
5657.00999,0.45412
5655.08124,0.45708
5653.15250,0.45999
5651.22375,0.46194
5649.29500,0.46281
5647.36626,0.46343
5645.43751,0.46463
5643.50877,0.46659
5641.58002,0.46929
5639.65128,0.47235
5637.72253,0.47482
5635.79379,0.47653
5633.86504,0.47792
5631.93630,0.47914
5630.00755,0.48009
5628.07881,0.48095
5626.15006,0.48242
5624.22132,0.48437
5622.29257,0.48590
5620.36383,0.48658
5618.43508,0.48677
5616.50633,0.48744
5614.57759,0.48841
5612.64884,0.48896
5610.72010,0.48945
5608.79135,0.49021
5606.86261,0.49137
5604.93386,0.49206
5603.00512,0.49092
5601.07637,0.48961
5599.14763,0.49037
5597.21888,0.49181
5595.29014,0.49243
5593.36139,0.49286
5591.43265,0.49319
5589.50390,0.49338
5587.57516,0.49395
5585.64641,0.49459
5583.71766,0.49486
5581.78892,0.49490
5579.86017,0.49532
5577.93143,0.49617
5576.00268,0.49655
5574.07394,0.49717
5572.14519,0.49838
5570.21645,0.49819
5568.28770,0.49699
5566.35896,0.49711
5564.43021,0.49838
5562.50147,0.49926
5560.57272,0.49930
5558.64398,0.49944
5556.71523,0.50004
5554.78648,0.49999
5552.85774,0.49933
5550.92899,0.49905
5549.00025,0.49891
5547.07150,0.49872
5545.14276,0.49898
5543.21401,0.50005
5541.28527,0.50111
5539.35652,0.50108
5537.42778,0.50047
5535.49903,0.50047
5533.57029,0.50144
5531.64154,0.50273
5529.71280,0.50378
5527.78405,0.50450
5525.85531,0.50459
5523.92656,0.50444
5521.99781,0.50397
5520.06907,0.50288
5518.14032,0.50279
5516.21158,0.50415
5514.28283,0.50556
5512.35409,0.50668
5510.42534,0.50727
5508.49660,0.50726
5506.56785,0.50791
5504.63911,0.50925
5502.71036,0.50982
5500.78162,0.50955
5498.85287,0.50927
5496.92413,0.50906
5494.99538,0.50865
5493.06664,0.50856
5491.13789,0.50898
5489.20914,0.50912
5487.28040,0.50937
5485.35165,0.51023
5483.42291,0.51100
5481.49416,0.51159
5479.56542,0.51255
5477.63667,0.51353
5475.70793,0.51388
5473.77918,0.51336
5471.85044,0.51199
5469.92169,0.51131
5467.99295,0.51248
5466.06420,0.51361
5464.13546,0.51366
5462.20671,0.51358
5460.27796,0.51335
5458.34922,0.51335
5456.42047,0.51450
5454.49173,0.51612
5452.56298,0.51681
5450.63424,0.51621
5448.70549,0.51561
5446.77675,0.51624
5444.84800,0.51734
5442.91926,0.51776
5440.99051,0.51761
5439.06177,0.51744
5437.13302,0.51739
5435.20428,0.51787
5433.27553,0.51904
5431.34679,0.51956
5429.41804,0.51881
5427.48929,0.51842
5425.56055,0.51935
5423.63180,0.52080
5421.70306,0.52212
5419.77431,0.52339
5417.84557,0.52434
5415.91682,0.52436
5413.98808,0.52414
5412.05933,0.52465
5410.13059,0.52553
5408.20184,0.52651
5406.27310,0.52710
5404.34435,0.52708
5402.41561,0.52786
5400.48686,0.52944
5398.55811,0.53012
5396.62937,0.52988
5394.70062,0.52977
5392.77188,0.53037
5390.84313,0.53149
5388.91439,0.53221
5386.98564,0.53271
5385.05690,0.53411
5383.12815,0.53567
5381.19941,0.53635
5379.27066,0.53677
5377.34192,0.53711
5375.41317,0.53749
5373.48443,0.53858
5371.55568,0.53978
5369.62694,0.54036
5367.69819,0.54054
5365.76944,0.54053
5363.84070,0.54065
5361.91195,0.54110
5359.98321,0.54178
5358.05446,0.54267
5356.12572,0.54314
5354.19697,0.54289
5352.26823,0.54297
5350.33948,0.54398
5348.41074,0.54482
5346.48199,0.54440
5344.55325,0.54360
5342.62450,0.54368
5340.69576,0.54397
5338.76701,0.54353
5336.83827,0.54286
5334.90952,0.54280
5332.98077,0.54336
5331.05203,0.54403
5329.12328,0.54412
5327.19454,0.54355
5325.26579,0.54332
5323.33705,0.54350
5321.40830,0.54335
5319.47956,0.54330
5317.55081,0.54363
5315.62207,0.54363
5313.69332,0.54349
5311.76458,0.54378
5309.83583,0.54357
5307.90709,0.54234
5305.97834,0.54120
5304.04959,0.54103
5302.12085,0.54145
5300.19210,0.54129
5298.26336,0.53995
5296.33461,0.53822
5294.40587,0.53667
5292.47712,0.53529
5290.54838,0.53457
5288.61963,0.53450
5286.69089,0.53432
5284.76214,0.53379
5282.83340,0.53280
5280.90465,0.53139
5278.97591,0.53023
5277.04716,0.52938
5275.11842,0.52855
5273.18967,0.52849
5271.26092,0.52933
5269.33218,0.52947
5267.40343,0.52775
5265.47469,0.52517
5263.54594,0.52367
5261.61720,0.52369
5259.68845,0.52402
5257.75971,0.52384
5255.83096,0.52294
5253.90222,0.52173
5251.97347,0.52118
5250.04473,0.52096
5248.11598,0.51994
5246.18724,0.51844
5244.25849,0.51755
5242.32975,0.51735
5240.40100,0.51714
5238.47225,0.51652
5236.54351,0.51576
5234.61476,0.51519
5232.68602,0.51469
5230.75727,0.51393
5228.82853,0.51266
5226.89978,0.51119
5224.97104,0.51019
5223.04229,0.50961
5221.11355,0.50891
5219.18480,0.50854
5217.25606,0.50886
5215.32731,0.50883
5213.39857,0.50805
5211.46982,0.50711
5209.54107,0.50582
5207.61233,0.50417
5205.68358,0.50332
5203.75484,0.50343
5201.82609,0.50338
5199.89735,0.50265
5197.96860,0.50145
5196.03986,0.50001
5194.11111,0.49854
5192.18237,0.49750
5190.25362,0.49708
5188.32488,0.49672
5186.39613,0.49578
5184.46739,0.49420
5182.53864,0.49250
5180.60990,0.49076
5178.68115,0.48929
5176.75240,0.48895
5174.82366,0.48887
5172.89491,0.48766
5170.96617,0.48619
5169.03742,0.48575
5167.10868,0.48606
5165.17993,0.48618
5163.25119,0.48565
5161.32244,0.48434
5159.39370,0.48233
5157.46495,0.48070
5155.53621,0.48024
5153.60746,0.48010
5151.67872,0.47965
5149.74997,0.47927
5147.82123,0.47891
5145.89248,0.47828
5143.96373,0.47750
5142.03499,0.47722
5140.10624,0.47720
5138.17750,0.47635
5136.24875,0.47540
5134.32001,0.47562
5132.39126,0.47604
5130.46252,0.47570
5128.53377,0.47542
5126.60503,0.47586
5124.67628,0.47627
5122.74754,0.47588
5120.81879,0.47524
5118.89005,0.47500
5116.96130,0.47487
5115.03255,0.47499
5113.10381,0.47564
5111.17506,0.47611
5109.24632,0.47620
5107.31757,0.47648
5105.38883,0.47726
5103.46008,0.47855
5101.53134,0.47978
5099.60259,0.47983
5097.67385,0.47908
5095.74510,0.47931
5093.81636,0.48061
5091.88761,0.48161
5089.95887,0.48199
5088.03012,0.48226
5086.10138,0.48260
5084.17263,0.48313
5082.24388,0.48397
5080.31514,0.48443
5078.38639,0.48390
5076.45765,0.48321
5074.52890,0.48355
5072.60016,0.48452
5070.67141,0.48518
5068.74267,0.48613
5066.81392,0.48780
5064.88518,0.48884
5062.95643,0.48857
5061.02769,0.48777
5059.09894,0.48689
5057.17020,0.48635
5055.24145,0.48683
5053.31270,0.48802
5051.38396,0.48888
5049.45521,0.48895
5047.52647,0.48861
5045.59772,0.48824
5043.66898,0.48789
5041.74023,0.48770
5039.81149,0.48769
5037.88274,0.48744
5035.95400,0.48673
5034.02525,0.48594
5032.09651,0.48532
5030.16776,0.48489
5028.23902,0.48482
5026.31027,0.48483
5024.38153,0.48413
5022.45278,0.48279
5020.52403,0.48152
5018.59529,0.48033
5016.66654,0.47892
5014.73780,0.47728
5012.80905,0.47559
5010.88031,0.47414
5008.95156,0.47256
5007.02282,0.47036
5005.09407,0.46809
5003.16533,0.46630
5001.23658,0.46415
4999.30784,0.46110
4997.37909,0.45777
4995.45035,0.45451
4993.52160,0.45135
4991.59286,0.44800
4989.66411,0.44371
4987.73536,0.43878
4985.80662,0.43409
4983.87787,0.42966
4981.94913,0.42545
4980.02038,0.42189
4978.09164,0.41898
4976.16289,0.41648
4974.23415,0.41471
4972.30540,0.41355
4970.37666,0.41239
4968.44791,0.41094
4966.51917,0.40924
4964.59042,0.40768
4962.66168,0.40657
4960.73293,0.40594
4958.80418,0.40559
4956.87544,0.40501
4954.94669,0.40410
4953.01795,0.40329
4951.08920,0.40288
4949.16046,0.40287
4947.23171,0.40319
4945.30297,0.40363
4943.37422,0.40363
4941.44548,0.40308
4939.51673,0.40231
4937.58799,0.40169
4935.65924,0.40145
4933.73050,0.40106
4931.80175,0.40010
4929.87301,0.39891
4927.94426,0.39782
4926.01551,0.39678
4924.08677,0.39546
4922.15802,0.39373
4920.22928,0.39175
4918.30053,0.38941
4916.37179,0.38618
4914.44304,0.38217
4912.51430,0.37820
4910.58555,0.37423
4908.65681,0.36989
4906.72806,0.36525
4904.79932,0.36019
4902.87057,0.35465
4900.94183,0.34905
4899.01308,0.34348
4897.08434,0.33794
4895.15559,0.33270
4893.22684,0.32776
4891.29810,0.32330
4889.36935,0.31946
4887.44061,0.31604
4885.51186,0.31299
4883.58312,0.31012
4881.65437,0.30731
4879.72563,0.30498
4877.79688,0.30298
4875.86814,0.30076
4873.93939,0.29865
4872.01065,0.29745
4870.08190,0.29736
4868.15316,0.29888
4866.22441,0.30242
4864.29566,0.30732
4862.36692,0.31252
4860.43817,0.31741
4858.50943,0.32241
4856.58068,0.32816
4854.65194,0.33458
4852.72319,0.34128
4850.79445,0.34818
4848.86570,0.35529
4846.93696,0.36233
4845.00821,0.36900
4843.07947,0.37545
4841.15072,0.38195
4839.22198,0.38829
4837.29323,0.39402
4835.36449,0.39933
4833.43574,0.40418
4831.50699,0.40819
4829.57825,0.41188
4827.64950,0.41559
4825.72076,0.41904
4823.79201,0.42219
4821.86327,0.42476
4819.93452,0.42647
4818.00578,0.42786
4816.07703,0.42947
4814.14829,0.43108
4812.21954,0.43204
4810.29080,0.43224
4808.36205,0.43220
4806.43331,0.43209
4804.50456,0.43186
4802.57582,0.43148
4800.64707,0.43099
4798.71832,0.43028
4796.78958,0.42922
4794.86083,0.42836
4792.93209,0.42817
4791.00334,0.42821
4789.07460,0.42808
4787.14585,0.42775
4785.21711,0.42724
4783.28836,0.42675
4781.35962,0.42607
4779.43087,0.42491
4777.50213,0.42394
4775.57338,0.42381
4773.64464,0.42403
4771.71589,0.42380
4769.78714,0.42304
4767.85840,0.42204
4765.92965,0.42115
4764.00091,0.42076
4762.07216,0.42036
4760.14342,0.41899
4758.21467,0.41700
4756.28593,0.41544
4754.35718,0.41451
4752.42844,0.41353
4750.49969,0.41220
4748.57095,0.41110
4746.64220,0.41035
4744.71346,0.40928
4742.78471,0.40764
4740.85597,0.40563
4738.92722,0.40351
4736.99847,0.40154
4735.06973,0.40008
4733.14098,0.39936
4731.21224,0.39839
4729.28349,0.39655
4727.35475,0.39474
4725.42600,0.39335
4723.49726,0.39189
4721.56851,0.39005
4719.63977,0.38769
4717.71102,0.38501
4715.78228,0.38258
4713.85353,0.38038
4711.92479,0.37783
4709.99604,0.37525
4708.06729,0.37326
4706.13855,0.37149
4704.20980,0.36928
4702.28106,0.36687
4700.35231,0.36513
4698.42357,0.36382
4696.49482,0.36222
4694.56608,0.36069
4692.63733,0.35974
4690.70859,0.35906
4688.77984,0.35843
4686.85110,0.35813
4684.92235,0.35800
4682.99361,0.35766
4681.06486,0.35730
4679.13612,0.35707
4677.20737,0.35693
4675.27862,0.35700
4673.34988,0.35714
4671.42113,0.35709
4669.49239,0.35689
4667.56364,0.35670
4665.63490,0.35670
4663.70615,0.35695
4661.77741,0.35727
4659.84866,0.35757
4657.91992,0.35782
4655.99117,0.35796
4654.06243,0.35796
4652.13368,0.35789
4650.20494,0.35759
4648.27619,0.35713
4646.34745,0.35674
4644.41870,0.35601
4642.48995,0.35481
4640.56121,0.35335
4638.63246,0.35122
4636.70372,0.34860
4634.77497,0.34629
4632.84623,0.34427
4630.91748,0.34233
4628.98874,0.34060
4627.05999,0.33876
4625.13125,0.33655
4623.20250,0.33439
4621.27376,0.33254
4619.34501,0.33069
4617.41627,0.32882
4615.48752,0.32728
4613.55877,0.32597
4611.63003,0.32459
4609.70128,0.32339
4607.77254,0.32233
4605.84379,0.32091
4603.91505,0.31908
4601.98630,0.31752
4600.05756,0.31660
4598.12881,0.31598
4596.20007,0.31527
4594.27132,0.31431
4592.34258,0.31314
4590.41383,0.31206
4588.48509,0.31118
4586.55634,0.31031
4584.62760,0.30952
4582.69885,0.30906
4580.77010,0.30863
4578.84136,0.30801
4576.91261,0.30771
4574.98387,0.30784
4573.05512,0.30786
4571.12638,0.30762
4569.19763,0.30772
4567.26889,0.30848
4565.34014,0.30939
4563.41140,0.31000
4561.48265,0.31052
4559.55391,0.31130
4557.62516,0.31241
4555.69642,0.31370
4553.76767,0.31485
4551.83893,0.31607
4549.91018,0.31765
4547.98143,0.31916
4546.05269,0.32006
4544.12394,0.32039
4542.19520,0.32055
4540.26645,0.32087
4538.33771,0.32116
4536.40896,0.32128
4534.48022,0.32144
4532.55147,0.32178
4530.62273,0.32234
4528.69398,0.32305
4526.76524,0.32382
4524.83649,0.32473
4522.90775,0.32571
4520.97900,0.32651
4519.05025,0.32728
4517.12151,0.32836
4515.19276,0.32971
4513.26402,0.33129
4511.33527,0.33284
4509.40653,0.33421
4507.47778,0.33577
4505.54904,0.33752
4503.62029,0.33908
4501.69155,0.34044
4499.76280,0.34150
4497.83406,0.34227
4495.90531,0.34302
4493.97657,0.34381
4492.04782,0.34453
4490.11908,0.34499
4488.19033,0.34512
4486.26158,0.34519
4484.33284,0.34541
4482.40409,0.34537
4480.47535,0.34502
4478.54660,0.34482
4476.61786,0.34472
4474.68911,0.34446
4472.76037,0.34412
4470.83162,0.34398
4468.90288,0.34412
4466.97413,0.34401
4465.04539,0.34337
4463.11664,0.34257
4461.18790,0.34191
4459.25915,0.34145
4457.33041,0.34099
4455.40166,0.34028
4453.47291,0.33935
4451.54417,0.33806
4449.61542,0.33625
4447.68668,0.33435
4445.75793,0.33259
4443.82919,0.33058
4441.90044,0.32814
4439.97170,0.32557
4438.04295,0.32309
4436.11421,0.32054
4434.18546,0.31797
4432.25672,0.31545
4430.32797,0.31275
4428.39923,0.30977
4426.47048,0.30680
4424.54173,0.30396
4422.61299,0.30103
4420.68424,0.29802
4418.75550,0.29504
4416.82675,0.29176
4414.89801,0.28821
4412.96926,0.28489
4411.04052,0.28182
4409.11177,0.27872
4407.18303,0.27552
4405.25428,0.27236
4403.32554,0.26931
4401.39679,0.26624
4399.46805,0.26317
4397.53930,0.25993
4395.61056,0.25624
4393.68181,0.25228
4391.75306,0.24842
4389.82432,0.24456
4387.89557,0.24027
4385.96683,0.23559
4384.03808,0.23106
4382.10934,0.22675
4380.18059,0.22240
4378.25185,0.21817
4376.32310,0.21405
4374.39436,0.20965
4372.46561,0.20509
4370.53687,0.20086
4368.60812,0.19692
4366.67938,0.19327
4364.75063,0.19028
4362.82189,0.18795
4360.89314,0.18600
4358.96439,0.18438
4357.03565,0.18312
4355.10690,0.18244
4353.17816,0.18287
4351.24941,0.18460
4349.32067,0.18695
4347.39192,0.18958
4345.46318,0.19276
4343.53443,0.19646
4341.60569,0.20059
4339.67694,0.20495
4337.74820,0.20904
4335.81945,0.21256
4333.89071,0.21575
4331.96196,0.21872
4330.03321,0.22097
4328.10447,0.22244
4326.17572,0.22379
4324.24698,0.22545
4322.31823,0.22754
4320.38949,0.22979
4318.46074,0.23154
4316.53200,0.23294
4314.60325,0.23465
4312.67451,0.23666
4310.74576,0.23853
4308.81702,0.24007
4306.88827,0.24145
4304.95953,0.24265
4303.03078,0.24356
4301.10204,0.24418
4299.17329,0.24454
4297.24454,0.24440
4295.31580,0.24358
4293.38705,0.24235
4291.45831,0.24083
4289.52956,0.23896
4287.60082,0.23694
4285.67207,0.23499
4283.74333,0.23316
4281.81458,0.23117
4279.88584,0.22848
4277.95709,0.22524
4276.02835,0.22228
4274.09960,0.21988
4272.17086,0.21750
4270.24211,0.21483
4268.31336,0.21224
4266.38462,0.21027
4264.45587,0.20918
4262.52713,0.20874
4260.59838,0.20863
4258.66964,0.20914
4256.74089,0.21044
4254.81215,0.21200
4252.88340,0.21319
4250.95466,0.21379
4249.02591,0.21422
4247.09717,0.21477
4245.16842,0.21536
4243.23968,0.21589
4241.31093,0.21584
4239.38219,0.21502
4237.45344,0.21406
4235.52469,0.21357
4233.59595,0.21361
4231.66720,0.21368
4229.73846,0.21322
4227.80971,0.21226
4225.88097,0.21132
4223.95222,0.21095
4222.02348,0.21124
4220.09473,0.21148
4218.16599,0.21127
4216.23724,0.21116
4214.30850,0.21150
4212.37975,0.21211
4210.45101,0.21270
4208.52226,0.21319
4206.59352,0.21381
4204.66477,0.21454
4202.73602,0.21492
4200.80728,0.21493
4198.87853,0.21507
4196.94979,0.21529
4195.02104,0.21546
4193.09230,0.21570
4191.16355,0.21588
4189.23481,0.21609
4187.30606,0.21666
4185.37732,0.21745
4183.44857,0.21833
4181.51983,0.21956
4179.59108,0.22105
4177.66234,0.22257
4175.73359,0.22412
4173.80484,0.22560
4171.87610,0.22727
4169.94735,0.22926
4168.01861,0.23112
4166.08986,0.23263
4164.16112,0.23402
4162.23237,0.23544
4160.30363,0.23696
4158.37488,0.23855
4156.44614,0.23999
4154.51739,0.24112
4152.58865,0.24221
4150.65990,0.24365
4148.73116,0.24537
4146.80241,0.24698
4144.87367,0.24853
4142.94492,0.25038
4141.01617,0.25241
4139.08743,0.25418
4137.15868,0.25534
4135.22994,0.25607
4133.30119,0.25688
4131.37245,0.25811
4129.44370,0.25952
4127.51496,0.26048
4125.58621,0.26078
4123.65747,0.26100
4121.72872,0.26152
4119.79998,0.26183
4117.87123,0.26147
4115.94249,0.26069
4114.01374,0.25992
4112.08500,0.25924
4110.15625,0.25852
4108.22750,0.25791
4106.29876,0.25771
4104.37001,0.25794
4102.44127,0.25841
4100.51252,0.25898
4098.58378,0.25947
4096.65503,0.26000
4094.72629,0.26081
4092.79754,0.26162
4090.86880,0.26192
4088.94005,0.26182
4087.01131,0.26182
4085.08256,0.26215
4083.15382,0.26260
4081.22507,0.26294
4079.29632,0.26311
4077.36758,0.26288
4075.43883,0.26215
4073.51009,0.26117
4071.58134,0.26019
4069.65260,0.25934
4067.72385,0.25843
4065.79511,0.25721
4063.86636,0.25581
4061.93762,0.25427
4060.00887,0.25251
4058.08013,0.25066
4056.15138,0.24879
4054.22264,0.24692
4052.29389,0.24522
4050.36515,0.24386
4048.43640,0.24295
4046.50765,0.24236
4044.57891,0.24177
4042.65016,0.24098
4040.72142,0.24003
4038.79267,0.23902
4036.86393,0.23799
4034.93518,0.23680
4033.00644,0.23543
4031.07769,0.23418
4029.14895,0.23327
4027.22020,0.23264
4025.29146,0.23222
4023.36271,0.23209
4021.43397,0.23224
4019.50522,0.23256
4017.57648,0.23297
4015.64773,0.23343
4013.71898,0.23390
4011.79024,0.23439
4009.86149,0.23499
4007.93275,0.23606
4006.00400,0.23778
4004.07526,0.23975
4002.14651,0.24175
4000.21777,0.24392
3998.28902,0.24632
3996.36028,0.24898
3994.43153,0.25173
3992.50279,0.25427
3990.57404,0.25655
3988.64530,0.25847
3986.71655,0.26006
3984.78780,0.26159
3982.85906,0.26310
3980.93031,0.26455
3979.00157,0.26596
3977.07282,0.26706
3975.14408,0.26775
3973.21533,0.26856
3971.28659,0.26984
3969.35784,0.27137
3967.42910,0.27278
3965.50035,0.27382
3963.57161,0.27465
3961.64286,0.27559
3959.71412,0.27658
3957.78537,0.27754
3955.85663,0.27837
3953.92788,0.27882
3951.99913,0.27895
3950.07039,0.27915
3948.14164,0.27973
3946.21290,0.28053
3944.28415,0.28121
3942.35541,0.28193
3940.42666,0.28306
3938.49792,0.28438
3936.56917,0.28558
3934.64043,0.28666
3932.71168,0.28810
3930.78294,0.29022
3928.85419,0.29220
3926.92545,0.29351
3924.99670,0.29496
3923.06795,0.29702
3921.13921,0.29904
3919.21046,0.30054
3917.28172,0.30170
3915.35297,0.30302
3913.42423,0.30453
3911.49548,0.30579
3909.56674,0.30666
3907.63799,0.30724
3905.70925,0.30737
3903.78050,0.30734
3901.85176,0.30776
3899.92301,0.30870
3897.99427,0.31001
3896.06552,0.31145
3894.13678,0.31258
3892.20803,0.31337
3890.27928,0.31414
3888.35054,0.31495
3886.42179,0.31588
3884.49305,0.31714
3882.56430,0.31829
3880.63556,0.31924
3878.70681,0.32046
3876.77807,0.32151
3874.84932,0.32183
3872.92058,0.32156
3870.99183,0.32106
3869.06309,0.32063
3867.13434,0.32004
3865.20560,0.31883
3863.27685,0.31720
3861.34811,0.31519
3859.41936,0.31264
3857.49061,0.30995
3855.56187,0.30699
3853.63312,0.30418
3851.70438,0.30419
3849.77563,0.30666
3847.84689,0.30955
3845.91814,0.31213
3843.98940,0.31438
3842.06065,0.31641
3840.13191,0.31799
3838.20316,0.31916
3836.27442,0.32034
3834.34567,0.32144
3832.41693,0.32228
3830.48818,0.32293
3828.55943,0.32343
3826.63069,0.32385
3824.70194,0.32412
3822.77320,0.32394
3820.84445,0.32419
3818.91571,0.32576
3816.98696,0.32774
3815.05822,0.32975
3813.12947,0.33182
3811.20073,0.33339
3809.27198,0.33404
3807.34324,0.33429
3805.41449,0.33488
3803.48575,0.33540
3801.55700,0.33597
3799.62826,0.33726
3797.69951,0.33858
3795.77076,0.33954
3793.84202,0.34042
3791.91327,0.34102
3789.98453,0.34120
3788.05578,0.34116
3786.12704,0.34086
3784.19829,0.34040
3782.26955,0.33994
3780.34080,0.33956
3778.41206,0.33940
3776.48331,0.33918
3774.55457,0.33854
3772.62582,0.33728
3770.69708,0.33576
3768.76833,0.33486
3766.83959,0.33448
3764.91084,0.33424
3762.98209,0.33425
3761.05335,0.33415
3759.12460,0.33370
3757.19586,0.33333
3755.26711,0.33294
3753.33837,0.33187
3751.40962,0.33031
3749.48088,0.32968
3747.55213,0.32954
3745.62339,0.32906
3743.69464,0.32979
3741.76590,0.33179
3739.83715,0.33298
3737.90841,0.33307
3735.97966,0.33320
3734.05091,0.33440
3732.12217,0.33655
3730.19342,0.33878
3728.26468,0.34022
3726.33593,0.34077
3724.40719,0.34074
3722.47844,0.34046
3720.54970,0.34032
3718.62095,0.34028
3716.69221,0.33984
3714.76346,0.33844
3712.83472,0.33599
3710.90597,0.33367
3708.97723,0.33251
3707.04848,0.33182
3705.11974,0.33089
3703.19099,0.32927
3701.26224,0.32699
3699.33350,0.32488
3697.40475,0.32295
3695.47601,0.32037
3693.54726,0.31686
3691.61852,0.31250
3689.68977,0.30721
3687.76103,0.30161
3685.83228,0.29681
3683.90354,0.29244
3681.97479,0.28771
3680.04605,0.28286
3678.11730,0.27829
3676.18856,0.27401
3674.25981,0.27118
3672.33107,0.26967
3670.40232,0.26796
3668.47357,0.26691
3666.54483,0.26718
3664.61608,0.26744
3662.68734,0.26711
3660.75859,0.26628
3658.82985,0.26463
3656.90110,0.26227
3654.97236,0.26038
3653.04361,0.25891
3651.11487,0.25626
3649.18612,0.25237
3647.25738,0.24928
3645.32863,0.24724
3643.39989,0.24486
3641.47114,0.24154
3639.54239,0.23770
3637.61365,0.23379
3635.68490,0.22998
3633.75616,0.22645
3631.82741,0.22319
3629.89867,0.21965
3627.96992,0.21612
3626.04118,0.21359
3624.11243,0.21137
3622.18369,0.20859
3620.25494,0.20524
3618.32620,0.20211
3616.39745,0.19977
3614.46871,0.19741
3612.53996,0.19451
3610.61122,0.19169
3608.68247,0.18946
3606.75372,0.18753
3604.82498,0.18534
3602.89623,0.18281
3600.96749,0.18022
3599.03874,0.17771
3597.11000,0.17496
3595.18125,0.17201
3593.25251,0.16930
3591.32376,0.16684
3589.39502,0.16417
3587.46627,0.16135
3585.53753,0.15877
3583.60878,0.15632
3581.68004,0.15395
3579.75129,0.15163
3577.82254,0.14928
3575.89380,0.14697
3573.96505,0.14451
3572.03631,0.14171
3570.10756,0.13869
3568.17882,0.13571
3566.25007,0.13307
3564.32133,0.13088
3562.39258,0.12890
3560.46384,0.12687
3558.53509,0.12462
3556.60635,0.12220
3554.67760,0.11989
3552.74886,0.11753
3550.82011,0.11504
3548.89137,0.11279
3546.96262,0.11077
3545.03387,0.10889
3543.10513,0.10730
3541.17638,0.10575
3539.24764,0.10394
3537.31889,0.10198
3535.39015,0.09989
3533.46140,0.09779
3531.53266,0.09587
3529.60391,0.09401
3527.67517,0.09221
3525.74642,0.09066
3523.81768,0.08940
3521.88893,0.08812
3519.96019,0.08653
3518.03144,0.08479
3516.10270,0.08331
3514.17395,0.08222
3512.24520,0.08119
3510.31646,0.07990
3508.38771,0.07860
3506.45897,0.07767
3504.53022,0.07690
3502.60148,0.07596
3500.67273,0.07490
3498.74399,0.07393
3496.81524,0.07316
3494.88650,0.07259
3492.95775,0.07222
3491.02901,0.07183
3489.10026,0.07110
3487.17152,0.07022
3485.24277,0.06967
3483.31402,0.06937
3481.38528,0.06899
3479.45653,0.06858
3477.52779,0.06821
3475.59904,0.06756
3473.67030,0.06662
3471.74155,0.06600
3469.81281,0.06562
3467.88406,0.06494
3465.95532,0.06429
3464.02657,0.06394
3462.09783,0.06347
3460.16908,0.06280
3458.24034,0.06227
3456.31159,0.06186
3454.38285,0.06122
3452.45410,0.06036
3450.52535,0.05958
3448.59661,0.05901
3446.66786,0.05842
3444.73912,0.05798
3442.81037,0.05787
3440.88163,0.05771
3438.95288,0.05727
3437.02414,0.05667
3435.09539,0.05612
3433.16665,0.05583
3431.23790,0.05540
3429.30916,0.05444
3427.38041,0.05340
3425.45167,0.05278
3423.52292,0.05224
3421.59418,0.05149
3419.66543,0.05073
3417.73668,0.05000
3415.80794,0.04924
3413.87919,0.04847
3411.95045,0.04763
3410.02170,0.04658
3408.09296,0.04554
3406.16421,0.04499
3404.23547,0.04462
3402.30672,0.04369
3400.37798,0.04234
3398.44923,0.04120
3396.52049,0.04033
3394.59174,0.03946
3392.66300,0.03833
3390.73425,0.03701
3388.80550,0.03588
3386.87676,0.03513
3384.94801,0.03462
3383.01927,0.03400
3381.09052,0.03323
3379.16178,0.03246
3377.23303,0.03176
3375.30429,0.03111
3373.37554,0.03033
3371.44680,0.02936
3369.51805,0.02860
3367.58931,0.02812
3365.66056,0.02744
3363.73182,0.02667
3361.80307,0.02625
3359.87433,0.02607
3357.94558,0.02570
3356.01683,0.02514
3354.08809,0.02458
3352.15934,0.02406
3350.23060,0.02372
3348.30185,0.02384
3346.37311,0.02403
3344.44436,0.02367
3342.51562,0.02296
3340.58687,0.02253
3338.65813,0.02240
3336.72938,0.02229
3334.80064,0.02225
3332.87189,0.02238
3330.94315,0.02232
3329.01440,0.02180
3327.08566,0.02100
3325.15691,0.02048
3323.22816,0.02054
3321.29942,0.02078
3319.37067,0.02095
3317.44193,0.02107
3315.51318,0.02105
3313.58444,0.02097
3311.65569,0.02108
3309.72695,0.02143
3307.79820,0.02175
3305.86946,0.02203
3303.94071,0.02248
3302.01197,0.02297
3300.08322,0.02335
3298.15448,0.02370
3296.22573,0.02384
3294.29698,0.02368
3292.36824,0.02359
3290.43949,0.02369
3288.51075,0.02381
3286.58200,0.02388
3284.65326,0.02391
3282.72451,0.02402
3280.79577,0.02431
3278.86702,0.02460
3276.93828,0.02447
3275.00953,0.02401
3273.08079,0.02389
3271.15204,0.02424
3269.22330,0.02454
3267.29455,0.02460
3265.36581,0.02472
3263.43706,0.02488
3261.50831,0.02504
3259.57957,0.02514
3257.65082,0.02486
3255.72208,0.02446
3253.79333,0.02454
3251.86459,0.02498
3249.93584,0.02521
3248.00710,0.02521
3246.07835,0.02523
3244.14961,0.02536
3242.22086,0.02563
3240.29212,0.02615
3238.36337,0.02681
3236.43463,0.02723
3234.50588,0.02722
3232.57713,0.02717
3230.64839,0.02742
3228.71964,0.02780
3226.79090,0.02820
3224.86215,0.02878
3222.93341,0.02929
3221.00466,0.02943
3219.07592,0.02926
3217.14717,0.02904
3215.21843,0.02926
3213.28968,0.02987
3211.36094,0.03022
3209.43219,0.03015
3207.50345,0.03018
3205.57470,0.03056
3203.64596,0.03084
3201.71721,0.03075
3199.78846,0.03068
3197.85972,0.03114
3195.93097,0.03194
3194.00223,0.03262
3192.07348,0.03304
3190.14474,0.03331
3188.21599,0.03381
3186.28725,0.03466
3184.35850,0.03522
3182.42976,0.03547
3180.50101,0.03612
3178.57227,0.03715
3176.64352,0.03790
3174.71478,0.03833
3172.78603,0.03895
3170.85729,0.03997
3168.92854,0.04108
3166.99979,0.04191
3165.07105,0.04236
3163.14230,0.04262
3161.21356,0.04306
3159.28481,0.04366
3157.35607,0.04398
3155.42732,0.04430
3153.49858,0.04483
3151.56983,0.04514
3149.64109,0.04518
3147.71234,0.04528
3145.78360,0.04542
3143.85485,0.04533
3141.92611,0.04505
3139.99736,0.04477
3138.06861,0.04439
3136.13987,0.04390
3134.21112,0.04379
3132.28238,0.04399
3130.35363,0.04374
3128.42489,0.04286
3126.49614,0.04179
3124.56740,0.04082
3122.63865,0.04016
3120.70991,0.03969
3118.78116,0.03892
3116.85242,0.03777
3114.92367,0.03680
3112.99493,0.03613
3111.06618,0.03534
3109.13744,0.03435
3107.20869,0.03341
3105.27994,0.03262
3103.35120,0.03187
3101.42245,0.03130
3099.49371,0.03106
3097.56496,0.03088
3095.63622,0.03054
3093.70747,0.03010
3091.77873,0.02979
3089.84998,0.02968
3087.92124,0.02956
3085.99249,0.02925
3084.06375,0.02879
3082.13500,0.02863
3080.20626,0.02902
3078.27751,0.02952
3076.34877,0.02978
3074.42002,0.02997
3072.49127,0.03035
3070.56253,0.03073
3068.63378,0.03096
3066.70504,0.03124
3064.77629,0.03168
3062.84755,0.03237
3060.91880,0.03343
3058.99006,0.03454
3057.06131,0.03524
3055.13257,0.03557
3053.20382,0.03596
3051.27508,0.03685
3049.34633,0.03834
3047.41759,0.04000
3045.48884,0.04151
3043.56009,0.04300
3041.63135,0.04451
3039.70260,0.04586
3037.77386,0.04716
3035.84511,0.04848
3033.91637,0.04953
3031.98762,0.05036
3030.05888,0.05129
3028.13013,0.05221
3026.20139,0.05290
3024.27264,0.05353
3022.34390,0.05427
3020.41515,0.05496
3018.48641,0.05536
3016.55766,0.05543
3014.62892,0.05529
3012.70017,0.05500
3010.77142,0.05473
3008.84268,0.05458
3006.91393,0.05448
3004.98519,0.05429
3003.05644,0.05385
3001.12770,0.05321
2999.19895,0.05260
2997.27021,0.05190
2995.34146,0.05075
2993.41272,0.04925
2991.48397,0.04759
2989.55523,0.04571
2987.62648,0.04368
2985.69774,0.04157
2983.76899,0.03935
2981.84025,0.03708
2979.91150,0.03488
2977.98275,0.03288
2976.05401,0.03100
2974.12526,0.02916
2972.19652,0.02758
2970.26777,0.02630
2968.33903,0.02513
2966.41028,0.02419
2964.48154,0.02362
2962.55279,0.02326
2960.62405,0.02310
2958.69530,0.02321
2956.76656,0.02321
2954.83781,0.02273
2952.90907,0.02215
2950.98032,0.02200
2949.05157,0.02212
2947.12283,0.02220
2945.19408,0.02220
2943.26534,0.02213
2941.33659,0.02216
2939.40785,0.02241
2937.47910,0.02267
2935.55036,0.02279
2933.62161,0.02289
2931.69287,0.02299
2929.76412,0.02291
2927.83538,0.02281
2925.90663,0.02320
2923.97789,0.02399
2922.04914,0.02450
2920.12040,0.02463
2918.19165,0.02477
2916.26290,0.02490
2914.33416,0.02476
2912.40541,0.02448
2910.47667,0.02434
2908.54792,0.02430
2906.61918,0.02434
2904.69043,0.02466
2902.76169,0.02509
2900.83294,0.02522
2898.90420,0.02512
2896.97545,0.02525
2895.04671,0.02568
2893.11796,0.02604
2891.18922,0.02613
2889.26047,0.02606
2887.33172,0.02608
2885.40298,0.02625
2883.47423,0.02627
2881.54549,0.02593
2879.61674,0.02546
2877.68800,0.02505
2875.75925,0.02467
2873.83051,0.02431
2871.90176,0.02390
2869.97302,0.02366
2868.04427,0.02380
2866.11553,0.02410
2864.18678,0.02431
2862.25804,0.02438
2860.32929,0.02441
2858.40055,0.02456
2856.47180,0.02486
2854.54305,0.02529
2852.61431,0.02584
2850.68556,0.02650
2848.75682,0.02736
2846.82807,0.02838
2844.89933,0.02974
2842.97058,0.03167
2841.04184,0.03397
2839.11309,0.03642
2837.18435,0.03892
2835.25560,0.04125
2833.32686,0.04331
2831.39811,0.04498
2829.46937,0.04605
2827.54062,0.04665
2825.61188,0.04725
2823.68313,0.04814
2821.75438,0.04931
2819.82564,0.05071
2817.89689,0.05227
2815.96815,0.05390
2814.03940,0.05552
2812.11066,0.05717
2810.18191,0.05872
2808.25317,0.06002
2806.32442,0.06134
2804.39568,0.06279
2802.46693,0.06405
2800.53819,0.06514
2798.60944,0.06631
2796.68070,0.06751
2794.75195,0.06866
2792.82320,0.06982
2790.89446,0.07103
2788.96571,0.07225
2787.03697,0.07349
2785.10822,0.07472
2783.17948,0.07593
2781.25073,0.07711
2779.32199,0.07821
2777.39324,0.07937
2775.46450,0.08075
2773.53575,0.08219
2771.60701,0.08347
2769.67826,0.08462
2767.74952,0.08565
2765.82077,0.08640
2763.89203,0.08687
2761.96328,0.08725
2760.03453,0.08759
2758.10579,0.08783
2756.17704,0.08803
2754.24830,0.08814
2752.31955,0.08796
2750.39081,0.08750
2748.46206,0.08708
2746.53332,0.08712
2744.60457,0.08765
2742.67583,0.08833
2740.74708,0.08904
2738.81834,0.09014
2736.88959,0.09170
2734.96085,0.09323
2733.03210,0.09453
2731.10336,0.09578
2729.17461,0.09708
2727.24586,0.09852
2725.31712,0.10014
2723.38837,0.10178
2721.45963,0.10337
2719.53088,0.10508
2717.60214,0.10697
2715.67339,0.10867
2713.74465,0.10999
2711.81590,0.11113
2709.88716,0.11210
2707.95841,0.11280
2706.02967,0.11343
2704.10092,0.11414
2702.17218,0.11486
2700.24343,0.11571
2698.31468,0.11673
2696.38594,0.11783
2694.45719,0.11891
2692.52845,0.11978
2690.59970,0.12039
2688.67096,0.12098
2686.74221,0.12160
2684.81347,0.12217
2682.88472,0.12290
2680.95598,0.12383
2679.02723,0.12472
2677.09849,0.12553
2675.16974,0.12627
2673.24100,0.12685
2671.31225,0.12732
2669.38351,0.12784
2667.45476,0.12839
2665.52601,0.12867
2663.59727,0.12866
2661.66852,0.12861
2659.73978,0.12852
2657.81103,0.12842
2655.88229,0.12866
2653.95354,0.12918
2652.02480,0.12979
2650.09605,0.13063
2648.16731,0.13167
2646.23856,0.13266
2644.30982,0.13352
2642.38107,0.13439
2640.45233,0.13536
2638.52358,0.13623
2636.59484,0.13688
2634.66609,0.13754
2632.73734,0.13821
2630.80860,0.13876
2628.87985,0.13924
2626.95111,0.13974
2625.02236,0.14028
2623.09362,0.14086
2621.16487,0.14144
2619.23613,0.14201
2617.30738,0.14271
2615.37864,0.14360
2613.44989,0.14452
2611.52115,0.14536
2609.59240,0.14611
2607.66366,0.14672
2605.73491,0.14739
2603.80616,0.14824
2601.87742,0.14906
2599.94867,0.14981
2598.01993,0.15051
2596.09118,0.15088
2594.16244,0.15097
2592.23369,0.15110
2590.30495,0.15122
2588.37620,0.15128
2586.44746,0.15141
2584.51871,0.15159
2582.58997,0.15190
2580.66122,0.15240
2578.73248,0.15306
2576.80373,0.15387
2574.87499,0.15481
2572.94624,0.15573
2571.01749,0.15639
2569.08875,0.15678
2567.16000,0.15706
2565.23126,0.15719
2563.30251,0.15716
2561.37377,0.15702
2559.44502,0.15683
2557.51628,0.15658
2555.58753,0.15629
2553.65879,0.15605
2551.73004,0.15597
2549.80130,0.15609
2547.87255,0.15656
2545.94381,0.15741
2544.01506,0.15853
2542.08631,0.15976
2540.15757,0.16101
2538.22882,0.16243
2536.30008,0.16406
2534.37133,0.16582
2532.44259,0.16756
2530.51384,0.16914
2528.58510,0.17057
2526.65635,0.17209
2524.72761,0.17380
2522.79886,0.17565
2520.87012,0.17747
2518.94137,0.17915
2517.01263,0.18063
2515.08388,0.18193
2513.15514,0.18316
2511.22639,0.18435
2509.29764,0.18540
2507.36890,0.18627
2505.44015,0.18691
2503.51141,0.18707
2501.58266,0.18669
2499.65392,0.18618
2497.72517,0.18584
2495.79643,0.18556
2493.86768,0.18520
2491.93894,0.18473
2490.01019,0.18407
2488.08145,0.18344
2486.15270,0.18305
2484.22396,0.18281
2482.29521,0.18268
2480.36647,0.18271
2478.43772,0.18298
2476.50897,0.18354
2474.58023,0.18428
2472.65148,0.18511
2470.72274,0.18613
2468.79399,0.18738
2466.86525,0.18879
2464.93650,0.19036
2463.00776,0.19213
2461.07901,0.19393
2459.15027,0.19544
2457.22152,0.19663
2455.29278,0.19772
2453.36403,0.19879
2451.43529,0.19992
2449.50654,0.20117
2447.57779,0.20247
2445.64905,0.20382
2443.72030,0.20526
2441.79156,0.20672
2439.86281,0.20804
2437.93407,0.20921
2436.00532,0.21032
2434.07658,0.21132
2432.14783,0.21213
2430.21909,0.21289
2428.29034,0.21365
2426.36160,0.21424
2424.43285,0.21477
2422.50411,0.21528
2420.57536,0.21563
2418.64662,0.21594
2416.71787,0.21624
2414.78912,0.21652
2412.86038,0.21686
2410.93163,0.21708
2409.00289,0.21704
2407.07414,0.21680
2405.14540,0.21648
2403.21665,0.21626
2401.28791,0.21634
2399.35916,0.21668
2397.43042,0.21699
2395.50167,0.21711
2393.57293,0.21703
2391.64418,0.21681
2389.71544,0.21661
2387.78669,0.21656
2385.85795,0.21661
2383.92920,0.21682
2382.00045,0.21715
2380.07171,0.21734
2378.14296,0.21737
2376.21422,0.21740
2374.28547,0.21744
2372.35673,0.21746
2370.42798,0.21736
2368.49924,0.21714
2366.57049,0.21683
2364.64175,0.21648
2362.71300,0.21628
2360.78426,0.21621
2358.85551,0.21630
2356.92677,0.21693
2354.99802,0.21793
2353.06927,0.21863
2351.14053,0.21907
2349.21178,0.21926
2347.28304,0.21871
2345.35429,0.21753
2343.42555,0.21648
2341.49680,0.21575
2339.56806,0.21511
2337.63931,0.21459
2335.71057,0.21446
2333.78182,0.21482
2331.85308,0.21535
2329.92433,0.21576
2327.99559,0.21600
2326.06684,0.21614
2324.13810,0.21622
2322.20935,0.21625
2320.28060,0.21638
2318.35186,0.21673
2316.42311,0.21731
2314.49437,0.21820
2312.56562,0.21934
2310.63688,0.22053
2308.70813,0.22159
2306.77939,0.22252
2304.85064,0.22334
2302.92190,0.22415
2300.99315,0.22495
2299.06441,0.22564
2297.13566,0.22616
2295.20692,0.22646
2293.27817,0.22658
2291.34943,0.22667
2289.42068,0.22690
2287.49193,0.22739
2285.56319,0.22803
2283.63444,0.22868
2281.70570,0.22929
2279.77695,0.22969
2277.84821,0.22979
2275.91946,0.22984
2273.99072,0.22993
2272.06197,0.22998
2270.13323,0.23005
2268.20448,0.23037
2266.27574,0.23112
2264.34699,0.23216
2262.41825,0.23314
2260.48950,0.23410
2258.56075,0.23513
2256.63201,0.23610
2254.70326,0.23690
2252.77452,0.23747
2250.84577,0.23798
2248.91703,0.23869
2246.98828,0.23942
2245.05954,0.23987
2243.13079,0.24001
2241.20205,0.24002
2239.27330,0.24011
2237.34456,0.24020
2235.41581,0.23998
2233.48707,0.23948
2231.55832,0.23876
2229.62958,0.23781
2227.70083,0.23686
2225.77208,0.23604
2223.84334,0.23513
2221.91459,0.23396
2219.98585,0.23268
2218.05710,0.23144
2216.12836,0.23019
2214.19961,0.22882
2212.27087,0.22738
2210.34212,0.22609
2208.41338,0.22505
2206.48463,0.22397
2204.55589,0.22270
2202.62714,0.22133
2200.69840,0.21988
2198.76965,0.21837
2196.84090,0.21703
2194.91216,0.21602
2192.98341,0.21531
2191.05467,0.21492
2189.12592,0.21496
2187.19718,0.21555
2185.26843,0.21648
2183.33969,0.21749
2181.41094,0.21863
2179.48220,0.21983
2177.55345,0.22092
2175.62471,0.22184
2173.69596,0.22250
2171.76722,0.22296
2169.83847,0.22350
2167.90973,0.22425
2165.98098,0.22499
2164.05223,0.22553
2162.12349,0.22595
2160.19474,0.22630
2158.26600,0.22659
2156.33725,0.22680
2154.40851,0.22687
2152.47976,0.22688
2150.55102,0.22689
2148.62227,0.22689
2146.69353,0.22692
2144.76478,0.22698
2142.83604,0.22695
2140.90729,0.22678
2138.97855,0.22651
2137.04980,0.22629
2135.12106,0.22611
2133.19231,0.22590
2131.26356,0.22574
2129.33482,0.22568
2127.40607,0.22563
2125.47733,0.22569
2123.54858,0.22609
2121.61984,0.22689
2119.69109,0.22790
2117.76235,0.22904
2115.83360,0.23034
2113.90486,0.23169
2111.97611,0.23295
2110.04737,0.23410
2108.11862,0.23505
2106.18988,0.23569
2104.26113,0.23606
2102.33238,0.23627
2100.40364,0.23627
2098.47489,0.23592
2096.54615,0.23525
2094.61740,0.23458
2092.68866,0.23410
2090.75991,0.23354
2088.83117,0.23274
2086.90242,0.23201
2084.97368,0.23153
2083.04493,0.23105
2081.11619,0.23042
2079.18744,0.22987
2077.25870,0.22938
2075.32995,0.22875
2073.40121,0.22803
2071.47246,0.22743
2069.54371,0.22700
2067.61497,0.22685
2065.68622,0.22709
2063.75748,0.22774
2061.82873,0.22879
2059.89999,0.23019
2057.97124,0.23178
2056.04250,0.23318
2054.11375,0.23424
2052.18501,0.23502
2050.25626,0.23537
2048.32752,0.23502
2046.39877,0.23404
2044.47003,0.23284
2042.54128,0.23177
2040.61254,0.23122
2038.68379,0.23141
2036.75504,0.23215
2034.82630,0.23319
2032.89755,0.23434
2030.96881,0.23552
2029.04006,0.23673
2027.11132,0.23799
2025.18257,0.23915
2023.25383,0.24027
2021.32508,0.24151
2019.39634,0.24277
2017.46759,0.24378
2015.53885,0.24445
2013.61010,0.24488
2011.68136,0.24521
2009.75261,0.24565
2007.82386,0.24633
2005.89512,0.24703
2003.96637,0.24748
2002.03763,0.24770
2000.10888,0.24785
1998.18014,0.24794
1996.25139,0.24769
1994.32265,0.24689
1992.39390,0.24585
1990.46516,0.24503
1988.53641,0.24439
1986.60767,0.24384
1984.67892,0.24348
1982.75018,0.24335
1980.82143,0.24333
1978.89269,0.24341
1976.96394,0.24364
1975.03519,0.24388
1973.10645,0.24416
1971.17770,0.24473
1969.24896,0.24563
1967.32021,0.24666
1965.39147,0.24775
1963.46272,0.24895
1961.53398,0.25014
1959.60523,0.25112
1957.67649,0.25181
1955.74774,0.25225
1953.81900,0.25257
1951.89025,0.25285
1949.96151,0.25292
1948.03276,0.25272
1946.10402,0.25248
1944.17527,0.25231
1942.24652,0.25222
1940.31778,0.25216
1938.38903,0.25212
1936.46029,0.25221
1934.53154,0.25253
1932.60280,0.25297
1930.67405,0.25342
1928.74531,0.25373
1926.81656,0.25373
1924.88782,0.25342
1922.95907,0.25282
1921.03033,0.25194
1919.10158,0.25074
1917.17284,0.24935
1915.24409,0.24793
1913.31534,0.24628
1911.38660,0.24423
1909.45785,0.24200
1907.52911,0.24001
1905.60036,0.23843
1903.67162,0.23718
1901.74287,0.23631
1899.81413,0.23593
1897.88538,0.23594
1895.95664,0.23615
1894.02789,0.23653
1892.09915,0.23695
1890.17040,0.23732
1888.24166,0.23785
1886.31291,0.23848
1884.38417,0.23897
1882.45542,0.23927
1880.52667,0.23948
1878.59793,0.23982
1876.66918,0.24028
1874.74044,0.24060
1872.81169,0.24059
1870.88295,0.24015
1868.95420,0.23955
1867.02546,0.23940
1865.09671,0.23965
1863.16797,0.23976
1861.23922,0.23950
1859.31048,0.23891
1857.38173,0.23819
1855.45299,0.23743
1853.52424,0.23642
1851.59549,0.23498
1849.66675,0.23318
1847.73800,0.23107
1845.80926,0.22862
1843.88051,0.22629
1841.95177,0.22480
1840.02302,0.22381
1838.09428,0.22271
1836.16553,0.22148
1834.23679,0.22030
1832.30804,0.21913
1830.37930,0.21776
1828.45055,0.21629
1826.52181,0.21494
1824.59306,0.21371
1822.66432,0.21266
1820.73557,0.21154
1818.80682,0.21008
1816.87808,0.20847
1814.94933,0.20681
1813.02059,0.20493
1811.09184,0.20278
1809.16310,0.20068
1807.23435,0.19867
1805.30561,0.19642
1803.37686,0.19390
1801.44812,0.19133
1799.51937,0.18891
1797.59063,0.18654
1795.66188,0.18410
1793.73314,0.18156
1791.80439,0.17905
1789.87565,0.17685
1787.94690,0.17466
1786.01815,0.17212
1784.08941,0.16935
1782.16066,0.16648
1780.23192,0.16343
1778.30317,0.16030
1776.37443,0.15715
1774.44568,0.15361
1772.51694,0.14949
1770.58819,0.14537
1768.65945,0.14133
1766.73070,0.13697
1764.80196,0.13248
1762.87321,0.12753
1760.94447,0.12204
1759.01572,0.11687
1757.08697,0.11195
1755.15823,0.10712
1753.22948,0.10230
1751.30074,0.09680
1749.37199,0.09082
1747.44325,0.08538
1745.51450,0.08066
1743.58576,0.07651
1741.65701,0.07288
1739.72827,0.06991
1737.79952,0.06795
1735.87078,0.06659
1733.94203,0.06513
1732.01329,0.06413
1730.08454,0.06384
1728.15580,0.06365
1726.22705,0.06339
1724.29830,0.06311
1722.36956,0.06270
1720.44081,0.06206
1718.51207,0.06101
1716.58332,0.05980
1714.65458,0.05886
1712.72583,0.05794
1710.79709,0.05664
1708.86834,0.05487
1706.93960,0.05270
1705.01085,0.05048
1703.08211,0.04845
1701.15336,0.04585
1699.22462,0.04247
1697.29587,0.03943
1695.36713,0.03644
1693.43838,0.03342
1691.50963,0.03062
1689.58089,0.02784
1687.65214,0.02538
1685.72340,0.02309
1683.79465,0.02075
1681.86591,0.01906
1679.93716,0.01811
1678.00842,0.01750
1676.07967,0.01689
1674.15093,0.01624
1672.22218,0.01588
1670.29344,0.01581
1668.36469,0.01584
1666.43595,0.01596
1664.50720,0.01616
1662.57845,0.01657
1660.64971,0.01710
1658.72096,0.01760
1656.79222,0.01823
1654.86347,0.01905
1652.93473,0.02027
1651.00598,0.02179
1649.07724,0.02339
1647.14849,0.02550
1645.21975,0.02798
1643.29100,0.03002
1641.36226,0.03146
1639.43351,0.03244
1637.50477,0.03286
1635.57602,0.03233
1633.64728,0.03109
1631.71853,0.03002
1629.78978,0.02938
1627.86104,0.02889
1625.93229,0.02830
1624.00355,0.02763
1622.07480,0.02713
1620.14606,0.02678
1618.21731,0.02640
1616.28857,0.02603
1614.35982,0.02579
1612.43108,0.02571
1610.50233,0.02562
1608.57359,0.02547
1606.64484,0.02539
1604.71610,0.02529
1602.78735,0.02514
1600.85861,0.02504
1598.92986,0.02485
1597.00111,0.02447
1595.07237,0.02400
1593.14362,0.02352
1591.21488,0.02312
1589.28613,0.02285
1587.35739,0.02247
1585.42864,0.02184
1583.49990,0.02111
1581.57115,0.02052
1579.64241,0.02004
1577.71366,0.01953
1575.78492,0.01912
1573.85617,0.01918
1571.92743,0.01954
1569.99868,0.01964
1568.06993,0.01951
1566.14119,0.01963
1564.21244,0.01999
1562.28370,0.02040
1560.35495,0.02076
1558.42621,0.02094
1556.49746,0.02114
1554.56872,0.02154
1552.63997,0.02228
1550.71123,0.02360
1548.78248,0.02549
1546.85374,0.02744
1544.92499,0.02906
1542.99625,0.03032
1541.06750,0.03127
1539.13876,0.03180
1537.21001,0.03193
1535.28126,0.03175
1533.35252,0.03124
1531.42377,0.03078
1529.49503,0.03061
1527.56628,0.03049
1525.63754,0.03016
1523.70879,0.02974
1521.78005,0.02935
1519.85130,0.02904
1517.92256,0.02885
1515.99381,0.02875
1514.06507,0.02874
1512.13632,0.02887
1510.20758,0.02905
1508.27883,0.02906
1506.35008,0.02891
1504.42134,0.02899
1502.49259,0.02929
1500.56385,0.02971
1498.63510,0.03027
1496.70636,0.03064
1494.77761,0.03062
1492.84887,0.03057
1490.92012,0.03062
1488.99138,0.03030
1487.06263,0.02947
1485.13389,0.02857
1483.20514,0.02782
1481.27640,0.02711
1479.34765,0.02648
1477.41891,0.02613
1475.49016,0.02609
1473.56141,0.02607
1471.63267,0.02597
1469.70392,0.02594
1467.77518,0.02589
1465.84643,0.02578
1463.91769,0.02582
1461.98894,0.02609
1460.06020,0.02626
1458.13145,0.02614
1456.20271,0.02586
1454.27396,0.02579
1452.34522,0.02591
1450.41647,0.02599
1448.48773,0.02600
1446.55898,0.02606
1444.63024,0.02613
1442.70149,0.02605
1440.77274,0.02589
1438.84400,0.02583
1436.91525,0.02592
1434.98651,0.02618
1433.05776,0.02660
1431.12902,0.02704
1429.20027,0.02733
1427.27153,0.02729
1425.34278,0.02705
1423.41404,0.02694
1421.48529,0.02706
1419.55655,0.02727
1417.62780,0.02761
1415.69906,0.02829
1413.77031,0.02913
1411.84156,0.02983
1409.91282,0.03034
1407.98407,0.03080
1406.05533,0.03121
1404.12658,0.03144
1402.19784,0.03136
1400.26909,0.03097
1398.34035,0.03039
1396.41160,0.02982
1394.48286,0.02926
1392.55411,0.02872
1390.62537,0.02813
1388.69662,0.02726
1386.76788,0.02628
1384.83913,0.02559
1382.91039,0.02523
1380.98164,0.02505
1379.05289,0.02492
1377.12415,0.02482
1375.19540,0.02484
1373.26666,0.02497
1371.33791,0.02518
1369.40917,0.02549
1367.48042,0.02573
1365.55168,0.02586
1363.62293,0.02606
1361.69419,0.02640
1359.76544,0.02670
1357.83670,0.02684
1355.90795,0.02692
1353.97921,0.02706
1352.05046,0.02733
1350.12172,0.02773
1348.19297,0.02820
1346.26422,0.02862
1344.33548,0.02889
1342.40673,0.02915
1340.47799,0.02944
1338.54924,0.02957
1336.62050,0.02952
1334.69175,0.02949
1332.76301,0.02951
1330.83426,0.02945
1328.90552,0.02936
1326.97677,0.02950
1325.04803,0.02969
1323.11928,0.02951
1321.19054,0.02905
1319.26179,0.02856
1317.33304,0.02803
1315.40430,0.02764
1313.47555,0.02741
1311.54681,0.02712
1309.61806,0.02685
1307.68932,0.02676
1305.76057,0.02673
1303.83183,0.02654
1301.90308,0.02626
1299.97434,0.02614
1298.04559,0.02619
1296.11685,0.02626
1294.18810,0.02630
1292.25936,0.02639
1290.33061,0.02642
1288.40187,0.02625
1286.47312,0.02595
1284.54437,0.02568
1282.61563,0.02546
1280.68688,0.02528
1278.75814,0.02510
1276.82939,0.02489
1274.90065,0.02482
1272.97190,0.02495
1271.04316,0.02522
1269.11441,0.02554
1267.18567,0.02589
1265.25692,0.02630
1263.32818,0.02678
1261.39943,0.02714
1259.47069,0.02725
1257.54194,0.02739
1255.61320,0.02772
1253.68445,0.02805
1251.75570,0.02831
1249.82696,0.02846
1247.89821,0.02840
1245.96947,0.02825
1244.04072,0.02818
1242.11198,0.02825
1240.18323,0.02828
1238.25449,0.02820
1236.32574,0.02836
1234.39700,0.02886
1232.46825,0.02942
1230.53951,0.03011
1228.61076,0.03124
1226.68202,0.03269
1224.75327,0.03377
1222.82452,0.03373
1220.89578,0.03253
1218.96703,0.03088
1217.03829,0.02940
1215.10954,0.02831
1213.18080,0.02785
1211.25205,0.02799
1209.32331,0.02833
1207.39456,0.02853
1205.46582,0.02856
1203.53707,0.02871
1201.60833,0.02930
1199.67958,0.03022
1197.75084,0.03119
1195.82209,0.03202
1193.89335,0.03287
1191.96460,0.03385
1190.03585,0.03488
1188.10711,0.03581
1186.17836,0.03639
1184.24962,0.03637
1182.32087,0.03567
1180.39213,0.03432
1178.46338,0.03247
1176.53464,0.03069
1174.60589,0.02938
1172.67715,0.02852
1170.74840,0.02816
1168.81966,0.02855
1166.89091,0.02987
1164.96217,0.03216
1163.03342,0.03531
1161.10467,0.03896
1159.17593,0.04263
1157.24718,0.04614
1155.31844,0.04948
1153.38969,0.05271
1151.46095,0.05593
1149.53220,0.05922
1147.60346,0.06250
1145.67471,0.06563
1143.74597,0.06847
1141.81722,0.07073
1139.88848,0.07214
1137.95973,0.07251
1136.03099,0.07148
1134.10224,0.06852
1132.17350,0.06356
1130.24475,0.05745
1128.31600,0.05159
1126.38726,0.04693
1124.45851,0.04381
1122.52977,0.04231
1120.60102,0.04211
1118.67228,0.04281
1116.74353,0.04436
1114.81479,0.04670
1112.88604,0.04946
1110.95730,0.05220
1109.02855,0.05492
1107.09981,0.05798
1105.17106,0.06133
1103.24232,0.06454
1101.31357,0.06750
1099.38483,0.07000
1097.45608,0.07152
1095.52733,0.07189
1093.59859,0.07128
1091.66984,0.07005
1089.74110,0.06862
1087.81235,0.06696
1085.88361,0.06500
1083.95486,0.06306
1082.02612,0.06125
1080.09737,0.05980
1078.16863,0.05921
1076.23988,0.05950
1074.31114,0.06041
1072.38239,0.06200
1070.45365,0.06409
1068.52490,0.06629
1066.59615,0.06866
1064.66741,0.07122
1062.73866,0.07368
1060.80992,0.07608
1058.88117,0.07846
1056.95243,0.08050
1055.02368,0.08203
1053.09494,0.08284
1051.16619,0.08258
1049.23745,0.08137
1047.30870,0.07956
1045.37996,0.07720
1043.45121,0.07467
1041.52247,0.07291
1039.59372,0.07246
1037.66498,0.07267
1035.73623,0.07264
1033.80748,0.07209
1031.87874,0.07141
1029.94999,0.07163
1028.02125,0.07388
1026.09250,0.07830
1024.16376,0.08354
1022.23501,0.08793
1020.30627,0.09110
1018.37752,0.09347
1016.44878,0.09517
1014.52003,0.09615
1012.59129,0.09652
1010.66254,0.09645
1008.73380,0.09584
1006.80505,0.09446
1004.87631,0.09238
1002.94756,0.09006
1001.01881,0.08830
999.09007,0.08779
997.16132,0.08829
995.23258,0.08856
993.30383,0.08769
991.37509,0.08580
989.44634,0.08345
987.51760,0.08089
985.58885,0.07845
983.66011,0.07648
981.73136,0.07465
979.80262,0.07237
977.87387,0.06987
975.94513,0.06809
974.01638,0.06782
972.08763,0.06917
970.15889,0.07146
968.23014,0.07362
966.30140,0.07452
964.37265,0.07346
962.44391,0.07125
960.51516,0.07011
958.58642,0.07173
956.65767,0.07529
954.72893,0.07853
952.80018,0.08053
950.87144,0.08277
948.94269,0.08693
947.01395,0.09241
945.08520,0.09702
943.15646,0.09951
941.22771,0.09971
939.29896,0.09756
937.37022,0.09310
935.44147,0.08689
933.51273,0.07983
931.58398,0.07351
929.65524,0.06989
927.72649,0.07020
925.79775,0.07435
923.86900,0.08087
921.94026,0.08772
920.01151,0.09355
918.08277,0.09813
916.15402,0.10190
914.22528,0.10535
912.29653,0.10888
910.36779,0.11250
908.43904,0.11581
906.51029,0.11861
904.58155,0.12103
902.65280,0.12279
900.72406,0.12370
898.79531,0.12414
896.86657,0.12442
894.93782,0.12420
893.00908,0.12329
891.08033,0.12265
889.15159,0.12311
887.22284,0.12409
885.29410,0.12494
883.36535,0.12574
881.43661,0.12657
879.50786,0.12731
877.57911,0.12773
875.65037,0.12775
873.72162,0.12760
871.79288,0.12763
869.86413,0.12768
867.93539,0.12743
866.00664,0.12690
864.07790,0.12609
862.14915,0.12506
860.22041,0.12393
858.29166,0.12280
856.36292,0.12183
854.43417,0.12084
852.50543,0.11958
850.57668,0.11799
848.64794,0.11605
846.71919,0.11380
844.79044,0.11125
842.86170,0.10834
840.93295,0.10488
839.00421,0.10066
837.07546,0.09596
835.14672,0.09234
833.21797,0.09163
831.28923,0.09372
829.36048,0.09658
827.43174,0.09862
825.50299,0.09965
823.57425,0.09982
821.64550,0.09922
819.71676,0.09814
817.78801,0.09671
815.85926,0.09502
813.93052,0.09310
812.00177,0.09101
810.07303,0.08886
808.14428,0.08653
806.21554,0.08393
804.28679,0.08127
802.35805,0.07871
800.42930,0.07616
798.50056,0.07361
796.57181,0.07122
794.64307,0.06905
792.71432,0.06690
790.78558,0.06453
788.85683,0.06216
786.92809,0.06013
784.99934,0.05835
783.07059,0.05640
781.14185,0.05407
779.21310,0.05188
777.28436,0.05051
775.35561,0.04991
773.42687,0.04952
771.49812,0.04888
769.56938,0.04798
767.64063,0.04693
765.71189,0.04572
763.78314,0.04448
761.85440,0.04313
759.92565,0.04139
757.99691,0.03934
756.06816,0.03765
754.13942,0.03674
752.21067,0.03619
750.28192,0.03542
748.35318,0.03425
746.42443,0.03302
744.49569,0.03225
742.56694,0.03186
740.63820,0.03151
738.70945,0.03097
736.78071,0.02983
734.85196,0.02819
732.92322,0.02711
730.99447,0.02676
729.06573,0.02644
727.13698,0.02637
725.20824,0.02681
723.27949,0.02697
721.35074,0.02663
719.42200,0.02628
717.49325,0.02590
715.56451,0.02550
713.63576,0.02558
711.70702,0.02603
709.77827,0.02646
707.84953,0.02683
705.92078,0.02709
703.99204,0.02712
702.06329,0.02705
700.13455,0.02701
698.20580,0.02702
696.27706,0.02730
694.34831,0.02788
692.41957,0.02845
690.49082,0.02905
688.56207,0.02974
686.63333,0.03028
684.70458,0.03050
682.77584,0.03047
680.84709,0.03081
678.91835,0.03210
676.98960,0.03361
675.06086,0.03447
673.13211,0.03489
671.20337,0.03524
669.27462,0.03587
667.34588,0.03705
665.41713,0.03842
663.48839,0.04001
661.55964,0.04189
659.63090,0.04342
657.70215,0.04435
655.77340,0.04533
653.84466,0.04657
651.91591,0.04779
649.98717,0.04868
648.05842,0.04896
646.12968,0.04885
644.20093,0.04885
642.27219,0.04884
640.34344,0.04861
638.41470,0.04818
636.48595,0.04736
634.55721,0.04591
632.62846,0.04445
630.69972,0.04378
628.77097,0.04369
626.84222,0.04389
624.91348,0.04463
622.98473,0.04547
621.05599,0.04577
619.12724,0.04607
617.19850,0.04710
615.26975,0.04806
613.34101,0.04725
611.41226,0.04521
609.48352,0.04454
607.55477,0.04545
605.62603,0.04573
603.69728,0.04501
601.76854,0.04459
599.83979,0.04446
