7497.02977,0.84268
7495.10103,0.84188
7493.17228,0.83823
7491.24354,0.83947
7489.31479,0.84337
7487.38605,0.83967
7485.45730,0.82866
7483.52856,0.82046
7481.59982,0.81963
7479.67107,0.82409
7477.74233,0.83074
7475.81358,0.83445
7473.88484,0.83160
7471.95609,0.82856
7470.02735,0.83105
7468.09860,0.83480
7466.16986,0.83574
7464.24112,0.83541
7462.31237,0.83617
7460.38363,0.83617
7458.45488,0.83271
7456.52614,0.82822
7454.59739,0.82631
7452.66865,0.82611
7450.73990,0.82583
7448.81116,0.82686
7446.88242,0.82973
7444.95367,0.83231
7443.02493,0.83202
7441.09618,0.83005
7439.16744,0.83105
7437.23869,0.83349
7435.30995,0.83229
7433.38120,0.82986
7431.45246,0.83150
7429.52371,0.83541
7427.59497,0.83656
7425.66623,0.83415
7423.73748,0.83152
7421.80874,0.83231
7419.87999,0.83326
7417.95125,0.83069
7416.02250,0.82935
7414.09376,0.83090
7412.16501,0.82992
7410.23627,0.82621
7408.30753,0.82418
7406.37878,0.82358
7404.45004,0.82315
7402.52129,0.82364
7400.59255,0.82272
7398.66380,0.81951
7396.73506,0.81768
7394.80631,0.81692
7392.87757,0.81475
7390.94883,0.81321
7389.02008,0.81257
7387.09134,0.81277
7385.16259,0.81672
7383.23385,0.82294
7381.30510,0.82666
7379.37636,0.82651
7377.44761,0.82687
7375.51887,0.82920
7373.59013,0.82786
7371.66138,0.82282
7369.73264,0.81863
7367.80389,0.81664
7365.87515,0.81715
7363.94640,0.81936
7362.01766,0.82177
7360.08891,0.82216
7358.16017,0.81893
7356.23142,0.81603
7354.30268,0.81795
7352.37394,0.82339
7350.44519,0.82939
7348.51645,0.83181
7346.58770,0.82847
7344.65896,0.82471
7342.73021,0.82429
7340.80147,0.82304
7338.87272,0.81811
7336.94398,0.81440
7335.01524,0.81608
7333.08649,0.82043
7331.15775,0.82260
7329.22900,0.82123
7327.30026,0.81929
7325.37151,0.82066
7323.44277,0.82556
7321.51402,0.82779
7319.58528,0.82358
7317.65654,0.81872
7315.72779,0.81560
7313.79905,0.81235
7311.87030,0.81243
7309.94156,0.81700
7308.01281,0.82010
7306.08407,0.81875
7304.15532,0.81647
7302.22658,0.81722
7300.29784,0.82112
7298.36909,0.82369
7296.44035,0.82311
7294.51160,0.82282
7292.58286,0.82293
7290.65411,0.82070
7288.72537,0.81766
7286.79662,0.81614
7284.86788,0.81514
7282.93913,0.81528
7281.01039,0.81789
7279.08165,0.82177
7277.15290,0.82371
7275.22416,0.81990
7273.29541,0.81419
7271.36667,0.81420
7269.43792,0.81843
7267.50918,0.81993
7265.58043,0.81871
7263.65169,0.81855
7261.72295,0.81585
7259.79420,0.80996
7257.86546,0.80936
7255.93671,0.81528
7254.00797,0.82037
7252.07922,0.82313
7250.15048,0.82614
7248.22173,0.82510
7246.29299,0.81911
7244.36425,0.81711
7242.43550,0.81967
7240.50676,0.81916
7238.57801,0.81623
7236.64927,0.81519
7234.72052,0.81477
7232.79178,0.81312
7230.86303,0.81053
7228.93429,0.80879
7227.00554,0.81078
7225.07680,0.81420
7223.14806,0.81471
7221.21931,0.81437
7219.29057,0.81548
7217.36182,0.81546
7215.43308,0.81329
7213.50433,0.81193
7211.57559,0.81285
7209.64684,0.81381
7207.71810,0.81230
7205.78936,0.80992
7203.86061,0.81004
7201.93187,0.81190
7200.00312,0.81364
7198.07438,0.81551
7196.14563,0.81548
7194.21689,0.81257
7192.28814,0.81215
7190.35940,0.81590
7188.43066,0.81879
7186.50191,0.81883
7184.57317,0.81568
7182.64442,0.81013
7180.71568,0.80610
7178.78693,0.80468
7176.85819,0.80583
7174.92944,0.80920
7173.00070,0.81212
7171.07196,0.81503
7169.14321,0.81794
7167.21447,0.81858
7165.28572,0.81939
7163.35698,0.82049
7161.42823,0.81844
7159.49949,0.81571
7157.57074,0.81497
7155.64200,0.81362
7153.71325,0.80884
7151.78451,0.80378
7149.85577,0.80381
7147.92702,0.80663
7145.99828,0.80693
7144.06953,0.80470
7142.14079,0.80346
7140.21204,0.80632
7138.28330,0.81085
7136.35455,0.81072
7134.42581,0.80651
7132.49707,0.80580
7130.56832,0.80896
7128.63958,0.81043
7126.71083,0.81039
7124.78209,0.81112
7122.85334,0.81370
7120.92460,0.81716
7118.99585,0.81604
7117.06711,0.80944
7115.13837,0.80409
7113.20962,0.80508
7111.28088,0.81067
7109.35213,0.81356
7107.42339,0.81098
7105.49464,0.80825
7103.56590,0.80600
7101.63715,0.80142
7099.70841,0.79927
7097.77967,0.80346
7095.85092,0.80893
7093.92218,0.81065
7091.99343,0.80897
7090.06469,0.80510
7088.13594,0.80172
7086.20720,0.80342
7084.27845,0.80833
7082.34971,0.81054
7080.42096,0.80900
7078.49222,0.80538
7076.56348,0.80296
7074.63473,0.80368
7072.70599,0.80470
7070.77724,0.80447
7068.84850,0.80436
7066.91975,0.80542
7064.99101,0.80732
7063.06226,0.80799
7061.13352,0.80800
7059.20478,0.80945
7057.27603,0.80881
7055.34729,0.80396
7053.41854,0.80148
7051.48980,0.80378
7049.56105,0.80478
7047.63231,0.80317
7045.70356,0.80190
7043.77482,0.80046
7041.84608,0.79944
7039.91733,0.80026
7037.98859,0.80010
7036.05984,0.79705
7034.13110,0.79350
7032.20235,0.79252
7030.27361,0.79677
7028.34486,0.80464
7026.41612,0.80922
7024.48738,0.80882
7022.55863,0.80864
7020.62989,0.80899
7018.70114,0.80605
7016.77240,0.80192
7014.84365,0.80160
7012.91491,0.80480
7010.98616,0.80802
7009.05742,0.80891
7007.12867,0.80636
7005.19993,0.80307
7003.27119,0.80433
7001.34244,0.80959
6999.41370,0.81273
6997.48495,0.81127
6995.55621,0.80977
6993.62746,0.81139
6991.69872,0.81149
6989.76997,0.80720
6987.84123,0.80186
6985.91249,0.79884
6983.98374,0.80108
6982.05500,0.80683
6980.12625,0.80927
6978.19751,0.80811
6976.26876,0.80692
6974.34002,0.80627
6972.41127,0.80668
6970.48253,0.80661
6968.55379,0.80423
6966.62504,0.80304
6964.69630,0.80580
6962.76755,0.80751
6960.83881,0.80416
6958.91006,0.80124
6956.98132,0.80160
6955.05257,0.80093
6953.12383,0.79914
6951.19509,0.79917
6949.26634,0.80085
6947.33760,0.80328
6945.40885,0.80582
6943.48011,0.80644
6941.55136,0.80550
6939.62262,0.80663
6937.69387,0.80914
6935.76513,0.80961
6933.83638,0.80817
6931.90764,0.80738
6929.97890,0.80932
6928.05015,0.81187
6926.12141,0.81155
6924.19266,0.80947
6922.26392,0.80831
6920.33517,0.80760
6918.40643,0.80494
6916.47768,0.80137
6914.54894,0.80046
6912.62020,0.80234
6910.69145,0.80498
6908.76271,0.80729
6906.83396,0.80960
6904.90522,0.81260
6902.97647,0.81514
6901.04773,0.81569
6899.11898,0.81401
6897.19024,0.81219
6895.26150,0.81307
6893.33275,0.81444
6891.40401,0.81264
6889.47526,0.80996
6887.54652,0.80910
6885.61777,0.80791
6883.68903,0.80538
6881.76028,0.80308
6879.83154,0.80160
6877.90280,0.80305
6875.97405,0.80758
6874.04531,0.81004
6872.11656,0.80882
6870.18782,0.80681
6868.25907,0.80575
6866.33033,0.80615
6864.40158,0.80683
6862.47284,0.80604
6860.54409,0.80425
6858.61535,0.80367
6856.68661,0.80473
6854.75786,0.80620
6852.82912,0.80730
6850.90037,0.80624
6848.97163,0.80345
6847.04288,0.80362
6845.11414,0.80849
6843.18539,0.81432
6841.25665,0.81646
6839.32791,0.81368
6837.39916,0.80966
6835.47042,0.80816
6833.54167,0.80878
6831.61293,0.81016
6829.68418,0.81154
6827.75544,0.81195
6825.82669,0.81140
6823.89795,0.80964
6821.96921,0.80703
6820.04046,0.80665
6818.11172,0.80894
6816.18297,0.81068
6814.25423,0.81132
6812.32548,0.81209
6810.39674,0.81327
6808.46799,0.81460
6806.53925,0.81392
6804.61051,0.80999
6802.68176,0.80672
6800.75302,0.80726
6798.82427,0.80922
6796.89553,0.80974
6794.96678,0.80963
6793.03804,0.81045
6791.10929,0.81050
6789.18055,0.80892
6787.25180,0.80944
6785.32306,0.81160
6783.39432,0.81066
6781.46557,0.80803
6779.53683,0.80710
6777.60808,0.80768
6775.67934,0.80895
6773.75059,0.81055
6771.82185,0.81187
6769.89310,0.81178
6767.96436,0.81058
6766.03562,0.80968
6764.10687,0.80855
6762.17813,0.80768
6760.24938,0.80834
6758.32064,0.80988
6756.39189,0.81204
6754.46315,0.81352
6752.53440,0.81201
6750.60566,0.80964
6748.67692,0.80962
6746.74817,0.81182
6744.81943,0.81476
6742.89068,0.81615
6740.96194,0.81472
6739.03319,0.81252
6737.10445,0.81197
6735.17570,0.81339
6733.24696,0.81504
6731.31822,0.81456
6729.38947,0.81218
6727.46073,0.81061
6725.53198,0.81075
6723.60324,0.81066
6721.67449,0.80883
6719.74575,0.80664
6717.81700,0.80648
6715.88826,0.80811
6713.95951,0.81042
6712.03077,0.81298
6710.10203,0.81451
6708.17328,0.81523
6706.24454,0.81544
6704.31579,0.81374
6702.38705,0.81183
6700.45830,0.81158
6698.52956,0.81135
6696.60081,0.81089
6694.67207,0.81179
6692.74333,0.81361
6690.81458,0.81354
6688.88584,0.81173
6686.95709,0.81147
6685.02835,0.81259
6683.09960,0.81333
6681.17086,0.81479
6679.24211,0.81668
6677.31337,0.81674
6675.38463,0.81548
6673.45588,0.81433
6671.52714,0.81286
6669.59839,0.81078
6667.66965,0.80925
6665.74090,0.81101
6663.81216,0.81567
6661.88341,0.81794
6659.95467,0.81512
6658.02593,0.80983
6656.09718,0.80715
6654.16844,0.80931
6652.23969,0.81210
6650.31095,0.81178
6648.38220,0.81067
6646.45346,0.81081
6644.52471,0.81109
6642.59597,0.81074
6640.66722,0.81005
6638.73848,0.80940
6636.80974,0.80914
6634.88099,0.80979
6632.95225,0.81126
6631.02350,0.81240
6629.09476,0.81206
6627.16601,0.81069
6625.23727,0.81177
6623.30852,0.81600
6621.37978,0.81856
6619.45104,0.81794
6617.52229,0.81770
6615.59355,0.81898
6613.66480,0.81848
6611.73606,0.81551
6609.80731,0.81383
6607.87857,0.81351
6605.94982,0.81256
6604.02108,0.81218
6602.09234,0.81310
6600.16359,0.81461
6598.23485,0.81625
6596.30610,0.81664
6594.37736,0.81602
6592.44861,0.81602
6590.51987,0.81559
6588.59112,0.81428
6586.66238,0.81412
6584.73364,0.81642
6582.80489,0.82002
6580.87615,0.82162
6578.94740,0.81966
6577.01866,0.81544
6575.08991,0.81277
6573.16117,0.81461
6571.23242,0.81777
6569.30368,0.81892
6567.37493,0.81843
6565.44619,0.81740
6563.51745,0.81748
6561.58870,0.81851
6559.65996,0.81974
6557.73121,0.82182
6555.80247,0.82249
6553.87372,0.82032
6551.94498,0.81846
6550.01623,0.81723
6548.08749,0.81485
6546.15875,0.81350
6544.23000,0.81402
6542.30126,0.81493
6540.37251,0.81609
6538.44377,0.81671
6536.51502,0.81696
6534.58628,0.81792
6532.65753,0.81865
6530.72879,0.81906
6528.80005,0.82055
6526.87130,0.82221
6524.94256,0.82193
6523.01381,0.81959
6521.08507,0.81594
6519.15632,0.81246
6517.22758,0.81170
6515.29883,0.81347
6513.37009,0.81549
6511.44135,0.81677
6509.51260,0.81712
6507.58386,0.81613
6505.65511,0.81447
6503.72637,0.81460
6501.79762,0.81663
6499.86888,0.81747
6497.94013,0.81654
6496.01139,0.81602
6494.08264,0.81624
6492.15390,0.81566
6490.22516,0.81408
6488.29641,0.81332
6486.36767,0.81491
6484.43892,0.81749
6482.51018,0.81818
6480.58143,0.81745
6478.65269,0.81667
6476.72394,0.81528
6474.79520,0.81393
6472.86646,0.81329
6470.93771,0.81385
6469.00897,0.81642
6467.08022,0.81835
6465.15148,0.81767
6463.22273,0.81731
6461.29399,0.81821
6459.36524,0.81826
6457.43650,0.81712
6455.50776,0.81547
6453.57901,0.81390
6451.65027,0.81342
6449.72152,0.81406
6447.79278,0.81419
6445.86403,0.81347
6443.93529,0.81406
6442.00654,0.81573
6440.07780,0.81551
6438.14906,0.81372
6436.22031,0.81282
6434.29157,0.81254
6432.36282,0.81199
6430.43408,0.81217
6428.50533,0.81362
6426.57659,0.81580
6424.64784,0.81773
6422.71910,0.81873
6420.79035,0.81887
6418.86161,0.81833
6416.93287,0.81886
6415.00412,0.82130
6413.07538,0.82258
6411.14663,0.82011
6409.21789,0.81596
6407.28914,0.81418
6405.36040,0.81523
6403.43165,0.81690
6401.50291,0.81830
6399.57417,0.81895
6397.64542,0.81855
6395.71668,0.81794
6393.78793,0.81753
6391.85919,0.81757
6389.93044,0.81941
6388.00170,0.82216
6386.07295,0.82289
6384.14421,0.82190
6382.21547,0.82136
6380.28672,0.82123
6378.35798,0.82004
6376.42923,0.81815
6374.50049,0.81751
6372.57174,0.81791
6370.64300,0.81833
6368.71425,0.81908
6366.78551,0.82035
6364.85677,0.82136
6362.92802,0.82005
6360.99928,0.81655
6359.07053,0.81463
6357.14179,0.81569
6355.21304,0.81755
6353.28430,0.81863
6351.35555,0.81886
6349.42681,0.81826
6347.49806,0.81716
6345.56932,0.81644
6343.64058,0.81647
6341.71183,0.81738
6339.78309,0.81869
6337.85434,0.81823
6335.92560,0.81501
6333.99685,0.81247
6332.06811,0.81398
6330.13936,0.81777
6328.21062,0.82090
6326.28188,0.82234
6324.35313,0.82122
6322.42439,0.81856
6320.49564,0.81674
6318.56690,0.81600
6316.63815,0.81572
6314.70941,0.81609
6312.78066,0.81736
6310.85192,0.81919
6308.92318,0.82004
6306.99443,0.81939
6305.06569,0.81861
6303.13694,0.81701
6301.20820,0.81366
6299.27945,0.81138
6297.35071,0.81164
6295.42196,0.81238
6293.49322,0.81286
6291.56447,0.81312
6289.63573,0.81330
6287.70699,0.81513
6285.77824,0.81755
6283.84950,0.81765
6281.92075,0.81697
6279.99201,0.81741
6278.06326,0.81711
6276.13452,0.81583
6274.20577,0.81541
6272.27703,0.81529
6270.34829,0.81486
6268.41954,0.81436
6266.49080,0.81369
6264.56205,0.81486
6262.63331,0.81760
6260.70456,0.81801
6258.77582,0.81555
6256.84707,0.81297
6254.91833,0.81237
6252.98959,0.81339
6251.06084,0.81410
6249.13210,0.81317
6247.20335,0.81141
6245.27461,0.81171
6243.34586,0.81408
6241.41712,0.81514
6239.48837,0.81498
6237.55963,0.81578
6235.63089,0.81668
6233.70214,0.81646
6231.77340,0.81536
6229.84465,0.81312
6227.91591,0.81128
6225.98716,0.81231
6224.05842,0.81584
6222.12967,0.81910
6220.20093,0.81871
6218.27218,0.81451
6216.34344,0.81038
6214.41470,0.80922
6212.48595,0.81013
6210.55721,0.81066
6208.62846,0.81014
6206.69972,0.80916
6204.77097,0.80825
6202.84223,0.80743
6200.91348,0.80599
6198.98474,0.80416
6197.05600,0.80252
6195.12725,0.80090
6193.19851,0.79995
6191.26976,0.80022
6189.34102,0.80114
6187.41227,0.80302
6185.48353,0.80539
6183.55478,0.80638
6181.62604,0.80639
6179.69730,0.80586
6177.76855,0.80426
6175.83981,0.80324
6173.91106,0.80410
6171.98232,0.80557
6170.05357,0.80603
6168.12483,0.80565
6166.19608,0.80544
6164.26734,0.80522
6162.33860,0.80463
6160.40985,0.80414
6158.48111,0.80350
6156.55236,0.80161
6154.62362,0.79974
6152.69487,0.79982
6150.76613,0.79979
6148.83738,0.79733
6146.90864,0.79374
6144.97989,0.79199
6143.05115,0.79300
6141.12241,0.79465
6139.19366,0.79561
6137.26492,0.79622
6135.33617,0.79643
6133.40743,0.79623
6131.47868,0.79537
6129.54994,0.79383
6127.62119,0.79288
6125.69245,0.79259
6123.76371,0.79194
6121.83496,0.79185
6119.90622,0.79257
6117.97747,0.79228
6116.04873,0.79133
6114.11998,0.79017
6112.19124,0.78709
6110.26249,0.78260
6108.33375,0.77896
6106.40501,0.77660
6104.47626,0.77535
6102.54752,0.77511
6100.61877,0.77402
6098.69003,0.76978
6096.76128,0.76436
6094.83254,0.76182
6092.90379,0.76112
6090.97505,0.75896
6089.04631,0.75545
6087.11756,0.75216
6085.18882,0.74987
6083.26007,0.74852
6081.33133,0.74702
6079.40258,0.74482
6077.47384,0.74272
6075.54509,0.74066
6073.61635,0.73747
6071.68760,0.73384
6069.75886,0.73144
6067.83012,0.72952
6065.90137,0.72682
6063.97263,0.72460
6062.04388,0.72275
6060.11514,0.71916
6058.18639,0.71511
6056.25765,0.71262
6054.32890,0.70983
6052.40016,0.70544
6050.47142,0.70199
6048.54267,0.70124
6046.61393,0.70125
6044.68518,0.69984
6042.75644,0.69710
6040.82769,0.69430
6038.89895,0.69175
6036.97020,0.68889
6035.04146,0.68616
6033.11272,0.68421
6031.18397,0.68281
6029.25523,0.68147
6027.32648,0.67949
6025.39774,0.67760
6023.46899,0.67706
6021.54025,0.67683
6019.61150,0.67613
6017.68276,0.67610
6015.75402,0.67738
6013.82527,0.67925
6011.89653,0.68045
6009.96778,0.68134
6008.03904,0.68311
6006.11029,0.68586
6004.18155,0.68956
6002.25280,0.69352
6000.32406,0.69705
5998.39531,0.70063
5996.46657,0.70408
5994.53783,0.70657
5992.60908,0.70787
5990.68034,0.70907
5988.75159,0.71087
5986.82285,0.71142
5984.89410,0.70978
5982.96536,0.70846
5981.03661,0.70905
5979.10787,0.71030
5977.17913,0.71126
5975.25038,0.71198
5973.32164,0.71309
5971.39289,0.71537
5969.46415,0.71809
5967.53540,0.71989
5965.60666,0.72111
5963.67791,0.72264
5961.74917,0.72398
5959.82043,0.72442
5957.89168,0.72516
5955.96294,0.72738
5954.03419,0.72876
5952.10545,0.72776
5950.17670,0.72770
5948.24796,0.72950
5946.31921,0.72910
5944.39047,0.72583
5942.46173,0.72415
5940.53298,0.72628
5938.60424,0.72928
5936.67549,0.73088
5934.74675,0.73282
5932.81800,0.73627
5930.88926,0.73903
5928.96051,0.74002
5927.03177,0.74136
5925.10302,0.74392
5923.17428,0.74613
5921.24554,0.74768
5919.31679,0.74953
5917.38805,0.75154
5915.45930,0.75353
5913.53056,0.75603
5911.60181,0.75834
5909.67307,0.75936
5907.74432,0.75946
5905.81558,0.75890
5903.88684,0.75780
5901.95809,0.75776
5900.02935,0.75899
5898.10060,0.75960
5896.17186,0.75973
5894.24311,0.75966
5892.31437,0.75776
5890.38562,0.75541
5888.45688,0.75537
5886.52814,0.75628
5884.59939,0.75580
5882.67065,0.75444
5880.74190,0.75300
5878.81316,0.75108
5876.88441,0.74894
5874.95567,0.74762
5873.02692,0.74659
5871.09818,0.74539
5869.16944,0.74497
5867.24069,0.74468
5865.31195,0.74402
5863.38320,0.74433
5861.45446,0.74501
5859.52571,0.74467
5857.59697,0.74398
5855.66822,0.74394
5853.73948,0.74496
5851.81073,0.74646
5849.88199,0.74719
5847.95325,0.74789
5846.02450,0.74964
5844.09576,0.75113
5842.16701,0.75144
5840.23827,0.75130
5838.30952,0.75123
5836.38078,0.75151
5834.45203,0.75218
5832.52329,0.75270
5830.59455,0.75238
5828.66580,0.75126
5826.73706,0.74979
5824.80831,0.74805
5822.87957,0.74701
5820.95082,0.74782
5819.02208,0.74905
5817.09333,0.74796
5815.16459,0.74500
5813.23585,0.74344
5811.30710,0.74452
5809.37836,0.74648
5807.44961,0.74797
5805.52087,0.74889
5803.59212,0.74901
5801.66338,0.74870
5799.73463,0.74901
5797.80589,0.74928
5795.87715,0.74871
5793.94840,0.74895
5792.01966,0.75062
5790.09091,0.75177
5788.16217,0.75158
5786.23342,0.75111
5784.30468,0.75103
5782.37593,0.75190
5780.44719,0.75369
5778.51844,0.75424
5776.58970,0.75268
5774.66096,0.75115
5772.73221,0.75136
5770.80347,0.75329
5768.87472,0.75605
5766.94598,0.75782
5765.01723,0.75802
5763.08849,0.75822
5761.15974,0.75906
5759.23100,0.75966
5757.30226,0.76017
5755.37351,0.76124
5753.44477,0.76286
5751.51602,0.76431
5749.58728,0.76500
5747.65853,0.76506
5745.72979,0.76455
5743.80104,0.76397
5741.87230,0.76454
5739.94356,0.76635
5738.01481,0.76804
5736.08607,0.76889
5734.15732,0.76997
5732.22858,0.77171
5730.29983,0.77252
5728.37109,0.77177
5726.44234,0.77162
5724.51360,0.77341
5722.58486,0.77542
5720.65611,0.77594
5718.72737,0.77514
5716.79862,0.77371
5714.86988,0.77268
5712.94113,0.77334
5711.01239,0.77504
5709.08364,0.77543
5707.15490,0.77414
5705.22615,0.77316
5703.29741,0.77319
5701.36867,0.77344
5699.43992,0.77416
5697.51118,0.77542
5695.58243,0.77604
5693.65369,0.77578
5691.72494,0.77574
5689.79620,0.77655
5687.86745,0.77750
5685.93871,0.77745
5684.00997,0.77650
5682.08122,0.77558
5680.15248,0.77504
5678.22373,0.77493
5676.29499,0.77575
5674.36624,0.77763
5672.43750,0.77897
5670.50875,0.77855
5668.58001,0.77742
5666.65127,0.77660
5664.72252,0.77618
5662.79378,0.77615
5660.86503,0.77663
5658.93629,0.77811
5657.00754,0.77989
5655.07880,0.78044
5653.15005,0.77964
5651.22131,0.77818
5649.29257,0.77694
5647.36382,0.77733
5645.43508,0.77949
5643.50633,0.78143
5641.57759,0.78227
5639.64884,0.78310
5637.72010,0.78407
5635.79135,0.78387
5633.86261,0.78234
5631.93386,0.78132
5630.00512,0.78201
5628.07638,0.78360
5626.14763,0.78469
5624.21889,0.78505
5622.29014,0.78544
5620.36140,0.78588
5618.43265,0.78642
5616.50391,0.78690
5614.57516,0.78625
5612.64642,0.78546
5610.71768,0.78588
5608.78893,0.78611
5606.86019,0.78568
5604.93144,0.78604
5603.00270,0.78716
5601.07395,0.78789
5599.14521,0.78847
5597.21646,0.78901
5595.28772,0.78819
5593.35898,0.78603
5591.43023,0.78401
5589.50149,0.78287
5587.57274,0.78263
5585.64400,0.78278
5583.71525,0.78276
5581.78651,0.78221
5579.85776,0.78116
5577.92902,0.78100
5576.00028,0.78211
5574.07153,0.78257
5572.14279,0.78172
5570.21404,0.78119
5568.28530,0.78142
5566.35655,0.78127
5564.42781,0.78093
5562.49906,0.78140
5560.57032,0.78228
5558.64157,0.78225
5556.71283,0.78124
5554.78409,0.78061
5552.85534,0.78055
5550.92660,0.78038
5548.99785,0.78020
5547.06911,0.78014
5545.14036,0.78008
5543.21162,0.78019
5541.28287,0.78025
5539.35413,0.77966
5537.42539,0.77956
5535.49664,0.78087
5533.56790,0.78158
5531.63915,0.78110
5529.71041,0.78124
5527.78166,0.78205
5525.85292,0.78215
5523.92417,0.78166
5521.99543,0.78179
5520.06669,0.78248
5518.13794,0.78315
5516.20920,0.78396
5514.28045,0.78421
5512.35171,0.78349
5510.42296,0.78322
5508.49422,0.78413
5506.56547,0.78516
5504.63673,0.78545
5502.70799,0.78462
5500.77924,0.78320
5498.85050,0.78249
5496.92175,0.78245
5494.99301,0.78216
5493.06426,0.78162
5491.13552,0.78127
5489.20677,0.78111
5487.27803,0.78137
5485.34928,0.78207
5483.42054,0.78222
5481.49180,0.78185
5479.56305,0.78212
5477.63431,0.78265
5475.70556,0.78259
5473.77682,0.78257
5471.84807,0.78245
5469.91933,0.78145
5467.99058,0.78064
5466.06184,0.78118
5464.13310,0.78241
5462.20435,0.78305
5460.27561,0.78335
5458.34686,0.78455
5456.41812,0.78592
5454.48937,0.78613
5452.56063,0.78586
5450.63188,0.78590
5448.70314,0.78613
5446.77440,0.78678
5444.84565,0.78818
5442.91691,0.78992
5440.98816,0.79107
5439.05942,0.79105
5437.13067,0.79056
5435.20193,0.79109
5433.27318,0.79294
5431.34444,0.79472
5429.41569,0.79538
5427.48695,0.79531
5425.55821,0.79545
5423.62946,0.79610
5421.70072,0.79665
5419.77197,0.79662
5417.84323,0.79618
5415.91448,0.79573
5413.98574,0.79540
5412.05699,0.79518
5410.12825,0.79503
5408.19951,0.79442
5406.27076,0.79347
5404.34202,0.79313
5402.41327,0.79336
5400.48453,0.79348
5398.55578,0.79346
5396.62704,0.79331
5394.69829,0.79311
5392.76955,0.79357
5390.84081,0.79460
5388.91206,0.79497
5386.98332,0.79460
5385.05457,0.79430
5383.12583,0.79400
5381.19708,0.79355
5379.26834,0.79346
5377.33959,0.79392
5375.41085,0.79470
5373.48211,0.79581
5371.55336,0.79641
5369.62462,0.79535
5367.69587,0.79387
5365.76713,0.79356
5363.83838,0.79376
5361.90964,0.79395
5359.98089,0.79453
5358.05215,0.79503
5356.12340,0.79473
5354.19466,0.79366
5352.26592,0.79230
5350.33717,0.79100
5348.40843,0.79039
5346.47968,0.79135
5344.55094,0.79346
5342.62219,0.79473
5340.69345,0.79409
5338.76470,0.79274
5336.83596,0.79252
5334.90722,0.79347
5332.97847,0.79442
5331.04973,0.79496
5329.12098,0.79567
5327.19224,0.79690
5325.26349,0.79767
5323.33475,0.79715
5321.40600,0.79648
5319.47726,0.79635
5317.54852,0.79582
5315.61977,0.79500
5313.69103,0.79464
5311.76228,0.79454
5309.83354,0.79460
5307.90479,0.79504
5305.97605,0.79540
5304.04730,0.79457
5302.11856,0.79281
5300.18982,0.79204
5298.26107,0.79231
5296.33233,0.79199
5294.40358,0.79089
5292.47484,0.78971
5290.54609,0.78903
5288.61735,0.78894
5286.68860,0.78876
5284.75986,0.78815
5282.83111,0.78736
5280.90237,0.78676
5278.97363,0.78638
5277.04488,0.78590
5275.11614,0.78534
5273.18739,0.78467
5271.25865,0.78365
5269.32990,0.78256
5267.40116,0.78182
5265.47241,0.78114
5263.54367,0.78017
5261.61493,0.77936
5259.68618,0.77920
5257.75744,0.77905
5255.82869,0.77828
5253.89995,0.77750
5251.97120,0.77701
5250.04246,0.77621
5248.11371,0.77471
5246.18497,0.77328
5244.25623,0.77309
5242.32748,0.77359
5240.39874,0.77370
5238.46999,0.77388
5236.54125,0.77473
5234.61250,0.77588
5232.68376,0.77674
5230.75501,0.77738
5228.82627,0.77772
5226.89753,0.77720
5224.96878,0.77623
5223.04004,0.77576
5221.11129,0.77570
5219.18255,0.77547
5217.25380,0.77537
5215.32506,0.77589
5213.39631,0.77654
5211.46757,0.77717
5209.53882,0.77785
5207.61008,0.77789
5205.68134,0.77741
5203.75259,0.77764
5201.82385,0.77859
5199.89510,0.77958
5197.96636,0.78022
5196.03761,0.77986
5194.10887,0.77828
5192.18012,0.77680
5190.25138,0.77700
5188.32264,0.77851
5186.39389,0.77967
5184.46515,0.77959
5182.53640,0.77848
5180.60766,0.77733
5178.67891,0.77666
5176.75017,0.77643
5174.82142,0.77647
5172.89268,0.77643
5170.96394,0.77633
5169.03519,0.77628
5167.10645,0.77594
5165.17770,0.77519
5163.24896,0.77410
5161.32021,0.77282
5159.39147,0.77194
5157.46272,0.77176
5155.53398,0.77174
5153.60524,0.77134
5151.67649,0.77093
5149.74775,0.77093
5147.81900,0.77061
5145.89026,0.76958
5143.96151,0.76864
5142.03277,0.76806
5140.10402,0.76745
5138.17528,0.76662
5136.24653,0.76560
5134.31779,0.76483
5132.38905,0.76476
5130.46030,0.76468
5128.53156,0.76334
5126.60281,0.76096
5124.67407,0.75892
5122.74532,0.75778
5120.81658,0.75755
5118.88783,0.75798
5116.95909,0.75829
5115.03035,0.75848
5113.10160,0.75941
5111.17286,0.76125
5109.24411,0.76345
5107.31537,0.76537
5105.38662,0.76668
5103.45788,0.76749
5101.52913,0.76853
5099.60039,0.77029
5097.67165,0.77236
5095.74290,0.77404
5093.81416,0.77516
5091.88541,0.77625
5089.95667,0.77756
5088.02792,0.77832
5086.09918,0.77829
5084.17043,0.77855
5082.24169,0.77942
5080.31295,0.78015
5078.38420,0.78051
5076.45546,0.78058
5074.52671,0.78048
5072.59797,0.78068
5070.66922,0.78116
5068.74048,0.78165
5066.81173,0.78247
5064.88299,0.78336
5062.95424,0.78344
5061.02550,0.78319
5059.09676,0.78345
5057.16801,0.78347
5055.23927,0.78273
5053.31052,0.78203
5051.38178,0.78198
5049.45303,0.78239
5047.52429,0.78272
5045.59554,0.78290
5043.66680,0.78313
5041.73806,0.78337
5039.80931,0.78370
5037.88057,0.78391
5035.95182,0.78376
5034.02308,0.78354
5032.09433,0.78329
5030.16559,0.78308
5028.23684,0.78308
5026.30810,0.78314
5024.37936,0.78312
5022.45061,0.78313
5020.52187,0.78316
5018.59312,0.78314
5016.66438,0.78337
5014.73563,0.78372
5012.80689,0.78329
5010.87814,0.78235
5008.94940,0.78209
5007.02066,0.78246
5005.09191,0.78303
5003.16317,0.78376
5001.23442,0.78404
4999.30568,0.78371
4997.37693,0.78366
4995.44819,0.78425
4993.51944,0.78492
4991.59070,0.78507
4989.66195,0.78490
4987.73321,0.78467
4985.80447,0.78447
4983.87572,0.78462
4981.94698,0.78494
4980.01823,0.78502
4978.08949,0.78466
4976.16074,0.78412
4974.23200,0.78401
4972.30325,0.78423
4970.37451,0.78430
4968.44577,0.78431
4966.51702,0.78406
4964.58828,0.78317
4962.65953,0.78203
4960.73079,0.78116
4958.80204,0.78079
4956.87330,0.78098
4954.94455,0.78112
4953.01581,0.78083
4951.08707,0.78072
4949.15832,0.78079
4947.22958,0.78044
4945.30083,0.77981
4943.37209,0.77904
4941.44334,0.77802
4939.51460,0.77716
4937.58585,0.77661
4935.65711,0.77617
4933.72837,0.77597
4931.79962,0.77585
4929.87088,0.77546
4927.94213,0.77474
4926.01339,0.77370
4924.08464,0.77282
4922.15590,0.77271
4920.22715,0.77293
4918.29841,0.77296
4916.36966,0.77289
4914.44092,0.77276
4912.51218,0.77253
4910.58343,0.77219
4908.65469,0.77171
4906.72594,0.77136
4904.79720,0.77128
4902.86845,0.77103
4900.93971,0.77032
4899.01096,0.76957
4897.08222,0.76881
4895.15348,0.76768
4893.22473,0.76672
4891.29599,0.76674
4889.36724,0.76756
4887.43850,0.76841
4885.50975,0.76872
4883.58101,0.76837
4881.65226,0.76776
4879.72352,0.76746
4877.79478,0.76736
4875.86603,0.76697
4873.93729,0.76649
4872.00854,0.76629
4870.07980,0.76621
4868.15105,0.76578
4866.22231,0.76490
4864.29356,0.76457
4862.36482,0.76551
4860.43608,0.76659
4858.50733,0.76668
4856.57859,0.76617
4854.64984,0.76556
4852.72110,0.76445
4850.79235,0.76274
4848.86361,0.76146
4846.93486,0.76094
4845.00612,0.76049
4843.07737,0.75993
4841.14863,0.75898
4839.21989,0.75750
4837.29114,0.75626
4835.36240,0.75562
4833.43365,0.75475
4831.50491,0.75307
4829.57616,0.75108
4827.64742,0.74942
4825.71867,0.74841
4823.78993,0.74789
4821.86119,0.74727
4819.93244,0.74650
4818.00370,0.74573
4816.07495,0.74488
4814.14621,0.74409
4812.21746,0.74335
4810.28872,0.74244
4808.35997,0.74149
4806.43123,0.74041
4804.50249,0.73888
4802.57374,0.73750
4800.64500,0.73722
4798.71625,0.73739
4796.78751,0.73697
4794.85876,0.73639
4792.93002,0.73625
4791.00127,0.73651
4789.07253,0.73712
4787.14379,0.73795
4785.21504,0.73874
4783.28630,0.73939
4781.35755,0.74003
4779.42881,0.74083
4777.50006,0.74157
4775.57132,0.74197
4773.64257,0.74231
4771.71383,0.74290
4769.78508,0.74341
4767.85634,0.74337
4765.92760,0.74268
4763.99885,0.74173
4762.07011,0.74120
4760.14136,0.74079
4758.21262,0.73991
4756.28387,0.73865
4754.35513,0.73678
4752.42638,0.73431
4750.49764,0.73211
4748.56890,0.73033
4746.64015,0.72837
4744.71141,0.72608
4742.78266,0.72359
4740.85392,0.72136
4738.92517,0.71946
4736.99643,0.71726
4735.06768,0.71447
4733.13894,0.71122
4731.21020,0.70777
4729.28145,0.70434
4727.35271,0.70082
4725.42396,0.69712
4723.49522,0.69365
4721.56647,0.69066
4719.63773,0.68803
4717.70898,0.68614
4715.78024,0.68538
4713.85150,0.68551
4711.92275,0.68570
4709.99401,0.68495
4708.06526,0.68300
4706.13652,0.68016
4704.20777,0.67642
4702.27903,0.67204
4700.35028,0.66749
4698.42154,0.66297
4696.49279,0.65878
4694.56405,0.65512
4692.63531,0.65231
4690.70656,0.65098
4688.77782,0.65115
4686.84907,0.65224
4684.92033,0.65416
4682.99158,0.65719
4681.06284,0.66138
4679.13409,0.66663
4677.20535,0.67246
4675.27661,0.67781
4673.34786,0.68197
4671.41912,0.68541
4669.49037,0.68855
4667.56163,0.69084
4665.63288,0.69227
4663.70414,0.69365
4661.77539,0.69502
4659.84665,0.69567
4657.91791,0.69547
4655.98916,0.69483
4654.06042,0.69413
4652.13167,0.69308
4650.20293,0.69086
4648.27418,0.68720
4646.34544,0.68292
4644.41669,0.67893
4642.48795,0.67543
4640.55921,0.67214
4638.63046,0.66908
4636.70172,0.66698
4634.77297,0.66674
4632.84423,0.66821
4630.91548,0.67083
4628.98674,0.67449
4627.05799,0.67906
4625.12925,0.68463
4623.20050,0.69121
4621.27176,0.69773
4619.34302,0.70291
4617.41427,0.70668
4615.48553,0.70973
4613.55678,0.71216
4611.62804,0.71373
4609.69929,0.71476
4607.77055,0.71548
4605.84180,0.71554
4603.91306,0.71467
4601.98432,0.71311
4600.05557,0.71127
4598.12683,0.70870
4596.19808,0.70532
4594.26934,0.70217
4592.34059,0.69990
4590.41185,0.69843
4588.48310,0.69745
4586.55436,0.69611
4584.62562,0.69373
4582.69687,0.69098
4580.76813,0.68924
4578.83938,0.68955
4576.91064,0.69186
4574.98189,0.69524
4573.05315,0.69910
4571.12440,0.70363
4569.19566,0.70888
4567.26692,0.71387
4565.33817,0.71764
4563.40943,0.72054
4561.48068,0.72296
4559.55194,0.72452
4557.62319,0.72506
4555.69445,0.72506
4553.76570,0.72515
4551.83696,0.72524
4549.90821,0.72520
4547.97947,0.72515
4546.05073,0.72517
4544.12198,0.72518
4542.19324,0.72506
4540.26449,0.72483
4538.33575,0.72465
4536.40700,0.72437
4534.47826,0.72379
4532.54951,0.72311
4530.62077,0.72252
4528.69203,0.72195
4526.76328,0.72120
4524.83454,0.72016
4522.90579,0.71895
4520.97705,0.71759
4519.04830,0.71621
4517.11956,0.71476
4515.19081,0.71289
4513.26207,0.71069
4511.33333,0.70856
4509.40458,0.70627
4507.47584,0.70346
4505.54709,0.70012
4503.61835,0.69620
4501.68960,0.69181
4499.76086,0.68708
4497.83211,0.68215
4495.90337,0.67743
4493.97462,0.67317
4492.04588,0.66901
4490.11714,0.66484
4488.18839,0.66122
4486.25965,0.65885
4484.33090,0.65764
4482.40216,0.65645
4480.47341,0.65446
4478.54467,0.65176
4476.61592,0.64863
4474.68718,0.64525
4472.75844,0.64149
4470.82969,0.63668
4468.90095,0.63051
4466.97220,0.62339
4465.04346,0.61611
4463.11471,0.60924
4461.18597,0.60314
4459.25722,0.59831
4457.32848,0.59540
4455.39974,0.59462
4453.47099,0.59534
4451.54225,0.59655
4449.61350,0.59736
4447.68476,0.59726
4445.75601,0.59628
4443.82727,0.59468
4441.89852,0.59293
4439.96978,0.59113
4438.04104,0.58931
4436.11229,0.58777
4434.18355,0.58657
4432.25480,0.58595
4430.32606,0.58623
4428.39731,0.58765
4426.46857,0.59059
4424.53982,0.59448
4422.61108,0.59801
4420.68233,0.60096
4418.75359,0.60380
4416.82485,0.60640
4414.89610,0.60827
4412.96736,0.60928
4411.03861,0.60962
4409.10987,0.60943
4407.18112,0.60917
4405.25238,0.60976
4403.32363,0.61109
4401.39489,0.61229
4399.46615,0.61363
4397.53740,0.61562
4395.60866,0.61778
4393.67991,0.61977
4391.75117,0.62173
4389.82242,0.62327
4387.89368,0.62421
4385.96493,0.62515
4384.03619,0.62626
4382.10745,0.62715
4380.17870,0.62772
4378.24996,0.62790
4376.32121,0.62774
4374.39247,0.62777
4372.46372,0.62809
4370.53498,0.62807
4368.60623,0.62753
4366.67749,0.62687
4364.74875,0.62597
4362.82000,0.62480
4360.89126,0.62384
4358.96251,0.62353
4357.03377,0.62378
4355.10502,0.62380
4353.17628,0.62321
4351.24753,0.62255
4349.31879,0.62206
4347.39004,0.62141
4345.46130,0.62029
4343.53256,0.61888
4341.60381,0.61749
4339.67507,0.61609
4337.74632,0.61482
4335.81758,0.61416
4333.88883,0.61423
4331.96009,0.61466
4330.03134,0.61508
4328.10260,0.61526
4326.17386,0.61532
4324.24511,0.61551
4322.31637,0.61560
4320.38762,0.61545
4318.45888,0.61506
4316.53013,0.61407
4314.60139,0.61241
4312.67264,0.61039
4310.74390,0.60844
4308.81516,0.60685
4306.88641,0.60500
4304.95767,0.60240
4303.02892,0.59963
4301.10018,0.59734
4299.17143,0.59559
4297.24269,0.59412
4295.31394,0.59278
4293.38520,0.59198
4291.45646,0.59189
4289.52771,0.59205
4287.59897,0.59239
4285.67022,0.59326
4283.74148,0.59445
4281.81273,0.59550
4279.88399,0.59641
4277.95524,0.59718
4276.02650,0.59776
4274.09775,0.59849
4272.16901,0.59961
4270.24027,0.60078
4268.31152,0.60174
4266.38278,0.60279
4264.45403,0.60382
4262.52529,0.60447
4260.59654,0.60484
4258.66780,0.60509
4256.73905,0.60505
4254.81031,0.60474
4252.88157,0.60445
4250.95282,0.60399
4249.02408,0.60298
4247.09533,0.60197
4245.16659,0.60169
4243.23784,0.60200
4241.30910,0.60243
4239.38035,0.60306
4237.45161,0.60394
4235.52287,0.60446
4233.59412,0.60425
4231.66538,0.60380
4229.73663,0.60370
4227.80789,0.60412
4225.87914,0.60470
4223.95040,0.60518
4222.02165,0.60577
4220.09291,0.60671
4218.16417,0.60838
4216.23542,0.61072
4214.30668,0.61286
4212.37793,0.61411
4210.44919,0.61472
4208.52044,0.61510
4206.59170,0.61533
4204.66295,0.61553
4202.73421,0.61609
4200.80546,0.61723
4198.87672,0.61838
4196.94798,0.61870
4195.01923,0.61827
4193.09049,0.61771
4191.16174,0.61707
4189.23300,0.61602
4187.30425,0.61426
4185.37551,0.61178
4183.44676,0.60890
4181.51802,0.60613
4179.58928,0.60385
4177.66053,0.60240
4175.73179,0.60235
4173.80304,0.60399
4171.87430,0.60680
4169.94555,0.60995
4168.01681,0.61309
4166.08806,0.61612
4164.15932,0.61868
4162.23058,0.62048
4160.30183,0.62189
4158.37309,0.62337
4156.44434,0.62472
4154.51560,0.62551
4152.58685,0.62579
4150.65811,0.62587
4148.72936,0.62574
4146.80062,0.62517
4144.87188,0.62406
4142.94313,0.62222
4141.01439,0.61968
4139.08564,0.61696
4137.15690,0.61443
4135.22815,0.61212
4133.29941,0.61021
4131.37066,0.60911
4129.44192,0.60881
4127.51317,0.60869
4125.58443,0.60837
4123.65569,0.60780
4121.72694,0.60702
4119.79820,0.60606
4117.86945,0.60479
4115.94071,0.60308
4114.01196,0.60084
4112.08322,0.59819
4110.15447,0.59531
4108.22573,0.59220
4106.29699,0.58886
4104.36824,0.58511
4102.43950,0.58016
4100.51075,0.57343
4098.58201,0.56524
4096.65326,0.55624
4094.72452,0.54750
4092.79577,0.54107
4090.86703,0.53880
4088.93829,0.54051
4087.00954,0.54461
4085.08080,0.54959
4083.15205,0.55493
4081.22331,0.56103
4079.29456,0.56796
4077.36582,0.57516
4075.43707,0.58200
4073.50833,0.58790
4071.57959,0.59253
4069.65084,0.59607
4067.72210,0.59894
4065.79335,0.60146
4063.86461,0.60387
4061.93586,0.60606
4060.00712,0.60786
4058.07837,0.60933
4056.14963,0.61071
4054.22088,0.61221
4052.29214,0.61371
4050.36340,0.61504
4048.43465,0.61631
4046.50591,0.61773
4044.57716,0.61933
4042.64842,0.62099
4040.71967,0.62274
4038.79093,0.62481
4036.86218,0.62685
4034.93344,0.62819
4033.00470,0.62875
4031.07595,0.62905
4029.14721,0.62953
4027.21846,0.63014
4025.28972,0.63056
4023.36097,0.63051
4021.43223,0.63018
4019.50348,0.62992
4017.57474,0.62975
4015.64600,0.62964
4013.71725,0.62955
4011.78851,0.62948
4009.85976,0.62951
4007.93102,0.62981
4006.00227,0.63035
4004.07353,0.63084
4002.14478,0.63132
4000.21604,0.63192
3998.28730,0.63245
3996.35855,0.63298
3994.42981,0.63368
3992.50106,0.63440
3990.57232,0.63513
3988.64357,0.63606
3986.71483,0.63701
3984.78608,0.63747
3982.85734,0.63738
3980.92859,0.63724
3978.99985,0.63730
3977.07111,0.63744
3975.14236,0.63755
3973.21362,0.63766
3971.28487,0.63782
3969.35613,0.63814
3967.42738,0.63875
3965.49864,0.63971
3963.56989,0.64099
3961.64115,0.64225
3959.71241,0.64331
3957.78366,0.64434
3955.85492,0.64546
3953.92617,0.64656
3951.99743,0.64760
3950.06868,0.64875
3948.13994,0.64974
3946.21119,0.65031
3944.28245,0.65087
3942.35371,0.65140
3940.42496,0.65153
3938.49622,0.65146
3936.56747,0.65147
3934.63873,0.65162
3932.70998,0.65198
3930.78124,0.65228
3928.85249,0.65220
3926.92375,0.65207
3924.99501,0.65233
3923.06626,0.65291
3921.13752,0.65346
3919.20877,0.65375
3917.28003,0.65390
3915.35128,0.65417
3913.42254,0.65474
3911.49379,0.65557
3909.56505,0.65661
3907.63630,0.65796
3905.70756,0.65960
3903.77882,0.66115
3901.85007,0.66249
3899.92133,0.66380
3897.99258,0.66504
3896.06384,0.66634
3894.13509,0.66796
3892.20635,0.66960
3890.27760,0.67078
3888.34886,0.67173
3886.42012,0.67290
3884.49137,0.67392
3882.56263,0.67448
3880.63388,0.67489
3878.70514,0.67523
3876.77639,0.67571
3874.84765,0.67666
3872.91890,0.67793
3870.99016,0.67919
3869.06142,0.67989
3867.13267,0.68005
3865.20393,0.68041
3863.27518,0.68099
3861.34644,0.68138
3859.41769,0.68176
3857.48895,0.68227
3855.56020,0.68294
3853.63146,0.68369
3851.70272,0.68366
3849.77397,0.68294
3847.84523,0.68250
3845.91648,0.68250
3843.98774,0.68270
3842.05899,0.68294
3840.13025,0.68318
3838.20150,0.68324
3836.27276,0.68282
3834.34401,0.68248
3832.41527,0.68263
3830.48653,0.68268
3828.55778,0.68244
3826.62904,0.68240
3824.70029,0.68231
3822.77155,0.68186
3820.84280,0.68095
3818.91406,0.67934
3816.98531,0.67705
3815.05657,0.67425
3813.12783,0.67155
3811.19908,0.66968
3809.27034,0.66887
3807.34159,0.66869
3805.41285,0.66852
3803.48410,0.66863
3801.55536,0.66939
3799.62661,0.67048
3797.69787,0.67186
3795.76913,0.67363
3793.84038,0.67524
3791.91164,0.67623
3789.98289,0.67684
3788.05415,0.67737
3786.12540,0.67759
3784.19666,0.67723
3782.26791,0.67666
3780.33917,0.67616
3778.41043,0.67548
3776.48168,0.67445
3774.55294,0.67320
3772.62419,0.67183
3770.69545,0.67037
3768.76670,0.66891
3766.83796,0.66753
3764.90921,0.66585
3762.98047,0.66387
3761.05172,0.66224
3759.12298,0.66134
3757.19424,0.66148
3755.26549,0.66321
3753.33675,0.66675
3751.40800,0.67141
3749.47926,0.67565
3747.55051,0.67869
3745.62177,0.68101
3743.69302,0.68212
3741.76428,0.68143
3739.83554,0.68009
3737.90679,0.67875
3735.97805,0.67700
3734.04930,0.67470
3732.12056,0.67267
3730.19181,0.67214
3728.26307,0.67359
3726.33432,0.67647
3724.40558,0.67957
3722.47684,0.68190
3720.54809,0.68328
3718.61935,0.68386
3716.69060,0.68381
3714.76186,0.68338
3712.83311,0.68276
3710.90437,0.68148
3708.97562,0.67868
3707.04688,0.67457
3705.11814,0.67005
3703.18939,0.66556
3701.26065,0.66109
3699.33190,0.65666
3697.40316,0.65163
3695.47441,0.64528
3693.54567,0.63770
3691.61692,0.62943
3689.68818,0.62103
3687.75943,0.61397
3685.83069,0.61062
3683.90195,0.61185
3681.97320,0.61657
3680.04446,0.62243
3678.11571,0.62769
3676.18697,0.63219
3674.25822,0.63529
3672.32948,0.63659
3670.40073,0.63649
3668.47199,0.63489
3666.54325,0.63202
3664.61450,0.62857
3662.68576,0.62511
3660.75701,0.62192
3658.82827,0.61869
3656.89952,0.61493
3654.97078,0.61072
3653.04203,0.60699
3651.11329,0.60402
3649.18455,0.60088
3647.25580,0.59716
3645.32706,0.59338
3643.39831,0.58974
3641.46957,0.58628
3639.54082,0.58305
3637.61208,0.58006
3635.68333,0.57736
3633.75459,0.57506
3631.82584,0.57332
3629.89710,0.57185
3627.96836,0.56995
3626.03961,0.56753
3624.11087,0.56496
3622.18212,0.56262
3620.25338,0.56072
3618.32463,0.55889
3616.39589,0.55700
3614.46714,0.55550
3612.53840,0.55420
3610.60966,0.55248
3608.68091,0.55041
3606.75217,0.54835
3604.82342,0.54625
3602.89468,0.54398
3600.96593,0.54147
3599.03719,0.53863
3597.10844,0.53543
3595.17970,0.53175
3593.25096,0.52776
3591.32221,0.52401
3589.39347,0.52071
3587.46472,0.51708
3585.53598,0.51236
3583.60723,0.50713
3581.67849,0.50225
3579.74974,0.49767
3577.82100,0.49318
3575.89226,0.48879
3573.96351,0.48429
3572.03477,0.47975
3570.10602,0.47555
3568.17728,0.47151
3566.24853,0.46733
3564.31979,0.46342
3562.39104,0.46002
3560.46230,0.45684
3558.53355,0.45376
3556.60481,0.45119
3554.67607,0.44942
3552.74732,0.44803
3550.81858,0.44657
3548.88983,0.44510
3546.96109,0.44400
3545.03234,0.44345
3543.10360,0.44296
3541.17485,0.44227
3539.24611,0.44203
3537.31737,0.44244
3535.38862,0.44278
3533.45988,0.44280
3531.53113,0.44292
3529.60239,0.44342
3527.67364,0.44429
3525.74490,0.44535
3523.81615,0.44609
3521.88741,0.44636
3519.95867,0.44668
3518.02992,0.44733
3516.10118,0.44804
3514.17243,0.44855
3512.24369,0.44881
3510.31494,0.44897
3508.38620,0.44913
3506.45745,0.44929
3504.52871,0.44937
3502.59997,0.44926
3500.67122,0.44891
3498.74248,0.44851
3496.81373,0.44802
3494.88499,0.44722
3492.95624,0.44630
3491.02750,0.44554
3489.09875,0.44478
3487.17001,0.44389
3485.24126,0.44291
3483.31252,0.44190
3481.38378,0.44069
3479.45503,0.43896
3477.52629,0.43674
3475.59754,0.43430
3473.66880,0.43165
3471.74005,0.42877
3469.81131,0.42594
3467.88256,0.42307
3465.95382,0.41965
3464.02508,0.41576
3462.09633,0.41196
3460.16759,0.40817
3458.23884,0.40398
3456.31010,0.39942
3454.38135,0.39470
3452.45261,0.38995
3450.52386,0.38506
3448.59512,0.37982
3446.66638,0.37447
3444.73763,0.36939
3442.80889,0.36424
3440.88014,0.35848
3438.95140,0.35230
3437.02265,0.34607
3435.09391,0.33992
3433.16516,0.33453
3431.23642,0.33176
3429.30768,0.33310
3427.37893,0.33820
3425.45019,0.34568
3423.52144,0.35426
3421.59270,0.36305
3419.66395,0.37137
3417.73521,0.37865
3415.80646,0.38492
3413.87772,0.39080
3411.94897,0.39650
3410.02023,0.40148
3408.09149,0.40554
3406.16274,0.40936
3404.23400,0.41339
3402.30525,0.41697
3400.37651,0.41949
3398.44776,0.42135
3396.51902,0.42296
3394.59027,0.42432
3392.66153,0.42553
3390.73279,0.42647
3388.80404,0.42706
3386.87530,0.42761
3384.94655,0.42821
3383.01781,0.42845
3381.08906,0.42823
3379.16032,0.42799
3377.23157,0.42808
3375.30283,0.42810
3373.37409,0.42779
3371.44534,0.42747
3369.51660,0.42701
3367.58785,0.42618
3365.65911,0.42522
3363.73036,0.42416
3361.80162,0.42271
3359.87287,0.42108
3357.94413,0.41958
3356.01539,0.41785
3354.08664,0.41585
3352.15790,0.41399
3350.22915,0.41200
3348.30041,0.40973
3346.37166,0.40763
3344.44292,0.40575
3342.51417,0.40401
3340.58543,0.40254
3338.65668,0.40144
3336.72794,0.40084
3334.79920,0.40085
3332.87045,0.40149
3330.94171,0.40279
3329.01296,0.40470
3327.08422,0.40678
3325.15547,0.40861
3323.22673,0.41026
3321.29798,0.41176
3319.36924,0.41268
3317.44050,0.41301
3315.51175,0.41317
3313.58301,0.41318
3311.65426,0.41272
3309.72552,0.41191
3307.79677,0.41135
3305.86803,0.41109
3303.93928,0.41057
3302.01054,0.40980
3300.08180,0.40948
3298.15305,0.41005
3296.22431,0.41131
3294.29556,0.41258
3292.36682,0.41354
3290.43807,0.41456
3288.50933,0.41585
3286.58058,0.41722
3284.65184,0.41869
3282.72310,0.42027
3280.79435,0.42149
3278.86561,0.42212
3276.93686,0.42248
3275.00812,0.42299
3273.07937,0.42381
3271.15063,0.42467
3269.22188,0.42511
3267.29314,0.42521
3265.36439,0.42541
3263.43565,0.42581
3261.50691,0.42638
3259.57816,0.42724
3257.64942,0.42814
3255.72067,0.42852
3253.79193,0.42860
3251.86318,0.42888
3249.93444,0.42916
3248.00569,0.42922
3246.07695,0.42920
3244.14821,0.42906
3242.21946,0.42892
3240.29072,0.42903
3238.36197,0.42940
3236.43323,0.43002
3234.50448,0.43067
3232.57574,0.43106
3230.64699,0.43128
3228.71825,0.43179
3226.78951,0.43277
3224.86076,0.43401
3222.93202,0.43535
3221.00327,0.43677
3219.07453,0.43820
3217.14578,0.43933
3215.21704,0.44001
3213.28829,0.44060
3211.35955,0.44133
3209.43081,0.44180
3207.50206,0.44161
3205.57332,0.44117
3203.64457,0.44109
3201.71583,0.44138
3199.78708,0.44176
3197.85834,0.44208
3195.92959,0.44200
3194.00085,0.44160
3192.07210,0.44145
3190.14336,0.44180
3188.21462,0.44233
3186.28587,0.44289
3184.35713,0.44348
3182.42838,0.44378
3180.49964,0.44368
3178.57089,0.44358
3176.64215,0.44387
3174.71340,0.44452
3172.78466,0.44502
3170.85592,0.44523
3168.92717,0.44534
3166.99843,0.44516
3165.06968,0.44470
3163.14094,0.44442
3161.21219,0.44424
3159.28345,0.44389
3157.35470,0.44345
3155.42596,0.44304
3153.49722,0.44255
3151.56847,0.44198
3149.63973,0.44139
3147.71098,0.44074
3145.78224,0.43979
3143.85349,0.43833
3141.92475,0.43657
3139.99600,0.43470
3138.06726,0.43265
3136.13852,0.43042
3134.20977,0.42801
3132.28103,0.42564
3130.35228,0.42387
3128.42354,0.42297
3126.49479,0.42279
3124.56605,0.42333
3122.63730,0.42429
3120.70856,0.42470
3118.77981,0.42379
3116.85107,0.42171
3114.92233,0.41894
3112.99358,0.41558
3111.06484,0.41151
3109.13609,0.40702
3107.20735,0.40264
3105.27860,0.39899
3103.34986,0.39685
3101.42111,0.39681
3099.49237,0.39884
3097.56363,0.40207
3095.63488,0.40506
3093.70614,0.40638
3091.77739,0.40546
3089.84865,0.40265
3087.91990,0.39861
3085.99116,0.39396
3084.06241,0.38952
3082.13367,0.38635
3080.20493,0.38501
3078.27618,0.38488
3076.34744,0.38459
3074.41869,0.38358
3072.48995,0.38198
3070.56120,0.38014
3068.63246,0.37899
3066.70371,0.37906
3064.77497,0.37966
3062.84623,0.37952
3060.91748,0.37734
3058.98874,0.37282
3057.05999,0.36779
3055.13125,0.36534
3053.20250,0.36769
3051.27376,0.37498
3049.34501,0.38562
3047.41627,0.39723
3045.48752,0.40746
3043.55878,0.41495
3041.63004,0.41946
3039.70129,0.42150
3037.77255,0.42191
3035.84380,0.42105
3033.91506,0.41890
3031.98631,0.41567
3030.05757,0.41154
3028.12882,0.40633
3026.20008,0.39976
3024.27134,0.39162
3022.34259,0.38180
3020.41385,0.37061
3018.48510,0.35907
3016.55636,0.34882
3014.62761,0.34143
3012.69887,0.33744
3010.77012,0.33581
3008.84138,0.33499
3006.91264,0.33412
3004.98389,0.33299
3003.05515,0.33136
3001.12640,0.32921
2999.19766,0.32683
2997.26891,0.32439
2995.34017,0.32154
2993.41142,0.31778
2991.48268,0.31285
2989.55394,0.30685
2987.62519,0.30005
2985.69645,0.29253
2983.76770,0.28400
2981.83896,0.27432
2979.91021,0.26392
2977.98147,0.25318
2976.05272,0.24230
2974.12398,0.23231
2972.19523,0.22502
2970.26649,0.22172
2968.33775,0.22245
2966.40900,0.22604
2964.48026,0.23093
2962.55151,0.23589
2960.62277,0.24058
2958.69402,0.24536
2956.76528,0.25066
2954.83653,0.25695
2952.90779,0.26443
2950.97905,0.27263
2949.05030,0.28132
2947.12156,0.29034
2945.19281,0.29900
2943.26407,0.30682
2941.33532,0.31356
2939.40658,0.31877
2937.47783,0.32216
2935.54909,0.32396
2933.62035,0.32466
2931.69160,0.32424
2929.76286,0.32245
2927.83411,0.31956
2925.90537,0.31595
2923.97662,0.31185
2922.04788,0.30748
2920.11913,0.30268
2918.19039,0.29699
2916.26165,0.29030
2914.33290,0.28285
2912.40416,0.27495
2910.47541,0.26782
2908.54667,0.26420
2906.61792,0.26661
2904.68918,0.27515
2902.76043,0.28699
2900.83169,0.29845
2898.90294,0.30769
2896.97420,0.31453
2895.04546,0.31917
2893.11671,0.32203
2891.18797,0.32395
2889.25922,0.32591
2887.33048,0.32857
2885.40173,0.33189
2883.47299,0.33536
2881.54424,0.33863
2879.61550,0.34171
2877.68676,0.34456
2875.75801,0.34685
2873.82927,0.34859
2871.90052,0.35025
2869.97178,0.35204
2868.04303,0.35360
2866.11429,0.35483
2864.18554,0.35593
2862.25680,0.35688
2860.32806,0.35757
2858.39931,0.35800
2856.47057,0.35865
2854.54182,0.36031
2852.61308,0.36366
2850.68433,0.36946
2848.75559,0.37835
2846.82684,0.38978
2844.89810,0.40170
2842.96936,0.41226
2841.04061,0.42122
2839.11187,0.42898
2837.18312,0.43573
2835.25438,0.44166
2833.32563,0.44694
2831.39689,0.45165
2829.46814,0.45585
2827.53940,0.45963
2825.61065,0.46292
2823.68191,0.46553
2821.75317,0.46721
2819.82442,0.46777
2817.89568,0.46744
2815.96693,0.46683
2814.03819,0.46639
2812.10944,0.46618
2810.18070,0.46597
2808.25195,0.46571
2806.32321,0.46587
2804.39447,0.46689
2802.46572,0.46862
2800.53698,0.47111
2798.60823,0.47442
2796.67949,0.47812
2794.75074,0.48169
2792.82200,0.48496
2790.89325,0.48813
2788.96451,0.49125
2787.03577,0.49397
2785.10702,0.49623
2783.17828,0.49844
2781.24953,0.50064
2779.32079,0.50261
2777.39204,0.50446
2775.46330,0.50623
2773.53455,0.50779
2771.60581,0.50925
2769.67707,0.51055
2767.74832,0.51137
2765.81958,0.51190
2763.89083,0.51241
2761.96209,0.51299
2760.03334,0.51349
2758.10460,0.51349
2756.17585,0.51319
2754.24711,0.51306
2752.31836,0.51295
2750.38962,0.51263
2748.46088,0.51220
2746.53213,0.51193
2744.60339,0.51226
2742.67464,0.51339
2740.74590,0.51523
2738.81715,0.51775
2736.88841,0.52050
2734.95966,0.52297
2733.03092,0.52534
2731.10218,0.52802
2729.17343,0.53088
2727.24469,0.53347
2725.31594,0.53550
2723.38720,0.53713
2721.45845,0.53859
2719.52971,0.53991
2717.60096,0.54114
2715.67222,0.54239
2713.74348,0.54375
2711.81473,0.54532
2709.88599,0.54703
2707.95724,0.54871
2706.02850,0.55027
2704.09975,0.55186
2702.17101,0.55357
2700.24226,0.55514
2698.31352,0.55633
2696.38477,0.55733
2694.45603,0.55837
2692.52729,0.55928
2690.59854,0.55987
2688.66980,0.56015
2686.74105,0.56028
2684.81231,0.56025
2682.88356,0.56001
2680.95482,0.55986
2679.02607,0.56021
2677.09733,0.56102
2675.16859,0.56191
2673.23984,0.56257
2671.31110,0.56309
2669.38235,0.56359
2667.45361,0.56396
2665.52486,0.56409
2663.59612,0.56392
2661.66737,0.56339
2659.73863,0.56258
2657.80989,0.56159
2655.88114,0.56047
2653.95240,0.55934
2652.02365,0.55817
2650.09491,0.55684
2648.16616,0.55519
2646.23742,0.55309
2644.30867,0.55045
2642.37993,0.54710
2640.45119,0.54306
2638.52244,0.53881
2636.59370,0.53501
2634.66495,0.53215
2632.73621,0.53030
2630.80746,0.52955
2628.87872,0.52991
2626.94997,0.53096
2625.02123,0.53216
2623.09248,0.53325
2621.16374,0.53401
2619.23500,0.53433
2617.30625,0.53437
2615.37751,0.53430
2613.44876,0.53402
2611.52002,0.53350
2609.59127,0.53304
2607.66253,0.53281
2605.73378,0.53242
2603.80504,0.53148
2601.87630,0.53001
2599.94755,0.52824
2598.01881,0.52628
2596.09006,0.52435
2594.16132,0.52248
2592.23257,0.52048
2590.30383,0.51842
2588.37508,0.51679
2586.44634,0.51558
2584.51760,0.51450
2582.58885,0.51381
2580.66011,0.51379
2578.73136,0.51431
2576.80262,0.51505
2574.87387,0.51561
2572.94513,0.51574
2571.01638,0.51559
2569.08764,0.51527
2567.15890,0.51471
2565.23015,0.51413
2563.30141,0.51376
2561.37266,0.51350
2559.44392,0.51320
2557.51517,0.51278
2555.58643,0.51227
2553.65768,0.51188
2551.72894,0.51169
2549.80019,0.51144
2547.87145,0.51103
2545.94271,0.51060
2544.01396,0.51025
2542.08522,0.50995
2540.15647,0.50965
2538.22773,0.50941
2536.29898,0.50932
2534.37024,0.50938
2532.44149,0.50971
2530.51275,0.51056
2528.58401,0.51196
2526.65526,0.51359
2524.72652,0.51521
2522.79777,0.51695
2520.86903,0.51885
2518.94028,0.52067
2517.01154,0.52219
2515.08279,0.52338
2513.15405,0.52434
2511.22531,0.52505
2509.29656,0.52552
2507.36782,0.52589
2505.43907,0.52628
2503.51033,0.52673
2501.58158,0.52726
2499.65284,0.52789
2497.72409,0.52873
2495.79535,0.52995
2493.86661,0.53162
2491.93786,0.53357
2490.00912,0.53576
2488.08037,0.53837
2486.15163,0.54115
2484.22288,0.54375
2482.29414,0.54607
2480.36539,0.54830
2478.43665,0.55054
2476.50790,0.55268
2474.57916,0.55443
2472.65042,0.55577
2470.72167,0.55691
2468.79293,0.55803
2466.86418,0.55901
2464.93544,0.55956
2463.00669,0.55955
2461.07795,0.55924
2459.14920,0.55899
2457.22046,0.55890
2455.29172,0.55875
2453.36297,0.55841
2451.43423,0.55788
2449.50548,0.55705
2447.57674,0.55584
2445.64799,0.55414
2443.71925,0.55200
2441.79050,0.54963
2439.86176,0.54701
2437.93302,0.54410
2436.00427,0.54108
2434.07553,0.53795
2432.14678,0.53466
2430.21804,0.53133
2428.28929,0.52802
2426.36055,0.52476
2424.43180,0.52165
2422.50306,0.51853
2420.57432,0.51521
2418.64557,0.51183
2416.71683,0.50861
2414.78808,0.50567
2412.85934,0.50294
2410.93059,0.50031
2409.00185,0.49778
2407.07310,0.49540
2405.14436,0.49314
2403.21561,0.49094
2401.28687,0.48888
2399.35813,0.48706
2397.42938,0.48541
2395.50064,0.48404
2393.57189,0.48313
2391.64315,0.48255
2389.71440,0.48212
2387.78566,0.48201
2385.85691,0.48241
2383.92817,0.48323
2381.99943,0.48431
2380.07068,0.48557
2378.14194,0.48695
2376.21319,0.48840
2374.28445,0.48992
2372.35570,0.49185
2370.42696,0.49433
2368.49821,0.49709
2366.56947,0.50030
2364.64073,0.50437
2362.71198,0.50894
2360.78324,0.51328
2358.85449,0.51720
2356.92575,0.52091
2354.99700,0.52436
2353.06826,0.52749
2351.13951,0.53040
2349.21077,0.53289
2347.28203,0.53491
2345.35328,0.53685
2343.42454,0.53874
2341.49579,0.53991
2339.56705,0.54002
2337.63830,0.53978
2335.70956,0.53995
2333.78081,0.54074
2331.85207,0.54200
2329.92332,0.54349
2327.99458,0.54499
2326.06584,0.54640
2324.13709,0.54773
2322.20835,0.54904
2320.27960,0.55041
2318.35086,0.55172
2316.42211,0.55250
2314.49337,0.55238
2312.56462,0.55150
2310.63588,0.54999
2308.70714,0.54766
2306.77839,0.54441
2304.84965,0.54043
2302.92090,0.53582
2300.99216,0.53067
2299.06341,0.52522
2297.13467,0.51977
2295.20592,0.51454
2293.27718,0.50974
2291.34844,0.50549
2289.41969,0.50194
2287.49095,0.49935
2285.56220,0.49779
2283.63346,0.49717
2281.70471,0.49742
2279.77597,0.49815
2277.84722,0.49867
2275.91848,0.49850
2273.98974,0.49765
2272.06099,0.49648
2270.13225,0.49526
2268.20350,0.49400
2266.27476,0.49270
2264.34601,0.49151
2262.41727,0.49066
2260.48852,0.49024
2258.55978,0.49025
2256.63103,0.49070
2254.70229,0.49160
2252.77355,0.49296
2250.84480,0.49476
2248.91606,0.49694
2246.98731,0.49946
2245.05857,0.50221
2243.12982,0.50491
2241.20108,0.50733
2239.27233,0.50950
2237.34359,0.51146
2235.41485,0.51323
2233.48610,0.51482
2231.55736,0.51627
2229.62861,0.51750
2227.69987,0.51835
2225.77112,0.51885
2223.84238,0.51925
2221.91363,0.51981
2219.98489,0.52065
2218.05615,0.52152
2216.12740,0.52211
2214.19866,0.52248
2212.26991,0.52302
2210.34117,0.52401
2208.41242,0.52564
2206.48368,0.52782
2204.55493,0.53035
2202.62619,0.53278
2200.69745,0.53454
2198.76870,0.53569
2196.83996,0.53650
2194.91121,0.53684
2192.98247,0.53672
2191.05372,0.53618
2189.12498,0.53512
2187.19623,0.53364
2185.26749,0.53194
2183.33874,0.52992
2181.41000,0.52748
2179.48126,0.52476
2177.55251,0.52177
2175.62377,0.51840
2173.69502,0.51479
2171.76628,0.51113
2169.83753,0.50729
2167.90879,0.50310
2165.98004,0.49861
2164.05130,0.49367
2162.12256,0.48838
2160.19381,0.48321
2158.26507,0.47839
2156.33632,0.47370
2154.40758,0.46902
2152.47883,0.46459
2150.55009,0.46065
2148.62134,0.45706
2146.69260,0.45378
2144.76386,0.45081
2142.83511,0.44805
2140.90637,0.44557
2138.97762,0.44339
2137.04888,0.44120
2135.12013,0.43875
2133.19139,0.43596
2131.26264,0.43271
2129.33390,0.42908
2127.40516,0.42532
2125.47641,0.42140
2123.54767,0.41739
2121.61892,0.41373
2119.69018,0.41077
2117.76143,0.40851
2115.83269,0.40685
2113.90394,0.40569
2111.97520,0.40506
2110.04645,0.40496
2108.11771,0.40522
2106.18897,0.40574
2104.26022,0.40646
2102.33148,0.40719
2100.40273,0.40778
2098.47399,0.40845
2096.54524,0.40948
2094.61650,0.41082
2092.68775,0.41253
2090.75901,0.41474
2088.83027,0.41742
2086.90152,0.42048
2084.97278,0.42387
2083.04403,0.42759
2081.11529,0.43153
2079.18654,0.43565
2077.25780,0.43990
2075.32905,0.44417
2073.40031,0.44849
2071.47157,0.45303
2069.54282,0.45777
2067.61408,0.46258
2065.68533,0.46761
2063.75659,0.47289
2061.82784,0.47817
2059.89910,0.48328
2057.97035,0.48815
2056.04161,0.49263
2054.11287,0.49658
2052.18412,0.50007
2050.25538,0.50308
2048.32663,0.50539
2046.39789,0.50709
2044.46914,0.50844
2042.54040,0.50930
2040.61165,0.50949
2038.68291,0.50929
2036.75416,0.50879
2034.82542,0.50769
2032.89668,0.50594
2030.96793,0.50372
2029.03919,0.50089
2027.11044,0.49733
2025.18170,0.49325
2023.25295,0.48899
2021.32421,0.48478
2019.39546,0.48074
2017.46672,0.47682
2015.53798,0.47304
2013.60923,0.46927
2011.68049,0.46541
2009.75174,0.46158
2007.82300,0.45766
2005.89425,0.45350
2003.96551,0.44912
2002.03676,0.44459
2000.10802,0.44003
1998.17928,0.43559
1996.25053,0.43117
1994.32179,0.42672
1992.39304,0.42226
1990.46430,0.41777
1988.53555,0.41349
1986.60681,0.40950
1984.67806,0.40537
1982.74932,0.40089
1980.82058,0.39624
1978.89183,0.39139
1976.96309,0.38609
1975.03434,0.38012
1973.10560,0.37336
1971.17685,0.36561
1969.24811,0.35660
1967.31936,0.34641
1965.39062,0.33598
1963.46187,0.32710
1961.53313,0.32165
1959.60439,0.32052
1957.67564,0.32315
1955.74690,0.32802
1953.81815,0.33368
1951.88941,0.33942
1949.96066,0.34516
1948.03192,0.35092
1946.10317,0.35686
1944.17443,0.36319
1942.24569,0.36984
1940.31694,0.37646
1938.38820,0.38277
1936.45945,0.38877
1934.53071,0.39461
1932.60196,0.40033
1930.67322,0.40567
1928.74447,0.41035
1926.81573,0.41450
1924.88699,0.41837
1922.95824,0.42202
1921.02950,0.42555
1919.10075,0.42904
1917.17201,0.43228
1915.24326,0.43505
1913.31452,0.43758
1911.38577,0.44011
1909.45703,0.44252
1907.52829,0.44465
1905.59954,0.44647
1903.67080,0.44804
1901.74205,0.44940
1899.81331,0.45051
1897.88456,0.45152
1895.95582,0.45244
1894.02707,0.45297
1892.09833,0.45318
1890.16958,0.45335
1888.24084,0.45334
1886.31210,0.45298
1884.38335,0.45232
1882.45461,0.45144
1880.52586,0.45027
1878.59712,0.44860
1876.66837,0.44642
1874.73963,0.44379
1872.81088,0.44072
1870.88214,0.43724
1868.95340,0.43323
1867.02465,0.42873
1865.09591,0.42397
1863.16716,0.41901
1861.23842,0.41376
1859.30967,0.40798
1857.38093,0.40125
1855.45218,0.39349
1853.52344,0.38507
1851.59470,0.37646
1849.66595,0.36798
1847.73721,0.35979
1845.80846,0.35175
1843.87972,0.34359
1841.95097,0.33592
1840.02223,0.32930
1838.09348,0.32339
1836.16474,0.31787
1834.23600,0.31265
1832.30725,0.30787
1830.37851,0.30366
1828.44976,0.30025
1826.52102,0.29782
1824.59227,0.29623
1822.66353,0.29532
1820.73478,0.29488
1818.80604,0.29447
1816.87729,0.29375
1814.94855,0.29265
1813.01981,0.29132
1811.09106,0.28999
1809.16232,0.28880
1807.23357,0.28769
1805.30483,0.28656
1803.37608,0.28547
1801.44734,0.28430
1799.51859,0.28284
1797.58985,0.28108
1795.66111,0.27916
1793.73236,0.27698
1791.80362,0.27414
1789.87487,0.27077
1787.94613,0.26720
1786.01738,0.26332
1784.08864,0.25895
1782.15989,0.25423
1780.23115,0.24922
1778.30241,0.24383
1776.37366,0.23822
1774.44492,0.23219
1772.51617,0.22513
1770.58743,0.21739
1768.65868,0.20941
1766.72994,0.20081
1764.80119,0.19166
1762.87245,0.18163
1760.94370,0.17029
1759.01496,0.15818
1757.08622,0.14504
1755.15747,0.13082
1753.22873,0.11578
1751.29998,0.09929
1749.37124,0.08222
1747.44249,0.06662
1745.51375,0.05360
1743.58500,0.04393
1741.65626,0.03772
1739.72752,0.03415
1737.79877,0.03254
1735.87003,0.03242
1733.94128,0.03327
1732.01254,0.03452
1730.08379,0.03578
1728.15505,0.03722
1726.22630,0.03884
1724.29756,0.04047
1722.36882,0.04215
1720.44007,0.04418
1718.51133,0.04708
1716.58258,0.05166
1714.65384,0.05897
1712.72509,0.06914
1710.79635,0.08115
1708.86760,0.09354
1706.93886,0.10594
1705.01012,0.11810
1703.08137,0.12916
1701.15263,0.13985
1699.22388,0.14989
1697.29514,0.15763
1695.36639,0.16396
1693.43765,0.16934
1691.50890,0.17319
1689.58016,0.17532
1687.65141,0.17563
1685.72267,0.17490
1683.79393,0.17521
1681.86518,0.17858
1679.93644,0.18452
1678.00769,0.19128
1676.07895,0.19768
1674.15020,0.20324
1672.22146,0.20818
1670.29271,0.21365
1668.36397,0.22022
1666.43523,0.22720
1664.50648,0.23421
1662.57774,0.24074
1660.64899,0.24598
1658.72025,0.25003
1656.79150,0.25349
1654.86276,0.25698
1652.93401,0.26054
1651.00527,0.26299
1649.07653,0.26470
1647.14778,0.26675
1645.21904,0.26904
1643.29029,0.27123
1641.36155,0.27351
1639.43280,0.27575
1637.50406,0.27785
1635.57531,0.27970
1633.64657,0.28090
1631.71783,0.28163
1629.78908,0.28228
1627.86034,0.28269
1625.93159,0.28255
1624.00285,0.28168
1622.07410,0.27951
1620.14536,0.27547
1618.21661,0.26939
1616.28787,0.26245
1614.35912,0.25833
1612.43038,0.25900
1610.50164,0.26342
1608.57289,0.26956
1606.64415,0.27563
1604.71540,0.28096
1602.78666,0.28570
1600.85791,0.28987
1598.92917,0.29285
1597.00042,0.29395
1595.07168,0.29295
1593.14294,0.28990
1591.21419,0.28486
1589.28545,0.27786
1587.35670,0.26837
1585.42796,0.25508
1583.49921,0.23808
1581.57047,0.22128
1579.64172,0.21080
1577.71298,0.21078
1575.78424,0.22153
1573.85549,0.23711
1571.92675,0.25206
1569.99800,0.26536
1568.06926,0.27539
1566.14051,0.28177
1564.21177,0.28589
1562.28302,0.28853
1560.35428,0.29014
1558.42554,0.29061
1556.49679,0.28997
1554.56805,0.28899
1552.63930,0.28785
1550.71056,0.28644
1548.78181,0.28459
1546.85307,0.28245
1544.92432,0.28091
1542.99558,0.28080
1541.06683,0.28177
1539.13809,0.28225
1537.20935,0.28138
1535.28060,0.27949
1533.35186,0.27625
1531.42311,0.27183
1529.49437,0.26716
1527.56562,0.26273
1525.63688,0.25927
1523.70813,0.25753
1521.77939,0.25709
1519.85065,0.25627
1517.92190,0.25311
1515.99316,0.24581
1514.06441,0.23261
1512.13567,0.21165
1510.20692,0.18311
1508.27818,0.15162
1506.34943,0.13073
1504.42069,0.13655
1502.49195,0.16330
1500.56320,0.19782
1498.63446,0.23067
1496.70571,0.25533
1494.77697,0.26913
1492.84822,0.27352
1490.91948,0.27141
1488.99073,0.26465
1487.06199,0.25471
1485.13325,0.24295
1483.20450,0.23030
1481.27576,0.21696
1479.34701,0.20296
1477.41827,0.18807
1475.48952,0.17235
1473.56078,0.15824
1471.63203,0.15137
1469.70329,0.15399
1467.77454,0.16045
1465.84580,0.16450
1463.91706,0.16404
1461.98831,0.16087
1460.05957,0.15720
1458.13082,0.15355
1456.20208,0.15018
1454.27333,0.14844
1452.34459,0.14892
1450.41584,0.15072
1448.48710,0.15275
1446.55836,0.15453
1444.62961,0.15585
1442.70087,0.15683
1440.77212,0.15793
1438.84338,0.15969
1436.91463,0.16236
1434.98589,0.16563
1433.05714,0.16876
1431.12840,0.17086
1429.19966,0.17065
1427.27091,0.16725
1425.34217,0.16020
1423.41342,0.14929
1421.48468,0.13468
1419.55593,0.11563
1417.62719,0.09413
1415.69844,0.07558
1413.76970,0.06291
1411.84096,0.05739
1409.91221,0.05909
1407.98347,0.06634
1406.05472,0.07711
1404.12598,0.08918
1402.19723,0.10014
1400.26849,0.10881
1398.33974,0.11495
1396.41100,0.11822
1394.48225,0.11865
1392.55351,0.11682
1390.62477,0.11370
1388.69602,0.11013
1386.76728,0.10712
1384.83853,0.10569
1382.90979,0.10571
1380.98104,0.10609
1379.05230,0.10571
1377.12355,0.10418
1375.19481,0.10176
1373.26607,0.09899
1371.33732,0.09689
1369.40858,0.09637
1367.47983,0.09751
1365.55109,0.09947
1363.62234,0.10112
1361.69360,0.10116
1359.76485,0.09867
1357.83611,0.09370
1355.90737,0.08692
1353.97862,0.07918
1352.04988,0.07145
1350.12113,0.06471
1348.19239,0.05971
1346.26364,0.05682
1344.33490,0.05576
1342.40615,0.05601
1340.47741,0.05805
1338.54867,0.06361
1336.61992,0.07371
1334.69118,0.08673
1332.76243,0.09900
1330.83369,0.10694
1328.90494,0.10904
1326.97620,0.10593
1325.04745,0.09932
1323.11871,0.09116
1321.18996,0.08287
1319.26122,0.07494
1317.33248,0.06757
1315.40373,0.06108
1313.47499,0.05554
1311.54624,0.05074
1309.61750,0.04661
1307.68875,0.04323
1305.76001,0.04056
1303.83126,0.03853
1301.90252,0.03726
1299.97378,0.03660
1298.04503,0.03630
1296.11629,0.03642
1294.18754,0.03719
1292.25880,0.03852
1290.33005,0.04004
1288.40131,0.04158
1286.47256,0.04344
1284.54382,0.04589
1282.61508,0.04865
1280.68633,0.05125
1278.75759,0.05362
1276.82884,0.05585
1274.90010,0.05782
1272.97135,0.05939
1271.04261,0.06053
1269.11386,0.06144
1267.18512,0.06239
1265.25638,0.06339
1263.32763,0.06421
1261.39889,0.06465
1259.47014,0.06489
1257.54140,0.06525
1255.61265,0.06568
1253.68391,0.06580
1251.75516,0.06529
1249.82642,0.06420
1247.89767,0.06266
1245.96893,0.06081
1244.04019,0.05910
1242.11144,0.05836
1240.18270,0.05960
1238.25395,0.06372
1236.32521,0.07144
1234.39646,0.08280
1232.46772,0.09676
1230.53897,0.11147
1228.61023,0.12500
1226.68149,0.13643
1224.75274,0.14658
1222.82400,0.15713
1220.89525,0.16887
1218.96651,0.18079
1217.03776,0.19119
1215.10902,0.19928
1213.18027,0.20550
1211.25153,0.21092
1209.32279,0.21679
1207.39404,0.22379
1205.46530,0.23153
1203.53655,0.23922
1201.60781,0.24647
1199.67906,0.25304
1197.75032,0.25853
1195.82157,0.26227
1193.89283,0.26370
1191.96409,0.26272
1190.03534,0.25934
1188.10660,0.25323
1186.17785,0.24447
1184.24911,0.23388
1182.32036,0.22215
1180.39162,0.21009
1178.46287,0.19902
1176.53413,0.19002
1174.60538,0.18353
1172.67664,0.17916
1170.74790,0.17577
1168.81915,0.17185
1166.89041,0.16605
1164.96166,0.15784
1163.03292,0.14774
1161.10417,0.13666
1159.17543,0.12534
1157.24668,0.11424
1155.31794,0.10343
1153.38920,0.09286
1151.46045,0.08264
1149.53171,0.07304
1147.60296,0.06459
1145.67422,0.05772
1143.74547,0.05247
1141.81673,0.04881
1139.88798,0.04690
1137.95924,0.04691
1136.03050,0.04870
1134.10175,0.05153
1132.17301,0.05434
1130.24426,0.05638
1128.31552,0.05744
1126.38677,0.05781
1124.45803,0.05793
1122.52928,0.05798
1120.60054,0.05820
1118.67180,0.05892
1116.74305,0.05987
1114.81431,0.06041
1112.88556,0.06052
1110.95682,0.06067
1109.02807,0.06093
1107.09933,0.06131
1105.17058,0.06201
1103.24184,0.06317
1101.31309,0.06509
1099.38435,0.06813
1097.45561,0.07254
1095.52686,0.07831
1093.59812,0.08520
1091.66937,0.09325
1089.74063,0.10255
1087.81188,0.11321
1085.88314,0.12542
1083.95439,0.13952
1082.02565,0.15602
1080.09691,0.17462
1078.16816,0.19379
1076.23942,0.21185
1074.31067,0.22751
1072.38193,0.24014
1070.45318,0.25013
1068.52444,0.25791
1066.59569,0.26349
1064.66695,0.26715
1062.73821,0.26907
1060.80946,0.26875
1058.88072,0.26594
1056.95197,0.26106
1055.02323,0.25436
1053.09448,0.24615
1051.16574,0.23745
1049.23699,0.22948
1047.30825,0.22273
1045.37951,0.21731
1043.45076,0.21325
1041.52202,0.21034
1039.59327,0.20805
1037.66453,0.20528
1035.73578,0.20066
1033.80704,0.19256
1031.87829,0.17845
1029.94955,0.15606
1028.02080,0.12715
1026.09206,0.10060
1024.16332,0.08657
1022.23457,0.08623
1020.30583,0.09462
1018.37708,0.11148
1016.44834,0.14085
1014.51959,0.18145
1012.59085,0.22409
1010.66210,0.25932
1008.73336,0.28402
1006.80462,0.30001
1004.87587,0.30995
1002.94713,0.31571
1001.01838,0.31867
999.08964,0.31953
997.16089,0.31811
995.23215,0.31363
993.30340,0.30522
991.37466,0.29415
989.44592,0.28445
987.51717,0.27836
985.58843,0.27287
983.65968,0.26337
981.73094,0.24845
979.80219,0.22997
977.87345,0.21085
975.94470,0.19408
974.01596,0.18306
972.08722,0.18118
970.15847,0.18985
968.22973,0.20687
966.30098,0.22782
964.37224,0.24916
962.44349,0.26911
960.51475,0.28708
958.58600,0.30289
956.65726,0.31628
954.72851,0.32720
952.79977,0.33597
950.87103,0.34299
948.94228,0.34849
947.01354,0.35257
945.08479,0.35532
943.15605,0.35700
941.22730,0.35818
939.29856,0.35913
937.36981,0.35957
935.44107,0.35944
933.51233,0.35909
931.58358,0.35876
929.65484,0.35845
927.72609,0.35795
925.79735,0.35683
923.86860,0.35487
921.93986,0.35215
920.01111,0.34841
918.08237,0.34317
916.15363,0.33644
914.22488,0.32825
912.29614,0.31839
910.36739,0.30700
908.43865,0.29484
906.50990,0.28305
904.58116,0.27263
902.65241,0.26450
900.72367,0.25943
898.79492,0.25723
896.86618,0.25681
894.93744,0.25716
893.00869,0.25748
891.07995,0.25679
889.15120,0.25384
887.22246,0.24776
885.29371,0.23883
883.36497,0.22799
881.43622,0.21568
879.50748,0.20219
877.57874,0.18816
875.64999,0.17506
873.72125,0.16854
871.79250,0.17610
869.86376,0.19549
867.93501,0.21510
866.00627,0.22710
864.07752,0.23062
862.14878,0.22739
860.22004,0.21986
858.29129,0.21009
856.36255,0.19948
854.43380,0.18927
852.50506,0.18043
850.57631,0.17458
848.64757,0.17425
846.71882,0.18053
844.79008,0.19184
842.86134,0.20532
840.93259,0.21861
839.00385,0.23060
837.07510,0.24106
835.14636,0.25014
833.21761,0.25791
831.28887,0.26448
829.36012,0.26999
827.43138,0.27438
825.50263,0.27753
823.57389,0.27945
821.64515,0.28005
819.71640,0.27939
817.78766,0.27799
815.85891,0.27639
813.93017,0.27459
812.00142,0.27245
810.07268,0.26990
808.14393,0.26671
806.21519,0.26312
804.28645,0.25985
802.35770,0.25677
800.42896,0.25208
798.50021,0.24292
796.57147,0.22948
794.64272,0.21857
792.71398,0.21813
790.78523,0.22797
788.85649,0.24132
786.92775,0.25330
784.99900,0.26284
783.07026,0.26985
781.14151,0.27469
779.21277,0.27823
777.28402,0.28116
775.35528,0.28365
773.42653,0.28568
771.49779,0.28733
769.56905,0.28874
767.64030,0.28989
765.71156,0.29053
763.78281,0.29000
761.85407,0.28768
759.92532,0.28377
757.99658,0.27889
756.06783,0.27288
754.13909,0.26513
752.21034,0.25531
750.28160,0.24312
748.35286,0.22814
746.42411,0.20955
744.49537,0.18641
742.56662,0.15870
740.63788,0.12828
738.70913,0.09947
736.78039,0.07734
734.85164,0.06436
732.92290,0.05919
730.99416,0.05959
729.06541,0.06492
727.13667,0.07652
725.20792,0.09745
723.27918,0.12871
721.35043,0.16528
719.42169,0.19876
717.49294,0.22291
715.56420,0.23651
713.63546,0.24230
711.70671,0.24419
709.77797,0.24573
707.84922,0.24842
705.92048,0.25169
703.99173,0.25564
702.06299,0.26201
700.13424,0.27166
698.20550,0.28271
696.27676,0.29204
694.34801,0.29808
692.41927,0.30095
690.49052,0.30117
688.56178,0.29905
686.63303,0.29471
684.70429,0.28849
682.77554,0.28207
680.84680,0.27780
678.91805,0.27713
676.98931,0.27988
675.06057,0.28397
673.13182,0.28694
671.20308,0.28881
669.27433,0.29090
667.34559,0.29298
665.41684,0.29429
663.48810,0.29477
661.55935,0.29416
659.63061,0.29231
657.70187,0.29003
655.77312,0.28931
653.84438,0.29138
651.91563,0.29478
649.98689,0.29732
648.05814,0.29852
646.12940,0.29896
644.20065,0.29866
642.27191,0.29706
640.34317,0.29463
638.41442,0.29150
636.48568,0.28412
634.55693,0.26931
632.62819,0.25560
630.69944,0.25704
628.77070,0.27079
626.84195,0.28282
624.91321,0.28859
622.98447,0.29068
621.05572,0.29030
619.12698,0.28891
617.19823,0.28811
615.26949,0.28794
613.34074,0.28819
611.41200,0.28886
609.48325,0.28914
607.55451,0.28817
605.62576,0.28600
603.69702,0.28364
601.76828,0.28256
599.83953,0.28254
