5996.40973,0.02069
5994.48101,0.02042
5992.55228,0.01736
5990.62356,0.01675
5988.69483,0.01939
5986.76610,0.02247
5984.83738,0.02400
5982.90865,0.02334
5980.97992,0.02281
5979.05120,0.02419
5977.12247,0.02359
5975.19375,0.01968
5973.26502,0.01759
5971.33629,0.01762
5969.40757,0.01577
5967.47884,0.01281
5965.55011,0.01183
5963.62139,0.01326
5961.69266,0.01459
5959.76394,0.01339
5957.83521,0.01226
5955.90648,0.01477
5953.97776,0.01825
5952.04903,0.01986
5950.12031,0.02080
5948.19158,0.02068
5946.26285,0.01945
5944.33413,0.01886
5942.40540,0.01821
5940.47667,0.01674
5938.54795,0.01620
5936.61922,0.01711
5934.69050,0.01792
5932.76177,0.01952
5930.83304,0.02237
5928.90432,0.02278
5926.97559,0.02051
5925.04686,0.01897
5923.11814,0.01934
5921.18941,0.02125
5919.26069,0.02299
5917.33196,0.02373
5915.40323,0.02304
5913.47451,0.01860
5911.54578,0.01353
5909.61706,0.01462
5907.68833,0.02125
5905.75960,0.02704
5903.83088,0.02748
5901.90215,0.02370
5899.97342,0.02043
5898.04470,0.02070
5896.11597,0.02270
5894.18725,0.02143
5892.25852,0.01792
5890.32979,0.01864
5888.40107,0.02204
5886.47234,0.02208
5884.54361,0.02002
5882.61489,0.01981
5880.68616,0.01979
5878.75744,0.01704
5876.82871,0.01391
5874.89998,0.01345
5872.97126,0.01566
5871.04253,0.01912
5869.11381,0.02144
5867.18508,0.02080
5865.25635,0.01859
5863.32763,0.01761
5861.39890,0.01802
5859.47017,0.01974
5857.54145,0.02301
5855.61272,0.02342
5853.68400,0.01863
5851.75527,0.01416
5849.82654,0.01358
5847.89782,0.01513
5845.96909,0.01713
5844.04036,0.01805
5842.11164,0.01704
5840.18291,0.01595
5838.25419,0.01608
5836.32546,0.01803
5834.39673,0.02290
5832.46801,0.02794
5830.53928,0.02892
5828.61056,0.02554
5826.68183,0.02114
5824.75310,0.01730
5822.82438,0.01288
5820.89565,0.00983
5818.96692,0.01161
5817.03820,0.01565
5815.10947,0.01617
5813.18075,0.01337
5811.25202,0.01204
5809.32329,0.01465
5807.39457,0.01825
5805.46584,0.01840
5803.53711,0.01644
5801.60839,0.01751
5799.67966,0.02245
5797.75094,0.02632
5795.82221,0.02439
5793.89348,0.01884
5791.96476,0.01661
5790.03603,0.01846
5788.10731,0.01901
5786.17858,0.01815
5784.24985,0.01884
5782.32113,0.02005
5780.39240,0.02117
5778.46367,0.02264
5776.53495,0.02365
5774.60622,0.02313
5772.67750,0.01981
5770.74877,0.01551
5768.82004,0.01391
5766.89132,0.01450
5764.96259,0.01496
5763.03386,0.01526
5761.10514,0.01589
5759.17641,0.01649
5757.24769,0.01695
5755.31896,0.01767
5753.39023,0.01902
5751.46151,0.02090
5749.53278,0.02148
5747.60406,0.01919
5745.67533,0.01674
5743.74660,0.01632
5741.81788,0.01606
5739.88915,0.01631
5737.96042,0.01870
5736.03170,0.02146
5734.10297,0.02161
5732.17425,0.01945
5730.24552,0.01785
5728.31679,0.01719
5726.38807,0.01648
5724.45934,0.01678
5722.53061,0.01862
5720.60189,0.02008
5718.67316,0.01883
5716.74444,0.01637
5714.81571,0.01664
5712.88698,0.01948
5710.95826,0.02000
5709.02953,0.01679
5707.10081,0.01477
5705.17208,0.01556
5703.24335,0.01542
5701.31463,0.01508
5699.38590,0.01776
5697.45717,0.02082
5695.52845,0.02078
5693.59972,0.01882
5691.67100,0.01672
5689.74227,0.01537
5687.81354,0.01514
5685.88482,0.01460
5683.95609,0.01285
5682.02736,0.01278
5680.09864,0.01586
5678.16991,0.01855
5676.24119,0.01910
5674.31246,0.01929
5672.38373,0.01887
5670.45501,0.01705
5668.52628,0.01593
5666.59756,0.01646
5664.66883,0.01572
5662.74010,0.01363
5660.81138,0.01333
5658.88265,0.01389
5656.95392,0.01350
5655.02520,0.01359
5653.09647,0.01434
5651.16775,0.01486
5649.23902,0.01493
5647.31029,0.01383
5645.38157,0.01359
5643.45284,0.01662
5641.52411,0.01967
5639.59539,0.01991
5637.66666,0.01867
5635.73794,0.01669
5633.80921,0.01517
5631.88048,0.01536
5629.95176,0.01585
5628.02303,0.01665
5626.09430,0.01842
5624.16558,0.01899
5622.23685,0.01846
5620.30813,0.01850
5618.37940,0.01742
5616.45067,0.01615
5614.52195,0.01859
5612.59322,0.02177
5610.66450,0.02073
5608.73577,0.01791
5606.80704,0.01703
5604.87832,0.01859
5602.94959,0.02065
5601.02086,0.02099
5599.09214,0.02093
5597.16341,0.02097
5595.23469,0.01883
5593.30596,0.01587
5591.37723,0.01524
5589.44851,0.01610
5587.51978,0.01701
5585.59105,0.01754
5583.66233,0.01681
5581.73360,0.01633
5579.80488,0.01715
5577.87615,0.01762
5575.94742,0.01763
5574.01870,0.01838
5572.08997,0.01916
5570.16125,0.01852
5568.23252,0.01800
5566.30379,0.01893
5564.37507,0.01858
5562.44634,0.01675
5560.51761,0.01629
5558.58889,0.01610
5556.66016,0.01410
5554.73144,0.01263
5552.80271,0.01314
5550.87398,0.01442
5548.94526,0.01623
5547.01653,0.01812
5545.08780,0.01861
5543.15908,0.01809
5541.23035,0.01832
5539.30163,0.01859
5537.37290,0.01679
5535.44417,0.01468
5533.51545,0.01522
5531.58672,0.01715
5529.65800,0.01802
5527.72927,0.01838
5525.80054,0.01939
5523.87182,0.02065
5521.94309,0.02097
5520.01436,0.02053
5518.08564,0.02122
5516.15691,0.02245
5514.22819,0.02200
5512.29946,0.02012
5510.37073,0.01770
5508.44201,0.01587
5506.51328,0.01495
5504.58455,0.01422
5502.65583,0.01438
5500.72710,0.01555
5498.79838,0.01606
5496.86965,0.01558
5494.94092,0.01517
5493.01220,0.01448
5491.08347,0.01290
5489.15475,0.01247
5487.22602,0.01566
5485.29729,0.02069
5483.36857,0.02299
5481.43984,0.02277
5479.51111,0.02201
5477.58239,0.01957
5475.65366,0.01613
5473.72494,0.01326
5471.79621,0.01170
5469.86748,0.01258
5467.93876,0.01553
5466.01003,0.01920
5464.08130,0.02178
5462.15258,0.02133
5460.22385,0.01941
5458.29513,0.01762
5456.36640,0.01593
5454.43767,0.01571
5452.50895,0.01658
5450.58022,0.01668
5448.65150,0.01657
5446.72277,0.01676
5444.79404,0.01623
5442.86532,0.01457
5440.93659,0.01251
5439.00786,0.01131
5437.07914,0.01255
5435.15041,0.01644
5433.22169,0.01948
5431.29296,0.02014
5429.36423,0.02031
5427.43551,0.02083
5425.50678,0.02074
5423.57805,0.01920
5421.64933,0.01673
5419.72060,0.01457
5417.79188,0.01419
5415.86315,0.01551
5413.93442,0.01549
5412.00570,0.01343
5410.07697,0.01309
5408.14825,0.01551
5406.21952,0.01760
5404.29079,0.01740
5402.36207,0.01675
5400.43334,0.01821
5398.50461,0.02067
5396.57589,0.02188
5394.64716,0.02155
5392.71844,0.02050
5390.78971,0.01989
5388.86098,0.02087
5386.93226,0.02157
5385.00353,0.01895
5383.07480,0.01548
5381.14608,0.01384
5379.21735,0.01363
5377.28863,0.01467
5375.35990,0.01641
5373.43117,0.01642
5371.50245,0.01477
5369.57372,0.01461
5367.64500,0.01611
5365.71627,0.01648
5363.78754,0.01555
5361.85882,0.01471
5359.93009,0.01401
5358.00136,0.01405
5356.07264,0.01450
5354.14391,0.01317
5352.21519,0.01129
5350.28646,0.01148
5348.35773,0.01378
5346.42901,0.01556
5344.50028,0.01510
5342.57155,0.01563
5340.64283,0.01861
5338.71410,0.01972
5336.78538,0.01804
5334.85665,0.01692
5332.92792,0.01717
5330.99920,0.01826
5329.07047,0.01886
5327.14175,0.01816
5325.21302,0.01788
5323.28429,0.01867
5321.35557,0.01877
5319.42684,0.01775
5317.49811,0.01721
5315.56939,0.01860
5313.64066,0.02104
5311.71194,0.02161
5309.78321,0.01921
5307.85448,0.01636
5305.92576,0.01569
5303.99703,0.01747
5302.06830,0.01879
5300.13958,0.01783
5298.21085,0.01669
5296.28213,0.01694
5294.35340,0.01832
5292.42467,0.01924
5290.49595,0.01841
5288.56722,0.01681
5286.63849,0.01604
5284.70977,0.01606
5282.78104,0.01526
5280.85232,0.01333
5278.92359,0.01256
5276.99486,0.01366
5275.06614,0.01463
5273.13741,0.01515
5271.20869,0.01540
5269.27996,0.01451
5267.35123,0.01304
5265.42251,0.01161
5263.49378,0.01097
5261.56505,0.01248
5259.63633,0.01472
5257.70760,0.01569
5255.77888,0.01612
5253.85015,0.01652
5251.92142,0.01646
5249.99270,0.01699
5248.06397,0.01825
5246.13524,0.01825
5244.20652,0.01611
5242.27779,0.01440
5240.34907,0.01449
5238.42034,0.01457
5236.49161,0.01388
5234.56289,0.01350
5232.63416,0.01366
5230.70544,0.01429
5228.77671,0.01562
5226.84798,0.01664
5224.91926,0.01638
5222.99053,0.01550
5221.06180,0.01532
5219.13308,0.01605
5217.20435,0.01674
5215.27563,0.01683
5213.34690,0.01686
5211.41817,0.01752
5209.48945,0.01818
5207.56072,0.01739
5205.63199,0.01597
5203.70327,0.01635
5201.77454,0.01815
5199.84582,0.01886
5197.91709,0.01749
5195.98836,0.01512
5194.05964,0.01372
5192.13091,0.01395
5190.20219,0.01467
5188.27346,0.01466
5186.34473,0.01437
5184.41601,0.01505
5182.48728,0.01654
5180.55855,0.01865
5178.62983,0.02103
5176.70110,0.02124
5174.77238,0.01944
5172.84365,0.01849
5170.91492,0.01806
5168.98620,0.01683
5167.05747,0.01587
5165.12874,0.01585
5163.20002,0.01574
5161.27129,0.01485
5159.34257,0.01407
5157.41384,0.01468
5155.48511,0.01639
5153.55639,0.01701
5151.62766,0.01521
5149.69894,0.01282
5147.77021,0.01266
5145.84148,0.01465
5143.91276,0.01605
5141.98403,0.01613
5140.05530,0.01652
5138.12658,0.01698
5136.19785,0.01627
5134.26913,0.01531
5132.34040,0.01544
5130.41167,0.01635
5128.48295,0.01657
5126.55422,0.01508
5124.62549,0.01334
5122.69677,0.01364
5120.76804,0.01522
5118.83932,0.01591
5116.91059,0.01563
5114.98186,0.01509
5113.05314,0.01519
5111.12441,0.01662
5109.19569,0.01751
5107.26696,0.01672
5105.33823,0.01645
5103.40951,0.01686
5101.48078,0.01614
5099.55205,0.01518
5097.62333,0.01497
5095.69460,0.01463
5093.76588,0.01452
5091.83715,0.01504
5089.90842,0.01502
5087.97970,0.01460
5086.05097,0.01508
5084.12224,0.01660
5082.19352,0.01799
5080.26479,0.01770
5078.33607,0.01538
5076.40734,0.01311
5074.47861,0.01335
5072.54989,0.01540
5070.62116,0.01688
5068.69244,0.01666
5066.76371,0.01504
5064.83498,0.01374
5062.90626,0.01421
5060.97753,0.01610
5059.04880,0.01808
5057.12008,0.01885
5055.19135,0.01859
5053.26263,0.01855
5051.33390,0.01846
5049.40517,0.01737
5047.47645,0.01592
5045.54772,0.01488
5043.61899,0.01402
5041.69027,0.01395
5039.76154,0.01511
5037.83282,0.01607
5035.90409,0.01597
5033.97536,0.01568
5032.04664,0.01577
5030.11791,0.01659
5028.18919,0.01822
5026.26046,0.01887
5024.33173,0.01785
5022.40301,0.01633
5020.47428,0.01578
5018.54555,0.01512
5016.61683,0.01412
5014.68810,0.01348
5012.75938,0.01326
5010.83065,0.01375
5008.90192,0.01444
5006.97320,0.01419
5005.04447,0.01351
5003.11574,0.01390
5001.18702,0.01484
4999.25829,0.01449
4997.32957,0.01363
4995.40084,0.01403
4993.47211,0.01481
4991.54339,0.01477
4989.61466,0.01469
4987.68594,0.01514
4985.75721,0.01563
4983.82848,0.01564
4981.89976,0.01507
4979.97103,0.01453
4978.04230,0.01474
4976.11358,0.01575
4974.18485,0.01662
4972.25613,0.01623
4970.32740,0.01484
4968.39867,0.01330
4966.46995,0.01244
4964.54122,0.01271
4962.61249,0.01298
4960.68377,0.01272
4958.75504,0.01284
4956.82632,0.01366
4954.89759,0.01488
4952.96886,0.01578
4951.04014,0.01555
4949.11141,0.01450
4947.18269,0.01345
4945.25396,0.01283
4943.32523,0.01330
4941.39651,0.01502
4939.46778,0.01635
4937.53905,0.01593
4935.61033,0.01498
4933.68160,0.01454
4931.75288,0.01409
4929.82415,0.01388
4927.89542,0.01403
4925.96670,0.01392
4924.03797,0.01404
4922.10924,0.01463
4920.18052,0.01532
4918.25179,0.01624
4916.32307,0.01695
4914.39434,0.01684
4912.46561,0.01627
4910.53689,0.01588
4908.60816,0.01538
4906.67943,0.01431
4904.75071,0.01359
4902.82198,0.01371
4900.89326,0.01400
4898.96453,0.01427
4897.03580,0.01467
4895.10708,0.01516
4893.17835,0.01536
4891.24963,0.01525
4889.32090,0.01577
4887.39217,0.01749
4885.46345,0.01955
4883.53472,0.02052
4881.60599,0.01981
4879.67727,0.01850
4877.74854,0.01777
4875.81982,0.01683
4873.89109,0.01514
4871.96236,0.01426
4870.03364,0.01452
4868.10491,0.01452
4866.17618,0.01381
4864.24746,0.01278
4862.31873,0.01233
4860.39001,0.01323
4858.46128,0.01437
4856.53255,0.01471
4854.60383,0.01504
4852.67510,0.01547
4850.74638,0.01506
4848.81765,0.01450
4846.88892,0.01464
4844.96020,0.01429
4843.03147,0.01331
4841.10274,0.01354
4839.17402,0.01471
4837.24529,0.01506
4835.31657,0.01507
4833.38784,0.01579
4831.45911,0.01676
4829.53039,0.01676
4827.60166,0.01524
4825.67293,0.01373
4823.74421,0.01349
4821.81548,0.01330
4819.88676,0.01272
4817.95803,0.01307
4816.02930,0.01416
4814.10058,0.01475
4812.17185,0.01520
4810.24313,0.01649
4808.31440,0.01816
4806.38567,0.01873
4804.45695,0.01760
4802.52822,0.01603
4800.59949,0.01533
4798.67077,0.01523
4796.74204,0.01459
4794.81332,0.01355
4792.88459,0.01351
4790.95586,0.01423
4789.02714,0.01404
4787.09841,0.01317
4785.16968,0.01296
4783.24096,0.01360
4781.31223,0.01443
4779.38351,0.01474
4777.45478,0.01439
4775.52605,0.01442
4773.59733,0.01579
4771.66860,0.01724
4769.73988,0.01701
4767.81115,0.01581
4765.88242,0.01507
4763.95370,0.01446
4762.02497,0.01332
4760.09624,0.01258
4758.16752,0.01307
4756.23879,0.01393
4754.31007,0.01470
4752.38134,0.01563
4750.45261,0.01633
4748.52389,0.01654
4746.59516,0.01632
4744.66643,0.01536
4742.73771,0.01410
4740.80898,0.01372
4738.88026,0.01418
4736.95153,0.01488
4735.02280,0.01561
4733.09408,0.01592
4731.16535,0.01578
4729.23663,0.01603
4727.30790,0.01678
4725.37917,0.01719
4723.45045,0.01686
4721.52172,0.01619
4719.59299,0.01568
4717.66427,0.01531
4715.73554,0.01488
4713.80682,0.01457
4711.87809,0.01476
4709.94936,0.01536
4708.02064,0.01579
4706.09191,0.01577
4704.16318,0.01570
4702.23446,0.01614
4700.30573,0.01684
4698.37701,0.01688
4696.44828,0.01624
4694.51955,0.01576
4692.59083,0.01580
4690.66210,0.01585
4688.73338,0.01526
4686.80465,0.01457
4684.87592,0.01452
4682.94720,0.01485
4681.01847,0.01524
4679.08974,0.01551
4677.16102,0.01570
4675.23229,0.01634
4673.30357,0.01702
4671.37484,0.01700
4669.44611,0.01670
4667.51739,0.01669
4665.58866,0.01659
4663.65993,0.01586
4661.73121,0.01495
4659.80248,0.01468
4657.87376,0.01512
4655.94503,0.01631
4654.01630,0.01742
4652.08758,0.01678
4650.15885,0.01528
4648.23013,0.01491
4646.30140,0.01492
4644.37267,0.01448
4642.44395,0.01470
4640.51522,0.01582
4638.58649,0.01632
4636.65777,0.01542
4634.72904,0.01403
4632.80032,0.01321
4630.87159,0.01309
4628.94286,0.01377
4627.01414,0.01522
4625.08541,0.01639
4623.15668,0.01667
4621.22796,0.01609
4619.29923,0.01498
4617.37051,0.01393
4615.44178,0.01371
4613.51305,0.01396
4611.58433,0.01423
4609.65560,0.01477
4607.72688,0.01517
4605.79815,0.01476
4603.86942,0.01416
4601.94070,0.01426
4600.01197,0.01471
4598.08324,0.01488
4596.15452,0.01489
4594.22579,0.01522
4592.29707,0.01577
4590.36834,0.01560
4588.43961,0.01494
4586.51089,0.01510
4584.58216,0.01593
4582.65343,0.01625
4580.72471,0.01573
4578.79598,0.01485
4576.86726,0.01410
4574.93853,0.01355
4573.00980,0.01362
4571.08108,0.01460
4569.15235,0.01543
4567.22363,0.01524
4565.29490,0.01474
4563.36617,0.01452
4561.43745,0.01432
4559.50872,0.01450
4557.57999,0.01530
4555.65127,0.01593
4553.72254,0.01575
4551.79382,0.01492
4549.86509,0.01417
4547.93636,0.01387
4546.00764,0.01382
4544.07891,0.01408
4542.15018,0.01461
4540.22146,0.01479
4538.29273,0.01436
4536.36401,0.01419
4534.43528,0.01485
4532.50655,0.01545
4530.57783,0.01507
4528.64910,0.01408
4526.72037,0.01343
4524.79165,0.01330
4522.86292,0.01368
4520.93420,0.01485
4519.00547,0.01634
4517.07674,0.01684
4515.14802,0.01608
4513.21929,0.01553
4511.29057,0.01582
4509.36184,0.01630
4507.43311,0.01685
4505.50439,0.01731
4503.57566,0.01723
4501.64693,0.01630
4499.71821,0.01482
4497.78948,0.01380
4495.86076,0.01362
4493.93203,0.01428
4492.00330,0.01536
4490.07458,0.01579
4488.14585,0.01577
4486.21712,0.01590
4484.28840,0.01564
4482.35967,0.01511
4480.43095,0.01497
4478.50222,0.01489
4476.57349,0.01451
4474.64477,0.01427
4472.71604,0.01440
4470.78732,0.01465
4468.85859,0.01481
4466.92986,0.01456
4465.00114,0.01401
4463.07241,0.01373
4461.14368,0.01390
4459.21496,0.01433
4457.28623,0.01482
4455.35751,0.01516
4453.42878,0.01521
4451.50005,0.01490
4449.57133,0.01444
4447.64260,0.01399
4445.71387,0.01358
4443.78515,0.01363
4441.85642,0.01439
4439.92770,0.01505
4437.99897,0.01493
4436.07024,0.01446
4434.14152,0.01418
4432.21279,0.01398
4430.28407,0.01366
4428.35534,0.01345
4426.42661,0.01352
4424.49789,0.01345
4422.56916,0.01328
4420.64043,0.01361
4418.71171,0.01452
4416.78298,0.01522
4414.85426,0.01512
4412.92553,0.01468
4410.99680,0.01454
4409.06808,0.01465
4407.13935,0.01489
4405.21062,0.01540
4403.28190,0.01588
4401.35317,0.01555
4399.42445,0.01462
4397.49572,0.01423
4395.56699,0.01425
4393.63827,0.01395
4391.70954,0.01378
4389.78082,0.01395
4387.85209,0.01419
4385.92336,0.01487
4383.99464,0.01576
4382.06591,0.01585
4380.13718,0.01495
4378.20846,0.01414
4376.27973,0.01396
4374.35101,0.01384
4372.42228,0.01391
4370.49355,0.01454
4368.56483,0.01527
4366.63610,0.01576
4364.70737,0.01633
4362.77865,0.01670
4360.84992,0.01603
4358.92120,0.01483
4356.99247,0.01448
4355.06374,0.01504
4353.13502,0.01540
4351.20629,0.01489
4349.27757,0.01424
4347.34884,0.01427
4345.42011,0.01463
4343.49139,0.01467
4341.56266,0.01452
4339.63393,0.01442
4337.70521,0.01415
4335.77648,0.01388
4333.84776,0.01419
4331.91903,0.01487
4329.99030,0.01477
4328.06158,0.01372
4326.13285,0.01303
4324.20412,0.01322
4322.27540,0.01366
4320.34667,0.01400
4318.41795,0.01423
4316.48922,0.01457
4314.56049,0.01523
4312.63177,0.01604
4310.70304,0.01652
4308.77432,0.01632
4306.84559,0.01568
4304.91686,0.01492
4302.98814,0.01416
4301.05941,0.01392
4299.13068,0.01441
4297.20196,0.01481
4295.27323,0.01465
4293.34451,0.01442
4291.41578,0.01432
4289.48705,0.01390
4287.55833,0.01324
4285.62960,0.01296
4283.70087,0.01330
4281.77215,0.01399
4279.84342,0.01469
4277.91470,0.01515
4275.98597,0.01503
4274.05724,0.01441
4272.12852,0.01406
4270.19979,0.01434
4268.27107,0.01479
4266.34234,0.01505
4264.41361,0.01499
4262.48489,0.01455
4260.55616,0.01423
4258.62743,0.01442
4256.69871,0.01486
4254.76998,0.01534
4252.84126,0.01570
4250.91253,0.01522
4248.98380,0.01410
4247.05508,0.01362
4245.12635,0.01386
4243.19762,0.01416
4241.26890,0.01467
4239.34017,0.01527
4237.41145,0.01533
4235.48272,0.01516
4233.55399,0.01490
4231.62527,0.01430
4229.69654,0.01395
4227.76782,0.01426
4225.83909,0.01459
4223.91036,0.01443
4221.98164,0.01416
4220.05291,0.01408
4218.12418,0.01434
4216.19546,0.01451
4214.26673,0.01427
4212.33801,0.01401
4210.40928,0.01427
4208.48055,0.01463
4206.55183,0.01440
4204.62310,0.01379
4202.69437,0.01312
4200.76565,0.01262
4198.83692,0.01277
4196.90820,0.01346
4194.97947,0.01386
4193.05074,0.01379
4191.12202,0.01382
4189.19329,0.01400
4187.26456,0.01399
4185.33584,0.01389
4183.40711,0.01384
4181.47839,0.01381
4179.54966,0.01401
4177.62093,0.01431
4175.69221,0.01438
4173.76348,0.01439
4171.83476,0.01471
4169.90603,0.01509
4167.97730,0.01511
4166.04858,0.01492
4164.11985,0.01465
4162.19112,0.01390
4160.26240,0.01303
4158.33367,0.01320
4156.40495,0.01409
4154.47622,0.01452
4152.54749,0.01437
4150.61877,0.01401
4148.69004,0.01372
4146.76131,0.01390
4144.83259,0.01451
4142.90386,0.01486
4140.97514,0.01455
4139.04641,0.01393
4137.11768,0.01361
4135.18896,0.01367
4133.26023,0.01375
4131.33151,0.01370
4129.40278,0.01363
4127.47405,0.01366
4125.54533,0.01360
4123.61660,0.01333
4121.68787,0.01317
4119.75915,0.01350
4117.83042,0.01408
4115.90170,0.01417
4113.97297,0.01384
4112.04424,0.01387
4110.11552,0.01400
4108.18679,0.01353
4106.25806,0.01298
4104.32934,0.01326
4102.40061,0.01406
4100.47189,0.01419
4098.54316,0.01367
4096.61443,0.01341
4094.68571,0.01348
4092.75698,0.01359
4090.82826,0.01385
4088.89953,0.01432
4086.97080,0.01482
4085.04208,0.01499
4083.11335,0.01461
4081.18462,0.01407
4079.25590,0.01387
4077.32717,0.01407
4075.39845,0.01433
4073.46972,0.01423
4071.54099,0.01403
4069.61227,0.01405
4067.68354,0.01413
4065.75481,0.01398
4063.82609,0.01364
4061.89736,0.01337
4059.96864,0.01344
4058.03991,0.01388
4056.11118,0.01410
4054.18246,0.01382
4052.25373,0.01373
4050.32501,0.01399
4048.39628,0.01427
4046.46755,0.01444
4044.53883,0.01410
4042.61010,0.01352
4040.68137,0.01359
4038.75265,0.01384
4036.82392,0.01364
4034.89520,0.01385
4032.96647,0.01462
4031.03774,0.01500
4029.10902,0.01501
4027.18029,0.01511
4025.25156,0.01512
4023.32284,0.01473
4021.39411,0.01408
4019.46539,0.01370
4017.53666,0.01403
4015.60793,0.01466
4013.67921,0.01482
4011.75048,0.01450
4009.82176,0.01415
4007.89303,0.01418
4005.96430,0.01463
4004.03558,0.01494
4002.10685,0.01480
4000.17812,0.01481
3998.24940,0.01523
3996.32067,0.01522
3994.39195,0.01442
3992.46322,0.01388
3990.53449,0.01423
3988.60577,0.01504
3986.67704,0.01576
3984.74831,0.01579
3982.81959,0.01512
3980.89086,0.01502
3978.96214,0.01568
3977.03341,0.01558
3975.10468,0.01482
3973.17596,0.01448
3971.24723,0.01442
3969.31851,0.01448
3967.38978,0.01488
3965.46105,0.01479
3963.53233,0.01395
3961.60360,0.01380
3959.67487,0.01464
3957.74615,0.01533
3955.81742,0.01556
3953.88870,0.01505
3951.95997,0.01407
3950.03124,0.01357
3948.10252,0.01350
3946.17379,0.01348
3944.24506,0.01381
3942.31634,0.01535
3940.38761,0.01802
3938.45889,0.01981
3936.53016,0.01989
3934.60143,0.01902
3932.67271,0.01740
3930.74398,0.01654
3928.81526,0.01725
3926.88653,0.01670
3924.95780,0.01331
3923.02908,0.01129
3921.10035,0.01197
3919.17162,0.01334
3917.24290,0.01502
3915.31417,0.01585
3913.38545,0.01397
3911.45672,0.01266
3909.52799,0.01466
3907.59927,0.01807
3905.67054,0.01873
3903.74181,0.01668
3901.81309,0.01510
3899.88436,0.01503
3897.95564,0.01590
3896.02691,0.01554
3894.09818,0.01407
3892.16946,0.01375
3890.24073,0.01575
3888.31201,0.01823
3886.38328,0.01583
3884.45455,0.01182
3882.52583,0.01029
3880.59710,0.01206
3878.66837,0.01525
3876.73965,0.01643
3874.81092,0.01369
3872.88220,0.00867
3870.95347,0.00743
3869.02474,0.01092
3867.09602,0.01445
3865.16729,0.01499
3863.23856,0.01381
3861.30984,0.01240
3859.38111,0.01111
3857.45239,0.01120
3855.52366,0.01321
3853.59493,0.01470
3851.66621,0.01507
3849.73748,0.01418
3847.80876,0.01247
3845.88003,0.01168
3843.95130,0.01228
3842.02258,0.01232
3840.09385,0.01111
3838.16512,0.01178
3836.23640,0.01318
3834.30767,0.01321
3832.37895,0.01454
3830.45022,0.01539
3828.52149,0.01294
3826.59277,0.00983
3824.66404,0.00874
3822.73531,0.00879
3820.80659,0.00860
3818.87786,0.00890
3816.94914,0.01039
3815.02041,0.01280
3813.09168,0.01450
3811.16296,0.01481
3809.23423,0.01480
3807.30550,0.01530
3805.37678,0.01581
3803.44805,0.01519
3801.51933,0.01426
3799.59060,0.01344
3797.66187,0.01331
3795.73315,0.01592
3793.80442,0.01964
3791.87570,0.01925
3789.94697,0.01662
3788.01824,0.01738
3786.08952,0.02317
3784.16079,0.02689
3782.23206,0.02621
3780.30334,0.02587
3778.37461,0.02161
3776.44589,0.01551
3774.51716,0.01367
3772.58843,0.01450
3770.65971,0.01489
3768.73098,0.01326
3766.80225,0.01079
3764.87353,0.00872
3762.94480,0.00822
3761.01608,0.01014
3759.08735,0.01235
3757.15862,0.01136
3755.22990,0.00828
3753.30117,0.00628
3751.37245,0.00658
3749.44372,0.00936
3747.51499,0.01427
3745.58627,0.01758
3743.65754,0.01510
3741.72881,0.01166
3739.80009,0.01053
3737.87136,0.01164
3735.94264,0.01363
3734.01391,0.01345
3732.08518,0.01078
3730.15646,0.00810
3728.22773,0.00836
3726.29900,0.01236
3724.37028,0.01849
3722.44155,0.02043
3720.51283,0.01612
3718.58410,0.01323
3716.65537,0.01335
3714.72665,0.01452
3712.79792,0.01575
3710.86920,0.01656
3708.94047,0.01482
3707.01174,0.01226
3705.08302,0.01421
3703.15429,0.01815
3701.22556,0.01713
3699.29684,0.01337
3697.36811,0.01041
3695.43939,0.00785
3693.51066,0.00603
3691.58193,0.00652
3689.65321,0.00831
3687.72448,0.00951
3685.79575,0.01361
3683.86703,0.02403
3681.93830,0.03095
3680.00958,0.02368
3678.08085,0.01678
3676.15212,0.01326
3674.22340,0.01139
3672.29467,0.01062
3670.36595,0.00940
3668.43722,0.00720
3666.50849,0.00661
3664.57977,0.01034
3662.65104,0.01780
3660.72231,0.02016
3658.79359,0.01674
3656.86486,0.01520
3654.93614,0.01605
3653.00741,0.01757
3651.07868,0.01714
3649.14996,0.01457
3647.22123,0.01210
3645.29250,0.01168
3643.36378,0.01410
3641.43505,0.01626
3639.50633,0.01428
3637.57760,0.01073
3635.64887,0.00965
3633.72015,0.01055
3631.79142,0.01093
3629.86270,0.01084
3627.93397,0.01072
3626.00524,0.01031
3624.07652,0.01124
3622.14779,0.01423
3620.21906,0.01594
3618.29034,0.01358
3616.36161,0.01127
3614.43289,0.01060
3612.50416,0.01059
3610.57543,0.01062
3608.64671,0.00994
3606.71798,0.00836
3604.78925,0.00770
3602.86053,0.00999
3600.93180,0.01502
3599.00308,0.01822
3597.07435,0.01683
3595.14562,0.01496
3593.21690,0.01406
3591.28817,0.01347
3589.35945,0.01276
3587.43072,0.01140
3585.50199,0.00954
3583.57327,0.00900
3581.64454,0.01073
3579.71581,0.01318
3577.78709,0.01407
3575.85836,0.01338
3573.92964,0.01269
3572.00091,0.01221
3570.07218,0.01188
3568.14346,0.01185
3566.21473,0.01159
3564.28600,0.01105
3562.35728,0.01138
3560.42855,0.01305
3558.49983,0.01470
3556.57110,0.01483
3554.64237,0.01351
3552.71365,0.01231
3550.78492,0.01203
3548.85620,0.01202
3546.92747,0.01161
3544.99874,0.01128
3543.07002,0.01147
3541.14129,0.01183
3539.21256,0.01240
3537.28384,0.01330
3535.35511,0.01367
3533.42639,0.01334
3531.49766,0.01316
3529.56893,0.01307
3527.64021,0.01265
3525.71148,0.01220
3523.78275,0.01196
3521.85403,0.01149
3519.92530,0.01091
3517.99658,0.01101
3516.06785,0.01171
3514.13912,0.01224
3512.21040,0.01244
3510.28167,0.01264
3508.35295,0.01291
3506.42422,0.01307
3504.49549,0.01303
3502.56677,0.01285
3500.63804,0.01265
3498.70931,0.01245
3496.78059,0.01235
3494.85186,0.01240
3492.92314,0.01236
3490.99441,0.01245
3489.06568,0.01312
3487.13696,0.01388
3485.20823,0.01416
3483.27950,0.01419
3481.35078,0.01427
3479.42205,0.01435
3477.49333,0.01431
3475.56460,0.01403
3473.63587,0.01350
3471.70715,0.01290
3469.77842,0.01259
3467.84970,0.01231
3465.92097,0.01151
3463.99224,0.01099
3462.06352,0.01158
3460.13479,0.01245
3458.20606,0.01279
3456.27734,0.01257
3454.34861,0.01217
3452.41989,0.01234
3450.49116,0.01301
3448.56243,0.01323
3446.63371,0.01271
3444.70498,0.01209
3442.77625,0.01197
3440.84753,0.01220
3438.91880,0.01233
3436.99008,0.01221
3435.06135,0.01204
3433.13262,0.01227
3431.20390,0.01302
3429.27517,0.01379
3427.34644,0.01414
3425.41772,0.01407
3423.48899,0.01354
3421.56027,0.01287
3419.63154,0.01270
3417.70281,0.01290
3415.77409,0.01304
3413.84536,0.01273
3411.91664,0.01232
3409.98791,0.01217
3408.05918,0.01225
3406.13046,0.01230
3404.20173,0.01222
3402.27300,0.01224
3400.34428,0.01261
3398.41555,0.01321
3396.48683,0.01368
3394.55810,0.01353
3392.62937,0.01305
3390.70065,0.01302
3388.77192,0.01356
3386.84319,0.01409
3384.91447,0.01414
3382.98574,0.01382
3381.05702,0.01354
3379.12829,0.01341
3377.19956,0.01321
3375.27084,0.01273
3373.34211,0.01228
3371.41339,0.01214
3369.48466,0.01221
3367.55593,0.01248
3365.62721,0.01298
3363.69848,0.01351
3361.76975,0.01362
3359.84103,0.01336
3357.91230,0.01305
3355.98358,0.01270
3354.05485,0.01218
3352.12612,0.01175
3350.19740,0.01184
3348.26867,0.01228
3346.33994,0.01267
3344.41122,0.01276
3342.48249,0.01253
3340.55377,0.01226
3338.62504,0.01208
3336.69631,0.01191
3334.76759,0.01182
3332.83886,0.01197
3330.91014,0.01232
3328.98141,0.01249
3327.05268,0.01231
3325.12396,0.01214
3323.19523,0.01202
3321.26650,0.01162
3319.33778,0.01120
3317.40905,0.01134
3315.48033,0.01189
3313.55160,0.01227
3311.62287,0.01241
3309.69415,0.01251
3307.76542,0.01268
3305.83669,0.01294
3303.90797,0.01314
3301.97924,0.01329
3300.05052,0.01322
3298.12179,0.01270
3296.19306,0.01227
3294.26434,0.01218
3292.33561,0.01196
3290.40689,0.01178
3288.47816,0.01204
3286.54943,0.01247
3284.62071,0.01279
3282.69198,0.01296
3280.76325,0.01306
3278.83453,0.01315
3276.90580,0.01328
3274.97708,0.01345
3273.04835,0.01356
3271.11962,0.01340
3269.19090,0.01303
3267.26217,0.01264
3265.33344,0.01246
3263.40472,0.01255
3261.47599,0.01282
3259.54727,0.01301
3257.61854,0.01270
3255.68981,0.01211
3253.76109,0.01203
3251.83236,0.01244
3249.90364,0.01253
3247.97491,0.01211
3246.04618,0.01183
3244.11746,0.01210
3242.18873,0.01256
3240.26000,0.01266
3238.33128,0.01249
3236.40255,0.01244
3234.47383,0.01243
3232.54510,0.01254
3230.61637,0.01305
3228.68765,0.01337
3226.75892,0.01300
3224.83019,0.01252
3222.90147,0.01229
3220.97274,0.01209
3219.04402,0.01215
3217.11529,0.01264
3215.18656,0.01308
3213.25784,0.01294
3211.32911,0.01253
3209.40039,0.01251
3207.47166,0.01283
3205.54293,0.01305
3203.61421,0.01303
3201.68548,0.01285
3199.75675,0.01283
3197.82803,0.01309
3195.89930,0.01321
3193.97058,0.01317
3192.04185,0.01317
3190.11312,0.01297
3188.18440,0.01263
3186.25567,0.01253
3184.32694,0.01277
3182.39822,0.01315
3180.46949,0.01328
3178.54077,0.01308
3176.61204,0.01281
3174.68331,0.01251
3172.75459,0.01249
3170.82586,0.01273
3168.89714,0.01285
3166.96841,0.01305
3165.03968,0.01341
3163.11096,0.01351
3161.18223,0.01343
3159.25350,0.01325
3157.32478,0.01279
3155.39605,0.01249
3153.46733,0.01281
3151.53860,0.01334
3149.60987,0.01356
3147.68115,0.01347
3145.75242,0.01333
3143.82369,0.01313
3141.89497,0.01273
3139.96624,0.01219
3138.03752,0.01181
3136.10879,0.01177
3134.18006,0.01196
3132.25134,0.01227
3130.32261,0.01267
3128.39389,0.01290
3126.46516,0.01281
3124.53643,0.01282
3122.60771,0.01311
3120.67898,0.01334
3118.75025,0.01330
3116.82153,0.01321
3114.89280,0.01306
3112.96408,0.01274
3111.03535,0.01245
3109.10662,0.01239
3107.17790,0.01256
3105.24917,0.01274
3103.32044,0.01266
3101.39172,0.01253
3099.46299,0.01257
3097.53427,0.01248
3095.60554,0.01212
3093.67681,0.01197
3091.74809,0.01220
3089.81936,0.01250
3087.89063,0.01288
3085.96191,0.01317
3084.03318,0.01305
3082.10446,0.01283
3080.17573,0.01289
3078.24700,0.01294
3076.31828,0.01257
3074.38955,0.01190
3072.46083,0.01151
3070.53210,0.01165
3068.60337,0.01202
3066.67465,0.01209
3064.74592,0.01169
3062.81719,0.01135
3060.88847,0.01121
3058.95974,0.01081
3057.03102,0.01009
3055.10229,0.00935
3053.17356,0.00852
3051.24484,0.00765
3049.31611,0.00706
3047.38738,0.00681
3045.45866,0.00690
3043.52993,0.00733
3041.60121,0.00788
3039.67248,0.00832
3037.74375,0.00855
3035.81503,0.00820
3033.88630,0.00682
3031.95758,0.00479
3030.02885,0.00369
3028.10012,0.00447
3026.17140,0.00620
3024.24267,0.00740
3022.31394,0.00751
3020.38522,0.00690
3018.45649,0.00617
3016.52777,0.00561
3014.59904,0.00523
3012.67031,0.00505
3010.74159,0.00509
3008.81286,0.00519
3006.88413,0.00522
3004.95541,0.00549
3003.02668,0.00621
3001.09796,0.00705
2999.16923,0.00777
2997.24050,0.00823
2995.31178,0.00810
2993.38305,0.00710
2991.45433,0.00527
2989.52560,0.00384
2987.59687,0.00445
2985.66815,0.00679
2983.73942,0.00872
2981.81069,0.00897
2979.88197,0.00821
2977.95324,0.00765
2976.02452,0.00748
2974.09579,0.00720
2972.16706,0.00694
2970.23834,0.00700
2968.30961,0.00715
2966.38088,0.00740
2964.45216,0.00802
2962.52343,0.00881
2960.59471,0.00949
2958.66598,0.00998
2956.73725,0.01027
2954.80853,0.01060
2952.87980,0.01101
2950.95108,0.01117
2949.02235,0.01108
2947.09362,0.01117
2945.16490,0.01150
2943.23617,0.01186
2941.30744,0.01212
2939.37872,0.01209
2937.44999,0.01171
2935.52127,0.01129
2933.59254,0.01123
2931.66381,0.01159
2929.73509,0.01197
2927.80636,0.01211
2925.87763,0.01221
2923.94891,0.01237
2922.02018,0.01241
2920.09146,0.01231
2918.16273,0.01219
2916.23400,0.01200
2914.30528,0.01173
2912.37655,0.01165
2910.44783,0.01179
2908.51910,0.01185
2906.59037,0.01180
2904.66165,0.01188
2902.73292,0.01225
2900.80419,0.01270
2898.87547,0.01280
2896.94674,0.01256
2895.01802,0.01249
2893.08929,0.01278
2891.16056,0.01300
2889.23184,0.01289
2887.30311,0.01283
2885.37438,0.01314
2883.44566,0.01352
2881.51693,0.01348
2879.58821,0.01308
2877.65948,0.01266
2875.73075,0.01255
2873.80203,0.01273
2871.87330,0.01269
2869.94458,0.01237
2868.01585,0.01230
2866.08712,0.01240
2864.15840,0.01221
2862.22967,0.01207
2860.30094,0.01237
2858.37222,0.01276
2856.44349,0.01307
2854.51477,0.01334
2852.58604,0.01325
2850.65731,0.01290
2848.72859,0.01272
2846.79986,0.01275
2844.87113,0.01283
2842.94241,0.01281
2841.01368,0.01252
2839.08496,0.01224
2837.15623,0.01228
2835.22750,0.01263
2833.29878,0.01291
2831.37005,0.01290
2829.44133,0.01268
2827.51260,0.01243
2825.58387,0.01224
2823.65515,0.01231
2821.72642,0.01266
2819.79769,0.01298
2817.86897,0.01311
2815.94024,0.01313
2814.01152,0.01307
2812.08279,0.01288
2810.15406,0.01266
2808.22534,0.01262
2806.29661,0.01268
2804.36788,0.01252
2802.43916,0.01233
2800.51043,0.01246
2798.58171,0.01277
2796.65298,0.01294
2794.72425,0.01290
2792.79553,0.01281
2790.86680,0.01279
2788.93808,0.01289
2787.00935,0.01297
2785.08062,0.01273
2783.15190,0.01226
2781.22317,0.01210
2779.29444,0.01229
2777.36572,0.01262
2775.43699,0.01287
2773.50827,0.01281
2771.57954,0.01266
2769.65081,0.01260
2767.72209,0.01240
2765.79336,0.01213
2763.86463,0.01227
2761.93591,0.01265
2760.00718,0.01251
2758.07846,0.01208
2756.14973,0.01219
2754.22100,0.01273
2752.29228,0.01307
2750.36355,0.01320
2748.43483,0.01334
2746.50610,0.01322
2744.57737,0.01272
2742.64865,0.01230
2740.71992,0.01222
2738.79119,0.01235
2736.86247,0.01258
2734.93374,0.01271
2733.00502,0.01264
2731.07629,0.01268
2729.14756,0.01302
2727.21884,0.01329
2725.29011,0.01335
2723.36138,0.01335
2721.43266,0.01332
2719.50393,0.01324
2717.57521,0.01310
2715.64648,0.01297
2713.71775,0.01283
2711.78903,0.01270
2709.86030,0.01265
2707.93157,0.01255
2706.00285,0.01227
2704.07412,0.01206
2702.14540,0.01207
2700.21667,0.01220
2698.28794,0.01230
2696.35922,0.01247
2694.43049,0.01292
2692.50177,0.01338
2690.57304,0.01328
2688.64431,0.01284
2686.71559,0.01281
2684.78686,0.01328
2682.85813,0.01359
2680.92941,0.01346
2679.00068,0.01327
2677.07196,0.01329
2675.14323,0.01338
2673.21450,0.01338
2671.28578,0.01333
2669.35705,0.01334
2667.42832,0.01338
2665.49960,0.01335
2663.57087,0.01326
2661.64215,0.01319
2659.71342,0.01306
2657.78469,0.01288
2655.85597,0.01284
2653.92724,0.01300
2651.99852,0.01322
2650.06979,0.01332
2648.14106,0.01311
2646.21234,0.01282
2644.28361,0.01284
2642.35488,0.01314
2640.42616,0.01335
2638.49743,0.01327
2636.56871,0.01311
2634.63998,0.01314
2632.71125,0.01315
2630.78253,0.01286
2628.85380,0.01257
2626.92507,0.01267
2624.99635,0.01298
2623.06762,0.01320
2621.13890,0.01344
2619.21017,0.01370
2617.28144,0.01358
2615.35272,0.01312
2613.42399,0.01275
2611.49527,0.01259
2609.56654,0.01255
2607.63781,0.01263
2605.70909,0.01287
2603.78036,0.01319
2601.85163,0.01340
2599.92291,0.01336
2597.99418,0.01317
2596.06546,0.01292
2594.13673,0.01260
2592.20800,0.01231
2590.27928,0.01235
2588.35055,0.01271
2586.42182,0.01296
2584.49310,0.01303
2582.56437,0.01327
2580.63565,0.01360
2578.70692,0.01360
2576.77819,0.01326
2574.84947,0.01300
2572.92074,0.01299
2570.99202,0.01313
2569.06329,0.01336
2567.13456,0.01346
2565.20584,0.01316
2563.27711,0.01268
2561.34838,0.01255
2559.41966,0.01261
2557.49093,0.01250
2555.56221,0.01248
2553.63348,0.01271
2551.70475,0.01292
2549.77603,0.01304
2547.84730,0.01320
2545.91857,0.01331
2543.98985,0.01314
2542.06112,0.01284
2540.13240,0.01272
2538.20367,0.01270
2536.27494,0.01260
2534.34622,0.01260
2532.41749,0.01283
2530.48877,0.01310
2528.56004,0.01328
2526.63131,0.01332
2524.70259,0.01318
2522.77386,0.01301
2520.84513,0.01295
2518.91641,0.01282
2516.98768,0.01254
2515.05896,0.01241
2513.13023,0.01259
2511.20150,0.01282
2509.27278,0.01311
2507.34405,0.01339
2505.41532,0.01328
2503.48660,0.01281
2501.55787,0.01251
2499.62915,0.01252
2497.70042,0.01271
2495.77169,0.01293
2493.84297,0.01297
2491.91424,0.01290
2489.98552,0.01283
2488.05679,0.01273
2486.12806,0.01274
2484.19934,0.01306
2482.27061,0.01341
2480.34188,0.01334
2478.41316,0.01300
2476.48443,0.01285
2474.55571,0.01288
2472.62698,0.01300
2470.69825,0.01322
2468.76953,0.01332
2466.84080,0.01317
2464.91207,0.01301
2462.98335,0.01306
2461.05462,0.01329
2459.12590,0.01342
2457.19717,0.01324
2455.26844,0.01294
2453.33972,0.01290
2451.41099,0.01307
2449.48227,0.01305
2447.55354,0.01289
2445.62481,0.01291
2443.69609,0.01286
2441.76736,0.01269
2439.83863,0.01279
2437.90991,0.01300
2435.98118,0.01297
2434.05246,0.01281
2432.12373,0.01281
2430.19500,0.01298
2428.26628,0.01318
2426.33755,0.01331
2424.40882,0.01322
2422.48010,0.01293
2420.55137,0.01274
2418.62265,0.01273
2416.69392,0.01281
2414.76519,0.01281
2412.83647,0.01270
2410.90774,0.01282
2408.97902,0.01334
2407.05029,0.01419
2405.12156,0.01549
2403.19284,0.01749
2401.26411,0.02008
2399.33538,0.02313
2397.40666,0.02673
2395.47793,0.03089
2393.54921,0.03532
2391.62048,0.03974
2389.69175,0.04332
2387.76303,0.04385
2385.83430,0.04021
2383.90557,0.03448
2381.97685,0.02835
2380.04812,0.02122
2378.11940,0.01460
2376.19067,0.01055
2374.26194,0.00801
2372.33322,0.00626
2370.40449,0.00554
2368.47576,0.00617
2366.54704,0.00881
2364.61831,0.01275
2362.68959,0.01643
2360.76086,0.01883
2358.83213,0.01808
2356.90341,0.01488
2354.97468,0.01193
2353.04596,0.01046
2351.11723,0.01008
2349.18850,0.00997
2347.25978,0.01025
2345.33105,0.01083
2343.40232,0.01067
2341.47360,0.00968
2339.54487,0.00880
2337.61615,0.00832
2335.68742,0.00793
2333.75869,0.00775
2331.82997,0.00815
2329.90124,0.00899
2327.97251,0.00959
2326.04379,0.00940
2324.11506,0.00886
2322.18634,0.00863
2320.25761,0.00888
2318.32888,0.00958
2316.40016,0.01048
2314.47143,0.01120
2312.54271,0.01158
2310.61398,0.01171
2308.68525,0.01163
2306.75653,0.01140
2304.82780,0.01129
2302.89907,0.01154
2300.97035,0.01202
2299.04162,0.01244
2297.11290,0.01272
2295.18417,0.01280
2293.25544,0.01261
2291.32672,0.01235
2289.39799,0.01217
2287.46926,0.01210
2285.54054,0.01221
2283.61181,0.01226
2281.68309,0.01196
2279.75436,0.01168
2277.82563,0.01170
2275.89691,0.01185
2273.96818,0.01184
2272.03946,0.01176
2270.11073,0.01184
2268.18200,0.01207
2266.25328,0.01231
2264.32455,0.01252
2262.39582,0.01263
2260.46710,0.01255
2258.53837,0.01236
2256.60965,0.01236
2254.68092,0.01264
2252.75219,0.01286
2250.82347,0.01284
2248.89474,0.01263
2246.96601,0.01244
2245.03729,0.01242
2243.10856,0.01246
2241.17984,0.01246
2239.25111,0.01250
2237.32238,0.01266
2235.39366,0.01284
2233.46493,0.01296
2231.53621,0.01305
2229.60748,0.01296
2227.67875,0.01260
2225.75003,0.01234
2223.82130,0.01243
2221.89257,0.01257
2219.96385,0.01261
2218.03512,0.01265
2216.10640,0.01264
2214.17767,0.01259
2212.24894,0.01252
2210.32022,0.01238
2208.39149,0.01220
2206.46276,0.01217
2204.53404,0.01219
2202.60531,0.01209
2200.67659,0.01199
2198.74786,0.01208
2196.81913,0.01243
2194.89041,0.01272
2192.96168,0.01268
2191.03296,0.01245
2189.10423,0.01227
2187.17550,0.01226
2185.24678,0.01246
2183.31805,0.01267
2181.38932,0.01277
2179.46060,0.01276
2177.53187,0.01260
2175.60315,0.01241
2173.67442,0.01237
2171.74569,0.01239
2169.81697,0.01239
2167.88824,0.01245
2165.95951,0.01259
2164.03079,0.01274
2162.10206,0.01278
2160.17334,0.01269
2158.24461,0.01264
2156.31588,0.01265
2154.38716,0.01260
2152.45843,0.01249
2150.52971,0.01236
2148.60098,0.01233
2146.67225,0.01244
2144.74353,0.01241
2142.81480,0.01216
2140.88607,0.01194
2138.95735,0.01196
2137.02862,0.01221
2135.09990,0.01252
2133.17117,0.01269
2131.24244,0.01255
2129.31372,0.01211
2127.38499,0.01167
2125.45626,0.01164
2123.52754,0.01198
2121.59881,0.01232
2119.67009,0.01247
2117.74136,0.01236
2115.81263,0.01207
2113.88391,0.01187
2111.95518,0.01183
2110.02646,0.01191
2108.09773,0.01212
2106.16900,0.01231
2104.24028,0.01230
2102.31155,0.01213
2100.38282,0.01212
2098.45410,0.01226
2096.52537,0.01242
2094.59665,0.01261
2092.66792,0.01267
2090.73919,0.01252
2088.81047,0.01234
2086.88174,0.01226
2084.95301,0.01229
2083.02429,0.01227
2081.09556,0.01227
2079.16684,0.01238
2077.23811,0.01222
2075.30938,0.01184
2073.38066,0.01176
2071.45193,0.01204
2069.52321,0.01236
2067.59448,0.01247
2065.66575,0.01246
2063.73703,0.01248
2061.80830,0.01231
2059.87957,0.01200
2057.95085,0.01202
2056.02212,0.01227
2054.09340,0.01224
2052.16467,0.01203
2050.23594,0.01203
2048.30722,0.01224
2046.37849,0.01235
2044.44976,0.01232
2042.52104,0.01240
2040.59231,0.01253
2038.66359,0.01256
2036.73486,0.01263
2034.80613,0.01251
2032.87741,0.01209
2030.94868,0.01193
2029.01996,0.01217
2027.09123,0.01248
2025.16250,0.01278
2023.23378,0.01294
2021.30505,0.01278
2019.37632,0.01241
2017.44760,0.01207
2015.51887,0.01199
2013.59015,0.01229
2011.66142,0.01279
2009.73269,0.01304
2007.80397,0.01279
2005.87524,0.01219
2003.94651,0.01134
2002.01779,0.01073
2000.08906,0.01085
1998.16034,0.01139
1996.23161,0.01190
1994.30288,0.01220
1992.37416,0.01228
1990.44543,0.01233
1988.51670,0.01260
1986.58798,0.01318
1984.65925,0.01364
1982.73053,0.01344
1980.80180,0.01285
1978.87307,0.01225
1976.94435,0.01190
1975.01562,0.01212
1973.08690,0.01263
1971.15817,0.01278
1969.22944,0.01266
1967.30072,0.01268
1965.37199,0.01289
1963.44326,0.01334
1961.51454,0.01396
1959.58581,0.01399
1957.65709,0.01314
1955.72836,0.01206
1953.79963,0.01118
1951.87091,0.01098
1949.94218,0.01175
1948.01345,0.01267
1946.08473,0.01299
1944.15600,0.01310
1942.22728,0.01349
1940.29855,0.01368
1938.36982,0.01355
1936.44110,0.01365
1934.51237,0.01297
1932.58365,0.01143
1930.65492,0.01078
1928.72619,0.01110
1926.79747,0.01156
1924.86874,0.01188
1922.94001,0.01204
1921.01129,0.01200
1919.08256,0.01179
1917.15384,0.01184
1915.22511,0.01242
1913.29638,0.01306
1911.36766,0.01324
1909.43893,0.01344
1907.51020,0.01378
1905.58148,0.01341
1903.65275,0.01274
1901.72403,0.01235
1899.79530,0.01193
1897.86657,0.01177
1895.93785,0.01200
1894.00912,0.01226
1892.08040,0.01255
1890.15167,0.01322
1888.22294,0.01466
1886.29422,0.01612
1884.36549,0.01553
1882.43676,0.01333
1880.50804,0.01096
1878.57931,0.00925
1876.65059,0.00917
1874.72186,0.01041
1872.79313,0.01154
1870.86441,0.01200
1868.93568,0.01225
1867.00695,0.01277
1865.07823,0.01392
1863.14950,0.01585
1861.22078,0.01693
1859.29205,0.01509
1857.36332,0.01233
1855.43460,0.01023
1853.50587,0.00917
1851.57715,0.00975
1849.64842,0.01170
1847.71969,0.01376
1845.79097,0.01443
1843.86224,0.01403
1841.93351,0.01299
1840.00479,0.01118
1838.07606,0.00996
1836.14734,0.00973
1834.21861,0.00987
1832.28988,0.01049
1830.36116,0.01169
1828.43243,0.01284
1826.50370,0.01315
1824.57498,0.01261
1822.64625,0.01180
1820.71753,0.01158
1818.78880,0.01255
1816.86007,0.01372
1814.93135,0.01357
1813.00262,0.01263
1811.07390,0.01208
1809.14517,0.01263
1807.21644,0.01254
1805.28772,0.01102
1803.35899,0.00950
1801.43026,0.00876
1799.50154,0.00931
1797.57281,0.01103
1795.64409,0.01229
1793.71536,0.01242
1791.78663,0.01292
1789.85791,0.01457
1787.92918,0.01566
1786.00045,0.01407
1784.07173,0.01111
1782.14300,0.00864
1780.21428,0.00800
1778.28555,0.00932
1776.35682,0.01093
1774.42810,0.01166
1772.49937,0.01133
1770.57065,0.01051
1768.64192,0.01126
1766.71319,0.01350
1764.78447,0.01443
1762.85574,0.01330
1760.92701,0.01119
1758.99829,0.00926
1757.06956,0.00868
1755.14084,0.00911
1753.21211,0.01022
1751.28338,0.01254
1749.35466,0.01389
1747.42593,0.01155
1745.49720,0.00870
1743.56848,0.00646
1741.63975,0.00587
1739.71103,0.00764
1737.78230,0.01062
1735.85357,0.01482
1733.92485,0.02087
1731.99612,0.02257
1730.06740,0.01694
1728.13867,0.01103
1726.20994,0.00726
1724.28122,0.00692
1722.35249,0.01015
1720.42376,0.01427
1718.49504,0.01736
1716.56631,0.01992
1714.63759,0.01900
1712.70886,0.01509
1710.78013,0.01071
1708.85141,0.00686
1706.92268,0.00560
1704.99395,0.00683
1703.06523,0.01036
1701.13650,0.01689
1699.20778,0.02033
1697.27905,0.01481
1695.35032,0.00982
1693.42160,0.00697
1691.49287,0.00649
1689.56415,0.00901
1687.63542,0.01254
1685.70669,0.01455
1683.77797,0.01250
1681.84924,0.00983
1679.92051,0.00894
1677.99179,0.00858
1676.06306,0.00893
1674.13434,0.01008
1672.20561,0.01172
1670.27688,0.01637
1668.34816,0.02297
1666.41943,0.01957
1664.49070,0.01431
1662.56198,0.01015
1660.63325,0.00748
1658.70453,0.00757
1656.77580,0.00750
1654.84707,0.00753
1652.91835,0.01092
1650.98962,0.01624
1649.06090,0.01443
1647.13217,0.00993
1645.20344,0.00717
1643.27472,0.00673
1641.34599,0.00924
1639.41726,0.01275
1637.48854,0.01344
1635.55981,0.01238
1633.63109,0.01259
1631.70236,0.01267
1629.77363,0.01116
1627.84491,0.00981
1625.91618,0.00869
1623.98745,0.00842
1622.05873,0.00977
1620.13000,0.01124
1618.20128,0.01154
1616.27255,0.01102
1614.34382,0.01061
1612.41510,0.01078
1610.48637,0.01148
1608.55764,0.01229
1606.62892,0.01255
1604.70019,0.01192
1602.77147,0.01108
1600.84274,0.01086
1598.91401,0.01107
1596.98529,0.01143
1595.05656,0.01235
1593.12784,0.01446
1591.19911,0.01714
1589.27038,0.01683
1587.34166,0.01382
1585.41293,0.01119
1583.48420,0.00993
1581.55548,0.01031
1579.62675,0.01052
1577.69803,0.01061
1575.76930,0.01360
1573.84057,0.02188
1571.91185,0.02356
1569.98312,0.01394
1568.05439,0.00703
1566.12567,0.00459
1564.19694,0.00587
1562.26822,0.00822
1560.33949,0.01063
1558.41076,0.01498
1556.48204,0.02327
1554.55331,0.02722
1552.62459,0.01615
1550.69586,0.00755
1548.76713,0.00479
1546.83841,0.00545
1544.90968,0.00744
1542.98095,0.00877
1541.05223,0.01029
1539.12350,0.01298
1537.19478,0.01545
1535.26605,0.01510
1533.33732,0.01240
1531.40860,0.00978
1529.47987,0.00742
1527.55114,0.00649
1525.62242,0.00745
1523.69369,0.01123
1521.76497,0.01874
1519.83624,0.01798
1517.90751,0.00929
1515.97879,0.00499
1514.05006,0.00478
1512.12134,0.00858
1510.19261,0.01267
1508.26388,0.01202
1506.33516,0.01023
1504.40643,0.01100
1502.47770,0.01374
1500.54898,0.01285
1498.62025,0.00920
1496.69153,0.00718
1494.76280,0.00794
1492.83407,0.00994
1490.90535,0.01203
1488.97662,0.01479
1487.04789,0.01707
1485.11917,0.01423
1483.19044,0.00935
1481.26172,0.00683
1479.33299,0.00683
1477.40426,0.00863
1475.47554,0.01012
1473.54681,0.01174
1471.61809,0.01574
1469.68936,0.01687
1467.76063,0.01073
1465.83191,0.00556
1463.90318,0.00432
1461.97445,0.00634
1460.04573,0.00838
1458.11700,0.00839
1456.18828,0.00765
1454.25955,0.00757
1452.33082,0.00879
1450.40210,0.01045
1448.47337,0.01000
1446.54464,0.00802
1444.61592,0.00609
1442.68719,0.00449
1440.75847,0.00355
1438.82974,0.00301
1436.90101,0.00277
1434.97229,0.00288
1433.04356,0.00283
1431.11484,0.00226
1429.18611,0.00169
1427.25738,0.00140
1425.32866,0.00137
1423.39993,0.00159
1421.47120,0.00176
1419.54248,0.00183
1417.61375,0.00208
1415.68503,0.00253
1413.75630,0.00293
1411.82757,0.00300
1409.89885,0.00264
1407.97012,0.00200
1406.04139,0.00147
1404.11267,0.00133
1402.18394,0.00170
1400.25522,0.00254
1398.32649,0.00346
1396.39776,0.00391
1394.46904,0.00419
1392.54031,0.00490
1390.61159,0.00615
1388.68286,0.00732
1386.75413,0.00751
1384.82541,0.00667
1382.89668,0.00533
1380.96795,0.00425
1379.03923,0.00403
1377.11050,0.00468
1375.18178,0.00563
1373.25305,0.00600
1371.32432,0.00554
1369.39560,0.00499
1367.46687,0.00507
1365.53814,0.00564
1363.60942,0.00619
1361.68069,0.00674
1359.75197,0.00734
1357.82324,0.00788
1355.89451,0.00860
1353.96579,0.00966
1352.03706,0.01039
1350.10834,0.00991
1348.17961,0.00857
1346.25088,0.00745
1344.32216,0.00723
1342.39343,0.00779
1340.46470,0.00850
1338.53598,0.00912
1336.60725,0.00969
1334.67853,0.01003
1332.74980,0.01030
1330.82107,0.01084
1328.89235,0.01125
1326.96362,0.01095
1325.03489,0.01020
1323.10617,0.00971
1321.17744,0.00964
1319.24872,0.00984
1317.31999,0.01034
1315.39126,0.01083
1313.46254,0.01073
1311.53381,0.01025
1309.60509,0.01011
1307.67636,0.01039
1305.74763,0.01062
1303.81891,0.01075
1301.89018,0.01093
1299.96145,0.01099
1298.03273,0.01088
1296.10400,0.01076
1294.17528,0.01055
1292.24655,0.01049
1290.31782,0.01073
1288.38910,0.01091
1286.46037,0.01106
1284.53164,0.01142
1282.60292,0.01177
1280.67419,0.01173
1278.74547,0.01145
1276.81674,0.01150
1274.88801,0.01201
1272.95929,0.01227
1271.03056,0.01192
1269.10183,0.01143
1267.17311,0.01123
1265.24438,0.01136
1263.31566,0.01167
1261.38693,0.01188
1259.45820,0.01183
1257.52948,0.01144
1255.60075,0.01118
1253.67203,0.01149
1251.74330,0.01197
1249.81457,0.01214
1247.88585,0.01204
1245.95712,0.01193
1244.02839,0.01192
1242.09967,0.01196
1240.17094,0.01211
1238.24222,0.01232
1236.31349,0.01235
1234.38476,0.01238
1232.45604,0.01256
1230.52731,0.01252
1228.59858,0.01196
1226.66986,0.01128
1224.74113,0.01117
1222.81241,0.01151
1220.88368,0.01159
1218.95495,0.01140
1217.02623,0.01151
1215.09750,0.01209
1213.16878,0.01267
1211.24005,0.01283
1209.31132,0.01230
1207.38260,0.01132
1205.45387,0.01074
1203.52514,0.01061
1201.59642,0.01032
1199.66769,0.00998
1197.73897,0.00994
1195.81024,0.00990
1193.88151,0.00946
1191.95279,0.00905
1190.02406,0.00918
1188.09533,0.00945
1186.16661,0.00925
1184.23788,0.00886
1182.30916,0.00870
1180.38043,0.00819
1178.45170,0.00697
1176.52298,0.00598
1174.59425,0.00570
1172.66553,0.00539
1170.73680,0.00490
1168.80807,0.00481
1166.87935,0.00475
1164.95062,0.00404
1163.02189,0.00311
1161.09317,0.00270
1159.16444,0.00259
1157.23572,0.00203
1155.30699,0.00115
1153.37826,0.00058
1151.44954,0.00021
1149.52081,0.00001
1147.59208,0.00001
1145.66336,0.00060
1143.73463,0.00113
1141.80591,0.00091
1139.87718,0.00077
1137.94845,0.00106
1136.01973,0.00122
1134.09100,0.00111
1132.16228,0.00100
1130.23355,0.00077
1128.30482,0.00047
1126.37610,0.00034
1124.44737,0.00065
1122.51864,0.00150
1120.58992,0.00240
1118.66119,0.00303
1116.73247,0.00360
1114.80374,0.00439
1112.87501,0.00543
1110.94629,0.00623
1109.01756,0.00639
1107.08883,0.00639
1105.16011,0.00682
1103.23138,0.00764
1101.30266,0.00860
1099.37393,0.00950
1097.44520,0.00989
1095.51648,0.00972
1093.58775,0.00966
1091.65903,0.00999
1089.73030,0.01014
1087.80157,0.00979
1085.87285,0.00967
1083.94412,0.01052
1082.01539,0.01154
1080.08667,0.01141
1078.15794,0.01052
1076.22922,0.01039
1074.30049,0.01112
1072.37176,0.01153
1070.44304,0.01122
1068.51431,0.01084
1066.58558,0.01099
1064.65686,0.01151
1062.72813,0.01179
1060.79941,0.01181
1058.87068,0.01214
1056.94195,0.01260
1055.01323,0.01270
1053.08450,0.01272
1051.15578,0.01273
1049.22705,0.01218
1047.29832,0.01150
1045.36960,0.01142
1043.44087,0.01161
1041.51214,0.01155
1039.58342,0.01131
1037.65469,0.01129
1035.72597,0.01159
1033.79724,0.01178
1031.86851,0.01173
1029.93979,0.01169
1028.01106,0.01172
1026.08233,0.01178
1024.15361,0.01178
1022.22488,0.01189
1020.29616,0.01251
1018.36743,0.01327
1016.43870,0.01338
1014.50998,0.01283
1012.58125,0.01244
1010.65253,0.01260
1008.72380,0.01258
1006.79507,0.01200
1004.86635,0.01172
1002.93762,0.01209
1001.00889,0.01266
999.08017,0.01268
997.15144,0.01237
995.22272,0.01202
993.29399,0.01160
991.36526,0.01120
989.43654,0.01085
987.50781,0.01059
985.57908,0.01049
983.65036,0.01019
981.72163,0.00927
979.79291,0.00801
977.86418,0.00703
975.93545,0.00661
974.00673,0.00646
972.07800,0.00622
970.14928,0.00569
968.22055,0.00483
966.29182,0.00372
964.36310,0.00273
962.43437,0.00207
960.50564,0.00166
958.57692,0.00172
956.64819,0.00217
954.71947,0.00235
952.79074,0.00238
950.86201,0.00253
948.93329,0.00228
947.00456,0.00179
945.07583,0.00172
943.14711,0.00196
941.21838,0.00230
939.28966,0.00296
937.36093,0.00398
935.43220,0.00471
933.50348,0.00452
931.57475,0.00365
929.64603,0.00282
927.71730,0.00276
925.78857,0.00368
923.85985,0.00501
921.93112,0.00636
920.00239,0.00753
918.07367,0.00796
916.14494,0.00786
914.21622,0.00782
912.28749,0.00797
910.35876,0.00829
908.43004,0.00864
906.50131,0.00933
904.57258,0.01040
902.64386,0.01105
900.71513,0.01113
898.78641,0.01091
896.85768,0.01013
894.92895,0.00926
893.00023,0.00909
891.07150,0.00918
889.14277,0.00866
887.21405,0.00797
885.28532,0.00792
883.35660,0.00839
881.42787,0.00864
879.49914,0.00846
877.57042,0.00874
875.64169,0.00967
873.71297,0.01010
871.78424,0.00980
869.85551,0.00968
867.92679,0.00981
865.99806,0.00986
864.06933,0.01037
862.14061,0.01152
860.21188,0.01192
858.28316,0.01072
856.35443,0.00943
854.42570,0.00940
852.49698,0.00956
850.56825,0.00904
848.63952,0.00921
846.71080,0.01065
844.78207,0.01191
842.85335,0.01254
840.92462,0.01295
838.99589,0.01277
837.06717,0.01195
835.13844,0.01115
833.20972,0.01080
831.28099,0.01079
829.35226,0.01114
827.42354,0.01157
825.49481,0.01150
823.56608,0.01126
821.63736,0.01157
819.70863,0.01223
817.77991,0.01244
815.85118,0.01187
813.92245,0.01108
811.99373,0.01066
810.06500,0.01087
808.13627,0.01164
806.20755,0.01224
804.27882,0.01201
802.35010,0.01117
800.42137,0.01040
798.49264,0.01011
796.56392,0.01015
794.63519,0.01023
792.70647,0.01029
790.77774,0.01005
788.84901,0.00970
786.92029,0.00988
784.99156,0.01059
783.06283,0.01109
781.13411,0.01125
779.20538,0.01310
777.27666,0.01691
775.34793,0.01789
773.41920,0.01436
771.49048,0.01118
769.56175,0.01070
767.63302,0.01073
765.70430,0.01005
763.77557,0.00958
761.84685,0.00989
759.91812,0.01028
757.98939,0.01017
756.06067,0.00970
754.13194,0.00908
752.20322,0.00876
750.27449,0.00895
748.34576,0.00922
746.41704,0.00967
744.48831,0.01061
742.55958,0.01128
740.63086,0.01092
738.70213,0.01003
736.77341,0.00958
734.84468,0.00955
732.91595,0.00981
730.98723,0.01042
729.05850,0.01055
727.12977,0.01010
725.20105,0.01020
723.27232,0.01071
721.34360,0.01060
719.41487,0.00989
717.48614,0.00949
715.55742,0.00962
713.62869,0.00982
711.69997,0.00966
709.77124,0.00884
707.84251,0.00843
705.91379,0.00919
703.98506,0.00987
702.05633,0.01000
700.12761,0.01053
698.19888,0.01132
696.27016,0.01140
694.34143,0.01087
692.41270,0.01075
690.48398,0.01112
688.55525,0.01088
686.62652,0.00970
684.69780,0.00870
682.76907,0.00848
680.84035,0.00841
678.91162,0.00853
676.98289,0.01046
675.05417,0.01361
673.12544,0.01140
671.19672,0.00722
669.26799,0.00623
667.33926,0.00743
665.41054,0.00924
663.48181,0.01090
661.55308,0.01232
659.62436,0.01308
657.69563,0.01272
655.76691,0.01141
653.83818,0.01009
651.90945,0.00975
649.98073,0.00974
648.05200,0.00974
646.12327,0.01041
644.19455,0.01119
642.26582,0.01118
640.33710,0.01050
638.40837,0.01026
636.47964,0.01118
634.55092,0.01237
632.62219,0.01270
630.69347,0.01201
628.76474,0.01064
626.83601,0.00929
624.90729,0.00861
622.97856,0.00837
621.04983,0.00828
619.12111,0.00875
617.19238,0.00958
615.26366,0.01017
613.33493,0.01072
611.40620,0.01148
609.47748,0.01190
607.54875,0.01150
605.62002,0.01096
603.69130,0.01138
601.76257,0.01229
599.83385,0.01271
597.90512,0.01126
595.97639,0.00911
594.04767,0.00834
592.11894,0.00894
590.19022,0.00973
588.26149,0.01017
586.33276,0.01071
584.40404,0.01172
582.47531,0.01254
580.54658,0.01227
578.61786,0.01129
576.68913,0.01074
574.76041,0.01076
572.83168,0.01030
570.90295,0.00915
568.97423,0.00883
567.04550,0.00938
565.11677,0.00917
563.18805,0.00848
561.25932,0.00879
559.33060,0.00978
557.40187,0.01053
555.47314,0.01084
553.54442,0.01041
551.61569,0.01010
549.68697,0.01131
547.75824,0.01265
545.82951,0.01222
543.90079,0.01090
541.97206,0.01020
540.04333,0.01003
538.11461,0.01025
536.18588,0.01135
534.25716,0.01261
532.32843,0.01269
530.39970,0.01160
528.47098,0.00952
526.54225,0.00782
524.61352,0.00847
522.68480,0.01117
520.75607,0.01290
518.82735,0.01332
516.89862,0.01360
514.96989,0.01307
513.04117,0.01186
511.11244,0.00990
509.18371,0.00776
507.25499,0.00784
505.32626,0.00895
503.39754,0.00807
501.46881,0.00622
499.54008,0.00570
497.61136,0.00633
495.68263,0.00624
493.75391,0.00606
491.82518,0.00767
489.89645,0.00823
487.96773,0.00484
486.03900,0.00224
484.11027,0.00371
482.18155,0.00766
480.25282,0.01199
478.32410,0.01450
476.39537,0.01415
474.46664,0.01044
472.53792,0.00688
470.60919,0.00639
468.68046,0.00680
466.75174,0.00800
464.82301,0.01126
462.89429,0.01257
460.96556,0.00683
459.03683,0.00030
457.10811,0.00038
455.17938,0.00623
453.25066,0.01316
451.32193,0.01774
449.39320,0.01901
447.46448,0.01748
445.53575,0.01616
443.60702,0.01667
441.67830,0.01577
439.74957,0.01070
437.82085,0.00632
435.89212,0.00495
433.96339,0.00557
432.03467,0.01222
430.10594,0.02341
428.17721,0.02812
426.24849,0.02218
424.31976,0.01551
422.39104,0.01595
420.46231,0.01583
418.53358,0.01045
416.60486,0.00487
414.67613,0.00475
412.74741,0.01035
410.81868,0.01475
408.88995,0.00791
406.96123,0.00001
405.03250,0.00001
403.10377,0.00524
401.17505,0.00731
399.24632,0.03805
