7497.02977,0.84655
7495.10103,0.84111
7493.17228,0.83535
7491.24354,0.83511
7489.31479,0.83751
7487.38605,0.83935
7485.45730,0.84083
7483.52856,0.84009
7481.59982,0.83835
7479.67107,0.83958
7477.74233,0.83973
7475.81358,0.83392
7473.88484,0.82936
7471.95609,0.83158
7470.02735,0.83433
7468.09860,0.83607
7466.16986,0.84019
7464.24112,0.84283
7462.31237,0.84157
7460.38363,0.84015
7458.45488,0.84070
7456.52614,0.84254
7454.59739,0.84312
7452.66865,0.83778
7450.73990,0.82814
7448.81116,0.82448
7446.88242,0.82874
7444.95367,0.83109
7443.02493,0.82947
7441.09618,0.83124
7439.16744,0.83608
7437.23869,0.83718
7435.30995,0.83576
7433.38120,0.83687
7431.45246,0.83617
7429.52371,0.82963
7427.59497,0.82461
7425.66623,0.82650
7423.73748,0.83016
7421.80874,0.83054
7419.87999,0.82897
7417.95125,0.82744
7416.02250,0.82601
7414.09376,0.82579
7412.16501,0.82635
7410.23627,0.82656
7408.30753,0.82772
7406.37878,0.82806
7404.45004,0.82438
7402.52129,0.82025
7400.59255,0.82016
7398.66380,0.82267
7396.73506,0.82527
7394.80631,0.82612
7392.87757,0.82513
7390.94883,0.82399
7389.02008,0.82142
7387.09134,0.81850
7385.16259,0.82112
7383.23385,0.82930
7381.30510,0.83625
7379.37636,0.83741
7377.44761,0.83449
7375.51887,0.83108
7373.59013,0.82749
7371.66138,0.82204
7369.73264,0.81503
7367.80389,0.80987
7365.87515,0.80930
7363.94640,0.81200
7362.01766,0.81575
7360.08891,0.82024
7358.16017,0.82341
7356.23142,0.82245
7354.30268,0.82011
7352.37394,0.82047
7350.44519,0.82198
7348.51645,0.82204
7346.58770,0.81992
7344.65896,0.81743
7342.73021,0.81797
7340.80147,0.81959
7338.87272,0.81938
7336.94398,0.82063
7335.01524,0.82334
7333.08649,0.82225
7331.15775,0.81801
7329.22900,0.81736
7327.30026,0.82050
7325.37151,0.82104
7323.44277,0.81883
7321.51402,0.81782
7319.58528,0.81888
7317.65654,0.82271
7315.72779,0.82718
7313.79905,0.82704
7311.87030,0.82267
7309.94156,0.81912
7308.01281,0.81918
7306.08407,0.82167
7304.15532,0.82386
7302.22658,0.82604
7300.29784,0.82727
7298.36909,0.82293
7296.44035,0.81524
7294.51160,0.81276
7292.58286,0.81627
7290.65411,0.81836
7288.72537,0.81528
7286.79662,0.81088
7284.86788,0.81130
7282.93913,0.81620
7281.01039,0.81952
7279.08165,0.82012
7277.15290,0.81921
7275.22416,0.81580
7273.29541,0.81252
7271.36667,0.81304
7269.43792,0.81717
7267.50918,0.82186
7265.58043,0.82260
7263.65169,0.81825
7261.72295,0.81533
7259.79420,0.81998
7257.86546,0.82672
7255.93671,0.82695
7254.00797,0.82301
7252.07922,0.82230
7250.15048,0.82563
7248.22173,0.82816
7246.29299,0.82756
7244.36425,0.82600
7242.43550,0.82532
7240.50676,0.82547
7238.57801,0.82490
7236.64927,0.82032
7234.72052,0.81271
7232.79178,0.80837
7230.86303,0.80789
7228.93429,0.80708
7227.00554,0.80854
7225.07680,0.81478
7223.14806,0.81899
7221.21931,0.81910
7219.29057,0.82116
7217.36182,0.82219
7215.43308,0.81811
7213.50433,0.81500
7211.57559,0.81523
7209.64684,0.81545
7207.71810,0.81551
7205.78936,0.81592
7203.86061,0.81496
7201.93187,0.81405
7200.00312,0.81583
7198.07438,0.81664
7196.14563,0.81515
7194.21689,0.81616
7192.28814,0.81927
7190.35940,0.82014
7188.43066,0.81863
7186.50191,0.81682
7184.57317,0.81460
7182.64442,0.81260
7180.71568,0.81314
7178.78693,0.81606
7176.85819,0.81752
7174.92944,0.81416
7173.00070,0.81005
7171.07196,0.81015
7169.14321,0.81083
7167.21447,0.81039
7165.28572,0.81253
7163.35698,0.81581
7161.42823,0.81679
7159.49949,0.81666
7157.57074,0.81675
7155.64200,0.81637
7153.71325,0.81560
7151.78451,0.81498
7149.85577,0.81554
7147.92702,0.81687
7145.99828,0.81649
7144.06953,0.81514
7142.14079,0.81575
7140.21204,0.81866
7138.28330,0.82084
7136.35455,0.81836
7134.42581,0.81250
7132.49707,0.80856
7130.56832,0.80797
7128.63958,0.80838
7126.71083,0.80906
7124.78209,0.81261
7122.85334,0.81801
7120.92460,0.81846
7118.99585,0.81441
7117.06711,0.81271
7115.13837,0.81257
7113.20962,0.81196
7111.28088,0.81336
7109.35213,0.81478
7107.42339,0.81303
7105.49464,0.81151
7103.56590,0.81233
7101.63715,0.81170
7099.70841,0.80917
7097.77967,0.80802
7095.85092,0.80873
7093.92218,0.81007
7091.99343,0.81025
7090.06469,0.80941
7088.13594,0.80965
7086.20720,0.80994
7084.27845,0.80954
7082.34971,0.81109
7080.42096,0.81469
7078.49222,0.81749
7076.56348,0.81890
7074.63473,0.81800
7072.70599,0.81300
7070.77724,0.80724
7068.84850,0.80515
7066.91975,0.80721
7064.99101,0.81059
7063.06226,0.81125
7061.13352,0.80970
7059.20478,0.80808
7057.27603,0.80581
7055.34729,0.80477
7053.41854,0.80632
7051.48980,0.80695
7049.56105,0.80524
7047.63231,0.80387
7045.70356,0.80373
7043.77482,0.80361
7041.84608,0.80403
7039.91733,0.80633
7037.98859,0.80855
7036.05984,0.80707
7034.13110,0.80233
7032.20235,0.79919
7030.27361,0.79909
7028.34486,0.79896
7026.41612,0.79991
7024.48738,0.80364
7022.55863,0.80685
7020.62989,0.80846
7018.70114,0.80929
7016.77240,0.80858
7014.84365,0.80638
7012.91491,0.80395
7010.98616,0.80242
7009.05742,0.80343
7007.12867,0.80872
7005.19993,0.81394
7003.27119,0.81230
7001.34244,0.80713
6999.41370,0.80573
6997.48495,0.80771
6995.55621,0.80874
6993.62746,0.80791
6991.69872,0.80693
6989.76997,0.80589
6987.84123,0.80419
6985.91249,0.80473
6983.98374,0.80865
6982.05500,0.80962
6980.12625,0.80605
6978.19751,0.80529
6976.26876,0.80656
6974.34002,0.80408
6972.41127,0.80169
6970.48253,0.80251
6968.55379,0.80283
6966.62504,0.80236
6964.69630,0.80300
6962.76755,0.80480
6960.83881,0.80678
6958.91006,0.80656
6956.98132,0.80469
6955.05257,0.80497
6953.12383,0.80758
6951.19509,0.80888
6949.26634,0.80692
6947.33760,0.80294
6945.40885,0.80026
6943.48011,0.80167
6941.55136,0.80553
6939.62262,0.80778
6937.69387,0.80751
6935.76513,0.80716
6933.83638,0.80791
6931.90764,0.80862
6929.97890,0.80899
6928.05015,0.80926
6926.12141,0.80885
6924.19266,0.80780
6922.26392,0.80740
6920.33517,0.80823
6918.40643,0.80846
6916.47768,0.80667
6914.54894,0.80542
6912.62020,0.80770
6910.69145,0.81079
6908.76271,0.80955
6906.83396,0.80491
6904.90522,0.80279
6902.97647,0.80480
6901.04773,0.80766
6899.11898,0.81040
6897.19024,0.81221
6895.26150,0.81156
6893.33275,0.81051
6891.40401,0.81100
6889.47526,0.81249
6887.54652,0.81252
6885.61777,0.80907
6883.68903,0.80593
6881.76028,0.80729
6879.83154,0.81038
6877.90280,0.81189
6875.97405,0.81304
6874.04531,0.81346
6872.11656,0.81096
6870.18782,0.80746
6868.25907,0.80662
6866.33033,0.80805
6864.40158,0.80853
6862.47284,0.80801
6860.54409,0.80696
6858.61535,0.80370
6856.68661,0.80147
6854.75786,0.80408
6852.82912,0.80802
6850.90037,0.80996
6848.97163,0.81098
6847.04288,0.81196
6845.11414,0.81203
6843.18539,0.81143
6841.25665,0.81205
6839.32791,0.81315
6837.39916,0.81299
6835.47042,0.81252
6833.54167,0.81179
6831.61293,0.81007
6829.68418,0.80826
6827.75544,0.80727
6825.82669,0.80866
6823.89795,0.81273
6821.96921,0.81561
6820.04046,0.81466
6818.11172,0.81078
6816.18297,0.80655
6814.25423,0.80615
6812.32548,0.80961
6810.39674,0.81268
6808.46799,0.81364
6806.53925,0.81188
6804.61051,0.80862
6802.68176,0.80790
6800.75302,0.80964
6798.82427,0.81109
6796.89553,0.81338
6794.96678,0.81727
6793.03804,0.81910
6791.10929,0.81648
6789.18055,0.81275
6787.25180,0.81210
6785.32306,0.81363
6783.39432,0.81409
6781.46557,0.81308
6779.53683,0.81225
6777.60808,0.81210
6775.67934,0.81103
6773.75059,0.80900
6771.82185,0.80871
6769.89310,0.80985
6767.96436,0.80919
6766.03562,0.80740
6764.10687,0.80845
6762.17813,0.81208
6760.24938,0.81410
6758.32064,0.81340
6756.39189,0.81225
6754.46315,0.81249
6752.53440,0.81394
6750.60566,0.81502
6748.67692,0.81608
6746.74817,0.81740
6744.81943,0.81602
6742.89068,0.81128
6740.96194,0.80662
6739.03319,0.80529
6737.10445,0.80789
6735.17570,0.81223
6733.24696,0.81501
6731.31822,0.81456
6729.38947,0.81288
6727.46073,0.81183
6725.53198,0.81167
6723.60324,0.81270
6721.67449,0.81379
6719.74575,0.81571
6717.81700,0.81859
6715.88826,0.81918
6713.95951,0.81777
6712.03077,0.81630
6710.10203,0.81416
6708.17328,0.81202
6706.24454,0.81264
6704.31579,0.81511
6702.38705,0.81494
6700.45830,0.81139
6698.52956,0.80758
6696.60081,0.80650
6694.67207,0.80898
6692.74333,0.81164
6690.81458,0.80981
6688.88584,0.80571
6686.95709,0.80633
6685.02835,0.81093
6683.09960,0.81218
6681.17086,0.80869
6679.24211,0.80620
6677.31337,0.80921
6675.38463,0.81539
6673.45588,0.81866
6671.52714,0.81619
6669.59839,0.81169
6667.66965,0.81035
6665.74090,0.81190
6663.81216,0.81399
6661.88341,0.81647
6659.95467,0.81815
6658.02593,0.81772
6656.09718,0.81660
6654.16844,0.81581
6652.23969,0.81422
6650.31095,0.81251
6648.38220,0.81238
6646.45346,0.81168
6644.52471,0.80937
6642.59597,0.80942
6640.66722,0.81245
6638.73848,0.81525
6636.80974,0.81682
6634.88099,0.81717
6632.95225,0.81651
6631.02350,0.81694
6629.09476,0.81948
6627.16601,0.82101
6625.23727,0.81961
6623.30852,0.81880
6621.37978,0.82077
6619.45104,0.82215
6617.52229,0.82082
6615.59355,0.81925
6613.66480,0.81770
6611.73606,0.81484
6609.80731,0.81439
6607.87857,0.81830
6605.94982,0.82114
6604.02108,0.81981
6602.09234,0.81677
6600.16359,0.81508
6598.23485,0.81675
6596.30610,0.81989
6594.37736,0.82088
6592.44861,0.81947
6590.51987,0.81816
6588.59112,0.81928
6586.66238,0.82095
6584.73364,0.81913
6582.80489,0.81417
6580.87615,0.80963
6578.94740,0.80805
6577.01866,0.80974
6575.08991,0.81311
6573.16117,0.81595
6571.23242,0.81695
6569.30368,0.81657
6567.37493,0.81696
6565.44619,0.81842
6563.51745,0.81861
6561.58870,0.81860
6559.65996,0.82048
6557.73121,0.82062
6555.80247,0.81698
6553.87372,0.81459
6551.94498,0.81527
6550.01623,0.81477
6548.08749,0.81331
6546.15875,0.81352
6544.23000,0.81372
6542.30126,0.81338
6540.37251,0.81450
6538.44377,0.81731
6536.51502,0.81996
6534.58628,0.82028
6532.65753,0.81779
6530.72879,0.81537
6528.80005,0.81588
6526.87130,0.81639
6524.94256,0.81429
6523.01381,0.81357
6521.08507,0.81622
6519.15632,0.81842
6517.22758,0.81844
6515.29883,0.81826
6513.37009,0.81760
6511.44135,0.81634
6509.51260,0.81669
6507.58386,0.81733
6505.65511,0.81743
6503.72637,0.81950
6501.79762,0.82169
6499.86888,0.82051
6497.94013,0.81789
6496.01139,0.81769
6494.08264,0.81945
6492.15390,0.82033
6490.22516,0.82065
6488.29641,0.82059
6486.36767,0.81901
6484.43892,0.81769
6482.51018,0.81805
6480.58143,0.81902
6478.65269,0.81927
6476.72394,0.81851
6474.79520,0.81832
6472.86646,0.81864
6470.93771,0.81764
6469.00897,0.81657
6467.08022,0.81786
6465.15148,0.82119
6463.22273,0.82294
6461.29399,0.82105
6459.36524,0.81872
6457.43650,0.81813
6455.50776,0.81766
6453.57901,0.81695
6451.65027,0.81750
6449.72152,0.81944
6447.79278,0.82056
6445.86403,0.81993
6443.93529,0.81987
6442.00654,0.82135
6440.07780,0.82225
6438.14906,0.82131
6436.22031,0.81929
6434.29157,0.81674
6432.36282,0.81453
6430.43408,0.81485
6428.50533,0.81706
6426.57659,0.81819
6424.64784,0.81810
6422.71910,0.81775
6420.79035,0.81672
6418.86161,0.81541
6416.93287,0.81499
6415.00412,0.81557
6413.07538,0.81721
6411.14663,0.81948
6409.21789,0.82053
6407.28914,0.82119
6405.36040,0.82290
6403.43165,0.82293
6401.50291,0.82021
6399.57417,0.81803
6397.64542,0.81818
6395.71668,0.81885
6393.78793,0.81858
6391.85919,0.81932
6389.93044,0.82161
6388.00170,0.82192
6386.07295,0.81985
6384.14421,0.81819
6382.21547,0.81757
6380.28672,0.81790
6378.35798,0.81927
6376.42923,0.82040
6374.50049,0.81968
6372.57174,0.81878
6370.64300,0.82026
6368.71425,0.82198
6366.78551,0.82189
6364.85677,0.82152
6362.92802,0.82131
6360.99928,0.82029
6359.07053,0.81940
6357.14179,0.82007
6355.21304,0.82076
6353.28430,0.81960
6351.35555,0.81809
6349.42681,0.81802
6347.49806,0.81866
6345.56932,0.81897
6343.64058,0.81915
6341.71183,0.81882
6339.78309,0.81809
6337.85434,0.81862
6335.92560,0.82031
6333.99685,0.82087
6332.06811,0.81977
6330.13936,0.81930
6328.21062,0.82054
6326.28188,0.82111
6324.35313,0.81924
6322.42439,0.81654
6320.49564,0.81408
6318.56690,0.81165
6316.63815,0.81125
6314.70941,0.81360
6312.78066,0.81612
6310.85192,0.81711
6308.92318,0.81758
6306.99443,0.81933
6305.06569,0.82169
6303.13694,0.82318
6301.20820,0.82373
6299.27945,0.82309
6297.35071,0.82087
6295.42196,0.81810
6293.49322,0.81661
6291.56447,0.81597
6289.63573,0.81466
6287.70699,0.81399
6285.77824,0.81576
6283.84950,0.81885
6281.92075,0.82133
6279.99201,0.82243
6278.06326,0.82190
6276.13452,0.82023
6274.20577,0.81781
6272.27703,0.81494
6270.34829,0.81327
6268.41954,0.81374
6266.49080,0.81532
6264.56205,0.81659
6262.63331,0.81649
6260.70456,0.81553
6258.77582,0.81554
6256.84707,0.81686
6254.91833,0.81798
6252.98959,0.81757
6251.06084,0.81672
6249.13210,0.81726
6247.20335,0.81814
6245.27461,0.81831
6243.34586,0.81861
6241.41712,0.81866
6239.48837,0.81771
6237.55963,0.81703
6235.63089,0.81792
6233.70214,0.81980
6231.77340,0.82050
6229.84465,0.81842
6227.91591,0.81556
6225.98716,0.81490
6224.05842,0.81505
6222.12967,0.81411
6220.20093,0.81423
6218.27218,0.81601
6216.34344,0.81667
6214.41470,0.81556
6212.48595,0.81396
6210.55721,0.81284
6208.62846,0.81238
6206.69972,0.81066
6204.77097,0.80746
6202.84223,0.80546
6200.91348,0.80505
6198.98474,0.80537
6197.05600,0.80645
6195.12725,0.80716
6193.19851,0.80642
6191.26976,0.80493
6189.34102,0.80361
6187.41227,0.80332
6185.48353,0.80548
6183.55478,0.80897
6181.62604,0.81065
6179.69730,0.81006
6177.76855,0.80800
6175.83981,0.80517
6173.91106,0.80404
6171.98232,0.80504
6170.05357,0.80607
6168.12483,0.80666
6166.19608,0.80651
6164.26734,0.80499
6162.33860,0.80324
6160.40985,0.80323
6158.48111,0.80499
6156.55236,0.80526
6154.62362,0.80235
6152.69487,0.79911
6150.76613,0.79815
6148.83738,0.79915
6146.90864,0.80014
6144.97989,0.79938
6143.05115,0.79695
6141.12241,0.79467
6139.19366,0.79416
6137.26492,0.79534
6135.33617,0.79692
6133.40743,0.79762
6131.47868,0.79693
6129.54994,0.79561
6127.62119,0.79491
6125.69245,0.79539
6123.76371,0.79658
6121.83496,0.79759
6119.90622,0.79705
6117.97747,0.79373
6116.04873,0.78939
6114.11998,0.78669
6112.19124,0.78466
6110.26249,0.78164
6108.33375,0.77930
6106.40501,0.77878
6104.47626,0.77765
6102.54752,0.77481
6100.61877,0.77243
6098.69003,0.77071
6096.76128,0.76734
6094.83254,0.76281
6092.90379,0.75919
6090.97505,0.75656
6089.04631,0.75545
6087.11756,0.75545
6085.18882,0.75365
6083.26007,0.74998
6081.33133,0.74692
6079.40258,0.74484
6077.47384,0.74263
6075.54509,0.74050
6073.61635,0.74003
6071.68760,0.73973
6069.75886,0.73598
6067.83012,0.73018
6065.90137,0.72632
6063.97263,0.72373
6062.04388,0.71984
6060.11514,0.71588
6058.18639,0.71421
6056.25765,0.71302
6054.32890,0.70971
6052.40016,0.70596
6050.47142,0.70384
6048.54267,0.70247
6046.61393,0.70063
6044.68518,0.69825
6042.75644,0.69658
6040.82769,0.69588
6038.89895,0.69400
6036.97020,0.69045
6035.04146,0.68760
6033.11272,0.68625
6031.18397,0.68515
6029.25523,0.68331
6027.32648,0.68038
6025.39774,0.67728
6023.46899,0.67545
6021.54025,0.67501
6019.61150,0.67513
6017.68276,0.67484
6015.75402,0.67423
6013.82527,0.67432
6011.89653,0.67569
6009.96778,0.67888
6008.03904,0.68318
6006.11029,0.68643
6004.18155,0.68835
6002.25280,0.69090
6000.32406,0.69421
5998.39531,0.69657
5996.46657,0.69815
5994.53783,0.70053
5992.60908,0.70441
5990.68034,0.70917
5988.75159,0.71240
5986.82285,0.71221
5984.89410,0.71000
5982.96536,0.70895
5981.03661,0.71059
5979.10787,0.71295
5977.17913,0.71340
5975.25038,0.71280
5973.32164,0.71270
5971.39289,0.71310
5969.46415,0.71479
5967.53540,0.71827
5965.60666,0.72246
5963.67791,0.72578
5961.74917,0.72738
5959.82043,0.72788
5957.89168,0.72790
5955.96294,0.72741
5954.03419,0.72725
5952.10545,0.72823
5950.17670,0.72910
5948.24796,0.72939
5946.31921,0.73055
5944.39047,0.73151
5942.46173,0.73051
5940.53298,0.72941
5938.60424,0.72997
5936.67549,0.73165
5934.74675,0.73440
5932.81800,0.73813
5930.88926,0.74103
5928.96051,0.74240
5927.03177,0.74381
5925.10302,0.74568
5923.17428,0.74737
5921.24554,0.74942
5919.31679,0.75229
5917.38805,0.75555
5915.45930,0.75816
5913.53056,0.75951
5911.60181,0.75985
5909.67307,0.75926
5907.74432,0.75842
5905.81558,0.75906
5903.88684,0.76111
5901.95809,0.76215
5900.02935,0.76130
5898.10060,0.76026
5896.17186,0.76002
5894.24311,0.76018
5892.31437,0.75990
5890.38562,0.75885
5888.45688,0.75775
5886.52814,0.75692
5884.59939,0.75588
5882.67065,0.75409
5880.74190,0.75191
5878.81316,0.75097
5876.88441,0.75127
5874.95567,0.74999
5873.02692,0.74722
5871.09818,0.74646
5869.16944,0.74776
5867.24069,0.74843
5865.31195,0.74760
5863.38320,0.74632
5861.45446,0.74619
5859.52571,0.74644
5857.59697,0.74536
5855.66822,0.74470
5853.73948,0.74681
5851.81073,0.75000
5849.88199,0.75143
5847.95325,0.75105
5846.02450,0.74989
5844.09576,0.74869
5842.16701,0.74873
5840.23827,0.75046
5838.30952,0.75192
5836.38078,0.75136
5834.45203,0.75024
5832.52329,0.75053
5830.59455,0.75144
5828.66580,0.75177
5826.73706,0.75228
5824.80831,0.75260
5822.87957,0.75112
5820.95082,0.74879
5819.02208,0.74753
5817.09333,0.74757
5815.16459,0.74826
5813.23585,0.74937
5811.30710,0.75032
5809.37836,0.75056
5807.44961,0.75036
5805.52087,0.74944
5803.59212,0.74913
5801.66338,0.75075
5799.73463,0.75134
5797.80589,0.74971
5795.87715,0.74902
5793.94840,0.75033
5792.01966,0.75175
5790.09091,0.75175
5788.16217,0.75063
5786.23342,0.75033
5784.30468,0.75170
5782.37593,0.75364
5780.44719,0.75484
5778.51844,0.75470
5776.58970,0.75375
5774.66096,0.75293
5772.73221,0.75258
5770.80347,0.75305
5768.87472,0.75464
5766.94598,0.75685
5765.01723,0.75840
5763.08849,0.75861
5761.15974,0.75798
5759.23100,0.75759
5757.30226,0.75821
5755.37351,0.75937
5753.44477,0.76045
5751.51602,0.76123
5749.58728,0.76201
5747.65853,0.76343
5745.72979,0.76479
5743.80104,0.76552
5741.87230,0.76681
5739.94356,0.76835
5738.01481,0.76918
5736.08607,0.77038
5734.15732,0.77179
5732.22858,0.77226
5730.29983,0.77247
5728.37109,0.77305
5726.44234,0.77396
5724.51360,0.77473
5722.58486,0.77464
5720.65611,0.77408
5718.72737,0.77389
5716.79862,0.77398
5714.86988,0.77345
5712.94113,0.77188
5711.01239,0.77099
5709.08364,0.77268
5707.15490,0.77542
5705.22615,0.77660
5703.29741,0.77631
5701.36867,0.77552
5699.43992,0.77511
5697.51118,0.77596
5695.58243,0.77700
5693.65369,0.77717
5691.72494,0.77739
5689.79620,0.77764
5687.86745,0.77736
5685.93871,0.77737
5684.00997,0.77758
5682.08122,0.77749
5680.15248,0.77783
5678.22373,0.77917
5676.29499,0.78119
5674.36624,0.78261
5672.43750,0.78236
5670.50875,0.78078
5668.58001,0.77899
5666.65127,0.77804
5664.72252,0.77797
5662.79378,0.77802
5660.86503,0.77774
5658.93629,0.77735
5657.00754,0.77726
5655.07880,0.77787
5653.15005,0.77899
5651.22131,0.77985
5649.29257,0.78045
5647.36382,0.78140
5645.43508,0.78232
5643.50633,0.78261
5641.57759,0.78267
5639.64884,0.78314
5637.72010,0.78389
5635.79135,0.78439
5633.86261,0.78443
5631.93386,0.78463
5630.00512,0.78552
5628.07638,0.78660
5626.14763,0.78695
5624.21889,0.78700
5622.29014,0.78769
5620.36140,0.78814
5618.43265,0.78776
5616.50391,0.78769
5614.57516,0.78851
5612.64642,0.78949
5610.71768,0.78951
5608.78893,0.78867
5606.86019,0.78831
5604.93144,0.78862
5603.00270,0.78899
5601.07395,0.78943
5599.14521,0.78962
5597.21646,0.78923
5595.28772,0.78847
5593.35898,0.78712
5591.43023,0.78586
5589.50149,0.78634
5587.57274,0.78766
5585.64400,0.78774
5583.71525,0.78676
5581.78651,0.78568
5579.85776,0.78494
5577.92902,0.78484
5576.00028,0.78508
5574.07153,0.78516
5572.14279,0.78486
5570.21404,0.78391
5568.28530,0.78263
5566.35655,0.78214
5564.42781,0.78240
5562.49906,0.78242
5560.57032,0.78227
5558.64157,0.78187
5556.71283,0.78117
5554.78409,0.78103
5552.85534,0.78145
5550.92660,0.78175
5548.99785,0.78153
5547.06911,0.78115
5545.14036,0.78169
5543.21162,0.78308
5541.28287,0.78410
5539.35413,0.78422
5537.42539,0.78399
5535.49664,0.78369
5533.56790,0.78286
5531.63915,0.78203
5529.71041,0.78227
5527.78166,0.78298
5525.85292,0.78277
5523.92417,0.78237
5521.99543,0.78327
5520.06669,0.78459
5518.13794,0.78515
5516.20920,0.78520
5514.28045,0.78510
5512.35171,0.78517
5510.42296,0.78498
5508.49422,0.78449
5506.56547,0.78467
5504.63673,0.78502
5502.70799,0.78502
5500.77924,0.78518
5498.85050,0.78513
5496.92175,0.78455
5494.99301,0.78396
5493.06426,0.78352
5491.13552,0.78280
5489.20677,0.78193
5487.27803,0.78185
5485.34928,0.78202
5483.42054,0.78129
5481.49180,0.78044
5479.56305,0.78087
5477.63431,0.78253
5475.70556,0.78372
5473.77682,0.78336
5471.84807,0.78257
5469.91933,0.78269
5467.99058,0.78363
5466.06184,0.78463
5464.13310,0.78595
5462.20435,0.78735
5460.27561,0.78763
5458.34686,0.78739
5456.41812,0.78735
5454.48937,0.78692
5452.56063,0.78654
5450.63188,0.78717
5448.70314,0.78849
5446.77440,0.78964
5444.84565,0.79057
5442.91691,0.79171
5440.98816,0.79253
5439.05942,0.79246
5437.13067,0.79223
5435.20193,0.79255
5433.27318,0.79363
5431.34444,0.79514
5429.41569,0.79557
5427.48695,0.79439
5425.55821,0.79341
5423.62946,0.79379
5421.70072,0.79490
5419.77197,0.79585
5417.84323,0.79620
5415.91448,0.79599
5413.98574,0.79585
5412.05699,0.79545
5410.12825,0.79466
5408.19951,0.79473
5406.27076,0.79544
5404.34202,0.79564
5402.41327,0.79560
5400.48453,0.79581
5398.55578,0.79585
5396.62704,0.79528
5394.69829,0.79472
5392.76955,0.79496
5390.84081,0.79587
5388.91206,0.79699
5386.98332,0.79768
5385.05457,0.79742
5383.12583,0.79675
5381.19708,0.79614
5379.26834,0.79568
5377.33959,0.79583
5375.41085,0.79606
5373.48211,0.79572
5371.55336,0.79578
5369.62462,0.79649
5367.69587,0.79676
5365.76713,0.79685
5363.83838,0.79761
5361.90964,0.79815
5359.98089,0.79721
5358.05215,0.79548
5356.12340,0.79466
5354.19466,0.79467
5352.26592,0.79394
5350.33717,0.79255
5348.40843,0.79182
5346.47968,0.79209
5344.55094,0.79299
5342.62219,0.79399
5340.69345,0.79452
5338.76470,0.79491
5336.83596,0.79614
5334.90722,0.79750
5332.97847,0.79748
5331.04973,0.79682
5329.12098,0.79724
5327.19224,0.79871
5325.26349,0.79995
5323.33475,0.79983
5321.40600,0.79876
5319.47726,0.79832
5317.54852,0.79868
5315.61977,0.79859
5313.69103,0.79802
5311.76228,0.79795
5309.83354,0.79815
5307.90479,0.79764
5305.97605,0.79699
5304.04730,0.79711
5302.11856,0.79711
5300.18982,0.79657
5298.26107,0.79623
5296.33233,0.79614
5294.40358,0.79566
5292.47484,0.79471
5290.54609,0.79403
5288.61735,0.79391
5286.68860,0.79396
5284.75986,0.79382
5282.83111,0.79320
5280.90237,0.79214
5278.97363,0.79115
5277.04488,0.79065
5275.11614,0.79021
5273.18739,0.78934
5271.25865,0.78870
5269.32990,0.78844
5267.40116,0.78775
5265.47241,0.78663
5263.54367,0.78539
5261.61493,0.78416
5259.68618,0.78366
5257.75744,0.78405
5255.82869,0.78440
5253.89995,0.78414
5251.97120,0.78386
5250.04246,0.78421
5248.11371,0.78466
5246.18497,0.78450
5244.25623,0.78390
5242.32748,0.78313
5240.39874,0.78259
5238.46999,0.78272
5236.54125,0.78300
5234.61250,0.78290
5232.68376,0.78286
5230.75501,0.78329
5228.82627,0.78355
5226.89753,0.78270
5224.96878,0.78126
5223.04004,0.78074
5221.11129,0.78148
5219.18255,0.78253
5217.25380,0.78284
5215.32506,0.78235
5213.39631,0.78215
5211.46757,0.78273
5209.53882,0.78329
5207.61008,0.78345
5205.68134,0.78380
5203.75259,0.78409
5201.82385,0.78367
5199.89510,0.78302
5197.96636,0.78264
5196.03761,0.78226
5194.10887,0.78162
5192.18012,0.78138
5190.25138,0.78227
5188.32264,0.78338
5186.39389,0.78331
5184.46515,0.78222
5182.53640,0.78098
5180.60766,0.78030
5178.67891,0.78056
5176.75017,0.78104
5174.82142,0.78105
5172.89268,0.78091
5170.96394,0.78105
5169.03519,0.78129
5167.10645,0.78117
5165.17770,0.78064
5163.24896,0.78003
5161.32021,0.77960
5159.39147,0.77910
5157.46272,0.77842
5155.53398,0.77799
5153.60524,0.77738
5151.67649,0.77595
5149.74775,0.77468
5147.81900,0.77442
5145.89026,0.77460
5143.96151,0.77433
5142.03277,0.77317
5140.10402,0.77155
5138.17528,0.77078
5136.24653,0.77095
5134.31779,0.77074
5132.38905,0.76979
5130.46030,0.76852
5128.53156,0.76691
5126.60281,0.76487
5124.67407,0.76300
5122.74532,0.76185
5120.81658,0.76147
5118.88783,0.76169
5116.95909,0.76200
5115.03035,0.76216
5113.10160,0.76289
5111.17286,0.76445
5109.24411,0.76601
5107.31537,0.76752
5105.38662,0.76963
5103.45788,0.77183
5101.52913,0.77320
5099.60039,0.77368
5097.67165,0.77423
5095.74290,0.77557
5093.81416,0.77719
5091.88541,0.77868
5089.95667,0.78015
5088.02792,0.78111
5086.09918,0.78120
5084.17043,0.78128
5082.24169,0.78218
5080.31295,0.78328
5078.38420,0.78364
5076.45546,0.78379
5074.52671,0.78467
5072.59797,0.78564
5070.66922,0.78583
5068.74048,0.78559
5066.81173,0.78556
5064.88299,0.78579
5062.95424,0.78583
5061.02550,0.78591
5059.09676,0.78636
5057.16801,0.78659
5055.23927,0.78638
5053.31052,0.78617
5051.38178,0.78618
5049.45303,0.78663
5047.52429,0.78732
5045.59554,0.78767
5043.66680,0.78787
5041.73806,0.78822
5039.80931,0.78796
5037.88057,0.78690
5035.95182,0.78625
5034.02308,0.78654
5032.09433,0.78687
5030.16559,0.78649
5028.23684,0.78593
5026.30810,0.78606
5024.37936,0.78649
5022.45061,0.78638
5020.52187,0.78607
5018.59312,0.78641
5016.66438,0.78678
5014.73563,0.78625
5012.80689,0.78571
5010.87814,0.78593
5008.94940,0.78608
5007.02066,0.78591
5005.09191,0.78594
5003.16317,0.78593
5001.23442,0.78585
4999.30568,0.78609
4997.37693,0.78618
4995.44819,0.78610
4993.51944,0.78655
4991.59070,0.78692
4989.66195,0.78659
4987.73321,0.78631
4985.80447,0.78673
4983.87572,0.78750
4981.94698,0.78810
4980.01823,0.78825
4978.08949,0.78767
4976.16074,0.78665
4974.23200,0.78623
4972.30325,0.78662
4970.37451,0.78695
4968.44577,0.78675
4966.51702,0.78643
4964.58828,0.78624
4962.65953,0.78570
4960.73079,0.78449
4958.80204,0.78328
4956.87330,0.78292
4954.94455,0.78321
4953.01581,0.78342
4951.08707,0.78313
4949.15832,0.78231
4947.22958,0.78137
4945.30083,0.78088
4943.37209,0.78055
4941.44334,0.77988
4939.51460,0.77896
4937.58585,0.77818
4935.65711,0.77766
4933.72837,0.77733
4931.79962,0.77716
4929.87088,0.77706
4927.94213,0.77673
4926.01339,0.77626
4924.08464,0.77591
4922.15590,0.77561
4920.22715,0.77545
4918.29841,0.77565
4916.36966,0.77572
4914.44092,0.77512
4912.51218,0.77398
4910.58343,0.77295
4908.65469,0.77237
4906.72594,0.77197
4904.79720,0.77175
4902.86845,0.77188
4900.93971,0.77197
4899.01096,0.77179
4897.08222,0.77147
4895.15348,0.77116
4893.22473,0.77095
4891.29599,0.77038
4889.36724,0.76937
4887.43850,0.76887
4885.50975,0.76889
4883.58101,0.76877
4881.65226,0.76868
4879.72352,0.76853
4877.79478,0.76797
4875.86603,0.76737
4873.93729,0.76701
4872.00854,0.76676
4870.07980,0.76660
4868.15105,0.76665
4866.22231,0.76688
4864.29356,0.76697
4862.36482,0.76684
4860.43608,0.76654
4858.50733,0.76586
4856.57859,0.76519
4854.64984,0.76493
4852.72110,0.76482
4850.79235,0.76465
4848.86361,0.76424
4846.93486,0.76348
4845.00612,0.76262
4843.07737,0.76193
4841.14863,0.76099
4839.21989,0.75966
4837.29114,0.75847
4835.36240,0.75710
4833.43365,0.75528
4831.50491,0.75372
4829.57616,0.75269
4827.64742,0.75192
4825.71867,0.75122
4823.78993,0.75038
4821.86119,0.74928
4819.93244,0.74809
4818.00370,0.74695
4816.07495,0.74579
4814.14621,0.74483
4812.21746,0.74400
4810.28872,0.74280
4808.35997,0.74121
4806.43123,0.73987
4804.50249,0.73921
4802.57374,0.73905
4800.64500,0.73924
4798.71625,0.73935
4796.78751,0.73895
4794.85876,0.73848
4792.93002,0.73810
4791.00127,0.73764
4789.07253,0.73774
4787.14379,0.73874
4785.21504,0.73988
4783.28630,0.74062
4781.35755,0.74117
4779.42881,0.74196
4777.50006,0.74306
4775.57132,0.74414
4773.64257,0.74463
4771.71383,0.74429
4769.78508,0.74368
4767.85634,0.74349
4765.92760,0.74373
4763.99885,0.74389
4762.07011,0.74360
4760.14136,0.74278
4758.21262,0.74145
4756.28387,0.73976
4754.35513,0.73783
4752.42638,0.73571
4750.49764,0.73346
4748.56890,0.73111
4746.64015,0.72875
4744.71141,0.72666
4742.78266,0.72500
4740.85392,0.72319
4738.92517,0.72081
4736.99643,0.71835
4735.06768,0.71598
4733.13894,0.71306
4731.21020,0.70946
4729.28145,0.70566
4727.35271,0.70191
4725.42396,0.69808
4723.49522,0.69425
4721.56647,0.69102
4719.63773,0.68889
4717.70898,0.68763
4715.78024,0.68705
4713.85150,0.68712
4711.92275,0.68721
4709.99401,0.68660
4708.06526,0.68521
4706.13652,0.68264
4704.20777,0.67848
4702.27903,0.67347
4700.35028,0.66841
4698.42154,0.66333
4696.49279,0.65850
4694.56405,0.65427
4692.63531,0.65133
4690.70656,0.65032
4688.77782,0.65073
4686.84907,0.65191
4684.92033,0.65424
4682.99158,0.65803
4681.06284,0.66266
4679.13409,0.66773
4677.20535,0.67324
4675.27661,0.67875
4673.34786,0.68349
4671.41912,0.68713
4669.49037,0.69003
4667.56163,0.69243
4665.63288,0.69398
4663.70414,0.69491
4661.77539,0.69581
4659.84665,0.69634
4657.91791,0.69619
4655.98916,0.69592
4654.06042,0.69567
4652.13167,0.69453
4650.20293,0.69192
4648.27418,0.68849
4646.34544,0.68469
4644.41669,0.68047
4642.48795,0.67652
4640.55921,0.67334
4638.63046,0.67071
4636.70172,0.66874
4634.77297,0.66788
4632.84423,0.66858
4630.91548,0.67097
4628.98674,0.67484
4627.05799,0.67992
4625.12925,0.68570
4623.20050,0.69179
4621.27176,0.69763
4619.34302,0.70245
4617.41427,0.70651
4615.48553,0.71045
4613.55678,0.71368
4611.62804,0.71575
4609.69929,0.71712
4607.77055,0.71783
4605.84180,0.71755
4603.91306,0.71657
4601.98432,0.71534
4600.05557,0.71340
4598.12683,0.70992
4596.19808,0.70565
4594.26934,0.70233
4592.34059,0.70026
4590.41185,0.69873
4588.48310,0.69743
4586.55436,0.69593
4584.62562,0.69408
4582.69687,0.69229
4580.76813,0.69110
4578.83938,0.69110
4576.91064,0.69272
4574.98189,0.69595
4573.05315,0.70023
4571.12440,0.70501
4569.19566,0.70992
4567.26692,0.71442
4565.33817,0.71824
4563.40943,0.72151
4561.48068,0.72396
4559.55194,0.72546
4557.62319,0.72652
4555.69445,0.72698
4553.76570,0.72663
4551.83696,0.72635
4549.90821,0.72651
4547.97947,0.72654
4546.05073,0.72650
4544.12198,0.72669
4542.19324,0.72675
4540.26449,0.72636
4538.33575,0.72566
4536.40700,0.72488
4534.47826,0.72433
4532.54951,0.72430
4530.62077,0.72454
4528.69203,0.72438
4526.76328,0.72339
4524.83454,0.72168
4522.90579,0.71973
4520.97705,0.71807
4519.04830,0.71694
4517.11956,0.71617
4515.19081,0.71537
4513.26207,0.71378
4511.33333,0.71086
4509.40458,0.70732
4507.47584,0.70414
4505.54709,0.70115
4503.61835,0.69741
4501.68960,0.69285
4499.76086,0.68849
4497.83211,0.68426
4495.90337,0.67928
4493.97462,0.67405
4492.04588,0.66952
4490.11714,0.66572
4488.18839,0.66261
4486.25965,0.66033
4484.33090,0.65863
4482.40216,0.65701
4480.47341,0.65512
4478.54467,0.65284
4476.61592,0.65017
4474.68718,0.64693
4472.75844,0.64275
4470.82969,0.63769
4468.90095,0.63208
4466.97220,0.62571
4465.04346,0.61835
4463.11471,0.61076
4461.18597,0.60428
4459.25722,0.59969
4457.32848,0.59724
4455.39974,0.59665
4453.47099,0.59708
4451.54225,0.59775
4449.61350,0.59812
4447.68476,0.59789
4445.75601,0.59706
4443.82727,0.59579
4441.89852,0.59410
4439.96978,0.59195
4438.04104,0.58982
4436.11229,0.58843
4434.18355,0.58770
4432.25480,0.58734
4430.32606,0.58787
4428.39731,0.58957
4426.46857,0.59207
4424.53982,0.59518
4422.61108,0.59852
4420.68233,0.60169
4418.75359,0.60460
4416.82485,0.60717
4414.89610,0.60927
4412.96736,0.61058
4411.03861,0.61101
4409.10987,0.61095
4407.18112,0.61074
4405.25238,0.61070
4403.32363,0.61129
4401.39489,0.61273
4399.46615,0.61481
4397.53740,0.61737
4395.60866,0.61992
4393.67991,0.62152
4391.75117,0.62226
4389.82242,0.62322
4387.89368,0.62471
4385.96493,0.62625
4384.03619,0.62742
4382.10745,0.62801
4380.17870,0.62819
4378.24996,0.62848
4376.32121,0.62892
4374.39247,0.62904
4372.46372,0.62884
4370.53498,0.62864
4368.60623,0.62835
4366.67749,0.62773
4364.74875,0.62683
4362.82000,0.62612
4360.89126,0.62594
4358.96251,0.62595
4357.03377,0.62579
4355.10502,0.62559
4353.17628,0.62526
4351.24753,0.62458
4349.31879,0.62376
4347.39004,0.62280
4345.46130,0.62144
4343.53256,0.61969
4341.60381,0.61793
4339.67507,0.61678
4337.74632,0.61634
4335.81758,0.61634
4333.88883,0.61647
4331.96009,0.61626
4330.03134,0.61585
4328.10260,0.61589
4326.17386,0.61643
4324.24511,0.61681
4322.31637,0.61663
4320.38762,0.61623
4318.45888,0.61559
4316.53013,0.61462
4314.60139,0.61362
4312.67264,0.61236
4310.74390,0.61058
4308.81516,0.60842
4306.88641,0.60585
4304.95767,0.60293
4303.02892,0.60016
4301.10018,0.59789
4299.17143,0.59606
4297.24269,0.59461
4295.31394,0.59337
4293.38520,0.59221
4291.45646,0.59157
4289.52771,0.59174
4287.59897,0.59230
4285.67022,0.59299
4283.74148,0.59388
4281.81273,0.59493
4279.88399,0.59614
4277.95524,0.59738
4276.02650,0.59854
4274.09775,0.59960
4272.16901,0.60051
4270.24027,0.60136
4268.31152,0.60241
4266.38278,0.60357
4264.45403,0.60460
4262.52529,0.60543
4260.59654,0.60595
4258.66780,0.60619
4256.73905,0.60628
4254.81031,0.60588
4252.88157,0.60505
4250.95282,0.60433
4249.02408,0.60373
4247.09533,0.60318
4245.16659,0.60300
4243.23784,0.60325
4241.30910,0.60354
4239.38035,0.60373
4237.45161,0.60424
4235.52287,0.60497
4233.59412,0.60514
4231.66538,0.60466
4229.73663,0.60438
4227.80789,0.60477
4225.87914,0.60535
4223.95040,0.60589
4222.02165,0.60684
4220.09291,0.60838
4218.16417,0.61012
4216.23542,0.61178
4214.30668,0.61349
4212.37793,0.61523
4210.44919,0.61658
4208.52044,0.61734
4206.59170,0.61769
4204.66295,0.61792
4202.73421,0.61832
4200.80546,0.61881
4198.87672,0.61897
4196.94798,0.61894
4195.01923,0.61915
4193.09049,0.61924
4191.16174,0.61853
4189.23300,0.61701
4187.30425,0.61499
4185.37551,0.61250
4183.44676,0.60960
4181.51802,0.60692
4179.58928,0.60506
4177.66053,0.60432
4175.73179,0.60481
4173.80304,0.60625
4171.87430,0.60840
4169.94555,0.61120
4168.01681,0.61419
4166.08806,0.61680
4164.15932,0.61891
4162.23058,0.62095
4160.30183,0.62313
4158.37309,0.62495
4156.44434,0.62611
4154.51560,0.62691
4152.58685,0.62744
4150.65811,0.62747
4148.72936,0.62712
4146.80062,0.62668
4144.87188,0.62577
4142.94313,0.62380
4141.01439,0.62090
4139.08564,0.61782
4137.15690,0.61522
4135.22815,0.61319
4133.29941,0.61162
4131.37066,0.61057
4129.44192,0.60997
4127.51317,0.60964
4125.58443,0.60958
4123.65569,0.60942
4121.72694,0.60862
4119.79820,0.60721
4117.86945,0.60564
4115.94071,0.60401
4114.01196,0.60195
4112.08322,0.59945
4110.15447,0.59683
4108.22573,0.59374
4106.29699,0.58981
4104.36824,0.58548
4102.43950,0.58069
4100.51075,0.57446
4098.58201,0.56657
4096.65326,0.55765
4094.72452,0.54885
4092.79577,0.54234
4090.86703,0.54001
4088.93829,0.54150
4087.00954,0.54516
4085.08080,0.55000
4083.15205,0.55552
4081.22331,0.56146
4079.29456,0.56799
4077.36582,0.57500
4075.43707,0.58200
4073.50833,0.58844
4071.57959,0.59379
4069.65084,0.59795
4067.72210,0.60105
4065.79335,0.60333
4063.86461,0.60513
4061.93586,0.60677
4060.00712,0.60841
4058.07837,0.61015
4056.14963,0.61188
4054.22088,0.61346
4052.29214,0.61491
4050.36340,0.61611
4048.43465,0.61705
4046.50591,0.61827
4044.57716,0.62001
4042.64842,0.62175
4040.71967,0.62331
4038.79093,0.62518
4036.86218,0.62720
4034.93344,0.62872
4033.00470,0.62983
4031.07595,0.63084
4029.14721,0.63164
4027.21846,0.63209
4025.28972,0.63207
4023.36097,0.63178
4021.43223,0.63162
4019.50348,0.63145
4017.57474,0.63108
4015.64600,0.63064
4013.71725,0.63035
4011.78851,0.63054
4009.85976,0.63117
4007.93102,0.63184
4006.00227,0.63244
4004.07353,0.63283
4002.14478,0.63286
4000.21604,0.63285
3998.28730,0.63316
3996.35855,0.63402
3994.42981,0.63525
3992.50106,0.63631
3990.57232,0.63704
3988.64357,0.63776
3986.71483,0.63849
3984.78608,0.63902
3982.85734,0.63916
3980.92859,0.63900
3978.99985,0.63889
3977.07111,0.63902
3975.14236,0.63907
3973.21362,0.63884
3971.28487,0.63884
3969.35613,0.63947
3967.42738,0.64037
3965.49864,0.64136
3963.56989,0.64261
3961.64115,0.64392
3959.71241,0.64505
3957.78366,0.64613
3955.85492,0.64729
3953.92617,0.64855
3951.99743,0.64986
3950.06868,0.65092
3948.13994,0.65143
3946.21119,0.65178
3944.28245,0.65249
3942.35371,0.65329
3940.42496,0.65364
3938.49622,0.65363
3936.56747,0.65375
3934.63873,0.65387
3932.70998,0.65372
3930.78124,0.65366
3928.85249,0.65377
3926.92375,0.65390
3924.99501,0.65421
3923.06626,0.65454
3921.13752,0.65470
3919.20877,0.65494
3917.28003,0.65517
3915.35128,0.65537
3913.42254,0.65591
3911.49379,0.65685
3909.56505,0.65802
3907.63630,0.65918
3905.70756,0.66024
3903.77882,0.66152
3901.85007,0.66317
3899.92133,0.66484
3897.99258,0.66638
3896.06384,0.66792
3894.13509,0.66954
3892.20635,0.67128
3890.27760,0.67285
3888.34886,0.67413
3886.42012,0.67540
3884.49137,0.67636
3882.56263,0.67688
3880.63388,0.67723
3878.70514,0.67745
3876.77639,0.67787
3874.84765,0.67874
3872.91890,0.67968
3870.99016,0.68034
3869.06142,0.68063
3867.13267,0.68100
3865.20393,0.68193
3863.27518,0.68293
3861.34644,0.68329
3859.41769,0.68329
3857.48895,0.68359
3855.56020,0.68431
3853.63146,0.68501
3851.70272,0.68518
3849.77397,0.68499
3847.84523,0.68487
3845.91648,0.68499
3843.98774,0.68509
3842.05899,0.68501
3840.13025,0.68478
3838.20150,0.68440
3836.27276,0.68417
3834.34401,0.68437
3832.41527,0.68454
3830.48653,0.68435
3828.55778,0.68409
3826.62904,0.68401
3824.70029,0.68397
3822.77155,0.68370
3820.84280,0.68274
3818.91406,0.68091
3816.98531,0.67862
3815.05657,0.67625
3813.12783,0.67399
3811.19908,0.67209
3809.27034,0.67079
3807.34159,0.67017
3805.41285,0.67009
3803.48410,0.67036
3801.55536,0.67110
3799.62661,0.67243
3797.69787,0.67414
3795.76913,0.67592
3793.84038,0.67730
3791.91164,0.67823
3789.98289,0.67906
3788.05415,0.67969
3786.12540,0.67990
3784.19666,0.67991
3782.26791,0.67980
3780.33917,0.67948
3778.41043,0.67880
3776.48168,0.67758
3774.55294,0.67598
3772.62419,0.67449
3770.69545,0.67338
3768.76670,0.67238
3766.83796,0.67084
3764.90921,0.66847
3762.98047,0.66597
3761.05172,0.66422
3759.12298,0.66353
3757.19424,0.66408
3755.26549,0.66590
3753.33675,0.66896
3751.40800,0.67329
3749.47926,0.67798
3747.55051,0.68172
3745.62177,0.68433
3743.69302,0.68551
3741.76428,0.68497
3739.83554,0.68362
3737.90679,0.68193
3735.97805,0.67969
3734.04930,0.67729
3732.12056,0.67579
3730.19181,0.67577
3728.26307,0.67717
3726.33432,0.67958
3724.40558,0.68242
3722.47684,0.68518
3720.54809,0.68731
3718.61935,0.68835
3716.69060,0.68848
3714.76186,0.68829
3712.83311,0.68778
3710.90437,0.68631
3708.97562,0.68359
3707.04688,0.67990
3705.11814,0.67568
3703.18939,0.67126
3701.26065,0.66658
3699.33190,0.66173
3697.40316,0.65688
3695.47441,0.65153
3693.54567,0.64473
3691.61692,0.63623
3689.68818,0.62726
3687.75943,0.62041
3685.83069,0.61792
3683.90195,0.62011
3681.97320,0.62597
3680.04446,0.63351
3678.11571,0.64088
3676.18697,0.64758
3674.25822,0.65301
3672.32948,0.65634
3670.40073,0.65777
3668.47199,0.65789
3666.54325,0.65729
3664.61450,0.65628
3662.68576,0.65472
3660.75701,0.65244
3658.82827,0.64963
3656.89952,0.64668
3654.97078,0.64361
3653.04203,0.64046
3651.11329,0.63755
3649.18455,0.63473
3647.25580,0.63161
3645.32706,0.62836
3643.39831,0.62521
3641.46957,0.62225
3639.54082,0.61943
3637.61208,0.61652
3635.68333,0.61361
3633.75459,0.61083
3631.82584,0.60805
3629.89710,0.60521
3627.96836,0.60244
3626.03961,0.59985
3624.11087,0.59724
3622.18212,0.59447
3620.25338,0.59160
3618.32463,0.58859
3616.39589,0.58572
3614.46714,0.58338
3612.53840,0.58130
3610.60966,0.57885
3608.68091,0.57588
3606.75217,0.57276
3604.82342,0.56976
3602.89468,0.56677
3600.96593,0.56364
3599.03719,0.56025
3597.10844,0.55643
3595.17970,0.55223
3593.25096,0.54785
3591.32221,0.54338
3589.39347,0.53878
3587.46472,0.53378
3585.53598,0.52850
3583.60723,0.52344
3581.67849,0.51869
3579.74974,0.51385
3577.82100,0.50895
3575.89226,0.50443
3573.96351,0.50021
3572.03477,0.49577
3570.10602,0.49099
3568.17728,0.48622
3566.24853,0.48180
3564.31979,0.47790
3562.39104,0.47447
3560.46230,0.47131
3558.53355,0.46846
3556.60481,0.46597
3554.67607,0.46373
3552.74732,0.46163
3550.81858,0.45969
3548.88983,0.45803
3546.96109,0.45680
3545.03234,0.45583
3543.10360,0.45492
3541.17485,0.45435
3539.24611,0.45424
3537.31737,0.45418
3535.38862,0.45402
3533.45988,0.45419
3531.53113,0.45466
3529.60239,0.45488
3527.67364,0.45503
3525.74490,0.45561
3523.81615,0.45643
3521.88741,0.45700
3519.95867,0.45733
3518.02992,0.45768
3516.10118,0.45799
3514.17243,0.45825
3512.24369,0.45852
3510.31494,0.45861
3508.38620,0.45842
3506.45745,0.45810
3504.52871,0.45763
3502.59997,0.45711
3500.67122,0.45702
3498.74248,0.45727
3496.81373,0.45721
3494.88499,0.45650
3492.95624,0.45530
3491.02750,0.45401
3489.09875,0.45283
3487.17001,0.45168
3485.24126,0.45043
3483.31252,0.44896
3481.38378,0.44736
3479.45503,0.44566
3477.52629,0.44360
3475.59754,0.44126
3473.66880,0.43883
3471.74005,0.43615
3469.81131,0.43307
3467.88256,0.42958
3465.95382,0.42581
3464.02508,0.42180
3462.09633,0.41759
3460.16759,0.41319
3458.23884,0.40858
3456.31010,0.40390
3454.38135,0.39932
3452.45261,0.39454
3450.52386,0.38923
3448.59512,0.38365
3446.66638,0.37827
3444.73763,0.37309
3442.80889,0.36777
3440.88014,0.36205
3438.95140,0.35576
3437.02265,0.34893
3435.09391,0.34221
3433.16516,0.33683
3431.23642,0.33433
3429.30768,0.33589
3427.37893,0.34126
3425.45019,0.34901
3423.52144,0.35776
3421.59270,0.36656
3419.66395,0.37481
3417.73521,0.38235
3415.80646,0.38918
3413.87772,0.39531
3411.94897,0.40093
3410.02023,0.40601
3408.09149,0.41057
3406.16274,0.41475
3404.23400,0.41853
3402.30525,0.42200
3400.37651,0.42504
3398.44776,0.42718
3396.51902,0.42848
3394.59027,0.42942
3392.66153,0.43027
3390.73279,0.43116
3388.80404,0.43195
3386.87530,0.43234
3384.94655,0.43231
3383.01781,0.43216
3381.08906,0.43224
3379.16032,0.43266
3377.23157,0.43306
3375.30283,0.43298
3373.37409,0.43243
3371.44534,0.43170
3369.51660,0.43090
3367.58785,0.42999
3365.65911,0.42903
3363.73036,0.42794
3361.80162,0.42661
3359.87287,0.42512
3357.94413,0.42360
3356.01539,0.42196
3354.08664,0.42019
3352.15790,0.41827
3350.22915,0.41607
3348.30041,0.41383
3346.37166,0.41176
3344.44292,0.40977
3342.51417,0.40786
3340.58543,0.40604
3338.65668,0.40433
3336.72794,0.40313
3334.79920,0.40287
3332.87045,0.40367
3330.94171,0.40529
3329.01296,0.40729
3327.08422,0.40956
3325.15547,0.41187
3323.22673,0.41371
3321.29798,0.41492
3319.36924,0.41573
3317.44050,0.41621
3315.51175,0.41649
3313.58301,0.41662
3311.65426,0.41637
3309.72552,0.41574
3307.79677,0.41508
3305.86803,0.41452
3303.93928,0.41400
3302.01054,0.41373
3300.08180,0.41370
3298.15305,0.41374
3296.22431,0.41424
3294.29556,0.41563
3292.36682,0.41731
3290.43807,0.41839
3288.50933,0.41903
3286.58058,0.42001
3284.65184,0.42141
3282.72310,0.42262
3280.79435,0.42342
3278.86561,0.42418
3276.93686,0.42494
3275.00812,0.42570
3273.07937,0.42664
3271.15063,0.42748
3269.22188,0.42792
3267.29314,0.42835
3265.36439,0.42904
3263.43565,0.42978
3261.50691,0.43042
3259.57816,0.43120
3257.64942,0.43225
3255.72067,0.43316
3253.79193,0.43349
3251.86318,0.43347
3249.93444,0.43347
3248.00569,0.43349
3246.07695,0.43338
3244.14821,0.43335
3242.21946,0.43359
3240.29072,0.43384
3238.36197,0.43391
3236.43323,0.43414
3234.50448,0.43478
3232.57574,0.43560
3230.64699,0.43644
3228.71825,0.43726
3226.78951,0.43802
3224.86076,0.43882
3222.93202,0.43982
3221.00327,0.44116
3219.07453,0.44268
3217.14578,0.44399
3215.21704,0.44481
3213.28829,0.44528
3211.35955,0.44582
3209.43081,0.44634
3207.50206,0.44653
3205.57332,0.44649
3203.64457,0.44645
3201.71583,0.44653
3199.78708,0.44681
3197.85834,0.44714
3195.92959,0.44713
3194.00085,0.44679
3192.07210,0.44667
3190.14336,0.44692
3188.21462,0.44716
3186.28587,0.44736
3184.35713,0.44767
3182.42838,0.44815
3180.49964,0.44882
3178.57089,0.44948
3176.64215,0.44990
3174.71340,0.44991
3172.78466,0.44969
3170.85592,0.44961
3168.92717,0.44962
3166.99843,0.44960
3165.06968,0.44961
3163.14094,0.44968
3161.21219,0.44964
3159.28345,0.44939
3157.35470,0.44892
3155.42596,0.44824
3153.49722,0.44757
3151.56847,0.44702
3149.63973,0.44633
3147.71098,0.44539
3145.78224,0.44427
3143.85349,0.44292
3141.92475,0.44134
3139.99600,0.43962
3138.06726,0.43762
3136.13852,0.43526
3134.20977,0.43280
3132.28103,0.43046
3130.35228,0.42851
3128.42354,0.42731
3126.49479,0.42703
3124.56605,0.42749
3122.63730,0.42829
3120.70856,0.42882
3118.77981,0.42846
3116.85107,0.42675
3114.92233,0.42367
3112.99358,0.41966
3111.06484,0.41532
3109.13609,0.41098
3107.20735,0.40671
3105.27860,0.40279
3103.34986,0.40029
3101.42111,0.40034
3099.49237,0.40270
3097.56363,0.40600
3095.63488,0.40872
3093.70614,0.40982
3091.77739,0.40891
3089.84865,0.40610
3087.91990,0.40190
3085.99116,0.39719
3084.06241,0.39288
3082.13367,0.38973
3080.20493,0.38805
3078.27618,0.38740
3076.34744,0.38714
3074.41869,0.38668
3072.48995,0.38541
3070.56120,0.38363
3068.63246,0.38245
3066.70371,0.38239
3064.77497,0.38296
3062.84623,0.38297
3060.91748,0.38082
3058.98874,0.37588
3057.05999,0.37021
3055.13125,0.36758
3053.20250,0.37032
3051.27376,0.37792
3049.34501,0.38849
3047.41627,0.39998
3045.48752,0.41031
3043.55878,0.41801
3041.63004,0.42267
3039.70129,0.42474
3037.77255,0.42485
3035.84380,0.42361
3033.91506,0.42140
3031.98631,0.41822
3030.05757,0.41396
3028.12882,0.40877
3026.20008,0.40261
3024.27134,0.39489
3022.34259,0.38511
3020.41385,0.37356
3018.48510,0.36139
3016.55636,0.35052
3014.62761,0.34294
3012.69887,0.33918
3010.77012,0.33789
3008.84138,0.33732
3006.91264,0.33637
3004.98389,0.33480
3003.05515,0.33289
3001.12640,0.33082
2999.19766,0.32847
2997.26891,0.32580
2995.34017,0.32284
2993.41142,0.31947
2991.48268,0.31509
2989.55394,0.30927
2987.62519,0.30221
2985.69645,0.29417
2983.76770,0.28522
2981.83896,0.27538
2979.91021,0.26483
2977.98147,0.25388
2976.05272,0.24294
2974.12398,0.23291
2972.19523,0.22531
2970.26649,0.22181
2968.33775,0.22284
2966.40900,0.22680
2964.48026,0.23157
2962.55151,0.23620
2960.62277,0.24081
2958.69402,0.24595
2956.76528,0.25182
2954.83653,0.25835
2952.90779,0.26562
2950.97905,0.27368
2949.05030,0.28232
2947.12156,0.29113
2945.19281,0.29960
2943.26407,0.30743
2941.33532,0.31436
2939.40658,0.31983
2937.47783,0.32357
2935.54909,0.32586
2933.62035,0.32679
2931.69160,0.32598
2929.76286,0.32356
2927.83411,0.32018
2925.90537,0.31643
2923.97662,0.31255
2922.04788,0.30842
2920.11913,0.30368
2918.19039,0.29802
2916.26165,0.29138
2914.33290,0.28385
2912.40416,0.27582
2910.47541,0.26858
2908.54667,0.26481
2906.61792,0.26706
2904.68918,0.27555
2902.76043,0.28760
2900.83169,0.29954
2898.90294,0.30915
2896.97420,0.31587
2895.04546,0.32006
2893.11671,0.32268
2891.18797,0.32464
2889.25922,0.32669
2887.33048,0.32931
2885.40173,0.33240
2883.47299,0.33587
2881.54424,0.33965
2879.61550,0.34318
2877.68676,0.34591
2875.75801,0.34802
2873.82927,0.34986
2871.90052,0.35148
2869.97178,0.35298
2868.04303,0.35445
2866.11429,0.35582
2864.18554,0.35699
2862.25680,0.35788
2860.32806,0.35859
2858.39931,0.35922
2856.47057,0.36000
2854.54182,0.36165
2852.61308,0.36499
2850.68433,0.37089
2848.75559,0.38002
2846.82684,0.39156
2844.89810,0.40346
2842.96936,0.41425
2841.04061,0.42360
2839.11187,0.43157
2837.18312,0.43808
2835.25438,0.44348
2833.32563,0.44862
2831.39689,0.45367
2829.46814,0.45814
2827.53940,0.46187
2825.61065,0.46506
2823.68191,0.46773
2821.75317,0.46952
2819.82442,0.47013
2817.89568,0.46993
2815.96693,0.46941
2814.03819,0.46880
2812.10944,0.46821
2810.18070,0.46768
2808.25195,0.46730
2806.32321,0.46761
2804.39447,0.46900
2802.46572,0.47129
2800.53698,0.47426
2798.60823,0.47775
2796.67949,0.48142
2794.75074,0.48506
2792.82200,0.48851
2790.89325,0.49154
2788.96451,0.49417
2787.03577,0.49662
2785.10702,0.49895
2783.17828,0.50107
2781.24953,0.50310
2779.32079,0.50525
2777.39204,0.50741
2775.46330,0.50919
2773.53455,0.51040
2771.60581,0.51140
2769.67707,0.51252
2767.74832,0.51356
2765.81958,0.51425
2763.89083,0.51464
2761.96209,0.51488
2760.03334,0.51512
2758.10460,0.51538
2756.17585,0.51548
2754.24711,0.51527
2752.31836,0.51489
2750.38962,0.51447
2748.46088,0.51400
2746.53213,0.51381
2744.60339,0.51442
2742.67464,0.51590
2740.74590,0.51802
2738.81715,0.52051
2736.88841,0.52323
2734.95966,0.52613
2733.03092,0.52899
2731.10218,0.53158
2729.17343,0.53396
2727.24469,0.53624
2725.31594,0.53823
2723.38720,0.53985
2721.45845,0.54116
2719.52971,0.54222
2717.60096,0.54331
2715.67222,0.54471
2713.74348,0.54631
2711.81473,0.54808
2709.88599,0.54997
2707.95724,0.55178
2706.02850,0.55347
2704.09975,0.55511
2702.17101,0.55659
2700.24226,0.55783
2698.31352,0.55892
2696.38477,0.55990
2694.45603,0.56078
2692.52729,0.56154
2690.59854,0.56196
2688.66980,0.56212
2686.74105,0.56234
2684.81231,0.56262
2682.88356,0.56281
2680.95482,0.56296
2679.02607,0.56329
2677.09733,0.56388
2675.16859,0.56452
2673.23984,0.56516
2671.31110,0.56588
2669.38235,0.56649
2667.45361,0.56682
2665.52486,0.56703
2663.59612,0.56705
2661.66737,0.56662
2659.73863,0.56581
2657.80989,0.56487
2655.88114,0.56388
2653.95240,0.56273
2652.02365,0.56133
2650.09491,0.55987
2648.16616,0.55846
2646.23742,0.55656
2644.30867,0.55368
2642.37993,0.54987
2640.45119,0.54560
2638.52244,0.54150
2636.59370,0.53789
2634.66495,0.53498
2632.73621,0.53312
2630.80746,0.53246
2628.87872,0.53262
2626.94997,0.53317
2625.02123,0.53404
2623.09248,0.53513
2621.16374,0.53603
2619.23500,0.53655
2617.30625,0.53676
2615.37751,0.53664
2613.44876,0.53620
2611.52002,0.53572
2609.59127,0.53538
2607.66253,0.53501
2605.73378,0.53440
2603.80504,0.53362
2601.87630,0.53254
2599.94755,0.53095
2598.01881,0.52895
2596.09006,0.52668
2594.16132,0.52424
2592.23257,0.52199
2590.30383,0.52009
2588.37508,0.51850
2586.44634,0.51732
2584.51760,0.51660
2582.58885,0.51636
2580.66011,0.51656
2578.73136,0.51705
2576.80262,0.51756
2574.87387,0.51785
2572.94513,0.51788
2571.01638,0.51778
2569.08764,0.51754
2567.15890,0.51707
2565.23015,0.51637
2563.30141,0.51577
2561.37266,0.51548
2559.44392,0.51529
2557.51517,0.51501
2555.58643,0.51467
2553.65768,0.51412
2551.72894,0.51349
2549.80019,0.51318
2547.87145,0.51303
2545.94271,0.51261
2544.01396,0.51203
2542.08522,0.51164
2540.15647,0.51140
2538.22773,0.51111
2536.29898,0.51089
2534.37024,0.51102
2532.44149,0.51150
2530.51275,0.51235
2528.58401,0.51360
2526.65526,0.51507
2524.72652,0.51667
2522.79777,0.51848
2520.86903,0.52048
2518.94028,0.52240
2517.01154,0.52411
2515.08279,0.52564
2513.15405,0.52691
2511.22531,0.52766
2509.29656,0.52797
2507.36782,0.52824
2505.43907,0.52860
2503.51033,0.52890
2501.58158,0.52919
2499.65284,0.52969
2497.72409,0.53051
2495.79535,0.53172
2493.86661,0.53346
2491.93786,0.53567
2490.00912,0.53802
2488.08037,0.54022
2486.15163,0.54230
2484.22288,0.54449
2482.29414,0.54697
2480.36539,0.54965
2478.43665,0.55233
2476.50790,0.55465
2474.57916,0.55634
2472.65042,0.55774
2470.72167,0.55909
2468.79293,0.56010
2466.86418,0.56065
2464.93544,0.56089
2463.00669,0.56099
2461.07795,0.56109
2459.14920,0.56115
2457.22046,0.56094
2455.29172,0.56048
2453.36297,0.55992
2451.43423,0.55920
2449.50548,0.55832
2447.57674,0.55727
2445.64799,0.55581
2443.71925,0.55394
2441.79050,0.55173
2439.86176,0.54897
2437.93302,0.54569
2436.00427,0.54239
2434.07553,0.53936
2432.14678,0.53639
2430.21804,0.53316
2428.28929,0.52987
2426.36055,0.52669
2424.43180,0.52336
2422.50306,0.51988
2420.57432,0.51652
2418.64557,0.51334
2416.71683,0.51032
2414.78808,0.50747
2412.85934,0.50466
2410.93059,0.50181
2409.00185,0.49900
2407.07310,0.49635
2405.14436,0.49398
2403.21561,0.49191
2401.28687,0.49005
2399.35813,0.48826
2397.42938,0.48666
2395.50064,0.48545
2393.57189,0.48454
2391.64315,0.48385
2389.71440,0.48342
2387.78566,0.48330
2385.85691,0.48368
2383.92817,0.48457
2381.99943,0.48572
2380.07068,0.48689
2378.14194,0.48797
2376.21319,0.48915
2374.28445,0.49073
2372.35570,0.49267
2370.42696,0.49491
2368.49821,0.49760
2366.56947,0.50097
2364.64073,0.50508
2362.71198,0.50950
2360.78324,0.51372
2358.85449,0.51773
2356.92575,0.52161
2354.99700,0.52533
2353.06826,0.52875
2351.13951,0.53168
2349.21077,0.53418
2347.28203,0.53651
2345.35328,0.53855
2343.42454,0.54003
2341.49579,0.54090
2339.56705,0.54117
2337.63830,0.54108
2335.70956,0.54120
2333.78081,0.54198
2331.85207,0.54331
2329.92332,0.54480
2327.99458,0.54613
2326.06584,0.54733
2324.13709,0.54866
2322.20835,0.55015
2320.27960,0.55162
2318.35086,0.55291
2316.42211,0.55380
2314.49337,0.55392
2312.56462,0.55306
2310.63588,0.55128
2308.70714,0.54873
2306.77839,0.54555
2304.84965,0.54178
2302.92090,0.53744
2300.99216,0.53253
2299.06341,0.52712
2297.13467,0.52156
2295.20592,0.51619
2293.27718,0.51116
2291.34844,0.50667
2289.41969,0.50304
2287.49095,0.50042
2285.56220,0.49888
2283.63346,0.49831
2281.70471,0.49845
2279.77597,0.49899
2277.84722,0.49957
2275.91848,0.49974
2273.98974,0.49917
2272.06099,0.49808
2270.13225,0.49681
2268.20350,0.49535
2266.27476,0.49371
2264.34601,0.49231
2262.41727,0.49147
2260.48852,0.49122
2258.55978,0.49145
2256.63103,0.49192
2254.70229,0.49258
2252.77355,0.49373
2250.84480,0.49562
2248.91606,0.49815
2246.98731,0.50095
2245.05857,0.50370
2243.12982,0.50635
2241.20108,0.50888
2239.27233,0.51112
2237.34359,0.51311
2235.41485,0.51497
2233.48610,0.51672
2231.55736,0.51822
2229.62861,0.51930
2227.69987,0.52001
2225.77112,0.52057
2223.84238,0.52109
2221.91363,0.52170
2219.98489,0.52239
2218.05615,0.52303
2216.12740,0.52373
2214.19866,0.52445
2212.26991,0.52496
2210.34117,0.52565
2208.41242,0.52715
2206.48368,0.52946
2204.55493,0.53208
2202.62619,0.53444
2200.69745,0.53617
2198.76870,0.53735
2196.83996,0.53820
2194.91121,0.53863
2192.98247,0.53851
2191.05372,0.53790
2189.12498,0.53690
2187.19623,0.53557
2185.26749,0.53393
2183.33874,0.53200
2181.41000,0.52961
2179.48126,0.52679
2177.55251,0.52368
2175.62377,0.52025
2173.69502,0.51659
2171.76628,0.51282
2169.83753,0.50882
2167.90879,0.50450
2165.98004,0.49991
2164.05130,0.49507
2162.12256,0.49009
2160.19381,0.48510
2158.26507,0.48010
2156.33632,0.47509
2154.40758,0.47037
2152.47883,0.46614
2150.55009,0.46227
2148.62134,0.45867
2146.69260,0.45538
2144.76386,0.45241
2142.83511,0.44978
2140.90637,0.44741
2138.97762,0.44502
2137.04888,0.44245
2135.12013,0.43975
2133.19139,0.43681
2131.26264,0.43356
2129.33390,0.42999
2127.40516,0.42609
2125.47641,0.42210
2123.54767,0.41836
2121.61892,0.41509
2119.69018,0.41237
2117.76143,0.41002
2115.83269,0.40811
2113.90394,0.40696
2111.97520,0.40652
2110.04645,0.40645
2108.11771,0.40659
2106.18897,0.40698
2104.26022,0.40756
2102.33148,0.40816
2100.40273,0.40884
2098.47399,0.40973
2096.54524,0.41083
2094.61650,0.41221
2092.68775,0.41398
2090.75901,0.41614
2088.83027,0.41873
2086.90152,0.42175
2084.97278,0.42522
2083.04403,0.42894
2081.11529,0.43275
2079.18654,0.43684
2077.25780,0.44118
2075.32905,0.44554
2073.40031,0.44994
2071.47157,0.45452
2069.54282,0.45931
2067.61408,0.46427
2065.68533,0.46929
2063.75659,0.47443
2061.82784,0.47969
2059.89910,0.48481
2057.97035,0.48968
2056.04161,0.49426
2054.11287,0.49839
2052.18412,0.50204
2050.25538,0.50516
2048.32663,0.50753
2046.39789,0.50907
2044.46914,0.51010
2042.54040,0.51092
2040.61165,0.51154
2038.68291,0.51174
2036.75416,0.51121
2034.82542,0.50998
2032.89668,0.50816
2030.96793,0.50571
2029.03919,0.50268
2027.11044,0.49922
2025.18170,0.49528
2023.25295,0.49104
2021.32421,0.48683
2019.39546,0.48265
2017.46672,0.47849
2015.53798,0.47455
2013.60923,0.47081
2011.68049,0.46702
2009.75174,0.46310
2007.82300,0.45904
2005.89425,0.45483
2003.96551,0.45036
2002.03676,0.44579
2000.10802,0.44141
1998.17928,0.43713
1996.25053,0.43275
1994.32179,0.42822
1992.39304,0.42356
1990.46430,0.41902
1988.53555,0.41480
1986.60681,0.41059
1984.67806,0.40630
1982.74932,0.40200
1980.82058,0.39746
1978.89183,0.39255
1976.96309,0.38729
1975.03434,0.38146
1973.10560,0.37471
1971.17685,0.36690
1969.24811,0.35794
1967.31936,0.34780
1965.39062,0.33733
1963.46187,0.32832
1961.53313,0.32272
1959.60439,0.32149
1957.67564,0.32400
1955.74690,0.32873
1953.81815,0.33435
1951.88941,0.34007
1949.96066,0.34579
1948.03192,0.35170
1946.10317,0.35787
1944.17443,0.36425
1942.24569,0.37074
1940.31694,0.37716
1938.38820,0.38351
1936.45945,0.38985
1934.53071,0.39596
1932.60196,0.40160
1930.67322,0.40677
1928.74447,0.41155
1926.81573,0.41587
1924.88699,0.41968
1922.95824,0.42316
1921.02950,0.42658
1919.10075,0.43006
1917.17201,0.43341
1915.24326,0.43638
1913.31452,0.43906
1911.38577,0.44159
1909.45703,0.44391
1907.52829,0.44591
1905.59954,0.44762
1903.67080,0.44919
1901.74205,0.45070
1899.81331,0.45205
1897.88456,0.45316
1895.95582,0.45397
1894.02707,0.45446
1892.09833,0.45461
1890.16958,0.45453
1888.24084,0.45433
1886.31210,0.45405
1884.38335,0.45354
1882.45461,0.45277
1880.52586,0.45178
1878.59712,0.45026
1876.66837,0.44800
1874.73963,0.44513
1872.81088,0.44186
1870.88214,0.43820
1868.95340,0.43413
1867.02465,0.42984
1865.09591,0.42534
1863.16716,0.42044
1861.23842,0.41489
1859.30967,0.40870
1857.38093,0.40193
1855.45218,0.39442
1853.52344,0.38610
1851.59470,0.37732
1849.66595,0.36858
1847.73721,0.36020
1845.80846,0.35214
1843.87972,0.34421
1841.95097,0.33681
1840.02223,0.33026
1838.09348,0.32411
1836.16474,0.31822
1834.23600,0.31283
1832.30725,0.30812
1830.37851,0.30407
1828.44976,0.30075
1826.52102,0.29837
1824.59227,0.29691
1822.66353,0.29621
1820.73478,0.29587
1818.80604,0.29532
1816.87729,0.29434
1814.94855,0.29310
1813.01981,0.29184
1811.09106,0.29053
1809.16232,0.28922
1807.23357,0.28809
1805.30483,0.28707
1803.37608,0.28590
1801.44734,0.28453
1799.51859,0.28306
1797.58985,0.28139
1795.66111,0.27934
1793.73236,0.27690
1791.80362,0.27411
1789.87487,0.27107
1787.94613,0.26768
1786.01738,0.26366
1784.08864,0.25899
1782.15989,0.25406
1780.23115,0.24907
1778.30241,0.24395
1776.37366,0.23846
1774.44492,0.23222
1772.51617,0.22494
1770.58743,0.21705
1768.65868,0.20895
1766.72994,0.20040
1764.80119,0.19141
1762.87245,0.18148
1760.94370,0.17023
1759.01496,0.15808
1757.08622,0.14469
1755.15747,0.13027
1753.22873,0.11527
1751.29998,0.09892
1749.37124,0.08190
1747.44249,0.06638
1745.51375,0.05348
1743.58500,0.04377
1741.65626,0.03734
1739.72752,0.03365
1737.79877,0.03210
1735.87003,0.03205
1733.94128,0.03305
1732.01254,0.03452
1730.08379,0.03599
1728.15505,0.03743
1726.22630,0.03884
1724.29756,0.04045
1722.36882,0.04234
1720.44007,0.04452
1718.51133,0.04750
1716.58258,0.05225
1714.65384,0.05962
1712.72509,0.06967
1710.79635,0.08159
1708.86760,0.09400
1706.93886,0.10631
1705.01012,0.11826
1703.08137,0.12927
1701.15263,0.14002
1699.22388,0.15008
1697.29514,0.15798
1695.36639,0.16459
1693.43765,0.17005
1691.50890,0.17370
1689.58016,0.17556
1687.65141,0.17571
1685.72267,0.17496
1683.79393,0.17537
1681.86518,0.17892
1679.93644,0.18512
1678.00769,0.19211
1676.07895,0.19863
1674.15020,0.20431
1672.22146,0.20936
1670.29271,0.21481
1668.36397,0.22126
1666.43523,0.22824
1664.50648,0.23545
1662.57774,0.24236
1660.64899,0.24804
1658.72025,0.25235
1656.79150,0.25581
1654.86276,0.25901
1652.93401,0.26221
1651.00527,0.26469
1649.07653,0.26668
1647.14778,0.26899
1645.21904,0.27158
1643.29029,0.27423
1641.36155,0.27699
1639.43280,0.27950
1637.50406,0.28147
1635.57531,0.28320
1633.64657,0.28470
1631.71783,0.28584
1629.78908,0.28675
1627.86034,0.28739
1625.93159,0.28742
1624.00285,0.28642
1622.07410,0.28386
1620.14536,0.27925
1618.21661,0.27238
1616.28787,0.26481
1614.35912,0.26066
1612.43038,0.26167
1610.50164,0.26628
1608.57289,0.27228
1606.64415,0.27813
1604.71540,0.28337
1602.78666,0.28800
1600.85791,0.29200
1598.92917,0.29498
1597.00042,0.29623
1595.07168,0.29524
1593.14294,0.29198
1591.21419,0.28677
1589.28545,0.27969
1587.35670,0.26997
1585.42796,0.25643
1583.49921,0.23940
1581.57047,0.22243
1579.64172,0.21151
1577.71298,0.21122
1575.78424,0.22206
1573.85549,0.23797
1571.92675,0.25319
1569.99800,0.26663
1568.06926,0.27679
1566.14051,0.28316
1564.21177,0.28710
1562.28302,0.28948
1560.35428,0.29072
1558.42554,0.29112
1556.49679,0.29089
1554.56805,0.29022
1552.63930,0.28922
1550.71056,0.28773
1548.78181,0.28564
1546.85307,0.28323
1544.92432,0.28145
1542.99558,0.28122
1541.06683,0.28233
1539.13809,0.28303
1537.20935,0.28218
1535.28060,0.28026
1533.35186,0.27709
1531.42311,0.27259
1529.49437,0.26762
1527.56562,0.26280
1525.63688,0.25898
1523.70813,0.25711
1521.77939,0.25682
1519.85065,0.25619
1517.92190,0.25315
1515.99316,0.24602
1514.06441,0.23292
1512.13567,0.21185
1510.20692,0.18302
1508.27818,0.15137
1506.34943,0.13063
1504.42069,0.13657
1502.49195,0.16339
1500.56320,0.19793
1498.63446,0.23066
1496.70571,0.25512
1494.77697,0.26890
1492.84822,0.27348
1490.91948,0.27158
1488.99073,0.26500
1487.06199,0.25526
1485.13325,0.24362
1483.20450,0.23091
1481.27576,0.21738
1479.34701,0.20319
1477.41827,0.18811
1475.48952,0.17214
1473.56078,0.15787
1471.63203,0.15120
1469.70329,0.15410
1467.77454,0.16061
1465.84580,0.16474
1463.91706,0.16445
1461.98831,0.16125
1460.05957,0.15727
1458.13082,0.15344
1456.20208,0.15052
1454.27333,0.14925
1452.34459,0.14956
1450.41584,0.15097
1448.48710,0.15275
1446.55836,0.15425
1444.62961,0.15539
1442.70087,0.15644
1440.77212,0.15773
1438.84338,0.15965
1436.91463,0.16251
1434.98589,0.16588
1433.05714,0.16899
1431.12840,0.17107
1429.19966,0.17090
1427.27091,0.16741
1425.34217,0.16022
1423.41342,0.14926
1421.48468,0.13450
1419.55593,0.11517
1417.62719,0.09349
1415.69844,0.07492
1413.76970,0.06248
1411.84096,0.05730
1409.91221,0.05903
1407.98347,0.06619
1406.05472,0.07716
1404.12598,0.08958
1402.19723,0.10071
1400.26849,0.10930
1398.33974,0.11521
1396.41100,0.11831
1394.48225,0.11883
1392.55351,0.11719
1390.62477,0.11392
1388.69602,0.10997
1386.76728,0.10682
1384.83853,0.10544
1382.90979,0.10546
1380.98104,0.10593
1379.05230,0.10580
1377.12355,0.10438
1375.19481,0.10189
1373.26607,0.09912
1371.33732,0.09710
1369.40858,0.09650
1367.47983,0.09743
1365.55109,0.09939
1363.62234,0.10112
1361.69360,0.10099
1359.76485,0.09828
1357.83611,0.09336
1355.90737,0.08682
1353.97862,0.07932
1352.04988,0.07167
1350.12113,0.06492
1348.19239,0.06000
1346.26364,0.05719
1344.33490,0.05607
1342.40615,0.05629
1340.47741,0.05840
1338.54867,0.06394
1336.61992,0.07375
1334.69118,0.08650
1332.76243,0.09873
1330.83369,0.10680
1328.90494,0.10901
1326.97620,0.10601
1325.04745,0.09959
1323.11871,0.09150
1321.18996,0.08309
1319.26122,0.07513
1317.33248,0.06788
1315.40373,0.06145
1313.47499,0.05586
1311.54624,0.05087
1309.61750,0.04648
1307.68875,0.04300
1305.76001,0.04044
1303.83126,0.03857
1301.90252,0.03717
1299.97378,0.03614
1298.04503,0.03571
1296.11629,0.03607
1294.18754,0.03701
1292.25880,0.03825
1290.33005,0.03972
1288.40131,0.04162
1286.47256,0.04389
1284.54382,0.04628
1282.61508,0.04871
1280.68633,0.05121
1278.75759,0.05373
1276.82884,0.05603
1274.90010,0.05778
1272.97135,0.05916
1271.04261,0.06042
1269.11386,0.06154
1267.18512,0.06240
1265.25638,0.06301
1263.32763,0.06348
1261.39889,0.06394
1259.47014,0.06453
1257.54140,0.06519
1255.61265,0.06577
1253.68391,0.06595
1251.75516,0.06540
1249.82642,0.06413
1247.89767,0.06233
1245.96893,0.06033
1244.04019,0.05866
1242.11144,0.05801
1240.18270,0.05920
1238.25395,0.06325
1236.32521,0.07099
1234.39646,0.08241
1232.46772,0.09636
1230.53897,0.11104
1228.61023,0.12467
1226.68149,0.13627
1224.75274,0.14646
1222.82400,0.15697
1220.89525,0.16879
1218.96651,0.18100
1217.03776,0.19165
1215.10902,0.19964
1213.18027,0.20549
1211.25153,0.21044
1209.32279,0.21587
1207.39404,0.22279
1205.46530,0.23092
1203.53655,0.23908
1201.60781,0.24650
1199.67906,0.25309
1197.75032,0.25859
1195.82157,0.26237
1193.89283,0.26384
1191.96409,0.26279
1190.03534,0.25914
1188.10660,0.25283
1186.17785,0.24418
1184.24911,0.23387
1182.32036,0.22239
1180.39162,0.21052
1178.46287,0.19952
1176.53413,0.19036
1174.60538,0.18354
1172.67664,0.17897
1170.74790,0.17572
1168.81915,0.17209
1166.89041,0.16648
1164.96166,0.15839
1163.03292,0.14832
1161.10417,0.13719
1159.17543,0.12585
1157.24668,0.11469
1155.31794,0.10373
1153.38920,0.09309
1151.46045,0.08292
1149.53171,0.07342
1147.60296,0.06485
1145.67422,0.05757
1143.74547,0.05202
1141.81673,0.04844
1139.88798,0.04682
1137.95924,0.04689
1136.03050,0.04841
1134.10175,0.05113
1132.17301,0.05420
1130.24426,0.05649
1128.31552,0.05752
1126.38677,0.05764
1124.45803,0.05746
1122.52928,0.05743
1120.60054,0.05781
1118.67180,0.05849
1116.74305,0.05907
1114.81431,0.05934
1112.88556,0.05951
1110.95682,0.05997
1109.02807,0.06074
1107.09933,0.06149
1105.17058,0.06238
1103.24184,0.06368
1101.31309,0.06560
1099.38435,0.06843
1097.45561,0.07238
1095.52686,0.07784
1093.59812,0.08518
1091.66937,0.09398
1089.74063,0.10366
1087.81188,0.11416
1085.88314,0.12585
1083.95439,0.13953
1082.02565,0.15590
1080.09691,0.17454
1078.16816,0.19374
1076.23942,0.21166
1074.31067,0.22723
1072.38193,0.23990
1070.45318,0.24976
1068.52444,0.25742
1066.59569,0.26327
1064.66695,0.26732
1062.73821,0.26925
1060.80946,0.26874
1058.88072,0.26599
1056.95197,0.26104
1055.02323,0.25404
1053.09448,0.24599
1051.16574,0.23767
1049.23699,0.22938
1047.30825,0.22216
1045.37951,0.21686
1043.45076,0.21316
1041.52202,0.21033
1039.59327,0.20782
1037.66453,0.20492
1035.73578,0.20028
1033.80704,0.19194
1031.87829,0.17773
1029.94955,0.15571
1028.02080,0.12704
1026.09206,0.10018
1024.16332,0.08581
1022.23457,0.08553
1020.30583,0.09408
1018.37708,0.11095
1016.44834,0.14051
1014.51959,0.18151
1012.59085,0.22417
1010.66210,0.25923
1008.73336,0.28423
1006.80462,0.30067
1004.87587,0.31050
1002.94713,0.31592
1001.01838,0.31880
999.08964,0.31985
997.16089,0.31880
995.23215,0.31472
993.30340,0.30648
991.37466,0.29526
989.44592,0.28532
987.51717,0.27924
985.58843,0.27390
983.65968,0.26437
981.73094,0.24939
979.80219,0.23090
977.87345,0.21164
975.94470,0.19472
974.01596,0.18382
972.08722,0.18226
970.15847,0.19097
968.22973,0.20756
966.30098,0.22794
964.37224,0.24891
962.44349,0.26891
960.51475,0.28698
958.58600,0.30261
956.65726,0.31596
954.72851,0.32715
952.79977,0.33607
950.87103,0.34302
948.94228,0.34848
947.01354,0.35272
945.08479,0.35591
943.15605,0.35815
941.22730,0.35957
939.29856,0.36043
937.36981,0.36088
935.44107,0.36094
933.51233,0.36060
931.58358,0.35998
929.65484,0.35942
927.72609,0.35877
925.79735,0.35756
923.86860,0.35555
921.93986,0.35263
920.01111,0.34867
918.08237,0.34357
916.15363,0.33710
914.22488,0.32897
912.29614,0.31916
910.36739,0.30796
908.43865,0.29592
906.50990,0.28405
904.58116,0.27362
902.65241,0.26556
900.72367,0.26020
898.79492,0.25748
896.86618,0.25701
894.93744,0.25778
893.00869,0.25839
891.07995,0.25761
889.15120,0.25446
887.22246,0.24845
885.29371,0.23981
883.36497,0.22903
881.43622,0.21658
879.50748,0.20293
877.57874,0.18855
875.64999,0.17504
873.72125,0.16828
871.79250,0.17573
869.86376,0.19520
867.93501,0.21496
866.00627,0.22687
864.07752,0.23044
862.14878,0.22761
860.22004,0.22008
858.29129,0.20984
856.36255,0.19915
854.43380,0.18935
852.50506,0.18090
850.57631,0.17530
848.64757,0.17535
846.71882,0.18220
844.79008,0.19382
842.86134,0.20719
840.93259,0.22008
839.00385,0.23162
837.07510,0.24212
835.14636,0.25169
833.21761,0.25969
831.28887,0.26590
829.36012,0.27103
827.43138,0.27528
825.50263,0.27832
823.57389,0.28024
821.64515,0.28106
819.71640,0.28066
817.78766,0.27944
815.85891,0.27780
813.93017,0.27571
812.00142,0.27331
810.07268,0.27065
808.14393,0.26766
806.21519,0.26465
804.28645,0.26195
802.35770,0.25903
800.42896,0.25422
798.50021,0.24502
796.57147,0.23161
794.64272,0.22073
792.71398,0.22004
790.78523,0.22929
788.85649,0.24230
786.92775,0.25436
784.99900,0.26407
783.07026,0.27119
781.14151,0.27604
779.21277,0.27953
777.28402,0.28234
775.35528,0.28473
773.42653,0.28688
771.49779,0.28890
769.56905,0.29052
767.64030,0.29160
765.71156,0.29216
763.78281,0.29162
761.85407,0.28941
759.92532,0.28567
757.99658,0.28076
756.06783,0.27458
754.13909,0.26656
752.21034,0.25658
750.28160,0.24455
748.35286,0.22968
746.42411,0.21099
744.49537,0.18802
742.56662,0.16076
740.63788,0.13037
738.70913,0.10110
736.78039,0.07865
734.85164,0.06524
732.92290,0.05927
730.99416,0.05896
729.06541,0.06392
727.13667,0.07563
725.20792,0.09707
723.27918,0.12886
721.35043,0.16606
719.42169,0.20038
717.49294,0.22524
715.56420,0.23909
713.63546,0.24475
711.70671,0.24650
709.77797,0.24772
707.84922,0.24973
705.92048,0.25257
703.99173,0.25657
702.06299,0.26344
700.13424,0.27397
698.20550,0.28546
696.27676,0.29462
694.34801,0.30032
692.41927,0.30291
690.49052,0.30336
688.56178,0.30197
686.63303,0.29807
684.70429,0.29187
682.77554,0.28535
680.84680,0.28099
678.91805,0.28031
676.98931,0.28266
675.06057,0.28582
673.13182,0.28854
671.20308,0.29079
669.27433,0.29288
667.34559,0.29478
665.41684,0.29588
663.48810,0.29597
661.55935,0.29498
659.63061,0.29294
657.70187,0.29084
655.77312,0.29058
653.84438,0.29320
651.91563,0.29677
649.98689,0.29901
648.05814,0.30007
646.12940,0.30063
644.20065,0.30066
642.27191,0.30011
640.34317,0.29854
638.41442,0.29453
636.48568,0.28540
634.55693,0.26995
632.62819,0.25714
630.69944,0.26015
628.77070,0.27529
626.84195,0.28768
624.91321,0.29263
622.98447,0.29413
621.05572,0.29449
619.12698,0.29358
617.19823,0.29142
615.26949,0.28976
613.34074,0.28968
611.41200,0.28990
609.48325,0.28900
607.55451,0.28699
605.62576,0.28543
603.69702,0.28524
601.76828,0.28479
599.83953,0.28304
