7497.02977,0.02104
7495.10103,0.01936
7493.17228,0.01894
7491.24354,0.02185
7489.31479,0.02324
7487.38605,0.02176
7485.45730,0.02127
7483.52856,0.02297
7481.59982,0.02376
7479.67107,0.02234
7477.74233,0.02052
7475.81358,0.01959
7473.88484,0.01791
7471.95609,0.01665
7470.02735,0.01856
7468.09860,0.02229
7466.16986,0.02526
7464.24112,0.02608
7462.31237,0.02509
7460.38363,0.02689
7458.45488,0.03204
7456.52614,0.03483
7454.59739,0.03123
7452.66865,0.02745
7450.73990,0.03044
7448.81116,0.03397
7446.88242,0.02923
7444.95367,0.02105
7443.02493,0.01468
7441.09618,0.01054
7439.16744,0.01236
7437.23869,0.01733
7435.30995,0.01872
7433.38120,0.01926
7431.45246,0.02098
7429.52371,0.01945
7427.59497,0.01436
7425.66623,0.01524
7423.73748,0.02294
7421.80874,0.02882
7419.87999,0.02934
7417.95125,0.02717
7416.02250,0.02713
7414.09376,0.02972
7412.16501,0.02689
7410.23627,0.02088
7408.30753,0.01931
7406.37878,0.02090
7404.45004,0.02234
7402.52129,0.02595
7400.59255,0.02949
7398.66380,0.02992
7396.73506,0.02935
7394.80631,0.02732
7392.87757,0.02228
7390.94883,0.01950
7389.02008,0.01962
7387.09134,0.01902
7385.16259,0.01838
7383.23385,0.01990
7381.30510,0.02208
7379.37636,0.02015
7377.44761,0.01646
7375.51887,0.01857
7373.59013,0.02556
7371.66138,0.03238
7369.73264,0.03468
7367.80389,0.03086
7365.87515,0.02565
7363.94640,0.02416
7362.01766,0.02370
7360.08891,0.02184
7358.16017,0.02024
7356.23142,0.01898
7354.30268,0.01856
7352.37394,0.02056
7350.44519,0.02179
7348.51645,0.02255
7346.58770,0.02358
7344.65896,0.02232
7342.73021,0.01822
7340.80147,0.01611
7338.87272,0.01581
7336.94398,0.01419
7335.01524,0.01367
7333.08649,0.01762
7331.15775,0.02315
7329.22900,0.02767
7327.30026,0.02905
7325.37151,0.02774
7323.44277,0.02708
7321.51402,0.02709
7319.58528,0.02727
7317.65654,0.02918
7315.72779,0.03119
7313.79905,0.03236
7311.87030,0.03165
7309.94156,0.02731
7308.01281,0.02164
7306.08407,0.02051
7304.15532,0.02352
7302.22658,0.02668
7300.29784,0.02888
7298.36909,0.03090
7296.44035,0.03023
7294.51160,0.02924
7292.58286,0.02987
7290.65411,0.02744
7288.72537,0.02172
7286.79662,0.01857
7284.86788,0.02015
7282.93913,0.02635
7281.01039,0.03164
7279.08165,0.02974
7277.15290,0.02476
7275.22416,0.02347
7273.29541,0.02416
7271.36667,0.02497
7269.43792,0.02696
7267.50918,0.02873
7265.58043,0.02521
7263.65169,0.01834
7261.72295,0.01508
7259.79420,0.01683
7257.86546,0.02086
7255.93671,0.02584
7254.00797,0.02907
7252.07922,0.02851
7250.15048,0.02514
7248.22173,0.02456
7246.29299,0.02635
7244.36425,0.02454
7242.43550,0.02153
7240.50676,0.02188
7238.57801,0.02275
7236.64927,0.02323
7234.72052,0.02482
7232.79178,0.02528
7230.86303,0.02260
7228.93429,0.01934
7227.00554,0.01836
7225.07680,0.01927
7223.14806,0.02029
7221.21931,0.02070
7219.29057,0.01977
7217.36182,0.01968
7215.43308,0.01996
7213.50433,0.02083
7211.57559,0.01949
7209.64684,0.01799
7207.71810,0.02102
7205.78936,0.02632
7203.86061,0.02797
7201.93187,0.02539
7200.00312,0.02133
7198.07438,0.01903
7196.14563,0.01955
7194.21689,0.02077
7192.28814,0.01968
7190.35940,0.01750
7188.43066,0.01657
7186.50191,0.01779
7184.57317,0.02130
7182.64442,0.02511
7180.71568,0.02534
7178.78693,0.02201
7176.85819,0.01935
7174.92944,0.02050
7173.00070,0.02344
7171.07196,0.02626
7169.14321,0.02813
7167.21447,0.02690
7165.28572,0.02349
7163.35698,0.02277
7161.42823,0.02530
7159.49949,0.02653
7157.57074,0.02385
7155.64200,0.02200
7153.71325,0.02354
7151.78451,0.02452
7149.85577,0.02321
7147.92702,0.02483
7145.99828,0.02672
7144.06953,0.02428
7142.14079,0.02212
7140.21204,0.02426
7138.28330,0.02588
7136.35455,0.02383
7134.42581,0.02089
7132.49707,0.01977
7130.56832,0.02061
7128.63958,0.02209
7126.71083,0.02320
7124.78209,0.02510
7122.85334,0.02852
7120.92460,0.03112
7118.99585,0.03107
7117.06711,0.02965
7115.13837,0.02679
7113.20962,0.02351
7111.28088,0.02315
7109.35213,0.02527
7107.42339,0.02707
7105.49464,0.02771
7103.56590,0.02595
7101.63715,0.02164
7099.70841,0.01841
7097.77967,0.01860
7095.85092,0.01991
7093.92218,0.02188
7091.99343,0.02584
7090.06469,0.02903
7088.13594,0.02770
7086.20720,0.02584
7084.27845,0.02594
7082.34971,0.02419
7080.42096,0.02141
7078.49222,0.02218
7076.56348,0.02407
7074.63473,0.02183
7072.70599,0.01782
7070.77724,0.01697
7068.84850,0.01906
7066.91975,0.02299
7064.99101,0.02604
7063.06226,0.02601
7061.13352,0.02465
7059.20478,0.02383
7057.27603,0.02151
7055.34729,0.01954
7053.41854,0.02026
7051.48980,0.02259
7049.56105,0.02360
7047.63231,0.02390
7045.70356,0.02402
7043.77482,0.02325
7041.84608,0.02139
7039.91733,0.02319
7037.98859,0.02794
7036.05984,0.02764
7034.13110,0.02366
7032.20235,0.02230
7030.27361,0.02185
7028.34486,0.02139
7026.41612,0.02277
7024.48738,0.02525
7022.55863,0.02624
7020.62989,0.02541
7018.70114,0.02497
7016.77240,0.02668
7014.84365,0.02920
7012.91491,0.02825
7010.98616,0.02246
7009.05742,0.01702
7007.12867,0.01603
7005.19993,0.01955
7003.27119,0.02369
7001.34244,0.02473
6999.41370,0.02433
6997.48495,0.02430
6995.55621,0.02312
6993.62746,0.02187
6991.69872,0.02137
6989.76997,0.02095
6987.84123,0.02115
6985.91249,0.02507
6983.98374,0.03070
6982.05500,0.03416
6980.12625,0.03417
6978.19751,0.02965
6976.26876,0.02280
6974.34002,0.01983
6972.41127,0.02199
6970.48253,0.02477
6968.55379,0.02660
6966.62504,0.02808
6964.69630,0.02828
6962.76755,0.02780
6960.83881,0.02843
6958.91006,0.02952
6956.98132,0.02849
6955.05257,0.02657
6953.12383,0.02547
6951.19509,0.02272
6949.26634,0.01859
6947.33760,0.01622
6945.40885,0.01654
6943.48011,0.01871
6941.55136,0.02118
6939.62262,0.02346
6937.69387,0.02435
6935.76513,0.02329
6933.83638,0.02117
6931.90764,0.01864
6929.97890,0.01641
6928.05015,0.01706
6926.12141,0.02035
6924.19266,0.02181
6922.26392,0.01966
6920.33517,0.01776
6918.40643,0.01935
6916.47768,0.02255
6914.54894,0.02407
6912.62020,0.02536
6910.69145,0.02767
6908.76271,0.02879
6906.83396,0.02820
6904.90522,0.02694
6902.97647,0.02492
6901.04773,0.02365
6899.11898,0.02427
6897.19024,0.02516
6895.26150,0.02412
6893.33275,0.02214
6891.40401,0.02163
6889.47526,0.02284
6887.54652,0.02559
6885.61777,0.02816
6883.68903,0.02701
6881.76028,0.02264
6879.83154,0.01966
6877.90280,0.02067
6875.97405,0.02301
6874.04531,0.02366
6872.11656,0.02301
6870.18782,0.02227
6868.25907,0.02079
6866.33033,0.01939
6864.40158,0.02023
6862.47284,0.02257
6860.54409,0.02516
6858.61535,0.02762
6856.68661,0.02649
6854.75786,0.02321
6852.82912,0.02384
6850.90037,0.02718
6848.97163,0.02699
6847.04288,0.02415
6845.11414,0.02311
6843.18539,0.02378
6841.25665,0.02299
6839.32791,0.02027
6837.39916,0.01904
6835.47042,0.02218
6833.54167,0.02604
6831.61293,0.02666
6829.68418,0.02442
6827.75544,0.02117
6825.82669,0.01865
6823.89795,0.01848
6821.96921,0.01964
6820.04046,0.02119
6818.11172,0.02327
6816.18297,0.02498
6814.25423,0.02593
6812.32548,0.02696
6810.39674,0.02708
6808.46799,0.02585
6806.53925,0.02353
6804.61051,0.02124
6802.68176,0.02030
6800.75302,0.02172
6798.82427,0.02524
6796.89553,0.02694
6794.96678,0.02416
6793.03804,0.02177
6791.10929,0.02266
6789.18055,0.02398
6787.25180,0.02519
6785.32306,0.02556
6783.39432,0.02377
6781.46557,0.02269
6779.53683,0.02381
6777.60808,0.02511
6775.67934,0.02480
6773.75059,0.02352
6771.82185,0.02375
6769.89310,0.02649
6767.96436,0.02778
6766.03562,0.02488
6764.10687,0.02129
6762.17813,0.02115
6760.24938,0.02252
6758.32064,0.02302
6756.39189,0.02320
6754.46315,0.02182
6752.53440,0.01901
6750.60566,0.01861
6748.67692,0.02063
6746.74817,0.02128
6744.81943,0.02084
6742.89068,0.02239
6740.96194,0.02445
6739.03319,0.02477
6737.10445,0.02403
6735.17570,0.02388
6733.24696,0.02461
6731.31822,0.02516
6729.38947,0.02468
6727.46073,0.02400
6725.53198,0.02304
6723.60324,0.02226
6721.67449,0.02295
6719.74575,0.02562
6717.81700,0.02968
6715.88826,0.03262
6713.95951,0.03131
6712.03077,0.02758
6710.10203,0.02531
6708.17328,0.02393
6706.24454,0.02215
6704.31579,0.02145
6702.38705,0.02164
6700.45830,0.02260
6698.52956,0.02507
6696.60081,0.02719
6694.67207,0.02714
6692.74333,0.02506
6690.81458,0.02143
6688.88584,0.01885
6686.95709,0.01893
6685.02835,0.01901
6683.09960,0.01848
6681.17086,0.01956
6679.24211,0.01919
6677.31337,0.01664
6675.38463,0.01683
6673.45588,0.02020
6671.52714,0.02345
6669.59839,0.02579
6667.66965,0.02662
6665.74090,0.02492
6663.81216,0.02335
6661.88341,0.02452
6659.95467,0.02578
6658.02593,0.02539
6656.09718,0.02487
6654.16844,0.02421
6652.23969,0.02317
6650.31095,0.02325
6648.38220,0.02444
6646.45346,0.02422
6644.52471,0.02243
6642.59597,0.02151
6640.66722,0.02181
6638.73848,0.02225
6636.80974,0.02130
6634.88099,0.01929
6632.95225,0.01849
6631.02350,0.01976
6629.09476,0.02201
6627.16601,0.02237
6625.23727,0.02001
6623.30852,0.01897
6621.37978,0.01990
6619.45104,0.02114
6617.52229,0.02192
6615.59355,0.02272
6613.66480,0.02351
6611.73606,0.02268
6609.80731,0.01928
6607.87857,0.01655
6605.94982,0.01721
6604.02108,0.01944
6602.09234,0.02152
6600.16359,0.02376
6598.23485,0.02496
6596.30610,0.02445
6594.37736,0.02374
6592.44861,0.02320
6590.51987,0.02230
6588.59112,0.02155
6586.66238,0.02093
6584.73364,0.01995
6582.80489,0.01933
6580.87615,0.02046
6578.94740,0.02185
6577.01866,0.02147
6575.08991,0.02206
6573.16117,0.02543
6571.23242,0.02705
6569.30368,0.02536
6567.37493,0.02366
6565.44619,0.02280
6563.51745,0.02192
6561.58870,0.02144
6559.65996,0.02147
6557.73121,0.02285
6555.80247,0.02543
6553.87372,0.02599
6551.94498,0.02336
6550.01623,0.02035
6548.08749,0.01980
6546.15875,0.02252
6544.23000,0.02638
6542.30126,0.02782
6540.37251,0.02562
6538.44377,0.02317
6536.51502,0.02376
6534.58628,0.02537
6532.65753,0.02448
6530.72879,0.02269
6528.80005,0.02324
6526.87130,0.02494
6524.94256,0.02595
6523.01381,0.02662
6521.08507,0.02600
6519.15632,0.02291
6517.22758,0.02043
6515.29883,0.02187
6513.37009,0.02424
6511.44135,0.02328
6509.51260,0.01962
6507.58386,0.01750
6505.65511,0.01879
6503.72637,0.02053
6501.79762,0.02112
6499.86888,0.02236
6497.94013,0.02318
6496.01139,0.02288
6494.08264,0.02168
6492.15390,0.01951
6490.22516,0.01811
6488.29641,0.01911
6486.36767,0.02198
6484.43892,0.02431
6482.51018,0.02466
6480.58143,0.02487
6478.65269,0.02545
6476.72394,0.02403
6474.79520,0.02004
6472.86646,0.01663
6470.93771,0.01678
6469.00897,0.01961
6467.08022,0.02262
6465.15148,0.02476
6463.22273,0.02477
6461.29399,0.02370
6459.36524,0.02410
6457.43650,0.02526
6455.50776,0.02550
6453.57901,0.02534
6451.65027,0.02519
6449.72152,0.02538
6447.79278,0.02621
6445.86403,0.02615
6443.93529,0.02372
6442.00654,0.02075
6440.07780,0.01991
6438.14906,0.02107
6436.22031,0.02266
6434.29157,0.02464
6432.36282,0.02515
6430.43408,0.02397
6428.50533,0.02457
6426.57659,0.02560
6424.64784,0.02412
6422.71910,0.02384
6420.79035,0.02586
6418.86161,0.02644
6416.93287,0.02498
6415.00412,0.02285
6413.07538,0.02144
6411.14663,0.02220
6409.21789,0.02375
6407.28914,0.02471
6405.36040,0.02564
6403.43165,0.02508
6401.50291,0.02165
6399.57417,0.01779
6397.64542,0.01674
6395.71668,0.01892
6393.78793,0.02130
6391.85919,0.02238
6389.93044,0.02295
6388.00170,0.02281
6386.07295,0.02137
6384.14421,0.01949
6382.21547,0.01883
6380.28672,0.01997
6378.35798,0.02158
6376.42923,0.02225
6374.50049,0.02168
6372.57174,0.02088
6370.64300,0.02035
6368.71425,0.01976
6366.78551,0.01963
6364.85677,0.02044
6362.92802,0.02189
6360.99928,0.02401
6359.07053,0.02576
6357.14179,0.02582
6355.21304,0.02456
6353.28430,0.02349
6351.35555,0.02264
6349.42681,0.02116
6347.49806,0.02007
6345.56932,0.02002
6343.64058,0.01956
6341.71183,0.01981
6339.78309,0.02194
6337.85434,0.02351
6335.92560,0.02338
6333.99685,0.02333
6332.06811,0.02408
6330.13936,0.02511
6328.21062,0.02529
6326.28188,0.02391
6324.35313,0.02230
6322.42439,0.02167
6320.49564,0.02198
6318.56690,0.02319
6316.63815,0.02354
6314.70941,0.02167
6312.78066,0.01926
6310.85192,0.01963
6308.92318,0.02297
6306.99443,0.02567
6305.06569,0.02585
6303.13694,0.02470
6301.20820,0.02286
6299.27945,0.02221
6297.35071,0.02311
6295.42196,0.02355
6293.49322,0.02347
6291.56447,0.02312
6289.63573,0.02219
6287.70699,0.02139
6285.77824,0.02206
6283.84950,0.02444
6281.92075,0.02561
6279.99201,0.02479
6278.06326,0.02431
6276.13452,0.02395
6274.20577,0.02362
6272.27703,0.02382
6270.34829,0.02253
6268.41954,0.02057
6266.49080,0.02122
6264.56205,0.02327
6262.63331,0.02357
6260.70456,0.02267
6258.77582,0.02223
6256.84707,0.02291
6254.91833,0.02372
6252.98959,0.02262
6251.06084,0.02068
6249.13210,0.02121
6247.20335,0.02337
6245.27461,0.02393
6243.34586,0.02270
6241.41712,0.02181
6239.48837,0.02203
6237.55963,0.02262
6235.63089,0.02251
6233.70214,0.02173
6231.77340,0.02128
6229.84465,0.02157
6227.91591,0.02219
6225.98716,0.02225
6224.05842,0.02114
6222.12967,0.02068
6220.20093,0.02181
6218.27218,0.02211
6216.34344,0.02075
6214.41470,0.01966
6212.48595,0.01916
6210.55721,0.01960
6208.62846,0.02206
6206.69972,0.02429
6204.77097,0.02392
6202.84223,0.02300
6200.91348,0.02342
6198.98474,0.02461
6197.05600,0.02572
6195.12725,0.02577
6193.19851,0.02432
6191.26976,0.02283
6189.34102,0.02180
6187.41227,0.02112
6185.48353,0.02125
6183.55478,0.02195
6181.62604,0.02295
6179.69730,0.02382
6177.76855,0.02383
6175.83981,0.02309
6173.91106,0.02176
6171.98232,0.02099
6170.05357,0.02108
6168.12483,0.02094
6166.19608,0.02090
6164.26734,0.02165
6162.33860,0.02221
6160.40985,0.02216
6158.48111,0.02118
6156.55236,0.01980
6154.62362,0.02020
6152.69487,0.02198
6150.76613,0.02240
6148.83738,0.02149
6146.90864,0.02113
6144.97989,0.02150
6143.05115,0.02193
6141.12241,0.02262
6139.19366,0.02329
6137.26492,0.02324
6135.33617,0.02322
6133.40743,0.02350
6131.47868,0.02367
6129.54994,0.02397
6127.62119,0.02355
6125.69245,0.02262
6123.76371,0.02272
6121.83496,0.02360
6119.90622,0.02455
6117.97747,0.02521
6116.04873,0.02429
6114.11998,0.02194
6112.19124,0.02028
6110.26249,0.02089
6108.33375,0.02230
6106.40501,0.02254
6104.47626,0.02305
6102.54752,0.02497
6100.61877,0.02623
6098.69003,0.02647
6096.76128,0.02600
6094.83254,0.02424
6092.90379,0.02273
6090.97505,0.02264
6089.04631,0.02311
6087.11756,0.02432
6085.18882,0.02562
6083.26007,0.02510
6081.33133,0.02276
6079.40258,0.02104
6077.47384,0.02097
6075.54509,0.02150
6073.61635,0.02161
6071.68760,0.02105
6069.75886,0.02058
6067.83012,0.02076
6065.90137,0.02074
6063.97263,0.02039
6062.04388,0.02106
6060.11514,0.02271
6058.18639,0.02343
6056.25765,0.02263
6054.32890,0.02177
6052.40016,0.02099
6050.47142,0.01921
6048.54267,0.01778
6046.61393,0.01835
6044.68518,0.02011
6042.75644,0.02166
6040.82769,0.02188
6038.89895,0.02115
6036.97020,0.02094
6035.04146,0.02139
6033.11272,0.02205
6031.18397,0.02238
6029.25523,0.02178
6027.32648,0.02089
6025.39774,0.02039
6023.46899,0.01981
6021.54025,0.01945
6019.61150,0.02026
6017.68276,0.02145
6015.75402,0.02141
6013.82527,0.02113
6011.89653,0.02168
6009.96778,0.02113
6008.03904,0.01934
6006.11029,0.01884
6004.18155,0.01973
6002.25280,0.02078
6000.32406,0.02121
5998.39531,0.02104
5996.46657,0.02103
5994.53783,0.02127
5992.60908,0.02085
5990.68034,0.01949
5988.75159,0.01882
5986.82285,0.02012
5984.89410,0.02204
5982.96536,0.02256
5981.03661,0.02150
5979.10787,0.02073
5977.17913,0.02116
5975.25038,0.02198
5973.32164,0.02254
5971.39289,0.02291
5969.46415,0.02259
5967.53540,0.02134
5965.60666,0.02048
5963.67791,0.02101
5961.74917,0.02215
5959.82043,0.02256
5957.89168,0.02187
5955.96294,0.02218
5954.03419,0.02426
5952.10545,0.02490
5950.17670,0.02292
5948.24796,0.02130
5946.31921,0.02100
5944.39047,0.02075
5942.46173,0.01996
5940.53298,0.01883
5938.60424,0.01782
5936.67549,0.01791
5934.74675,0.01979
5932.81800,0.02300
5930.88926,0.02498
5928.96051,0.02475
5927.03177,0.02401
5925.10302,0.02372
5923.17428,0.02350
5921.24554,0.02317
5919.31679,0.02310
5917.38805,0.02296
5915.45930,0.02240
5913.53056,0.02220
5911.60181,0.02254
5909.67307,0.02287
5907.74432,0.02285
5905.81558,0.02290
5903.88684,0.02321
5901.95809,0.02273
5900.02935,0.02131
5898.10060,0.02064
5896.17186,0.02124
5894.24311,0.02167
5892.31437,0.02124
5890.38562,0.02057
5888.45688,0.02037
5886.52814,0.02128
5884.59939,0.02225
5882.67065,0.02180
5880.74190,0.02089
5878.81316,0.02114
5876.88441,0.02160
5874.95567,0.02101
5873.02692,0.02068
5871.09818,0.02170
5869.16944,0.02196
5867.24069,0.02036
5865.31195,0.01914
5863.38320,0.01955
5861.45446,0.02061
5859.52571,0.02183
5857.59697,0.02265
5855.66822,0.02232
5853.73948,0.02142
5851.81073,0.02126
5849.88199,0.02179
5847.95325,0.02181
5846.02450,0.02146
5844.09576,0.02168
5842.16701,0.02164
5840.23827,0.02043
5838.30952,0.01916
5836.38078,0.01912
5834.45203,0.01964
5832.52329,0.02025
5830.59455,0.02150
5828.66580,0.02231
5826.73706,0.02134
5824.80831,0.02043
5822.87957,0.02089
5820.95082,0.02140
5819.02208,0.02113
5817.09333,0.02063
5815.16459,0.02044
5813.23585,0.02054
5811.30710,0.02028
5809.37836,0.01956
5807.44961,0.01967
5805.52087,0.02122
5803.59212,0.02253
5801.66338,0.02255
5799.73463,0.02213
5797.80589,0.02205
5795.87715,0.02207
5793.94840,0.02165
5792.01966,0.02111
5790.09091,0.02085
5788.16217,0.02118
5786.23342,0.02228
5784.30468,0.02284
5782.37593,0.02227
5780.44719,0.02177
5778.51844,0.02231
5776.58970,0.02307
5774.66096,0.02299
5772.73221,0.02228
5770.80347,0.02144
5768.87472,0.02105
5766.94598,0.02162
5765.01723,0.02258
5763.08849,0.02301
5761.15974,0.02188
5759.23100,0.02046
5757.30226,0.02153
5755.37351,0.02357
5753.44477,0.02350
5751.51602,0.02204
5749.58728,0.02054
5747.65853,0.01971
5745.72979,0.02055
5743.80104,0.02199
5741.87230,0.02172
5739.94356,0.02052
5738.01481,0.02091
5736.08607,0.02273
5734.15732,0.02403
5732.22858,0.02421
5730.29983,0.02353
5728.37109,0.02215
5726.44234,0.02100
5724.51360,0.02097
5722.58486,0.02134
5720.65611,0.02133
5718.72737,0.02139
5716.79862,0.02207
5714.86988,0.02240
5712.94113,0.02142
5711.01239,0.02038
5709.08364,0.02079
5707.15490,0.02196
5705.22615,0.02251
5703.29741,0.02206
5701.36867,0.02164
5699.43992,0.02221
5697.51118,0.02311
5695.58243,0.02282
5693.65369,0.02124
5691.72494,0.01980
5689.79620,0.01995
5687.86745,0.02155
5685.93871,0.02288
5684.00997,0.02268
5682.08122,0.02204
5680.15248,0.02254
5678.22373,0.02342
5676.29499,0.02352
5674.36624,0.02318
5672.43750,0.02250
5670.50875,0.02197
5668.58001,0.02240
5666.65127,0.02351
5664.72252,0.02419
5662.79378,0.02402
5660.86503,0.02331
5658.93629,0.02269
5657.00754,0.02275
5655.07880,0.02303
5653.15005,0.02258
5651.22131,0.02176
5649.29257,0.02125
5647.36382,0.02081
5645.43508,0.02061
5643.50633,0.02130
5641.57759,0.02257
5639.64884,0.02344
5637.72010,0.02313
5635.79135,0.02232
5633.86261,0.02173
5631.93386,0.02132
5630.00512,0.02175
5628.07638,0.02245
5626.14763,0.02176
5624.21889,0.02087
5622.29014,0.02145
5620.36140,0.02220
5618.43265,0.02165
5616.50391,0.02011
5614.57516,0.01849
5612.64642,0.01855
5610.71768,0.02041
5608.78893,0.02149
5606.86019,0.02091
5604.93144,0.01983
5603.00270,0.01899
5601.07395,0.01927
5599.14521,0.02057
5597.21646,0.02159
5595.28772,0.02221
5593.35898,0.02300
5591.43023,0.02358
5589.50149,0.02383
5587.57274,0.02392
5585.64400,0.02337
5583.71525,0.02243
5581.78651,0.02237
5579.85776,0.02311
5577.92902,0.02335
5576.00028,0.02254
5574.07153,0.02128
5572.14279,0.02025
5570.21404,0.01959
5568.28530,0.01933
5566.35655,0.02017
5564.42781,0.02180
5562.49906,0.02252
5560.57032,0.02167
5558.64157,0.02041
5556.71283,0.02050
5554.78409,0.02169
5552.85534,0.02171
5550.92660,0.02097
5548.99785,0.02128
5547.06911,0.02163
5545.14036,0.02120
5543.21162,0.02140
5541.28287,0.02235
5539.35413,0.02282
5537.42539,0.02272
5535.49664,0.02275
5533.56790,0.02239
5531.63915,0.02118
5529.71041,0.02035
5527.78166,0.02083
5525.85292,0.02200
5523.92417,0.02250
5521.99543,0.02152
5520.06669,0.01997
5518.13794,0.01930
5516.20920,0.01969
5514.28045,0.02042
5512.35171,0.02111
5510.42296,0.02162
5508.49422,0.02183
5506.56547,0.02180
5504.63673,0.02130
5502.70799,0.02033
5500.77924,0.01996
5498.85050,0.02095
5496.92175,0.02208
5494.99301,0.02210
5493.06426,0.02162
5491.13552,0.02178
5489.20677,0.02265
5487.27803,0.02300
5485.34928,0.02237
5483.42054,0.02203
5481.49180,0.02249
5479.56305,0.02270
5477.63431,0.02228
5475.70556,0.02200
5473.77682,0.02203
5471.84807,0.02154
5469.91933,0.02052
5467.99058,0.02011
5466.06184,0.02088
5464.13310,0.02212
5462.20435,0.02265
5460.27561,0.02229
5458.34686,0.02227
5456.41812,0.02304
5454.48937,0.02344
5452.56063,0.02314
5450.63188,0.02306
5448.70314,0.02315
5446.77440,0.02268
5444.84565,0.02188
5442.91691,0.02161
5440.98816,0.02154
5439.05942,0.02119
5437.13067,0.02100
5435.20193,0.02138
5433.27318,0.02227
5431.34444,0.02267
5429.41569,0.02166
5427.48695,0.02044
5425.55821,0.02024
5423.62946,0.02083
5421.70072,0.02162
5419.77197,0.02208
5417.84323,0.02219
5415.91448,0.02246
5413.98574,0.02241
5412.05699,0.02169
5410.12825,0.02110
5408.19951,0.02082
5406.27076,0.02073
5404.34202,0.02119
5402.41327,0.02152
5400.48453,0.02128
5398.55578,0.02168
5396.62704,0.02284
5394.69829,0.02327
5392.76955,0.02314
5390.84081,0.02319
5388.91206,0.02261
5386.98332,0.02159
5385.05457,0.02174
5383.12583,0.02277
5381.19708,0.02305
5379.26834,0.02246
5377.33959,0.02182
5375.41085,0.02136
5373.48211,0.02130
5371.55336,0.02180
5369.62462,0.02243
5367.69587,0.02286
5365.76713,0.02303
5363.83838,0.02305
5361.90964,0.02339
5359.98089,0.02414
5358.05215,0.02472
5356.12340,0.02445
5354.19466,0.02329
5352.26592,0.02234
5350.33717,0.02221
5348.40843,0.02222
5346.47968,0.02234
5344.55094,0.02283
5342.62219,0.02294
5340.69345,0.02256
5338.76470,0.02231
5336.83596,0.02212
5334.90722,0.02173
5332.97847,0.02139
5331.04973,0.02154
5329.12098,0.02189
5327.19224,0.02187
5325.26349,0.02144
5323.33475,0.02092
5321.40600,0.02078
5319.47726,0.02139
5317.54852,0.02209
5315.61977,0.02204
5313.69103,0.02166
5311.76228,0.02142
5309.83354,0.02117
5307.90479,0.02097
5305.97605,0.02099
5304.04730,0.02145
5302.11856,0.02208
5300.18982,0.02240
5298.26107,0.02251
5296.33233,0.02264
5294.40358,0.02261
5292.47484,0.02231
5290.54609,0.02150
5288.61735,0.02044
5286.68860,0.01997
5284.75986,0.02026
5282.83111,0.02052
5280.90237,0.02054
5278.97363,0.02104
5277.04488,0.02175
5275.11614,0.02137
5273.18739,0.02023
5271.25865,0.01937
5269.32990,0.01904
5267.40116,0.01995
5265.47241,0.02191
5263.54367,0.02310
5261.61493,0.02301
5259.68618,0.02252
5257.75744,0.02244
5255.82869,0.02250
5253.89995,0.02187
5251.97120,0.02089
5250.04246,0.02086
5248.11371,0.02144
5246.18497,0.02143
5244.25623,0.02119
5242.32748,0.02119
5240.39874,0.02073
5238.46999,0.02004
5236.54125,0.02006
5234.61250,0.02045
5232.68376,0.02030
5230.75501,0.01987
5228.82627,0.01992
5226.89753,0.02060
5224.96878,0.02131
5223.04004,0.02173
5221.11129,0.02205
5219.18255,0.02238
5217.25380,0.02279
5215.32506,0.02307
5213.39631,0.02282
5211.46757,0.02239
5209.53882,0.02209
5207.61008,0.02177
5205.68134,0.02128
5203.75259,0.02100
5201.82385,0.02131
5199.89510,0.02175
5197.96636,0.02191
5196.03761,0.02219
5194.10887,0.02276
5192.18012,0.02329
5190.25138,0.02364
5188.32264,0.02385
5186.39389,0.02359
5184.46515,0.02295
5182.53640,0.02229
5180.60766,0.02153
5178.67891,0.02096
5176.75017,0.02128
5174.82142,0.02188
5172.89268,0.02156
5170.96394,0.02104
5169.03519,0.02168
5167.10645,0.02278
5165.17770,0.02303
5163.24896,0.02225
5161.32021,0.02117
5159.39147,0.02064
5157.46272,0.02080
5155.53398,0.02152
5153.60524,0.02219
5151.67649,0.02193
5149.74775,0.02130
5147.81900,0.02101
5145.89026,0.02085
5143.96151,0.02105
5142.03277,0.02166
5140.10402,0.02162
5138.17528,0.02075
5136.24653,0.02063
5134.31779,0.02174
5132.38905,0.02274
5130.46030,0.02292
5128.53156,0.02294
5126.60281,0.02314
5124.67407,0.02277
5122.74532,0.02194
5120.81658,0.02192
5118.88783,0.02286
5116.95909,0.02348
5115.03035,0.02338
5113.10160,0.02325
5111.17286,0.02308
5109.24411,0.02248
5107.31537,0.02236
5105.38662,0.02278
5103.45788,0.02243
5101.52913,0.02157
5099.60039,0.02148
5097.67165,0.02224
5095.74290,0.02276
5093.81416,0.02222
5091.88541,0.02132
5089.95667,0.02112
5088.02792,0.02136
5086.09918,0.02164
5084.17043,0.02249
5082.24169,0.02363
5080.31295,0.02389
5078.38420,0.02316
5076.45546,0.02249
5074.52671,0.02248
5072.59797,0.02258
5070.66922,0.02246
5068.74048,0.02254
5066.81173,0.02264
5064.88299,0.02238
5062.95424,0.02212
5061.02550,0.02195
5059.09676,0.02152
5057.16801,0.02100
5055.23927,0.02079
5053.31052,0.02084
5051.38178,0.02086
5049.45303,0.02083
5047.52429,0.02095
5045.59554,0.02118
5043.66680,0.02131
5041.73806,0.02158
5039.80931,0.02217
5037.88057,0.02251
5035.95182,0.02232
5034.02308,0.02229
5032.09433,0.02242
5030.16559,0.02195
5028.23684,0.02145
5026.30810,0.02207
5024.37936,0.02291
5022.45061,0.02279
5020.52187,0.02228
5018.59312,0.02207
5016.66438,0.02228
5014.73563,0.02280
5012.80689,0.02323
5010.87814,0.02329
5008.94940,0.02288
5007.02066,0.02223
5005.09191,0.02180
5003.16317,0.02171
5001.23442,0.02173
4999.30568,0.02171
4997.37693,0.02166
4995.44819,0.02188
4993.51944,0.02222
4991.59070,0.02214
4989.66195,0.02199
4987.73321,0.02213
4985.80447,0.02206
4983.87572,0.02195
4981.94698,0.02224
4980.01823,0.02254
4978.08949,0.02262
4976.16074,0.02275
4974.23200,0.02262
4972.30325,0.02211
4970.37451,0.02186
4968.44577,0.02206
4966.51702,0.02230
4964.58828,0.02247
4962.65953,0.02261
4960.73079,0.02255
4958.80204,0.02225
4956.87330,0.02211
4954.94455,0.02239
4953.01581,0.02282
4951.08707,0.02304
4949.15832,0.02283
4947.22958,0.02248
4945.30083,0.02241
4943.37209,0.02244
4941.44334,0.02232
4939.51460,0.02218
4937.58585,0.02216
4935.65711,0.02232
4933.72837,0.02282
4931.79962,0.02341
4929.87088,0.02351
4927.94213,0.02307
4926.01339,0.02253
4924.08464,0.02238
4922.15590,0.02274
4920.22715,0.02304
4918.29841,0.02276
4916.36966,0.02210
4914.44092,0.02152
4912.51218,0.02135
4910.58343,0.02178
4908.65469,0.02233
4906.72594,0.02229
4904.79720,0.02185
4902.86845,0.02170
4900.93971,0.02202
4899.01096,0.02236
4897.08222,0.02255
4895.15348,0.02272
4893.22473,0.02252
4891.29599,0.02202
4889.36724,0.02180
4887.43850,0.02183
4885.50975,0.02169
4883.58101,0.02143
4881.65226,0.02156
4879.72352,0.02195
4877.79478,0.02236
4875.86603,0.02272
4873.93729,0.02250
4872.00854,0.02177
4870.07980,0.02160
4868.15105,0.02212
4866.22231,0.02235
4864.29356,0.02211
4862.36482,0.02201
4860.43608,0.02215
4858.50733,0.02222
4856.57859,0.02216
4854.64984,0.02251
4852.72110,0.02305
4850.79235,0.02295
4848.86361,0.02233
4846.93486,0.02168
4845.00612,0.02133
4843.07737,0.02146
4841.14863,0.02188
4839.21989,0.02205
4837.29114,0.02173
4835.36240,0.02120
4833.43365,0.02095
4831.50491,0.02121
4829.57616,0.02173
4827.64742,0.02203
4825.71867,0.02225
4823.78993,0.02247
4821.86119,0.02262
4819.93244,0.02297
4818.00370,0.02339
4816.07495,0.02333
4814.14621,0.02297
4812.21746,0.02285
4810.28872,0.02315
4808.35997,0.02347
4806.43123,0.02341
4804.50249,0.02318
4802.57374,0.02302
4800.64500,0.02281
4798.71625,0.02253
4796.78751,0.02239
4794.85876,0.02229
4792.93002,0.02217
4791.00127,0.02244
4789.07253,0.02279
4787.14379,0.02291
4785.21504,0.02307
4783.28630,0.02303
4781.35755,0.02261
4779.42881,0.02231
4777.50006,0.02232
4775.57132,0.02228
4773.64257,0.02167
4771.71383,0.02097
4769.78508,0.02118
4767.85634,0.02203
4765.92760,0.02266
4763.99885,0.02285
4762.07011,0.02262
4760.14136,0.02212
4758.21262,0.02172
4756.28387,0.02171
4754.35513,0.02198
4752.42638,0.02216
4750.49764,0.02218
4748.56890,0.02215
4746.64015,0.02190
4744.71141,0.02158
4742.78266,0.02160
4740.85392,0.02183
4738.92517,0.02194
4736.99643,0.02194
4735.06768,0.02195
4733.13894,0.02210
4731.21020,0.02255
4729.28145,0.02283
4727.35271,0.02250
4725.42396,0.02206
4723.49522,0.02202
4721.56647,0.02206
4719.63773,0.02194
4717.70898,0.02198
4715.78024,0.02204
4713.85150,0.02202
4711.92275,0.02227
4709.99401,0.02258
4708.06526,0.02261
4706.13652,0.02250
4704.20777,0.02230
4702.27903,0.02223
4700.35028,0.02224
4698.42154,0.02198
4696.49279,0.02166
4694.56405,0.02162
4692.63531,0.02168
4690.70656,0.02162
4688.77782,0.02170
4686.84907,0.02208
4684.92033,0.02238
4682.99158,0.02252
4681.06284,0.02259
4679.13409,0.02246
4677.20535,0.02223
4675.27661,0.02222
4673.34786,0.02232
4671.41912,0.02234
4669.49037,0.02241
4667.56163,0.02257
4665.63288,0.02267
4663.70414,0.02286
4661.77539,0.02303
4659.84665,0.02289
4657.91791,0.02267
4655.98916,0.02242
4654.06042,0.02203
4652.13167,0.02208
4650.20293,0.02277
4648.27418,0.02337
4646.34544,0.02364
4644.41669,0.02375
4642.48795,0.02340
4640.55921,0.02263
4638.63046,0.02199
4636.70172,0.02191
4634.77297,0.02243
4632.84423,0.02303
4630.91548,0.02316
4628.98674,0.02289
4627.05799,0.02273
4625.12925,0.02296
4623.20050,0.02315
4621.27176,0.02289
4619.34302,0.02245
4617.41427,0.02246
4615.48553,0.02288
4613.55678,0.02330
4611.62804,0.02341
4609.69929,0.02300
4607.77055,0.02236
4605.84180,0.02186
4603.91306,0.02148
4601.98432,0.02155
4600.05557,0.02225
4598.12683,0.02278
4596.19808,0.02252
4594.26934,0.02235
4592.34059,0.02281
4590.41185,0.02306
4588.48310,0.02283
4586.55436,0.02254
4584.62562,0.02237
4582.69687,0.02252
4580.76813,0.02278
4578.83938,0.02263
4576.91064,0.02214
4574.98189,0.02198
4573.05315,0.02225
4571.12440,0.02249
4569.19566,0.02265
4567.26692,0.02293
4565.33817,0.02309
4563.40943,0.02300
4561.48068,0.02281
4559.55194,0.02279
4557.62319,0.02297
4555.69445,0.02309
4553.76570,0.02314
4551.83696,0.02308
4549.90821,0.02281
4547.97947,0.02263
4546.05073,0.02268
4544.12198,0.02277
4542.19324,0.02272
4540.26449,0.02234
4538.33575,0.02187
4536.40700,0.02165
4534.47826,0.02162
4532.54951,0.02171
4530.62077,0.02193
4528.69203,0.02234
4526.76328,0.02286
4524.83454,0.02303
4522.90579,0.02283
4520.97705,0.02278
4519.04830,0.02283
4517.11956,0.02275
4515.19081,0.02272
4513.26207,0.02258
4511.33333,0.02239
4509.40458,0.02275
4507.47584,0.02319
4505.54709,0.02288
4503.61835,0.02233
4501.68960,0.02229
4499.76086,0.02267
4497.83211,0.02298
4495.90337,0.02309
4493.97462,0.02326
4492.04588,0.02351
4490.11714,0.02366
4488.18839,0.02353
4486.25965,0.02331
4484.33090,0.02322
4482.40216,0.02306
4480.47341,0.02278
4478.54467,0.02253
4476.61592,0.02238
4474.68718,0.02217
4472.75844,0.02176
4470.82969,0.02144
4468.90095,0.02144
4466.97220,0.02163
4465.04346,0.02194
4463.11471,0.02228
4461.18597,0.02225
4459.25722,0.02176
4457.32848,0.02141
4455.39974,0.02170
4453.47099,0.02248
4451.54225,0.02321
4449.61350,0.02340
4447.68476,0.02295
4445.75601,0.02224
4443.82727,0.02173
4441.89852,0.02151
4439.96978,0.02170
4438.04104,0.02222
4436.11229,0.02257
4434.18355,0.02260
4432.25480,0.02254
4430.32606,0.02258
4428.39731,0.02274
4426.46857,0.02277
4424.53982,0.02253
4422.61108,0.02232
4420.68233,0.02249
4418.75359,0.02277
4416.82485,0.02279
4414.89610,0.02277
4412.96736,0.02283
4411.03861,0.02274
4409.10987,0.02247
4407.18112,0.02225
4405.25238,0.02231
4403.32363,0.02265
4401.39489,0.02297
4399.46615,0.02310
4397.53740,0.02311
4395.60866,0.02294
4393.67991,0.02261
4391.75117,0.02220
4389.82242,0.02182
4387.89368,0.02179
4385.96493,0.02205
4384.03619,0.02231
4382.10745,0.02264
4380.17870,0.02302
4378.24996,0.02317
4376.32121,0.02307
4374.39247,0.02294
4372.46372,0.02285
4370.53498,0.02275
4368.60623,0.02253
4366.67749,0.02221
4364.74875,0.02205
4362.82000,0.02214
4360.89126,0.02221
4358.96251,0.02233
4357.03377,0.02269
4355.10502,0.02301
4353.17628,0.02291
4351.24753,0.02263
4349.31879,0.02260
4347.39004,0.02277
4345.46130,0.02306
4343.53256,0.02333
4341.60381,0.02332
4339.67507,0.02320
4337.74632,0.02330
4335.81758,0.02344
4333.88883,0.02341
4331.96009,0.02346
4330.03134,0.02342
4328.10260,0.02296
4326.17386,0.02257
4324.24511,0.02258
4322.31637,0.02259
4320.38762,0.02249
4318.45888,0.02236
4316.53013,0.02234
4314.60139,0.02245
4312.67264,0.02236
4310.74390,0.02223
4308.81516,0.02235
4306.88641,0.02245
4304.95767,0.02255
4303.02892,0.02263
4301.10018,0.02256
4299.17143,0.02252
4297.24269,0.02263
4295.31394,0.02300
4293.38520,0.02349
4291.45646,0.02360
4289.52771,0.02334
4287.59897,0.02310
4285.67022,0.02309
4283.74148,0.02320
4281.81273,0.02312
4279.88399,0.02280
4277.95524,0.02245
4276.02650,0.02208
4274.09775,0.02163
4272.16901,0.02130
4270.24027,0.02145
4268.31152,0.02204
4266.38278,0.02267
4264.45403,0.02301
4262.52529,0.02317
4260.59654,0.02343
4258.66780,0.02350
4256.73905,0.02319
4254.81031,0.02278
4252.88157,0.02241
4250.95282,0.02217
4249.02408,0.02210
4247.09533,0.02204
4245.16659,0.02206
4243.23784,0.02233
4241.30910,0.02260
4239.38035,0.02257
4237.45161,0.02235
4235.52287,0.02228
4233.59412,0.02241
4231.66538,0.02254
4229.73663,0.02259
4227.80789,0.02265
4225.87914,0.02273
4223.95040,0.02267
4222.02165,0.02256
4220.09291,0.02270
4218.16417,0.02303
4216.23542,0.02317
4214.30668,0.02293
4212.37793,0.02269
4210.44919,0.02293
4208.52044,0.02333
4206.59170,0.02351
4204.66295,0.02348
4202.73421,0.02330
4200.80546,0.02317
4198.87672,0.02309
4196.94798,0.02299
4195.01923,0.02299
4193.09049,0.02304
4191.16174,0.02303
4189.23300,0.02298
4187.30425,0.02281
4185.37551,0.02268
4183.44676,0.02279
4181.51802,0.02287
4179.58928,0.02279
4177.66053,0.02274
4175.73179,0.02254
4173.80304,0.02219
4171.87430,0.02212
4169.94555,0.02240
4168.01681,0.02287
4166.08806,0.02339
4164.15932,0.02361
4162.23058,0.02344
4160.30183,0.02313
4158.37309,0.02299
4156.44434,0.02294
4154.51560,0.02284
4152.58685,0.02281
4150.65811,0.02285
4148.72936,0.02285
4146.80062,0.02280
4144.87188,0.02285
4142.94313,0.02290
4141.01439,0.02276
4139.08564,0.02261
4137.15690,0.02269
4135.22815,0.02275
4133.29941,0.02272
4131.37066,0.02296
4129.44192,0.02326
4127.51317,0.02310
4125.58443,0.02267
4123.65569,0.02243
4121.72694,0.02247
4119.79820,0.02279
4117.86945,0.02320
4115.94071,0.02336
4114.01196,0.02336
4112.08322,0.02342
4110.15447,0.02336
4108.22573,0.02329
4106.29699,0.02344
4104.36824,0.02359
4102.43950,0.02349
4100.51075,0.02316
4098.58201,0.02280
4096.65326,0.02251
4094.72452,0.02251
4092.79577,0.02282
4090.86703,0.02293
4088.93829,0.02268
4087.00954,0.02253
4085.08080,0.02276
4083.15205,0.02320
4081.22331,0.02337
4079.29456,0.02304
4077.36582,0.02257
4075.43707,0.02240
4073.50833,0.02235
4071.57959,0.02232
4069.65084,0.02246
4067.72210,0.02267
4065.79335,0.02284
4063.86461,0.02310
4061.93586,0.02333
4060.00712,0.02311
4058.07837,0.02244
4056.14963,0.02212
4054.22088,0.02235
4052.29214,0.02255
4050.36340,0.02277
4048.43465,0.02306
4046.50591,0.02306
4044.57716,0.02303
4042.64842,0.02329
4040.71967,0.02367
4038.79093,0.02381
4036.86218,0.02358
4034.93344,0.02321
4033.00470,0.02302
4031.07595,0.02316
4029.14721,0.02334
4027.21846,0.02303
4025.28972,0.02233
4023.36097,0.02195
4021.43223,0.02217
4019.50348,0.02241
4017.57474,0.02230
4015.64600,0.02223
4013.71725,0.02252
4011.78851,0.02288
4009.85976,0.02295
4007.93102,0.02289
4006.00227,0.02281
4004.07353,0.02266
4002.14478,0.02267
4000.21604,0.02304
3998.28730,0.02345
3996.35855,0.02361
3994.42981,0.02352
3992.50106,0.02325
3990.57232,0.02297
3988.64357,0.02287
3986.71483,0.02285
3984.78608,0.02275
3982.85734,0.02261
3980.92859,0.02271
3978.99985,0.02299
3977.07111,0.02298
3975.14236,0.02278
3973.21362,0.02274
3971.28487,0.02281
3969.35613,0.02268
3967.42738,0.02239
3965.49864,0.02242
3963.56989,0.02274
3961.64115,0.02286
3959.71241,0.02284
3957.78366,0.02287
3955.85492,0.02290
3953.92617,0.02293
3951.99743,0.02312
3950.06868,0.02323
3948.13994,0.02293
3946.21119,0.02253
3944.28245,0.02250
3942.35371,0.02273
3940.42496,0.02299
3938.49622,0.02332
3936.56747,0.02362
3934.63873,0.02353
3932.70998,0.02323
3930.78124,0.02309
3928.85249,0.02308
3926.92375,0.02311
3924.99501,0.02293
3923.06626,0.02257
3921.13752,0.02239
3919.20877,0.02249
3917.28003,0.02274
3915.35128,0.02312
3913.42254,0.02335
3911.49379,0.02318
3909.56505,0.02292
3907.63630,0.02293
3905.70756,0.02305
3903.77882,0.02300
3901.85007,0.02280
3899.92133,0.02266
3897.99258,0.02265
3896.06384,0.02283
3894.13509,0.02302
3892.20635,0.02296
3890.27760,0.02289
3888.34886,0.02294
3886.42012,0.02285
3884.49137,0.02256
3882.56263,0.02237
3880.63388,0.02247
3878.70514,0.02286
3876.77639,0.02334
3874.84765,0.02366
3872.91890,0.02377
3870.99016,0.02363
3869.06142,0.02337
3867.13267,0.02310
3865.20393,0.02280
3863.27518,0.02274
3861.34644,0.02295
3859.41769,0.02292
3857.48895,0.02273
3855.56020,0.02279
3853.63146,0.02313
3851.70272,0.02331
3849.77397,0.02337
3847.84523,0.02357
3845.91648,0.02369
3843.98774,0.02352
3842.05899,0.02338
3840.13025,0.02341
3838.20150,0.02346
3836.27276,0.02344
3834.34401,0.02340
3832.41527,0.02335
3830.48653,0.02332
3828.55778,0.02339
3826.62904,0.02350
3824.70029,0.02357
3822.77155,0.02377
3820.84280,0.02409
3818.91406,0.02404
3816.98531,0.02355
3815.05657,0.02322
3813.12783,0.02321
3811.19908,0.02322
3809.27034,0.02325
3807.34159,0.02331
3805.41285,0.02332
3803.48410,0.02341
3801.55536,0.02352
3799.62661,0.02351
3797.69787,0.02343
3795.76913,0.02330
3793.84038,0.02307
3791.91164,0.02293
3789.98289,0.02291
3788.05415,0.02295
3786.12540,0.02306
3784.19666,0.02317
3782.26791,0.02319
3780.33917,0.02308
3778.41043,0.02291
3776.48168,0.02297
3774.55294,0.02321
3772.62419,0.02323
3770.69545,0.02310
3768.76670,0.02316
3766.83796,0.02329
3764.90921,0.02329
3762.98047,0.02326
3761.05172,0.02320
3759.12298,0.02297
3757.19424,0.02272
3755.26549,0.02272
3753.33675,0.02295
3751.40800,0.02306
3749.47926,0.02286
3747.55051,0.02273
3745.62177,0.02296
3743.69302,0.02319
3741.76428,0.02335
3739.83554,0.02364
3737.90679,0.02373
3735.97805,0.02318
3734.04930,0.02245
3732.12056,0.02216
3730.19181,0.02223
3728.26307,0.02241
3726.33432,0.02276
3724.40558,0.02311
3722.47684,0.02318
3720.54809,0.02298
3718.61935,0.02275
3716.69060,0.02266
3714.76186,0.02268
3712.83311,0.02259
3710.90437,0.02247
3708.97562,0.02255
3707.04688,0.02266
3705.11814,0.02258
3703.18939,0.02251
3701.26065,0.02271
3699.33190,0.02308
3697.40316,0.02329
3695.47441,0.02314
3693.54567,0.02280
3691.61692,0.02262
3689.68818,0.02265
3687.75943,0.02272
3685.83069,0.02288
3683.90195,0.02311
3681.97320,0.02310
3680.04446,0.02275
3678.11571,0.02231
3676.18697,0.02209
3674.25822,0.02223
3672.32948,0.02239
3670.40073,0.02235
3668.47199,0.02225
3666.54325,0.02211
3664.61450,0.02193
3662.68576,0.02197
3660.75701,0.02233
3658.82827,0.02269
3656.89952,0.02277
3654.97078,0.02271
3653.04203,0.02282
3651.11329,0.02298
3649.18455,0.02298
3647.25580,0.02273
3645.32706,0.02245
3643.39831,0.02237
3641.46957,0.02230
3639.54082,0.02202
3637.61208,0.02179
3635.68333,0.02195
3633.75459,0.02241
3631.82584,0.02282
3629.89710,0.02292
3627.96836,0.02260
3626.03961,0.02229
3624.11087,0.02219
3622.18212,0.02206
3620.25338,0.02195
3618.32463,0.02206
3616.39589,0.02219
3614.46714,0.02207
3612.53840,0.02192
3610.60966,0.02205
3608.68091,0.02233
3606.75217,0.02253
3604.82342,0.02265
3602.89468,0.02268
3600.96593,0.02240
3599.03719,0.02195
3597.10844,0.02189
3595.17970,0.02224
3593.25096,0.02233
3591.32221,0.02206
3589.39347,0.02190
3587.46472,0.02205
3585.53598,0.02220
3583.60723,0.02206
3581.67849,0.02189
3579.74974,0.02199
3577.82100,0.02210
3575.89226,0.02192
3573.96351,0.02163
3572.03477,0.02151
3570.10602,0.02154
3568.17728,0.02142
3566.24853,0.02112
3564.31979,0.02109
3562.39104,0.02133
3560.46230,0.02144
3558.53355,0.02137
3556.60481,0.02138
3554.67607,0.02153
3552.74732,0.02161
3550.81858,0.02159
3548.88983,0.02154
3546.96109,0.02135
3545.03234,0.02111
3543.10360,0.02101
3541.17485,0.02104
3539.24611,0.02103
3537.31737,0.02105
3535.38862,0.02124
3533.45988,0.02143
3531.53113,0.02143
3529.60239,0.02154
3527.67364,0.02185
3525.74490,0.02194
3523.81615,0.02163
3521.88741,0.02110
3519.95867,0.02073
3518.02992,0.02071
3516.10118,0.02076
3514.17243,0.02078
3512.24369,0.02098
3510.31494,0.02127
3508.38620,0.02140
3506.45745,0.02143
3504.52871,0.02149
3502.59997,0.02149
3500.67122,0.02134
3498.74248,0.02145
3496.81373,0.02172
3494.88499,0.02154
3492.95624,0.02104
3491.02750,0.02078
3489.09875,0.02088
3487.17001,0.02115
3485.24126,0.02121
3483.31252,0.02098
3481.38378,0.02081
3479.45503,0.02093
3477.52629,0.02121
3475.59754,0.02129
3473.66880,0.02114
3471.74005,0.02101
3469.81131,0.02105
3467.88256,0.02144
3465.95382,0.02201
3464.02508,0.02201
3462.09633,0.02142
3460.16759,0.02108
3458.23884,0.02119
3456.31010,0.02136
3454.38135,0.02136
3452.45261,0.02113
3450.52386,0.02077
3448.59512,0.02062
3446.66638,0.02089
3444.73763,0.02110
3442.80889,0.02084
3440.88014,0.02054
3438.95140,0.02051
3437.02265,0.02052
3435.09391,0.02042
3433.16516,0.02049
3431.23642,0.02076
3429.30768,0.02088
3427.37893,0.02082
3425.45019,0.02081
3423.52144,0.02074
3421.59270,0.02057
3419.66395,0.02058
3417.73521,0.02071
3415.80646,0.02071
3413.87772,0.02073
3411.94897,0.02089
3410.02023,0.02104
3408.09149,0.02120
3406.16274,0.02139
3404.23400,0.02130
3402.30525,0.02085
3400.37651,0.02035
3398.44776,0.01998
3396.51902,0.01990
3394.59027,0.02025
3392.66153,0.02064
3390.73279,0.02082
3388.80404,0.02090
3386.87530,0.02064
3384.94655,0.02010
3383.01781,0.01995
3381.08906,0.02027
3379.16032,0.02059
3377.23157,0.02066
3375.30283,0.02062
3373.37409,0.02071
3371.44534,0.02091
3369.51660,0.02078
3367.58785,0.02026
3365.65911,0.01989
3363.73036,0.02009
3361.80162,0.02070
3359.87287,0.02114
3357.94413,0.02109
3356.01539,0.02072
3354.08664,0.02022
3352.15790,0.01975
3350.22915,0.01960
3348.30041,0.01992
3346.37166,0.02036
3344.44292,0.02057
3342.51417,0.02066
3340.58543,0.02084
3338.65668,0.02085
3336.72794,0.02045
3334.79920,0.02004
3332.87045,0.02005
3330.94171,0.02036
3329.01296,0.02062
3327.08422,0.02063
3325.15547,0.02051
3323.22673,0.02030
3321.29798,0.02009
3319.36924,0.02004
3317.44050,0.02025
3315.51175,0.02068
3313.58301,0.02099
3311.65426,0.02082
3309.72552,0.02037
3307.79677,0.02020
3305.86803,0.02043
3303.93928,0.02063
3302.01054,0.02047
3300.08180,0.02017
3298.15305,0.02015
3296.22431,0.02034
3294.29556,0.02047
3292.36682,0.02055
3290.43807,0.02064
3288.50933,0.02062
3286.58058,0.02047
3284.65184,0.02057
3282.72310,0.02101
3280.79435,0.02119
3278.86561,0.02081
3276.93686,0.02045
3275.00812,0.02049
3273.07937,0.02041
3271.15063,0.02014
3269.22188,0.02020
3267.29314,0.02058
3265.36439,0.02083
3263.43565,0.02081
3261.50691,0.02060
3259.57816,0.02055
3257.64942,0.02093
3255.72067,0.02135
3253.79193,0.02137
3251.86318,0.02109
3249.93444,0.02086
3248.00569,0.02091
3246.07695,0.02118
3244.14821,0.02135
3242.21946,0.02103
3240.29072,0.02059
3238.36197,0.02065
3236.43323,0.02102
3234.50448,0.02138
3232.57574,0.02146
3230.64699,0.02113
3228.71825,0.02094
3226.78951,0.02117
3224.86076,0.02135
3222.93202,0.02124
3221.00327,0.02126
3219.07453,0.02155
3217.14578,0.02156
3215.21704,0.02114
3213.28829,0.02095
3211.35955,0.02113
3209.43081,0.02132
3207.50206,0.02140
3205.57332,0.02145
3203.64457,0.02137
3201.71583,0.02097
3199.78708,0.02047
3197.85834,0.02023
3195.92959,0.02038
3194.00085,0.02082
3192.07210,0.02117
3190.14336,0.02111
3188.21462,0.02084
3186.28587,0.02077
3184.35713,0.02077
3182.42838,0.02075
3180.49964,0.02100
3178.57089,0.02145
3176.64215,0.02186
3174.71340,0.02210
3172.78466,0.02204
3170.85592,0.02181
3168.92717,0.02172
3166.99843,0.02176
3165.06968,0.02167
3163.14094,0.02156
3161.21219,0.02141
3159.28345,0.02115
3157.35470,0.02115
3155.42596,0.02147
3153.49722,0.02168
3151.56847,0.02162
3149.63973,0.02150
3147.71098,0.02153
3145.78224,0.02171
3143.85349,0.02183
3141.92475,0.02169
3139.99600,0.02146
3138.06726,0.02144
3136.13852,0.02170
3134.20977,0.02196
3132.28103,0.02199
3130.35228,0.02183
3128.42354,0.02145
3126.49479,0.02098
3124.56605,0.02069
3122.63730,0.02065
3120.70856,0.02078
3118.77981,0.02093
3116.85107,0.02103
3114.92233,0.02118
3112.99358,0.02144
3111.06484,0.02153
3109.13609,0.02122
3107.20735,0.02082
3105.27860,0.02072
3103.34986,0.02084
3101.42111,0.02106
3099.49237,0.02118
3097.56363,0.02098
3095.63488,0.02071
3093.70614,0.02075
3091.77739,0.02098
3089.84865,0.02104
3087.91990,0.02093
3085.99116,0.02084
3084.06241,0.02074
3082.13367,0.02064
3080.20493,0.02075
3078.27618,0.02104
3076.34744,0.02115
3074.41869,0.02104
3072.48995,0.02091
3070.56120,0.02082
3068.63246,0.02079
3066.70371,0.02099
3064.77497,0.02130
3062.84623,0.02140
3060.91748,0.02128
3058.98874,0.02121
3057.05999,0.02122
3055.13125,0.02113
3053.20250,0.02102
3051.27376,0.02107
3049.34501,0.02120
3047.41627,0.02111
3045.48752,0.02080
3043.55878,0.02065
3041.63004,0.02076
3039.70129,0.02091
3037.77255,0.02099
3035.84380,0.02094
3033.91506,0.02087
3031.98631,0.02084
3030.05757,0.02081
3028.12882,0.02096
3026.20008,0.02134
3024.27134,0.02148
3022.34259,0.02122
3020.41385,0.02091
3018.48510,0.02084
3016.55636,0.02094
3014.62761,0.02090
3012.69887,0.02076
3010.77012,0.02078
3008.84138,0.02109
3006.91264,0.02143
3004.98389,0.02121
3003.05515,0.02066
3001.12640,0.02045
2999.19766,0.02046
2997.26891,0.02049
2995.34017,0.02055
2993.41142,0.02051
2991.48268,0.02031
2989.55394,0.02012
2987.62519,0.02019
2985.69645,0.02061
2983.76770,0.02095
2981.83896,0.02078
2979.91021,0.02038
2977.98147,0.02013
2976.05272,0.01998
2974.12398,0.02002
2972.19523,0.02028
2970.26649,0.02038
2968.33775,0.02023
2966.40900,0.02007
2964.48026,0.02008
2962.55151,0.02022
2960.62277,0.02031
2958.69402,0.02035
2956.76528,0.02043
2954.83653,0.02041
2952.90779,0.02031
2950.97905,0.02030
2949.05030,0.02031
2947.12156,0.02022
2945.19281,0.02002
2943.26407,0.01973
2941.33532,0.01950
2939.40658,0.01944
2937.47783,0.01957
2935.54909,0.01976
2933.62035,0.01983
2931.69160,0.01983
2929.76286,0.01991
2927.83411,0.02003
2925.90537,0.02018
2923.97662,0.02033
2922.04788,0.02034
2920.11913,0.02033
2918.19039,0.02048
2916.26165,0.02070
2914.33290,0.02074
2912.40416,0.02059
2910.47541,0.02039
2908.54667,0.02036
2906.61792,0.02064
2904.68918,0.02105
2902.76043,0.02132
2900.83169,0.02141
2898.90294,0.02146
2896.97420,0.02139
2895.04546,0.02130
2893.11671,0.02125
2891.18797,0.02104
2889.25922,0.02072
2887.33048,0.02043
2885.40173,0.02026
2883.47299,0.02028
2881.54424,0.02037
2879.61550,0.02054
2877.68676,0.02077
2875.75801,0.02086
2873.82927,0.02082
2871.90052,0.02074
2869.97178,0.02074
2868.04303,0.02081
2866.11429,0.02085
2864.18554,0.02093
2862.25680,0.02101
2860.32806,0.02105
2858.39931,0.02120
2856.47057,0.02130
2854.54182,0.02117
2852.61308,0.02104
2850.68433,0.02103
2848.75559,0.02108
2846.82684,0.02117
2844.89810,0.02126
2842.96936,0.02136
2841.04061,0.02156
2839.11187,0.02175
2837.18312,0.02177
2835.25438,0.02161
2833.32563,0.02147
2831.39689,0.02168
2829.46814,0.02203
2827.53940,0.02206
2825.61065,0.02178
2823.68191,0.02155
2821.75317,0.02151
2819.82442,0.02160
2817.89568,0.02174
2815.96693,0.02189
2814.03819,0.02184
2812.10944,0.02158
2810.18070,0.02138
2808.25195,0.02140
2806.32321,0.02153
2804.39447,0.02166
2802.46572,0.02176
2800.53698,0.02184
2798.60823,0.02187
2796.67949,0.02187
2794.75074,0.02190
2792.82200,0.02197
2790.89325,0.02209
2788.96451,0.02213
2787.03577,0.02209
2785.10702,0.02209
2783.17828,0.02213
2781.24953,0.02210
2779.32079,0.02197
2777.39204,0.02189
2775.46330,0.02200
2773.53455,0.02202
2771.60581,0.02188
2769.67707,0.02184
2767.74832,0.02184
2765.81958,0.02180
2763.89083,0.02185
2761.96209,0.02186
2760.03334,0.02178
2758.10460,0.02175
2756.17585,0.02174
2754.24711,0.02171
2752.31836,0.02171
2750.38962,0.02173
2748.46088,0.02188
2746.53213,0.02202
2744.60339,0.02186
2742.67464,0.02161
2740.74590,0.02157
2738.81715,0.02160
2736.88841,0.02152
2734.95966,0.02147
2733.03092,0.02159
2731.10218,0.02175
2729.17343,0.02182
2727.24469,0.02183
2725.31594,0.02174
2723.38720,0.02166
2721.45845,0.02165
2719.52971,0.02164
2717.60096,0.02160
2715.67222,0.02163
2713.74348,0.02164
2711.81473,0.02156
2709.88599,0.02152
2707.95724,0.02157
2706.02850,0.02177
2704.09975,0.02201
2702.17101,0.02211
2700.24226,0.02213
2698.31352,0.02208
2696.38477,0.02187
2694.45603,0.02162
2692.52729,0.02150
2690.59854,0.02158
2688.66980,0.02177
2686.74105,0.02190
2684.81231,0.02197
2682.88356,0.02201
2680.95482,0.02201
2679.02607,0.02207
2677.09733,0.02208
2675.16859,0.02197
2673.23984,0.02201
2671.31110,0.02211
2669.38235,0.02198
2667.45361,0.02184
2665.52486,0.02188
2663.59612,0.02194
2661.66737,0.02186
2659.73863,0.02163
2657.80989,0.02136
2655.88114,0.02122
2653.95240,0.02102
2652.02365,0.02081
2650.09491,0.02094
2648.16616,0.02123
2646.23742,0.02140
2644.30867,0.02157
2642.37993,0.02176
2640.45119,0.02186
2638.52244,0.02188
2636.59370,0.02179
2634.66495,0.02159
2632.73621,0.02150
2630.80746,0.02150
2628.87872,0.02152
2626.94997,0.02167
2625.02123,0.02190
2623.09248,0.02199
2621.16374,0.02195
2619.23500,0.02188
2617.30625,0.02177
2615.37751,0.02174
2613.44876,0.02185
2611.52002,0.02187
2609.59127,0.02170
2607.66253,0.02159
2605.73378,0.02165
2603.80504,0.02176
2601.87630,0.02188
2599.94755,0.02184
2598.01881,0.02157
2596.09006,0.02150
2594.16132,0.02173
2592.23257,0.02182
2590.30383,0.02169
2588.37508,0.02148
2586.44634,0.02130
2584.51760,0.02137
2582.58885,0.02159
2580.66011,0.02162
2578.73136,0.02160
2576.80262,0.02173
2574.87387,0.02176
2572.94513,0.02162
2571.01638,0.02165
2569.08764,0.02199
2567.15890,0.02227
2565.23015,0.02225
2563.30141,0.02209
2561.37266,0.02185
2559.44392,0.02163
2557.51517,0.02154
2555.58643,0.02150
2553.65768,0.02153
2551.72894,0.02162
2549.80019,0.02158
2547.87145,0.02154
2545.94271,0.02184
2544.01396,0.02233
2542.08522,0.02256
2540.15647,0.02233
2538.22773,0.02201
2536.29898,0.02191
2534.37024,0.02185
2532.44149,0.02167
2530.51275,0.02153
2528.58401,0.02160
2526.65526,0.02176
2524.72652,0.02189
2522.79777,0.02197
2520.86903,0.02200
2518.94028,0.02189
2517.01154,0.02167
2515.08279,0.02153
2513.15405,0.02152
2511.22531,0.02149
2509.29656,0.02136
2507.36782,0.02137
2505.43907,0.02161
2503.51033,0.02177
2501.58158,0.02179
2499.65284,0.02177
2497.72409,0.02180
2495.79535,0.02181
2493.86661,0.02173
2491.93786,0.02173
2490.00912,0.02192
2488.08037,0.02208
2486.15163,0.02205
2484.22288,0.02190
2482.29414,0.02169
2480.36539,0.02164
2478.43665,0.02181
2476.50790,0.02192
2474.57916,0.02182
2472.65042,0.02166
2470.72167,0.02162
2468.79293,0.02159
2466.86418,0.02150
2464.93544,0.02160
2463.00669,0.02181
2461.07795,0.02181
2459.14920,0.02169
2457.22046,0.02165
2455.29172,0.02167
2453.36297,0.02167
2451.43423,0.02169
2449.50548,0.02179
2447.57674,0.02191
2445.64799,0.02187
2443.71925,0.02170
2441.79050,0.02174
2439.86176,0.02199
2437.93302,0.02200
2436.00427,0.02175
2434.07553,0.02168
2432.14678,0.02181
2430.21804,0.02185
2428.28929,0.02176
2426.36055,0.02167
2424.43180,0.02150
2422.50306,0.02134
2420.57432,0.02148
2418.64557,0.02186
2416.71683,0.02220
2414.78808,0.02230
2412.85934,0.02234
2410.93059,0.02249
2409.00185,0.02250
2407.07310,0.02232
2405.14436,0.02220
2403.21561,0.02218
2401.28687,0.02214
2399.35813,0.02209
2397.42938,0.02202
2395.50064,0.02191
2393.57189,0.02179
2391.64315,0.02172
2389.71440,0.02168
2387.78566,0.02165
2385.85691,0.02164
2383.92817,0.02158
2381.99943,0.02142
2380.07068,0.02128
2378.14194,0.02131
2376.21319,0.02148
2374.28445,0.02174
2372.35570,0.02200
2370.42696,0.02216
2368.49821,0.02221
2366.56947,0.02219
2364.64073,0.02212
2362.71198,0.02202
2360.78324,0.02180
2358.85449,0.02155
2356.92575,0.02152
2354.99700,0.02167
2353.06826,0.02175
2351.13951,0.02176
2349.21077,0.02180
2347.28203,0.02195
2345.35328,0.02213
2343.42454,0.02222
2341.49579,0.02219
2339.56705,0.02204
2337.63830,0.02184
2335.70956,0.02179
2333.78081,0.02188
2331.85207,0.02200
2329.92332,0.02210
2327.99458,0.02204
2326.06584,0.02179
2324.13709,0.02158
2322.20835,0.02151
2320.27960,0.02150
2318.35086,0.02156
2316.42211,0.02158
2314.49337,0.02159
2312.56462,0.02169
2310.63588,0.02177
2308.70714,0.02171
2306.77839,0.02144
2304.84965,0.02113
2302.92090,0.02110
2300.99216,0.02129
2299.06341,0.02152
2297.13467,0.02171
2295.20592,0.02182
2293.27718,0.02187
2291.34844,0.02196
2289.41969,0.02205
2287.49095,0.02207
2285.56220,0.02186
2283.63346,0.02157
2281.70471,0.02150
2279.77597,0.02166
2277.84722,0.02181
2275.91848,0.02187
2273.98974,0.02190
2272.06099,0.02187
2270.13225,0.02162
2268.20350,0.02131
2266.27476,0.02130
2264.34601,0.02145
2262.41727,0.02154
2260.48852,0.02162
2258.55978,0.02169
2256.63103,0.02155
2254.70229,0.02140
2252.77355,0.02146
2250.84480,0.02165
2248.91606,0.02180
2246.98731,0.02186
2245.05857,0.02179
2243.12982,0.02173
2241.20108,0.02182
2239.27233,0.02191
2237.34359,0.02184
2235.41485,0.02170
2233.48610,0.02159
2231.55736,0.02154
2229.62861,0.02155
2227.69987,0.02155
2225.77112,0.02149
2223.84238,0.02138
2221.91363,0.02140
2219.98489,0.02163
2218.05615,0.02188
2216.12740,0.02187
2214.19866,0.02167
2212.26991,0.02156
2210.34117,0.02154
2208.41242,0.02155
2206.48368,0.02167
2204.55493,0.02172
2202.62619,0.02152
2200.69745,0.02137
2198.76870,0.02149
2196.83996,0.02162
2194.91121,0.02160
2192.98247,0.02156
2191.05372,0.02160
2189.12498,0.02166
2187.19623,0.02167
2185.26749,0.02163
2183.33874,0.02151
2181.41000,0.02135
2179.48126,0.02131
2177.55251,0.02132
2175.62377,0.02135
2173.69502,0.02145
2171.76628,0.02145
2169.83753,0.02133
2167.90879,0.02123
2165.98004,0.02121
2164.05130,0.02128
2162.12256,0.02136
2160.19381,0.02135
2158.26507,0.02130
2156.33632,0.02135
2154.40758,0.02163
2152.47883,0.02188
2150.55009,0.02179
2148.62134,0.02166
2146.69260,0.02178
2144.76386,0.02191
2142.83511,0.02187
2140.90637,0.02181
2138.97762,0.02171
2137.04888,0.02148
2135.12013,0.02130
2133.19139,0.02137
2131.26264,0.02154
2129.33390,0.02164
2127.40516,0.02166
2125.47641,0.02154
2123.54767,0.02134
2121.61892,0.02131
2119.69018,0.02145
2117.76143,0.02157
2115.83269,0.02165
2113.90394,0.02171
2111.97520,0.02171
2110.04645,0.02168
2108.11771,0.02165
2106.18897,0.02155
2104.26022,0.02144
2102.33148,0.02138
2100.40273,0.02138
2098.47399,0.02145
2096.54524,0.02152
2094.61650,0.02148
2092.68775,0.02139
2090.75901,0.02135
2088.83027,0.02131
2086.90152,0.02129
2084.97278,0.02133
2083.04403,0.02139
2081.11529,0.02142
2079.18654,0.02141
2077.25780,0.02130
2075.32905,0.02116
2073.40031,0.02119
2071.47157,0.02135
2069.54282,0.02141
2067.61408,0.02129
2065.68533,0.02112
2063.75659,0.02110
2061.82784,0.02120
2059.89910,0.02131
2057.97035,0.02147
2056.04161,0.02168
2054.11287,0.02180
2052.18412,0.02173
2050.25538,0.02153
2048.32663,0.02140
2046.39789,0.02138
2044.46914,0.02144
2042.54040,0.02149
2040.61165,0.02158
2038.68291,0.02171
2036.75416,0.02173
2034.82542,0.02160
2032.89668,0.02138
2030.96793,0.02134
2029.03919,0.02159
2027.11044,0.02184
2025.18170,0.02181
2023.25295,0.02158
2021.32421,0.02141
2019.39546,0.02129
2017.46672,0.02123
2015.53798,0.02132
2013.60923,0.02140
2011.68049,0.02135
2009.75174,0.02140
2007.82300,0.02151
2005.89425,0.02147
2003.96551,0.02137
2002.03676,0.02135
2000.10802,0.02130
1998.17928,0.02128
1996.25053,0.02145
1994.32179,0.02164
1992.39304,0.02157
1990.46430,0.02135
1988.53555,0.02131
1986.60681,0.02142
1984.67806,0.02137
1982.74932,0.02113
1980.82058,0.02111
1978.89183,0.02134
1976.96309,0.02148
1975.03434,0.02143
1973.10560,0.02140
1971.17685,0.02141
1969.24811,0.02141
1967.31936,0.02137
1965.39062,0.02128
1963.46187,0.02123
1961.53313,0.02131
1959.60439,0.02137
1957.67564,0.02132
1955.74690,0.02129
1953.81815,0.02129
1951.88941,0.02129
1949.96066,0.02129
1948.03192,0.02133
1946.10317,0.02138
1944.17443,0.02138
1942.24569,0.02131
1940.31694,0.02125
1938.38820,0.02127
1936.45945,0.02135
1934.53071,0.02144
1932.60196,0.02147
1930.67322,0.02151
1928.74447,0.02159
1926.81573,0.02156
1924.88699,0.02136
1922.95824,0.02121
1921.02950,0.02130
1919.10075,0.02150
1917.17201,0.02154
1915.24326,0.02145
1913.31452,0.02138
1911.38577,0.02133
1909.45703,0.02140
1907.52829,0.02153
1905.59954,0.02147
1903.67080,0.02131
1901.74205,0.02121
1899.81331,0.02112
1897.88456,0.02106
1895.95582,0.02097
1894.02707,0.02083
1892.09833,0.02078
1890.16958,0.02088
1888.24084,0.02092
1886.31210,0.02087
1884.38335,0.02092
1882.45461,0.02108
1880.52586,0.02114
1878.59712,0.02113
1876.66837,0.02122
1874.73963,0.02138
1872.81088,0.02139
1870.88214,0.02119
1868.95340,0.02096
1867.02465,0.02088
1865.09591,0.02098
1863.16716,0.02109
1861.23842,0.02110
1859.30967,0.02114
1857.38093,0.02127
1855.45218,0.02131
1853.52344,0.02116
1851.59470,0.02092
1849.66595,0.02074
1847.73721,0.02066
1845.80846,0.02069
1843.87972,0.02077
1841.95097,0.02078
1840.02223,0.02071
1838.09348,0.02065
1836.16474,0.02067
1834.23600,0.02073
1832.30725,0.02076
1830.37851,0.02075
1828.44976,0.02078
1826.52102,0.02085
1824.59227,0.02079
1822.66353,0.02058
1820.73478,0.02051
1818.80604,0.02060
1816.87729,0.02059
1814.94855,0.02052
1813.01981,0.02051
1811.09106,0.02052
1809.16232,0.02056
1807.23357,0.02056
1805.30483,0.02031
1803.37608,0.01992
1801.44734,0.01972
1799.51859,0.01989
1797.58985,0.02023
1795.66111,0.02031
1793.73236,0.02011
1791.80362,0.01992
1789.87487,0.01985
1787.94613,0.01989
1786.01738,0.01995
1784.08864,0.01992
1782.15989,0.01983
1780.23115,0.01974
1778.30241,0.01965
1776.37366,0.01964
1774.44492,0.01963
1772.51617,0.01952
1770.58743,0.01931
1768.65868,0.01901
1766.72994,0.01872
1764.80119,0.01858
1762.87245,0.01852
1760.94370,0.01841
1759.01496,0.01828
1757.08622,0.01811
1755.15747,0.01791
1753.22873,0.01787
1751.29998,0.01791
1749.37124,0.01785
1747.44249,0.01803
1745.51375,0.01848
1743.58500,0.01871
1741.65626,0.01873
1739.72752,0.01897
1737.79877,0.01947
1735.87003,0.01993
1733.94128,0.02005
1732.01254,0.02004
1730.08379,0.02027
1728.15505,0.02064
1726.22630,0.02096
1724.29756,0.02116
1722.36882,0.02124
1720.44007,0.02131
1718.51133,0.02138
1716.58258,0.02137
1714.65384,0.02131
1712.72509,0.02122
1710.79635,0.02107
1708.86760,0.02087
1706.93886,0.02064
1705.01012,0.02044
1703.08137,0.02024
1701.15263,0.01998
1699.22388,0.01985
1697.29514,0.01989
1695.36639,0.01984
1693.43765,0.01962
1691.50890,0.01937
1689.58016,0.01930
1687.65141,0.01946
1685.72267,0.01954
1683.79393,0.01935
1681.86518,0.01908
1679.93644,0.01890
1678.00769,0.01889
1676.07895,0.01892
1674.15020,0.01883
1672.22146,0.01881
1670.29271,0.01886
1668.36397,0.01882
1666.43523,0.01876
1664.50648,0.01874
1662.57774,0.01871
1660.64899,0.01875
1658.72025,0.01877
1656.79150,0.01877
1654.86276,0.01888
1652.93401,0.01897
1651.00527,0.01893
1649.07653,0.01890
1647.14778,0.01880
1645.21904,0.01862
1643.29029,0.01864
1641.36155,0.01879
1639.43280,0.01879
1637.50406,0.01871
1635.57531,0.01872
1633.64657,0.01881
1631.71783,0.01890
1629.78908,0.01894
1627.86034,0.01884
1625.93159,0.01875
1624.00285,0.01892
1622.07410,0.01921
1620.14536,0.01929
1618.21661,0.01922
1616.28787,0.01916
1614.35912,0.01909
1612.43038,0.01900
1610.50164,0.01893
1608.57289,0.01892
1606.64415,0.01897
1604.71540,0.01897
1602.78666,0.01886
1600.85791,0.01888
1598.92917,0.01899
1597.00042,0.01899
1595.07168,0.01901
1593.14294,0.01904
1591.21419,0.01888
1589.28545,0.01866
1587.35670,0.01860
1585.42796,0.01872
1583.49921,0.01890
1581.57047,0.01909
1579.64172,0.01927
1577.71298,0.01923
1575.78424,0.01895
1573.85549,0.01880
1571.92675,0.01883
1569.99800,0.01877
1568.06926,0.01848
1566.14051,0.01818
1564.21177,0.01810
1562.28302,0.01831
1560.35428,0.01860
1558.42554,0.01859
1556.49679,0.01838
1554.56805,0.01829
1552.63930,0.01834
1550.71056,0.01850
1548.78181,0.01856
1546.85307,0.01838
1544.92432,0.01823
1542.99558,0.01843
1541.06683,0.01876
1539.13809,0.01889
1537.20935,0.01891
1535.28060,0.01893
1533.35186,0.01882
1531.42311,0.01861
1529.49437,0.01856
1527.56562,0.01870
1525.63688,0.01885
1523.70813,0.01895
1521.77939,0.01899
1519.85065,0.01902
1517.92190,0.01905
1515.99316,0.01892
1514.06441,0.01877
1512.13567,0.01879
1510.20692,0.01897
1508.27818,0.01920
1506.34943,0.01928
1504.42069,0.01922
1502.49195,0.01914
1500.56320,0.01913
1498.63446,0.01923
1496.70571,0.01920
1494.77697,0.01902
1492.84822,0.01902
1490.91948,0.01918
1488.99073,0.01920
1487.06199,0.01903
1485.13325,0.01900
1483.20450,0.01914
1481.27576,0.01904
1479.34701,0.01870
1477.41827,0.01856
1475.48952,0.01869
1473.56078,0.01865
1471.63203,0.01838
1469.70329,0.01826
1467.77454,0.01848
1465.84580,0.01882
1463.91706,0.01903
1461.98831,0.01908
1460.05957,0.01910
1458.13082,0.01906
1456.20208,0.01894
1454.27333,0.01890
1452.34459,0.01898
1450.41584,0.01909
1448.48710,0.01919
1446.55836,0.01927
1444.62961,0.01921
1442.70087,0.01904
1440.77212,0.01896
1438.84338,0.01897
1436.91463,0.01901
1434.98589,0.01914
1433.05714,0.01928
1431.12840,0.01933
1429.19966,0.01923
1427.27091,0.01897
1425.34217,0.01874
1423.41342,0.01866
1421.48468,0.01871
1419.55593,0.01878
1417.62719,0.01867
1415.69844,0.01850
1413.76970,0.01840
1411.84096,0.01833
1409.91221,0.01835
1407.98347,0.01852
1406.05472,0.01865
1404.12598,0.01858
1402.19723,0.01847
1400.26849,0.01845
1398.33974,0.01849
1396.41100,0.01858
1394.48225,0.01860
1392.55351,0.01851
1390.62477,0.01845
1388.69602,0.01849
1386.76728,0.01855
1384.83853,0.01860
1382.90979,0.01848
1380.98104,0.01818
1379.05230,0.01798
1377.12355,0.01803
1375.19481,0.01822
1373.26607,0.01837
1371.33732,0.01840
1369.40858,0.01835
1367.47983,0.01836
1365.55109,0.01852
1363.62234,0.01876
1361.69360,0.01889
1359.76485,0.01876
1357.83611,0.01848
1355.90737,0.01828
1353.97862,0.01817
1352.04988,0.01813
1350.12113,0.01822
1348.19239,0.01838
1346.26364,0.01837
1344.33490,0.01821
1342.40615,0.01815
1340.47741,0.01816
1338.54867,0.01805
1336.61992,0.01794
1334.69118,0.01796
1332.76243,0.01794
1330.83369,0.01773
1328.90494,0.01755
1326.97620,0.01756
1325.04745,0.01764
1323.11871,0.01768
1321.18996,0.01759
1319.26122,0.01738
1317.33248,0.01725
1315.40373,0.01735
1313.47499,0.01747
1311.54624,0.01742
1309.61750,0.01731
1307.68875,0.01727
1305.76001,0.01731
1303.83126,0.01740
1301.90252,0.01750
1299.97378,0.01765
1298.04503,0.01788
1296.11629,0.01802
1294.18754,0.01805
1292.25880,0.01827
1290.33005,0.01860
1288.40131,0.01877
1286.47256,0.01891
1284.54382,0.01916
1282.61508,0.01932
1280.68633,0.01927
1278.75759,0.01913
1276.82884,0.01912
1274.90010,0.01926
1272.97135,0.01940
1271.04261,0.01947
1269.11386,0.01963
1267.18512,0.01991
1265.25638,0.02015
1263.32763,0.02022
1261.39889,0.02022
1259.47014,0.02027
1257.54140,0.02038
1255.61265,0.02040
1253.68391,0.02026
1251.75516,0.02019
1249.82642,0.02026
1247.89767,0.02027
1245.96893,0.02019
1244.04019,0.02020
1242.11144,0.02033
1240.18270,0.02038
1238.25395,0.02013
1236.32521,0.01973
1234.39646,0.01958
1232.46772,0.01976
1230.53897,0.01991
1228.61023,0.01972
1226.68149,0.01939
1224.75274,0.01927
1222.82400,0.01938
1220.89525,0.01941
1218.96651,0.01936
1217.03776,0.01939
1215.10902,0.01942
1213.18027,0.01931
1211.25153,0.01917
1209.32279,0.01912
1207.39404,0.01911
1205.46530,0.01900
1203.53655,0.01881
1201.60781,0.01866
1199.67906,0.01852
1197.75032,0.01841
1195.82157,0.01838
1193.89283,0.01853
1191.96409,0.01871
1190.03534,0.01869
1188.10660,0.01851
1186.17785,0.01835
1184.24911,0.01829
1182.32036,0.01826
1180.39162,0.01813
1178.46287,0.01800
1176.53413,0.01810
1174.60538,0.01833
1172.67664,0.01840
1170.74790,0.01831
1168.81915,0.01834
1166.89041,0.01845
1164.96166,0.01830
1163.03292,0.01792
1161.10417,0.01765
1159.17543,0.01755
1157.24668,0.01758
1155.31794,0.01763
1153.38920,0.01752
1151.46045,0.01737
1149.53171,0.01739
1147.60296,0.01741
1145.67422,0.01734
1143.74547,0.01741
1141.81673,0.01755
1139.88798,0.01764
1137.95924,0.01793
1136.03050,0.01822
1134.10175,0.01820
1132.17301,0.01812
1130.24426,0.01828
1128.31552,0.01841
1126.38677,0.01827
1124.45803,0.01828
1122.52928,0.01875
1120.60054,0.01932
1118.67180,0.01957
1116.74305,0.01944
1114.81431,0.01914
1112.88556,0.01895
1110.95682,0.01898
1109.02807,0.01909
1107.09933,0.01904
1105.17058,0.01881
1103.24184,0.01845
1101.31309,0.01810
1099.38435,0.01810
1097.45561,0.01842
1095.52686,0.01861
1093.59812,0.01865
1091.66937,0.01871
1089.74063,0.01859
1087.81188,0.01828
1085.88314,0.01811
1083.95439,0.01828
1082.02565,0.01874
1080.09691,0.01920
1078.16816,0.01943
1076.23942,0.01964
1074.31067,0.01972
1072.38193,0.01947
1070.45318,0.01937
1068.52444,0.01954
1066.59569,0.01960
1064.66695,0.01969
1062.73821,0.01984
1060.80946,0.01974
1058.88072,0.01964
1056.95197,0.01976
1055.02323,0.01971
1053.09448,0.01933
1051.16574,0.01896
1049.23699,0.01881
1047.30825,0.01891
1045.37951,0.01928
1043.45076,0.01961
1041.52202,0.01959
1039.59327,0.01940
1037.66453,0.01920
1035.73578,0.01902
1033.80704,0.01908
1031.87829,0.01922
1029.94955,0.01905
1028.02080,0.01893
1026.09206,0.01915
1024.16332,0.01940
1022.23457,0.01949
1020.30583,0.01952
1018.37708,0.01956
1016.44834,0.01969
1014.51959,0.01992
1012.59085,0.02004
1010.66210,0.02016
1008.73336,0.02053
1006.80462,0.02093
1004.87587,0.02105
1002.94713,0.02103
1001.01838,0.02116
999.08964,0.02124
997.16089,0.02102
995.23215,0.02080
993.30340,0.02087
991.37466,0.02102
989.44592,0.02099
987.51717,0.02080
985.58843,0.02080
983.65968,0.02108
981.73094,0.02128
979.80219,0.02122
977.87345,0.02107
975.94470,0.02083
974.01596,0.02041
972.08722,0.02007
970.15847,0.02035
968.22973,0.02102
966.30098,0.02123
964.37224,0.02097
962.44349,0.02077
960.51475,0.02061
958.58600,0.02028
956.65726,0.02003
954.72851,0.02004
952.79977,0.02011
950.87103,0.02011
948.94228,0.02015
947.01354,0.02023
945.08479,0.02020
943.15605,0.02014
941.22730,0.02037
939.29856,0.02059
937.36981,0.02034
935.44107,0.01984
933.51233,0.01947
931.58358,0.01925
929.65484,0.01902
927.72609,0.01897
925.79735,0.01924
923.86860,0.01957
921.93986,0.01983
920.01111,0.01999
918.08237,0.01989
916.15363,0.01966
914.22488,0.01961
912.29614,0.01951
910.36739,0.01917
908.43865,0.01895
906.50990,0.01899
904.58116,0.01909
902.65241,0.01916
900.72367,0.01918
898.79492,0.01916
896.86618,0.01929
894.93744,0.01945
893.00869,0.01932
891.07995,0.01899
889.15120,0.01870
887.22246,0.01866
885.29371,0.01878
883.36497,0.01885
881.43622,0.01903
879.50748,0.01926
877.57874,0.01926
875.64999,0.01928
873.72125,0.01948
871.79250,0.01936
869.86376,0.01893
867.93501,0.01878
866.00627,0.01890
864.07752,0.01896
862.14878,0.01893
860.22004,0.01876
858.29129,0.01869
856.36255,0.01882
854.43380,0.01876
852.50506,0.01852
850.57631,0.01837
848.64757,0.01823
846.71882,0.01832
844.79008,0.01881
842.86134,0.01912
840.93259,0.01915
839.00385,0.01938
837.07510,0.01959
835.14636,0.01928
833.21761,0.01871
831.28887,0.01833
829.36012,0.01820
827.43138,0.01834
825.50263,0.01867
823.57389,0.01890
821.64515,0.01894
819.71640,0.01889
817.78766,0.01893
815.85891,0.01906
813.93017,0.01914
812.00142,0.01919
810.07268,0.01915
808.14393,0.01892
806.21519,0.01874
804.28645,0.01888
802.35770,0.01931
800.42896,0.01972
798.50021,0.01979
796.57147,0.01975
794.64272,0.01984
792.71398,0.01967
790.78523,0.01924
788.85649,0.01898
786.92775,0.01888
784.99900,0.01903
783.07026,0.01945
781.14151,0.01958
779.21277,0.01908
777.28402,0.01839
775.35528,0.01803
773.42653,0.01814
771.49779,0.01852
769.56905,0.01861
767.64030,0.01828
765.71156,0.01796
763.78281,0.01784
761.85407,0.01798
759.92532,0.01831
757.99658,0.01828
756.06783,0.01780
754.13909,0.01756
752.21034,0.01791
750.28160,0.01832
748.35286,0.01838
746.42411,0.01837
744.49537,0.01861
742.56662,0.01887
740.63788,0.01895
738.70913,0.01889
736.78039,0.01903
734.85164,0.01943
732.92290,0.01950
730.99416,0.01905
729.06541,0.01861
727.13667,0.01837
725.20792,0.01838
723.27918,0.01857
721.35043,0.01846
719.42169,0.01800
717.49294,0.01768
715.56420,0.01754
713.63546,0.01746
711.70671,0.01756
709.77797,0.01779
707.84922,0.01804
705.92048,0.01802
703.99173,0.01764
702.06299,0.01730
700.13424,0.01715
698.20550,0.01724
696.27676,0.01785
694.34801,0.01860
692.41927,0.01872
690.49052,0.01866
688.56178,0.01902
686.63303,0.01885
684.70429,0.01797
682.77554,0.01755
680.84680,0.01762
678.91805,0.01787
676.98931,0.01832
675.06057,0.01828
673.13182,0.01746
671.20308,0.01672
669.27433,0.01664
667.34559,0.01696
665.41684,0.01760
663.48810,0.01821
661.55935,0.01813
659.63061,0.01775
657.70187,0.01750
655.77312,0.01728
653.84438,0.01684
651.91563,0.01637
649.98689,0.01662
648.05814,0.01735
646.12940,0.01755
644.20065,0.01734
642.27191,0.01717
640.34317,0.01716
638.41442,0.01747
636.48568,0.01753
634.55693,0.01657
632.62819,0.01556
630.69944,0.01549
628.77070,0.01557
626.84195,0.01517
624.91321,0.01469
622.98447,0.01407
621.05572,0.01345
619.12698,0.01394
617.19823,0.01572
615.26949,0.01739
613.34074,0.01795
611.41200,0.01806
609.48325,0.01887
607.55451,0.01927
605.62576,0.01808
603.69702,0.01707
601.76828,0.01750
599.83953,0.01796
