7497.02977,0.83980
7495.10103,0.83591
7493.17228,0.83559
7491.24354,0.83879
7489.31479,0.84348
7487.38605,0.84378
7485.45730,0.83672
7483.52856,0.82853
7481.59982,0.82654
7479.67107,0.82891
7477.74233,0.83012
7475.81358,0.82965
7473.88484,0.82886
7471.95609,0.82914
7470.02735,0.83004
7468.09860,0.82924
7466.16986,0.82795
7464.24112,0.83056
7462.31237,0.83703
7460.38363,0.83930
7458.45488,0.83485
7456.52614,0.83244
7454.59739,0.83267
7452.66865,0.82791
7450.73990,0.82099
7448.81116,0.81908
7446.88242,0.82050
7444.95367,0.82181
7443.02493,0.82322
7441.09618,0.82537
7439.16744,0.82735
7437.23869,0.82812
7435.30995,0.82956
7433.38120,0.83343
7431.45246,0.83788
7429.52371,0.83847
7427.59497,0.83360
7425.66623,0.82853
7423.73748,0.82655
7421.80874,0.82523
7419.87999,0.82340
7417.95125,0.82258
7416.02250,0.82468
7414.09376,0.82881
7412.16501,0.83190
7410.23627,0.83328
7408.30753,0.83348
7406.37878,0.83104
7404.45004,0.82637
7402.52129,0.82343
7400.59255,0.82531
7398.66380,0.82975
7396.73506,0.82928
7394.80631,0.82420
7392.87757,0.82211
7390.94883,0.82228
7389.02008,0.82065
7387.09134,0.81864
7385.16259,0.81893
7383.23385,0.82201
7381.30510,0.82562
7379.37636,0.82655
7377.44761,0.82454
7375.51887,0.82243
7373.59013,0.82058
7371.66138,0.81899
7369.73264,0.82018
7367.80389,0.82073
7365.87515,0.81562
7363.94640,0.80932
7362.01766,0.80776
7360.08891,0.81184
7358.16017,0.81862
7356.23142,0.82205
7354.30268,0.81940
7352.37394,0.81486
7350.44519,0.81336
7348.51645,0.81497
7346.58770,0.81751
7344.65896,0.82000
7342.73021,0.82010
7340.80147,0.81652
7338.87272,0.81326
7336.94398,0.81404
7335.01524,0.81629
7333.08649,0.81521
7331.15775,0.81361
7329.22900,0.81781
7327.30026,0.82521
7325.37151,0.82802
7323.44277,0.82420
7321.51402,0.81983
7319.58528,0.81933
7317.65654,0.81923
7315.72779,0.81784
7313.79905,0.81654
7311.87030,0.81338
7309.94156,0.80872
7308.01281,0.80759
7306.08407,0.81115
7304.15532,0.81501
7302.22658,0.81710
7300.29784,0.81843
7298.36909,0.81881
7296.44035,0.81748
7294.51160,0.81486
7292.58286,0.81219
7290.65411,0.81117
7288.72537,0.81325
7286.79662,0.81590
7284.86788,0.81693
7282.93913,0.82092
7281.01039,0.82815
7279.08165,0.82999
7277.15290,0.82449
7275.22416,0.81983
7273.29541,0.81967
7271.36667,0.82018
7269.43792,0.81862
7267.50918,0.81620
7265.58043,0.81635
7263.65169,0.82004
7261.72295,0.82271
7259.79420,0.82085
7257.86546,0.81734
7255.93671,0.81533
7254.00797,0.81308
7252.07922,0.81073
7250.15048,0.81186
7248.22173,0.81505
7246.29299,0.81528
7244.36425,0.81236
7242.43550,0.80981
7240.50676,0.81024
7238.57801,0.81404
7236.64927,0.81744
7234.72052,0.81693
7232.79178,0.81471
7230.86303,0.81543
7228.93429,0.82005
7227.00554,0.82237
7225.07680,0.81771
7223.14806,0.81056
7221.21931,0.80704
7219.29057,0.81071
7217.36182,0.81914
7215.43308,0.82130
7213.50433,0.81528
7211.57559,0.81277
7209.64684,0.81586
7207.71810,0.81680
7205.78936,0.81551
7203.86061,0.81550
7201.93187,0.81452
7200.00312,0.81108
7198.07438,0.81081
7196.14563,0.81711
7194.21689,0.82377
7192.28814,0.82437
7190.35940,0.82015
7188.43066,0.81554
7186.50191,0.81288
7184.57317,0.81197
7182.64442,0.81273
7180.71568,0.81653
7178.78693,0.82158
7176.85819,0.82212
7174.92944,0.81769
7173.00070,0.81354
7171.07196,0.81303
7169.14321,0.81652
7167.21447,0.82119
7165.28572,0.82235
7163.35698,0.81980
7161.42823,0.81699
7159.49949,0.81501
7157.57074,0.81328
7155.64200,0.81109
7153.71325,0.80777
7151.78451,0.80544
7149.85577,0.80639
7147.92702,0.80822
7145.99828,0.80820
7144.06953,0.80836
7142.14079,0.81036
7140.21204,0.81292
7138.28330,0.81485
7136.35455,0.81457
7134.42581,0.81197
7132.49707,0.80959
7130.56832,0.80811
7128.63958,0.80781
7126.71083,0.80970
7124.78209,0.80987
7122.85334,0.80580
7120.92460,0.80253
7118.99585,0.80217
7117.06711,0.80359
7115.13837,0.80807
7113.20962,0.81262
7111.28088,0.81300
7109.35213,0.81211
7107.42339,0.81229
7105.49464,0.81125
7103.56590,0.80932
7101.63715,0.80807
7099.70841,0.80636
7097.77967,0.80348
7095.85092,0.80069
7093.92218,0.80108
7091.99343,0.80566
7090.06469,0.80952
7088.13594,0.80978
7086.20720,0.80947
7084.27845,0.81095
7082.34971,0.81395
7080.42096,0.81574
7078.49222,0.81370
7076.56348,0.80952
7074.63473,0.80640
7072.70599,0.80555
7070.77724,0.80629
7068.84850,0.80673
7066.91975,0.80580
7064.99101,0.80530
7063.06226,0.80672
7061.13352,0.80759
7059.20478,0.80554
7057.27603,0.80318
7055.34729,0.80397
7053.41854,0.80611
7051.48980,0.80702
7049.56105,0.80748
7047.63231,0.80763
7045.70356,0.80702
7043.77482,0.80561
7041.84608,0.80428
7039.91733,0.80507
7037.98859,0.80782
7036.05984,0.81090
7034.13110,0.81236
7032.20235,0.81046
7030.27361,0.80700
7028.34486,0.80527
7026.41612,0.80455
7024.48738,0.80283
7022.55863,0.80194
7020.62989,0.80352
7018.70114,0.80575
7016.77240,0.80783
7014.84365,0.81000
7012.91491,0.80995
7010.98616,0.80698
7009.05742,0.80415
7007.12867,0.80336
7005.19993,0.80467
7003.27119,0.80640
7001.34244,0.80673
6999.41370,0.80655
6997.48495,0.80648
6995.55621,0.80734
6993.62746,0.81033
6991.69872,0.81193
6989.76997,0.80813
6987.84123,0.80386
6985.91249,0.80600
6983.98374,0.81061
6982.05500,0.81027
6980.12625,0.80645
6978.19751,0.80340
6976.26876,0.80136
6974.34002,0.80149
6972.41127,0.80454
6970.48253,0.80642
6968.55379,0.80482
6966.62504,0.80383
6964.69630,0.80509
6962.76755,0.80416
6960.83881,0.80125
6958.91006,0.80109
6956.98132,0.80332
6955.05257,0.80480
6953.12383,0.80460
6951.19509,0.80417
6949.26634,0.80481
6947.33760,0.80540
6945.40885,0.80402
6943.48011,0.80015
6941.55136,0.79684
6939.62262,0.79764
6937.69387,0.80064
6935.76513,0.80241
6933.83638,0.80396
6931.90764,0.80695
6929.97890,0.80977
6928.05015,0.80969
6926.12141,0.80598
6924.19266,0.80260
6922.26392,0.80266
6920.33517,0.80317
6918.40643,0.80327
6916.47768,0.80506
6914.54894,0.80726
6912.62020,0.80817
6910.69145,0.80791
6908.76271,0.80750
6906.83396,0.80859
6904.90522,0.81131
6902.97647,0.81272
6901.04773,0.81143
6899.11898,0.81080
6897.19024,0.81189
6895.26150,0.81187
6893.33275,0.81020
6891.40401,0.80723
6889.47526,0.80326
6887.54652,0.80103
6885.61777,0.80249
6883.68903,0.80548
6881.76028,0.80549
6879.83154,0.80288
6877.90280,0.80419
6875.97405,0.81022
6874.04531,0.81305
6872.11656,0.81035
6870.18782,0.80821
6868.25907,0.80844
6866.33033,0.80751
6864.40158,0.80550
6862.47284,0.80403
6860.54409,0.80360
6858.61535,0.80584
6856.68661,0.80855
6854.75786,0.80855
6852.82912,0.80751
6850.90037,0.80678
6848.97163,0.80752
6847.04288,0.81019
6845.11414,0.81138
6843.18539,0.80978
6841.25665,0.80857
6839.32791,0.80905
6837.39916,0.80834
6835.47042,0.80567
6833.54167,0.80423
6831.61293,0.80524
6829.68418,0.80666
6827.75544,0.80707
6825.82669,0.80717
6823.89795,0.80801
6821.96921,0.81003
6820.04046,0.81122
6818.11172,0.80979
6816.18297,0.80863
6814.25423,0.81024
6812.32548,0.81181
6810.39674,0.81042
6808.46799,0.80863
6806.53925,0.80874
6804.61051,0.80909
6802.68176,0.81010
6800.75302,0.81225
6798.82427,0.81320
6796.89553,0.81345
6794.96678,0.81502
6793.03804,0.81632
6791.10929,0.81515
6789.18055,0.81343
6787.25180,0.81326
6785.32306,0.81268
6783.39432,0.81035
6781.46557,0.80891
6779.53683,0.81052
6777.60808,0.81280
6775.67934,0.81304
6773.75059,0.81276
6771.82185,0.81334
6769.89310,0.81304
6767.96436,0.81128
6766.03562,0.80921
6764.10687,0.80774
6762.17813,0.80707
6760.24938,0.80667
6758.32064,0.80769
6756.39189,0.81007
6754.46315,0.81048
6752.53440,0.81039
6750.60566,0.81303
6748.67692,0.81549
6746.74817,0.81681
6744.81943,0.81871
6742.89068,0.81874
6740.96194,0.81682
6739.03319,0.81704
6737.10445,0.81786
6735.17570,0.81474
6733.24696,0.81156
6731.31822,0.81266
6729.38947,0.81446
6727.46073,0.81473
6725.53198,0.81341
6723.60324,0.81090
6721.67449,0.81052
6719.74575,0.81277
6717.81700,0.81413
6715.88826,0.81386
6713.95951,0.81390
6712.03077,0.81320
6710.10203,0.81058
6708.17328,0.80913
6706.24454,0.81033
6704.31579,0.81130
6702.38705,0.81089
6700.45830,0.81139
6698.52956,0.81266
6696.60081,0.81293
6694.67207,0.81242
6692.74333,0.81201
6690.81458,0.81209
6688.88584,0.81176
6686.95709,0.81120
6685.02835,0.81174
6683.09960,0.81249
6681.17086,0.81267
6679.24211,0.81312
6677.31337,0.81381
6675.38463,0.81413
6673.45588,0.81460
6671.52714,0.81446
6669.59839,0.81213
6667.66965,0.81014
6665.74090,0.81167
6663.81216,0.81391
6661.88341,0.81225
6659.95467,0.80968
6658.02593,0.81060
6656.09718,0.81219
6654.16844,0.81233
6652.23969,0.81267
6650.31095,0.81357
6648.38220,0.81440
6646.45346,0.81464
6644.52471,0.81394
6642.59597,0.81259
6640.66722,0.81080
6638.73848,0.80875
6636.80974,0.80775
6634.88099,0.80891
6632.95225,0.81126
6631.02350,0.81328
6629.09476,0.81427
6627.16601,0.81387
6625.23727,0.81274
6623.30852,0.81232
6621.37978,0.81261
6619.45104,0.81317
6617.52229,0.81475
6615.59355,0.81639
6613.66480,0.81617
6611.73606,0.81545
6609.80731,0.81548
6607.87857,0.81567
6605.94982,0.81714
6604.02108,0.81889
6602.09234,0.81848
6600.16359,0.81747
6598.23485,0.81690
6596.30610,0.81608
6594.37736,0.81591
6592.44861,0.81718
6590.51987,0.81894
6588.59112,0.81925
6586.66238,0.81783
6584.73364,0.81609
6582.80489,0.81498
6580.87615,0.81451
6578.94740,0.81321
6577.01866,0.81160
6575.08991,0.81285
6573.16117,0.81579
6571.23242,0.81709
6569.30368,0.81742
6567.37493,0.81668
6565.44619,0.81377
6563.51745,0.81200
6561.58870,0.81360
6559.65996,0.81584
6557.73121,0.81701
6555.80247,0.81793
6553.87372,0.81839
6551.94498,0.81772
6550.01623,0.81629
6548.08749,0.81501
6546.15875,0.81606
6544.23000,0.81977
6542.30126,0.82168
6540.37251,0.82003
6538.44377,0.81845
6536.51502,0.81889
6534.58628,0.81998
6532.65753,0.82081
6530.72879,0.82145
6528.80005,0.82176
6526.87130,0.82146
6524.94256,0.82020
6523.01381,0.81919
6521.08507,0.81984
6519.15632,0.82114
6517.22758,0.82178
6515.29883,0.82142
6513.37009,0.81978
6511.44135,0.81696
6509.51260,0.81495
6507.58386,0.81592
6505.65511,0.81861
6503.72637,0.82000
6501.79762,0.81892
6499.86888,0.81752
6497.94013,0.81817
6496.01139,0.81980
6494.08264,0.82049
6492.15390,0.82003
6490.22516,0.81930
6488.29641,0.81879
6486.36767,0.81807
6484.43892,0.81765
6482.51018,0.81839
6480.58143,0.81961
6478.65269,0.81964
6476.72394,0.81822
6474.79520,0.81687
6472.86646,0.81681
6470.93771,0.81791
6469.00897,0.81952
6467.08022,0.82157
6465.15148,0.82274
6463.22273,0.82163
6461.29399,0.81998
6459.36524,0.81915
6457.43650,0.81818
6455.50776,0.81748
6453.57901,0.81842
6451.65027,0.82008
6449.72152,0.81933
6447.79278,0.81588
6445.86403,0.81414
6443.93529,0.81592
6442.00654,0.81814
6440.07780,0.81965
6438.14906,0.82128
6436.22031,0.82187
6434.29157,0.82071
6432.36282,0.81872
6430.43408,0.81655
6428.50533,0.81522
6426.57659,0.81481
6424.64784,0.81481
6422.71910,0.81618
6420.79035,0.81799
6418.86161,0.81840
6416.93287,0.81896
6415.00412,0.81973
6413.07538,0.81874
6411.14663,0.81746
6409.21789,0.81777
6407.28914,0.81894
6405.36040,0.81926
6403.43165,0.81805
6401.50291,0.81757
6399.57417,0.81870
6397.64542,0.81887
6395.71668,0.81863
6393.78793,0.82032
6391.85919,0.82225
6389.93044,0.82137
6388.00170,0.81874
6386.07295,0.81805
6384.14421,0.81895
6382.21547,0.81849
6380.28672,0.81726
6378.35798,0.81777
6376.42923,0.81938
6374.50049,0.81928
6372.57174,0.81824
6370.64300,0.81883
6368.71425,0.81939
6366.78551,0.81818
6364.85677,0.81732
6362.92802,0.81799
6360.99928,0.81842
6359.07053,0.81738
6357.14179,0.81511
6355.21304,0.81323
6353.28430,0.81309
6351.35555,0.81385
6349.42681,0.81510
6347.49806,0.81675
6345.56932,0.81802
6343.64058,0.81970
6341.71183,0.82259
6339.78309,0.82489
6337.85434,0.82365
6335.92560,0.81895
6333.99685,0.81472
6332.06811,0.81456
6330.13936,0.81803
6328.21062,0.82102
6326.28188,0.82083
6324.35313,0.81931
6322.42439,0.81963
6320.49564,0.82126
6318.56690,0.82128
6316.63815,0.82002
6314.70941,0.81993
6312.78066,0.82140
6310.85192,0.82170
6308.92318,0.81908
6306.99443,0.81660
6305.06569,0.81667
6303.13694,0.81773
6301.20820,0.81842
6299.27945,0.81899
6297.35071,0.81915
6295.42196,0.81832
6293.49322,0.81760
6291.56447,0.81787
6289.63573,0.81770
6287.70699,0.81675
6285.77824,0.81720
6283.84950,0.81882
6281.92075,0.81921
6279.99201,0.81866
6278.06326,0.81829
6276.13452,0.81846
6274.20577,0.81950
6272.27703,0.82029
6270.34829,0.81976
6268.41954,0.81911
6266.49080,0.81919
6264.56205,0.81935
6262.63331,0.81870
6260.70456,0.81676
6258.77582,0.81551
6256.84707,0.81650
6254.91833,0.81814
6252.98959,0.82002
6251.06084,0.82179
6249.13210,0.82182
6247.20335,0.81995
6245.27461,0.81711
6243.34586,0.81541
6241.41712,0.81633
6239.48837,0.81768
6237.55963,0.81745
6235.63089,0.81742
6233.70214,0.81820
6231.77340,0.81744
6229.84465,0.81564
6227.91591,0.81502
6225.98716,0.81535
6224.05842,0.81586
6222.12967,0.81595
6220.20093,0.81564
6218.27218,0.81541
6216.34344,0.81446
6214.41470,0.81279
6212.48595,0.81122
6210.55721,0.80972
6208.62846,0.80861
6206.69972,0.80800
6204.77097,0.80802
6202.84223,0.80885
6200.91348,0.80899
6198.98474,0.80808
6197.05600,0.80771
6195.12725,0.80851
6193.19851,0.80988
6191.26976,0.80976
6189.34102,0.80693
6187.41227,0.80416
6185.48353,0.80366
6183.55478,0.80423
6181.62604,0.80504
6179.69730,0.80615
6177.76855,0.80761
6175.83981,0.80897
6173.91106,0.80946
6171.98232,0.80944
6170.05357,0.80945
6168.12483,0.80932
6166.19608,0.80809
6164.26734,0.80528
6162.33860,0.80304
6160.40985,0.80275
6158.48111,0.80240
6156.55236,0.80045
6154.62362,0.79839
6152.69487,0.79747
6150.76613,0.79649
6148.83738,0.79524
6146.90864,0.79489
6144.97989,0.79466
6143.05115,0.79325
6141.12241,0.79208
6139.19366,0.79334
6137.26492,0.79563
6135.33617,0.79613
6133.40743,0.79547
6131.47868,0.79499
6129.54994,0.79410
6127.62119,0.79304
6125.69245,0.79229
6123.76371,0.79170
6121.83496,0.79215
6119.90622,0.79353
6117.97747,0.79334
6116.04873,0.79007
6114.11998,0.78619
6112.19124,0.78492
6110.26249,0.78491
6108.33375,0.78268
6106.40501,0.77811
6104.47626,0.77398
6102.54752,0.77257
6100.61877,0.77281
6098.69003,0.77148
6096.76128,0.76715
6094.83254,0.76175
6092.90379,0.75840
6090.97505,0.75681
6089.04631,0.75395
6087.11756,0.74946
6085.18882,0.74621
6083.26007,0.74567
6081.33133,0.74590
6079.40258,0.74468
6077.47384,0.74192
6075.54509,0.73948
6073.61635,0.73842
6071.68760,0.73676
6069.75886,0.73364
6067.83012,0.73085
6065.90137,0.72871
6063.97263,0.72596
6062.04388,0.72208
6060.11514,0.71741
6058.18639,0.71327
6056.25765,0.71034
6054.32890,0.70762
6052.40016,0.70525
6050.47142,0.70424
6048.54267,0.70313
6046.61393,0.70031
6044.68518,0.69784
6042.75644,0.69712
6040.82769,0.69526
6038.89895,0.69149
6036.97020,0.68886
6035.04146,0.68793
6033.11272,0.68706
6031.18397,0.68469
6029.25523,0.68096
6027.32648,0.67887
6025.39774,0.67897
6023.46899,0.67858
6021.54025,0.67753
6019.61150,0.67689
6017.68276,0.67585
6015.75402,0.67464
6013.82527,0.67534
6011.89653,0.67801
6009.96778,0.68056
6008.03904,0.68322
6006.11029,0.68728
6004.18155,0.69096
6002.25280,0.69304
6000.32406,0.69560
5998.39531,0.69982
5996.46657,0.70348
5994.53783,0.70490
5992.60908,0.70507
5990.68034,0.70506
5988.75159,0.70645
5986.82285,0.70962
5984.89410,0.71181
5982.96536,0.71234
5981.03661,0.71305
5979.10787,0.71402
5977.17913,0.71444
5975.25038,0.71363
5973.32164,0.71188
5971.39289,0.71187
5969.46415,0.71482
5967.53540,0.71807
5965.60666,0.72019
5963.67791,0.72246
5961.74917,0.72503
5959.82043,0.72667
5957.89168,0.72706
5955.96294,0.72692
5954.03419,0.72718
5952.10545,0.72834
5950.17670,0.72946
5948.24796,0.72963
5946.31921,0.72977
5944.39047,0.73036
5942.46173,0.73084
5940.53298,0.73114
5938.60424,0.73182
5936.67549,0.73350
5934.74675,0.73566
5932.81800,0.73725
5930.88926,0.73857
5928.96051,0.74046
5927.03177,0.74283
5925.10302,0.74513
5923.17428,0.74738
5921.24554,0.74961
5919.31679,0.75111
5917.38805,0.75181
5915.45930,0.75275
5913.53056,0.75400
5911.60181,0.75532
5909.67307,0.75687
5907.74432,0.75821
5905.81558,0.75933
5903.88684,0.76012
5901.95809,0.76001
5900.02935,0.75953
5898.10060,0.75907
5896.17186,0.75834
5894.24311,0.75792
5892.31437,0.75821
5890.38562,0.75820
5888.45688,0.75666
5886.52814,0.75368
5884.59939,0.75144
5882.67065,0.75125
5880.74190,0.75090
5878.81316,0.74949
5876.88441,0.74922
5874.95567,0.75020
5873.02692,0.75046
5871.09818,0.74982
5869.16944,0.74873
5867.24069,0.74692
5865.31195,0.74491
5863.38320,0.74354
5861.45446,0.74338
5859.52571,0.74440
5857.59697,0.74566
5855.66822,0.74737
5853.73948,0.75014
5851.81073,0.75274
5849.88199,0.75396
5847.95325,0.75379
5846.02450,0.75263
5844.09576,0.75166
5842.16701,0.75157
5840.23827,0.75146
5838.30952,0.75094
5836.38078,0.75048
5834.45203,0.75002
5832.52329,0.74972
5830.59455,0.75016
5828.66580,0.75134
5826.73706,0.75216
5824.80831,0.75177
5822.87957,0.75089
5820.95082,0.75078
5819.02208,0.75122
5817.09333,0.75138
5815.16459,0.75136
5813.23585,0.75133
5811.30710,0.75142
5809.37836,0.75135
5807.44961,0.75036
5805.52087,0.74957
5803.59212,0.74999
5801.66338,0.75008
5799.73463,0.74916
5797.80589,0.74895
5795.87715,0.75004
5793.94840,0.75149
5792.01966,0.75280
5790.09091,0.75309
5788.16217,0.75224
5786.23342,0.75158
5784.30468,0.75159
5782.37593,0.75191
5780.44719,0.75236
5778.51844,0.75302
5776.58970,0.75335
5774.66096,0.75275
5772.73221,0.75255
5770.80347,0.75336
5768.87472,0.75351
5766.94598,0.75337
5765.01723,0.75461
5763.08849,0.75647
5761.15974,0.75780
5759.23100,0.75853
5757.30226,0.75876
5755.37351,0.75920
5753.44477,0.76023
5751.51602,0.76154
5749.58728,0.76305
5747.65853,0.76445
5745.72979,0.76557
5743.80104,0.76629
5741.87230,0.76644
5739.94356,0.76678
5738.01481,0.76804
5736.08607,0.76975
5734.15732,0.77134
5732.22858,0.77276
5730.29983,0.77369
5728.37109,0.77358
5726.44234,0.77290
5724.51360,0.77289
5722.58486,0.77363
5720.65611,0.77424
5718.72737,0.77391
5716.79862,0.77318
5714.86988,0.77317
5712.94113,0.77351
5711.01239,0.77389
5709.08364,0.77395
5707.15490,0.77295
5705.22615,0.77202
5703.29741,0.77238
5701.36867,0.77358
5699.43992,0.77497
5697.51118,0.77572
5695.58243,0.77566
5693.65369,0.77575
5691.72494,0.77647
5689.79620,0.77756
5687.86745,0.77792
5685.93871,0.77751
5684.00997,0.77801
5682.08122,0.77873
5680.15248,0.77828
5678.22373,0.77801
5676.29499,0.77833
5674.36624,0.77856
5672.43750,0.77939
5670.50875,0.78093
5668.58001,0.78169
5666.65127,0.78080
5664.72252,0.77957
5662.79378,0.77927
5660.86503,0.77905
5658.93629,0.77824
5657.00754,0.77765
5655.07880,0.77783
5653.15005,0.77844
5651.22131,0.77890
5649.29257,0.77934
5647.36382,0.78008
5645.43508,0.78084
5643.50633,0.78152
5641.57759,0.78228
5639.64884,0.78303
5637.72010,0.78375
5635.79135,0.78455
5633.86261,0.78547
5631.93386,0.78663
5630.00512,0.78803
5628.07638,0.78905
5626.14763,0.78901
5624.21889,0.78852
5622.29014,0.78881
5620.36140,0.78964
5618.43265,0.79021
5616.50391,0.79033
5614.57516,0.78974
5612.64642,0.78873
5610.71768,0.78815
5608.78893,0.78825
5606.86019,0.78816
5604.93144,0.78706
5603.00270,0.78622
5601.07395,0.78709
5599.14521,0.78854
5597.21646,0.78893
5595.28772,0.78846
5593.35898,0.78821
5591.43023,0.78812
5589.50149,0.78748
5587.57274,0.78642
5585.64400,0.78582
5583.71525,0.78598
5581.78651,0.78643
5579.85776,0.78647
5577.92902,0.78549
5576.00028,0.78430
5574.07153,0.78396
5572.14279,0.78362
5570.21404,0.78259
5568.28530,0.78203
5566.35655,0.78258
5564.42781,0.78333
5562.49906,0.78334
5560.57032,0.78240
5558.64157,0.78136
5556.71283,0.78144
5554.78409,0.78255
5552.85534,0.78352
5550.92660,0.78356
5548.99785,0.78271
5547.06911,0.78186
5545.14036,0.78217
5543.21162,0.78347
5541.28287,0.78430
5539.35413,0.78386
5537.42539,0.78296
5535.49664,0.78256
5533.56790,0.78254
5531.63915,0.78264
5529.71041,0.78280
5527.78166,0.78338
5525.85292,0.78444
5523.92417,0.78498
5521.99543,0.78503
5520.06669,0.78507
5518.13794,0.78485
5516.20920,0.78487
5514.28045,0.78544
5512.35171,0.78616
5510.42296,0.78669
5508.49422,0.78655
5506.56547,0.78621
5504.63673,0.78662
5502.70799,0.78726
5500.77924,0.78729
5498.85050,0.78696
5496.92175,0.78615
5494.99301,0.78483
5493.06426,0.78415
5491.13552,0.78413
5489.20677,0.78390
5487.27803,0.78344
5485.34928,0.78296
5483.42054,0.78264
5481.49180,0.78251
5479.56305,0.78235
5477.63431,0.78235
5475.70556,0.78282
5473.77682,0.78340
5471.84807,0.78338
5469.91933,0.78268
5467.99058,0.78230
5466.06184,0.78294
5464.13310,0.78370
5462.20435,0.78404
5460.27561,0.78494
5458.34686,0.78643
5456.41812,0.78711
5454.48937,0.78658
5452.56063,0.78614
5450.63188,0.78659
5448.70314,0.78734
5446.77440,0.78794
5444.84565,0.78814
5442.91691,0.78805
5440.98816,0.78867
5439.05942,0.78992
5437.13067,0.79102
5435.20193,0.79249
5433.27318,0.79425
5431.34444,0.79466
5429.41569,0.79363
5427.48695,0.79334
5425.55821,0.79475
5423.62946,0.79620
5421.70072,0.79643
5419.77197,0.79641
5417.84323,0.79702
5415.91448,0.79757
5413.98574,0.79758
5412.05699,0.79734
5410.12825,0.79657
5408.19951,0.79539
5406.27076,0.79512
5404.34202,0.79613
5402.41327,0.79685
5400.48453,0.79661
5398.55578,0.79650
5396.62704,0.79655
5394.69829,0.79584
5392.76955,0.79511
5390.84081,0.79513
5388.91206,0.79550
5386.98332,0.79601
5385.05457,0.79615
5383.12583,0.79592
5381.19708,0.79623
5379.26834,0.79668
5377.33959,0.79671
5375.41085,0.79685
5373.48211,0.79733
5371.55336,0.79762
5369.62462,0.79730
5367.69587,0.79673
5365.76713,0.79626
5363.83838,0.79532
5361.90964,0.79387
5359.98089,0.79293
5358.05215,0.79288
5356.12340,0.79302
5354.19466,0.79302
5352.26592,0.79337
5350.33717,0.79407
5348.40843,0.79439
5346.47968,0.79434
5344.55094,0.79464
5342.62219,0.79516
5340.69345,0.79575
5338.76470,0.79668
5336.83596,0.79694
5334.90722,0.79589
5332.97847,0.79535
5331.04973,0.79642
5329.12098,0.79754
5327.19224,0.79748
5325.26349,0.79684
5323.33475,0.79644
5321.40600,0.79641
5319.47726,0.79670
5317.54852,0.79742
5315.61977,0.79817
5313.69103,0.79823
5311.76228,0.79775
5309.83354,0.79752
5307.90479,0.79753
5305.97605,0.79715
5304.04730,0.79655
5302.11856,0.79624
5300.18982,0.79575
5298.26107,0.79492
5296.33233,0.79431
5294.40358,0.79395
5292.47484,0.79393
5290.54609,0.79454
5288.61735,0.79497
5286.68860,0.79439
5284.75986,0.79327
5282.83111,0.79227
5280.90237,0.79140
5278.97363,0.79050
5277.04488,0.78966
5275.11614,0.78939
5273.18739,0.78982
5271.25865,0.78961
5269.32990,0.78802
5267.40116,0.78659
5265.47241,0.78627
5263.54367,0.78610
5261.61493,0.78545
5259.68618,0.78462
5257.75744,0.78379
5255.82869,0.78364
5253.89995,0.78469
5251.97120,0.78570
5250.04246,0.78530
5248.11371,0.78398
5246.18497,0.78287
5244.25623,0.78228
5242.32748,0.78217
5240.39874,0.78247
5238.46999,0.78300
5236.54125,0.78331
5234.61250,0.78299
5232.68376,0.78235
5230.75501,0.78196
5228.82627,0.78157
5226.89753,0.78068
5224.96878,0.78027
5223.04004,0.78133
5221.11129,0.78234
5219.18255,0.78186
5217.25380,0.78100
5215.32506,0.78110
5213.39631,0.78184
5211.46757,0.78211
5209.53882,0.78167
5207.61008,0.78147
5205.68134,0.78188
5203.75259,0.78231
5201.82385,0.78219
5199.89510,0.78167
5197.96636,0.78147
5196.03761,0.78167
5194.10887,0.78180
5192.18012,0.78195
5190.25138,0.78260
5188.32264,0.78347
5186.39389,0.78334
5184.46515,0.78209
5182.53640,0.78114
5180.60766,0.78107
5178.67891,0.78134
5176.75017,0.78168
5174.82142,0.78217
5172.89268,0.78273
5170.96394,0.78247
5169.03519,0.78100
5167.10645,0.77959
5165.17770,0.77878
5163.24896,0.77791
5161.32021,0.77725
5159.39147,0.77712
5157.46272,0.77703
5155.53398,0.77682
5153.60524,0.77647
5151.67649,0.77585
5149.74775,0.77497
5147.81900,0.77408
5145.89026,0.77392
5143.96151,0.77405
5142.03277,0.77315
5140.10402,0.77167
5138.17528,0.77052
5136.24653,0.76936
5134.31779,0.76848
5132.38905,0.76809
5130.46030,0.76707
5128.53156,0.76543
5126.60281,0.76413
5124.67407,0.76311
5122.74532,0.76217
5120.81658,0.76166
5118.88783,0.76163
5116.95909,0.76189
5115.03035,0.76235
5113.10160,0.76317
5111.17286,0.76458
5109.24411,0.76651
5107.31537,0.76879
5105.38662,0.77071
5103.45788,0.77186
5101.52913,0.77288
5099.60039,0.77384
5097.67165,0.77466
5095.74290,0.77592
5093.81416,0.77751
5091.88541,0.77884
5089.95667,0.77990
5088.02792,0.78085
5086.09918,0.78148
5084.17043,0.78154
5082.24169,0.78141
5080.31295,0.78162
5078.38420,0.78230
5076.45546,0.78309
5074.52671,0.78358
5072.59797,0.78385
5070.66922,0.78413
5068.74048,0.78441
5066.81173,0.78457
5064.88299,0.78484
5062.95424,0.78545
5061.02550,0.78597
5059.09676,0.78622
5057.16801,0.78653
5055.23927,0.78678
5053.31052,0.78685
5051.38178,0.78714
5049.45303,0.78773
5047.52429,0.78787
5045.59554,0.78717
5043.66680,0.78671
5041.73806,0.78736
5039.80931,0.78804
5037.88057,0.78751
5035.95182,0.78653
5034.02308,0.78610
5032.09433,0.78587
5030.16559,0.78588
5028.23684,0.78640
5026.30810,0.78672
5024.37936,0.78655
5022.45061,0.78637
5020.52187,0.78611
5018.59312,0.78556
5016.66438,0.78542
5014.73563,0.78585
5012.80689,0.78582
5010.87814,0.78540
5008.94940,0.78550
5007.02066,0.78580
5005.09191,0.78604
5003.16317,0.78661
5001.23442,0.78710
4999.30568,0.78700
4997.37693,0.78684
4995.44819,0.78709
4993.51944,0.78740
4991.59070,0.78729
4989.66195,0.78676
4987.73321,0.78612
4985.80447,0.78559
4983.87572,0.78536
4981.94698,0.78566
4980.01823,0.78639
4978.08949,0.78702
4976.16074,0.78713
4974.23200,0.78660
4972.30325,0.78597
4970.37451,0.78610
4968.44577,0.78682
4966.51702,0.78720
4964.58828,0.78686
4962.65953,0.78583
4960.73079,0.78449
4958.80204,0.78369
4956.87330,0.78357
4954.94455,0.78341
4953.01581,0.78275
4951.08707,0.78177
4949.15832,0.78096
4947.22958,0.78075
4945.30083,0.78117
4943.37209,0.78139
4941.44334,0.78080
4939.51460,0.77990
4937.58585,0.77930
4935.65711,0.77907
4933.72837,0.77871
4931.79962,0.77786
4929.87088,0.77707
4927.94213,0.77684
4926.01339,0.77686
4924.08464,0.77660
4922.15590,0.77598
4920.22715,0.77559
4918.29841,0.77564
4916.36966,0.77574
4914.44092,0.77538
4912.51218,0.77461
4910.58343,0.77425
4908.65469,0.77419
4906.72594,0.77348
4904.79720,0.77225
4902.86845,0.77145
4900.93971,0.77136
4899.01096,0.77123
4897.08222,0.77069
4895.15348,0.77047
4893.22473,0.77056
4891.29599,0.77022
4889.36724,0.76941
4887.43850,0.76840
4885.50975,0.76753
4883.58101,0.76752
4881.65226,0.76824
4879.72352,0.76855
4877.79478,0.76789
4875.86603,0.76709
4873.93729,0.76717
4872.00854,0.76789
4870.07980,0.76845
4868.15105,0.76866
4866.22231,0.76875
4864.29356,0.76865
4862.36482,0.76807
4860.43608,0.76740
4858.50733,0.76717
4856.57859,0.76725
4854.64984,0.76728
4852.72110,0.76688
4850.79235,0.76582
4848.86361,0.76448
4846.93486,0.76317
4845.00612,0.76197
4843.07737,0.76126
4841.14863,0.76080
4839.21989,0.76001
4837.29114,0.75928
4835.36240,0.75855
4833.43365,0.75719
4831.50491,0.75532
4829.57616,0.75347
4827.64742,0.75206
4825.71867,0.75086
4823.78993,0.74966
4821.86119,0.74884
4819.93244,0.74824
4818.00370,0.74746
4816.07495,0.74654
4814.14621,0.74532
4812.21746,0.74386
4810.28872,0.74253
4808.35997,0.74126
4806.43123,0.74018
4804.50249,0.73982
4802.57374,0.73990
4800.64500,0.73956
4798.71625,0.73885
4796.78751,0.73847
4794.85876,0.73862
4792.93002,0.73892
4791.00127,0.73911
4789.07253,0.73925
4787.14379,0.73939
4785.21504,0.73952
4783.28630,0.73995
4781.35755,0.74084
4779.42881,0.74173
4777.50006,0.74223
4775.57132,0.74283
4773.64257,0.74388
4771.71383,0.74479
4769.78508,0.74521
4767.85634,0.74531
4765.92760,0.74517
4763.99885,0.74474
4762.07011,0.74380
4760.14136,0.74244
4758.21262,0.74126
4756.28387,0.74015
4754.35513,0.73844
4752.42638,0.73621
4750.49764,0.73397
4748.56890,0.73171
4746.64015,0.72947
4744.71141,0.72752
4742.78266,0.72575
4740.85392,0.72369
4738.92517,0.72115
4736.99643,0.71860
4735.06768,0.71628
4733.13894,0.71361
4731.21020,0.71003
4729.28145,0.70578
4727.35271,0.70147
4725.42396,0.69757
4723.49522,0.69419
4721.56647,0.69134
4719.63773,0.68944
4717.70898,0.68846
4715.78024,0.68753
4713.85150,0.68654
4711.92275,0.68592
4709.99401,0.68531
4708.06526,0.68410
4706.13652,0.68190
4704.20777,0.67831
4702.27903,0.67355
4700.35028,0.66860
4698.42154,0.66380
4696.49279,0.65913
4694.56405,0.65533
4692.63531,0.65289
4690.70656,0.65170
4688.77782,0.65188
4686.84907,0.65348
4684.92033,0.65623
4682.99158,0.66011
4681.06284,0.66470
4679.13409,0.66929
4677.20535,0.67376
4675.27661,0.67811
4673.34786,0.68235
4671.41912,0.68660
4669.49037,0.69038
4667.56163,0.69301
4665.63288,0.69447
4663.70414,0.69518
4661.77539,0.69589
4659.84665,0.69692
4657.91791,0.69747
4655.98916,0.69727
4654.06042,0.69673
4652.13167,0.69533
4650.20293,0.69271
4648.27418,0.68949
4646.34544,0.68585
4644.41669,0.68176
4642.48795,0.67770
4640.55921,0.67403
4638.63046,0.67098
4636.70172,0.66889
4634.77297,0.66803
4632.84423,0.66885
4630.91548,0.67160
4628.98674,0.67581
4627.05799,0.68089
4625.12925,0.68662
4623.20050,0.69254
4621.27176,0.69797
4619.34302,0.70300
4617.41427,0.70785
4615.48553,0.71195
4613.55678,0.71475
4611.62804,0.71635
4609.69929,0.71726
4607.77055,0.71772
4605.84180,0.71755
4603.91306,0.71681
4601.98432,0.71547
4600.05557,0.71331
4598.12683,0.71025
4596.19808,0.70641
4594.26934,0.70279
4592.34059,0.70050
4590.41185,0.69936
4588.48310,0.69829
4586.55436,0.69673
4584.62562,0.69512
4582.69687,0.69367
4580.76813,0.69216
4578.83938,0.69176
4576.91064,0.69389
4574.98189,0.69764
4573.05315,0.70152
4571.12440,0.70567
4569.19566,0.71042
4567.26692,0.71504
4565.33817,0.71907
4563.40943,0.72239
4561.48068,0.72455
4559.55194,0.72559
4557.62319,0.72615
4555.69445,0.72664
4553.76570,0.72722
4551.83696,0.72750
4549.90821,0.72702
4547.97947,0.72649
4546.05073,0.72658
4544.12198,0.72668
4542.19324,0.72624
4540.26449,0.72567
4538.33575,0.72551
4536.40700,0.72566
4534.47826,0.72540
4532.54951,0.72451
4530.62077,0.72368
4528.69203,0.72350
4526.76328,0.72356
4524.83454,0.72289
4522.90579,0.72128
4520.97705,0.71930
4519.04830,0.71768
4517.11956,0.71656
4515.19081,0.71514
4513.26207,0.71288
4511.33333,0.71024
4509.40458,0.70759
4507.47584,0.70486
4505.54709,0.70196
4503.61835,0.69867
4501.68960,0.69474
4499.76086,0.69027
4497.83211,0.68542
4495.90337,0.68036
4493.97462,0.67535
4492.04588,0.67057
4490.11714,0.66617
4488.18839,0.66251
4486.25965,0.66009
4484.33090,0.65852
4482.40216,0.65677
4480.47341,0.65476
4478.54467,0.65264
4476.61592,0.65005
4474.68718,0.64682
4472.75844,0.64267
4470.82969,0.63722
4468.90095,0.63093
4466.97220,0.62442
4465.04346,0.61760
4463.11471,0.61061
4461.18597,0.60422
4459.25722,0.59957
4457.32848,0.59724
4455.39974,0.59682
4453.47099,0.59762
4451.54225,0.59882
4449.61350,0.59953
4447.68476,0.59925
4445.75601,0.59803
4443.82727,0.59637
4441.89852,0.59466
4439.96978,0.59287
4438.04104,0.59100
4436.11229,0.58923
4434.18355,0.58801
4432.25480,0.58767
4430.32606,0.58812
4428.39731,0.58933
4426.46857,0.59175
4424.53982,0.59536
4422.61108,0.59926
4420.68233,0.60280
4418.75359,0.60591
4416.82485,0.60827
4414.89610,0.60970
4412.96736,0.61054
4411.03861,0.61096
4409.10987,0.61106
4407.18112,0.61122
4405.25238,0.61172
4403.32363,0.61263
4401.39489,0.61399
4399.46615,0.61559
4397.53740,0.61703
4395.60866,0.61837
4393.67991,0.62001
4391.75117,0.62198
4389.82242,0.62387
4387.89368,0.62536
4385.96493,0.62656
4384.03619,0.62760
4382.10745,0.62826
4380.17870,0.62861
4378.24996,0.62889
4376.32121,0.62901
4374.39247,0.62895
4372.46372,0.62881
4370.53498,0.62859
4368.60623,0.62829
4366.67749,0.62770
4364.74875,0.62666
4362.82000,0.62556
4360.89126,0.62493
4358.96251,0.62485
4357.03377,0.62501
4355.10502,0.62499
4353.17628,0.62479
4351.24753,0.62452
4349.31879,0.62403
4347.39004,0.62313
4345.46130,0.62161
4343.53256,0.61965
4341.60381,0.61798
4339.67507,0.61693
4337.74632,0.61637
4335.81758,0.61617
4333.88883,0.61607
4331.96009,0.61592
4330.03134,0.61593
4328.10260,0.61623
4326.17386,0.61676
4324.24511,0.61719
4322.31637,0.61720
4320.38762,0.61684
4318.45888,0.61620
4316.53013,0.61537
4314.60139,0.61448
4312.67264,0.61318
4310.74390,0.61110
4308.81516,0.60854
4306.88641,0.60604
4304.95767,0.60376
4303.02892,0.60162
4301.10018,0.59953
4299.17143,0.59750
4297.24269,0.59573
4295.31394,0.59456
4293.38520,0.59403
4291.45646,0.59381
4289.52771,0.59362
4287.59897,0.59361
4285.67022,0.59435
4283.74148,0.59592
4281.81273,0.59738
4279.88399,0.59806
4277.95524,0.59845
4276.02650,0.59906
4274.09775,0.59989
4272.16901,0.60077
4270.24027,0.60180
4268.31152,0.60304
4266.38278,0.60404
4264.45403,0.60457
4262.52529,0.60525
4260.59654,0.60630
4258.66780,0.60702
4256.73905,0.60708
4254.81031,0.60656
4252.88157,0.60553
4250.95282,0.60447
4249.02408,0.60395
4247.09533,0.60384
4245.16659,0.60388
4243.23784,0.60403
4241.30910,0.60424
4239.38035,0.60470
4237.45161,0.60553
4235.52287,0.60619
4233.59412,0.60619
4231.66538,0.60580
4229.73663,0.60542
4227.80789,0.60513
4225.87914,0.60521
4223.95040,0.60604
4222.02165,0.60756
4220.09291,0.60935
4218.16417,0.61109
4216.23542,0.61286
4214.30668,0.61465
4212.37793,0.61603
4210.44919,0.61686
4208.52044,0.61741
4206.59170,0.61776
4204.66295,0.61799
4202.73421,0.61842
4200.80546,0.61895
4198.87672,0.61939
4196.94798,0.61981
4195.01923,0.62011
4193.09049,0.62001
4191.16174,0.61917
4189.23300,0.61753
4187.30425,0.61550
4185.37551,0.61319
4183.44676,0.61025
4181.51802,0.60699
4179.58928,0.60458
4177.66053,0.60383
4175.73179,0.60459
4173.80304,0.60620
4171.87430,0.60826
4169.94555,0.61074
4168.01681,0.61354
4166.08806,0.61630
4164.15932,0.61884
4162.23058,0.62117
4160.30183,0.62327
4158.37309,0.62499
4156.44434,0.62621
4154.51560,0.62681
4152.58685,0.62712
4150.65811,0.62758
4148.72936,0.62771
4146.80062,0.62691
4144.87188,0.62555
4142.94313,0.62382
4141.01439,0.62121
4139.08564,0.61808
4137.15690,0.61552
4135.22815,0.61385
4133.29941,0.61263
4131.37066,0.61144
4129.44192,0.61024
4127.51317,0.60954
4125.58443,0.60954
4123.65569,0.60951
4121.72694,0.60887
4119.79820,0.60785
4117.86945,0.60657
4115.94071,0.60487
4114.01196,0.60291
4112.08322,0.60058
4110.15447,0.59744
4108.22573,0.59355
4106.29699,0.58950
4104.36824,0.58555
4102.43950,0.58116
4100.51075,0.57534
4098.58201,0.56739
4096.65326,0.55788
4094.72452,0.54865
4092.79577,0.54209
4090.86703,0.53974
4088.93829,0.54140
4087.00954,0.54548
4085.08080,0.55051
4083.15205,0.55614
4081.22331,0.56245
4079.29456,0.56926
4077.36582,0.57648
4075.43707,0.58348
4073.50833,0.58938
4071.57959,0.59418
4069.65084,0.59807
4067.72210,0.60097
4065.79335,0.60335
4063.86461,0.60569
4061.93586,0.60767
4060.00712,0.60921
4058.07837,0.61061
4056.14963,0.61203
4054.22088,0.61373
4052.29214,0.61552
4050.36340,0.61675
4048.43465,0.61768
4046.50591,0.61906
4044.57716,0.62102
4042.64842,0.62318
4040.71967,0.62511
4038.79093,0.62663
4036.86218,0.62790
4034.93344,0.62893
4033.00470,0.62964
4031.07595,0.63033
4029.14721,0.63119
4027.21846,0.63172
4025.28972,0.63177
4023.36097,0.63186
4021.43223,0.63199
4019.50348,0.63173
4017.57474,0.63138
4015.64600,0.63140
4013.71725,0.63149
4011.78851,0.63139
4009.85976,0.63137
4007.93102,0.63165
4006.00227,0.63218
4004.07353,0.63278
4002.14478,0.63320
4000.21604,0.63350
3998.28730,0.63395
3996.35855,0.63467
3994.42981,0.63539
3992.50106,0.63608
3990.57232,0.63702
3988.64357,0.63815
3986.71483,0.63905
3984.78608,0.63964
3982.85734,0.64003
3980.92859,0.64018
3978.99985,0.64023
3977.07111,0.64034
3975.14236,0.64029
3973.21362,0.64001
3971.28487,0.63998
3969.35613,0.64035
3967.42738,0.64093
3965.49864,0.64185
3963.56989,0.64312
3961.64115,0.64425
3959.71241,0.64506
3957.78366,0.64591
3955.85492,0.64706
3953.92617,0.64837
3951.99743,0.64943
3950.06868,0.65016
3948.13994,0.65103
3946.21119,0.65211
3944.28245,0.65286
3942.35371,0.65321
3940.42496,0.65356
3938.49622,0.65386
3936.56747,0.65391
3934.63873,0.65402
3932.70998,0.65430
3930.78124,0.65431
3928.85249,0.65410
3926.92375,0.65416
3924.99501,0.65437
3923.06626,0.65450
3921.13752,0.65469
3919.20877,0.65492
3917.28003,0.65521
3915.35128,0.65576
3913.42254,0.65661
3911.49379,0.65768
3909.56505,0.65875
3907.63630,0.65968
3905.70756,0.66055
3903.77882,0.66166
3901.85007,0.66331
3899.92133,0.66531
3897.99258,0.66724
3896.06384,0.66891
3894.13509,0.67040
3892.20635,0.67194
3890.27760,0.67347
3888.34886,0.67470
3886.42012,0.67555
3884.49137,0.67595
3882.56263,0.67612
3880.63388,0.67654
3878.70514,0.67735
3876.77639,0.67817
3874.84765,0.67881
3872.91890,0.67955
3870.99016,0.68052
3869.06142,0.68131
3867.13267,0.68190
3865.20393,0.68257
3863.27518,0.68313
3861.34644,0.68323
3859.41769,0.68322
3857.48895,0.68368
3855.56020,0.68469
3853.63146,0.68559
3851.70272,0.68567
3849.77397,0.68524
3847.84523,0.68504
3845.91648,0.68524
3843.98774,0.68549
3842.05899,0.68555
3840.13025,0.68536
3838.20150,0.68508
3836.27276,0.68488
3834.34401,0.68477
3832.41527,0.68473
3830.48653,0.68468
3828.55778,0.68466
3826.62904,0.68464
3824.70029,0.68445
3822.77155,0.68399
3820.84280,0.68293
3818.91406,0.68111
3816.98531,0.67888
3815.05657,0.67640
3813.12783,0.67392
3811.19908,0.67203
3809.27034,0.67105
3807.34159,0.67079
3805.41285,0.67088
3803.48410,0.67124
3801.55536,0.67203
3799.62661,0.67329
3797.69787,0.67489
3795.76913,0.67655
3793.84038,0.67791
3791.91164,0.67908
3789.98289,0.68008
3788.05415,0.68049
3786.12540,0.68042
3784.19666,0.68028
3782.26791,0.67996
3780.33917,0.67931
3778.41043,0.67848
3776.48168,0.67752
3774.55294,0.67641
3772.62419,0.67523
3770.69545,0.67388
3768.76670,0.67229
3766.83796,0.67052
3764.90921,0.66843
3762.98047,0.66613
3761.05172,0.66416
3759.12298,0.66320
3757.19424,0.66384
3755.26549,0.66589
3753.33675,0.66903
3751.40800,0.67324
3749.47926,0.67750
3747.55051,0.68060
3745.62177,0.68277
3743.69302,0.68424
3741.76428,0.68456
3739.83554,0.68388
3737.90679,0.68235
3735.97805,0.67995
3734.04930,0.67732
3732.12056,0.67568
3730.19181,0.67570
3728.26307,0.67721
3726.33432,0.67984
3724.40558,0.68300
3722.47684,0.68579
3720.54809,0.68749
3718.61935,0.68812
3716.69060,0.68823
3714.76186,0.68804
3712.83311,0.68738
3710.90437,0.68603
3708.97562,0.68374
3707.04688,0.68047
3705.11814,0.67648
3703.18939,0.67205
3701.26065,0.66718
3699.33190,0.66215
3697.40316,0.65711
3695.47441,0.65139
3693.54567,0.64430
3691.61692,0.63598
3689.68818,0.62738
3687.75943,0.62059
3685.83069,0.61814
3683.90195,0.62046
3681.97320,0.62590
3680.04446,0.63239
3678.11571,0.63902
3676.18697,0.64577
3674.25822,0.65149
3672.32948,0.65463
3670.40073,0.65561
3668.47199,0.65543
3666.54325,0.65460
3664.61450,0.65300
3662.68576,0.65066
3660.75701,0.64801
3658.82827,0.64537
3656.89952,0.64249
3654.97078,0.63917
3653.04203,0.63600
3651.11329,0.63316
3649.18455,0.63012
3647.25580,0.62677
3645.32706,0.62336
3643.39831,0.61983
3641.46957,0.61654
3639.54082,0.61394
3637.61208,0.61158
3635.68333,0.60903
3633.75459,0.60639
3631.82584,0.60383
3629.89710,0.60121
3627.96836,0.59828
3626.03961,0.59530
3624.11087,0.59268
3622.18212,0.59033
3620.25338,0.58793
3618.32463,0.58531
3616.39589,0.58264
3614.46714,0.58011
3612.53840,0.57761
3610.60966,0.57506
3608.68091,0.57248
3606.75217,0.56995
3604.82342,0.56732
3602.89468,0.56429
3600.96593,0.56087
3599.03719,0.55715
3597.10844,0.55322
3595.17970,0.54917
3593.25096,0.54495
3591.32221,0.54053
3589.39347,0.53607
3587.46472,0.53173
3585.53598,0.52727
3583.60723,0.52237
3581.67849,0.51715
3579.74974,0.51209
3577.82100,0.50724
3575.89226,0.50231
3573.96351,0.49751
3572.03477,0.49323
3570.10602,0.48924
3568.17728,0.48511
3566.24853,0.48091
3564.31979,0.47700
3562.39104,0.47337
3560.46230,0.46993
3558.53355,0.46675
3556.60481,0.46378
3554.67607,0.46122
3552.74732,0.45924
3550.81858,0.45761
3548.88983,0.45614
3546.96109,0.45494
3545.03234,0.45398
3543.10360,0.45324
3541.17485,0.45291
3539.24611,0.45286
3537.31737,0.45285
3535.38862,0.45282
3533.45988,0.45284
3531.53113,0.45291
3529.60239,0.45318
3527.67364,0.45383
3525.74490,0.45445
3523.81615,0.45465
3521.88741,0.45483
3519.95867,0.45544
3518.02992,0.45613
3516.10118,0.45660
3514.17243,0.45699
3512.24369,0.45714
3510.31494,0.45708
3508.38620,0.45715
3506.45745,0.45734
3504.52871,0.45754
3502.59997,0.45764
3500.67122,0.45751
3498.74248,0.45713
3496.81373,0.45647
3494.88499,0.45560
3492.95624,0.45463
3491.02750,0.45357
3489.09875,0.45252
3487.17001,0.45146
3485.24126,0.45017
3483.31252,0.44867
3481.38378,0.44698
3479.45503,0.44509
3477.52629,0.44315
3475.59754,0.44093
3473.66880,0.43823
3471.74005,0.43547
3469.81131,0.43271
3467.88256,0.42943
3465.95382,0.42560
3464.02508,0.42147
3462.09633,0.41713
3460.16759,0.41288
3458.23884,0.40869
3456.31010,0.40412
3454.38135,0.39920
3452.45261,0.39413
3450.52386,0.38894
3448.59512,0.38388
3446.66638,0.37895
3444.73763,0.37362
3442.80889,0.36773
3440.88014,0.36157
3438.95140,0.35526
3437.02265,0.34875
3435.09391,0.34207
3433.16516,0.33635
3431.23642,0.33371
3429.30768,0.33523
3427.37893,0.34048
3425.45019,0.34854
3423.52144,0.35786
3421.59270,0.36678
3419.66395,0.37480
3417.73521,0.38242
3415.80646,0.38967
3413.87772,0.39588
3411.94897,0.40104
3410.02023,0.40583
3408.09149,0.41054
3406.16274,0.41500
3404.23400,0.41887
3402.30525,0.42188
3400.37651,0.42426
3398.44776,0.42631
3396.51902,0.42800
3394.59027,0.42923
3392.66153,0.43028
3390.73279,0.43144
3388.80404,0.43254
3386.87530,0.43298
3384.94655,0.43270
3383.01781,0.43245
3381.08906,0.43266
3379.16032,0.43285
3377.23157,0.43266
3375.30283,0.43237
3373.37409,0.43212
3371.44534,0.43169
3369.51660,0.43115
3367.58785,0.43043
3365.65911,0.42929
3363.73036,0.42795
3361.80162,0.42668
3359.87287,0.42533
3357.94413,0.42377
3356.01539,0.42205
3354.08664,0.42011
3352.15790,0.41783
3350.22915,0.41545
3348.30041,0.41323
3346.37166,0.41104
3344.44292,0.40885
3342.51417,0.40703
3340.58543,0.40566
3338.65668,0.40441
3336.72794,0.40339
3334.79920,0.40317
3332.87045,0.40392
3330.94171,0.40543
3329.01296,0.40750
3327.08422,0.40992
3325.15547,0.41222
3323.22673,0.41389
3321.29798,0.41484
3319.36924,0.41548
3317.44050,0.41592
3315.51175,0.41597
3313.58301,0.41592
3311.65426,0.41588
3309.72552,0.41557
3307.79677,0.41505
3305.86803,0.41445
3303.93928,0.41364
3302.01054,0.41301
3300.08180,0.41314
3298.15305,0.41393
3296.22431,0.41485
3294.29556,0.41583
3292.36682,0.41696
3290.43807,0.41809
3288.50933,0.41928
3286.58058,0.42068
3284.65184,0.42198
3282.72310,0.42269
3280.79435,0.42313
3278.86561,0.42389
3276.93686,0.42484
3275.00812,0.42575
3273.07937,0.42683
3271.15063,0.42790
3269.22188,0.42859
3267.29314,0.42914
3265.36439,0.42988
3263.43565,0.43062
3261.50691,0.43114
3259.57816,0.43150
3257.64942,0.43191
3255.72067,0.43242
3253.79193,0.43279
3251.86318,0.43310
3249.93444,0.43355
3248.00569,0.43386
3246.07695,0.43376
3244.14821,0.43361
3242.21946,0.43368
3240.29072,0.43382
3238.36197,0.43391
3236.43323,0.43426
3234.50448,0.43495
3232.57574,0.43535
3230.64699,0.43554
3228.71825,0.43617
3226.78951,0.43722
3224.86076,0.43852
3222.93202,0.43993
3221.00327,0.44124
3219.07453,0.44276
3217.14578,0.44426
3215.21704,0.44492
3213.28829,0.44511
3211.35955,0.44586
3209.43081,0.44684
3207.50206,0.44726
3205.57332,0.44729
3203.64457,0.44738
3201.71583,0.44737
3199.78708,0.44697
3197.85834,0.44645
3195.92959,0.44618
3194.00085,0.44616
3192.07210,0.44644
3190.14336,0.44693
3188.21462,0.44721
3186.28587,0.44736
3184.35713,0.44791
3182.42838,0.44878
3180.49964,0.44926
3178.57089,0.44907
3176.64215,0.44888
3174.71340,0.44923
3172.78466,0.44971
3170.85592,0.44976
3168.92717,0.44941
3166.99843,0.44928
3165.06968,0.44952
3163.14094,0.44953
3161.21219,0.44915
3159.28345,0.44880
3157.35470,0.44846
3155.42596,0.44805
3153.49722,0.44764
3151.56847,0.44702
3149.63973,0.44582
3147.71098,0.44438
3145.78224,0.44328
3143.85349,0.44250
3141.92475,0.44152
3139.99600,0.44002
3138.06726,0.43800
3136.13852,0.43568
3134.20977,0.43324
3132.28103,0.43075
3130.35228,0.42851
3128.42354,0.42705
3126.49479,0.42664
3124.56605,0.42718
3122.63730,0.42799
3120.70856,0.42819
3118.77981,0.42737
3116.85107,0.42554
3114.92233,0.42273
3112.99358,0.41916
3111.06484,0.41511
3109.13609,0.41066
3107.20735,0.40611
3105.27860,0.40224
3103.34986,0.40007
3101.42111,0.40035
3099.49237,0.40275
3097.56363,0.40597
3095.63488,0.40872
3093.70614,0.41002
3091.77739,0.40927
3089.84865,0.40655
3087.91990,0.40250
3085.99116,0.39795
3084.06241,0.39360
3082.13367,0.39002
3080.20493,0.38781
3078.27618,0.38721
3076.34744,0.38730
3074.41869,0.38682
3072.48995,0.38545
3070.56120,0.38372
3068.63246,0.38250
3066.70371,0.38237
3064.77497,0.38299
3062.84623,0.38300
3060.91748,0.38078
3058.98874,0.37606
3057.05999,0.37065
3055.13125,0.36776
3053.20250,0.37004
3051.27376,0.37746
3049.34501,0.38796
3047.41627,0.39949
3045.48752,0.41010
3043.55878,0.41797
3041.63004,0.42261
3039.70129,0.42483
3037.77255,0.42538
3035.84380,0.42452
3033.91506,0.42223
3031.98631,0.41862
3030.05757,0.41400
3028.12882,0.40855
3026.20008,0.40226
3024.27134,0.39463
3022.34259,0.38504
3020.41385,0.37362
3018.48510,0.36139
3016.55636,0.35027
3014.62761,0.34249
3012.69887,0.33877
3010.77012,0.33753
3008.84138,0.33689
3006.91264,0.33608
3004.98389,0.33486
3003.05515,0.33318
3001.12640,0.33127
2999.19766,0.32918
2997.26891,0.32663
2995.34017,0.32351
2993.41142,0.31969
2991.48268,0.31489
2989.55394,0.30899
2987.62519,0.30216
2985.69645,0.29441
2983.76770,0.28567
2981.83896,0.27596
2979.91021,0.26540
2977.98147,0.25424
2976.05272,0.24310
2974.12398,0.23309
2972.19523,0.22572
2970.26649,0.22235
2968.33775,0.22319
2966.40900,0.22699
2964.48026,0.23185
2962.55151,0.23659
2960.62277,0.24112
2958.69402,0.24597
2956.76528,0.25167
2954.83653,0.25827
2952.90779,0.26568
2950.97905,0.27391
2949.05030,0.28275
2947.12156,0.29160
2945.19281,0.29994
2943.26407,0.30766
2941.33532,0.31455
2939.40658,0.32001
2937.47783,0.32365
2935.54909,0.32550
2933.62035,0.32596
2931.69160,0.32549
2929.76286,0.32399
2927.83411,0.32115
2925.90537,0.31736
2923.97662,0.31312
2922.04788,0.30856
2920.11913,0.30358
2918.19039,0.29793
2916.26165,0.29134
2914.33290,0.28364
2912.40416,0.27520
2910.47541,0.26784
2908.54667,0.26447
2906.61792,0.26723
2904.68918,0.27585
2902.76043,0.28775
2900.83169,0.29955
2898.90294,0.30906
2896.97420,0.31587
2895.04546,0.32034
2893.11671,0.32301
2891.18797,0.32479
2889.25922,0.32662
2887.33048,0.32922
2885.40173,0.33263
2883.47299,0.33628
2881.54424,0.33981
2879.61550,0.34304
2877.68676,0.34577
2875.75801,0.34804
2873.82927,0.34991
2871.90052,0.35139
2869.97178,0.35289
2868.04303,0.35456
2866.11429,0.35611
2864.18554,0.35746
2862.25680,0.35841
2860.32806,0.35877
2858.39931,0.35908
2856.47057,0.35999
2854.54182,0.36183
2852.61308,0.36523
2850.68433,0.37120
2848.75559,0.38032
2846.82684,0.39170
2844.89810,0.40345
2842.96936,0.41418
2841.04061,0.42350
2839.11187,0.43141
2837.18312,0.43813
2835.25438,0.44405
2833.32563,0.44950
2831.39689,0.45447
2829.46814,0.45895
2827.53940,0.46305
2825.61065,0.46657
2823.68191,0.46906
2821.75317,0.47042
2819.82442,0.47071
2817.89568,0.47016
2815.96693,0.46929
2814.03819,0.46860
2812.10944,0.46811
2810.18070,0.46782
2808.25195,0.46789
2806.32321,0.46831
2804.39447,0.46937
2802.46572,0.47151
2800.53698,0.47458
2798.60823,0.47807
2796.67949,0.48168
2794.75074,0.48514
2792.82200,0.48828
2790.89325,0.49107
2788.96451,0.49369
2787.03577,0.49634
2785.10702,0.49893
2783.17828,0.50134
2781.24953,0.50356
2779.32079,0.50557
2777.39204,0.50747
2775.46330,0.50917
2773.53455,0.51058
2771.60581,0.51194
2769.67707,0.51315
2767.74832,0.51395
2765.81958,0.51452
2763.89083,0.51503
2761.96209,0.51545
2760.03334,0.51568
2758.10460,0.51567
2756.17585,0.51549
2754.24711,0.51519
2752.31836,0.51488
2750.38962,0.51469
2748.46088,0.51466
2746.53213,0.51476
2744.60339,0.51506
2742.67464,0.51596
2740.74590,0.51784
2738.81715,0.52043
2736.88841,0.52316
2734.95966,0.52588
2733.03092,0.52861
2731.10218,0.53125
2729.17343,0.53371
2727.24469,0.53607
2725.31594,0.53833
2723.38720,0.54028
2721.45845,0.54170
2719.52971,0.54270
2717.60096,0.54377
2715.67222,0.54531
2713.74348,0.54712
2711.81473,0.54890
2709.88599,0.55067
2707.95724,0.55246
2706.02850,0.55415
2704.09975,0.55566
2702.17101,0.55694
2700.24226,0.55804
2698.31352,0.55915
2696.38477,0.56032
2694.45603,0.56137
2692.52729,0.56213
2690.59854,0.56258
2688.66980,0.56284
2686.74105,0.56298
2684.81231,0.56307
2682.88356,0.56326
2680.95482,0.56363
2679.02607,0.56403
2677.09733,0.56431
2675.16859,0.56483
2673.23984,0.56581
2671.31110,0.56669
2669.38235,0.56705
2667.45361,0.56708
2665.52486,0.56698
2663.59612,0.56685
2661.66737,0.56672
2659.73863,0.56632
2657.80989,0.56544
2655.88114,0.56429
2653.95240,0.56306
2652.02365,0.56177
2650.09491,0.56042
2648.16616,0.55878
2646.23742,0.55658
2644.30867,0.55371
2642.37993,0.55011
2640.45119,0.54595
2638.52244,0.54173
2636.59370,0.53800
2634.66495,0.53526
2632.73621,0.53357
2630.80746,0.53260
2628.87872,0.53226
2626.94997,0.53290
2625.02123,0.53428
2623.09248,0.53566
2621.16374,0.53664
2619.23500,0.53720
2617.30625,0.53730
2615.37751,0.53688
2613.44876,0.53631
2611.52002,0.53602
2609.59127,0.53578
2607.66253,0.53536
2605.73378,0.53477
2603.80504,0.53383
2601.87630,0.53247
2599.94755,0.53085
2598.01881,0.52914
2596.09006,0.52732
2594.16132,0.52523
2592.23257,0.52297
2590.30383,0.52080
2588.37508,0.51887
2586.44634,0.51742
2584.51760,0.51658
2582.58885,0.51624
2580.66011,0.51632
2578.73136,0.51676
2576.80262,0.51735
2574.87387,0.51789
2572.94513,0.51836
2571.01638,0.51847
2569.08764,0.51794
2567.15890,0.51722
2565.23015,0.51672
2563.30141,0.51624
2561.37266,0.51569
2559.44392,0.51528
2557.51517,0.51507
2555.58643,0.51480
2553.65768,0.51431
2551.72894,0.51379
2549.80019,0.51340
2547.87145,0.51311
2545.94271,0.51279
2544.01396,0.51230
2542.08522,0.51159
2540.15647,0.51104
2538.22773,0.51095
2536.29898,0.51116
2534.37024,0.51154
2532.44149,0.51209
2530.51275,0.51286
2528.58401,0.51405
2526.65526,0.51568
2524.72652,0.51742
2522.79777,0.51910
2520.86903,0.52095
2518.94028,0.52297
2517.01154,0.52472
2515.08279,0.52600
2513.15405,0.52693
2511.22531,0.52761
2509.29656,0.52816
2507.36782,0.52868
2505.43907,0.52895
2503.51033,0.52890
2501.58158,0.52895
2499.65284,0.52952
2497.72409,0.53062
2495.79535,0.53207
2493.86661,0.53390
2491.93786,0.53617
2490.00912,0.53870
2488.08037,0.54119
2486.15163,0.54353
2484.22288,0.54588
2482.29414,0.54825
2480.36539,0.55052
2478.43665,0.55262
2476.50790,0.55472
2474.57916,0.55681
2472.65042,0.55845
2470.72167,0.55942
2468.79293,0.56010
2466.86418,0.56078
2464.93544,0.56142
2463.00669,0.56183
2461.07795,0.56201
2459.14920,0.56204
2457.22046,0.56182
2455.29172,0.56127
2453.36297,0.56054
2451.43423,0.55975
2449.50548,0.55889
2447.57674,0.55777
2445.64799,0.55624
2443.71925,0.55426
2441.79050,0.55173
2439.86176,0.54874
2437.93302,0.54571
2436.00427,0.54272
2434.07553,0.53963
2432.14678,0.53655
2430.21804,0.53356
2428.28929,0.53043
2426.36055,0.52705
2424.43180,0.52357
2422.50306,0.52012
2420.57432,0.51682
2418.64557,0.51371
2416.71683,0.51069
2414.78808,0.50774
2412.85934,0.50503
2410.93059,0.50245
2409.00185,0.49975
2407.07310,0.49709
2405.14436,0.49468
2403.21561,0.49242
2401.28687,0.49023
2399.35813,0.48825
2397.42938,0.48669
2395.50064,0.48555
2393.57189,0.48456
2391.64315,0.48374
2389.71440,0.48342
2387.78566,0.48361
2385.85691,0.48408
2383.92817,0.48482
2381.99943,0.48580
2380.07068,0.48693
2378.14194,0.48825
2376.21319,0.48965
2374.28445,0.49118
2372.35570,0.49307
2370.42696,0.49540
2368.49821,0.49818
2366.56947,0.50139
2364.64073,0.50516
2362.71198,0.50955
2360.78324,0.51407
2358.85449,0.51822
2356.92575,0.52211
2354.99700,0.52586
2353.06826,0.52917
2351.13951,0.53200
2349.21077,0.53450
2347.28203,0.53682
2345.35328,0.53887
2343.42454,0.54045
2341.49579,0.54152
2339.56705,0.54201
2337.63830,0.54180
2335.70956,0.54168
2333.78081,0.54260
2331.85207,0.54418
2329.92332,0.54560
2327.99458,0.54679
2326.06584,0.54796
2324.13709,0.54925
2322.20835,0.55074
2320.27960,0.55230
2318.35086,0.55362
2316.42211,0.55438
2314.49337,0.55435
2312.56462,0.55354
2310.63588,0.55192
2308.70714,0.54949
2306.77839,0.54640
2304.84965,0.54253
2302.92090,0.53777
2300.99216,0.53251
2299.06341,0.52705
2297.13467,0.52151
2295.20592,0.51615
2293.27718,0.51122
2291.34844,0.50689
2289.41969,0.50335
2287.49095,0.50078
2285.56220,0.49921
2283.63346,0.49869
2281.70471,0.49905
2279.77597,0.49976
2277.84722,0.50029
2275.91848,0.50042
2273.98974,0.49989
2272.06099,0.49866
2270.13225,0.49709
2268.20350,0.49557
2266.27476,0.49424
2264.34601,0.49308
2262.41727,0.49219
2260.48852,0.49187
2258.55978,0.49215
2256.63103,0.49270
2254.70229,0.49345
2252.77355,0.49463
2250.84480,0.49639
2248.91606,0.49873
2246.98731,0.50145
2245.05857,0.50423
2243.12982,0.50676
2241.20108,0.50899
2239.27233,0.51120
2237.34359,0.51342
2235.41485,0.51526
2233.48610,0.51655
2231.55736,0.51764
2229.62861,0.51886
2227.69987,0.51998
2225.77112,0.52064
2223.84238,0.52114
2221.91363,0.52192
2219.98489,0.52270
2218.05615,0.52327
2216.12740,0.52397
2214.19866,0.52471
2212.26991,0.52520
2210.34117,0.52602
2208.41242,0.52779
2206.48368,0.53026
2204.55493,0.53281
2202.62619,0.53497
2200.69745,0.53666
2198.76870,0.53800
2196.83996,0.53895
2194.91121,0.53928
2192.98247,0.53904
2191.05372,0.53843
2189.12498,0.53746
2187.19623,0.53607
2185.26749,0.53426
2183.33874,0.53202
2181.41000,0.52940
2179.48126,0.52658
2177.55251,0.52370
2175.62377,0.52063
2173.69502,0.51732
2171.76628,0.51383
2169.83753,0.50993
2167.90879,0.50544
2165.98004,0.50067
2164.05130,0.49584
2162.12256,0.49086
2160.19381,0.48573
2158.26507,0.48054
2156.33632,0.47551
2154.40758,0.47092
2152.47883,0.46679
2150.55009,0.46291
2148.62134,0.45922
2146.69260,0.45580
2144.76386,0.45272
2142.83511,0.44997
2140.90637,0.44756
2138.97762,0.44542
2137.04888,0.44328
2135.12013,0.44072
2133.19139,0.43764
2131.26264,0.43420
2129.33390,0.43057
2127.40516,0.42680
2125.47641,0.42302
2123.54767,0.41934
2121.61892,0.41578
2119.69018,0.41260
2117.76143,0.41019
2115.83269,0.40855
2113.90394,0.40739
2111.97520,0.40658
2110.04645,0.40630
2108.11771,0.40665
2106.18897,0.40739
2104.26022,0.40815
2102.33148,0.40880
2100.40273,0.40942
2098.47399,0.41015
2096.54524,0.41111
2094.61650,0.41237
2092.68775,0.41397
2090.75901,0.41605
2088.83027,0.41870
2086.90152,0.42185
2084.97278,0.42542
2083.04403,0.42937
2081.11529,0.43360
2079.18654,0.43789
2077.25780,0.44217
2075.32905,0.44651
2073.40031,0.45086
2071.47157,0.45519
2069.54282,0.45962
2067.61408,0.46432
2065.68533,0.46934
2063.75659,0.47462
2061.82784,0.48008
2059.89910,0.48544
2057.97035,0.49034
2056.04161,0.49478
2054.11287,0.49886
2052.18412,0.50248
2050.25538,0.50541
2048.32663,0.50760
2046.39789,0.50917
2044.46914,0.51029
2042.54040,0.51114
2040.61165,0.51160
2038.68291,0.51160
2036.75416,0.51119
2034.82542,0.51021
2032.89668,0.50845
2030.96793,0.50600
2029.03919,0.50301
2027.11044,0.49954
2025.18170,0.49561
2023.25295,0.49144
2021.32421,0.48728
2019.39546,0.48316
2017.46672,0.47906
2015.53798,0.47514
2013.60923,0.47135
2011.68049,0.46748
2009.75174,0.46350
2007.82300,0.45953
2005.89425,0.45553
2003.96551,0.45120
2002.03676,0.44650
2000.10802,0.44174
1998.17928,0.43718
1996.25053,0.43285
1994.32179,0.42856
1992.39304,0.42405
1990.46430,0.41937
1988.53555,0.41490
1986.60681,0.41075
1984.67806,0.40664
1982.74932,0.40244
1980.82058,0.39805
1978.89183,0.39328
1976.96309,0.38797
1975.03434,0.38197
1973.10560,0.37513
1971.17685,0.36729
1969.24811,0.35819
1967.31936,0.34784
1965.39062,0.33725
1963.46187,0.32835
1961.53313,0.32296
1959.60439,0.32185
1957.67564,0.32436
1955.74690,0.32901
1953.81815,0.33453
1951.88941,0.34035
1949.96066,0.34624
1948.03192,0.35214
1946.10317,0.35822
1944.17443,0.36454
1942.24569,0.37105
1940.31694,0.37758
1938.38820,0.38390
1936.45945,0.39003
1934.53071,0.39613
1932.60196,0.40192
1930.67322,0.40705
1928.74447,0.41156
1926.81573,0.41577
1924.88699,0.41983
1922.95824,0.42364
1921.02950,0.42723
1919.10075,0.43067
1917.17201,0.43387
1915.24326,0.43681
1913.31452,0.43948
1911.38577,0.44192
1909.45703,0.44425
1907.52829,0.44647
1905.59954,0.44836
1903.67080,0.44990
1901.74205,0.45126
1899.81331,0.45245
1897.88456,0.45334
1895.95582,0.45396
1894.02707,0.45440
1892.09833,0.45469
1890.16958,0.45483
1888.24084,0.45472
1886.31210,0.45434
1884.38335,0.45388
1882.45461,0.45329
1880.52586,0.45221
1878.59712,0.45051
1876.66837,0.44826
1874.73963,0.44542
1872.81088,0.44214
1870.88214,0.43852
1868.95340,0.43434
1867.02465,0.42970
1865.09591,0.42495
1863.16716,0.42012
1861.23842,0.41491
1859.30967,0.40903
1857.38093,0.40229
1855.45218,0.39467
1853.52344,0.38638
1851.59470,0.37772
1849.66595,0.36904
1847.73721,0.36068
1845.80846,0.35268
1843.87972,0.34482
1841.95097,0.33747
1840.02223,0.33087
1838.09348,0.32473
1836.16474,0.31892
1834.23600,0.31352
1832.30725,0.30870
1830.37851,0.30443
1828.44976,0.30090
1826.52102,0.29852
1824.59227,0.29710
1822.66353,0.29622
1820.73478,0.29566
1818.80604,0.29520
1816.87729,0.29462
1814.94855,0.29369
1813.01981,0.29239
1811.09106,0.29089
1809.16232,0.28941
1807.23357,0.28813
1805.30483,0.28699
1803.37608,0.28591
1801.44734,0.28490
1799.51859,0.28365
1797.58985,0.28180
1795.66111,0.27959
1793.73236,0.27725
1791.80362,0.27459
1789.87487,0.27150
1787.94613,0.26796
1786.01738,0.26387
1784.08864,0.25940
1782.15989,0.25471
1780.23115,0.24961
1778.30241,0.24406
1776.37366,0.23826
1774.44492,0.23207
1772.51617,0.22513
1770.58743,0.21759
1768.65868,0.20956
1766.72994,0.20088
1764.80119,0.19170
1762.87245,0.18164
1760.94370,0.17036
1759.01496,0.15830
1757.08622,0.14496
1755.15747,0.13042
1753.22873,0.11526
1751.29998,0.09890
1749.37124,0.08201
1747.44249,0.06653
1745.51375,0.05344
1743.58500,0.04346
1741.65626,0.03704
1739.72752,0.03374
1737.79877,0.03265
1735.87003,0.03274
1733.94128,0.03340
1732.01254,0.03447
1730.08379,0.03586
1728.15505,0.03748
1726.22630,0.03913
1724.29756,0.04084
1722.36882,0.04269
1720.44007,0.04474
1718.51133,0.04755
1716.58258,0.05217
1714.65384,0.05953
1712.72509,0.06962
1710.79635,0.08158
1708.86760,0.09413
1706.93886,0.10673
1705.01012,0.11894
1703.08137,0.12994
1701.15263,0.14052
1699.22388,0.15045
1697.29514,0.15817
1695.36639,0.16449
1693.43765,0.16984
1691.50890,0.17367
1689.58016,0.17576
1687.65141,0.17591
1685.72267,0.17501
1683.79393,0.17535
1681.86518,0.17907
1679.93644,0.18552
1678.00769,0.19266
1676.07895,0.19913
1674.15020,0.20455
1672.22146,0.20936
1670.29271,0.21486
1668.36397,0.22157
1666.43523,0.22873
1664.50648,0.23591
1662.57774,0.24277
1660.64899,0.24844
1658.72025,0.25265
1656.79150,0.25583
1654.86276,0.25877
1652.93401,0.26192
1651.00527,0.26461
1649.07653,0.26683
1647.14778,0.26918
1645.21904,0.27158
1643.29029,0.27396
1641.36155,0.27647
1639.43280,0.27884
1637.50406,0.28093
1635.57531,0.28286
1633.64657,0.28442
1631.71783,0.28554
1629.78908,0.28637
1627.86034,0.28691
1625.93159,0.28693
1624.00285,0.28600
1622.07410,0.28346
1620.14536,0.27893
1618.21661,0.27225
1616.28787,0.26470
1614.35912,0.26022
1612.43038,0.26089
1610.50164,0.26549
1608.57289,0.27183
1606.64415,0.27814
1604.71540,0.28365
1602.78666,0.28832
1600.85791,0.29224
1598.92917,0.29514
1597.00042,0.29635
1595.07168,0.29528
1593.14294,0.29184
1591.21419,0.28646
1589.28545,0.27945
1587.35670,0.27004
1585.42796,0.25668
1583.49921,0.23947
1581.57047,0.22243
1579.64172,0.21173
1577.71298,0.21165
1575.78424,0.22254
1573.85549,0.23834
1571.92675,0.25337
1569.99800,0.26678
1568.06926,0.27713
1566.14051,0.28369
1564.21177,0.28765
1562.28302,0.28998
1560.35428,0.29124
1558.42554,0.29148
1556.49679,0.29089
1554.56805,0.29004
1552.63930,0.28906
1550.71056,0.28768
1548.78181,0.28570
1546.85307,0.28333
1544.92432,0.28149
1542.99558,0.28120
1541.06683,0.28236
1539.13809,0.28326
1537.20935,0.28249
1535.28060,0.28030
1533.35186,0.27693
1531.42311,0.27266
1529.49437,0.26801
1527.56562,0.26329
1525.63688,0.25944
1523.70813,0.25749
1521.77939,0.25700
1519.85065,0.25617
1517.92190,0.25308
1515.99316,0.24599
1514.06441,0.23299
1512.13567,0.21200
1510.20692,0.18321
1508.27818,0.15159
1506.34943,0.13101
1504.42069,0.13710
1502.49195,0.16378
1500.56320,0.19810
1498.63446,0.23087
1496.70571,0.25550
1494.77697,0.26921
1492.84822,0.27361
1490.91948,0.27162
1488.99073,0.26501
1487.06199,0.25536
1485.13325,0.24382
1483.20450,0.23097
1481.27576,0.21727
1479.34701,0.20314
1477.41827,0.18835
1475.48952,0.17260
1473.56078,0.15826
1471.63203,0.15133
1469.70329,0.15413
1467.77454,0.16071
1465.84580,0.16480
1463.91706,0.16449
1461.98831,0.16149
1460.05957,0.15765
1458.13082,0.15361
1456.20208,0.15030
1454.27333,0.14904
1452.34459,0.14967
1450.41584,0.15131
1448.48710,0.15311
1446.55836,0.15452
1444.62961,0.15551
1442.70087,0.15646
1440.77212,0.15771
1438.84338,0.15964
1436.91463,0.16260
1434.98589,0.16616
1433.05714,0.16930
1431.12840,0.17127
1429.19966,0.17107
1427.27091,0.16764
1425.34217,0.16049
1423.41342,0.14959
1421.48468,0.13493
1419.55593,0.11579
1417.62719,0.09421
1415.69844,0.07546
1413.76970,0.06269
1411.84096,0.05724
1409.91221,0.05888
1407.98347,0.06601
1406.05472,0.07688
1404.12598,0.08930
1402.19723,0.10054
1400.26849,0.10920
1398.33974,0.11521
1396.41100,0.11858
1394.48225,0.11938
1392.55351,0.11779
1390.62477,0.11444
1388.69602,0.11038
1386.76728,0.10714
1384.83853,0.10585
1382.90979,0.10601
1380.98104,0.10648
1379.05230,0.10632
1377.12355,0.10493
1375.19481,0.10227
1373.26607,0.09911
1371.33732,0.09677
1369.40858,0.09626
1367.47983,0.09754
1365.55109,0.09968
1363.62234,0.10132
1361.69360,0.10112
1359.76485,0.09844
1357.83611,0.09356
1355.90737,0.08700
1353.97862,0.07938
1352.04988,0.07152
1350.12113,0.06454
1348.19239,0.05949
1346.26364,0.05676
1344.33490,0.05588
1342.40615,0.05623
1340.47741,0.05829
1338.54867,0.06373
1336.61992,0.07367
1334.69118,0.08670
1332.76243,0.09911
1330.83369,0.10711
1328.90494,0.10916
1326.97620,0.10611
1325.04745,0.09976
1323.11871,0.09182
1321.18996,0.08364
1319.26122,0.07574
1317.33248,0.06824
1315.40373,0.06140
1313.47499,0.05549
1311.54624,0.05052
1309.61750,0.04642
1307.68875,0.04310
1305.76001,0.04043
1303.83126,0.03839
1301.90252,0.03693
1299.97378,0.03605
1298.04503,0.03585
1296.11629,0.03630
1294.18754,0.03713
1292.25880,0.03822
1290.33005,0.03974
1288.40131,0.04172
1286.47256,0.04404
1284.54382,0.04647
1282.61508,0.04884
1280.68633,0.05127
1278.75759,0.05383
1276.82884,0.05614
1274.90010,0.05787
1272.97135,0.05923
1271.04261,0.06050
1269.11386,0.06158
1267.18512,0.06235
1265.25638,0.06301
1263.32763,0.06376
1261.39889,0.06447
1259.47014,0.06500
1257.54140,0.06547
1255.61265,0.06591
1253.68391,0.06598
1251.75516,0.06538
1249.82642,0.06412
1247.89767,0.06237
1245.96893,0.06039
1244.04019,0.05875
1242.11144,0.05815
1240.18270,0.05942
1238.25395,0.06366
1236.32521,0.07154
1234.39646,0.08282
1232.46772,0.09658
1230.53897,0.11119
1228.61023,0.12477
1226.68149,0.13636
1224.75274,0.14653
1222.82400,0.15712
1220.89525,0.16922
1218.96651,0.18151
1217.03776,0.19191
1215.10902,0.19970
1213.18027,0.20553
1211.25153,0.21070
1209.32279,0.21649
1207.39404,0.22356
1205.46530,0.23163
1203.53655,0.23968
1201.60781,0.24687
1199.67906,0.25316
1197.75032,0.25852
1195.82157,0.26232
1193.89283,0.26389
1191.96409,0.26286
1190.03534,0.25917
1188.10660,0.25300
1186.17785,0.24447
1184.24911,0.23405
1182.32036,0.22254
1180.39162,0.21067
1178.46287,0.19960
1176.53413,0.19055
1174.60538,0.18384
1172.67664,0.17919
1170.74790,0.17589
1168.81915,0.17234
1166.89041,0.16672
1164.96166,0.15832
1163.03292,0.14798
1161.10417,0.13697
1159.17543,0.12591
1157.24668,0.11489
1155.31794,0.10404
1153.38920,0.09337
1151.46045,0.08292
1149.53171,0.07319
1147.60296,0.06460
1145.67422,0.05746
1143.74547,0.05220
1141.81673,0.04889
1139.88798,0.04732
1137.95924,0.04749
1136.03050,0.04929
1134.10175,0.05188
1132.17301,0.05448
1130.24426,0.05678
1128.31552,0.05838
1126.38677,0.05886
1124.45803,0.05857
1122.52928,0.05833
1120.60054,0.05849
1118.67180,0.05887
1116.74305,0.05933
1114.81431,0.05983
1112.88556,0.06021
1110.95682,0.06045
1109.02807,0.06087
1107.09933,0.06156
1105.17058,0.06227
1103.24184,0.06318
1101.31309,0.06504
1099.38435,0.06830
1097.45561,0.07270
1095.52686,0.07829
1093.59812,0.08544
1091.66937,0.09389
1089.74063,0.10323
1087.81188,0.11391
1085.88314,0.12633
1083.95439,0.14044
1082.02565,0.15663
1080.09691,0.17495
1078.16816,0.19400
1076.23942,0.21200
1074.31067,0.22758
1072.38193,0.23999
1070.45318,0.24972
1068.52444,0.25757
1066.59569,0.26355
1064.66695,0.26750
1062.73821,0.26940
1060.80946,0.26919
1058.88072,0.26676
1056.95197,0.26197
1055.02323,0.25526
1053.09448,0.24733
1051.16574,0.23871
1049.23699,0.23016
1047.30825,0.22273
1045.37951,0.21691
1043.45076,0.21266
1041.52202,0.20988
1039.59327,0.20802
1037.66453,0.20558
1035.73578,0.20096
1033.80704,0.19255
1031.87829,0.17809
1029.94955,0.15548
1028.02080,0.12644
1026.09206,0.09984
1024.16332,0.08588
1022.23457,0.08584
1020.30583,0.09460
1018.37708,0.11146
1016.44834,0.14062
1014.51959,0.18133
1012.59085,0.22415
1010.66210,0.25942
1008.73336,0.28446
1006.80462,0.30100
1004.87587,0.31119
1002.94713,0.31677
1001.01838,0.31929
999.08964,0.31990
997.16089,0.31885
995.23215,0.31503
993.30340,0.30700
991.37466,0.29581
989.44592,0.28584
987.51717,0.27976
985.58843,0.27434
983.65968,0.26463
981.73094,0.24926
979.80219,0.23039
977.87345,0.21112
975.94470,0.19440
974.01596,0.18350
972.08722,0.18162
970.15847,0.19012
968.22973,0.20709
966.30098,0.22823
964.37224,0.24971
962.44349,0.26966
960.51475,0.28752
958.58600,0.30313
956.65726,0.31655
954.72851,0.32792
952.79977,0.33698
950.87103,0.34362
948.94228,0.34860
947.01354,0.35266
945.08479,0.35583
943.15605,0.35801
941.22730,0.35935
939.29856,0.36011
937.36981,0.36048
935.44107,0.36065
933.51233,0.36066
931.58358,0.36032
929.65484,0.35959
927.72609,0.35872
925.79735,0.35765
923.86860,0.35593
921.93986,0.35323
920.01111,0.34948
918.08237,0.34435
916.15363,0.33747
914.22488,0.32901
912.29614,0.31918
910.36739,0.30806
908.43865,0.29609
906.50990,0.28430
904.58116,0.27391
902.65241,0.26575
900.72367,0.26018
898.79492,0.25732
896.86618,0.25679
894.93744,0.25757
893.00869,0.25836
891.07995,0.25772
889.15120,0.25453
887.22246,0.24839
885.29371,0.23968
883.36497,0.22907
881.43622,0.21683
879.50748,0.20310
877.57874,0.18847
875.64999,0.17497
873.72125,0.16852
871.79250,0.17639
869.86376,0.19626
867.93501,0.21611
866.00627,0.22767
864.07752,0.23067
862.14878,0.22741
860.22004,0.22010
858.29129,0.21045
856.36255,0.19975
854.43380,0.18954
852.50506,0.18116
850.57631,0.17557
848.64757,0.17506
846.71882,0.18151
844.79008,0.19336
842.86134,0.20729
840.93259,0.22068
839.00385,0.23223
837.07510,0.24201
835.14636,0.25072
833.21761,0.25855
831.28887,0.26510
829.36012,0.27036
827.43138,0.27465
825.50263,0.27803
823.57389,0.28030
821.64515,0.28116
819.71640,0.28047
817.78766,0.27878
815.85891,0.27688
813.93017,0.27494
812.00142,0.27268
810.07268,0.27007
808.14393,0.26730
806.21519,0.26432
804.28645,0.26112
802.35770,0.25779
800.42896,0.25307
798.50021,0.24414
796.57147,0.23078
794.64272,0.21961
792.71398,0.21889
790.78523,0.22870
788.85649,0.24233
786.92775,0.25479
784.99900,0.26476
783.07026,0.27193
781.14151,0.27662
779.21277,0.27990
777.28402,0.28260
775.35528,0.28507
773.42653,0.28724
771.49779,0.28892
769.56905,0.29030
767.64030,0.29152
765.71156,0.29224
763.78281,0.29178
761.85407,0.28965
759.92532,0.28592
757.99658,0.28078
756.06783,0.27432
754.13909,0.26654
752.21034,0.25714
750.28160,0.24559
748.35286,0.23093
746.42411,0.21192
744.49537,0.18801
742.56662,0.15988
740.63788,0.12959
738.70913,0.10092
736.78039,0.07839
734.85164,0.06448
732.92290,0.05853
730.99416,0.05881
729.06541,0.06438
727.13667,0.07643
725.20792,0.09785
723.27918,0.12927
721.35043,0.16623
719.42169,0.20058
717.49294,0.22513
715.56420,0.23839
713.63546,0.24400
711.70671,0.24620
709.77797,0.24777
707.84922,0.24988
705.92048,0.25248
703.99173,0.25621
702.06299,0.26315
700.13424,0.27388
698.20550,0.28548
696.27676,0.29457
694.34801,0.30016
692.41927,0.30287
690.49052,0.30319
688.56178,0.30108
686.63303,0.29720
684.70429,0.29219
682.77554,0.28603
680.84680,0.28068
678.91805,0.27920
676.98931,0.28163
675.06057,0.28528
673.13182,0.28806
671.20308,0.28995
669.27433,0.29214
667.34559,0.29459
665.41684,0.29601
663.48810,0.29641
661.55935,0.29632
659.63061,0.29532
657.70187,0.29336
655.77312,0.29262
653.84438,0.29512
651.91563,0.29906
649.98689,0.30147
648.05814,0.30189
646.12940,0.30124
644.20065,0.30029
642.27191,0.29953
640.34317,0.29824
638.41442,0.29437
636.48568,0.28497
634.55693,0.26897
632.62819,0.25524
630.69944,0.25691
628.77070,0.27131
626.84195,0.28475
624.91321,0.29151
622.98447,0.29347
621.05572,0.29336
619.12698,0.29254
617.19823,0.29077
615.26949,0.28893
613.34074,0.28828
611.41200,0.28863
609.48325,0.28938
607.55451,0.28986
605.62576,0.28967
603.69702,0.28827
601.76828,0.28547
599.83953,0.28265
