7497.02977,0.83556
7495.10103,0.83459
7493.17228,0.83359
7491.24354,0.83582
7489.31479,0.83849
7487.38605,0.84008
7485.45730,0.83990
7483.52856,0.83817
7481.59982,0.83613
7479.67107,0.83242
7477.74233,0.82890
7475.81358,0.83014
7473.88484,0.83341
7471.95609,0.83415
7470.02735,0.83557
7468.09860,0.83933
7466.16986,0.83960
7464.24112,0.83673
7462.31237,0.83619
7460.38363,0.83657
7458.45488,0.83603
7456.52614,0.83580
7454.59739,0.83478
7452.66865,0.83114
7450.73990,0.82759
7448.81116,0.83022
7446.88242,0.83845
7444.95367,0.84474
7443.02493,0.84421
7441.09618,0.83891
7439.16744,0.83512
7437.23869,0.83619
7435.30995,0.83894
7433.38120,0.83840
7431.45246,0.83444
7429.52371,0.82920
7427.59497,0.82440
7425.66623,0.82459
7423.73748,0.82853
7421.80874,0.82754
7419.87999,0.82235
7417.95125,0.82091
7416.02250,0.82353
7414.09376,0.82796
7412.16501,0.83265
7410.23627,0.83202
7408.30753,0.82734
7406.37878,0.82770
7404.45004,0.83038
7402.52129,0.82524
7400.59255,0.81785
7398.66380,0.81904
7396.73506,0.82371
7394.80631,0.82396
7392.87757,0.82210
7390.94883,0.82125
7389.02008,0.82138
7387.09134,0.82305
7385.16259,0.82675
7383.23385,0.82945
7381.30510,0.82800
7379.37636,0.82643
7377.44761,0.82790
7375.51887,0.82919
7373.59013,0.83065
7371.66138,0.83377
7369.73264,0.83471
7367.80389,0.82996
7365.87515,0.82249
7363.94640,0.82010
7362.01766,0.82242
7360.08891,0.82106
7358.16017,0.81699
7356.23142,0.81765
7354.30268,0.82264
7352.37394,0.82558
7350.44519,0.82399
7348.51645,0.81966
7346.58770,0.81534
7344.65896,0.81565
7342.73021,0.82003
7340.80147,0.82115
7338.87272,0.81717
7336.94398,0.81360
7335.01524,0.81476
7333.08649,0.81911
7331.15775,0.82110
7329.22900,0.81920
7327.30026,0.81533
7325.37151,0.81084
7323.44277,0.81081
7321.51402,0.81698
7319.58528,0.82035
7317.65654,0.81782
7315.72779,0.81743
7313.79905,0.82021
7311.87030,0.82012
7309.94156,0.81653
7308.01281,0.81297
7306.08407,0.81433
7304.15532,0.82116
7302.22658,0.82483
7300.29784,0.82117
7298.36909,0.81675
7296.44035,0.81581
7294.51160,0.81707
7292.58286,0.81966
7290.65411,0.82268
7288.72537,0.82369
7286.79662,0.82140
7284.86788,0.81738
7282.93913,0.81608
7281.01039,0.81921
7279.08165,0.82193
7277.15290,0.82194
7275.22416,0.82156
7273.29541,0.82092
7271.36667,0.81956
7269.43792,0.81884
7267.50918,0.81988
7265.58043,0.82345
7263.65169,0.82848
7261.72295,0.83050
7259.79420,0.82719
7257.86546,0.82214
7255.93671,0.81969
7254.00797,0.81983
7252.07922,0.82007
7250.15048,0.81920
7248.22173,0.81680
7246.29299,0.81361
7244.36425,0.81228
7242.43550,0.81408
7240.50676,0.81618
7238.57801,0.81624
7236.64927,0.81731
7234.72052,0.81985
7232.79178,0.81922
7230.86303,0.81595
7228.93429,0.81246
7227.00554,0.80860
7225.07680,0.80811
7223.14806,0.81348
7221.21931,0.82023
7219.29057,0.82422
7217.36182,0.82529
7215.43308,0.82419
7213.50433,0.82224
7211.57559,0.82008
7209.64684,0.81771
7207.71810,0.81671
7205.78936,0.81683
7203.86061,0.81685
7201.93187,0.81865
7200.00312,0.82113
7198.07438,0.81968
7196.14563,0.81421
7194.21689,0.80897
7192.28814,0.80657
7190.35940,0.80648
7188.43066,0.80890
7186.50191,0.81474
7184.57317,0.82023
7182.64442,0.81991
7180.71568,0.81484
7178.78693,0.81107
7176.85819,0.81274
7174.92944,0.81791
7173.00070,0.81973
7171.07196,0.81657
7169.14321,0.81320
7167.21447,0.81161
7165.28572,0.81159
7163.35698,0.81330
7161.42823,0.81466
7159.49949,0.81319
7157.57074,0.81032
7155.64200,0.80977
7153.71325,0.81323
7151.78451,0.81762
7149.85577,0.81664
7147.92702,0.81072
7145.99828,0.80814
7144.06953,0.81030
7142.14079,0.81041
7140.21204,0.80819
7138.28330,0.80839
7136.35455,0.81137
7134.42581,0.81537
7132.49707,0.81607
7130.56832,0.81150
7128.63958,0.80928
7126.71083,0.81271
7124.78209,0.81462
7122.85334,0.81144
7120.92460,0.80765
7118.99585,0.80742
7117.06711,0.80953
7115.13837,0.81093
7113.20962,0.81056
7111.28088,0.80925
7109.35213,0.80748
7107.42339,0.80477
7105.49464,0.80425
7103.56590,0.80767
7101.63715,0.80882
7099.70841,0.80581
7097.77967,0.80528
7095.85092,0.80813
7093.92218,0.80880
7091.99343,0.80787
7090.06469,0.80962
7088.13594,0.81104
7086.20720,0.80887
7084.27845,0.80796
7082.34971,0.81056
7080.42096,0.81209
7078.49222,0.81089
7076.56348,0.81011
7074.63473,0.81152
7072.70599,0.81241
7070.77724,0.81047
7068.84850,0.80796
7066.91975,0.80708
7064.99101,0.80786
7063.06226,0.80837
7061.13352,0.80701
7059.20478,0.80751
7057.27603,0.81041
7055.34729,0.80971
7053.41854,0.80630
7051.48980,0.80524
7049.56105,0.80467
7047.63231,0.80293
7045.70356,0.80430
7043.77482,0.80819
7041.84608,0.80882
7039.91733,0.80745
7037.98859,0.80895
7036.05984,0.81212
7034.13110,0.81169
7032.20235,0.80735
7030.27361,0.80454
7028.34486,0.80419
7026.41612,0.80254
7024.48738,0.80057
7022.55863,0.80133
7020.62989,0.80305
7018.70114,0.80321
7016.77240,0.80253
7014.84365,0.80166
7012.91491,0.80110
7010.98616,0.80217
7009.05742,0.80551
7007.12867,0.81008
7005.19993,0.81199
7003.27119,0.80906
7001.34244,0.80633
6999.41370,0.80776
6997.48495,0.80925
6995.55621,0.80847
6993.62746,0.80795
6991.69872,0.80845
6989.76997,0.80977
6987.84123,0.81070
6985.91249,0.81006
6983.98374,0.80944
6982.05500,0.80983
6980.12625,0.80941
6978.19751,0.80656
6976.26876,0.80341
6974.34002,0.80137
6972.41127,0.79969
6970.48253,0.79943
6968.55379,0.80057
6966.62504,0.80191
6964.69630,0.80342
6962.76755,0.80409
6960.83881,0.80351
6958.91006,0.80373
6956.98132,0.80504
6955.05257,0.80592
6953.12383,0.80792
6951.19509,0.81197
6949.26634,0.81476
6947.33760,0.81396
6945.40885,0.80990
6943.48011,0.80589
6941.55136,0.80711
6939.62262,0.81212
6937.69387,0.81433
6935.76513,0.81284
6933.83638,0.81062
6931.90764,0.80972
6929.97890,0.81110
6928.05015,0.81198
6926.12141,0.80869
6924.19266,0.80366
6922.26392,0.80251
6920.33517,0.80538
6918.40643,0.80778
6916.47768,0.80672
6914.54894,0.80377
6912.62020,0.80325
6910.69145,0.80485
6908.76271,0.80508
6906.83396,0.80511
6904.90522,0.80719
6902.97647,0.80872
6901.04773,0.80745
6899.11898,0.80665
6897.19024,0.80865
6895.26150,0.81063
6893.33275,0.80938
6891.40401,0.80591
6889.47526,0.80471
6887.54652,0.80678
6885.61777,0.80991
6883.68903,0.81324
6881.76028,0.81452
6879.83154,0.81261
6877.90280,0.81066
6875.97405,0.81044
6874.04531,0.81046
6872.11656,0.80926
6870.18782,0.80673
6868.25907,0.80520
6866.33033,0.80697
6864.40158,0.81042
6862.47284,0.81315
6860.54409,0.81436
6858.61535,0.81434
6856.68661,0.81414
6854.75786,0.81258
6852.82912,0.80811
6850.90037,0.80426
6848.97163,0.80447
6847.04288,0.80639
6845.11414,0.80850
6843.18539,0.81031
6841.25665,0.80823
6839.32791,0.80406
6837.39916,0.80425
6835.47042,0.80848
6833.54167,0.81205
6831.61293,0.81274
6829.68418,0.81089
6827.75544,0.80929
6825.82669,0.80931
6823.89795,0.80955
6821.96921,0.81062
6820.04046,0.81205
6818.11172,0.81209
6816.18297,0.81147
6814.25423,0.81060
6812.32548,0.81022
6810.39674,0.81014
6808.46799,0.80962
6806.53925,0.80977
6804.61051,0.81039
6802.68176,0.81072
6800.75302,0.81048
6798.82427,0.81064
6796.89553,0.81199
6794.96678,0.81233
6793.03804,0.81140
6791.10929,0.81062
6789.18055,0.81054
6787.25180,0.81176
6785.32306,0.81262
6783.39432,0.81210
6781.46557,0.81209
6779.53683,0.81335
6777.60808,0.81475
6775.67934,0.81503
6773.75059,0.81498
6771.82185,0.81615
6769.89310,0.81737
6767.96436,0.81686
6766.03562,0.81426
6764.10687,0.81055
6762.17813,0.80792
6760.24938,0.80829
6758.32064,0.81071
6756.39189,0.81064
6754.46315,0.80757
6752.53440,0.80713
6750.60566,0.81010
6748.67692,0.81243
6746.74817,0.81314
6744.81943,0.81301
6742.89068,0.81259
6740.96194,0.81348
6739.03319,0.81572
6737.10445,0.81597
6735.17570,0.81336
6733.24696,0.81167
6731.31822,0.81184
6729.38947,0.81161
6727.46073,0.81190
6725.53198,0.81381
6723.60324,0.81483
6721.67449,0.81369
6719.74575,0.81258
6717.81700,0.81278
6715.88826,0.81229
6713.95951,0.81129
6712.03077,0.81241
6710.10203,0.81572
6708.17328,0.81957
6706.24454,0.82016
6704.31579,0.81651
6702.38705,0.81465
6700.45830,0.81636
6698.52956,0.81715
6696.60081,0.81633
6694.67207,0.81662
6692.74333,0.81804
6690.81458,0.81899
6688.88584,0.81849
6686.95709,0.81598
6685.02835,0.81393
6683.09960,0.81508
6681.17086,0.81717
6679.24211,0.81685
6677.31337,0.81500
6675.38463,0.81345
6673.45588,0.81173
6671.52714,0.81025
6669.59839,0.81016
6667.66965,0.81235
6665.74090,0.81679
6663.81216,0.82109
6661.88341,0.82346
6659.95467,0.82232
6658.02593,0.81697
6656.09718,0.81232
6654.16844,0.81337
6652.23969,0.81757
6650.31095,0.81939
6648.38220,0.81801
6646.45346,0.81604
6644.52471,0.81586
6642.59597,0.81697
6640.66722,0.81680
6638.73848,0.81581
6636.80974,0.81513
6634.88099,0.81472
6632.95225,0.81606
6631.02350,0.81877
6629.09476,0.81967
6627.16601,0.81717
6625.23727,0.81436
6623.30852,0.81556
6621.37978,0.81825
6619.45104,0.81826
6617.52229,0.81813
6615.59355,0.81895
6613.66480,0.81849
6611.73606,0.81743
6609.80731,0.81607
6607.87857,0.81446
6605.94982,0.81402
6604.02108,0.81435
6602.09234,0.81433
6600.16359,0.81374
6598.23485,0.81350
6596.30610,0.81427
6594.37736,0.81595
6592.44861,0.81852
6590.51987,0.81973
6588.59112,0.81790
6586.66238,0.81594
6584.73364,0.81697
6582.80489,0.81909
6580.87615,0.81910
6578.94740,0.81840
6577.01866,0.81861
6575.08991,0.81858
6573.16117,0.81759
6571.23242,0.81620
6569.30368,0.81647
6567.37493,0.81772
6565.44619,0.81723
6563.51745,0.81685
6561.58870,0.81803
6559.65996,0.81872
6557.73121,0.81872
6555.80247,0.81813
6553.87372,0.81603
6551.94498,0.81404
6550.01623,0.81417
6548.08749,0.81543
6546.15875,0.81614
6544.23000,0.81618
6542.30126,0.81664
6540.37251,0.81742
6538.44377,0.81752
6536.51502,0.81748
6534.58628,0.81756
6532.65753,0.81811
6530.72879,0.82016
6528.80005,0.82101
6526.87130,0.81884
6524.94256,0.81789
6523.01381,0.81946
6521.08507,0.82001
6519.15632,0.81875
6517.22758,0.81760
6515.29883,0.81748
6513.37009,0.81750
6511.44135,0.81755
6509.51260,0.81906
6507.58386,0.82167
6505.65511,0.82266
6503.72637,0.82087
6501.79762,0.81944
6499.86888,0.81999
6497.94013,0.82076
6496.01139,0.82133
6494.08264,0.82209
6492.15390,0.82269
6490.22516,0.82168
6488.29641,0.81894
6486.36767,0.81677
6484.43892,0.81626
6482.51018,0.81697
6480.58143,0.81840
6478.65269,0.81980
6476.72394,0.81889
6474.79520,0.81543
6472.86646,0.81347
6470.93771,0.81435
6469.00897,0.81559
6467.08022,0.81663
6465.15148,0.81885
6463.22273,0.82116
6461.29399,0.82198
6459.36524,0.82238
6457.43650,0.82271
6455.50776,0.82231
6453.57901,0.82083
6451.65027,0.81864
6449.72152,0.81745
6447.79278,0.81798
6445.86403,0.81926
6443.93529,0.81955
6442.00654,0.81837
6440.07780,0.81740
6438.14906,0.81723
6436.22031,0.81718
6434.29157,0.81741
6432.36282,0.81729
6430.43408,0.81630
6428.50533,0.81590
6426.57659,0.81667
6424.64784,0.81869
6422.71910,0.82146
6420.79035,0.82235
6418.86161,0.82046
6416.93287,0.81747
6415.00412,0.81556
6413.07538,0.81538
6411.14663,0.81590
6409.21789,0.81736
6407.28914,0.81880
6405.36040,0.81814
6403.43165,0.81668
6401.50291,0.81580
6399.57417,0.81533
6397.64542,0.81591
6395.71668,0.81604
6393.78793,0.81459
6391.85919,0.81456
6389.93044,0.81653
6388.00170,0.81857
6386.07295,0.82052
6384.14421,0.82166
6382.21547,0.82142
6380.28672,0.82016
6378.35798,0.81862
6376.42923,0.81770
6374.50049,0.81643
6372.57174,0.81465
6370.64300,0.81425
6368.71425,0.81457
6366.78551,0.81427
6364.85677,0.81538
6362.92802,0.81863
6360.99928,0.82050
6359.07053,0.81893
6357.14179,0.81725
6355.21304,0.81900
6353.28430,0.82169
6351.35555,0.82112
6349.42681,0.81903
6347.49806,0.81905
6345.56932,0.82017
6343.64058,0.82021
6341.71183,0.81928
6339.78309,0.81764
6337.85434,0.81691
6335.92560,0.81858
6333.99685,0.81956
6332.06811,0.81866
6330.13936,0.81986
6328.21062,0.82239
6326.28188,0.82141
6324.35313,0.81793
6322.42439,0.81636
6320.49564,0.81673
6318.56690,0.81680
6316.63815,0.81694
6314.70941,0.81827
6312.78066,0.81970
6310.85192,0.81931
6308.92318,0.81813
6306.99443,0.81878
6305.06569,0.82036
6303.13694,0.81999
6301.20820,0.81821
6299.27945,0.81751
6297.35071,0.81724
6295.42196,0.81593
6293.49322,0.81517
6291.56447,0.81582
6289.63573,0.81647
6287.70699,0.81693
6285.77824,0.81826
6283.84950,0.82035
6281.92075,0.82153
6279.99201,0.82073
6278.06326,0.81912
6276.13452,0.81729
6274.20577,0.81479
6272.27703,0.81410
6270.34829,0.81655
6268.41954,0.81842
6266.49080,0.81815
6264.56205,0.81826
6262.63331,0.81900
6260.70456,0.81921
6258.77582,0.81949
6256.84707,0.81908
6254.91833,0.81722
6252.98959,0.81667
6251.06084,0.81703
6249.13210,0.81540
6247.20335,0.81430
6245.27461,0.81540
6243.34586,0.81631
6241.41712,0.81699
6239.48837,0.81703
6237.55963,0.81515
6235.63089,0.81437
6233.70214,0.81626
6231.77340,0.81808
6229.84465,0.81901
6227.91591,0.81901
6225.98716,0.81719
6224.05842,0.81517
6222.12967,0.81540
6220.20093,0.81664
6218.27218,0.81542
6216.34344,0.81205
6214.41470,0.81017
6212.48595,0.81078
6210.55721,0.81188
6208.62846,0.81121
6206.69972,0.80925
6204.77097,0.80817
6202.84223,0.80788
6200.91348,0.80774
6198.98474,0.80740
6197.05600,0.80672
6195.12725,0.80662
6193.19851,0.80675
6191.26976,0.80645
6189.34102,0.80616
6187.41227,0.80631
6185.48353,0.80672
6183.55478,0.80685
6181.62604,0.80694
6179.69730,0.80753
6177.76855,0.80812
6175.83981,0.80745
6173.91106,0.80563
6171.98232,0.80506
6170.05357,0.80611
6168.12483,0.80672
6166.19608,0.80650
6164.26734,0.80687
6162.33860,0.80770
6160.40985,0.80689
6158.48111,0.80384
6156.55236,0.80069
6154.62362,0.79952
6152.69487,0.79933
6150.76613,0.79868
6148.83738,0.79796
6146.90864,0.79686
6144.97989,0.79584
6143.05115,0.79583
6141.12241,0.79593
6139.19366,0.79678
6137.26492,0.79945
6135.33617,0.80120
6133.40743,0.79986
6131.47868,0.79817
6129.54994,0.79804
6127.62119,0.79793
6125.69245,0.79757
6123.76371,0.79715
6121.83496,0.79560
6119.90622,0.79357
6117.97747,0.79208
6116.04873,0.79043
6114.11998,0.78832
6112.19124,0.78590
6110.26249,0.78382
6108.33375,0.78286
6106.40501,0.78111
6104.47626,0.77722
6102.54752,0.77314
6100.61877,0.77014
6098.69003,0.76769
6096.76128,0.76535
6094.83254,0.76273
6092.90379,0.75948
6090.97505,0.75647
6089.04631,0.75510
6087.11756,0.75458
6085.18882,0.75261
6083.26007,0.74938
6081.33133,0.74639
6079.40258,0.74396
6077.47384,0.74235
6075.54509,0.74069
6073.61635,0.73796
6071.68760,0.73513
6069.75886,0.73288
6067.83012,0.73076
6065.90137,0.72781
6063.97263,0.72426
6062.04388,0.72141
6060.11514,0.71851
6058.18639,0.71500
6056.25765,0.71188
6054.32890,0.70914
6052.40016,0.70679
6050.47142,0.70484
6048.54267,0.70248
6046.61393,0.69978
6044.68518,0.69769
6042.75644,0.69643
6040.82769,0.69484
6038.89895,0.69232
6036.97020,0.68968
6035.04146,0.68706
6033.11272,0.68446
6031.18397,0.68237
6029.25523,0.68044
6027.32648,0.67804
6025.39774,0.67610
6023.46899,0.67603
6021.54025,0.67671
6019.61150,0.67612
6017.68276,0.67484
6015.75402,0.67502
6013.82527,0.67693
6011.89653,0.67914
6009.96778,0.68123
6008.03904,0.68317
6006.11029,0.68512
6004.18155,0.68859
6002.25280,0.69290
6000.32406,0.69637
5998.39531,0.70023
5996.46657,0.70437
5994.53783,0.70665
5992.60908,0.70789
5990.68034,0.70936
5988.75159,0.71022
5986.82285,0.71066
5984.89410,0.71121
5982.96536,0.71145
5981.03661,0.71174
5979.10787,0.71230
5977.17913,0.71254
5975.25038,0.71271
5973.32164,0.71386
5971.39289,0.71675
5969.46415,0.72033
5967.53540,0.72281
5965.60666,0.72406
5963.67791,0.72474
5961.74917,0.72551
5959.82043,0.72650
5957.89168,0.72698
5955.96294,0.72662
5954.03419,0.72547
5952.10545,0.72518
5950.17670,0.72744
5948.24796,0.73064
5946.31921,0.73268
5944.39047,0.73380
5942.46173,0.73430
5940.53298,0.73362
5938.60424,0.73260
5936.67549,0.73371
5934.74675,0.73689
5932.81800,0.73862
5930.88926,0.73801
5928.96051,0.73816
5927.03177,0.73992
5925.10302,0.74202
5923.17428,0.74460
5921.24554,0.74818
5919.31679,0.75185
5917.38805,0.75396
5915.45930,0.75519
5913.53056,0.75702
5911.60181,0.75818
5909.67307,0.75806
5907.74432,0.75825
5905.81558,0.75915
5903.88684,0.76042
5901.95809,0.76250
5900.02935,0.76473
5898.10060,0.76469
5896.17186,0.76192
5894.24311,0.75914
5892.31437,0.75809
5890.38562,0.75771
5888.45688,0.75689
5886.52814,0.75591
5884.59939,0.75478
5882.67065,0.75290
5880.74190,0.75112
5878.81316,0.75115
5876.88441,0.75236
5874.95567,0.75215
5873.02692,0.75012
5871.09818,0.74853
5869.16944,0.74855
5867.24069,0.74914
5865.31195,0.74930
5863.38320,0.74884
5861.45446,0.74737
5859.52571,0.74527
5857.59697,0.74453
5855.66822,0.74529
5853.73948,0.74604
5851.81073,0.74734
5849.88199,0.74941
5847.95325,0.75102
5846.02450,0.75204
5844.09576,0.75284
5842.16701,0.75376
5840.23827,0.75460
5838.30952,0.75453
5836.38078,0.75368
5834.45203,0.75265
5832.52329,0.75201
5830.59455,0.75185
5828.66580,0.75145
5826.73706,0.75094
5824.80831,0.75097
5822.87957,0.75200
5820.95082,0.75320
5819.02208,0.75263
5817.09333,0.75100
5815.16459,0.75035
5813.23585,0.75003
5811.30710,0.74867
5809.37836,0.74737
5807.44961,0.74828
5805.52087,0.75075
5803.59212,0.75197
5801.66338,0.75154
5799.73463,0.75150
5797.80589,0.75234
5795.87715,0.75317
5793.94840,0.75373
5792.01966,0.75365
5790.09091,0.75234
5788.16217,0.75054
5786.23342,0.75000
5784.30468,0.75119
5782.37593,0.75331
5780.44719,0.75562
5778.51844,0.75667
5776.58970,0.75641
5774.66096,0.75705
5772.73221,0.75850
5770.80347,0.75898
5768.87472,0.75876
5766.94598,0.75872
5765.01723,0.75842
5763.08849,0.75761
5761.15974,0.75735
5759.23100,0.75830
5757.30226,0.75980
5755.37351,0.76136
5753.44477,0.76237
5751.51602,0.76221
5749.58728,0.76214
5747.65853,0.76340
5745.72979,0.76503
5743.80104,0.76631
5741.87230,0.76770
5739.94356,0.76926
5738.01481,0.77026
5736.08607,0.77037
5734.15732,0.77058
5732.22858,0.77156
5730.29983,0.77224
5728.37109,0.77199
5726.44234,0.77191
5724.51360,0.77290
5722.58486,0.77464
5720.65611,0.77593
5718.72737,0.77644
5716.79862,0.77699
5714.86988,0.77702
5712.94113,0.77557
5711.01239,0.77365
5709.08364,0.77279
5707.15490,0.77283
5705.22615,0.77227
5703.29741,0.77116
5701.36867,0.77156
5699.43992,0.77383
5697.51118,0.77595
5695.58243,0.77711
5693.65369,0.77834
5691.72494,0.77941
5689.79620,0.77890
5687.86745,0.77766
5685.93871,0.77804
5684.00997,0.77992
5682.08122,0.78112
5680.15248,0.78093
5678.22373,0.78036
5676.29499,0.78016
5674.36624,0.77990
5672.43750,0.77900
5670.50875,0.77803
5668.58001,0.77835
5666.65127,0.77978
5664.72252,0.77991
5662.79378,0.77852
5660.86503,0.77862
5658.93629,0.78060
5657.00754,0.78216
5655.07880,0.78214
5653.15005,0.78125
5651.22131,0.78097
5649.29257,0.78078
5647.36382,0.77951
5645.43508,0.77895
5643.50633,0.78062
5641.57759,0.78270
5639.64884,0.78360
5637.72010,0.78361
5635.79135,0.78329
5633.86261,0.78334
5631.93386,0.78443
5630.00512,0.78591
5628.07638,0.78649
5626.14763,0.78643
5624.21889,0.78683
5622.29014,0.78784
5620.36140,0.78908
5618.43265,0.78999
5616.50391,0.79006
5614.57516,0.78929
5612.64642,0.78830
5610.71768,0.78790
5608.78893,0.78805
5606.86019,0.78825
5604.93144,0.78842
5603.00270,0.78845
5601.07395,0.78828
5599.14521,0.78836
5597.21646,0.78908
5595.28772,0.78979
5593.35898,0.78936
5591.43023,0.78802
5589.50149,0.78699
5587.57274,0.78695
5585.64400,0.78768
5583.71525,0.78820
5581.78651,0.78771
5579.85776,0.78618
5577.92902,0.78426
5576.00028,0.78286
5574.07153,0.78206
5572.14279,0.78212
5570.21404,0.78322
5568.28530,0.78456
5566.35655,0.78531
5564.42781,0.78528
5562.49906,0.78520
5560.57032,0.78514
5558.64157,0.78437
5556.71283,0.78359
5554.78409,0.78316
5552.85534,0.78248
5550.92660,0.78189
5548.99785,0.78168
5547.06911,0.78148
5545.14036,0.78146
5543.21162,0.78224
5541.28287,0.78339
5539.35413,0.78384
5537.42539,0.78337
5535.49664,0.78273
5533.56790,0.78269
5531.63915,0.78325
5529.71041,0.78352
5527.78166,0.78314
5525.85292,0.78325
5523.92417,0.78425
5521.99543,0.78499
5520.06669,0.78511
5518.13794,0.78458
5516.20920,0.78373
5514.28045,0.78408
5512.35171,0.78552
5510.42296,0.78680
5508.49422,0.78811
5506.56547,0.78906
5504.63673,0.78864
5502.70799,0.78777
5500.77924,0.78738
5498.85050,0.78734
5496.92175,0.78764
5494.99301,0.78735
5493.06426,0.78555
5491.13552,0.78393
5489.20677,0.78367
5487.27803,0.78344
5485.34928,0.78302
5483.42054,0.78325
5481.49180,0.78410
5479.56305,0.78501
5477.63431,0.78514
5475.70556,0.78444
5473.77682,0.78349
5471.84807,0.78296
5469.91933,0.78364
5467.99058,0.78479
5466.06184,0.78482
5464.13310,0.78391
5462.20435,0.78373
5460.27561,0.78476
5458.34686,0.78555
5456.41812,0.78600
5454.48937,0.78720
5452.56063,0.78847
5450.63188,0.78849
5448.70314,0.78819
5446.77440,0.78913
5444.84565,0.79101
5442.91691,0.79278
5440.98816,0.79338
5439.05942,0.79269
5437.13067,0.79233
5435.20193,0.79317
5433.27318,0.79424
5431.34444,0.79499
5429.41569,0.79541
5427.48695,0.79558
5425.55821,0.79596
5423.62946,0.79635
5421.70072,0.79638
5419.77197,0.79655
5417.84323,0.79687
5415.91448,0.79679
5413.98574,0.79656
5412.05699,0.79647
5410.12825,0.79642
5408.19951,0.79655
5406.27076,0.79643
5404.34202,0.79596
5402.41327,0.79626
5400.48453,0.79704
5398.55578,0.79727
5396.62704,0.79721
5394.69829,0.79683
5392.76955,0.79608
5390.84081,0.79583
5388.91206,0.79672
5386.98332,0.79752
5385.05457,0.79683
5383.12583,0.79605
5381.19708,0.79648
5379.26834,0.79706
5377.33959,0.79704
5375.41085,0.79673
5373.48211,0.79677
5371.55336,0.79715
5369.62462,0.79746
5367.69587,0.79747
5365.76713,0.79693
5363.83838,0.79637
5361.90964,0.79589
5359.98089,0.79530
5358.05215,0.79542
5356.12340,0.79603
5354.19466,0.79603
5352.26592,0.79562
5350.33717,0.79567
5348.40843,0.79643
5346.47968,0.79727
5344.55094,0.79756
5342.62219,0.79722
5340.69345,0.79639
5338.76470,0.79547
5336.83596,0.79508
5334.90722,0.79577
5332.97847,0.79744
5331.04973,0.79883
5329.12098,0.79898
5327.19224,0.79848
5325.26349,0.79796
5323.33475,0.79778
5321.40600,0.79810
5319.47726,0.79809
5317.54852,0.79745
5315.61977,0.79700
5313.69103,0.79707
5311.76228,0.79732
5309.83354,0.79741
5307.90479,0.79718
5305.97605,0.79662
5304.04730,0.79602
5302.11856,0.79568
5300.18982,0.79568
5298.26107,0.79572
5296.33233,0.79540
5294.40358,0.79460
5292.47484,0.79380
5290.54609,0.79380
5288.61735,0.79411
5286.68860,0.79357
5284.75986,0.79259
5282.83111,0.79185
5280.90237,0.79109
5278.97363,0.79049
5277.04488,0.79072
5275.11614,0.79144
5273.18739,0.79107
5271.25865,0.78914
5269.32990,0.78753
5267.40116,0.78749
5265.47241,0.78795
5263.54367,0.78789
5261.61493,0.78740
5259.68618,0.78674
5257.75744,0.78611
5255.82869,0.78572
5253.89995,0.78537
5251.97120,0.78471
5250.04246,0.78418
5248.11371,0.78461
5246.18497,0.78520
5244.25623,0.78452
5242.32748,0.78340
5240.39874,0.78330
5238.46999,0.78391
5236.54125,0.78452
5234.61250,0.78490
5232.68376,0.78501
5230.75501,0.78474
5228.82627,0.78430
5226.89753,0.78438
5224.96878,0.78486
5223.04004,0.78501
5221.11129,0.78457
5219.18255,0.78407
5217.25380,0.78417
5215.32506,0.78477
5213.39631,0.78527
5211.46757,0.78545
5209.53882,0.78508
5207.61008,0.78398
5205.68134,0.78307
5203.75259,0.78337
5201.82385,0.78427
5199.89510,0.78475
5197.96636,0.78480
5196.03761,0.78479
5194.10887,0.78472
5192.18012,0.78446
5190.25138,0.78438
5188.32264,0.78470
5186.39389,0.78477
5184.46515,0.78433
5182.53640,0.78375
5180.60766,0.78245
5178.67891,0.78077
5176.75017,0.78064
5174.82142,0.78143
5172.89268,0.78133
5170.96394,0.78061
5169.03519,0.77996
5167.10645,0.77987
5165.17770,0.78029
5163.24896,0.78024
5161.32021,0.77934
5159.39147,0.77828
5157.46272,0.77781
5155.53398,0.77801
5153.60524,0.77785
5151.67649,0.77663
5149.74775,0.77533
5147.81900,0.77453
5145.89026,0.77372
5143.96151,0.77309
5142.03277,0.77285
5140.10402,0.77249
5138.17528,0.77183
5136.24653,0.77120
5134.31779,0.77068
5132.38905,0.77015
5130.46030,0.76956
5128.53156,0.76817
5126.60281,0.76546
5124.67407,0.76277
5122.74532,0.76137
5120.81658,0.76099
5118.88783,0.76138
5116.95909,0.76232
5115.03035,0.76338
5113.10160,0.76452
5111.17286,0.76579
5109.24411,0.76735
5107.31537,0.76884
5105.38662,0.76983
5103.45788,0.77094
5101.52913,0.77251
5099.60039,0.77425
5097.67165,0.77580
5095.74290,0.77694
5093.81416,0.77786
5091.88541,0.77887
5089.95667,0.78017
5088.02792,0.78145
5086.09918,0.78221
5084.17043,0.78258
5082.24169,0.78298
5080.31295,0.78376
5078.38420,0.78477
5076.45546,0.78540
5074.52671,0.78520
5072.59797,0.78426
5070.66922,0.78361
5068.74048,0.78439
5066.81173,0.78603
5064.88299,0.78707
5062.95424,0.78786
5061.02550,0.78883
5059.09676,0.78883
5057.16801,0.78803
5055.23927,0.78763
5053.31052,0.78737
5051.38178,0.78706
5049.45303,0.78713
5047.52429,0.78752
5045.59554,0.78781
5043.66680,0.78781
5041.73806,0.78758
5039.80931,0.78704
5037.88057,0.78654
5035.95182,0.78676
5034.02308,0.78735
5032.09433,0.78758
5030.16559,0.78747
5028.23684,0.78747
5026.30810,0.78750
5024.37936,0.78721
5022.45061,0.78696
5020.52187,0.78696
5018.59312,0.78705
5016.66438,0.78719
5014.73563,0.78694
5012.80689,0.78653
5010.87814,0.78673
5008.94940,0.78711
5007.02066,0.78693
5005.09191,0.78643
5003.16317,0.78601
5001.23442,0.78601
4999.30568,0.78695
4997.37693,0.78818
4995.44819,0.78821
4993.51944,0.78739
4991.59070,0.78735
4989.66195,0.78778
4987.73321,0.78748
4985.80447,0.78686
4983.87572,0.78696
4981.94698,0.78774
4980.01823,0.78851
4978.08949,0.78873
4976.16074,0.78808
4974.23200,0.78691
4972.30325,0.78615
4970.37451,0.78631
4968.44577,0.78670
4966.51702,0.78638
4964.58828,0.78587
4962.65953,0.78588
4960.73079,0.78559
4958.80204,0.78461
4956.87330,0.78361
4954.94455,0.78307
4953.01581,0.78292
4951.08707,0.78289
4949.15832,0.78282
4947.22958,0.78229
4945.30083,0.78128
4943.37209,0.78053
4941.44334,0.77995
4939.51460,0.77882
4937.58585,0.77760
4935.65711,0.77757
4933.72837,0.77868
4931.79962,0.77936
4929.87088,0.77877
4927.94213,0.77785
4926.01339,0.77764
4924.08464,0.77765
4922.15590,0.77705
4920.22715,0.77608
4918.29841,0.77523
4916.36966,0.77491
4914.44092,0.77502
4912.51218,0.77453
4910.58343,0.77322
4908.65469,0.77226
4906.72594,0.77214
4904.79720,0.77215
4902.86845,0.77187
4900.93971,0.77159
4899.01096,0.77146
4897.08222,0.77138
4895.15348,0.77117
4893.22473,0.77070
4891.29599,0.77006
4889.36724,0.76961
4887.43850,0.76969
4885.50975,0.77019
4883.58101,0.77039
4881.65226,0.77004
4879.72352,0.76953
4877.79478,0.76898
4875.86603,0.76853
4873.93729,0.76849
4872.00854,0.76862
4870.07980,0.76839
4868.15105,0.76780
4866.22231,0.76710
4864.29356,0.76660
4862.36482,0.76680
4860.43608,0.76748
4858.50733,0.76756
4856.57859,0.76677
4854.64984,0.76596
4852.72110,0.76544
4850.79235,0.76478
4848.86361,0.76407
4846.93486,0.76351
4845.00612,0.76288
4843.07737,0.76225
4841.14863,0.76164
4839.21989,0.76082
4837.29114,0.75960
4835.36240,0.75793
4833.43365,0.75640
4831.50491,0.75549
4829.57616,0.75446
4827.64742,0.75261
4825.71867,0.75077
4823.78993,0.74985
4821.86119,0.74948
4819.93244,0.74884
4818.00370,0.74761
4816.07495,0.74587
4814.14621,0.74421
4812.21746,0.74341
4810.28872,0.74321
4808.35997,0.74268
4806.43123,0.74174
4804.50249,0.74065
4802.57374,0.73966
4800.64500,0.73913
4798.71625,0.73902
4796.78751,0.73892
4794.85876,0.73883
4792.93002,0.73866
4791.00127,0.73847
4789.07253,0.73908
4787.14379,0.74032
4785.21504,0.74107
4783.28630,0.74115
4781.35755,0.74137
4779.42881,0.74235
4777.50006,0.74340
4775.57132,0.74373
4773.64257,0.74389
4771.71383,0.74428
4769.78508,0.74455
4767.85634,0.74474
4765.92760,0.74516
4763.99885,0.74516
4762.07011,0.74397
4760.14136,0.74226
4758.21262,0.74082
4756.28387,0.73961
4754.35513,0.73823
4752.42638,0.73620
4750.49764,0.73344
4748.56890,0.73055
4746.64015,0.72814
4744.71141,0.72658
4742.78266,0.72555
4740.85392,0.72406
4738.92517,0.72156
4736.99643,0.71836
4735.06768,0.71529
4733.13894,0.71263
4731.21020,0.70982
4729.28145,0.70648
4727.35271,0.70260
4725.42396,0.69860
4723.49522,0.69483
4721.56647,0.69155
4719.63773,0.68937
4717.70898,0.68833
4715.78024,0.68785
4713.85150,0.68766
4711.92275,0.68744
4709.99401,0.68626
4708.06526,0.68397
4706.13652,0.68121
4704.20777,0.67796
4702.27903,0.67374
4700.35028,0.66869
4698.42154,0.66374
4696.49279,0.65958
4694.56405,0.65608
4692.63531,0.65339
4690.70656,0.65199
4688.77782,0.65188
4686.84907,0.65289
4684.92033,0.65510
4682.99158,0.65852
4681.06284,0.66297
4679.13409,0.66803
4677.20535,0.67337
4675.27661,0.67863
4673.34786,0.68339
4671.41912,0.68736
4669.49037,0.69025
4667.56163,0.69233
4665.63288,0.69413
4663.70414,0.69568
4661.77539,0.69681
4659.84665,0.69732
4657.91791,0.69706
4655.98916,0.69648
4654.06042,0.69604
4652.13167,0.69509
4650.20293,0.69287
4648.27418,0.68946
4646.34544,0.68531
4644.41669,0.68104
4642.48795,0.67718
4640.55921,0.67372
4638.63046,0.67070
4636.70172,0.66870
4634.77297,0.66827
4632.84423,0.66931
4630.91548,0.67171
4628.98674,0.67558
4627.05799,0.68065
4625.12925,0.68649
4623.20050,0.69284
4621.27176,0.69876
4619.34302,0.70354
4617.41427,0.70761
4615.48553,0.71115
4613.55678,0.71385
4611.62804,0.71569
4609.69929,0.71679
4607.77055,0.71722
4605.84180,0.71702
4603.91306,0.71642
4601.98432,0.71530
4600.05557,0.71329
4598.12683,0.71028
4596.19808,0.70664
4594.26934,0.70348
4592.34059,0.70139
4590.41185,0.70002
4588.48310,0.69897
4586.55436,0.69769
4584.62562,0.69568
4582.69687,0.69319
4580.76813,0.69139
4578.83938,0.69142
4576.91064,0.69330
4574.98189,0.69657
4573.05315,0.70068
4571.12440,0.70519
4569.19566,0.71002
4567.26692,0.71483
4565.33817,0.71883
4563.40943,0.72158
4561.48068,0.72346
4559.55194,0.72501
4557.62319,0.72611
4555.69445,0.72665
4553.76570,0.72691
4551.83696,0.72724
4549.90821,0.72761
4547.97947,0.72758
4546.05073,0.72709
4544.12198,0.72650
4542.19324,0.72599
4540.26449,0.72579
4538.33575,0.72594
4536.40700,0.72605
4534.47826,0.72591
4532.54951,0.72551
4530.62077,0.72471
4528.69203,0.72392
4526.76328,0.72334
4524.83454,0.72232
4522.90579,0.72085
4520.97705,0.71963
4519.04830,0.71849
4517.11956,0.71710
4515.19081,0.71552
4513.26207,0.71334
4511.33333,0.71067
4509.40458,0.70815
4507.47584,0.70552
4505.54709,0.70215
4503.61835,0.69811
4501.68960,0.69380
4499.76086,0.68927
4497.83211,0.68425
4495.90337,0.67893
4493.97462,0.67388
4492.04588,0.66955
4490.11714,0.66619
4488.18839,0.66352
4486.25965,0.66119
4484.33090,0.65906
4482.40216,0.65685
4480.47341,0.65456
4478.54467,0.65239
4476.61592,0.64985
4474.68718,0.64643
4472.75844,0.64251
4470.82969,0.63813
4468.90095,0.63255
4466.97220,0.62564
4465.04346,0.61803
4463.11471,0.61041
4461.18597,0.60388
4459.25722,0.59947
4457.32848,0.59728
4455.39974,0.59681
4453.47099,0.59754
4451.54225,0.59877
4449.61350,0.59952
4447.68476,0.59909
4445.75601,0.59763
4443.82727,0.59574
4441.89852,0.59386
4439.96978,0.59213
4438.04104,0.59067
4436.11229,0.58935
4434.18355,0.58796
4432.25480,0.58707
4430.32606,0.58733
4428.39731,0.58882
4426.46857,0.59147
4424.53982,0.59486
4422.61108,0.59852
4420.68233,0.60213
4418.75359,0.60522
4416.82485,0.60766
4414.89610,0.60938
4412.96736,0.61022
4411.03861,0.61075
4409.10987,0.61150
4407.18112,0.61184
4405.25238,0.61154
4403.32363,0.61189
4401.39489,0.61360
4399.46615,0.61592
4397.53740,0.61790
4395.60866,0.61939
4393.67991,0.62088
4391.75117,0.62247
4389.82242,0.62366
4387.89368,0.62456
4385.96493,0.62580
4384.03619,0.62711
4382.10745,0.62795
4380.17870,0.62870
4378.24996,0.62961
4376.32121,0.63026
4374.39247,0.63033
4372.46372,0.63004
4370.53498,0.62970
4368.60623,0.62901
4366.67749,0.62793
4364.74875,0.62692
4362.82000,0.62613
4360.89126,0.62565
4358.96251,0.62547
4357.03377,0.62537
4355.10502,0.62518
4353.17628,0.62467
4351.24753,0.62387
4349.31879,0.62306
4347.39004,0.62231
4345.46130,0.62145
4343.53256,0.62037
4341.60381,0.61907
4339.67507,0.61763
4337.74632,0.61650
4335.81758,0.61599
4333.88883,0.61583
4331.96009,0.61577
4330.03134,0.61588
4328.10260,0.61627
4326.17386,0.61666
4324.24511,0.61696
4322.31637,0.61719
4320.38762,0.61682
4318.45888,0.61558
4316.53013,0.61427
4314.60139,0.61342
4312.67264,0.61248
4310.74390,0.61093
4308.81516,0.60888
4306.88641,0.60649
4304.95767,0.60398
4303.02892,0.60174
4301.10018,0.59952
4299.17143,0.59715
4297.24269,0.59521
4295.31394,0.59402
4293.38520,0.59347
4291.45646,0.59340
4289.52771,0.59340
4287.59897,0.59346
4285.67022,0.59403
4283.74148,0.59506
4281.81273,0.59621
4279.88399,0.59730
4277.95524,0.59832
4276.02650,0.59924
4274.09775,0.60009
4272.16901,0.60099
4270.24027,0.60181
4268.31152,0.60254
4266.38278,0.60349
4264.45403,0.60471
4262.52529,0.60583
4260.59654,0.60641
4258.66780,0.60646
4256.73905,0.60642
4254.81031,0.60616
4252.88157,0.60526
4250.95282,0.60411
4249.02408,0.60357
4247.09533,0.60384
4245.16659,0.60431
4243.23784,0.60452
4241.30910,0.60463
4239.38035,0.60477
4237.45161,0.60500
4235.52287,0.60532
4233.59412,0.60553
4231.66538,0.60550
4229.73663,0.60540
4227.80789,0.60527
4225.87914,0.60525
4223.95040,0.60590
4222.02165,0.60725
4220.09291,0.60897
4218.16417,0.61091
4216.23542,0.61288
4214.30668,0.61470
4212.37793,0.61625
4210.44919,0.61713
4208.52044,0.61733
4206.59170,0.61753
4204.66295,0.61794
4202.73421,0.61824
4200.80546,0.61857
4198.87672,0.61916
4196.94798,0.61973
4195.01923,0.61987
4193.09049,0.61943
4191.16174,0.61864
4189.23300,0.61744
4187.30425,0.61548
4185.37551,0.61298
4183.44676,0.61056
4181.51802,0.60833
4179.58928,0.60619
4177.66053,0.60465
4175.73179,0.60453
4173.80304,0.60600
4171.87430,0.60844
4169.94555,0.61135
4168.01681,0.61439
4166.08806,0.61718
4164.15932,0.61954
4162.23058,0.62153
4160.30183,0.62326
4158.37309,0.62491
4156.44434,0.62635
4154.51560,0.62727
4152.58685,0.62772
4150.65811,0.62780
4148.72936,0.62756
4146.80062,0.62716
4144.87188,0.62621
4142.94313,0.62420
4141.01439,0.62144
4139.08564,0.61850
4137.15690,0.61579
4135.22815,0.61361
4133.29941,0.61192
4131.37066,0.61060
4129.44192,0.60982
4127.51317,0.60954
4125.58443,0.60938
4123.65569,0.60930
4121.72694,0.60910
4119.79820,0.60841
4117.86945,0.60730
4115.94071,0.60579
4114.01196,0.60364
4112.08322,0.60092
4110.15447,0.59776
4108.22573,0.59408
4106.29699,0.58995
4104.36824,0.58558
4102.43950,0.58086
4100.51075,0.57506
4098.58201,0.56745
4096.65326,0.55828
4094.72452,0.54922
4092.79577,0.54265
4090.86703,0.54006
4088.93829,0.54117
4087.00954,0.54480
4085.08080,0.54995
4083.15205,0.55612
4081.22331,0.56278
4079.29456,0.56968
4077.36582,0.57690
4075.43707,0.58396
4073.50833,0.59013
4071.57959,0.59491
4069.65084,0.59832
4067.72210,0.60114
4065.79335,0.60382
4063.86461,0.60606
4061.93586,0.60768
4060.00712,0.60902
4058.07837,0.61064
4056.14963,0.61237
4054.22088,0.61375
4052.29214,0.61494
4050.36340,0.61636
4048.43465,0.61803
4046.50591,0.61950
4044.57716,0.62066
4042.64842,0.62202
4040.71967,0.62384
4038.79093,0.62578
4036.86218,0.62748
4034.93344,0.62886
4033.00470,0.62982
4031.07595,0.63045
4029.14721,0.63095
4027.21846,0.63146
4025.28972,0.63208
4023.36097,0.63256
4021.43223,0.63255
4019.50348,0.63236
4017.57474,0.63206
4015.64600,0.63130
4013.71725,0.63063
4011.78851,0.63075
4009.85976,0.63134
4007.93102,0.63179
4006.00227,0.63198
4004.07353,0.63217
4002.14478,0.63259
4000.21604,0.63317
3998.28730,0.63378
3996.35855,0.63454
3994.42981,0.63544
3992.50106,0.63637
3990.57232,0.63730
3988.64357,0.63823
3986.71483,0.63901
3984.78608,0.63942
3982.85734,0.63971
3980.92859,0.64006
3978.99985,0.64019
3977.07111,0.64008
3975.14236,0.63998
3973.21362,0.63989
3971.28487,0.63993
3969.35613,0.64041
3967.42738,0.64123
3965.49864,0.64199
3963.56989,0.64278
3961.64115,0.64386
3959.71241,0.64511
3957.78366,0.64641
3955.85492,0.64769
3953.92617,0.64883
3951.99743,0.64996
3950.06868,0.65104
3948.13994,0.65169
3946.21119,0.65193
3944.28245,0.65223
3942.35371,0.65282
3940.42496,0.65351
3938.49622,0.65382
3936.56747,0.65363
3934.63873,0.65356
3932.70998,0.65398
3930.78124,0.65430
3928.85249,0.65430
3926.92375,0.65449
3924.99501,0.65472
3923.06626,0.65475
3921.13752,0.65507
3919.20877,0.65582
3917.28003,0.65670
3915.35128,0.65730
3913.42254,0.65747
3911.49379,0.65785
3909.56505,0.65885
3907.63630,0.65999
3905.70756,0.66104
3903.77882,0.66229
3901.85007,0.66364
3899.92133,0.66492
3897.99258,0.66646
3896.06384,0.66840
3894.13509,0.67046
3892.20635,0.67224
3890.27760,0.67345
3888.34886,0.67423
3886.42012,0.67504
3884.49137,0.67583
3882.56263,0.67627
3880.63388,0.67652
3878.70514,0.67695
3876.77639,0.67782
3874.84765,0.67897
3872.91890,0.67995
3870.99016,0.68084
3869.06142,0.68160
3867.13267,0.68197
3865.20393,0.68229
3863.27518,0.68271
3861.34644,0.68314
3859.41769,0.68372
3857.48895,0.68426
3855.56020,0.68468
3853.63146,0.68532
3851.70272,0.68595
3849.77397,0.68621
3847.84523,0.68614
3845.91648,0.68572
3843.98774,0.68518
3842.05899,0.68496
3840.13025,0.68521
3838.20150,0.68562
3836.27276,0.68564
3834.34401,0.68516
3832.41527,0.68464
3830.48653,0.68454
3828.55778,0.68486
3826.62904,0.68501
3824.70029,0.68454
3822.77155,0.68378
3820.84280,0.68290
3818.91406,0.68131
3816.98531,0.67899
3815.05657,0.67651
3813.12783,0.67423
3811.19908,0.67216
3809.27034,0.67070
3807.34159,0.67018
3805.41285,0.67022
3803.48410,0.67057
3801.55536,0.67156
3799.62661,0.67314
3797.69787,0.67463
3795.76913,0.67586
3793.84038,0.67721
3791.91164,0.67868
3789.98289,0.67959
3788.05415,0.67987
3786.12540,0.68016
3784.19666,0.68042
3782.26791,0.68023
3780.33917,0.67961
3778.41043,0.67863
3776.48168,0.67738
3774.55294,0.67600
3772.62419,0.67471
3770.69545,0.67362
3768.76670,0.67242
3766.83796,0.67083
3764.90921,0.66890
3762.98047,0.66689
3761.05172,0.66515
3759.12298,0.66404
3757.19424,0.66399
3755.26549,0.66543
3753.33675,0.66870
3751.40800,0.67327
3749.47926,0.67772
3747.55051,0.68116
3745.62177,0.68386
3743.69302,0.68554
3741.76428,0.68537
3739.83554,0.68387
3737.90679,0.68184
3735.97805,0.67946
3734.04930,0.67707
3732.12056,0.67552
3730.19181,0.67567
3728.26307,0.67756
3726.33432,0.68067
3724.40558,0.68397
3722.47684,0.68655
3720.54809,0.68823
3718.61935,0.68901
3716.69060,0.68912
3714.76186,0.68898
3712.83311,0.68841
3710.90437,0.68668
3708.97562,0.68387
3707.04688,0.68045
3705.11814,0.67642
3703.18939,0.67206
3701.26065,0.66768
3699.33190,0.66311
3697.40316,0.65802
3695.47441,0.65218
3693.54567,0.64532
3691.61692,0.63720
3689.68818,0.62861
3687.75943,0.62203
3685.83069,0.61968
3683.90195,0.62165
3681.97320,0.62712
3680.04446,0.63463
3678.11571,0.64246
3676.18697,0.64979
3674.25822,0.65549
3672.32948,0.65879
3670.40073,0.66046
3668.47199,0.66094
3666.54325,0.66032
3664.61450,0.65878
3662.68576,0.65661
3660.75701,0.65437
3658.82827,0.65219
3656.89952,0.64974
3654.97078,0.64679
3653.04203,0.64362
3651.11329,0.64061
3649.18455,0.63760
3647.25580,0.63440
3645.32706,0.63113
3643.39831,0.62791
3641.46957,0.62487
3639.54082,0.62207
3637.61208,0.61953
3635.68333,0.61724
3633.75459,0.61488
3631.82584,0.61234
3629.89710,0.60973
3627.96836,0.60675
3626.03961,0.60332
3624.11087,0.59991
3622.18212,0.59681
3620.25338,0.59393
3618.32463,0.59128
3616.39589,0.58884
3614.46714,0.58636
3612.53840,0.58369
3610.60966,0.58084
3608.68091,0.57783
3606.75217,0.57486
3604.82342,0.57203
3602.89468,0.56906
3600.96593,0.56573
3599.03719,0.56203
3597.10844,0.55805
3595.17970,0.55396
3593.25096,0.54972
3591.32221,0.54517
3589.39347,0.54037
3587.46472,0.53541
3585.53598,0.53043
3583.60723,0.52554
3581.67849,0.52067
3579.74974,0.51572
3577.82100,0.51072
3575.89226,0.50573
3573.96351,0.50079
3572.03477,0.49606
3570.10602,0.49167
3568.17728,0.48750
3566.24853,0.48342
3564.31979,0.47959
3562.39104,0.47622
3560.46230,0.47315
3558.53355,0.47006
3556.60481,0.46702
3554.67607,0.46426
3552.74732,0.46190
3550.81858,0.46012
3548.88983,0.45880
3546.96109,0.45761
3545.03234,0.45660
3543.10360,0.45585
3541.17485,0.45540
3539.24611,0.45530
3537.31737,0.45529
3535.38862,0.45511
3533.45988,0.45495
3531.53113,0.45500
3529.60239,0.45534
3527.67364,0.45599
3525.74490,0.45652
3523.81615,0.45676
3521.88741,0.45713
3519.95867,0.45775
3518.02992,0.45836
3516.10118,0.45882
3514.17243,0.45903
3512.24369,0.45905
3510.31494,0.45908
3508.38620,0.45922
3506.45745,0.45951
3504.52871,0.45983
3502.59997,0.45975
3500.67122,0.45921
3498.74248,0.45859
3496.81373,0.45793
3494.88499,0.45711
3492.95624,0.45626
3491.02750,0.45534
3489.09875,0.45424
3487.17001,0.45312
3485.24126,0.45208
3483.31252,0.45087
3481.38378,0.44926
3479.45503,0.44731
3477.52629,0.44498
3475.59754,0.44232
3473.66880,0.43949
3471.74005,0.43658
3469.81131,0.43347
3467.88256,0.42995
3465.95382,0.42598
3464.02508,0.42179
3462.09633,0.41780
3460.16759,0.41388
3458.23884,0.40945
3456.31010,0.40456
3454.38135,0.39962
3452.45261,0.39480
3450.52386,0.39012
3448.59512,0.38524
3446.66638,0.37981
3444.73763,0.37406
3442.80889,0.36824
3440.88014,0.36231
3438.95140,0.35605
3437.02265,0.34936
3435.09391,0.34274
3433.16516,0.33738
3431.23642,0.33498
3429.30768,0.33666
3427.37893,0.34197
3425.45019,0.34945
3423.52144,0.35779
3421.59270,0.36621
3419.66395,0.37433
3417.73521,0.38201
3415.80646,0.38918
3413.87772,0.39544
3411.94897,0.40074
3410.02023,0.40567
3408.09149,0.41062
3406.16274,0.41519
3404.23400,0.41904
3402.30525,0.42209
3400.37651,0.42446
3398.44776,0.42644
3396.51902,0.42827
3394.59027,0.43003
3392.66153,0.43152
3390.73279,0.43247
3388.80404,0.43291
3386.87530,0.43313
3384.94655,0.43328
3383.01781,0.43343
3381.08906,0.43363
3379.16032,0.43384
3377.23157,0.43387
3375.30283,0.43340
3373.37409,0.43266
3371.44534,0.43215
3369.51660,0.43174
3367.58785,0.43113
3365.65911,0.43034
3363.73036,0.42934
3361.80162,0.42807
3359.87287,0.42660
3357.94413,0.42503
3356.01539,0.42323
3354.08664,0.42098
3352.15790,0.41850
3350.22915,0.41611
3348.30041,0.41371
3346.37166,0.41127
3344.44292,0.40909
3342.51417,0.40729
3340.58543,0.40581
3338.65668,0.40476
3336.72794,0.40424
3334.79920,0.40418
3332.87045,0.40484
3330.94171,0.40642
3329.01296,0.40843
3327.08422,0.41042
3325.15547,0.41253
3323.22673,0.41455
3321.29798,0.41602
3319.36924,0.41684
3317.44050,0.41715
3315.51175,0.41719
3313.58301,0.41704
3311.65426,0.41657
3309.72552,0.41586
3307.79677,0.41515
3305.86803,0.41488
3303.93928,0.41506
3302.01054,0.41501
3300.08180,0.41481
3298.15305,0.41516
3296.22431,0.41596
3294.29556,0.41674
3292.36682,0.41767
3290.43807,0.41880
3288.50933,0.41983
3286.58058,0.42089
3284.65184,0.42216
3282.72310,0.42328
3280.79435,0.42403
3278.86561,0.42474
3276.93686,0.42567
3275.00812,0.42666
3273.07937,0.42757
3271.15063,0.42841
3269.22188,0.42921
3267.29314,0.43003
3265.36439,0.43083
3263.43565,0.43149
3261.50691,0.43203
3259.57816,0.43236
3257.64942,0.43237
3255.72067,0.43250
3253.79193,0.43316
3251.86318,0.43403
3249.93444,0.43463
3248.00569,0.43467
3246.07695,0.43429
3244.14821,0.43407
3242.21946,0.43418
3240.29072,0.43441
3238.36197,0.43464
3236.43323,0.43504
3234.50448,0.43578
3232.57574,0.43663
3230.64699,0.43739
3228.71825,0.43818
3226.78951,0.43899
3224.86076,0.43992
3222.93202,0.44118
3221.00327,0.44263
3219.07453,0.44389
3217.14578,0.44473
3215.21704,0.44538
3213.28829,0.44608
3211.35955,0.44683
3209.43081,0.44768
3207.50206,0.44825
3205.57332,0.44823
3203.64457,0.44799
3201.71583,0.44784
3199.78708,0.44779
3197.85834,0.44784
3195.92959,0.44784
3194.00085,0.44771
3192.07210,0.44766
3190.14336,0.44778
3188.21462,0.44809
3186.28587,0.44866
3184.35713,0.44920
3182.42838,0.44943
3180.49964,0.44973
3178.57089,0.45013
3176.64215,0.45031
3174.71340,0.45036
3172.78466,0.45032
3170.85592,0.45027
3168.92717,0.45046
3166.99843,0.45060
3165.06968,0.45033
3163.14094,0.45003
3161.21219,0.45004
3159.28345,0.45001
3157.35470,0.44954
3155.42596,0.44885
3153.49722,0.44836
3151.56847,0.44786
3149.63973,0.44714
3147.71098,0.44626
3145.78224,0.44508
3143.85349,0.44355
3141.92475,0.44191
3139.99600,0.44018
3138.06726,0.43809
3136.13852,0.43555
3134.20977,0.43278
3132.28103,0.43021
3130.35228,0.42837
3128.42354,0.42741
3126.49479,0.42724
3124.56605,0.42776
3122.63730,0.42857
3120.70856,0.42900
3118.77981,0.42859
3116.85107,0.42707
3114.92233,0.42437
3112.99358,0.42054
3111.06484,0.41588
3109.13609,0.41098
3107.20735,0.40640
3105.27860,0.40258
3103.34986,0.40037
3101.42111,0.40051
3099.49237,0.40279
3097.56363,0.40602
3095.63488,0.40879
3093.70614,0.41015
3091.77739,0.40961
3089.84865,0.40713
3087.91990,0.40312
3085.99116,0.39833
3084.06241,0.39371
3082.13367,0.39038
3080.20493,0.38893
3078.27618,0.38866
3076.34744,0.38835
3074.41869,0.38739
3072.48995,0.38577
3070.56120,0.38406
3068.63246,0.38302
3066.70371,0.38298
3064.77497,0.38334
3062.84623,0.38292
3060.91748,0.38060
3058.98874,0.37614
3057.05999,0.37113
3055.13125,0.36863
3053.20250,0.37093
3051.27376,0.37814
3049.34501,0.38873
3047.41627,0.40030
3045.48752,0.41072
3043.55878,0.41879
3041.63004,0.42399
3039.70129,0.42624
3037.77255,0.42614
3035.84380,0.42465
3033.91506,0.42227
3031.98631,0.41906
3030.05757,0.41503
3028.12882,0.40991
3026.20008,0.40335
3024.27134,0.39523
3022.34259,0.38548
3020.41385,0.37410
3018.48510,0.36191
3016.55636,0.35096
3014.62761,0.34335
3012.69887,0.33945
3010.77012,0.33796
3008.84138,0.33729
3006.91264,0.33638
3004.98389,0.33502
3003.05515,0.33335
3001.12640,0.33139
2999.19766,0.32918
2997.26891,0.32669
2995.34017,0.32373
2993.41142,0.31989
2991.48268,0.31492
2989.55394,0.30888
2987.62519,0.30188
2985.69645,0.29399
2983.76770,0.28522
2981.83896,0.27555
2979.91021,0.26507
2977.98147,0.25400
2976.05272,0.24289
2974.12398,0.23284
2972.19523,0.22548
2970.26649,0.22215
2968.33775,0.22299
2966.40900,0.22681
2964.48026,0.23179
2962.55151,0.23660
2960.62277,0.24109
2958.69402,0.24581
2956.76528,0.25129
2954.83653,0.25792
2952.90779,0.26565
2950.97905,0.27399
2949.05030,0.28260
2947.12156,0.29140
2945.19281,0.30004
2943.26407,0.30785
2941.33532,0.31447
2939.40658,0.31990
2937.47783,0.32394
2935.54909,0.32616
2933.62035,0.32654
2931.69160,0.32551
2929.76286,0.32346
2927.83411,0.32073
2925.90537,0.31757
2923.97662,0.31378
2922.04788,0.30921
2920.11913,0.30408
2918.19039,0.29842
2916.26165,0.29190
2914.33290,0.28434
2912.40416,0.27603
2910.47541,0.26842
2908.54667,0.26458
2906.61792,0.26724
2904.68918,0.27620
2902.76043,0.28833
2900.83169,0.30002
2898.90294,0.30924
2896.97420,0.31578
2895.04546,0.32019
2893.11671,0.32307
2891.18797,0.32488
2889.25922,0.32643
2887.33048,0.32881
2885.40173,0.33228
2883.47299,0.33621
2881.54424,0.33995
2879.61550,0.34313
2877.68676,0.34580
2875.75801,0.34817
2873.82927,0.35018
2871.90052,0.35183
2869.97178,0.35345
2868.04303,0.35512
2866.11429,0.35658
2864.18554,0.35757
2862.25680,0.35820
2860.32806,0.35879
2858.39931,0.35946
2856.47057,0.36048
2854.54182,0.36237
2852.61308,0.36568
2850.68433,0.37132
2848.75559,0.38018
2846.82684,0.39165
2844.89810,0.40369
2842.96936,0.41453
2841.04061,0.42369
2839.11187,0.43144
2837.18312,0.43824
2835.25438,0.44435
2833.32563,0.44975
2831.39689,0.45457
2829.46814,0.45903
2827.53940,0.46301
2825.61065,0.46626
2823.68191,0.46875
2821.75317,0.47047
2819.82442,0.47123
2817.89568,0.47085
2815.96693,0.46990
2814.03819,0.46917
2812.10944,0.46870
2810.18070,0.46816
2808.25195,0.46781
2806.32321,0.46820
2804.39447,0.46955
2802.46572,0.47182
2800.53698,0.47484
2798.60823,0.47820
2796.67949,0.48155
2794.75074,0.48500
2792.82200,0.48854
2790.89325,0.49184
2788.96451,0.49483
2787.03577,0.49755
2785.10702,0.49988
2783.17828,0.50190
2781.24953,0.50385
2779.32079,0.50581
2777.39204,0.50763
2775.46330,0.50922
2773.53455,0.51063
2771.60581,0.51201
2769.67707,0.51337
2767.74832,0.51442
2765.81958,0.51500
2763.89083,0.51543
2761.96209,0.51584
2760.03334,0.51602
2758.10460,0.51596
2756.17585,0.51592
2754.24711,0.51593
2752.31836,0.51579
2750.38962,0.51558
2748.46088,0.51546
2746.53213,0.51543
2744.60339,0.51559
2742.67464,0.51629
2740.74590,0.51793
2738.81715,0.52046
2736.88841,0.52343
2734.95966,0.52645
2733.03092,0.52938
2731.10218,0.53205
2729.17343,0.53440
2727.24469,0.53662
2725.31594,0.53862
2723.38720,0.54022
2721.45845,0.54152
2719.52971,0.54269
2717.60096,0.54386
2715.67222,0.54518
2713.74348,0.54672
2711.81473,0.54848
2709.88599,0.55044
2707.95724,0.55242
2706.02850,0.55426
2704.09975,0.55599
2702.17101,0.55744
2700.24226,0.55854
2698.31352,0.55947
2696.38477,0.56045
2694.45603,0.56155
2692.52729,0.56252
2690.59854,0.56306
2688.66980,0.56324
2686.74105,0.56325
2684.81231,0.56331
2682.88356,0.56359
2680.95482,0.56401
2679.02607,0.56440
2677.09733,0.56483
2675.16859,0.56540
2673.23984,0.56613
2671.31110,0.56700
2669.38235,0.56771
2667.45361,0.56792
2665.52486,0.56772
2663.59612,0.56734
2661.66737,0.56681
2659.73863,0.56618
2657.80989,0.56552
2655.88114,0.56467
2653.95240,0.56360
2652.02365,0.56238
2650.09491,0.56100
2648.16616,0.55931
2646.23742,0.55707
2644.30867,0.55411
2642.37993,0.55043
2640.45119,0.54626
2638.52244,0.54199
2636.59370,0.53816
2634.66495,0.53526
2632.73621,0.53344
2630.80746,0.53265
2628.87872,0.53284
2626.94997,0.53372
2625.02123,0.53489
2623.09248,0.53606
2621.16374,0.53702
2619.23500,0.53757
2617.30625,0.53753
2615.37751,0.53704
2613.44876,0.53641
2611.52002,0.53583
2609.59127,0.53536
2607.66253,0.53506
2605.73378,0.53481
2603.80504,0.53420
2601.87630,0.53306
2599.94755,0.53152
2598.01881,0.52971
2596.09006,0.52761
2594.16132,0.52522
2592.23257,0.52284
2590.30383,0.52076
2588.37508,0.51908
2586.44634,0.51789
2584.51760,0.51712
2582.58885,0.51672
2580.66011,0.51674
2578.73136,0.51723
2576.80262,0.51794
2574.87387,0.51846
2572.94513,0.51852
2571.01638,0.51820
2569.08764,0.51768
2567.15890,0.51711
2565.23015,0.51662
2563.30141,0.51627
2561.37266,0.51600
2559.44392,0.51561
2557.51517,0.51509
2555.58643,0.51480
2553.65768,0.51486
2551.72894,0.51478
2549.80019,0.51425
2547.87145,0.51356
2545.94271,0.51291
2544.01396,0.51228
2542.08522,0.51183
2540.15647,0.51164
2538.22773,0.51154
2536.29898,0.51143
2534.37024,0.51153
2532.44149,0.51203
2530.51275,0.51297
2528.58401,0.51423
2526.65526,0.51570
2524.72652,0.51739
2522.79777,0.51925
2520.86903,0.52120
2518.94028,0.52307
2517.01154,0.52470
2515.08279,0.52609
2513.15405,0.52723
2511.22531,0.52802
2509.29656,0.52837
2507.36782,0.52845
2505.43907,0.52857
2503.51033,0.52884
2501.58158,0.52925
2499.65284,0.52989
2497.72409,0.53093
2495.79535,0.53253
2493.86661,0.53447
2491.93786,0.53646
2490.00912,0.53856
2488.08037,0.54094
2486.15163,0.54351
2484.22288,0.54605
2482.29414,0.54847
2480.36539,0.55089
2478.43665,0.55325
2476.50790,0.55527
2474.57916,0.55687
2472.65042,0.55834
2470.72167,0.55972
2468.79293,0.56063
2466.86418,0.56110
2464.93544,0.56148
2463.00669,0.56178
2461.07795,0.56202
2459.14920,0.56213
2457.22046,0.56189
2455.29172,0.56132
2453.36297,0.56069
2451.43423,0.56000
2449.50548,0.55905
2447.57674,0.55774
2445.64799,0.55610
2443.71925,0.55414
2441.79050,0.55186
2439.86176,0.54922
2437.93302,0.54627
2436.00427,0.54320
2434.07553,0.54017
2432.14678,0.53714
2430.21804,0.53398
2428.28929,0.53065
2426.36055,0.52716
2424.43180,0.52363
2422.50306,0.52020
2420.57432,0.51692
2418.64557,0.51374
2416.71683,0.51073
2414.78808,0.50789
2412.85934,0.50502
2410.93059,0.50213
2409.00185,0.49935
2407.07310,0.49682
2405.14436,0.49461
2403.21561,0.49255
2401.28687,0.49046
2399.35813,0.48854
2397.42938,0.48693
2395.50064,0.48562
2393.57189,0.48456
2391.64315,0.48381
2389.71440,0.48356
2387.78566,0.48379
2385.85691,0.48422
2383.92817,0.48481
2381.99943,0.48568
2380.07068,0.48670
2378.14194,0.48786
2376.21319,0.48928
2374.28445,0.49098
2372.35570,0.49293
2370.42696,0.49524
2368.49821,0.49805
2366.56947,0.50148
2364.64073,0.50547
2362.71198,0.50986
2360.78324,0.51444
2358.85449,0.51882
2356.92575,0.52277
2354.99700,0.52635
2353.06826,0.52954
2351.13951,0.53233
2349.21077,0.53479
2347.28203,0.53703
2345.35328,0.53915
2343.42454,0.54083
2341.49579,0.54164
2339.56705,0.54164
2337.63830,0.54135
2335.70956,0.54133
2333.78081,0.54200
2331.85207,0.54341
2329.92332,0.54516
2327.99458,0.54672
2326.06584,0.54805
2324.13709,0.54945
2322.20835,0.55111
2320.27960,0.55275
2318.35086,0.55392
2316.42211,0.55442
2314.49337,0.55434
2312.56462,0.55360
2310.63588,0.55193
2308.70714,0.54931
2306.77839,0.54597
2304.84965,0.54200
2302.92090,0.53749
2300.99216,0.53258
2299.06341,0.52732
2297.13467,0.52188
2295.20592,0.51648
2293.27718,0.51140
2291.34844,0.50688
2289.41969,0.50316
2287.49095,0.50059
2285.56220,0.49932
2283.63346,0.49909
2281.70471,0.49943
2279.77597,0.49999
2277.84722,0.50036
2275.91848,0.50016
2273.98974,0.49931
2272.06099,0.49807
2270.13225,0.49664
2268.20350,0.49520
2266.27476,0.49392
2264.34601,0.49284
2262.41727,0.49201
2260.48852,0.49165
2258.55978,0.49185
2256.63103,0.49244
2254.70229,0.49330
2252.77355,0.49457
2250.84480,0.49640
2248.91606,0.49873
2246.98731,0.50129
2245.05857,0.50380
2243.12982,0.50625
2241.20108,0.50871
2239.27233,0.51112
2237.34359,0.51337
2235.41485,0.51537
2233.48610,0.51708
2231.55736,0.51849
2229.62861,0.51965
2227.69987,0.52064
2225.77112,0.52139
2223.84238,0.52190
2221.91363,0.52241
2219.98489,0.52311
2218.05615,0.52382
2216.12740,0.52430
2214.19866,0.52461
2212.26991,0.52513
2210.34117,0.52624
2208.41242,0.52805
2206.48368,0.53048
2204.55493,0.53310
2202.62619,0.53539
2200.69745,0.53719
2198.76870,0.53843
2196.83996,0.53903
2194.91121,0.53913
2192.98247,0.53895
2191.05372,0.53838
2189.12498,0.53736
2187.19623,0.53608
2185.26749,0.53456
2183.33874,0.53261
2181.41000,0.53007
2179.48126,0.52716
2177.55251,0.52409
2175.62377,0.52084
2173.69502,0.51739
2171.76628,0.51374
2169.83753,0.50973
2167.90879,0.50533
2165.98004,0.50065
2164.05130,0.49575
2162.12256,0.49079
2160.19381,0.48583
2158.26507,0.48086
2156.33632,0.47595
2154.40758,0.47120
2152.47883,0.46679
2150.55009,0.46283
2148.62134,0.45922
2146.69260,0.45586
2144.76386,0.45288
2142.83511,0.45028
2140.90637,0.44788
2138.97762,0.44559
2137.04888,0.44346
2135.12013,0.44116
2133.19139,0.43824
2131.26264,0.43472
2129.33390,0.43087
2127.40516,0.42692
2125.47641,0.42306
2123.54767,0.41939
2121.61892,0.41594
2119.69018,0.41283
2117.76143,0.41033
2115.83269,0.40857
2113.90394,0.40742
2111.97520,0.40663
2110.04645,0.40620
2108.11771,0.40631
2106.18897,0.40699
2104.26022,0.40784
2102.33148,0.40856
2100.40273,0.40939
2098.47399,0.41055
2096.54524,0.41176
2094.61650,0.41287
2092.68775,0.41428
2090.75901,0.41641
2088.83027,0.41911
2086.90152,0.42218
2084.97278,0.42561
2083.04403,0.42931
2081.11529,0.43326
2079.18654,0.43754
2077.25780,0.44189
2075.32905,0.44611
2073.40031,0.45035
2071.47157,0.45479
2069.54282,0.45950
2067.61408,0.46441
2065.68533,0.46943
2063.75659,0.47467
2061.82784,0.48010
2059.89910,0.48543
2057.97035,0.49045
2056.04161,0.49505
2054.11287,0.49905
2052.18412,0.50248
2050.25538,0.50548
2048.32663,0.50801
2046.39789,0.50988
2044.46914,0.51107
2042.54040,0.51176
2040.61165,0.51208
2038.68291,0.51203
2036.75416,0.51149
2034.82542,0.51031
2032.89668,0.50848
2030.96793,0.50611
2029.03919,0.50314
2027.11044,0.49950
2025.18170,0.49541
2023.25295,0.49129
2021.32421,0.48730
2019.39546,0.48331
2017.46672,0.47921
2015.53798,0.47509
2013.60923,0.47114
2011.68049,0.46732
2009.75174,0.46344
2007.82300,0.45944
2005.89425,0.45533
2003.96551,0.45101
2002.03676,0.44649
2000.10802,0.44189
1998.17928,0.43728
1996.25053,0.43271
1994.32179,0.42822
1992.39304,0.42369
1990.46430,0.41909
1988.53555,0.41473
1986.60681,0.41078
1984.67806,0.40693
1982.74932,0.40267
1980.82058,0.39780
1978.89183,0.39254
1976.96309,0.38718
1975.03434,0.38162
1973.10560,0.37521
1971.17685,0.36738
1969.24811,0.35817
1967.31936,0.34793
1965.39062,0.33746
1963.46187,0.32851
1961.53313,0.32304
1959.60439,0.32187
1957.67564,0.32431
1955.74690,0.32898
1953.81815,0.33461
1951.88941,0.34037
1949.96066,0.34600
1948.03192,0.35173
1946.10317,0.35784
1944.17443,0.36437
1942.24569,0.37119
1940.31694,0.37798
1938.38820,0.38438
1936.45945,0.39050
1934.53071,0.39643
1932.60196,0.40196
1930.67322,0.40710
1928.74447,0.41193
1926.81573,0.41619
1924.88699,0.41990
1922.95824,0.42345
1921.02950,0.42694
1919.10075,0.43028
1917.17201,0.43354
1915.24326,0.43678
1913.31452,0.43981
1911.38577,0.44237
1909.45703,0.44449
1907.52829,0.44642
1905.59954,0.44818
1903.67080,0.44977
1901.74205,0.45116
1899.81331,0.45237
1897.88456,0.45342
1895.95582,0.45420
1894.02707,0.45469
1892.09833,0.45493
1890.16958,0.45500
1888.24084,0.45481
1886.31210,0.45437
1884.38335,0.45387
1882.45461,0.45324
1880.52586,0.45222
1878.59712,0.45064
1876.66837,0.44845
1874.73963,0.44557
1872.81088,0.44213
1870.88214,0.43837
1868.95340,0.43434
1867.02465,0.43005
1865.09591,0.42555
1863.16716,0.42077
1861.23842,0.41545
1859.30967,0.40939
1857.38093,0.40253
1855.45218,0.39494
1853.52344,0.38662
1851.59470,0.37776
1849.66595,0.36891
1847.73721,0.36045
1845.80846,0.35228
1843.87972,0.34434
1841.95097,0.33707
1840.02223,0.33054
1838.09348,0.32437
1836.16474,0.31850
1834.23600,0.31313
1832.30725,0.30840
1830.37851,0.30425
1828.44976,0.30080
1826.52102,0.29840
1824.59227,0.29697
1822.66353,0.29624
1820.73478,0.29586
1818.80604,0.29542
1816.87729,0.29472
1814.94855,0.29373
1813.01981,0.29246
1811.09106,0.29098
1809.16232,0.28948
1807.23357,0.28811
1805.30483,0.28693
1803.37608,0.28596
1801.44734,0.28498
1799.51859,0.28366
1797.58985,0.28196
1795.66111,0.27991
1793.73236,0.27741
1791.80362,0.27443
1789.87487,0.27109
1787.94613,0.26742
1786.01738,0.26347
1784.08864,0.25938
1782.15989,0.25500
1780.23115,0.25004
1778.30241,0.24452
1776.37366,0.23858
1774.44492,0.23214
1772.51617,0.22495
1770.58743,0.21712
1768.65868,0.20896
1766.72994,0.20035
1764.80119,0.19140
1762.87245,0.18158
1760.94370,0.17039
1759.01496,0.15828
1757.08622,0.14493
1755.15747,0.13034
1753.22873,0.11508
1751.29998,0.09872
1749.37124,0.08195
1747.44249,0.06653
1745.51375,0.05349
1743.58500,0.04366
1741.65626,0.03730
1739.72752,0.03368
1737.79877,0.03219
1735.87003,0.03226
1733.94128,0.03320
1732.01254,0.03440
1730.08379,0.03572
1728.15505,0.03733
1726.22630,0.03901
1724.29756,0.04062
1722.36882,0.04234
1720.44007,0.04448
1718.51133,0.04744
1716.58258,0.05202
1714.65384,0.05929
1712.72509,0.06946
1710.79635,0.08166
1708.86760,0.09430
1706.93886,0.10670
1705.01012,0.11874
1703.08137,0.12979
1701.15263,0.14038
1699.22388,0.15024
1697.29514,0.15794
1695.36639,0.16432
1693.43765,0.16962
1691.50890,0.17330
1689.58016,0.17542
1687.65141,0.17572
1685.72267,0.17473
1683.79393,0.17489
1681.86518,0.17865
1679.93644,0.18529
1678.00769,0.19258
1676.07895,0.19907
1674.15020,0.20459
1672.22146,0.20964
1670.29271,0.21529
1668.36397,0.22211
1666.43523,0.22924
1664.50648,0.23601
1662.57774,0.24235
1660.64899,0.24781
1658.72025,0.25225
1656.79150,0.25595
1654.86276,0.25934
1652.93401,0.26277
1651.00527,0.26555
1649.07653,0.26755
1647.14778,0.26958
1645.21904,0.27202
1643.29029,0.27470
1641.36155,0.27742
1639.43280,0.27994
1637.50406,0.28206
1635.57531,0.28369
1633.64657,0.28488
1631.71783,0.28589
1629.78908,0.28681
1627.86034,0.28750
1625.93159,0.28757
1624.00285,0.28656
1622.07410,0.28396
1620.14536,0.27947
1618.21661,0.27287
1616.28787,0.26538
1614.35912,0.26099
1612.43038,0.26169
1610.50164,0.26612
1608.57289,0.27207
1606.64415,0.27801
1604.71540,0.28345
1602.78666,0.28826
1600.85791,0.29234
1598.92917,0.29539
1597.00042,0.29668
1595.07168,0.29558
1593.14294,0.29223
1591.21419,0.28709
1589.28545,0.28010
1587.35670,0.27039
1585.42796,0.25675
1583.49921,0.23951
1581.57047,0.22242
1579.64172,0.21151
1577.71298,0.21129
1575.78424,0.22235
1573.85549,0.23842
1571.92675,0.25359
1569.99800,0.26705
1568.06926,0.27738
1566.14051,0.28385
1564.21177,0.28770
1562.28302,0.29005
1560.35428,0.29144
1558.42554,0.29179
1556.49679,0.29127
1554.56805,0.29044
1552.63930,0.28933
1550.71056,0.28770
1548.78181,0.28540
1546.85307,0.28295
1544.92432,0.28134
1542.99558,0.28126
1541.06683,0.28246
1539.13809,0.28341
1537.20935,0.28279
1535.28060,0.28071
1533.35186,0.27723
1531.42311,0.27270
1529.49437,0.26785
1527.56562,0.26314
1525.63688,0.25937
1523.70813,0.25744
1521.77939,0.25705
1519.85065,0.25638
1517.92190,0.25346
1515.99316,0.24650
1514.06441,0.23338
1512.13567,0.21212
1510.20692,0.18317
1508.27818,0.15145
1506.34943,0.13061
1504.42069,0.13646
1502.49195,0.16339
1500.56320,0.19817
1498.63446,0.23097
1496.70571,0.25535
1494.77697,0.26897
1492.84822,0.27329
1490.91948,0.27121
1488.99073,0.26469
1487.06199,0.25514
1485.13325,0.24367
1483.20450,0.23106
1481.27576,0.21755
1479.34701,0.20332
1477.41827,0.18829
1475.48952,0.17259
1473.56078,0.15849
1471.63203,0.15155
1469.70329,0.15414
1467.77454,0.16054
1465.84580,0.16450
1463.91706,0.16410
1461.98831,0.16106
1460.05957,0.15737
1458.13082,0.15366
1456.20208,0.15055
1454.27333,0.14916
1452.34459,0.14962
1450.41584,0.15117
1448.48710,0.15305
1446.55836,0.15478
1444.62961,0.15616
1442.70087,0.15723
1440.77212,0.15825
1438.84338,0.15984
1436.91463,0.16254
1434.98589,0.16593
1433.05714,0.16906
1431.12840,0.17119
1429.19966,0.17104
1427.27091,0.16756
1425.34217,0.16046
1423.41342,0.14961
1421.48468,0.13484
1419.55593,0.11564
1417.62719,0.09417
1415.69844,0.07554
1413.76970,0.06280
1411.84096,0.05728
1409.91221,0.05876
1407.98347,0.06587
1406.05472,0.07682
1404.12598,0.08919
1402.19723,0.10043
1400.26849,0.10940
1398.33974,0.11572
1396.41100,0.11900
1394.48225,0.11943
1392.55351,0.11756
1390.62477,0.11418
1388.69602,0.11024
1386.76728,0.10705
1384.83853,0.10573
1382.90979,0.10591
1380.98104,0.10627
1379.05230,0.10583
1377.12355,0.10430
1375.19481,0.10179
1373.26607,0.09887
1371.33732,0.09664
1369.40858,0.09596
1367.47983,0.09708
1365.55109,0.09925
1363.62234,0.10103
1361.69360,0.10090
1359.76485,0.09818
1357.83611,0.09323
1355.90737,0.08672
1353.97862,0.07931
1352.04988,0.07170
1350.12113,0.06488
1348.19239,0.05986
1346.26364,0.05693
1344.33490,0.05574
1342.40615,0.05598
1340.47741,0.05817
1338.54867,0.06383
1336.61992,0.07384
1334.69118,0.08673
1332.76243,0.09898
1330.83369,0.10703
1328.90494,0.10932
1326.97620,0.10650
1325.04745,0.10008
1323.11871,0.09166
1321.18996,0.08293
1319.26122,0.07499
1317.33248,0.06795
1315.40373,0.06154
1313.47499,0.05569
1311.54624,0.05052
1309.61750,0.04630
1307.68875,0.04315
1305.76001,0.04083
1303.83126,0.03894
1301.90252,0.03735
1299.97378,0.03629
1298.04503,0.03595
1296.11629,0.03624
1294.18754,0.03711
1292.25880,0.03847
1290.33005,0.04011
1288.40131,0.04199
1286.47256,0.04415
1284.54382,0.04648
1282.61508,0.04894
1280.68633,0.05154
1278.75759,0.05406
1276.82884,0.05626
1274.90010,0.05804
1272.97135,0.05944
1271.04261,0.06051
1269.11386,0.06135
1267.18512,0.06208
1265.25638,0.06282
1263.32763,0.06349
1261.39889,0.06389
1259.47014,0.06412
1257.54140,0.06448
1255.61265,0.06501
1253.68391,0.06529
1251.75516,0.06490
1249.82642,0.06383
1247.89767,0.06221
1245.96893,0.06035
1244.04019,0.05886
1242.11144,0.05840
1240.18270,0.05964
1238.25395,0.06364
1236.32521,0.07135
1234.39646,0.08278
1232.46772,0.09677
1230.53897,0.11139
1228.61023,0.12482
1226.68149,0.13626
1224.75274,0.14645
1222.82400,0.15713
1220.89525,0.16909
1218.96651,0.18118
1217.03776,0.19153
1215.10902,0.19946
1213.18027,0.20565
1211.25153,0.21112
1209.32279,0.21688
1207.39404,0.22369
1205.46530,0.23147
1203.53655,0.23945
1201.60781,0.24692
1199.67906,0.25346
1197.75032,0.25885
1195.82157,0.26257
1193.89283,0.26392
1191.96409,0.26270
1190.03534,0.25897
1188.10660,0.25280
1186.17785,0.24440
1184.24911,0.23412
1182.32036,0.22247
1180.39162,0.21051
1178.46287,0.19954
1176.53413,0.19046
1174.60538,0.18372
1172.67664,0.17917
1170.74790,0.17578
1168.81915,0.17190
1166.89041,0.16611
1164.96166,0.15799
1163.03292,0.14801
1161.10417,0.13701
1159.17543,0.12566
1157.24668,0.11432
1155.31794,0.10325
1153.38920,0.09251
1151.46045,0.08217
1149.53171,0.07273
1147.60296,0.06451
1145.67422,0.05746
1143.74547,0.05176
1141.81673,0.04811
1139.88798,0.04679
1137.95924,0.04723
1136.03050,0.04884
1134.10175,0.05116
1132.17301,0.05367
1130.24426,0.05587
1128.31552,0.05733
1126.38677,0.05776
1124.45803,0.05752
1122.52928,0.05759
1120.60054,0.05832
1118.67180,0.05929
1116.74305,0.06000
1114.81431,0.06032
1112.88556,0.06055
1110.95682,0.06076
1109.02807,0.06072
1107.09933,0.06078
1105.17058,0.06146
1103.24184,0.06286
1101.31309,0.06501
1099.38435,0.06810
1097.45561,0.07245
1095.52686,0.07836
1093.59812,0.08557
1091.66937,0.09368
1089.74063,0.10261
1087.81188,0.11278
1085.88314,0.12498
1083.95439,0.13966
1082.02565,0.15656
1080.09691,0.17495
1078.16816,0.19375
1076.23942,0.21168
1074.31067,0.22755
1072.38193,0.24047
1070.45318,0.25021
1068.52444,0.25749
1066.59569,0.26310
1064.66695,0.26711
1062.73821,0.26924
1060.80946,0.26925
1058.88072,0.26684
1056.95197,0.26198
1055.02323,0.25504
1053.09448,0.24666
1051.16574,0.23777
1049.23699,0.22938
1047.30825,0.22222
1045.37951,0.21667
1043.45076,0.21279
1041.52202,0.21021
1039.59327,0.20821
1037.66453,0.20561
1035.73578,0.20071
1033.80704,0.19197
1031.87829,0.17764
1029.94955,0.15554
1028.02080,0.12672
1026.09206,0.09985
1024.16332,0.08558
1022.23457,0.08538
1020.30583,0.09401
1018.37708,0.11101
1016.44834,0.14050
1014.51959,0.18128
1012.59085,0.22395
1010.66210,0.25924
1008.73336,0.28437
1006.80462,0.30082
1004.87587,0.31074
1002.94713,0.31630
1001.01838,0.31915
999.08964,0.31991
997.16089,0.31853
995.23215,0.31420
993.30340,0.30586
991.37466,0.29475
989.44592,0.28526
987.51717,0.27971
985.58843,0.27452
983.65968,0.26478
981.73094,0.24938
979.80219,0.23033
977.87345,0.21068
975.94470,0.19382
974.01596,0.18311
972.08722,0.18141
970.15847,0.18992
968.22973,0.20670
966.30098,0.22756
964.37224,0.24893
962.44349,0.26895
960.51475,0.28690
958.58600,0.30260
956.65726,0.31608
954.72851,0.32743
952.79977,0.33661
950.87103,0.34366
948.94228,0.34895
947.01354,0.35292
945.08479,0.35589
943.15605,0.35800
941.22730,0.35929
939.29856,0.35994
937.36981,0.36031
935.44107,0.36058
933.51233,0.36066
931.58358,0.36053
929.65484,0.36007
927.72609,0.35905
925.79735,0.35750
923.86860,0.35543
921.93986,0.35266
920.01111,0.34910
918.08237,0.34438
916.15363,0.33778
914.22488,0.32912
912.29614,0.31902
910.36739,0.30790
908.43865,0.29602
906.50990,0.28422
904.58116,0.27384
902.65241,0.26596
900.72367,0.26090
898.79492,0.25837
896.86618,0.25778
894.93744,0.25833
893.00869,0.25880
891.07995,0.25782
889.15120,0.25449
887.22246,0.24857
885.29371,0.24027
883.36497,0.22980
881.43622,0.21737
879.50748,0.20364
877.57874,0.18925
875.64999,0.17554
873.72125,0.16853
871.79250,0.17619
869.86376,0.19615
867.93501,0.21605
866.00627,0.22766
864.07752,0.23075
862.14878,0.22755
860.22004,0.22020
858.29129,0.21046
856.36255,0.19994
854.43380,0.19012
852.50506,0.18178
850.57631,0.17617
848.64757,0.17577
846.71882,0.18204
844.79008,0.19362
842.86134,0.20727
840.93259,0.22021
839.00385,0.23175
837.07510,0.24221
835.14636,0.25135
833.21761,0.25903
831.28887,0.26557
829.36012,0.27110
827.43138,0.27550
825.50263,0.27861
823.57389,0.28032
821.64515,0.28073
819.71640,0.28015
817.78766,0.27898
815.85891,0.27742
813.93017,0.27546
812.00142,0.27314
810.07268,0.27060
808.14393,0.26783
806.21519,0.26483
804.28645,0.26162
802.35770,0.25804
800.42896,0.25314
798.50021,0.24429
796.57147,0.23082
794.64272,0.21943
792.71398,0.21871
790.78523,0.22867
788.85649,0.24228
786.92775,0.25458
784.99900,0.26456
783.07026,0.27201
781.14151,0.27682
779.21277,0.27980
777.28402,0.28214
775.35528,0.28453
773.42653,0.28705
771.49779,0.28943
769.56905,0.29134
767.64030,0.29249
765.71156,0.29258
763.78281,0.29143
761.85407,0.28904
759.92532,0.28550
757.99658,0.28101
756.06783,0.27527
754.13909,0.26763
752.21034,0.25772
750.28160,0.24529
748.35286,0.22997
746.42411,0.21093
744.49537,0.18729
742.56662,0.15909
740.63788,0.12844
738.70913,0.09979
736.78039,0.07783
734.85164,0.06471
732.92290,0.05950
730.99416,0.06000
729.06541,0.06491
727.13667,0.07586
725.20792,0.09671
723.27918,0.12854
721.35043,0.16619
719.42169,0.20069
717.49294,0.22507
715.56420,0.23825
713.63546,0.24385
711.70671,0.24603
709.77797,0.24741
707.84922,0.24951
705.92048,0.25257
703.99173,0.25663
702.06299,0.26329
700.13424,0.27378
698.20550,0.28576
696.27676,0.29545
694.34801,0.30131
692.41927,0.30376
690.49052,0.30376
688.56178,0.30200
686.63303,0.29831
684.70429,0.29238
682.77554,0.28541
680.84680,0.28036
678.91805,0.27937
676.98931,0.28190
675.06057,0.28569
673.13182,0.28891
671.20308,0.29106
669.27433,0.29234
667.34559,0.29350
665.41684,0.29497
663.48810,0.29601
661.55935,0.29613
659.63061,0.29500
657.70187,0.29267
655.77312,0.29157
653.84438,0.29376
651.91563,0.29717
649.98689,0.29932
648.05814,0.30034
646.12940,0.30019
644.20065,0.29876
642.27191,0.29746
640.34317,0.29683
638.41442,0.29428
636.48568,0.28538
634.55693,0.26916
632.62819,0.25566
630.69944,0.25779
628.77070,0.27192
626.84195,0.28441
624.91321,0.29041
622.98447,0.29239
621.05572,0.29254
619.12698,0.29189
617.19823,0.29059
615.26949,0.28928
613.34074,0.28893
611.41200,0.28897
609.48325,0.28828
607.55451,0.28683
605.62576,0.28538
603.69702,0.28492
601.76828,0.28531
599.83953,0.28488
