7497.02977,0.02876
7495.10103,0.03265
7493.17228,0.03427
7491.24354,0.03309
7489.31479,0.03133
7487.38605,0.02769
7485.45730,0.01927
7483.52856,0.01408
7481.59982,0.01741
7479.67107,0.02180
7477.74233,0.02337
7475.81358,0.02338
7473.88484,0.02418
7471.95609,0.02753
7470.02735,0.02820
7468.09860,0.02508
7466.16986,0.02283
7464.24112,0.02063
7462.31237,0.01680
7460.38363,0.01677
7458.45488,0.02086
7456.52614,0.02331
7454.59739,0.02381
7452.66865,0.02564
7450.73990,0.02793
7448.81116,0.02741
7446.88242,0.02334
7444.95367,0.01893
7443.02493,0.01810
7441.09618,0.02315
7439.16744,0.02936
7437.23869,0.03200
7435.30995,0.02995
7433.38120,0.02447
7431.45246,0.02105
7429.52371,0.02190
7427.59497,0.02228
7425.66623,0.01988
7423.73748,0.01808
7421.80874,0.02010
7419.87999,0.02081
7417.95125,0.01920
7416.02250,0.01722
7414.09376,0.01691
7412.16501,0.01870
7410.23627,0.01984
7408.30753,0.02052
7406.37878,0.02322
7404.45004,0.02351
7402.52129,0.02182
7400.59255,0.02337
7398.66380,0.02680
7396.73506,0.02659
7394.80631,0.02496
7392.87757,0.02550
7390.94883,0.02760
7389.02008,0.02916
7387.09134,0.02893
7385.16259,0.02686
7383.23385,0.02568
7381.30510,0.02563
7379.37636,0.02343
7377.44761,0.02120
7375.51887,0.02253
7373.59013,0.02485
7371.66138,0.02744
7369.73264,0.02930
7367.80389,0.02825
7365.87515,0.02506
7363.94640,0.02256
7362.01766,0.02170
7360.08891,0.02174
7358.16017,0.01898
7356.23142,0.01519
7354.30268,0.01604
7352.37394,0.02195
7350.44519,0.02598
7348.51645,0.02547
7346.58770,0.02415
7344.65896,0.02234
7342.73021,0.01927
7340.80147,0.01921
7338.87272,0.02227
7336.94398,0.02336
7335.01524,0.01847
7333.08649,0.01179
7331.15775,0.00991
7329.22900,0.01560
7327.30026,0.02404
7325.37151,0.02762
7323.44277,0.02439
7321.51402,0.01987
7319.58528,0.01706
7317.65654,0.01797
7315.72779,0.02063
7313.79905,0.02288
7311.87030,0.02476
7309.94156,0.02413
7308.01281,0.02070
7306.08407,0.01986
7304.15532,0.02324
7302.22658,0.02448
7300.29784,0.01986
7298.36909,0.01617
7296.44035,0.01922
7294.51160,0.02654
7292.58286,0.02873
7290.65411,0.02422
7288.72537,0.01971
7286.79662,0.01857
7284.86788,0.01885
7282.93913,0.01995
7281.01039,0.02423
7279.08165,0.02903
7277.15290,0.02726
7275.22416,0.02140
7273.29541,0.02017
7271.36667,0.02387
7269.43792,0.02528
7267.50918,0.02249
7265.58043,0.02005
7263.65169,0.02200
7261.72295,0.02534
7259.79420,0.02663
7257.86546,0.02729
7255.93671,0.02866
7254.00797,0.02834
7252.07922,0.02543
7250.15048,0.02279
7248.22173,0.02159
7246.29299,0.01954
7244.36425,0.01787
7242.43550,0.02025
7240.50676,0.02512
7238.57801,0.02783
7236.64927,0.02925
7234.72052,0.03039
7232.79178,0.03031
7230.86303,0.02895
7228.93429,0.02647
7227.00554,0.02460
7225.07680,0.02453
7223.14806,0.02397
7221.21931,0.02278
7219.29057,0.02217
7217.36182,0.02157
7215.43308,0.02173
7213.50433,0.02427
7211.57559,0.02681
7209.64684,0.02760
7207.71810,0.02821
7205.78936,0.02887
7203.86061,0.02831
7201.93187,0.02779
7200.00312,0.02708
7198.07438,0.02594
7196.14563,0.02540
7194.21689,0.02604
7192.28814,0.02738
7190.35940,0.02853
7188.43066,0.02756
7186.50191,0.02477
7184.57317,0.02418
7182.64442,0.02712
7180.71568,0.02916
7178.78693,0.02891
7176.85819,0.02721
7174.92944,0.02644
7173.00070,0.02781
7171.07196,0.02713
7169.14321,0.02280
7167.21447,0.02163
7165.28572,0.02518
7163.35698,0.02795
7161.42823,0.02635
7159.49949,0.02333
7157.57074,0.02198
7155.64200,0.02053
7153.71325,0.01728
7151.78451,0.01810
7149.85577,0.02390
7147.92702,0.02742
7145.99828,0.02595
7144.06953,0.02394
7142.14079,0.02382
7140.21204,0.02498
7138.28330,0.02542
7136.35455,0.02485
7134.42581,0.02383
7132.49707,0.02149
7130.56832,0.01949
7128.63958,0.02167
7126.71083,0.02747
7124.78209,0.03184
7122.85334,0.03159
7120.92460,0.02871
7118.99585,0.02645
7117.06711,0.02678
7115.13837,0.02777
7113.20962,0.02601
7111.28088,0.02439
7109.35213,0.02677
7107.42339,0.02894
7105.49464,0.02715
7103.56590,0.02416
7101.63715,0.02301
7099.70841,0.02394
7097.77967,0.02511
7095.85092,0.02418
7093.92218,0.02187
7091.99343,0.01925
7090.06469,0.01613
7088.13594,0.01378
7086.20720,0.01588
7084.27845,0.02077
7082.34971,0.02190
7080.42096,0.01750
7078.49222,0.01503
7076.56348,0.01936
7074.63473,0.02494
7072.70599,0.02478
7070.77724,0.02296
7068.84850,0.02256
7066.91975,0.02191
7064.99101,0.02069
7063.06226,0.02010
7061.13352,0.02082
7059.20478,0.02206
7057.27603,0.02260
7055.34729,0.02417
7053.41854,0.02619
7051.48980,0.02587
7049.56105,0.02476
7047.63231,0.02600
7045.70356,0.02718
7043.77482,0.02355
7041.84608,0.01713
7039.91733,0.01526
7037.98859,0.01881
7036.05984,0.02283
7034.13110,0.02381
7032.20235,0.02177
7030.27361,0.01962
7028.34486,0.02001
7026.41612,0.02104
7024.48738,0.02223
7022.55863,0.02346
7020.62989,0.02294
7018.70114,0.02152
7016.77240,0.02162
7014.84365,0.02313
7012.91491,0.02626
7010.98616,0.02913
7009.05742,0.03068
7007.12867,0.03156
7005.19993,0.03075
7003.27119,0.02765
7001.34244,0.02472
6999.41370,0.02446
6997.48495,0.02656
6995.55621,0.02801
6993.62746,0.02822
6991.69872,0.02932
6989.76997,0.03001
6987.84123,0.02682
6985.91249,0.02116
6983.98374,0.01626
6982.05500,0.01677
6980.12625,0.02244
6978.19751,0.02501
6976.26876,0.02118
6974.34002,0.01904
6972.41127,0.02219
6970.48253,0.02532
6968.55379,0.02537
6966.62504,0.02282
6964.69630,0.01906
6962.76755,0.01715
6960.83881,0.01900
6958.91006,0.02291
6956.98132,0.02534
6955.05257,0.02666
6953.12383,0.02782
6951.19509,0.02690
6949.26634,0.02444
6947.33760,0.02297
6945.40885,0.02338
6943.48011,0.02317
6941.55136,0.01991
6939.62262,0.01730
6937.69387,0.01729
6935.76513,0.01714
6933.83638,0.01712
6931.90764,0.01856
6929.97890,0.02004
6928.05015,0.02117
6926.12141,0.02223
6924.19266,0.02394
6922.26392,0.02407
6920.33517,0.02119
6918.40643,0.01970
6916.47768,0.02238
6914.54894,0.02348
6912.62020,0.01956
6910.69145,0.01601
6908.76271,0.01587
6906.83396,0.01650
6904.90522,0.01849
6902.97647,0.02223
6901.04773,0.02603
6899.11898,0.02750
6897.19024,0.02807
6895.26150,0.02930
6893.33275,0.02788
6891.40401,0.02415
6889.47526,0.02393
6887.54652,0.02679
6885.61777,0.02837
6883.68903,0.02806
6881.76028,0.02675
6879.83154,0.02525
6877.90280,0.02443
6875.97405,0.02475
6874.04531,0.02562
6872.11656,0.02574
6870.18782,0.02566
6868.25907,0.02426
6866.33033,0.02193
6864.40158,0.02160
6862.47284,0.02263
6860.54409,0.02243
6858.61535,0.02167
6856.68661,0.02029
6854.75786,0.01943
6852.82912,0.02036
6850.90037,0.02199
6848.97163,0.02289
6847.04288,0.02325
6845.11414,0.02164
6843.18539,0.01973
6841.25665,0.02161
6839.32791,0.02465
6837.39916,0.02341
6835.47042,0.02027
6833.54167,0.02018
6831.61293,0.02267
6829.68418,0.02324
6827.75544,0.02121
6825.82669,0.01991
6823.89795,0.01982
6821.96921,0.02007
6820.04046,0.02282
6818.11172,0.02579
6816.18297,0.02580
6814.25423,0.02484
6812.32548,0.02428
6810.39674,0.02165
6808.46799,0.01755
6806.53925,0.01507
6804.61051,0.01498
6802.68176,0.01657
6800.75302,0.01999
6798.82427,0.02345
6796.89553,0.02391
6794.96678,0.02262
6793.03804,0.02240
6791.10929,0.02271
6789.18055,0.02311
6787.25180,0.02306
6785.32306,0.02359
6783.39432,0.02552
6781.46557,0.02702
6779.53683,0.02551
6777.60808,0.02212
6775.67934,0.02048
6773.75059,0.02173
6771.82185,0.02390
6769.89310,0.02411
6767.96436,0.02172
6766.03562,0.02053
6764.10687,0.02139
6762.17813,0.02245
6760.24938,0.02453
6758.32064,0.02663
6756.39189,0.02536
6754.46315,0.02318
6752.53440,0.02400
6750.60566,0.02460
6748.67692,0.02285
6746.74817,0.02204
6744.81943,0.02289
6742.89068,0.02439
6740.96194,0.02573
6739.03319,0.02484
6737.10445,0.02230
6735.17570,0.02193
6733.24696,0.02373
6731.31822,0.02564
6729.38947,0.02649
6727.46073,0.02570
6725.53198,0.02440
6723.60324,0.02420
6721.67449,0.02437
6719.74575,0.02491
6717.81700,0.02557
6715.88826,0.02522
6713.95951,0.02454
6712.03077,0.02489
6710.10203,0.02583
6708.17328,0.02591
6706.24454,0.02408
6704.31579,0.02218
6702.38705,0.02229
6700.45830,0.02366
6698.52956,0.02418
6696.60081,0.02294
6694.67207,0.02102
6692.74333,0.02093
6690.81458,0.02158
6688.88584,0.02234
6686.95709,0.02371
6685.02835,0.02333
6683.09960,0.02044
6681.17086,0.01902
6679.24211,0.02036
6677.31337,0.02205
6675.38463,0.02176
6673.45588,0.02055
6671.52714,0.02135
6669.59839,0.02316
6667.66965,0.02287
6665.74090,0.02149
6663.81216,0.02118
6661.88341,0.02223
6659.95467,0.02423
6658.02593,0.02542
6656.09718,0.02435
6654.16844,0.02258
6652.23969,0.02145
6650.31095,0.01999
6648.38220,0.01786
6646.45346,0.01739
6644.52471,0.01984
6642.59597,0.02308
6640.66722,0.02541
6638.73848,0.02616
6636.80974,0.02508
6634.88099,0.02417
6632.95225,0.02411
6631.02350,0.02382
6629.09476,0.02418
6627.16601,0.02524
6625.23727,0.02417
6623.30852,0.02077
6621.37978,0.01864
6619.45104,0.01970
6617.52229,0.02036
6615.59355,0.01889
6613.66480,0.01757
6611.73606,0.01767
6609.80731,0.01813
6607.87857,0.01914
6605.94982,0.02095
6604.02108,0.02211
6602.09234,0.02149
6600.16359,0.02133
6598.23485,0.02267
6596.30610,0.02386
6594.37736,0.02346
6592.44861,0.02291
6590.51987,0.02424
6588.59112,0.02530
6586.66238,0.02263
6584.73364,0.01928
6582.80489,0.01989
6580.87615,0.02306
6578.94740,0.02488
6577.01866,0.02557
6575.08991,0.02560
6573.16117,0.02428
6571.23242,0.02239
6569.30368,0.02218
6567.37493,0.02343
6565.44619,0.02356
6563.51745,0.02339
6561.58870,0.02547
6559.65996,0.02685
6557.73121,0.02440
6555.80247,0.02129
6553.87372,0.02155
6551.94498,0.02396
6550.01623,0.02493
6548.08749,0.02379
6546.15875,0.02315
6544.23000,0.02367
6542.30126,0.02385
6540.37251,0.02323
6538.44377,0.02312
6536.51502,0.02381
6534.58628,0.02348
6532.65753,0.02203
6530.72879,0.02216
6528.80005,0.02402
6526.87130,0.02500
6524.94256,0.02417
6523.01381,0.02284
6521.08507,0.02189
6519.15632,0.02178
6517.22758,0.02187
6515.29883,0.02144
6513.37009,0.02132
6511.44135,0.02176
6509.51260,0.02148
6507.58386,0.02002
6505.65511,0.01861
6503.72637,0.01879
6501.79762,0.01939
6499.86888,0.02039
6497.94013,0.02324
6496.01139,0.02525
6494.08264,0.02313
6492.15390,0.01925
6490.22516,0.01758
6488.29641,0.01893
6486.36767,0.02095
6484.43892,0.02219
6482.51018,0.02265
6480.58143,0.02212
6478.65269,0.02116
6476.72394,0.02159
6474.79520,0.02273
6472.86646,0.02325
6470.93771,0.02396
6469.00897,0.02434
6467.08022,0.02339
6465.15148,0.02348
6463.22273,0.02513
6461.29399,0.02554
6459.36524,0.02392
6457.43650,0.02192
6455.50776,0.02029
6453.57901,0.01849
6451.65027,0.01710
6449.72152,0.01769
6447.79278,0.01988
6445.86403,0.02181
6443.93529,0.02180
6442.00654,0.02108
6440.07780,0.02220
6438.14906,0.02424
6436.22031,0.02478
6434.29157,0.02374
6432.36282,0.02231
6430.43408,0.02220
6428.50533,0.02341
6426.57659,0.02342
6424.64784,0.02189
6422.71910,0.02208
6420.79035,0.02428
6418.86161,0.02567
6416.93287,0.02470
6415.00412,0.02174
6413.07538,0.01885
6411.14663,0.01802
6409.21789,0.01883
6407.28914,0.02106
6405.36040,0.02359
6403.43165,0.02332
6401.50291,0.02091
6399.57417,0.01947
6397.64542,0.01859
6395.71668,0.01792
6393.78793,0.01880
6391.85919,0.02096
6389.93044,0.02247
6388.00170,0.02209
6386.07295,0.02086
6384.14421,0.02047
6382.21547,0.02068
6380.28672,0.02090
6378.35798,0.02101
6376.42923,0.02146
6374.50049,0.02188
6372.57174,0.02117
6370.64300,0.02023
6368.71425,0.02075
6366.78551,0.02204
6364.85677,0.02229
6362.92802,0.02123
6360.99928,0.02077
6359.07053,0.02164
6357.14179,0.02249
6355.21304,0.02201
6353.28430,0.02085
6351.35555,0.02032
6349.42681,0.02027
6347.49806,0.02022
6345.56932,0.02064
6343.64058,0.02203
6341.71183,0.02460
6339.78309,0.02699
6337.85434,0.02789
6335.92560,0.02703
6333.99685,0.02474
6332.06811,0.02301
6330.13936,0.02282
6328.21062,0.02182
6326.28188,0.02020
6324.35313,0.02032
6322.42439,0.02132
6320.49564,0.02249
6318.56690,0.02420
6316.63815,0.02477
6314.70941,0.02408
6312.78066,0.02333
6310.85192,0.02236
6308.92318,0.02171
6306.99443,0.02136
6305.06569,0.01948
6303.13694,0.01801
6301.20820,0.01962
6299.27945,0.02285
6297.35071,0.02501
6295.42196,0.02553
6293.49322,0.02541
6291.56447,0.02507
6289.63573,0.02301
6287.70699,0.02035
6285.77824,0.02020
6283.84950,0.02233
6281.92075,0.02355
6279.99201,0.02278
6278.06326,0.02268
6276.13452,0.02386
6274.20577,0.02390
6272.27703,0.02314
6270.34829,0.02312
6268.41954,0.02261
6266.49080,0.02125
6264.56205,0.02055
6262.63331,0.02031
6260.70456,0.02037
6258.77582,0.02113
6256.84707,0.02115
6254.91833,0.01996
6252.98959,0.01941
6251.06084,0.02010
6249.13210,0.02183
6247.20335,0.02348
6245.27461,0.02335
6243.34586,0.02267
6241.41712,0.02365
6239.48837,0.02464
6237.55963,0.02449
6235.63089,0.02411
6233.70214,0.02332
6231.77340,0.02215
6229.84465,0.02141
6227.91591,0.02099
6225.98716,0.02164
6224.05842,0.02291
6222.12967,0.02321
6220.20093,0.02351
6218.27218,0.02440
6216.34344,0.02459
6214.41470,0.02458
6212.48595,0.02399
6210.55721,0.02221
6208.62846,0.02041
6206.69972,0.01915
6204.77097,0.01892
6202.84223,0.02039
6200.91348,0.02167
6198.98474,0.02174
6197.05600,0.02190
6195.12725,0.02264
6193.19851,0.02311
6191.26976,0.02226
6189.34102,0.02044
6187.41227,0.02001
6185.48353,0.02099
6183.55478,0.02140
6181.62604,0.02105
6179.69730,0.02068
6177.76855,0.02074
6175.83981,0.02055
6173.91106,0.01940
6171.98232,0.01932
6170.05357,0.02083
6168.12483,0.02175
6166.19608,0.02168
6164.26734,0.02160
6162.33860,0.02184
6160.40985,0.02298
6158.48111,0.02462
6156.55236,0.02520
6154.62362,0.02468
6152.69487,0.02458
6150.76613,0.02495
6148.83738,0.02459
6146.90864,0.02318
6144.97989,0.02159
6143.05115,0.02061
6141.12241,0.02080
6139.19366,0.02159
6137.26492,0.02160
6135.33617,0.02162
6133.40743,0.02241
6131.47868,0.02177
6129.54994,0.01958
6127.62119,0.01841
6125.69245,0.01915
6123.76371,0.02090
6121.83496,0.02199
6119.90622,0.02142
6117.97747,0.01999
6116.04873,0.01886
6114.11998,0.01864
6112.19124,0.01970
6110.26249,0.02141
6108.33375,0.02138
6106.40501,0.02009
6104.47626,0.02048
6102.54752,0.02185
6100.61877,0.02146
6098.69003,0.02028
6096.76128,0.02074
6094.83254,0.02214
6092.90379,0.02236
6090.97505,0.02169
6089.04631,0.02208
6087.11756,0.02344
6085.18882,0.02374
6083.26007,0.02272
6081.33133,0.02169
6079.40258,0.02102
6077.47384,0.01975
6075.54509,0.01828
6073.61635,0.01848
6071.68760,0.02068
6069.75886,0.02194
6067.83012,0.02093
6065.90137,0.01990
6063.97263,0.01974
6062.04388,0.01978
6060.11514,0.02013
6058.18639,0.01983
6056.25765,0.01876
6054.32890,0.01915
6052.40016,0.02100
6050.47142,0.02177
6048.54267,0.02183
6046.61393,0.02253
6044.68518,0.02282
6042.75644,0.02241
6040.82769,0.02237
6038.89895,0.02253
6036.97020,0.02229
6035.04146,0.02180
6033.11272,0.02154
6031.18397,0.02164
6029.25523,0.02152
6027.32648,0.02045
6025.39774,0.01951
6023.46899,0.02022
6021.54025,0.02203
6019.61150,0.02253
6017.68276,0.02121
6015.75402,0.02056
6013.82527,0.02164
6011.89653,0.02270
6009.96778,0.02261
6008.03904,0.02110
6006.11029,0.01942
6004.18155,0.01934
6002.25280,0.01937
6000.32406,0.01799
5998.39531,0.01750
5996.46657,0.01888
5994.53783,0.02065
5992.60908,0.02182
5990.68034,0.02245
5988.75159,0.02282
5986.82285,0.02319
5984.89410,0.02303
5982.96536,0.02169
5981.03661,0.02001
5979.10787,0.01905
5977.17913,0.01871
5975.25038,0.01915
5973.32164,0.01999
5971.39289,0.02049
5969.46415,0.02166
5967.53540,0.02343
5965.60666,0.02323
5963.67791,0.02162
5961.74917,0.02073
5959.82043,0.01977
5957.89168,0.01947
5955.96294,0.02149
5954.03419,0.02368
5952.10545,0.02422
5950.17670,0.02405
5948.24796,0.02416
5946.31921,0.02358
5944.39047,0.02207
5942.46173,0.02146
5940.53298,0.02207
5938.60424,0.02220
5936.67549,0.02094
5934.74675,0.01958
5932.81800,0.01999
5930.88926,0.02134
5928.96051,0.02187
5927.03177,0.02134
5925.10302,0.02097
5923.17428,0.02186
5921.24554,0.02325
5919.31679,0.02383
5917.38805,0.02403
5915.45930,0.02362
5913.53056,0.02230
5911.60181,0.02133
5909.67307,0.02129
5907.74432,0.02161
5905.81558,0.02162
5903.88684,0.02112
5901.95809,0.02097
5900.02935,0.02117
5898.10060,0.02134
5896.17186,0.02198
5894.24311,0.02207
5892.31437,0.02072
5890.38562,0.01983
5888.45688,0.02092
5886.52814,0.02281
5884.59939,0.02326
5882.67065,0.02220
5880.74190,0.02179
5878.81316,0.02264
5876.88441,0.02299
5874.95567,0.02264
5873.02692,0.02240
5871.09818,0.02183
5869.16944,0.02103
5867.24069,0.02092
5865.31195,0.02106
5863.38320,0.02124
5861.45446,0.02195
5859.52571,0.02250
5857.59697,0.02251
5855.66822,0.02266
5853.73948,0.02243
5851.81073,0.02151
5849.88199,0.02090
5847.95325,0.02109
5846.02450,0.02160
5844.09576,0.02185
5842.16701,0.02154
5840.23827,0.02148
5838.30952,0.02188
5836.38078,0.02175
5834.45203,0.02135
5832.52329,0.02205
5830.59455,0.02336
5828.66580,0.02360
5826.73706,0.02264
5824.80831,0.02144
5822.87957,0.02063
5820.95082,0.02119
5819.02208,0.02271
5817.09333,0.02311
5815.16459,0.02246
5813.23585,0.02246
5811.30710,0.02337
5809.37836,0.02386
5807.44961,0.02322
5805.52087,0.02264
5803.59212,0.02234
5801.66338,0.02150
5799.73463,0.02102
5797.80589,0.02168
5795.87715,0.02231
5793.94840,0.02250
5792.01966,0.02254
5790.09091,0.02216
5788.16217,0.02182
5786.23342,0.02205
5784.30468,0.02209
5782.37593,0.02229
5780.44719,0.02351
5778.51844,0.02485
5776.58970,0.02450
5774.66096,0.02224
5772.73221,0.02020
5770.80347,0.02006
5768.87472,0.02114
5766.94598,0.02199
5765.01723,0.02212
5763.08849,0.02224
5761.15974,0.02235
5759.23100,0.02262
5757.30226,0.02330
5755.37351,0.02314
5753.44477,0.02223
5751.51602,0.02282
5749.58728,0.02422
5747.65853,0.02387
5745.72979,0.02211
5743.80104,0.02111
5741.87230,0.02177
5739.94356,0.02319
5738.01481,0.02376
5736.08607,0.02363
5734.15732,0.02343
5732.22858,0.02280
5730.29983,0.02187
5728.37109,0.02174
5726.44234,0.02238
5724.51360,0.02272
5722.58486,0.02268
5720.65611,0.02254
5718.72737,0.02222
5716.79862,0.02201
5714.86988,0.02189
5712.94113,0.02184
5711.01239,0.02185
5709.08364,0.02169
5707.15490,0.02146
5705.22615,0.02117
5703.29741,0.02072
5701.36867,0.02070
5699.43992,0.02099
5697.51118,0.02078
5695.58243,0.02046
5693.65369,0.02117
5691.72494,0.02288
5689.79620,0.02415
5687.86745,0.02378
5685.93871,0.02249
5684.00997,0.02181
5682.08122,0.02200
5680.15248,0.02178
5678.22373,0.02090
5676.29499,0.02068
5674.36624,0.02130
5672.43750,0.02170
5670.50875,0.02156
5668.58001,0.02117
5666.65127,0.02109
5664.72252,0.02153
5662.79378,0.02239
5660.86503,0.02311
5658.93629,0.02258
5657.00754,0.02073
5655.07880,0.01948
5653.15005,0.02001
5651.22131,0.02095
5649.29257,0.02114
5647.36382,0.02144
5645.43508,0.02213
5643.50633,0.02201
5641.57759,0.02069
5639.64884,0.01950
5637.72010,0.01950
5635.79135,0.02078
5633.86261,0.02247
5631.93386,0.02291
5630.00512,0.02163
5628.07638,0.02077
5626.14763,0.02114
5624.21889,0.02139
5622.29014,0.02127
5620.36140,0.02155
5618.43265,0.02242
5616.50391,0.02297
5614.57516,0.02230
5612.64642,0.02119
5610.71768,0.02071
5608.78893,0.02087
5606.86019,0.02129
5604.93144,0.02147
5603.00270,0.02141
5601.07395,0.02193
5599.14521,0.02294
5597.21646,0.02345
5595.28772,0.02299
5593.35898,0.02185
5591.43023,0.02118
5589.50149,0.02117
5587.57274,0.02091
5585.64400,0.02061
5583.71525,0.02079
5581.78651,0.02202
5579.85776,0.02420
5577.92902,0.02564
5576.00028,0.02575
5574.07153,0.02552
5572.14279,0.02484
5570.21404,0.02359
5568.28530,0.02224
5566.35655,0.02088
5564.42781,0.02012
5562.49906,0.02054
5560.57032,0.02139
5558.64157,0.02221
5556.71283,0.02249
5554.78409,0.02192
5552.85534,0.02148
5550.92660,0.02180
5548.99785,0.02232
5547.06911,0.02311
5545.14036,0.02406
5543.21162,0.02399
5541.28287,0.02289
5539.35413,0.02189
5537.42539,0.02153
5535.49664,0.02230
5533.56790,0.02364
5531.63915,0.02366
5529.71041,0.02256
5527.78166,0.02192
5525.85292,0.02191
5523.92417,0.02202
5521.99543,0.02187
5520.06669,0.02154
5518.13794,0.02139
5516.20920,0.02128
5514.28045,0.02136
5512.35171,0.02184
5510.42296,0.02237
5508.49422,0.02243
5506.56547,0.02176
5504.63673,0.02131
5502.70799,0.02207
5500.77924,0.02318
5498.85050,0.02283
5496.92175,0.02115
5494.99301,0.01979
5493.06426,0.01934
5491.13552,0.01972
5489.20677,0.02080
5487.27803,0.02147
5485.34928,0.02129
5483.42054,0.02159
5481.49180,0.02287
5479.56305,0.02358
5477.63431,0.02285
5475.70556,0.02173
5473.77682,0.02144
5471.84807,0.02155
5469.91933,0.02143
5467.99058,0.02195
5466.06184,0.02317
5464.13310,0.02332
5462.20435,0.02225
5460.27561,0.02162
5458.34686,0.02136
5456.41812,0.02068
5454.48937,0.02030
5452.56063,0.02047
5450.63188,0.02078
5448.70314,0.02142
5446.77440,0.02224
5444.84565,0.02243
5442.91691,0.02164
5440.98816,0.02073
5439.05942,0.02121
5437.13067,0.02284
5435.20193,0.02364
5433.27318,0.02327
5431.34444,0.02329
5429.41569,0.02385
5427.48695,0.02393
5425.55821,0.02345
5423.62946,0.02281
5421.70072,0.02205
5419.77197,0.02122
5417.84323,0.02044
5415.91448,0.02021
5413.98574,0.02098
5412.05699,0.02224
5410.12825,0.02323
5408.19951,0.02348
5406.27076,0.02280
5404.34202,0.02190
5402.41327,0.02164
5400.48453,0.02194
5398.55578,0.02206
5396.62704,0.02132
5394.69829,0.01996
5392.76955,0.01933
5390.84081,0.01989
5388.91206,0.02082
5386.98332,0.02180
5385.05457,0.02280
5383.12583,0.02299
5381.19708,0.02196
5379.26834,0.02108
5377.33959,0.02144
5375.41085,0.02210
5373.48211,0.02254
5371.55336,0.02289
5369.62462,0.02252
5367.69587,0.02164
5365.76713,0.02134
5363.83838,0.02163
5361.90964,0.02132
5359.98089,0.02041
5358.05215,0.02050
5356.12340,0.02147
5354.19466,0.02225
5352.26592,0.02264
5350.33717,0.02226
5348.40843,0.02134
5346.47968,0.02095
5344.55094,0.02172
5342.62219,0.02326
5340.69345,0.02399
5338.76470,0.02323
5336.83596,0.02229
5334.90722,0.02204
5332.97847,0.02190
5331.04973,0.02191
5329.12098,0.02204
5327.19224,0.02151
5325.26349,0.02061
5323.33475,0.02051
5321.40600,0.02111
5319.47726,0.02155
5317.54852,0.02167
5315.61977,0.02195
5313.69103,0.02191
5311.76228,0.02162
5309.83354,0.02231
5307.90479,0.02337
5305.97605,0.02322
5304.04730,0.02250
5302.11856,0.02214
5300.18982,0.02182
5298.26107,0.02114
5296.33233,0.02042
5294.40358,0.02022
5292.47484,0.02057
5290.54609,0.02115
5288.61735,0.02185
5286.68860,0.02217
5284.75986,0.02181
5282.83111,0.02159
5280.90237,0.02223
5278.97363,0.02309
5277.04488,0.02286
5275.11614,0.02151
5273.18739,0.02051
5271.25865,0.02062
5269.32990,0.02158
5267.40116,0.02264
5265.47241,0.02292
5263.54367,0.02268
5261.61493,0.02256
5259.68618,0.02228
5257.75744,0.02179
5255.82869,0.02171
5253.89995,0.02211
5251.97120,0.02212
5250.04246,0.02188
5248.11371,0.02224
5246.18497,0.02274
5244.25623,0.02249
5242.32748,0.02208
5240.39874,0.02176
5238.46999,0.02107
5236.54125,0.02072
5234.61250,0.02148
5232.68376,0.02244
5230.75501,0.02284
5228.82627,0.02309
5226.89753,0.02347
5224.96878,0.02364
5223.04004,0.02349
5221.11129,0.02344
5219.18255,0.02359
5217.25380,0.02353
5215.32506,0.02325
5213.39631,0.02288
5211.46757,0.02233
5209.53882,0.02234
5207.61008,0.02324
5205.68134,0.02352
5203.75259,0.02263
5201.82385,0.02189
5199.89510,0.02220
5197.96636,0.02303
5196.03761,0.02337
5194.10887,0.02290
5192.18012,0.02207
5190.25138,0.02183
5188.32264,0.02246
5186.39389,0.02311
5184.46515,0.02308
5182.53640,0.02237
5180.60766,0.02152
5178.67891,0.02103
5176.75017,0.02070
5174.82142,0.02061
5172.89268,0.02104
5170.96394,0.02165
5169.03519,0.02200
5167.10645,0.02209
5165.17770,0.02218
5163.24896,0.02239
5161.32021,0.02267
5159.39147,0.02271
5157.46272,0.02216
5155.53398,0.02155
5153.60524,0.02134
5151.67649,0.02108
5149.74775,0.02088
5147.81900,0.02094
5145.89026,0.02141
5143.96151,0.02234
5142.03277,0.02318
5140.10402,0.02355
5138.17528,0.02340
5136.24653,0.02261
5134.31779,0.02173
5132.38905,0.02156
5130.46030,0.02197
5128.53156,0.02230
5126.60281,0.02239
5124.67407,0.02231
5122.74532,0.02197
5120.81658,0.02156
5118.88783,0.02161
5116.95909,0.02218
5115.03035,0.02258
5113.10160,0.02216
5111.17286,0.02128
5109.24411,0.02089
5107.31537,0.02153
5105.38662,0.02270
5103.45788,0.02341
5101.52913,0.02347
5099.60039,0.02325
5097.67165,0.02297
5095.74290,0.02260
5093.81416,0.02209
5091.88541,0.02183
5089.95667,0.02213
5088.02792,0.02272
5086.09918,0.02297
5084.17043,0.02264
5082.24169,0.02258
5080.31295,0.02298
5078.38420,0.02290
5076.45546,0.02227
5074.52671,0.02174
5072.59797,0.02148
5070.66922,0.02139
5068.74048,0.02160
5066.81173,0.02202
5064.88299,0.02230
5062.95424,0.02205
5061.02550,0.02147
5059.09676,0.02159
5057.16801,0.02249
5055.23927,0.02281
5053.31052,0.02233
5051.38178,0.02212
5049.45303,0.02249
5047.52429,0.02273
5045.59554,0.02236
5043.66680,0.02179
5041.73806,0.02177
5039.80931,0.02249
5037.88057,0.02327
5035.95182,0.02327
5034.02308,0.02277
5032.09433,0.02255
5030.16559,0.02242
5028.23684,0.02206
5026.30810,0.02191
5024.37936,0.02214
5022.45061,0.02250
5020.52187,0.02292
5018.59312,0.02316
5016.66438,0.02283
5014.73563,0.02224
5012.80689,0.02205
5010.87814,0.02205
5008.94940,0.02176
5007.02066,0.02171
5005.09191,0.02173
5003.16317,0.02120
5001.23442,0.02099
4999.30568,0.02183
4997.37693,0.02270
4995.44819,0.02270
4993.51944,0.02232
4991.59070,0.02258
4989.66195,0.02295
4987.73321,0.02251
4985.80447,0.02203
4983.87572,0.02204
4981.94698,0.02183
4980.01823,0.02140
4978.08949,0.02141
4976.16074,0.02212
4974.23200,0.02310
4972.30325,0.02361
4970.37451,0.02372
4968.44577,0.02388
4966.51702,0.02371
4964.58828,0.02317
4962.65953,0.02288
4960.73079,0.02284
4958.80204,0.02291
4956.87330,0.02299
4954.94455,0.02288
4953.01581,0.02277
4951.08707,0.02268
4949.15832,0.02251
4947.22958,0.02248
4945.30083,0.02257
4943.37209,0.02241
4941.44334,0.02197
4939.51460,0.02176
4937.58585,0.02212
4935.65711,0.02291
4933.72837,0.02335
4931.79962,0.02281
4929.87088,0.02221
4927.94213,0.02239
4926.01339,0.02277
4924.08464,0.02295
4922.15590,0.02300
4920.22715,0.02281
4918.29841,0.02250
4916.36966,0.02245
4914.44092,0.02255
4912.51218,0.02223
4910.58343,0.02161
4908.65469,0.02127
4906.72594,0.02105
4904.79720,0.02089
4902.86845,0.02114
4900.93971,0.02153
4899.01096,0.02187
4897.08222,0.02219
4895.15348,0.02221
4893.22473,0.02209
4891.29599,0.02216
4889.36724,0.02203
4887.43850,0.02147
4885.50975,0.02079
4883.58101,0.02049
4881.65226,0.02087
4879.72352,0.02159
4877.79478,0.02187
4875.86603,0.02164
4873.93729,0.02146
4872.00854,0.02153
4870.07980,0.02186
4868.15105,0.02192
4866.22231,0.02147
4864.29356,0.02170
4862.36482,0.02273
4860.43608,0.02322
4858.50733,0.02293
4856.57859,0.02264
4854.64984,0.02263
4852.72110,0.02272
4850.79235,0.02285
4848.86361,0.02320
4846.93486,0.02385
4845.00612,0.02426
4843.07737,0.02384
4841.14863,0.02284
4839.21989,0.02214
4837.29114,0.02201
4835.36240,0.02179
4833.43365,0.02159
4831.50491,0.02180
4829.57616,0.02181
4827.64742,0.02161
4825.71867,0.02221
4823.78993,0.02321
4821.86119,0.02326
4819.93244,0.02258
4818.00370,0.02246
4816.07495,0.02292
4814.14621,0.02294
4812.21746,0.02243
4810.28872,0.02215
4808.35997,0.02244
4806.43123,0.02285
4804.50249,0.02266
4802.57374,0.02220
4800.64500,0.02237
4798.71625,0.02264
4796.78751,0.02232
4794.85876,0.02200
4792.93002,0.02211
4791.00127,0.02242
4789.07253,0.02273
4787.14379,0.02288
4785.21504,0.02272
4783.28630,0.02231
4781.35755,0.02190
4779.42881,0.02194
4777.50006,0.02254
4775.57132,0.02306
4773.64257,0.02308
4771.71383,0.02265
4769.78508,0.02209
4767.85634,0.02193
4765.92760,0.02215
4763.99885,0.02253
4762.07011,0.02314
4760.14136,0.02342
4758.21262,0.02281
4756.28387,0.02176
4754.35513,0.02103
4752.42638,0.02110
4750.49764,0.02172
4748.56890,0.02217
4746.64015,0.02216
4744.71141,0.02181
4742.78266,0.02147
4740.85392,0.02178
4738.92517,0.02260
4736.99643,0.02282
4735.06768,0.02230
4733.13894,0.02232
4731.21020,0.02320
4729.28145,0.02386
4727.35271,0.02398
4725.42396,0.02412
4723.49522,0.02403
4721.56647,0.02328
4719.63773,0.02250
4717.70898,0.02257
4715.78024,0.02308
4713.85150,0.02336
4711.92275,0.02322
4709.99401,0.02263
4708.06526,0.02219
4706.13652,0.02246
4704.20777,0.02296
4702.27903,0.02314
4700.35028,0.02285
4698.42154,0.02233
4696.49279,0.02205
4694.56405,0.02205
4692.63531,0.02214
4690.70656,0.02227
4688.77782,0.02242
4686.84907,0.02264
4684.92033,0.02287
4682.99158,0.02304
4681.06284,0.02312
4679.13409,0.02307
4677.20535,0.02289
4675.27661,0.02252
4673.34786,0.02197
4671.41912,0.02181
4669.49037,0.02221
4667.56163,0.02260
4665.63288,0.02301
4663.70414,0.02355
4661.77539,0.02364
4659.84665,0.02342
4657.91791,0.02355
4655.98916,0.02352
4654.06042,0.02292
4652.13167,0.02259
4650.20293,0.02284
4648.27418,0.02304
4646.34544,0.02287
4644.41669,0.02256
4642.48795,0.02245
4640.55921,0.02260
4638.63046,0.02267
4636.70172,0.02242
4634.77297,0.02207
4632.84423,0.02208
4630.91548,0.02254
4628.98674,0.02295
4627.05799,0.02306
4625.12925,0.02306
4623.20050,0.02283
4621.27176,0.02237
4619.34302,0.02225
4617.41427,0.02253
4615.48553,0.02269
4613.55678,0.02275
4611.62804,0.02307
4609.69929,0.02361
4607.77055,0.02379
4605.84180,0.02326
4603.91306,0.02278
4601.98432,0.02289
4600.05557,0.02291
4598.12683,0.02253
4596.19808,0.02215
4594.26934,0.02195
4592.34059,0.02197
4590.41185,0.02225
4588.48310,0.02268
4586.55436,0.02315
4584.62562,0.02347
4582.69687,0.02322
4580.76813,0.02247
4578.83938,0.02189
4576.91064,0.02174
4574.98189,0.02177
4573.05315,0.02211
4571.12440,0.02277
4569.19566,0.02304
4567.26692,0.02263
4565.33817,0.02215
4563.40943,0.02207
4561.48068,0.02225
4559.55194,0.02254
4557.62319,0.02273
4555.69445,0.02243
4553.76570,0.02187
4551.83696,0.02177
4549.90821,0.02207
4547.97947,0.02216
4546.05073,0.02207
4544.12198,0.02228
4542.19324,0.02274
4540.26449,0.02305
4538.33575,0.02322
4536.40700,0.02350
4534.47826,0.02373
4532.54951,0.02362
4530.62077,0.02325
4528.69203,0.02274
4526.76328,0.02212
4524.83454,0.02177
4522.90579,0.02192
4520.97705,0.02227
4519.04830,0.02256
4517.11956,0.02281
4515.19081,0.02312
4513.26207,0.02327
4511.33333,0.02297
4509.40458,0.02263
4507.47584,0.02264
4505.54709,0.02274
4503.61835,0.02284
4501.68960,0.02301
4499.76086,0.02286
4497.83211,0.02245
4495.90337,0.02216
4493.97462,0.02190
4492.04588,0.02175
4490.11714,0.02198
4488.18839,0.02217
4486.25965,0.02207
4484.33090,0.02219
4482.40216,0.02269
4480.47341,0.02316
4478.54467,0.02330
4476.61592,0.02314
4474.68718,0.02285
4472.75844,0.02270
4470.82969,0.02296
4468.90095,0.02342
4466.97220,0.02364
4465.04346,0.02350
4463.11471,0.02316
4461.18597,0.02273
4459.25722,0.02233
4457.32848,0.02210
4455.39974,0.02210
4453.47099,0.02227
4451.54225,0.02228
4449.61350,0.02222
4447.68476,0.02233
4445.75601,0.02221
4443.82727,0.02194
4441.89852,0.02207
4439.96978,0.02236
4438.04104,0.02249
4436.11229,0.02270
4434.18355,0.02276
4432.25480,0.02249
4430.32606,0.02262
4428.39731,0.02338
4426.46857,0.02391
4424.53982,0.02390
4422.61108,0.02368
4420.68233,0.02340
4418.75359,0.02320
4416.82485,0.02315
4414.89610,0.02316
4412.96736,0.02310
4411.03861,0.02285
4409.10987,0.02255
4407.18112,0.02236
4405.25238,0.02231
4403.32363,0.02233
4401.39489,0.02217
4399.46615,0.02181
4397.53740,0.02169
4395.60866,0.02203
4393.67991,0.02249
4391.75117,0.02267
4389.82242,0.02281
4387.89368,0.02321
4385.96493,0.02356
4384.03619,0.02326
4382.10745,0.02231
4380.17870,0.02157
4378.24996,0.02162
4376.32121,0.02214
4374.39247,0.02269
4372.46372,0.02308
4370.53498,0.02320
4368.60623,0.02293
4366.67749,0.02241
4364.74875,0.02219
4362.82000,0.02229
4360.89126,0.02229
4358.96251,0.02235
4357.03377,0.02254
4355.10502,0.02241
4353.17628,0.02199
4351.24753,0.02199
4349.31879,0.02248
4347.39004,0.02300
4345.46130,0.02327
4343.53256,0.02310
4341.60381,0.02270
4339.67507,0.02257
4337.74632,0.02270
4335.81758,0.02256
4333.88883,0.02214
4331.96009,0.02216
4330.03134,0.02259
4328.10260,0.02278
4326.17386,0.02277
4324.24511,0.02274
4322.31637,0.02246
4320.38762,0.02205
4318.45888,0.02197
4316.53013,0.02231
4314.60139,0.02264
4312.67264,0.02273
4310.74390,0.02260
4308.81516,0.02233
4306.88641,0.02225
4304.95767,0.02250
4303.02892,0.02272
4301.10018,0.02264
4299.17143,0.02253
4297.24269,0.02255
4295.31394,0.02251
4293.38520,0.02242
4291.45646,0.02263
4289.52771,0.02301
4287.59897,0.02305
4285.67022,0.02273
4283.74148,0.02253
4281.81273,0.02265
4279.88399,0.02278
4277.95524,0.02278
4276.02650,0.02290
4274.09775,0.02300
4272.16901,0.02281
4270.24027,0.02266
4268.31152,0.02279
4266.38278,0.02290
4264.45403,0.02276
4262.52529,0.02258
4260.59654,0.02251
4258.66780,0.02257
4256.73905,0.02262
4254.81031,0.02248
4252.88157,0.02249
4250.95282,0.02287
4249.02408,0.02326
4247.09533,0.02342
4245.16659,0.02353
4243.23784,0.02362
4241.30910,0.02345
4239.38035,0.02315
4237.45161,0.02313
4235.52287,0.02306
4233.59412,0.02265
4231.66538,0.02232
4229.73663,0.02211
4227.80789,0.02194
4225.87914,0.02206
4223.95040,0.02231
4222.02165,0.02233
4220.09291,0.02235
4218.16417,0.02263
4216.23542,0.02286
4214.30668,0.02271
4212.37793,0.02238
4210.44919,0.02221
4208.52044,0.02232
4206.59170,0.02258
4204.66295,0.02273
4202.73421,0.02279
4200.80546,0.02286
4198.87672,0.02286
4196.94798,0.02287
4195.01923,0.02299
4193.09049,0.02316
4191.16174,0.02346
4189.23300,0.02366
4187.30425,0.02341
4185.37551,0.02287
4183.44676,0.02253
4181.51802,0.02257
4179.58928,0.02277
4177.66053,0.02275
4175.73179,0.02263
4173.80304,0.02267
4171.87430,0.02271
4169.94555,0.02249
4168.01681,0.02234
4166.08806,0.02257
4164.15932,0.02302
4162.23058,0.02337
4160.30183,0.02324
4158.37309,0.02284
4156.44434,0.02274
4154.51560,0.02276
4152.58685,0.02264
4150.65811,0.02261
4148.72936,0.02266
4146.80062,0.02259
4144.87188,0.02240
4142.94313,0.02219
4141.01439,0.02221
4139.08564,0.02246
4137.15690,0.02262
4135.22815,0.02265
4133.29941,0.02278
4131.37066,0.02298
4129.44192,0.02314
4127.51317,0.02326
4125.58443,0.02322
4123.65569,0.02288
4121.72694,0.02236
4119.79820,0.02206
4117.86945,0.02222
4115.94071,0.02253
4114.01196,0.02261
4112.08322,0.02255
4110.15447,0.02253
4108.22573,0.02245
4106.29699,0.02234
4104.36824,0.02241
4102.43950,0.02264
4100.51075,0.02273
4098.58201,0.02276
4096.65326,0.02308
4094.72452,0.02344
4092.79577,0.02329
4090.86703,0.02290
4088.93829,0.02284
4087.00954,0.02298
4085.08080,0.02280
4083.15205,0.02249
4081.22331,0.02252
4079.29456,0.02284
4077.36582,0.02304
4075.43707,0.02284
4073.50833,0.02247
4071.57959,0.02241
4069.65084,0.02274
4067.72210,0.02305
4065.79335,0.02314
4063.86461,0.02307
4061.93586,0.02277
4060.00712,0.02245
4058.07837,0.02259
4056.14963,0.02302
4054.22088,0.02318
4052.29214,0.02298
4050.36340,0.02282
4048.43465,0.02280
4046.50591,0.02277
4044.57716,0.02272
4042.64842,0.02271
4040.71967,0.02277
4038.79093,0.02287
4036.86218,0.02283
4034.93344,0.02252
4033.00470,0.02222
4031.07595,0.02223
4029.14721,0.02254
4027.21846,0.02288
4025.28972,0.02290
4023.36097,0.02274
4021.43223,0.02279
4019.50348,0.02297
4017.57474,0.02283
4015.64600,0.02247
4013.71725,0.02239
4011.78851,0.02255
4009.85976,0.02255
4007.93102,0.02248
4006.00227,0.02275
4004.07353,0.02323
4002.14478,0.02350
4000.21604,0.02357
3998.28730,0.02347
3996.35855,0.02313
3994.42981,0.02278
3992.50106,0.02270
3990.57232,0.02291
3988.64357,0.02324
3986.71483,0.02350
3984.78608,0.02345
3982.85734,0.02306
3980.92859,0.02277
3978.99985,0.02291
3977.07111,0.02329
3975.14236,0.02353
3973.21362,0.02347
3971.28487,0.02319
3969.35613,0.02296
3967.42738,0.02295
3965.49864,0.02297
3963.56989,0.02292
3961.64115,0.02294
3959.71241,0.02293
3957.78366,0.02282
3955.85492,0.02282
3953.92617,0.02309
3951.99743,0.02339
3950.06868,0.02337
3948.13994,0.02298
3946.21119,0.02261
3944.28245,0.02245
3942.35371,0.02238
3940.42496,0.02241
3938.49622,0.02264
3936.56747,0.02278
3934.63873,0.02273
3932.70998,0.02278
3930.78124,0.02305
3928.85249,0.02325
3926.92375,0.02331
3924.99501,0.02329
3923.06626,0.02316
3921.13752,0.02290
3919.20877,0.02257
3917.28003,0.02246
3915.35128,0.02271
3913.42254,0.02300
3911.49379,0.02307
3909.56505,0.02296
3907.63630,0.02282
3905.70756,0.02269
3903.77882,0.02261
3901.85007,0.02273
3899.92133,0.02315
3897.99258,0.02358
3896.06384,0.02374
3894.13509,0.02362
3892.20635,0.02321
3890.27760,0.02282
3888.34886,0.02273
3886.42012,0.02277
3884.49137,0.02295
3882.56263,0.02308
3880.63388,0.02278
3878.70514,0.02234
3876.77639,0.02226
3874.84765,0.02254
3872.91890,0.02297
3870.99016,0.02320
3869.06142,0.02308
3867.13267,0.02286
3865.20393,0.02270
3863.27518,0.02263
3861.34644,0.02277
3859.41769,0.02301
3857.48895,0.02323
3855.56020,0.02344
3853.63146,0.02353
3851.70272,0.02352
3849.77397,0.02354
3847.84523,0.02352
3845.91648,0.02347
3843.98774,0.02342
3842.05899,0.02334
3840.13025,0.02335
3838.20150,0.02337
3836.27276,0.02309
3834.34401,0.02276
3832.41527,0.02269
3830.48653,0.02277
3828.55778,0.02271
3826.62904,0.02270
3824.70029,0.02292
3822.77155,0.02304
3820.84280,0.02299
3818.91406,0.02301
3816.98531,0.02304
3815.05657,0.02297
3813.12783,0.02293
3811.19908,0.02298
3809.27034,0.02302
3807.34159,0.02304
3805.41285,0.02323
3803.48410,0.02358
3801.55536,0.02373
3799.62661,0.02354
3797.69787,0.02334
3795.76913,0.02340
3793.84038,0.02355
3791.91164,0.02335
3789.98289,0.02298
3788.05415,0.02276
3786.12540,0.02274
3784.19666,0.02293
3782.26791,0.02309
3780.33917,0.02301
3778.41043,0.02306
3776.48168,0.02342
3774.55294,0.02357
3772.62419,0.02337
3770.69545,0.02322
3768.76670,0.02321
3766.83796,0.02312
3764.90921,0.02301
3762.98047,0.02307
3761.05172,0.02314
3759.12298,0.02308
3757.19424,0.02312
3755.26549,0.02326
3753.33675,0.02323
3751.40800,0.02303
3749.47926,0.02303
3747.55051,0.02314
3745.62177,0.02313
3743.69302,0.02321
3741.76428,0.02331
3739.83554,0.02326
3737.90679,0.02332
3735.97805,0.02349
3734.04930,0.02350
3732.12056,0.02340
3730.19181,0.02338
3728.26307,0.02357
3726.33432,0.02381
3724.40558,0.02366
3722.47684,0.02310
3720.54809,0.02266
3718.61935,0.02265
3716.69060,0.02293
3714.76186,0.02324
3712.83311,0.02338
3710.90437,0.02329
3708.97562,0.02318
3707.04688,0.02323
3705.11814,0.02319
3703.18939,0.02281
3701.26065,0.02249
3699.33190,0.02260
3697.40316,0.02269
3695.47441,0.02252
3693.54567,0.02262
3691.61692,0.02306
3689.68818,0.02326
3687.75943,0.02315
3685.83069,0.02315
3683.90195,0.02314
3681.97320,0.02286
3680.04446,0.02253
3678.11571,0.02238
3676.18697,0.02243
3674.25822,0.02265
3672.32948,0.02297
3670.40073,0.02310
3668.47199,0.02272
3666.54325,0.02218
3664.61450,0.02204
3662.68576,0.02209
3660.75701,0.02213
3658.82827,0.02250
3656.89952,0.02297
3654.97078,0.02300
3653.04203,0.02286
3651.11329,0.02283
3649.18455,0.02287
3647.25580,0.02286
3645.32706,0.02251
3643.39831,0.02205
3641.46957,0.02204
3639.54082,0.02235
3637.61208,0.02253
3635.68333,0.02250
3633.75459,0.02245
3631.82584,0.02249
3629.89710,0.02255
3627.96836,0.02250
3626.03961,0.02229
3624.11087,0.02212
3622.18212,0.02215
3620.25338,0.02226
3618.32463,0.02225
3616.39589,0.02204
3614.46714,0.02177
3612.53840,0.02169
3610.60966,0.02203
3608.68091,0.02256
3606.75217,0.02272
3604.82342,0.02256
3602.89468,0.02251
3600.96593,0.02248
3599.03719,0.02225
3597.10844,0.02205
3595.17970,0.02201
3593.25096,0.02194
3591.32221,0.02171
3589.39347,0.02144
3587.46472,0.02139
3585.53598,0.02153
3583.60723,0.02157
3581.67849,0.02171
3579.74974,0.02196
3577.82100,0.02185
3575.89226,0.02168
3573.96351,0.02190
3572.03477,0.02221
3570.10602,0.02217
3568.17728,0.02178
3566.24853,0.02136
3564.31979,0.02123
3562.39104,0.02131
3560.46230,0.02124
3558.53355,0.02101
3556.60481,0.02088
3554.67607,0.02088
3552.74732,0.02102
3550.81858,0.02138
3548.88983,0.02162
3546.96109,0.02163
3545.03234,0.02166
3543.10360,0.02153
3541.17485,0.02126
3539.24611,0.02138
3537.31737,0.02172
3535.38862,0.02164
3533.45988,0.02146
3531.53113,0.02156
3529.60239,0.02152
3527.67364,0.02139
3525.74490,0.02160
3523.81615,0.02190
3521.88741,0.02179
3519.95867,0.02148
3518.02992,0.02148
3516.10118,0.02181
3514.17243,0.02202
3512.24369,0.02200
3510.31494,0.02198
3508.38620,0.02182
3506.45745,0.02139
3504.52871,0.02102
3502.59997,0.02093
3500.67122,0.02096
3498.74248,0.02083
3496.81373,0.02074
3494.88499,0.02115
3492.95624,0.02178
3491.02750,0.02193
3489.09875,0.02159
3487.17001,0.02114
3485.24126,0.02097
3483.31252,0.02111
3481.38378,0.02112
3479.45503,0.02096
3477.52629,0.02096
3475.59754,0.02101
3473.66880,0.02105
3471.74005,0.02120
3469.81131,0.02139
3467.88256,0.02158
3465.95382,0.02159
3464.02508,0.02139
3462.09633,0.02122
3460.16759,0.02111
3458.23884,0.02088
3456.31010,0.02055
3454.38135,0.02023
3452.45261,0.02019
3450.52386,0.02054
3448.59512,0.02091
3446.66638,0.02101
3444.73763,0.02116
3442.80889,0.02130
3440.88014,0.02102
3438.95140,0.02068
3437.02265,0.02085
3435.09391,0.02128
3433.16516,0.02151
3431.23642,0.02148
3429.30768,0.02137
3427.37893,0.02140
3425.45019,0.02156
3423.52144,0.02159
3421.59270,0.02140
3419.66395,0.02122
3417.73521,0.02126
3415.80646,0.02143
3413.87772,0.02138
3411.94897,0.02114
3410.02023,0.02107
3408.09149,0.02102
3406.16274,0.02063
3404.23400,0.02029
3402.30525,0.02040
3400.37651,0.02069
3398.44776,0.02094
3396.51902,0.02111
3394.59027,0.02119
3392.66153,0.02122
3390.73279,0.02121
3388.80404,0.02114
3386.87530,0.02104
3384.94655,0.02092
3383.01781,0.02087
3381.08906,0.02076
3379.16032,0.02062
3377.23157,0.02083
3375.30283,0.02127
3373.37409,0.02148
3371.44534,0.02137
3369.51660,0.02094
3367.58785,0.02048
3365.65911,0.02046
3363.73036,0.02072
3361.80162,0.02083
3359.87287,0.02068
3357.94413,0.02058
3356.01539,0.02077
3354.08664,0.02080
3352.15790,0.02051
3350.22915,0.02033
3348.30041,0.02033
3346.37166,0.02043
3344.44292,0.02076
3342.51417,0.02103
3340.58543,0.02091
3338.65668,0.02073
3336.72794,0.02064
3334.79920,0.02042
3332.87045,0.02016
3330.94171,0.02033
3329.01296,0.02094
3327.08422,0.02126
3325.15547,0.02107
3323.22673,0.02101
3321.29798,0.02117
3319.36924,0.02096
3317.44050,0.02036
3315.51175,0.02010
3313.58301,0.02039
3311.65426,0.02084
3309.72552,0.02111
3307.79677,0.02100
3305.86803,0.02076
3303.93928,0.02074
3302.01054,0.02095
3300.08180,0.02121
3298.15305,0.02133
3296.22431,0.02127
3294.29556,0.02089
3292.36682,0.02032
3290.43807,0.02013
3288.50933,0.02027
3286.58058,0.02031
3284.65184,0.02038
3282.72310,0.02056
3280.79435,0.02057
3278.86561,0.02059
3276.93686,0.02093
3275.00812,0.02131
3273.07937,0.02159
3271.15063,0.02183
3269.22188,0.02173
3267.29314,0.02128
3265.36439,0.02096
3263.43565,0.02090
3261.50691,0.02100
3259.57816,0.02113
3257.64942,0.02103
3255.72067,0.02076
3253.79193,0.02063
3251.86318,0.02056
3249.93444,0.02048
3248.00569,0.02058
3246.07695,0.02065
3244.14821,0.02059
3242.21946,0.02076
3240.29072,0.02123
3238.36197,0.02170
3236.43323,0.02179
3234.50448,0.02131
3232.57574,0.02080
3230.64699,0.02074
3228.71825,0.02097
3226.78951,0.02106
3224.86076,0.02085
3222.93202,0.02062
3221.00327,0.02064
3219.07453,0.02080
3217.14578,0.02107
3215.21704,0.02149
3213.28829,0.02186
3211.35955,0.02197
3209.43081,0.02181
3207.50206,0.02162
3205.57332,0.02148
3203.64457,0.02134
3201.71583,0.02132
3199.78708,0.02139
3197.85834,0.02127
3195.92959,0.02108
3194.00085,0.02122
3192.07210,0.02141
3190.14336,0.02130
3188.21462,0.02119
3186.28587,0.02122
3184.35713,0.02109
3182.42838,0.02094
3180.49964,0.02119
3178.57089,0.02161
3176.64215,0.02161
3174.71340,0.02129
3172.78466,0.02115
3170.85592,0.02124
3168.92717,0.02125
3166.99843,0.02112
3165.06968,0.02124
3163.14094,0.02162
3161.21219,0.02172
3159.28345,0.02136
3157.35470,0.02102
3155.42596,0.02106
3153.49722,0.02114
3151.56847,0.02114
3149.63973,0.02122
3147.71098,0.02130
3145.78224,0.02143
3143.85349,0.02166
3141.92475,0.02169
3139.99600,0.02136
3138.06726,0.02090
3136.13852,0.02079
3134.20977,0.02099
3132.28103,0.02096
3130.35228,0.02078
3128.42354,0.02079
3126.49479,0.02086
3124.56605,0.02080
3122.63730,0.02074
3120.70856,0.02085
3118.77981,0.02107
3116.85107,0.02120
3114.92233,0.02123
3112.99358,0.02139
3111.06484,0.02163
3109.13609,0.02169
3107.20735,0.02148
3105.27860,0.02124
3103.34986,0.02125
3101.42111,0.02136
3099.49237,0.02130
3097.56363,0.02114
3095.63488,0.02103
3093.70614,0.02097
3091.77739,0.02097
3089.84865,0.02111
3087.91990,0.02124
3085.99116,0.02124
3084.06241,0.02114
3082.13367,0.02093
3080.20493,0.02087
3078.27618,0.02122
3076.34744,0.02174
3074.41869,0.02193
3072.48995,0.02167
3070.56120,0.02121
3068.63246,0.02088
3066.70371,0.02080
3064.77497,0.02079
3062.84623,0.02057
3060.91748,0.02029
3058.98874,0.02028
3057.05999,0.02056
3055.13125,0.02093
3053.20250,0.02107
3051.27376,0.02097
3049.34501,0.02096
3047.41627,0.02089
3045.48752,0.02064
3043.55878,0.02059
3041.63004,0.02077
3039.70129,0.02091
3037.77255,0.02088
3035.84380,0.02077
3033.91506,0.02077
3031.98631,0.02092
3030.05757,0.02102
3028.12882,0.02098
3026.20008,0.02088
3024.27134,0.02084
3022.34259,0.02089
3020.41385,0.02083
3018.48510,0.02063
3016.55636,0.02065
3014.62761,0.02092
3012.69887,0.02108
3010.77012,0.02088
3008.84138,0.02061
3006.91264,0.02057
3004.98389,0.02071
3003.05515,0.02085
3001.12640,0.02080
2999.19766,0.02064
2997.26891,0.02065
2995.34017,0.02087
2993.41142,0.02104
2991.48268,0.02092
2989.55394,0.02054
2987.62519,0.02008
2985.69645,0.01981
2983.76770,0.01988
2981.83896,0.02013
2979.91021,0.02020
2977.98147,0.02014
2976.05272,0.02036
2974.12398,0.02061
2972.19523,0.02050
2970.26649,0.02037
2968.33775,0.02047
2966.40900,0.02045
2964.48026,0.02017
2962.55151,0.02003
2960.62277,0.02026
2958.69402,0.02042
2956.76528,0.02024
2954.83653,0.02011
2952.90779,0.02037
2950.97905,0.02071
2949.05030,0.02066
2947.12156,0.02022
2945.19281,0.01978
2943.26407,0.01963
2941.33532,0.01974
2939.40658,0.01989
2937.47783,0.01993
2935.54909,0.02001
2933.62035,0.02022
2931.69160,0.02032
2929.76286,0.02024
2927.83411,0.02017
2925.90537,0.02011
2923.97662,0.02014
2922.04788,0.02034
2920.11913,0.02067
2918.19039,0.02093
2916.26165,0.02091
2914.33290,0.02074
2912.40416,0.02061
2910.47541,0.02047
2908.54667,0.02037
2906.61792,0.02045
2904.68918,0.02068
2902.76043,0.02087
2900.83169,0.02097
2898.90294,0.02098
2896.97420,0.02076
2895.04546,0.02051
2893.11671,0.02052
2891.18797,0.02070
2889.25922,0.02085
2887.33048,0.02098
2885.40173,0.02104
2883.47299,0.02096
2881.54424,0.02087
2879.61550,0.02082
2877.68676,0.02068
2875.75801,0.02059
2873.82927,0.02077
2871.90052,0.02107
2869.97178,0.02104
2868.04303,0.02079
2866.11429,0.02086
2864.18554,0.02122
2862.25680,0.02142
2860.32806,0.02131
2858.39931,0.02118
2856.47057,0.02120
2854.54182,0.02116
2852.61308,0.02111
2850.68433,0.02128
2848.75559,0.02142
2846.82684,0.02138
2844.89810,0.02150
2842.96936,0.02182
2841.04061,0.02193
2839.11187,0.02176
2837.18312,0.02156
2835.25438,0.02156
2833.32563,0.02175
2831.39689,0.02194
2829.46814,0.02197
2827.53940,0.02187
2825.61065,0.02172
2823.68191,0.02153
2821.75317,0.02133
2819.82442,0.02115
2817.89568,0.02109
2815.96693,0.02132
2814.03819,0.02180
2812.10944,0.02214
2810.18070,0.02205
2808.25195,0.02165
2806.32321,0.02136
2804.39447,0.02141
2802.46572,0.02165
2800.53698,0.02178
2798.60823,0.02172
2796.67949,0.02159
2794.75074,0.02148
2792.82200,0.02135
2790.89325,0.02128
2788.96451,0.02143
2787.03577,0.02179
2785.10702,0.02213
2783.17828,0.02224
2781.24953,0.02216
2779.32079,0.02215
2777.39204,0.02211
2775.46330,0.02185
2773.53455,0.02152
2771.60581,0.02139
2769.67707,0.02154
2767.74832,0.02175
2765.81958,0.02183
2763.89083,0.02193
2761.96209,0.02223
2760.03334,0.02242
2758.10460,0.02223
2756.17585,0.02193
2754.24711,0.02167
2752.31836,0.02145
2750.38962,0.02142
2748.46088,0.02167
2746.53213,0.02191
2744.60339,0.02173
2742.67464,0.02138
2740.74590,0.02136
2738.81715,0.02156
2736.88841,0.02167
2734.95966,0.02168
2733.03092,0.02169
2731.10218,0.02178
2729.17343,0.02198
2727.24469,0.02223
2725.31594,0.02234
2723.38720,0.02226
2721.45845,0.02204
2719.52971,0.02187
2717.60096,0.02175
2715.67222,0.02163
2713.74348,0.02165
2711.81473,0.02183
2709.88599,0.02192
2707.95724,0.02178
2706.02850,0.02158
2704.09975,0.02165
2702.17101,0.02182
2700.24226,0.02177
2698.31352,0.02157
2696.38477,0.02149
2694.45603,0.02156
2692.52729,0.02172
2690.59854,0.02185
2688.66980,0.02181
2686.74105,0.02171
2684.81231,0.02165
2682.88356,0.02154
2680.95482,0.02157
2679.02607,0.02180
2677.09733,0.02193
2675.16859,0.02207
2673.23984,0.02235
2671.31110,0.02248
2669.38235,0.02240
2667.45361,0.02223
2665.52486,0.02205
2663.59612,0.02191
2661.66737,0.02188
2659.73863,0.02200
2657.80989,0.02216
2655.88114,0.02220
2653.95240,0.02200
2652.02365,0.02168
2650.09491,0.02161
2648.16616,0.02176
2646.23742,0.02187
2644.30867,0.02195
2642.37993,0.02204
2640.45119,0.02196
2638.52244,0.02180
2636.59370,0.02176
2634.66495,0.02173
2632.73621,0.02172
2630.80746,0.02190
2628.87872,0.02204
2626.94997,0.02187
2625.02123,0.02168
2623.09248,0.02178
2621.16374,0.02189
2619.23500,0.02186
2617.30625,0.02192
2615.37751,0.02205
2613.44876,0.02205
2611.52002,0.02205
2609.59127,0.02222
2607.66253,0.02236
2605.73378,0.02234
2603.80504,0.02230
2601.87630,0.02223
2599.94755,0.02210
2598.01881,0.02202
2596.09006,0.02195
2594.16132,0.02178
2592.23257,0.02164
2590.30383,0.02162
2588.37508,0.02162
2586.44634,0.02169
2584.51760,0.02181
2582.58885,0.02184
2580.66011,0.02190
2578.73136,0.02207
2576.80262,0.02206
2574.87387,0.02177
2572.94513,0.02157
2571.01638,0.02169
2569.08764,0.02186
2567.15890,0.02182
2565.23015,0.02169
2563.30141,0.02170
2561.37266,0.02184
2559.44392,0.02200
2557.51517,0.02208
2555.58643,0.02201
2553.65768,0.02193
2551.72894,0.02193
2549.80019,0.02183
2547.87145,0.02161
2545.94271,0.02153
2544.01396,0.02164
2542.08522,0.02184
2540.15647,0.02195
2538.22773,0.02192
2536.29898,0.02185
2534.37024,0.02182
2532.44149,0.02189
2530.51275,0.02199
2528.58401,0.02191
2526.65526,0.02172
2524.72652,0.02162
2522.79777,0.02167
2520.86903,0.02176
2518.94028,0.02187
2517.01154,0.02207
2515.08279,0.02219
2513.15405,0.02213
2511.22531,0.02199
2509.29656,0.02189
2507.36782,0.02189
2505.43907,0.02197
2503.51033,0.02193
2501.58158,0.02178
2499.65284,0.02175
2497.72409,0.02190
2495.79535,0.02200
2493.86661,0.02194
2491.93786,0.02187
2490.00912,0.02173
2488.08037,0.02161
2486.15163,0.02167
2484.22288,0.02180
2482.29414,0.02190
2480.36539,0.02199
2478.43665,0.02199
2476.50790,0.02195
2474.57916,0.02195
2472.65042,0.02194
2470.72167,0.02190
2468.79293,0.02200
2466.86418,0.02210
2464.93544,0.02195
2463.00669,0.02174
2461.07795,0.02167
2459.14920,0.02167
2457.22046,0.02174
2455.29172,0.02192
2453.36297,0.02209
2451.43423,0.02208
2449.50548,0.02184
2447.57674,0.02158
2445.64799,0.02155
2443.71925,0.02184
2441.79050,0.02224
2439.86176,0.02239
2437.93302,0.02225
2436.00427,0.02206
2434.07553,0.02199
2432.14678,0.02198
2430.21804,0.02197
2428.28929,0.02200
2426.36055,0.02199
2424.43180,0.02185
2422.50306,0.02169
2420.57432,0.02167
2418.64557,0.02178
2416.71683,0.02196
2414.78808,0.02205
2412.85934,0.02191
2410.93059,0.02177
2409.00185,0.02188
2407.07310,0.02198
2405.14436,0.02179
2403.21561,0.02162
2401.28687,0.02183
2399.35813,0.02208
2397.42938,0.02202
2395.50064,0.02186
2393.57189,0.02171
2391.64315,0.02154
2389.71440,0.02144
2387.78566,0.02154
2385.85691,0.02174
2383.92817,0.02179
2381.99943,0.02176
2380.07068,0.02172
2378.14194,0.02160
2376.21319,0.02151
2374.28445,0.02157
2372.35570,0.02168
2370.42696,0.02172
2368.49821,0.02165
2366.56947,0.02155
2364.64073,0.02150
2362.71198,0.02164
2360.78324,0.02201
2358.85449,0.02228
2356.92575,0.02231
2354.99700,0.02227
2353.06826,0.02208
2351.13951,0.02182
2349.21077,0.02181
2347.28203,0.02203
2345.35328,0.02211
2343.42454,0.02197
2341.49579,0.02182
2339.56705,0.02165
2337.63830,0.02148
2335.70956,0.02152
2333.78081,0.02166
2331.85207,0.02185
2329.92332,0.02207
2327.99458,0.02220
2326.06584,0.02219
2324.13709,0.02213
2322.20835,0.02206
2320.27960,0.02198
2318.35086,0.02182
2316.42211,0.02157
2314.49337,0.02138
2312.56462,0.02131
2310.63588,0.02148
2308.70714,0.02187
2306.77839,0.02218
2304.84965,0.02222
2302.92090,0.02207
2300.99216,0.02199
2299.06341,0.02197
2297.13467,0.02176
2295.20592,0.02149
2293.27718,0.02150
2291.34844,0.02179
2289.41969,0.02208
2287.49095,0.02219
2285.56220,0.02212
2283.63346,0.02194
2281.70471,0.02176
2279.77597,0.02172
2277.84722,0.02185
2275.91848,0.02198
2273.98974,0.02192
2272.06099,0.02177
2270.13225,0.02176
2268.20350,0.02189
2266.27476,0.02198
2264.34601,0.02181
2262.41727,0.02150
2260.48852,0.02143
2258.55978,0.02158
2256.63103,0.02163
2254.70229,0.02162
2252.77355,0.02171
2250.84480,0.02186
2248.91606,0.02198
2246.98731,0.02190
2245.05857,0.02160
2243.12982,0.02133
2241.20108,0.02122
2239.27233,0.02132
2237.34359,0.02153
2235.41485,0.02167
2233.48610,0.02178
2231.55736,0.02192
2229.62861,0.02188
2227.69987,0.02160
2225.77112,0.02138
2223.84238,0.02144
2221.91363,0.02163
2219.98489,0.02176
2218.05615,0.02178
2216.12740,0.02178
2214.19866,0.02188
2212.26991,0.02191
2210.34117,0.02174
2208.41242,0.02162
2206.48368,0.02163
2204.55493,0.02156
2202.62619,0.02153
2200.69745,0.02172
2198.76870,0.02182
2196.83996,0.02173
2194.91121,0.02167
2192.98247,0.02166
2191.05372,0.02159
2189.12498,0.02158
2187.19623,0.02168
2185.26749,0.02174
2183.33874,0.02170
2181.41000,0.02162
2179.48126,0.02157
2177.55251,0.02164
2175.62377,0.02168
2173.69502,0.02161
2171.76628,0.02158
2169.83753,0.02165
2167.90879,0.02169
2165.98004,0.02171
2164.05130,0.02175
2162.12256,0.02182
2160.19381,0.02182
2158.26507,0.02169
2156.33632,0.02153
2154.40758,0.02152
2152.47883,0.02160
2150.55009,0.02163
2148.62134,0.02152
2146.69260,0.02139
2144.76386,0.02141
2142.83511,0.02157
2140.90637,0.02164
2138.97762,0.02161
2137.04888,0.02170
2135.12013,0.02175
2133.19139,0.02156
2131.26264,0.02138
2129.33390,0.02136
2127.40516,0.02137
2125.47641,0.02137
2123.54767,0.02145
2121.61892,0.02162
2119.69018,0.02174
2117.76143,0.02175
2115.83269,0.02169
2113.90394,0.02162
2111.97520,0.02157
2110.04645,0.02155
2108.11771,0.02155
2106.18897,0.02162
2104.26022,0.02178
2102.33148,0.02179
2100.40273,0.02163
2098.47399,0.02155
2096.54524,0.02157
2094.61650,0.02156
2092.68775,0.02151
2090.75901,0.02154
2088.83027,0.02174
2086.90152,0.02190
2084.97278,0.02180
2083.04403,0.02155
2081.11529,0.02140
2079.18654,0.02143
2077.25780,0.02153
2075.32905,0.02161
2073.40031,0.02169
2071.47157,0.02168
2069.54282,0.02169
2067.61408,0.02178
2065.68533,0.02174
2063.75659,0.02156
2061.82784,0.02147
2059.89910,0.02148
2057.97035,0.02143
2056.04161,0.02136
2054.11287,0.02144
2052.18412,0.02162
2050.25538,0.02175
2048.32663,0.02183
2046.39789,0.02178
2044.46914,0.02155
2042.54040,0.02138
2040.61165,0.02142
2038.68291,0.02151
2036.75416,0.02151
2034.82542,0.02148
2032.89668,0.02149
2030.96793,0.02156
2029.03919,0.02161
2027.11044,0.02162
2025.18170,0.02158
2023.25295,0.02146
2021.32421,0.02132
2019.39546,0.02133
2017.46672,0.02157
2015.53798,0.02192
2013.60923,0.02206
2011.68049,0.02187
2009.75174,0.02160
2007.82300,0.02151
2005.89425,0.02157
2003.96551,0.02160
2002.03676,0.02148
2000.10802,0.02134
1998.17928,0.02129
1996.25053,0.02129
1994.32179,0.02139
1992.39304,0.02163
1990.46430,0.02185
1988.53555,0.02183
1986.60681,0.02156
1984.67806,0.02141
1982.74932,0.02154
1980.82058,0.02171
1978.89183,0.02162
1976.96309,0.02137
1975.03434,0.02134
1973.10560,0.02157
1971.17685,0.02174
1969.24811,0.02173
1967.31936,0.02159
1965.39062,0.02144
1963.46187,0.02145
1961.53313,0.02163
1959.60439,0.02172
1957.67564,0.02168
1955.74690,0.02167
1953.81815,0.02166
1951.88941,0.02160
1949.96066,0.02152
1948.03192,0.02141
1946.10317,0.02134
1944.17443,0.02137
1942.24569,0.02141
1940.31694,0.02141
1938.38820,0.02142
1936.45945,0.02146
1934.53071,0.02144
1932.60196,0.02134
1930.67322,0.02127
1928.74447,0.02124
1926.81573,0.02117
1924.88699,0.02114
1922.95824,0.02127
1921.02950,0.02144
1919.10075,0.02153
1917.17201,0.02156
1915.24326,0.02146
1913.31452,0.02122
1911.38577,0.02103
1909.45703,0.02105
1907.52829,0.02126
1905.59954,0.02144
1903.67080,0.02140
1901.74205,0.02130
1899.81331,0.02138
1897.88456,0.02143
1895.95582,0.02132
1894.02707,0.02126
1892.09833,0.02131
1890.16958,0.02123
1888.24084,0.02105
1886.31210,0.02094
1884.38335,0.02096
1882.45461,0.02107
1880.52586,0.02126
1878.59712,0.02145
1876.66837,0.02152
1874.73963,0.02139
1872.81088,0.02111
1870.88214,0.02084
1868.95340,0.02078
1867.02465,0.02089
1865.09591,0.02089
1863.16716,0.02077
1861.23842,0.02078
1859.30967,0.02102
1857.38093,0.02123
1855.45218,0.02119
1853.52344,0.02102
1851.59470,0.02088
1849.66595,0.02085
1847.73721,0.02101
1845.80846,0.02122
1843.87972,0.02123
1841.95097,0.02113
1840.02223,0.02111
1838.09348,0.02107
1836.16474,0.02097
1834.23600,0.02094
1832.30725,0.02093
1830.37851,0.02093
1828.44976,0.02098
1826.52102,0.02098
1824.59227,0.02086
1822.66353,0.02074
1820.73478,0.02078
1818.80604,0.02093
1816.87729,0.02091
1814.94855,0.02062
1813.01981,0.02034
1811.09106,0.02029
1809.16232,0.02027
1807.23357,0.02020
1805.30483,0.02028
1803.37608,0.02055
1801.44734,0.02074
1799.51859,0.02066
1797.58985,0.02042
1795.66111,0.02026
1793.73236,0.02024
1791.80362,0.02032
1789.87487,0.02037
1787.94613,0.02027
1786.01738,0.02011
1784.08864,0.02009
1782.15989,0.02005
1780.23115,0.01980
1778.30241,0.01957
1776.37366,0.01949
1774.44492,0.01947
1772.51617,0.01944
1770.58743,0.01945
1768.65868,0.01935
1766.72994,0.01911
1764.80119,0.01886
1762.87245,0.01864
1760.94370,0.01849
1759.01496,0.01841
1757.08622,0.01818
1755.15747,0.01793
1753.22873,0.01791
1751.29998,0.01794
1749.37124,0.01795
1747.44249,0.01808
1745.51375,0.01830
1743.58500,0.01849
1741.65626,0.01871
1739.72752,0.01897
1737.79877,0.01925
1735.87003,0.01944
1733.94128,0.01953
1732.01254,0.01965
1730.08379,0.01990
1728.15505,0.02028
1726.22630,0.02068
1724.29756,0.02101
1722.36882,0.02121
1720.44007,0.02135
1718.51133,0.02143
1716.58258,0.02140
1714.65384,0.02132
1712.72509,0.02123
1710.79635,0.02104
1708.86760,0.02080
1706.93886,0.02059
1705.01012,0.02044
1703.08137,0.02045
1701.15263,0.02052
1699.22388,0.02036
1697.29514,0.02010
1695.36639,0.01986
1693.43765,0.01959
1691.50890,0.01945
1689.58016,0.01944
1687.65141,0.01944
1685.72267,0.01938
1683.79393,0.01924
1681.86518,0.01916
1679.93644,0.01921
1678.00769,0.01922
1676.07895,0.01908
1674.15020,0.01903
1672.22146,0.01910
1670.29271,0.01909
1668.36397,0.01904
1666.43523,0.01894
1664.50648,0.01872
1662.57774,0.01862
1660.64899,0.01879
1658.72025,0.01894
1656.79150,0.01884
1654.86276,0.01871
1652.93401,0.01875
1651.00527,0.01875
1649.07653,0.01872
1647.14778,0.01876
1645.21904,0.01881
1643.29029,0.01893
1641.36155,0.01904
1639.43280,0.01895
1637.50406,0.01878
1635.57531,0.01872
1633.64657,0.01879
1631.71783,0.01893
1629.78908,0.01905
1627.86034,0.01913
1625.93159,0.01919
1624.00285,0.01921
1622.07410,0.01919
1620.14536,0.01927
1618.21661,0.01936
1616.28787,0.01920
1614.35912,0.01885
1612.43038,0.01867
1610.50164,0.01872
1608.57289,0.01883
1606.64415,0.01888
1604.71540,0.01898
1602.78666,0.01907
1600.85791,0.01903
1598.92917,0.01902
1597.00042,0.01902
1595.07168,0.01886
1593.14294,0.01874
1591.21419,0.01876
1589.28545,0.01882
1587.35670,0.01896
1585.42796,0.01910
1583.49921,0.01909
1581.57047,0.01898
1579.64172,0.01887
1577.71298,0.01880
1575.78424,0.01869
1573.85549,0.01844
1571.92675,0.01824
1569.99800,0.01823
1568.06926,0.01826
1566.14051,0.01817
1564.21177,0.01808
1562.28302,0.01811
1560.35428,0.01821
1558.42554,0.01826
1556.49679,0.01828
1554.56805,0.01826
1552.63930,0.01827
1550.71056,0.01840
1548.78181,0.01857
1546.85307,0.01872
1544.92432,0.01872
1542.99558,0.01863
1541.06683,0.01871
1539.13809,0.01887
1537.20935,0.01895
1535.28060,0.01907
1533.35186,0.01908
1531.42311,0.01893
1529.49437,0.01884
1527.56562,0.01884
1525.63688,0.01882
1523.70813,0.01886
1521.77939,0.01896
1519.85065,0.01895
1517.92190,0.01886
1515.99316,0.01876
1514.06441,0.01868
1512.13567,0.01875
1510.20692,0.01896
1508.27818,0.01902
1506.34943,0.01885
1504.42069,0.01882
1502.49195,0.01897
1500.56320,0.01901
1498.63446,0.01893
1496.70571,0.01891
1494.77697,0.01888
1492.84822,0.01895
1490.91948,0.01917
1488.99073,0.01922
1487.06199,0.01904
1485.13325,0.01892
1483.20450,0.01886
1481.27576,0.01881
1479.34701,0.01886
1477.41827,0.01901
1475.48952,0.01911
1473.56078,0.01898
1471.63203,0.01873
1469.70329,0.01856
1467.77454,0.01854
1465.84580,0.01859
1463.91706,0.01868
1461.98831,0.01873
1460.05957,0.01866
1458.13082,0.01857
1456.20208,0.01857
1454.27333,0.01871
1452.34459,0.01899
1450.41584,0.01923
1448.48710,0.01928
1446.55836,0.01921
1444.62961,0.01912
1442.70087,0.01899
1440.77212,0.01886
1438.84338,0.01887
1436.91463,0.01898
1434.98589,0.01894
1433.05714,0.01884
1431.12840,0.01898
1429.19966,0.01912
1427.27091,0.01901
1425.34217,0.01878
1423.41342,0.01866
1421.48468,0.01867
1419.55593,0.01872
1417.62719,0.01877
1415.69844,0.01880
1413.76970,0.01878
1411.84096,0.01868
1409.91221,0.01851
1407.98347,0.01846
1406.05472,0.01853
1404.12598,0.01859
1402.19723,0.01865
1400.26849,0.01862
1398.33974,0.01842
1396.41100,0.01817
1394.48225,0.01814
1392.55351,0.01841
1390.62477,0.01860
1388.69602,0.01849
1386.76728,0.01835
1384.83853,0.01841
1382.90979,0.01846
1380.98104,0.01843
1379.05230,0.01845
1377.12355,0.01848
1375.19481,0.01841
1373.26607,0.01834
1371.33732,0.01835
1369.40858,0.01830
1367.47983,0.01813
1365.55109,0.01800
1363.62234,0.01800
1361.69360,0.01811
1359.76485,0.01834
1357.83611,0.01855
1355.90737,0.01861
1353.97862,0.01860
1352.04988,0.01855
1350.12113,0.01845
1348.19239,0.01843
1346.26364,0.01843
1344.33490,0.01832
1342.40615,0.01825
1340.47741,0.01823
1338.54867,0.01808
1336.61992,0.01787
1334.69118,0.01782
1332.76243,0.01792
1330.83369,0.01795
1328.90494,0.01780
1326.97620,0.01764
1325.04745,0.01755
1323.11871,0.01747
1321.18996,0.01740
1319.26122,0.01745
1317.33248,0.01752
1315.40373,0.01749
1313.47499,0.01744
1311.54624,0.01745
1309.61750,0.01739
1307.68875,0.01735
1305.76001,0.01753
1303.83126,0.01769
1301.90252,0.01766
1299.97378,0.01759
1298.04503,0.01763
1296.11629,0.01778
1294.18754,0.01793
1292.25880,0.01805
1290.33005,0.01827
1288.40131,0.01848
1286.47256,0.01853
1284.54382,0.01861
1282.61508,0.01880
1280.68633,0.01896
1278.75759,0.01901
1276.82884,0.01907
1274.90010,0.01919
1272.97135,0.01932
1271.04261,0.01952
1269.11386,0.01981
1267.18512,0.02001
1265.25638,0.02014
1263.32763,0.02028
1261.39889,0.02031
1259.47014,0.02026
1257.54140,0.02030
1255.61265,0.02044
1253.68391,0.02066
1251.75516,0.02081
1249.82642,0.02079
1247.89767,0.02068
1245.96893,0.02053
1244.04019,0.02040
1242.11144,0.02033
1240.18270,0.02033
1238.25395,0.02026
1236.32521,0.02022
1234.39646,0.02026
1232.46772,0.02012
1230.53897,0.01979
1228.61023,0.01960
1226.68149,0.01948
1224.75274,0.01926
1222.82400,0.01909
1220.89525,0.01914
1218.96651,0.01925
1217.03776,0.01923
1215.10902,0.01918
1213.18027,0.01923
1211.25153,0.01916
1209.32279,0.01893
1207.39404,0.01873
1205.46530,0.01867
1203.53655,0.01878
1201.60781,0.01895
1199.67906,0.01908
1197.75032,0.01910
1195.82157,0.01895
1193.89283,0.01875
1191.96409,0.01868
1190.03534,0.01869
1188.10660,0.01880
1186.17785,0.01884
1184.24911,0.01856
1182.32036,0.01820
1180.39162,0.01813
1178.46287,0.01828
1176.53413,0.01838
1174.60538,0.01824
1172.67664,0.01798
1170.74790,0.01787
1168.81915,0.01797
1166.89041,0.01814
1164.96166,0.01819
1163.03292,0.01809
1161.10417,0.01803
1159.17543,0.01812
1157.24668,0.01821
1155.31794,0.01825
1153.38920,0.01828
1151.46045,0.01823
1149.53171,0.01800
1147.60296,0.01765
1145.67422,0.01744
1143.74547,0.01751
1141.81673,0.01773
1139.88798,0.01789
1137.95924,0.01801
1136.03050,0.01817
1134.10175,0.01825
1132.17301,0.01822
1130.24426,0.01819
1128.31552,0.01821
1126.38677,0.01828
1124.45803,0.01848
1122.52928,0.01868
1120.60054,0.01868
1118.67180,0.01864
1116.74305,0.01886
1114.81431,0.01917
1112.88556,0.01936
1110.95682,0.01941
1109.02807,0.01923
1107.09933,0.01887
1105.17058,0.01861
1103.24184,0.01849
1101.31309,0.01837
1099.38435,0.01819
1097.45561,0.01815
1095.52686,0.01831
1093.59812,0.01848
1091.66937,0.01863
1089.74063,0.01875
1087.81188,0.01863
1085.88314,0.01832
1083.95439,0.01820
1082.02565,0.01823
1080.09691,0.01828
1078.16816,0.01840
1076.23942,0.01872
1074.31067,0.01932
1072.38193,0.01981
1070.45318,0.01988
1068.52444,0.01990
1066.59569,0.01997
1064.66695,0.01974
1062.73821,0.01947
1060.80946,0.01978
1058.88072,0.02033
1056.95197,0.02050
1055.02323,0.02033
1053.09448,0.01996
1051.16574,0.01947
1049.23699,0.01912
1047.30825,0.01914
1045.37951,0.01928
1043.45076,0.01927
1041.52202,0.01929
1039.59327,0.01963
1037.66453,0.02007
1035.73578,0.02012
1033.80704,0.01982
1031.87829,0.01966
1029.94955,0.01972
1028.02080,0.01961
1026.09206,0.01926
1024.16332,0.01902
1022.23457,0.01914
1020.30583,0.01933
1018.37708,0.01942
1016.44834,0.01967
1014.51959,0.02003
1012.59085,0.02019
1010.66210,0.02034
1008.73336,0.02056
1006.80462,0.02065
1004.87587,0.02070
1002.94713,0.02095
1001.01838,0.02142
999.08964,0.02175
997.16089,0.02172
995.23215,0.02158
993.30340,0.02171
991.37466,0.02196
989.44592,0.02194
987.51717,0.02174
985.58843,0.02161
983.65968,0.02153
981.73094,0.02129
979.80219,0.02088
977.87345,0.02061
975.94470,0.02057
974.01596,0.02056
972.08722,0.02050
970.15847,0.02049
968.22973,0.02058
966.30098,0.02073
964.37224,0.02085
962.44349,0.02079
960.51475,0.02062
958.58600,0.02044
956.65726,0.02028
954.72851,0.02017
952.79977,0.02009
950.87103,0.02000
948.94228,0.01994
947.01354,0.01992
945.08479,0.02000
943.15605,0.02021
941.22730,0.02030
939.29856,0.02008
937.36981,0.01973
935.44107,0.01964
933.51233,0.01978
931.58358,0.01974
929.65484,0.01942
927.72609,0.01923
925.79735,0.01941
923.86860,0.01970
921.93986,0.01994
920.01111,0.02008
918.08237,0.01998
916.15363,0.01967
914.22488,0.01917
912.29614,0.01883
910.36739,0.01903
908.43865,0.01946
906.50990,0.01953
904.58116,0.01926
902.65241,0.01928
900.72367,0.01984
898.79492,0.02035
896.86618,0.02024
894.93744,0.01976
893.00869,0.01943
891.07995,0.01935
889.15120,0.01934
887.22246,0.01940
885.29371,0.01948
883.36497,0.01935
881.43622,0.01916
879.50748,0.01933
877.57874,0.01964
875.64999,0.01955
873.72125,0.01920
871.79250,0.01921
869.86376,0.01947
867.93501,0.01934
866.00627,0.01894
864.07752,0.01885
862.14878,0.01904
860.22004,0.01911
858.29129,0.01889
856.36255,0.01864
854.43380,0.01872
852.50506,0.01900
850.57631,0.01914
848.64757,0.01936
846.71882,0.01969
844.79008,0.01971
842.86134,0.01944
840.93259,0.01909
839.00385,0.01863
837.07510,0.01835
835.14636,0.01844
833.21761,0.01848
831.28887,0.01841
829.36012,0.01851
827.43138,0.01874
825.50263,0.01911
823.57389,0.01950
821.64515,0.01964
819.71640,0.01952
817.78766,0.01910
815.85891,0.01862
813.93017,0.01847
812.00142,0.01861
810.07268,0.01875
808.14393,0.01883
806.21519,0.01888
804.28645,0.01891
802.35770,0.01890
800.42896,0.01875
798.50021,0.01839
796.57147,0.01817
794.64272,0.01831
792.71398,0.01858
790.78523,0.01893
788.85649,0.01913
786.92775,0.01884
784.99900,0.01842
783.07026,0.01834
781.14151,0.01850
779.21277,0.01856
777.28402,0.01857
775.35528,0.01875
773.42653,0.01887
771.49779,0.01878
769.56905,0.01874
767.64030,0.01888
765.71156,0.01905
763.78281,0.01899
761.85407,0.01872
759.92532,0.01860
757.99658,0.01859
756.06783,0.01839
754.13909,0.01816
752.21034,0.01806
750.28160,0.01795
748.35286,0.01781
746.42411,0.01777
744.49537,0.01806
742.56662,0.01875
740.63788,0.01940
738.70913,0.01964
736.78039,0.01953
734.85164,0.01913
732.92290,0.01857
730.99416,0.01824
729.06541,0.01829
727.13667,0.01835
725.20792,0.01822
723.27918,0.01822
721.35043,0.01846
719.42169,0.01849
717.49294,0.01822
715.56420,0.01811
713.63546,0.01807
711.70671,0.01779
709.77797,0.01781
707.84922,0.01835
705.92048,0.01885
703.99173,0.01880
702.06299,0.01813
700.13424,0.01764
698.20550,0.01805
696.27676,0.01860
694.34801,0.01842
692.41927,0.01780
690.49052,0.01739
688.56178,0.01751
686.63303,0.01803
684.70429,0.01839
682.77554,0.01818
680.84680,0.01758
678.91805,0.01712
676.98931,0.01718
675.06057,0.01749
673.13182,0.01759
671.20308,0.01779
669.27433,0.01828
667.34559,0.01852
665.41684,0.01810
663.48810,0.01765
661.55935,0.01800
659.63061,0.01882
657.70187,0.01902
655.77312,0.01812
653.84438,0.01679
651.91563,0.01623
649.98689,0.01634
648.05814,0.01650
646.12940,0.01670
644.20065,0.01666
642.27191,0.01595
640.34317,0.01503
638.41442,0.01526
636.48568,0.01693
634.55693,0.01802
632.62819,0.01720
630.69944,0.01570
628.77070,0.01507
626.84195,0.01556
624.91321,0.01623
622.98447,0.01645
621.05572,0.01637
619.12698,0.01626
617.19823,0.01636
615.26949,0.01622
613.34074,0.01558
611.41200,0.01529
609.48325,0.01535
607.55451,0.01478
605.62576,0.01450
603.69702,0.01573
601.76828,0.01750
599.83953,0.01824
