7497.02977,0.02289
7495.10103,0.02315
7493.17228,0.01944
7491.24354,0.01979
7489.31479,0.02720
7487.38605,0.03277
7485.45730,0.03066
7483.52856,0.02545
7481.59982,0.02363
7479.67107,0.02634
7477.74233,0.02972
7475.81358,0.02948
7473.88484,0.02335
7471.95609,0.01640
7470.02735,0.01493
7468.09860,0.02105
7466.16986,0.02639
7464.24112,0.02496
7462.31237,0.02142
7460.38363,0.02006
7458.45488,0.01936
7456.52614,0.02188
7454.59739,0.02544
7452.66865,0.02333
7450.73990,0.01889
7448.81116,0.02063
7446.88242,0.02463
7444.95367,0.02296
7443.02493,0.01690
7441.09618,0.01341
7439.16744,0.01409
7437.23869,0.01606
7435.30995,0.01841
7433.38120,0.02162
7431.45246,0.02272
7429.52371,0.02451
7427.59497,0.02931
7425.66623,0.03383
7423.73748,0.03405
7421.80874,0.03161
7419.87999,0.02796
7417.95125,0.02454
7416.02250,0.02457
7414.09376,0.02471
7412.16501,0.02024
7410.23627,0.01851
7408.30753,0.02091
7406.37878,0.02257
7404.45004,0.02457
7402.52129,0.02687
7400.59255,0.02647
7398.66380,0.02458
7396.73506,0.02120
7394.80631,0.01688
7392.87757,0.01567
7390.94883,0.01997
7389.02008,0.02653
7387.09134,0.03201
7385.16259,0.03181
7383.23385,0.02501
7381.30510,0.02028
7379.37636,0.02432
7377.44761,0.03090
7375.51887,0.03310
7373.59013,0.03027
7371.66138,0.02543
7369.73264,0.02140
7367.80389,0.02126
7365.87515,0.02415
7363.94640,0.02738
7362.01766,0.03034
7360.08891,0.03186
7358.16017,0.03077
7356.23142,0.02665
7354.30268,0.01987
7352.37394,0.01624
7350.44519,0.01949
7348.51645,0.02490
7346.58770,0.02744
7344.65896,0.02661
7342.73021,0.02367
7340.80147,0.02109
7338.87272,0.02122
7336.94398,0.02482
7335.01524,0.02618
7333.08649,0.02423
7331.15775,0.02074
7329.22900,0.01646
7327.30026,0.01600
7325.37151,0.02198
7323.44277,0.02592
7321.51402,0.02423
7319.58528,0.02212
7317.65654,0.02169
7315.72779,0.02227
7313.79905,0.02297
7311.87030,0.02046
7309.94156,0.01884
7308.01281,0.02208
7306.08407,0.02591
7304.15532,0.02810
7302.22658,0.02994
7300.29784,0.03004
7298.36909,0.02793
7296.44035,0.02608
7294.51160,0.02483
7292.58286,0.02136
7290.65411,0.01868
7288.72537,0.02133
7286.79662,0.02735
7284.86788,0.02940
7282.93913,0.02753
7281.01039,0.02654
7279.08165,0.02652
7277.15290,0.02489
7275.22416,0.02477
7273.29541,0.02626
7271.36667,0.02586
7269.43792,0.02398
7267.50918,0.02306
7265.58043,0.02062
7263.65169,0.01802
7261.72295,0.01920
7259.79420,0.02199
7257.86546,0.02332
7255.93671,0.02358
7254.00797,0.02466
7252.07922,0.02635
7250.15048,0.02476
7248.22173,0.02200
7246.29299,0.02337
7244.36425,0.02676
7242.43550,0.02730
7240.50676,0.02714
7238.57801,0.02717
7236.64927,0.02422
7234.72052,0.02001
7232.79178,0.01803
7230.86303,0.01775
7228.93429,0.01918
7227.00554,0.02081
7225.07680,0.02179
7223.14806,0.02281
7221.21931,0.02364
7219.29057,0.02415
7217.36182,0.02477
7215.43308,0.02427
7213.50433,0.02261
7211.57559,0.02256
7209.64684,0.02464
7207.71810,0.02629
7205.78936,0.02740
7203.86061,0.02511
7201.93187,0.01942
7200.00312,0.01686
7198.07438,0.01898
7196.14563,0.02150
7194.21689,0.02246
7192.28814,0.02043
7190.35940,0.01914
7188.43066,0.02085
7186.50191,0.02248
7184.57317,0.02046
7182.64442,0.01849
7180.71568,0.02070
7178.78693,0.02415
7176.85819,0.02403
7174.92944,0.02351
7173.00070,0.02613
7171.07196,0.02955
7169.14321,0.02931
7167.21447,0.02559
7165.28572,0.02295
7163.35698,0.02277
7161.42823,0.02325
7159.49949,0.02530
7157.57074,0.02789
7155.64200,0.02841
7153.71325,0.02707
7151.78451,0.02616
7149.85577,0.02481
7147.92702,0.02371
7145.99828,0.02350
7144.06953,0.02197
7142.14079,0.01976
7140.21204,0.01967
7138.28330,0.02062
7136.35455,0.02209
7134.42581,0.02324
7132.49707,0.02214
7130.56832,0.02126
7128.63958,0.02418
7126.71083,0.02839
7124.78209,0.03035
7122.85334,0.03114
7120.92460,0.03136
7118.99585,0.02852
7117.06711,0.02437
7115.13837,0.02288
7113.20962,0.02402
7111.28088,0.02447
7109.35213,0.02416
7107.42339,0.02391
7105.49464,0.02412
7103.56590,0.02453
7101.63715,0.02367
7099.70841,0.02264
7097.77967,0.02425
7095.85092,0.02322
7093.92218,0.01724
7091.99343,0.01498
7090.06469,0.02149
7088.13594,0.02938
7086.20720,0.03094
7084.27845,0.02752
7082.34971,0.02408
7080.42096,0.02212
7078.49222,0.02277
7076.56348,0.02642
7074.63473,0.02968
7072.70599,0.02699
7070.77724,0.02179
7068.84850,0.02102
7066.91975,0.02382
7064.99101,0.02486
7063.06226,0.02433
7061.13352,0.02576
7059.20478,0.02841
7057.27603,0.02890
7055.34729,0.02675
7053.41854,0.02411
7051.48980,0.02169
7049.56105,0.01926
7047.63231,0.01860
7045.70356,0.01975
7043.77482,0.02230
7041.84608,0.02560
7039.91733,0.02684
7037.98859,0.02624
7036.05984,0.02611
7034.13110,0.02549
7032.20235,0.02489
7030.27361,0.02502
7028.34486,0.02444
7026.41612,0.02306
7024.48738,0.02124
7022.55863,0.02061
7020.62989,0.02242
7018.70114,0.02330
7016.77240,0.02278
7014.84365,0.02205
7012.91491,0.02087
7010.98616,0.01873
7009.05742,0.01866
7007.12867,0.02180
7005.19993,0.02356
7003.27119,0.02087
7001.34244,0.01783
6999.41370,0.01850
6997.48495,0.02116
6995.55621,0.02163
6993.62746,0.02090
6991.69872,0.02117
6989.76997,0.02188
6987.84123,0.02298
6985.91249,0.02426
6983.98374,0.02438
6982.05500,0.02489
6980.12625,0.02519
6978.19751,0.02266
6976.26876,0.02030
6974.34002,0.02163
6972.41127,0.02431
6970.48253,0.02725
6968.55379,0.03057
6966.62504,0.03006
6964.69630,0.02566
6962.76755,0.02352
6960.83881,0.02546
6958.91006,0.02794
6956.98132,0.02687
6955.05257,0.02333
6953.12383,0.02283
6951.19509,0.02570
6949.26634,0.02645
6947.33760,0.02417
6945.40885,0.02278
6943.48011,0.02237
6941.55136,0.02037
6939.62262,0.01867
6937.69387,0.01761
6935.76513,0.01821
6933.83638,0.01919
6931.90764,0.01932
6929.97890,0.02127
6928.05015,0.02411
6926.12141,0.02507
6924.19266,0.02651
6922.26392,0.02700
6920.33517,0.02410
6918.40643,0.02136
6916.47768,0.02132
6914.54894,0.02133
6912.62020,0.01962
6910.69145,0.01767
6908.76271,0.01866
6906.83396,0.02048
6904.90522,0.02017
6902.97647,0.01942
6901.04773,0.02114
6899.11898,0.02343
6897.19024,0.02401
6895.26150,0.02352
6893.33275,0.02330
6891.40401,0.02277
6889.47526,0.02075
6887.54652,0.01757
6885.61777,0.01656
6883.68903,0.01926
6881.76028,0.02313
6879.83154,0.02511
6877.90280,0.02452
6875.97405,0.02169
6874.04531,0.01908
6872.11656,0.01939
6870.18782,0.02151
6868.25907,0.02170
6866.33033,0.02026
6864.40158,0.02012
6862.47284,0.02159
6860.54409,0.02328
6858.61535,0.02420
6856.68661,0.02392
6854.75786,0.02312
6852.82912,0.02203
6850.90037,0.02216
6848.97163,0.02379
6847.04288,0.02569
6845.11414,0.02692
6843.18539,0.02606
6841.25665,0.02379
6839.32791,0.02309
6837.39916,0.02323
6835.47042,0.02155
6833.54167,0.01892
6831.61293,0.01786
6829.68418,0.01779
6827.75544,0.01752
6825.82669,0.01725
6823.89795,0.01785
6821.96921,0.02071
6820.04046,0.02538
6818.11172,0.02779
6816.18297,0.02635
6814.25423,0.02371
6812.32548,0.02154
6810.39674,0.01979
6808.46799,0.02010
6806.53925,0.02296
6804.61051,0.02529
6802.68176,0.02501
6800.75302,0.02426
6798.82427,0.02403
6796.89553,0.02443
6794.96678,0.02468
6793.03804,0.02306
6791.10929,0.02109
6789.18055,0.02112
6787.25180,0.02256
6785.32306,0.02465
6783.39432,0.02590
6781.46557,0.02488
6779.53683,0.02207
6777.60808,0.02135
6775.67934,0.02409
6773.75059,0.02580
6771.82185,0.02416
6769.89310,0.02348
6767.96436,0.02495
6766.03562,0.02426
6764.10687,0.02137
6762.17813,0.01982
6760.24938,0.02010
6758.32064,0.02161
6756.39189,0.02354
6754.46315,0.02456
6752.53440,0.02545
6750.60566,0.02771
6748.67692,0.03002
6746.74817,0.03035
6744.81943,0.02762
6742.89068,0.02350
6740.96194,0.02206
6739.03319,0.02460
6737.10445,0.02720
6735.17570,0.02617
6733.24696,0.02337
6731.31822,0.02257
6729.38947,0.02261
6727.46073,0.02132
6725.53198,0.01937
6723.60324,0.01933
6721.67449,0.01998
6719.74575,0.01940
6717.81700,0.01970
6715.88826,0.02150
6713.95951,0.02258
6712.03077,0.02348
6710.10203,0.02538
6708.17328,0.02633
6706.24454,0.02507
6704.31579,0.02364
6702.38705,0.02293
6700.45830,0.02182
6698.52956,0.01994
6696.60081,0.01941
6694.67207,0.02059
6692.74333,0.02133
6690.81458,0.02150
6688.88584,0.02301
6686.95709,0.02425
6685.02835,0.02436
6683.09960,0.02501
6681.17086,0.02508
6679.24211,0.02441
6677.31337,0.02558
6675.38463,0.02644
6673.45588,0.02540
6671.52714,0.02559
6669.59839,0.02707
6667.66965,0.02639
6665.74090,0.02440
6663.81216,0.02429
6661.88341,0.02466
6659.95467,0.02247
6658.02593,0.01850
6656.09718,0.01712
6654.16844,0.01968
6652.23969,0.02209
6650.31095,0.02247
6648.38220,0.02206
6646.45346,0.02179
6644.52471,0.02172
6642.59597,0.02176
6640.66722,0.02181
6638.73848,0.02206
6636.80974,0.02203
6634.88099,0.02189
6632.95225,0.02203
6631.02350,0.02198
6629.09476,0.02188
6627.16601,0.02204
6625.23727,0.02233
6623.30852,0.02302
6621.37978,0.02255
6619.45104,0.02043
6617.52229,0.01975
6615.59355,0.02165
6613.66480,0.02287
6611.73606,0.02148
6609.80731,0.01944
6607.87857,0.01820
6605.94982,0.01820
6604.02108,0.02011
6602.09234,0.02176
6600.16359,0.02181
6598.23485,0.02115
6596.30610,0.02066
6594.37736,0.02189
6592.44861,0.02471
6590.51987,0.02654
6588.59112,0.02620
6586.66238,0.02358
6584.73364,0.02067
6582.80489,0.02041
6580.87615,0.02173
6578.94740,0.02244
6577.01866,0.02348
6575.08991,0.02549
6573.16117,0.02688
6571.23242,0.02562
6569.30368,0.02261
6567.37493,0.02114
6565.44619,0.02237
6563.51745,0.02347
6561.58870,0.02307
6559.65996,0.02277
6557.73121,0.02150
6555.80247,0.01879
6553.87372,0.01847
6551.94498,0.02086
6550.01623,0.02330
6548.08749,0.02461
6546.15875,0.02463
6544.23000,0.02510
6542.30126,0.02641
6540.37251,0.02568
6538.44377,0.02327
6536.51502,0.02181
6534.58628,0.02186
6532.65753,0.02235
6530.72879,0.02178
6528.80005,0.02054
6526.87130,0.02015
6524.94256,0.01988
6523.01381,0.01891
6521.08507,0.01766
6519.15632,0.01789
6517.22758,0.01994
6515.29883,0.02255
6513.37009,0.02471
6511.44135,0.02510
6509.51260,0.02372
6507.58386,0.02348
6505.65511,0.02531
6503.72637,0.02659
6501.79762,0.02561
6499.86888,0.02406
6497.94013,0.02312
6496.01139,0.02228
6494.08264,0.02077
6492.15390,0.02058
6490.22516,0.02197
6488.29641,0.02369
6486.36767,0.02342
6484.43892,0.02195
6482.51018,0.02158
6480.58143,0.02067
6478.65269,0.01884
6476.72394,0.01948
6474.79520,0.02242
6472.86646,0.02409
6470.93771,0.02312
6469.00897,0.02132
6467.08022,0.01994
6465.15148,0.01900
6463.22273,0.01814
6461.29399,0.01827
6459.36524,0.02034
6457.43650,0.02262
6455.50776,0.02211
6453.57901,0.01991
6451.65027,0.01923
6449.72152,0.02143
6447.79278,0.02355
6445.86403,0.02292
6443.93529,0.02108
6442.00654,0.02065
6440.07780,0.02145
6438.14906,0.02174
6436.22031,0.02065
6434.29157,0.01998
6432.36282,0.02170
6430.43408,0.02425
6428.50533,0.02431
6426.57659,0.02090
6424.64784,0.01722
6422.71910,0.01786
6420.79035,0.02131
6418.86161,0.02252
6416.93287,0.02179
6415.00412,0.02289
6413.07538,0.02529
6411.14663,0.02584
6409.21789,0.02451
6407.28914,0.02460
6405.36040,0.02680
6403.43165,0.02768
6401.50291,0.02532
6399.57417,0.02197
6397.64542,0.01979
6395.71668,0.01888
6393.78793,0.01893
6391.85919,0.02116
6389.93044,0.02462
6388.00170,0.02541
6386.07295,0.02304
6384.14421,0.02114
6382.21547,0.02112
6380.28672,0.02274
6378.35798,0.02500
6376.42923,0.02526
6374.50049,0.02212
6372.57174,0.01775
6370.64300,0.01668
6368.71425,0.01999
6366.78551,0.02291
6364.85677,0.02279
6362.92802,0.02120
6360.99928,0.01951
6359.07053,0.01878
6357.14179,0.01921
6355.21304,0.01961
6353.28430,0.01960
6351.35555,0.02007
6349.42681,0.02069
6347.49806,0.02063
6345.56932,0.02089
6343.64058,0.02105
6341.71183,0.02082
6339.78309,0.02137
6337.85434,0.02262
6335.92560,0.02278
6333.99685,0.02129
6332.06811,0.01928
6330.13936,0.01839
6328.21062,0.01904
6326.28188,0.02132
6324.35313,0.02382
6322.42439,0.02493
6320.49564,0.02593
6318.56690,0.02668
6316.63815,0.02441
6314.70941,0.02073
6312.78066,0.01913
6310.85192,0.01977
6308.92318,0.02110
6306.99443,0.02193
6305.06569,0.02206
6303.13694,0.02171
6301.20820,0.02062
6299.27945,0.01903
6297.35071,0.01808
6295.42196,0.01906
6293.49322,0.02146
6291.56447,0.02357
6289.63573,0.02423
6287.70699,0.02369
6285.77824,0.02361
6283.84950,0.02480
6281.92075,0.02490
6279.99201,0.02308
6278.06326,0.02182
6276.13452,0.02251
6274.20577,0.02349
6272.27703,0.02311
6270.34829,0.02197
6268.41954,0.02173
6266.49080,0.02213
6264.56205,0.02207
6262.63331,0.02170
6260.70456,0.02158
6258.77582,0.02180
6256.84707,0.02227
6254.91833,0.02307
6252.98959,0.02293
6251.06084,0.02102
6249.13210,0.02003
6247.20335,0.02120
6245.27461,0.02229
6243.34586,0.02224
6241.41712,0.02148
6239.48837,0.02027
6237.55963,0.01941
6235.63089,0.02052
6233.70214,0.02271
6231.77340,0.02329
6229.84465,0.02226
6227.91591,0.02065
6225.98716,0.01982
6224.05842,0.02079
6222.12967,0.02162
6220.20093,0.02045
6218.27218,0.01908
6216.34344,0.01976
6214.41470,0.02086
6212.48595,0.02050
6210.55721,0.02071
6208.62846,0.02211
6206.69972,0.02316
6204.77097,0.02380
6202.84223,0.02404
6200.91348,0.02372
6198.98474,0.02440
6197.05600,0.02632
6195.12725,0.02672
6193.19851,0.02461
6191.26976,0.02316
6189.34102,0.02442
6187.41227,0.02612
6185.48353,0.02585
6183.55478,0.02470
6181.62604,0.02361
6179.69730,0.02239
6177.76855,0.02195
6175.83981,0.02196
6173.91106,0.02171
6171.98232,0.02195
6170.05357,0.02231
6168.12483,0.02232
6166.19608,0.02261
6164.26734,0.02399
6162.33860,0.02489
6160.40985,0.02368
6158.48111,0.02297
6156.55236,0.02440
6154.62362,0.02567
6152.69487,0.02501
6150.76613,0.02282
6148.83738,0.02101
6146.90864,0.02066
6144.97989,0.02154
6143.05115,0.02307
6141.12241,0.02367
6139.19366,0.02289
6137.26492,0.02254
6135.33617,0.02283
6133.40743,0.02287
6131.47868,0.02331
6129.54994,0.02410
6127.62119,0.02454
6125.69245,0.02488
6123.76371,0.02460
6121.83496,0.02374
6119.90622,0.02369
6117.97747,0.02417
6116.04873,0.02346
6114.11998,0.02214
6112.19124,0.02194
6110.26249,0.02255
6108.33375,0.02289
6106.40501,0.02296
6104.47626,0.02286
6102.54752,0.02181
6100.61877,0.01933
6098.69003,0.01786
6096.76128,0.01943
6094.83254,0.02194
6092.90379,0.02315
6090.97505,0.02303
6089.04631,0.02263
6087.11756,0.02282
6085.18882,0.02231
6083.26007,0.02072
6081.33133,0.02028
6079.40258,0.02141
6077.47384,0.02224
6075.54509,0.02180
6073.61635,0.02100
6071.68760,0.02120
6069.75886,0.02224
6067.83012,0.02318
6065.90137,0.02311
6063.97263,0.02229
6062.04388,0.02176
6060.11514,0.02227
6058.18639,0.02373
6056.25765,0.02470
6054.32890,0.02373
6052.40016,0.02232
6050.47142,0.02256
6048.54267,0.02292
6046.61393,0.02169
6044.68518,0.02054
6042.75644,0.02104
6040.82769,0.02235
6038.89895,0.02270
6036.97020,0.02243
6035.04146,0.02308
6033.11272,0.02375
6031.18397,0.02281
6029.25523,0.02121
6027.32648,0.02047
6025.39774,0.02025
6023.46899,0.01953
6021.54025,0.01964
6019.61150,0.02194
6017.68276,0.02415
6015.75402,0.02377
6013.82527,0.02227
6011.89653,0.02149
6009.96778,0.02021
6008.03904,0.01799
6006.11029,0.01761
6004.18155,0.02004
6002.25280,0.02216
6000.32406,0.02207
5998.39531,0.02135
5996.46657,0.02085
5994.53783,0.01999
5992.60908,0.01929
5990.68034,0.01976
5988.75159,0.02101
5986.82285,0.02221
5984.89410,0.02240
5982.96536,0.02183
5981.03661,0.02143
5979.10787,0.02101
5977.17913,0.01989
5975.25038,0.01823
5973.32164,0.01697
5971.39289,0.01693
5969.46415,0.01800
5967.53540,0.01953
5965.60666,0.02047
5963.67791,0.02147
5961.74917,0.02300
5959.82043,0.02356
5957.89168,0.02272
5955.96294,0.02134
5954.03419,0.02008
5952.10545,0.02005
5950.17670,0.02137
5948.24796,0.02215
5946.31921,0.02167
5944.39047,0.02123
5942.46173,0.02023
5940.53298,0.01856
5938.60424,0.01834
5936.67549,0.01982
5934.74675,0.02127
5932.81800,0.02216
5930.88926,0.02253
5928.96051,0.02225
5927.03177,0.02196
5925.10302,0.02202
5923.17428,0.02124
5921.24554,0.01992
5919.31679,0.02013
5917.38805,0.02201
5915.45930,0.02361
5913.53056,0.02377
5911.60181,0.02270
5909.67307,0.02157
5907.74432,0.02126
5905.81558,0.02130
5903.88684,0.02140
5901.95809,0.02211
5900.02935,0.02307
5898.10060,0.02337
5896.17186,0.02288
5894.24311,0.02217
5892.31437,0.02217
5890.38562,0.02306
5888.45688,0.02347
5886.52814,0.02291
5884.59939,0.02221
5882.67065,0.02209
5880.74190,0.02231
5878.81316,0.02191
5876.88441,0.02069
5874.95567,0.01929
5873.02692,0.01868
5871.09818,0.01918
5869.16944,0.01928
5867.24069,0.01908
5865.31195,0.02040
5863.38320,0.02223
5861.45446,0.02263
5859.52571,0.02251
5857.59697,0.02281
5855.66822,0.02295
5853.73948,0.02219
5851.81073,0.02097
5849.88199,0.02063
5847.95325,0.02123
5846.02450,0.02178
5844.09576,0.02203
5842.16701,0.02152
5840.23827,0.01972
5838.30952,0.01794
5836.38078,0.01807
5834.45203,0.01901
5832.52329,0.01891
5830.59455,0.01843
5828.66580,0.01869
5826.73706,0.01972
5824.80831,0.02119
5822.87957,0.02246
5820.95082,0.02343
5819.02208,0.02409
5817.09333,0.02386
5815.16459,0.02275
5813.23585,0.02225
5811.30710,0.02322
5809.37836,0.02472
5807.44961,0.02531
5805.52087,0.02449
5803.59212,0.02311
5801.66338,0.02253
5799.73463,0.02290
5797.80589,0.02266
5795.87715,0.02120
5793.94840,0.02044
5792.01966,0.02125
5790.09091,0.02256
5788.16217,0.02386
5786.23342,0.02490
5784.30468,0.02468
5782.37593,0.02349
5780.44719,0.02270
5778.51844,0.02242
5776.58970,0.02257
5774.66096,0.02331
5772.73221,0.02407
5770.80347,0.02430
5768.87472,0.02377
5766.94598,0.02306
5765.01723,0.02287
5763.08849,0.02242
5761.15974,0.02153
5759.23100,0.02146
5757.30226,0.02165
5755.37351,0.02114
5753.44477,0.02091
5751.51602,0.02140
5749.58728,0.02174
5747.65853,0.02176
5745.72979,0.02189
5743.80104,0.02227
5741.87230,0.02215
5739.94356,0.02135
5738.01481,0.02097
5736.08607,0.02133
5734.15732,0.02151
5732.22858,0.02147
5730.29983,0.02184
5728.37109,0.02257
5726.44234,0.02335
5724.51360,0.02376
5722.58486,0.02329
5720.65611,0.02190
5718.72737,0.02051
5716.79862,0.02089
5714.86988,0.02281
5712.94113,0.02382
5711.01239,0.02312
5709.08364,0.02253
5707.15490,0.02273
5705.22615,0.02320
5703.29741,0.02316
5701.36867,0.02244
5699.43992,0.02246
5697.51118,0.02332
5695.58243,0.02344
5693.65369,0.02275
5691.72494,0.02200
5689.79620,0.02129
5687.86745,0.02090
5685.93871,0.02135
5684.00997,0.02149
5682.08122,0.02053
5680.15248,0.02032
5678.22373,0.02140
5676.29499,0.02199
5674.36624,0.02201
5672.43750,0.02225
5670.50875,0.02226
5668.58001,0.02170
5666.65127,0.02106
5664.72252,0.02061
5662.79378,0.02047
5660.86503,0.02064
5658.93629,0.02100
5657.00754,0.02126
5655.07880,0.02171
5653.15005,0.02277
5651.22131,0.02351
5649.29257,0.02301
5647.36382,0.02210
5645.43508,0.02163
5643.50633,0.02137
5641.57759,0.02121
5639.64884,0.02148
5637.72010,0.02240
5635.79135,0.02369
5633.86261,0.02442
5631.93386,0.02391
5630.00512,0.02223
5628.07638,0.02069
5626.14763,0.02097
5624.21889,0.02289
5622.29014,0.02386
5620.36140,0.02228
5618.43265,0.02032
5616.50391,0.02074
5614.57516,0.02223
5612.64642,0.02270
5610.71768,0.02274
5608.78893,0.02261
5606.86019,0.02153
5604.93144,0.02050
5603.00270,0.02105
5601.07395,0.02243
5599.14521,0.02302
5597.21646,0.02269
5595.28772,0.02224
5593.35898,0.02196
5591.43023,0.02169
5589.50149,0.02181
5587.57274,0.02267
5585.64400,0.02387
5583.71525,0.02425
5581.78651,0.02340
5579.85776,0.02253
5577.92902,0.02217
5576.00028,0.02148
5574.07153,0.02113
5572.14279,0.02192
5570.21404,0.02243
5568.28530,0.02173
5566.35655,0.02119
5564.42781,0.02159
5562.49906,0.02197
5560.57032,0.02189
5558.64157,0.02160
5556.71283,0.02137
5554.78409,0.02218
5552.85534,0.02336
5550.92660,0.02327
5548.99785,0.02210
5547.06911,0.02080
5545.14036,0.01986
5543.21162,0.01969
5541.28287,0.01997
5539.35413,0.02009
5537.42539,0.02004
5535.49664,0.02018
5533.56790,0.02065
5531.63915,0.02129
5529.71041,0.02185
5527.78166,0.02223
5525.85292,0.02215
5523.92417,0.02155
5521.99543,0.02126
5520.06669,0.02155
5518.13794,0.02136
5516.20920,0.02049
5514.28045,0.02031
5512.35171,0.02126
5510.42296,0.02206
5508.49422,0.02198
5506.56547,0.02179
5504.63673,0.02192
5502.70799,0.02186
5500.77924,0.02134
5498.85050,0.02085
5496.92175,0.02100
5494.99301,0.02158
5493.06426,0.02198
5491.13552,0.02160
5489.20677,0.02067
5487.27803,0.02029
5485.34928,0.02065
5483.42054,0.02126
5481.49180,0.02191
5479.56305,0.02191
5477.63431,0.02157
5475.70556,0.02177
5473.77682,0.02192
5471.84807,0.02170
5469.91933,0.02156
5467.99058,0.02139
5466.06184,0.02125
5464.13310,0.02129
5462.20435,0.02160
5460.27561,0.02239
5458.34686,0.02285
5456.41812,0.02193
5454.48937,0.02117
5452.56063,0.02200
5450.63188,0.02294
5448.70314,0.02297
5446.77440,0.02256
5444.84565,0.02179
5442.91691,0.02162
5440.98816,0.02278
5439.05942,0.02369
5437.13067,0.02322
5435.20193,0.02220
5433.27318,0.02169
5431.34444,0.02221
5429.41569,0.02302
5427.48695,0.02338
5425.55821,0.02352
5423.62946,0.02310
5421.70072,0.02216
5419.77197,0.02195
5417.84323,0.02263
5415.91448,0.02354
5413.98574,0.02410
5412.05699,0.02329
5410.12825,0.02146
5408.19951,0.02056
5406.27076,0.02114
5404.34202,0.02215
5402.41327,0.02276
5400.48453,0.02305
5398.55578,0.02315
5396.62704,0.02224
5394.69829,0.02074
5392.76955,0.02068
5390.84081,0.02186
5388.91206,0.02288
5386.98332,0.02346
5385.05457,0.02350
5383.12583,0.02294
5381.19708,0.02267
5379.26834,0.02303
5377.33959,0.02312
5375.41085,0.02267
5373.48211,0.02244
5371.55336,0.02254
5369.62462,0.02268
5367.69587,0.02236
5365.76713,0.02135
5363.83838,0.02068
5361.90964,0.02116
5359.98089,0.02186
5358.05215,0.02198
5356.12340,0.02243
5354.19466,0.02339
5352.26592,0.02345
5350.33717,0.02262
5348.40843,0.02197
5346.47968,0.02174
5344.55094,0.02147
5342.62219,0.02108
5340.69345,0.02126
5338.76470,0.02221
5336.83596,0.02285
5334.90722,0.02234
5332.97847,0.02121
5331.04973,0.02090
5329.12098,0.02192
5327.19224,0.02313
5325.26349,0.02350
5323.33475,0.02333
5321.40600,0.02328
5319.47726,0.02372
5317.54852,0.02419
5315.61977,0.02384
5313.69103,0.02285
5311.76228,0.02198
5309.83354,0.02145
5307.90479,0.02117
5305.97605,0.02102
5304.04730,0.02093
5302.11856,0.02132
5300.18982,0.02224
5298.26107,0.02272
5296.33233,0.02237
5294.40358,0.02208
5292.47484,0.02225
5290.54609,0.02228
5288.61735,0.02191
5286.68860,0.02166
5284.75986,0.02160
5282.83111,0.02143
5280.90237,0.02153
5278.97363,0.02232
5277.04488,0.02315
5275.11614,0.02316
5273.18739,0.02261
5271.25865,0.02217
5269.32990,0.02216
5267.40116,0.02211
5265.47241,0.02166
5263.54367,0.02176
5261.61493,0.02276
5259.68618,0.02329
5257.75744,0.02300
5255.82869,0.02289
5253.89995,0.02295
5251.97120,0.02238
5250.04246,0.02139
5248.11371,0.02095
5246.18497,0.02153
5244.25623,0.02224
5242.32748,0.02196
5240.39874,0.02140
5238.46999,0.02151
5236.54125,0.02178
5234.61250,0.02172
5232.68376,0.02162
5230.75501,0.02187
5228.82627,0.02202
5226.89753,0.02179
5224.96878,0.02203
5223.04004,0.02259
5221.11129,0.02257
5219.18255,0.02246
5217.25380,0.02280
5215.32506,0.02277
5213.39631,0.02215
5211.46757,0.02207
5209.53882,0.02276
5207.61008,0.02316
5205.68134,0.02268
5203.75259,0.02223
5201.82385,0.02238
5199.89510,0.02254
5197.96636,0.02244
5196.03761,0.02232
5194.10887,0.02239
5192.18012,0.02294
5190.25138,0.02380
5188.32264,0.02421
5186.39389,0.02391
5184.46515,0.02338
5182.53640,0.02300
5180.60766,0.02275
5178.67891,0.02271
5176.75017,0.02281
5174.82142,0.02294
5172.89268,0.02316
5170.96394,0.02344
5169.03519,0.02377
5167.10645,0.02389
5165.17770,0.02376
5163.24896,0.02329
5161.32021,0.02258
5159.39147,0.02237
5157.46272,0.02258
5155.53398,0.02252
5153.60524,0.02255
5151.67649,0.02256
5149.74775,0.02206
5147.81900,0.02135
5145.89026,0.02083
5143.96151,0.02099
5142.03277,0.02187
5140.10402,0.02242
5138.17528,0.02235
5136.24653,0.02216
5134.31779,0.02183
5132.38905,0.02134
5130.46030,0.02127
5128.53156,0.02176
5126.60281,0.02220
5124.67407,0.02279
5122.74532,0.02374
5120.81658,0.02379
5118.88783,0.02264
5116.95909,0.02187
5115.03035,0.02209
5113.10160,0.02236
5111.17286,0.02227
5109.24411,0.02213
5107.31537,0.02219
5105.38662,0.02245
5103.45788,0.02267
5101.52913,0.02296
5099.60039,0.02315
5097.67165,0.02277
5095.74290,0.02220
5093.81416,0.02226
5091.88541,0.02302
5089.95667,0.02330
5088.02792,0.02223
5086.09918,0.02104
5084.17043,0.02092
5082.24169,0.02139
5080.31295,0.02180
5078.38420,0.02205
5076.45546,0.02221
5074.52671,0.02261
5072.59797,0.02312
5070.66922,0.02291
5068.74048,0.02236
5066.81173,0.02241
5064.88299,0.02262
5062.95424,0.02257
5061.02550,0.02267
5059.09676,0.02280
5057.16801,0.02251
5055.23927,0.02200
5053.31052,0.02174
5051.38178,0.02164
5049.45303,0.02163
5047.52429,0.02201
5045.59554,0.02249
5043.66680,0.02243
5041.73806,0.02230
5039.80931,0.02282
5037.88057,0.02338
5035.95182,0.02340
5034.02308,0.02329
5032.09433,0.02327
5030.16559,0.02299
5028.23684,0.02227
5026.30810,0.02152
5024.37936,0.02119
5022.45061,0.02123
5020.52187,0.02130
5018.59312,0.02149
5016.66438,0.02222
5014.73563,0.02299
5012.80689,0.02300
5010.87814,0.02270
5008.94940,0.02264
5007.02066,0.02267
5005.09191,0.02273
5003.16317,0.02267
5001.23442,0.02226
4999.30568,0.02170
4997.37693,0.02142
4995.44819,0.02193
4993.51944,0.02248
4991.59070,0.02209
4989.66195,0.02165
4987.73321,0.02189
4985.80447,0.02209
4983.87572,0.02195
4981.94698,0.02189
4980.01823,0.02213
4978.08949,0.02234
4976.16074,0.02207
4974.23200,0.02151
4972.30325,0.02134
4970.37451,0.02163
4968.44577,0.02196
4966.51702,0.02225
4964.58828,0.02250
4962.65953,0.02224
4960.73079,0.02160
4958.80204,0.02155
4956.87330,0.02212
4954.94455,0.02235
4953.01581,0.02209
4951.08707,0.02205
4949.15832,0.02250
4947.22958,0.02305
4945.30083,0.02341
4943.37209,0.02359
4941.44334,0.02353
4939.51460,0.02296
4937.58585,0.02253
4935.65711,0.02315
4933.72837,0.02407
4931.79962,0.02420
4929.87088,0.02383
4927.94213,0.02330
4926.01339,0.02283
4924.08464,0.02267
4922.15590,0.02244
4920.22715,0.02193
4918.29841,0.02187
4916.36966,0.02249
4914.44092,0.02281
4912.51218,0.02257
4910.58343,0.02246
4908.65469,0.02214
4906.72594,0.02139
4904.79720,0.02099
4902.86845,0.02122
4900.93971,0.02176
4899.01096,0.02219
4897.08222,0.02211
4895.15348,0.02192
4893.22473,0.02230
4891.29599,0.02287
4889.36724,0.02305
4887.43850,0.02285
4885.50975,0.02244
4883.58101,0.02215
4881.65226,0.02213
4879.72352,0.02211
4877.79478,0.02203
4875.86603,0.02208
4873.93729,0.02229
4872.00854,0.02242
4870.07980,0.02219
4868.15105,0.02172
4866.22231,0.02151
4864.29356,0.02180
4862.36482,0.02203
4860.43608,0.02185
4858.50733,0.02181
4856.57859,0.02231
4854.64984,0.02295
4852.72110,0.02326
4850.79235,0.02306
4848.86361,0.02257
4846.93486,0.02237
4845.00612,0.02249
4843.07737,0.02234
4841.14863,0.02203
4839.21989,0.02224
4837.29114,0.02271
4835.36240,0.02274
4833.43365,0.02264
4831.50491,0.02259
4829.57616,0.02210
4827.64742,0.02160
4825.71867,0.02187
4823.78993,0.02262
4821.86119,0.02302
4819.93244,0.02257
4818.00370,0.02190
4816.07495,0.02181
4814.14621,0.02197
4812.21746,0.02195
4810.28872,0.02193
4808.35997,0.02200
4806.43123,0.02242
4804.50249,0.02307
4802.57374,0.02330
4800.64500,0.02305
4798.71625,0.02274
4796.78751,0.02239
4794.85876,0.02194
4792.93002,0.02170
4791.00127,0.02172
4789.07253,0.02170
4787.14379,0.02184
4785.21504,0.02248
4783.28630,0.02303
4781.35755,0.02298
4779.42881,0.02267
4777.50006,0.02259
4775.57132,0.02288
4773.64257,0.02307
4771.71383,0.02306
4769.78508,0.02322
4767.85634,0.02332
4765.92760,0.02274
4763.99885,0.02200
4762.07011,0.02218
4760.14136,0.02294
4758.21262,0.02319
4756.28387,0.02294
4754.35513,0.02283
4752.42638,0.02289
4750.49764,0.02248
4748.56890,0.02193
4746.64015,0.02190
4744.71141,0.02223
4742.78266,0.02253
4740.85392,0.02264
4738.92517,0.02263
4736.99643,0.02262
4735.06768,0.02261
4733.13894,0.02273
4731.21020,0.02291
4729.28145,0.02296
4727.35271,0.02298
4725.42396,0.02316
4723.49522,0.02319
4721.56647,0.02274
4719.63773,0.02221
4717.70898,0.02225
4715.78024,0.02267
4713.85150,0.02314
4711.92275,0.02358
4709.99401,0.02373
4708.06526,0.02348
4706.13652,0.02325
4704.20777,0.02320
4702.27903,0.02314
4700.35028,0.02298
4698.42154,0.02281
4696.49279,0.02285
4694.56405,0.02305
4692.63531,0.02302
4690.70656,0.02291
4688.77782,0.02298
4686.84907,0.02306
4684.92033,0.02306
4682.99158,0.02301
4681.06284,0.02290
4679.13409,0.02279
4677.20535,0.02250
4675.27661,0.02210
4673.34786,0.02216
4671.41912,0.02269
4669.49037,0.02304
4667.56163,0.02284
4665.63288,0.02226
4663.70414,0.02204
4661.77539,0.02242
4659.84665,0.02260
4657.91791,0.02224
4655.98916,0.02187
4654.06042,0.02196
4652.13167,0.02232
4650.20293,0.02241
4648.27418,0.02227
4646.34544,0.02238
4644.41669,0.02268
4642.48795,0.02284
4640.55921,0.02286
4638.63046,0.02278
4636.70172,0.02245
4634.77297,0.02201
4632.84423,0.02197
4630.91548,0.02237
4628.98674,0.02275
4627.05799,0.02283
4625.12925,0.02277
4623.20050,0.02287
4621.27176,0.02305
4619.34302,0.02303
4617.41427,0.02301
4615.48553,0.02317
4613.55678,0.02319
4611.62804,0.02298
4609.69929,0.02290
4607.77055,0.02290
4605.84180,0.02276
4603.91306,0.02275
4601.98432,0.02275
4600.05557,0.02231
4598.12683,0.02199
4596.19808,0.02218
4594.26934,0.02230
4592.34059,0.02217
4590.41185,0.02209
4588.48310,0.02204
4586.55436,0.02212
4584.62562,0.02243
4582.69687,0.02272
4580.76813,0.02275
4578.83938,0.02260
4576.91064,0.02247
4574.98189,0.02242
4573.05315,0.02242
4571.12440,0.02241
4569.19566,0.02260
4567.26692,0.02318
4565.33817,0.02385
4563.40943,0.02403
4561.48068,0.02347
4559.55194,0.02295
4557.62319,0.02308
4555.69445,0.02328
4553.76570,0.02317
4551.83696,0.02299
4549.90821,0.02275
4547.97947,0.02257
4546.05073,0.02249
4544.12198,0.02202
4542.19324,0.02143
4540.26449,0.02165
4538.33575,0.02245
4536.40700,0.02279
4534.47826,0.02254
4532.54951,0.02233
4530.62077,0.02260
4528.69203,0.02305
4526.76328,0.02314
4524.83454,0.02291
4522.90579,0.02274
4520.97705,0.02267
4519.04830,0.02260
4517.11956,0.02285
4515.19081,0.02330
4513.26207,0.02329
4511.33333,0.02259
4509.40458,0.02177
4507.47584,0.02143
4505.54709,0.02158
4503.61835,0.02191
4501.68960,0.02247
4499.76086,0.02303
4497.83211,0.02326
4495.90337,0.02334
4493.97462,0.02338
4492.04588,0.02313
4490.11714,0.02279
4488.18839,0.02261
4486.25965,0.02244
4484.33090,0.02228
4482.40216,0.02214
4480.47341,0.02207
4478.54467,0.02230
4476.61592,0.02274
4474.68718,0.02305
4472.75844,0.02309
4470.82969,0.02290
4468.90095,0.02263
4466.97220,0.02254
4465.04346,0.02259
4463.11471,0.02260
4461.18597,0.02258
4459.25722,0.02250
4457.32848,0.02235
4455.39974,0.02231
4453.47099,0.02249
4451.54225,0.02263
4449.61350,0.02249
4447.68476,0.02233
4445.75601,0.02245
4443.82727,0.02279
4441.89852,0.02306
4439.96978,0.02312
4438.04104,0.02319
4436.11229,0.02337
4434.18355,0.02347
4432.25480,0.02346
4430.32606,0.02339
4428.39731,0.02334
4426.46857,0.02334
4424.53982,0.02321
4422.61108,0.02286
4420.68233,0.02269
4418.75359,0.02292
4416.82485,0.02324
4414.89610,0.02304
4412.96736,0.02222
4411.03861,0.02152
4409.10987,0.02142
4407.18112,0.02166
4405.25238,0.02203
4403.32363,0.02247
4401.39489,0.02277
4399.46615,0.02269
4397.53740,0.02238
4395.60866,0.02239
4393.67991,0.02277
4391.75117,0.02285
4389.82242,0.02246
4387.89368,0.02233
4385.96493,0.02277
4384.03619,0.02325
4382.10745,0.02343
4380.17870,0.02338
4378.24996,0.02310
4376.32121,0.02274
4374.39247,0.02249
4372.46372,0.02262
4370.53498,0.02317
4368.60623,0.02361
4366.67749,0.02351
4364.74875,0.02315
4362.82000,0.02289
4360.89126,0.02274
4358.96251,0.02258
4357.03377,0.02234
4355.10502,0.02227
4353.17628,0.02235
4351.24753,0.02235
4349.31879,0.02250
4347.39004,0.02281
4345.46130,0.02301
4343.53256,0.02320
4341.60381,0.02324
4339.67507,0.02277
4337.74632,0.02219
4335.81758,0.02218
4333.88883,0.02252
4331.96009,0.02262
4330.03134,0.02237
4328.10260,0.02196
4326.17386,0.02202
4324.24511,0.02259
4322.31637,0.02279
4320.38762,0.02258
4318.45888,0.02260
4316.53013,0.02258
4314.60139,0.02226
4312.67264,0.02217
4310.74390,0.02242
4308.81516,0.02257
4306.88641,0.02236
4304.95767,0.02210
4303.02892,0.02238
4301.10018,0.02291
4299.17143,0.02301
4297.24269,0.02280
4295.31394,0.02272
4293.38520,0.02282
4291.45646,0.02291
4289.52771,0.02270
4287.59897,0.02228
4285.67022,0.02226
4283.74148,0.02287
4281.81273,0.02338
4279.88399,0.02331
4277.95524,0.02314
4276.02650,0.02326
4274.09775,0.02335
4272.16901,0.02317
4270.24027,0.02304
4268.31152,0.02315
4266.38278,0.02327
4264.45403,0.02332
4262.52529,0.02337
4260.59654,0.02327
4258.66780,0.02303
4256.73905,0.02292
4254.81031,0.02309
4252.88157,0.02323
4250.95282,0.02304
4249.02408,0.02276
4247.09533,0.02267
4245.16659,0.02267
4243.23784,0.02253
4241.30910,0.02231
4239.38035,0.02215
4237.45161,0.02240
4235.52287,0.02327
4233.59412,0.02403
4231.66538,0.02396
4229.73663,0.02353
4227.80789,0.02333
4225.87914,0.02320
4223.95040,0.02289
4222.02165,0.02278
4220.09291,0.02299
4218.16417,0.02285
4216.23542,0.02245
4214.30668,0.02267
4212.37793,0.02338
4210.44919,0.02375
4208.52044,0.02367
4206.59170,0.02356
4204.66295,0.02355
4202.73421,0.02350
4200.80546,0.02328
4198.87672,0.02303
4196.94798,0.02290
4195.01923,0.02278
4193.09049,0.02259
4191.16174,0.02255
4189.23300,0.02275
4187.30425,0.02301
4185.37551,0.02317
4183.44676,0.02300
4181.51802,0.02250
4179.58928,0.02226
4177.66053,0.02257
4175.73179,0.02296
4173.80304,0.02310
4171.87430,0.02322
4169.94555,0.02358
4168.01681,0.02387
4166.08806,0.02369
4164.15932,0.02330
4162.23058,0.02312
4160.30183,0.02308
4158.37309,0.02305
4156.44434,0.02310
4154.51560,0.02316
4152.58685,0.02315
4150.65811,0.02308
4148.72936,0.02311
4146.80062,0.02340
4144.87188,0.02359
4142.94313,0.02333
4141.01439,0.02291
4139.08564,0.02262
4137.15690,0.02251
4135.22815,0.02286
4133.29941,0.02342
4131.37066,0.02346
4129.44192,0.02315
4127.51317,0.02283
4125.58443,0.02252
4123.65569,0.02263
4121.72694,0.02305
4119.79820,0.02316
4117.86945,0.02326
4115.94071,0.02379
4114.01196,0.02427
4112.08322,0.02451
4110.15447,0.02464
4108.22573,0.02448
4106.29699,0.02413
4104.36824,0.02394
4102.43950,0.02370
4100.51075,0.02308
4098.58201,0.02260
4096.65326,0.02272
4094.72452,0.02312
4092.79577,0.02349
4090.86703,0.02373
4088.93829,0.02377
4087.00954,0.02373
4085.08080,0.02353
4083.15205,0.02303
4081.22331,0.02270
4079.29456,0.02299
4077.36582,0.02364
4075.43707,0.02395
4073.50833,0.02352
4071.57959,0.02295
4069.65084,0.02290
4067.72210,0.02304
4065.79335,0.02314
4063.86461,0.02343
4061.93586,0.02381
4060.00712,0.02387
4058.07837,0.02355
4056.14963,0.02318
4054.22088,0.02301
4052.29214,0.02299
4050.36340,0.02305
4048.43465,0.02315
4046.50591,0.02301
4044.57716,0.02259
4042.64842,0.02238
4040.71967,0.02255
4038.79093,0.02271
4036.86218,0.02271
4034.93344,0.02274
4033.00470,0.02306
4031.07595,0.02341
4029.14721,0.02348
4027.21846,0.02342
4025.28972,0.02332
4023.36097,0.02319
4021.43223,0.02324
4019.50348,0.02341
4017.57474,0.02333
4015.64600,0.02314
4013.71725,0.02311
4011.78851,0.02297
4009.85976,0.02270
4007.93102,0.02275
4006.00227,0.02306
4004.07353,0.02322
4002.14478,0.02321
4000.21604,0.02321
3998.28730,0.02327
3996.35855,0.02337
3994.42981,0.02355
3992.50106,0.02365
3990.57232,0.02345
3988.64357,0.02311
3986.71483,0.02288
3984.78608,0.02275
3982.85734,0.02275
3980.92859,0.02277
3978.99985,0.02287
3977.07111,0.02323
3975.14236,0.02350
3973.21362,0.02333
3971.28487,0.02309
3969.35613,0.02323
3967.42738,0.02363
3965.49864,0.02387
3963.56989,0.02365
3961.64115,0.02322
3959.71241,0.02308
3957.78366,0.02314
3955.85492,0.02303
3953.92617,0.02299
3951.99743,0.02320
3950.06868,0.02320
3948.13994,0.02287
3946.21119,0.02269
3944.28245,0.02278
3942.35371,0.02272
3940.42496,0.02245
3938.49622,0.02234
3936.56747,0.02235
3934.63873,0.02236
3932.70998,0.02248
3930.78124,0.02274
3928.85249,0.02304
3926.92375,0.02317
3924.99501,0.02305
3923.06626,0.02294
3921.13752,0.02296
3919.20877,0.02291
3917.28003,0.02284
3915.35128,0.02305
3913.42254,0.02326
3911.49379,0.02331
3909.56505,0.02343
3907.63630,0.02347
3905.70756,0.02328
3903.77882,0.02296
3901.85007,0.02279
3899.92133,0.02304
3897.99258,0.02355
3896.06384,0.02376
3894.13509,0.02372
3892.20635,0.02376
3890.27760,0.02362
3888.34886,0.02317
3886.42012,0.02288
3884.49137,0.02290
3882.56263,0.02282
3880.63388,0.02257
3878.70514,0.02258
3876.77639,0.02299
3874.84765,0.02350
3872.91890,0.02372
3870.99016,0.02365
3869.06142,0.02378
3867.13267,0.02400
3865.20393,0.02388
3863.27518,0.02364
3861.34644,0.02358
3859.41769,0.02356
3857.48895,0.02362
3855.56020,0.02371
3853.63146,0.02352
3851.70272,0.02328
3849.77397,0.02333
3847.84523,0.02344
3845.91648,0.02361
3843.98774,0.02390
3842.05899,0.02412
3840.13025,0.02406
3838.20150,0.02377
3836.27276,0.02348
3834.34401,0.02335
3832.41527,0.02326
3830.48653,0.02325
3828.55778,0.02346
3826.62904,0.02364
3824.70029,0.02362
3822.77155,0.02358
3820.84280,0.02338
3818.91406,0.02300
3816.98531,0.02276
3815.05657,0.02275
3813.12783,0.02282
3811.19908,0.02295
3809.27034,0.02299
3807.34159,0.02286
3805.41285,0.02309
3803.48410,0.02352
3801.55536,0.02337
3799.62661,0.02297
3797.69787,0.02290
3795.76913,0.02295
3793.84038,0.02312
3791.91164,0.02354
3789.98289,0.02384
3788.05415,0.02367
3786.12540,0.02322
3784.19666,0.02289
3782.26791,0.02285
3780.33917,0.02299
3778.41043,0.02300
3776.48168,0.02286
3774.55294,0.02293
3772.62419,0.02322
3770.69545,0.02349
3768.76670,0.02353
3766.83796,0.02323
3764.90921,0.02299
3762.98047,0.02315
3761.05172,0.02334
3759.12298,0.02315
3757.19424,0.02292
3755.26549,0.02302
3753.33675,0.02315
3751.40800,0.02328
3749.47926,0.02371
3747.55051,0.02404
3745.62177,0.02397
3743.69302,0.02375
3741.76428,0.02364
3739.83554,0.02367
3737.90679,0.02373
3735.97805,0.02360
3734.04930,0.02330
3732.12056,0.02328
3730.19181,0.02358
3728.26307,0.02377
3726.33432,0.02391
3724.40558,0.02408
3722.47684,0.02388
3720.54809,0.02336
3718.61935,0.02313
3716.69060,0.02319
3714.76186,0.02309
3712.83311,0.02281
3710.90437,0.02263
3708.97562,0.02273
3707.04688,0.02291
3705.11814,0.02292
3703.18939,0.02277
3701.26065,0.02272
3699.33190,0.02286
3697.40316,0.02311
3695.47441,0.02330
3693.54567,0.02319
3691.61692,0.02292
3689.68818,0.02277
3687.75943,0.02285
3685.83069,0.02310
3683.90195,0.02335
3681.97320,0.02336
3680.04446,0.02313
3678.11571,0.02288
3676.18697,0.02277
3674.25822,0.02276
3672.32948,0.02271
3670.40073,0.02263
3668.47199,0.02252
3666.54325,0.02246
3664.61450,0.02263
3662.68576,0.02296
3660.75701,0.02308
3658.82827,0.02291
3656.89952,0.02270
3654.97078,0.02264
3653.04203,0.02283
3651.11329,0.02325
3649.18455,0.02354
3647.25580,0.02341
3645.32706,0.02318
3643.39831,0.02303
3641.46957,0.02298
3639.54082,0.02308
3637.61208,0.02316
3635.68333,0.02298
3633.75459,0.02260
3631.82584,0.02220
3629.89710,0.02188
3627.96836,0.02186
3626.03961,0.02210
3624.11087,0.02229
3622.18212,0.02239
3620.25338,0.02250
3618.32463,0.02264
3616.39589,0.02277
3614.46714,0.02282
3612.53840,0.02274
3610.60966,0.02247
3608.68091,0.02197
3606.75217,0.02179
3604.82342,0.02211
3602.89468,0.02239
3600.96593,0.02230
3599.03719,0.02209
3597.10844,0.02213
3595.17970,0.02229
3593.25096,0.02229
3591.32221,0.02221
3589.39347,0.02219
3587.46472,0.02238
3585.53598,0.02270
3583.60723,0.02268
3581.67849,0.02229
3579.74974,0.02207
3577.82100,0.02211
3575.89226,0.02200
3573.96351,0.02193
3572.03477,0.02215
3570.10602,0.02231
3568.17728,0.02223
3566.24853,0.02214
3564.31979,0.02210
3562.39104,0.02206
3560.46230,0.02202
3558.53355,0.02189
3556.60481,0.02160
3554.67607,0.02128
3552.74732,0.02108
3550.81858,0.02087
3548.88983,0.02073
3546.96109,0.02092
3545.03234,0.02134
3543.10360,0.02154
3541.17485,0.02151
3539.24611,0.02164
3537.31737,0.02179
3535.38862,0.02179
3533.45988,0.02187
3531.53113,0.02197
3529.60239,0.02181
3527.67364,0.02147
3525.74490,0.02131
3523.81615,0.02150
3521.88741,0.02176
3519.95867,0.02179
3518.02992,0.02167
3516.10118,0.02156
3514.17243,0.02139
3512.24369,0.02135
3510.31494,0.02169
3508.38620,0.02204
3506.45745,0.02207
3504.52871,0.02187
3502.59997,0.02175
3500.67122,0.02187
3498.74248,0.02191
3496.81373,0.02166
3494.88499,0.02145
3492.95624,0.02148
3491.02750,0.02168
3489.09875,0.02184
3487.17001,0.02197
3485.24126,0.02216
3483.31252,0.02209
3481.38378,0.02157
3479.45503,0.02113
3477.52629,0.02103
3475.59754,0.02110
3473.66880,0.02122
3471.74005,0.02121
3469.81131,0.02129
3467.88256,0.02173
3465.95382,0.02196
3464.02508,0.02164
3462.09633,0.02128
3460.16759,0.02135
3458.23884,0.02155
3456.31010,0.02145
3454.38135,0.02130
3452.45261,0.02140
3450.52386,0.02144
3448.59512,0.02121
3446.66638,0.02107
3444.73763,0.02115
3442.80889,0.02110
3440.88014,0.02082
3438.95140,0.02057
3437.02265,0.02073
3435.09391,0.02118
3433.16516,0.02141
3431.23642,0.02141
3429.30768,0.02141
3427.37893,0.02133
3425.45019,0.02124
3423.52144,0.02117
3421.59270,0.02105
3419.66395,0.02105
3417.73521,0.02112
3415.80646,0.02104
3413.87772,0.02107
3411.94897,0.02125
3410.02023,0.02133
3408.09149,0.02134
3406.16274,0.02129
3404.23400,0.02104
3402.30525,0.02073
3400.37651,0.02056
3398.44776,0.02060
3396.51902,0.02071
3394.59027,0.02068
3392.66153,0.02069
3390.73279,0.02099
3388.80404,0.02122
3386.87530,0.02111
3384.94655,0.02090
3383.01781,0.02077
3381.08906,0.02072
3379.16032,0.02079
3377.23157,0.02091
3375.30283,0.02089
3373.37409,0.02077
3371.44534,0.02069
3369.51660,0.02046
3367.58785,0.02028
3365.65911,0.02064
3363.73036,0.02118
3361.80162,0.02119
3359.87287,0.02090
3357.94413,0.02081
3356.01539,0.02089
3354.08664,0.02092
3352.15790,0.02084
3350.22915,0.02052
3348.30041,0.02007
3346.37166,0.02002
3344.44292,0.02036
3342.51417,0.02057
3340.58543,0.02069
3338.65668,0.02096
3336.72794,0.02121
3334.79920,0.02126
3332.87045,0.02108
3330.94171,0.02094
3329.01296,0.02099
3327.08422,0.02088
3325.15547,0.02063
3323.22673,0.02067
3321.29798,0.02096
3319.36924,0.02108
3317.44050,0.02077
3315.51175,0.02039
3313.58301,0.02046
3311.65426,0.02069
3309.72552,0.02076
3307.79677,0.02072
3305.86803,0.02056
3303.93928,0.02036
3302.01054,0.02028
3300.08180,0.02029
3298.15305,0.02043
3296.22431,0.02073
3294.29556,0.02105
3292.36682,0.02137
3290.43807,0.02161
3288.50933,0.02139
3286.58058,0.02080
3284.65184,0.02056
3282.72310,0.02077
3280.79435,0.02083
3278.86561,0.02067
3276.93686,0.02066
3275.00812,0.02082
3273.07937,0.02104
3271.15063,0.02130
3269.22188,0.02149
3267.29314,0.02147
3265.36439,0.02122
3263.43565,0.02095
3261.50691,0.02093
3259.57816,0.02100
3257.64942,0.02107
3255.72067,0.02124
3253.79193,0.02115
3251.86318,0.02097
3249.93444,0.02124
3248.00569,0.02156
3246.07695,0.02159
3244.14821,0.02159
3242.21946,0.02148
3240.29072,0.02129
3238.36197,0.02127
3236.43323,0.02131
3234.50448,0.02135
3232.57574,0.02153
3230.64699,0.02172
3228.71825,0.02161
3226.78951,0.02120
3224.86076,0.02095
3222.93202,0.02112
3221.00327,0.02146
3219.07453,0.02171
3217.14578,0.02167
3215.21704,0.02140
3213.28829,0.02130
3211.35955,0.02160
3209.43081,0.02207
3207.50206,0.02235
3205.57332,0.02229
3203.64457,0.02193
3201.71583,0.02155
3199.78708,0.02123
3197.85834,0.02091
3195.92959,0.02069
3194.00085,0.02060
3192.07210,0.02057
3190.14336,0.02061
3188.21462,0.02067
3186.28587,0.02086
3184.35713,0.02132
3182.42838,0.02175
3180.49964,0.02171
3178.57089,0.02125
3176.64215,0.02078
3174.71340,0.02045
3172.78466,0.02028
3170.85592,0.02048
3168.92717,0.02094
3166.99843,0.02117
3165.06968,0.02120
3163.14094,0.02145
3161.21219,0.02177
3159.28345,0.02168
3157.35470,0.02137
3155.42596,0.02131
3153.49722,0.02153
3151.56847,0.02179
3149.63973,0.02190
3147.71098,0.02191
3145.78224,0.02196
3143.85349,0.02190
3141.92475,0.02160
3139.99600,0.02117
3138.06726,0.02081
3136.13852,0.02076
3134.20977,0.02110
3132.28103,0.02146
3130.35228,0.02139
3128.42354,0.02111
3126.49479,0.02113
3124.56605,0.02131
3122.63730,0.02132
3120.70856,0.02123
3118.77981,0.02114
3116.85107,0.02122
3114.92233,0.02144
3112.99358,0.02170
3111.06484,0.02189
3109.13609,0.02177
3107.20735,0.02134
3105.27860,0.02101
3103.34986,0.02097
3101.42111,0.02121
3099.49237,0.02160
3097.56363,0.02178
3095.63488,0.02166
3093.70614,0.02136
3091.77739,0.02096
3089.84865,0.02084
3087.91990,0.02104
3085.99116,0.02119
3084.06241,0.02124
3082.13367,0.02125
3080.20493,0.02117
3078.27618,0.02113
3076.34744,0.02116
3074.41869,0.02109
3072.48995,0.02107
3070.56120,0.02119
3068.63246,0.02121
3066.70371,0.02116
3064.77497,0.02128
3062.84623,0.02161
3060.91748,0.02193
3058.98874,0.02194
3057.05999,0.02162
3055.13125,0.02126
3053.20250,0.02105
3051.27376,0.02091
3049.34501,0.02091
3047.41627,0.02121
3045.48752,0.02146
3043.55878,0.02134
3041.63004,0.02113
3039.70129,0.02105
3037.77255,0.02099
3035.84380,0.02092
3033.91506,0.02078
3031.98631,0.02061
3030.05757,0.02075
3028.12882,0.02120
3026.20008,0.02135
3024.27134,0.02130
3022.34259,0.02156
3020.41385,0.02180
3018.48510,0.02157
3016.55636,0.02111
3014.62761,0.02089
3012.69887,0.02098
3010.77012,0.02107
3008.84138,0.02096
3006.91264,0.02074
3004.98389,0.02069
3003.05515,0.02087
3001.12640,0.02111
2999.19766,0.02100
2997.26891,0.02053
2995.34017,0.02016
2993.41142,0.02008
2991.48268,0.02024
2989.55394,0.02048
2987.62519,0.02056
2985.69645,0.02054
2983.76770,0.02058
2981.83896,0.02048
2979.91021,0.02015
2977.98147,0.01993
2976.05272,0.02000
2974.12398,0.02012
2972.19523,0.02017
2970.26649,0.02018
2968.33775,0.02004
2966.40900,0.01992
2964.48026,0.02007
2962.55151,0.02039
2960.62277,0.02059
2958.69402,0.02056
2956.76528,0.02033
2954.83653,0.02006
2952.90779,0.01998
2950.97905,0.02018
2949.05030,0.02044
2947.12156,0.02047
2945.19281,0.02025
2943.26407,0.02000
2941.33532,0.01992
2939.40658,0.02002
2937.47783,0.02020
2935.54909,0.02039
2933.62035,0.02047
2931.69160,0.02032
2929.76286,0.02012
2927.83411,0.02015
2925.90537,0.02035
2923.97662,0.02048
2922.04788,0.02054
2920.11913,0.02062
2918.19039,0.02068
2916.26165,0.02078
2914.33290,0.02094
2912.40416,0.02114
2910.47541,0.02128
2908.54667,0.02128
2906.61792,0.02107
2904.68918,0.02081
2902.76043,0.02084
2900.83169,0.02121
2898.90294,0.02154
2896.97420,0.02170
2895.04546,0.02174
2893.11671,0.02163
2891.18797,0.02130
2889.25922,0.02092
2887.33048,0.02080
2885.40173,0.02087
2883.47299,0.02090
2881.54424,0.02086
2879.61550,0.02092
2877.68676,0.02107
2875.75801,0.02118
2873.82927,0.02120
2871.90052,0.02118
2869.97178,0.02130
2868.04303,0.02139
2866.11429,0.02125
2864.18554,0.02106
2862.25680,0.02091
2860.32806,0.02085
2858.39931,0.02101
2856.47057,0.02126
2854.54182,0.02151
2852.61308,0.02181
2850.68433,0.02185
2848.75559,0.02165
2846.82684,0.02168
2844.89810,0.02184
2842.96936,0.02182
2841.04061,0.02182
2839.11187,0.02192
2837.18312,0.02207
2835.25438,0.02217
2833.32563,0.02206
2831.39689,0.02189
2829.46814,0.02189
2827.53940,0.02197
2825.61065,0.02206
2823.68191,0.02208
2821.75317,0.02192
2819.82442,0.02170
2817.89568,0.02160
2815.96693,0.02163
2814.03819,0.02157
2812.10944,0.02148
2810.18070,0.02174
2808.25195,0.02217
2806.32321,0.02238
2804.39447,0.02236
2802.46572,0.02229
2800.53698,0.02217
2798.60823,0.02202
2796.67949,0.02196
2794.75074,0.02199
2792.82200,0.02192
2790.89325,0.02176
2788.96451,0.02180
2787.03577,0.02202
2785.10702,0.02204
2783.17828,0.02191
2781.24953,0.02196
2779.32079,0.02208
2777.39204,0.02213
2775.46330,0.02219
2773.53455,0.02210
2771.60581,0.02183
2769.67707,0.02163
2767.74832,0.02160
2765.81958,0.02178
2763.89083,0.02216
2761.96209,0.02236
2760.03334,0.02218
2758.10460,0.02186
2756.17585,0.02165
2754.24711,0.02162
2752.31836,0.02170
2750.38962,0.02178
2748.46088,0.02175
2746.53213,0.02164
2744.60339,0.02164
2742.67464,0.02173
2740.74590,0.02176
2738.81715,0.02175
2736.88841,0.02182
2734.95966,0.02188
2733.03092,0.02184
2731.10218,0.02173
2729.17343,0.02158
2727.24469,0.02142
2725.31594,0.02137
2723.38720,0.02143
2721.45845,0.02154
2719.52971,0.02166
2717.60096,0.02176
2715.67222,0.02184
2713.74348,0.02198
2711.81473,0.02211
2709.88599,0.02212
2707.95724,0.02201
2706.02850,0.02186
2704.09975,0.02185
2702.17101,0.02194
2700.24226,0.02198
2698.31352,0.02199
2696.38477,0.02207
2694.45603,0.02218
2692.52729,0.02213
2690.59854,0.02206
2688.66980,0.02221
2686.74105,0.02238
2684.81231,0.02237
2682.88356,0.02231
2680.95482,0.02227
2679.02607,0.02223
2677.09733,0.02213
2675.16859,0.02200
2673.23984,0.02199
2671.31110,0.02209
2669.38235,0.02213
2667.45361,0.02203
2665.52486,0.02186
2663.59612,0.02176
2661.66737,0.02173
2659.73863,0.02172
2657.80989,0.02186
2655.88114,0.02205
2653.95240,0.02216
2652.02365,0.02226
2650.09491,0.02224
2648.16616,0.02197
2646.23742,0.02167
2644.30867,0.02158
2642.37993,0.02170
2640.45119,0.02190
2638.52244,0.02193
2636.59370,0.02179
2634.66495,0.02172
2632.73621,0.02174
2630.80746,0.02192
2628.87872,0.02219
2626.94997,0.02226
2625.02123,0.02220
2623.09248,0.02227
2621.16374,0.02235
2619.23500,0.02235
2617.30625,0.02235
2615.37751,0.02227
2613.44876,0.02211
2611.52002,0.02204
2609.59127,0.02204
2607.66253,0.02210
2605.73378,0.02221
2603.80504,0.02227
2601.87630,0.02221
2599.94755,0.02200
2598.01881,0.02187
2596.09006,0.02195
2594.16132,0.02211
2592.23257,0.02215
2590.30383,0.02210
2588.37508,0.02214
2586.44634,0.02219
2584.51760,0.02213
2582.58885,0.02202
2580.66011,0.02198
2578.73136,0.02199
2576.80262,0.02202
2574.87387,0.02203
2572.94513,0.02204
2571.01638,0.02215
2569.08764,0.02225
2567.15890,0.02220
2565.23015,0.02212
2563.30141,0.02216
2561.37266,0.02231
2559.44392,0.02238
2557.51517,0.02224
2555.58643,0.02202
2553.65768,0.02186
2551.72894,0.02176
2549.80019,0.02178
2547.87145,0.02201
2545.94271,0.02231
2544.01396,0.02235
2542.08522,0.02207
2540.15647,0.02192
2538.22773,0.02204
2536.29898,0.02208
2534.37024,0.02190
2532.44149,0.02178
2530.51275,0.02185
2528.58401,0.02208
2526.65526,0.02239
2524.72652,0.02252
2522.79777,0.02236
2520.86903,0.02209
2518.94028,0.02189
2517.01154,0.02186
2515.08279,0.02194
2513.15405,0.02199
2511.22531,0.02209
2509.29656,0.02223
2507.36782,0.02224
2505.43907,0.02210
2503.51033,0.02194
2501.58158,0.02196
2499.65284,0.02213
2497.72409,0.02220
2495.79535,0.02212
2493.86661,0.02196
2491.93786,0.02177
2490.00912,0.02166
2488.08037,0.02171
2486.15163,0.02177
2484.22288,0.02170
2482.29414,0.02163
2480.36539,0.02162
2478.43665,0.02163
2476.50790,0.02174
2474.57916,0.02182
2472.65042,0.02171
2470.72167,0.02157
2468.79293,0.02164
2466.86418,0.02190
2464.93544,0.02214
2463.00669,0.02217
2461.07795,0.02200
2459.14920,0.02182
2457.22046,0.02179
2455.29172,0.02185
2453.36297,0.02190
2451.43423,0.02187
2449.50548,0.02172
2447.57674,0.02151
2445.64799,0.02150
2443.71925,0.02178
2441.79050,0.02211
2439.86176,0.02221
2437.93302,0.02220
2436.00427,0.02226
2434.07553,0.02240
2432.14678,0.02240
2430.21804,0.02220
2428.28929,0.02204
2426.36055,0.02212
2424.43180,0.02222
2422.50306,0.02221
2420.57432,0.02213
2418.64557,0.02197
2416.71683,0.02175
2414.78808,0.02173
2412.85934,0.02197
2410.93059,0.02220
2409.00185,0.02221
2407.07310,0.02213
2405.14436,0.02208
2403.21561,0.02197
2401.28687,0.02186
2399.35813,0.02191
2397.42938,0.02193
2395.50064,0.02177
2393.57189,0.02164
2391.64315,0.02173
2389.71440,0.02189
2387.78566,0.02196
2385.85691,0.02198
2383.92817,0.02207
2381.99943,0.02214
2380.07068,0.02211
2378.14194,0.02206
2376.21319,0.02214
2374.28445,0.02217
2372.35570,0.02205
2370.42696,0.02206
2368.49821,0.02224
2366.56947,0.02230
2364.64073,0.02225
2362.71198,0.02223
2360.78324,0.02211
2358.85449,0.02185
2356.92575,0.02179
2354.99700,0.02198
2353.06826,0.02201
2351.13951,0.02181
2349.21077,0.02164
2347.28203,0.02168
2345.35328,0.02197
2343.42454,0.02222
2341.49579,0.02227
2339.56705,0.02220
2337.63830,0.02200
2335.70956,0.02178
2333.78081,0.02180
2331.85207,0.02200
2329.92332,0.02208
2327.99458,0.02194
2326.06584,0.02184
2324.13709,0.02191
2322.20835,0.02197
2320.27960,0.02190
2318.35086,0.02183
2316.42211,0.02191
2314.49337,0.02200
2312.56462,0.02196
2310.63588,0.02193
2308.70714,0.02203
2306.77839,0.02202
2304.84965,0.02182
2302.92090,0.02168
2300.99216,0.02169
2299.06341,0.02177
2297.13467,0.02185
2295.20592,0.02187
2293.27718,0.02186
2291.34844,0.02183
2289.41969,0.02181
2287.49095,0.02176
2285.56220,0.02173
2283.63346,0.02178
2281.70471,0.02186
2279.77597,0.02198
2277.84722,0.02213
2275.91848,0.02226
2273.98974,0.02228
2272.06099,0.02215
2270.13225,0.02198
2268.20350,0.02182
2266.27476,0.02164
2264.34601,0.02158
2262.41727,0.02179
2260.48852,0.02207
2258.55978,0.02212
2256.63103,0.02200
2254.70229,0.02179
2252.77355,0.02155
2250.84480,0.02138
2248.91606,0.02144
2246.98731,0.02171
2245.05857,0.02188
2243.12982,0.02179
2241.20108,0.02156
2239.27233,0.02140
2237.34359,0.02136
2235.41485,0.02139
2233.48610,0.02152
2231.55736,0.02172
2229.62861,0.02188
2227.69987,0.02201
2225.77112,0.02209
2223.84238,0.02200
2221.91363,0.02180
2219.98489,0.02166
2218.05615,0.02160
2216.12740,0.02163
2214.19866,0.02181
2212.26991,0.02205
2210.34117,0.02213
2208.41242,0.02202
2206.48368,0.02195
2204.55493,0.02199
2202.62619,0.02194
2200.69745,0.02186
2198.76870,0.02190
2196.83996,0.02200
2194.91121,0.02211
2192.98247,0.02215
2191.05372,0.02204
2189.12498,0.02191
2187.19623,0.02189
2185.26749,0.02195
2183.33874,0.02207
2181.41000,0.02210
2179.48126,0.02194
2177.55251,0.02176
2175.62377,0.02174
2173.69502,0.02189
2171.76628,0.02203
2169.83753,0.02199
2167.90879,0.02180
2165.98004,0.02176
2164.05130,0.02201
2162.12256,0.02222
2160.19381,0.02211
2158.26507,0.02198
2156.33632,0.02206
2154.40758,0.02213
2152.47883,0.02211
2150.55009,0.02204
2148.62134,0.02189
2146.69260,0.02191
2144.76386,0.02212
2142.83511,0.02216
2140.90637,0.02202
2138.97762,0.02192
2137.04888,0.02186
2135.12013,0.02183
2133.19139,0.02183
2131.26264,0.02184
2129.33390,0.02189
2127.40516,0.02199
2125.47641,0.02203
2123.54767,0.02195
2121.61892,0.02190
2119.69018,0.02193
2117.76143,0.02193
2115.83269,0.02187
2113.90394,0.02176
2111.97520,0.02167
2110.04645,0.02166
2108.11771,0.02175
2106.18897,0.02199
2104.26022,0.02224
2102.33148,0.02226
2100.40273,0.02210
2098.47399,0.02204
2096.54524,0.02203
2094.61650,0.02189
2092.68775,0.02177
2090.75901,0.02182
2088.83027,0.02192
2086.90152,0.02191
2084.97278,0.02180
2083.04403,0.02172
2081.11529,0.02175
2079.18654,0.02177
2077.25780,0.02176
2075.32905,0.02186
2073.40031,0.02197
2071.47157,0.02193
2069.54282,0.02182
2067.61408,0.02175
2065.68533,0.02169
2063.75659,0.02161
2061.82784,0.02158
2059.89910,0.02162
2057.97035,0.02160
2056.04161,0.02166
2054.11287,0.02196
2052.18412,0.02221
2050.25538,0.02216
2048.32663,0.02200
2046.39789,0.02199
2044.46914,0.02202
2042.54040,0.02190
2040.61165,0.02169
2038.68291,0.02161
2036.75416,0.02172
2034.82542,0.02189
2032.89668,0.02196
2030.96793,0.02189
2029.03919,0.02187
2027.11044,0.02188
2025.18170,0.02175
2023.25295,0.02152
2021.32421,0.02134
2019.39546,0.02133
2017.46672,0.02153
2015.53798,0.02168
2013.60923,0.02166
2011.68049,0.02159
2009.75174,0.02158
2007.82300,0.02169
2005.89425,0.02187
2003.96551,0.02202
2002.03676,0.02199
2000.10802,0.02180
1998.17928,0.02162
1996.25053,0.02144
1994.32179,0.02131
1992.39304,0.02146
1990.46430,0.02177
1988.53555,0.02190
1986.60681,0.02188
1984.67806,0.02190
1982.74932,0.02198
1980.82058,0.02199
1978.89183,0.02190
1976.96309,0.02184
1975.03434,0.02188
1973.10560,0.02190
1971.17685,0.02186
1969.24811,0.02182
1967.31936,0.02166
1965.39062,0.02148
1963.46187,0.02158
1961.53313,0.02186
1959.60439,0.02197
1957.67564,0.02184
1955.74690,0.02166
1953.81815,0.02150
1951.88941,0.02147
1949.96066,0.02160
1948.03192,0.02169
1946.10317,0.02176
1944.17443,0.02196
1942.24569,0.02211
1940.31694,0.02209
1938.38820,0.02200
1936.45945,0.02185
1934.53071,0.02172
1932.60196,0.02169
1930.67322,0.02168
1928.74447,0.02164
1926.81573,0.02165
1924.88699,0.02168
1922.95824,0.02161
1921.02950,0.02154
1919.10075,0.02156
1917.17201,0.02154
1915.24326,0.02145
1913.31452,0.02143
1911.38577,0.02149
1909.45703,0.02153
1907.52829,0.02150
1905.59954,0.02137
1903.67080,0.02127
1901.74205,0.02138
1899.81331,0.02137
1897.88456,0.02104
1895.95582,0.02078
1894.02707,0.02090
1892.09833,0.02126
1890.16958,0.02154
1888.24084,0.02155
1886.31210,0.02144
1884.38335,0.02142
1882.45461,0.02142
1880.52586,0.02136
1878.59712,0.02129
1876.66837,0.02131
1874.73963,0.02141
1872.81088,0.02151
1870.88214,0.02157
1868.95340,0.02158
1867.02465,0.02154
1865.09591,0.02160
1863.16716,0.02167
1861.23842,0.02156
1859.30967,0.02138
1857.38093,0.02130
1855.45218,0.02135
1853.52344,0.02151
1851.59470,0.02164
1849.66595,0.02154
1847.73721,0.02125
1845.80846,0.02101
1843.87972,0.02091
1841.95097,0.02083
1840.02223,0.02082
1838.09348,0.02093
1836.16474,0.02098
1834.23600,0.02093
1832.30725,0.02095
1830.37851,0.02106
1828.44976,0.02107
1826.52102,0.02103
1824.59227,0.02100
1822.66353,0.02097
1820.73478,0.02093
1818.80604,0.02079
1816.87729,0.02066
1814.94855,0.02069
1813.01981,0.02073
1811.09106,0.02059
1809.16232,0.02041
1807.23357,0.02048
1805.30483,0.02077
1803.37608,0.02095
1801.44734,0.02093
1799.51859,0.02084
1797.58985,0.02071
1795.66111,0.02059
1793.73236,0.02053
1791.80362,0.02053
1789.87487,0.02057
1787.94613,0.02050
1786.01738,0.02019
1784.08864,0.01985
1782.15989,0.01977
1780.23115,0.01982
1778.30241,0.01981
1776.37366,0.01978
1774.44492,0.01961
1772.51617,0.01929
1770.58743,0.01922
1768.65868,0.01936
1766.72994,0.01930
1764.80119,0.01908
1762.87245,0.01888
1760.94370,0.01870
1759.01496,0.01849
1757.08622,0.01820
1755.15747,0.01796
1753.22873,0.01801
1751.29998,0.01819
1749.37124,0.01823
1747.44249,0.01807
1745.51375,0.01803
1743.58500,0.01839
1741.65626,0.01892
1739.72752,0.01930
1737.79877,0.01967
1735.87003,0.02006
1733.94128,0.02024
1732.01254,0.02031
1730.08379,0.02046
1728.15505,0.02067
1726.22630,0.02098
1724.29756,0.02139
1722.36882,0.02171
1720.44007,0.02178
1718.51133,0.02166
1716.58258,0.02149
1714.65384,0.02132
1712.72509,0.02108
1710.79635,0.02092
1708.86760,0.02090
1706.93886,0.02084
1705.01012,0.02076
1703.08137,0.02077
1701.15263,0.02071
1699.22388,0.02048
1697.29514,0.02025
1695.36639,0.02023
1693.43765,0.02037
1691.50890,0.02036
1689.58016,0.02005
1687.65141,0.01970
1685.72267,0.01954
1683.79393,0.01940
1681.86518,0.01926
1679.93644,0.01928
1678.00769,0.01943
1676.07895,0.01960
1674.15020,0.01967
1672.22146,0.01955
1670.29271,0.01927
1668.36397,0.01899
1666.43523,0.01893
1664.50648,0.01899
1662.57774,0.01893
1660.64899,0.01878
1658.72025,0.01878
1656.79150,0.01896
1654.86276,0.01911
1652.93401,0.01909
1651.00527,0.01901
1649.07653,0.01898
1647.14778,0.01885
1645.21904,0.01866
1643.29029,0.01867
1641.36155,0.01886
1639.43280,0.01904
1637.50406,0.01922
1635.57531,0.01936
1633.64657,0.01927
1631.71783,0.01918
1629.78908,0.01940
1627.86034,0.01961
1625.93159,0.01936
1624.00285,0.01889
1622.07410,0.01868
1620.14536,0.01882
1618.21661,0.01910
1616.28787,0.01925
1614.35912,0.01917
1612.43038,0.01916
1610.50164,0.01931
1608.57289,0.01947
1606.64415,0.01951
1604.71540,0.01938
1602.78666,0.01924
1600.85791,0.01930
1598.92917,0.01945
1597.00042,0.01948
1595.07168,0.01938
1593.14294,0.01928
1591.21419,0.01931
1589.28545,0.01935
1587.35670,0.01914
1585.42796,0.01876
1583.49921,0.01858
1581.57047,0.01870
1579.64172,0.01886
1577.71298,0.01885
1575.78424,0.01871
1573.85549,0.01867
1571.92675,0.01870
1569.99800,0.01869
1568.06926,0.01873
1566.14051,0.01886
1564.21177,0.01883
1562.28302,0.01853
1560.35428,0.01824
1558.42554,0.01831
1556.49679,0.01859
1554.56805,0.01863
1552.63930,0.01845
1550.71056,0.01827
1548.78181,0.01830
1546.85307,0.01857
1544.92432,0.01883
1542.99558,0.01893
1541.06683,0.01898
1539.13809,0.01901
1537.20935,0.01906
1535.28060,0.01911
1533.35186,0.01909
1531.42311,0.01895
1529.49437,0.01882
1527.56562,0.01881
1525.63688,0.01894
1523.70813,0.01912
1521.77939,0.01928
1519.85065,0.01938
1517.92190,0.01942
1515.99316,0.01944
1514.06441,0.01943
1512.13567,0.01931
1510.20692,0.01919
1508.27818,0.01923
1506.34943,0.01929
1504.42069,0.01922
1502.49195,0.01917
1500.56320,0.01924
1498.63446,0.01943
1496.70571,0.01941
1494.77697,0.01915
1492.84822,0.01898
1490.91948,0.01892
1488.99073,0.01888
1487.06199,0.01896
1485.13325,0.01906
1483.20450,0.01903
1481.27576,0.01890
1479.34701,0.01873
1477.41827,0.01866
1475.48952,0.01875
1473.56078,0.01875
1471.63203,0.01859
1469.70329,0.01863
1467.77454,0.01888
1465.84580,0.01902
1463.91706,0.01883
1461.98831,0.01860
1460.05957,0.01869
1458.13082,0.01899
1456.20208,0.01921
1454.27333,0.01926
1452.34459,0.01926
1450.41584,0.01919
1448.48710,0.01912
1446.55836,0.01920
1444.62961,0.01919
1442.70087,0.01897
1440.77212,0.01886
1438.84338,0.01896
1436.91463,0.01899
1434.98589,0.01892
1433.05714,0.01888
1431.12840,0.01899
1429.19966,0.01922
1427.27091,0.01945
1425.34217,0.01952
1423.41342,0.01932
1421.48468,0.01897
1419.55593,0.01868
1417.62719,0.01858
1415.69844,0.01873
1413.76970,0.01897
1411.84096,0.01905
1409.91221,0.01902
1407.98347,0.01901
1406.05472,0.01892
1404.12598,0.01885
1402.19723,0.01890
1400.26849,0.01886
1398.33974,0.01872
1396.41100,0.01861
1394.48225,0.01854
1392.55351,0.01854
1390.62477,0.01863
1388.69602,0.01874
1386.76728,0.01862
1384.83853,0.01844
1382.90979,0.01850
1380.98104,0.01857
1379.05230,0.01843
1377.12355,0.01836
1375.19481,0.01847
1373.26607,0.01859
1371.33732,0.01866
1369.40858,0.01869
1367.47983,0.01860
1365.55109,0.01853
1363.62234,0.01855
1361.69360,0.01858
1359.76485,0.01856
1357.83611,0.01855
1355.90737,0.01860
1353.97862,0.01876
1352.04988,0.01888
1350.12113,0.01871
1348.19239,0.01842
1346.26364,0.01840
1344.33490,0.01854
1342.40615,0.01856
1340.47741,0.01846
1338.54867,0.01831
1336.61992,0.01812
1334.69118,0.01799
1332.76243,0.01800
1330.83369,0.01798
1328.90494,0.01777
1326.97620,0.01753
1325.04745,0.01749
1323.11871,0.01749
1321.18996,0.01736
1319.26122,0.01727
1317.33248,0.01734
1315.40373,0.01742
1313.47499,0.01738
1311.54624,0.01737
1309.61750,0.01751
1307.68875,0.01766
1305.76001,0.01773
1303.83126,0.01777
1301.90252,0.01779
1299.97378,0.01780
1298.04503,0.01793
1296.11629,0.01809
1294.18754,0.01825
1292.25880,0.01852
1290.33005,0.01877
1288.40131,0.01891
1286.47256,0.01903
1284.54382,0.01917
1282.61508,0.01923
1280.68633,0.01919
1278.75759,0.01932
1276.82884,0.01959
1274.90010,0.01971
1272.97135,0.01967
1271.04261,0.01967
1269.11386,0.01980
1267.18512,0.02001
1265.25638,0.02015
1263.32763,0.02035
1261.39889,0.02063
1259.47014,0.02074
1257.54140,0.02067
1255.61265,0.02059
1253.68391,0.02051
1251.75516,0.02057
1249.82642,0.02080
1247.89767,0.02082
1245.96893,0.02051
1244.04019,0.02026
1242.11144,0.02021
1240.18270,0.02016
1238.25395,0.02006
1236.32521,0.02006
1234.39646,0.02021
1232.46772,0.02024
1230.53897,0.02002
1228.61023,0.01984
1226.68149,0.01994
1224.75274,0.02008
1222.82400,0.02001
1220.89525,0.01981
1218.96651,0.01964
1217.03776,0.01964
1215.10902,0.01971
1213.18027,0.01964
1211.25153,0.01937
1209.32279,0.01903
1207.39404,0.01887
1205.46530,0.01895
1203.53655,0.01901
1201.60781,0.01898
1199.67906,0.01902
1197.75032,0.01898
1195.82157,0.01868
1193.89283,0.01837
1191.96409,0.01822
1190.03534,0.01810
1188.10660,0.01810
1186.17785,0.01827
1184.24911,0.01834
1182.32036,0.01819
1180.39162,0.01806
1178.46287,0.01814
1176.53413,0.01833
1174.60538,0.01851
1172.67664,0.01871
1170.74790,0.01872
1168.81915,0.01841
1166.89041,0.01813
1164.96166,0.01807
1163.03292,0.01809
1161.10417,0.01802
1159.17543,0.01782
1157.24668,0.01765
1155.31794,0.01776
1153.38920,0.01795
1151.46045,0.01790
1149.53171,0.01778
1147.60296,0.01783
1145.67422,0.01791
1143.74547,0.01776
1141.81673,0.01760
1139.88798,0.01776
1137.95924,0.01816
1136.03050,0.01852
1134.10175,0.01872
1132.17301,0.01873
1130.24426,0.01874
1128.31552,0.01893
1126.38677,0.01911
1124.45803,0.01900
1122.52928,0.01872
1120.60054,0.01849
1118.67180,0.01831
1116.74305,0.01833
1114.81431,0.01854
1112.88556,0.01877
1110.95682,0.01904
1109.02807,0.01920
1107.09933,0.01908
1105.17058,0.01889
1103.24184,0.01882
1101.31309,0.01881
1099.38435,0.01881
1097.45561,0.01889
1095.52686,0.01902
1093.59812,0.01899
1091.66937,0.01870
1089.74063,0.01864
1087.81188,0.01901
1085.88314,0.01915
1083.95439,0.01891
1082.02565,0.01885
1080.09691,0.01901
1078.16816,0.01924
1076.23942,0.01948
1074.31067,0.01953
1072.38193,0.01959
1070.45318,0.02002
1068.52444,0.02046
1066.59569,0.02061
1064.66695,0.02071
1062.73821,0.02072
1060.80946,0.02054
1058.88072,0.02037
1056.95197,0.02004
1055.02323,0.01953
1053.09448,0.01930
1051.16574,0.01947
1049.23699,0.01985
1047.30825,0.02022
1045.37951,0.02015
1043.45076,0.01988
1041.52202,0.01992
1039.59327,0.02004
1037.66453,0.02005
1035.73578,0.01988
1033.80704,0.01952
1031.87829,0.01926
1029.94955,0.01921
1028.02080,0.01937
1026.09206,0.01952
1024.16332,0.01944
1022.23457,0.01929
1020.30583,0.01914
1018.37708,0.01918
1016.44834,0.01966
1014.51959,0.02013
1012.59085,0.02024
1010.66210,0.02036
1008.73336,0.02068
1006.80462,0.02090
1004.87587,0.02100
1002.94713,0.02129
1001.01838,0.02163
999.08964,0.02175
997.16089,0.02177
995.23215,0.02173
993.30340,0.02159
991.37466,0.02141
989.44592,0.02118
987.51717,0.02103
985.58843,0.02112
983.65968,0.02124
981.73094,0.02131
979.80219,0.02146
977.87345,0.02148
975.94470,0.02127
974.01596,0.02102
972.08722,0.02071
970.15847,0.02031
968.22973,0.02019
966.30098,0.02047
964.37224,0.02083
962.44349,0.02089
960.51475,0.02070
958.58600,0.02066
956.65726,0.02083
954.72851,0.02093
952.79977,0.02086
950.87103,0.02061
948.94228,0.02025
947.01354,0.02011
945.08479,0.02019
943.15605,0.02027
941.22730,0.02031
939.29856,0.02028
937.36981,0.02016
935.44107,0.01998
933.51233,0.01976
931.58358,0.01969
929.65484,0.01987
927.72609,0.01996
925.79735,0.01984
923.86860,0.01966
921.93986,0.01950
920.01111,0.01936
918.08237,0.01934
916.15363,0.01959
914.22488,0.01997
912.29614,0.02024
910.36739,0.02026
908.43865,0.01995
906.50990,0.01958
904.58116,0.01956
902.65241,0.01966
900.72367,0.01948
898.79492,0.01928
896.86618,0.01943
894.93744,0.01968
893.00869,0.01977
891.07995,0.01982
889.15120,0.01999
887.22246,0.02030
885.29371,0.02045
883.36497,0.02009
881.43622,0.01949
879.50748,0.01928
877.57874,0.01943
875.64999,0.01956
873.72125,0.01960
871.79250,0.01957
869.86376,0.01943
867.93501,0.01937
866.00627,0.01939
864.07752,0.01930
862.14878,0.01923
860.22004,0.01919
858.29129,0.01885
856.36255,0.01838
854.43380,0.01832
852.50506,0.01881
850.57631,0.01931
848.64757,0.01921
846.71882,0.01880
844.79008,0.01882
842.86134,0.01921
840.93259,0.01947
839.00385,0.01929
837.07510,0.01895
835.14636,0.01903
833.21761,0.01941
831.28887,0.01949
829.36012,0.01945
827.43138,0.01964
825.50263,0.01973
823.57389,0.01961
821.64515,0.01969
819.71640,0.01958
817.78766,0.01904
815.85891,0.01873
813.93017,0.01884
812.00142,0.01883
810.07268,0.01868
808.14393,0.01885
806.21519,0.01924
804.28645,0.01944
802.35770,0.01941
800.42896,0.01918
798.50021,0.01888
796.57147,0.01875
794.64272,0.01884
792.71398,0.01910
790.78523,0.01927
788.85649,0.01898
786.92775,0.01850
784.99900,0.01848
783.07026,0.01870
781.14151,0.01861
779.21277,0.01855
777.28402,0.01873
775.35528,0.01887
773.42653,0.01898
771.49779,0.01917
769.56905,0.01930
767.64030,0.01898
765.71156,0.01825
763.78281,0.01782
761.85407,0.01800
759.92532,0.01831
757.99658,0.01837
756.06783,0.01821
754.13909,0.01817
752.21034,0.01840
750.28160,0.01861
748.35286,0.01871
746.42411,0.01874
744.49537,0.01880
742.56662,0.01893
740.63788,0.01911
738.70913,0.01912
736.78039,0.01872
734.85164,0.01834
732.92290,0.01857
730.99416,0.01910
729.06541,0.01934
727.13667,0.01905
725.20792,0.01837
723.27918,0.01804
721.35043,0.01852
719.42169,0.01897
717.49294,0.01876
715.56420,0.01857
713.63546,0.01878
711.70671,0.01899
709.77797,0.01906
707.84922,0.01905
705.92048,0.01902
703.99173,0.01878
702.06299,0.01824
700.13424,0.01797
698.20550,0.01838
696.27676,0.01877
694.34801,0.01834
692.41927,0.01736
690.49052,0.01692
688.56178,0.01731
686.63303,0.01774
684.70429,0.01776
682.77554,0.01771
680.84680,0.01760
678.91805,0.01742
676.98931,0.01747
675.06057,0.01759
673.13182,0.01775
671.20308,0.01812
669.27433,0.01795
667.34559,0.01715
665.41684,0.01691
663.48810,0.01714
661.55935,0.01695
659.63061,0.01659
657.70187,0.01659
655.77312,0.01703
653.84438,0.01758
651.91563,0.01770
649.98689,0.01729
648.05814,0.01703
646.12940,0.01765
644.20065,0.01829
642.27191,0.01787
640.34317,0.01712
638.41442,0.01638
636.48568,0.01570
634.55693,0.01545
632.62819,0.01542
630.69944,0.01545
628.77070,0.01582
626.84195,0.01591
624.91321,0.01519
622.98447,0.01460
621.05572,0.01504
619.12698,0.01631
617.19823,0.01749
615.26949,0.01734
613.34074,0.01606
611.41200,0.01493
609.48325,0.01462
607.55451,0.01497
605.62576,0.01548
603.69702,0.01581
601.76828,0.01579
599.83953,0.01564
