7497.02977,0.82805
7495.10103,0.83075
7493.17228,0.83539
7491.24354,0.84057
7489.31479,0.84461
7487.38605,0.84365
7485.45730,0.83698
7483.52856,0.82995
7481.59982,0.82790
7479.67107,0.83088
7477.74233,0.83535
7475.81358,0.83925
7473.88484,0.84217
7471.95609,0.84347
7470.02735,0.84128
7468.09860,0.83533
7466.16986,0.83187
7464.24112,0.83300
7462.31237,0.83155
7460.38363,0.82579
7458.45488,0.82318
7456.52614,0.82841
7454.59739,0.83710
7452.66865,0.84321
7450.73990,0.84474
7448.81116,0.84144
7446.88242,0.83575
7444.95367,0.83213
7443.02493,0.83173
7441.09618,0.83252
7439.16744,0.83239
7437.23869,0.82888
7435.30995,0.82282
7433.38120,0.82045
7431.45246,0.82170
7429.52371,0.81952
7427.59497,0.81678
7425.66623,0.82017
7423.73748,0.82361
7421.80874,0.82136
7419.87999,0.81916
7417.95125,0.82107
7416.02250,0.82280
7414.09376,0.82068
7412.16501,0.82005
7410.23627,0.82475
7408.30753,0.82726
7406.37878,0.82439
7404.45004,0.82488
7402.52129,0.82868
7400.59255,0.82663
7398.66380,0.82352
7396.73506,0.82668
7394.80631,0.82844
7392.87757,0.82516
7390.94883,0.82352
7389.02008,0.82579
7387.09134,0.82742
7385.16259,0.82361
7383.23385,0.81844
7381.30510,0.82067
7379.37636,0.82827
7377.44761,0.83171
7375.51887,0.82880
7373.59013,0.82345
7371.66138,0.81847
7369.73264,0.81675
7367.80389,0.81915
7365.87515,0.82202
7363.94640,0.82297
7362.01766,0.82350
7360.08891,0.82577
7358.16017,0.82836
7356.23142,0.82785
7354.30268,0.82584
7352.37394,0.82474
7350.44519,0.82268
7348.51645,0.82017
7346.58770,0.81961
7344.65896,0.82087
7342.73021,0.82252
7340.80147,0.82095
7338.87272,0.81675
7336.94398,0.81511
7335.01524,0.81392
7333.08649,0.81055
7331.15775,0.80841
7329.22900,0.80803
7327.30026,0.80780
7325.37151,0.80819
7323.44277,0.80982
7321.51402,0.81121
7319.58528,0.81094
7317.65654,0.81119
7315.72779,0.81412
7313.79905,0.81885
7311.87030,0.82160
7309.94156,0.81917
7308.01281,0.81481
7306.08407,0.81476
7304.15532,0.81989
7302.22658,0.82523
7300.29784,0.82785
7298.36909,0.82941
7296.44035,0.82989
7294.51160,0.82777
7292.58286,0.82472
7290.65411,0.82313
7288.72537,0.82284
7286.79662,0.82144
7284.86788,0.81708
7282.93913,0.81377
7281.01039,0.81510
7279.08165,0.81739
7277.15290,0.81764
7275.22416,0.81617
7273.29541,0.81530
7271.36667,0.81765
7269.43792,0.81999
7267.50918,0.81807
7265.58043,0.81300
7263.65169,0.80896
7261.72295,0.80961
7259.79420,0.81417
7257.86546,0.81775
7255.93671,0.81794
7254.00797,0.81832
7252.07922,0.81927
7250.15048,0.81580
7248.22173,0.81096
7246.29299,0.81217
7244.36425,0.81618
7242.43550,0.81508
7240.50676,0.81110
7238.57801,0.81098
7236.64927,0.81408
7234.72052,0.81593
7232.79178,0.81541
7230.86303,0.81491
7228.93429,0.81765
7227.00554,0.82320
7225.07680,0.82578
7223.14806,0.82264
7221.21931,0.82030
7219.29057,0.82272
7217.36182,0.82348
7215.43308,0.81925
7213.50433,0.81601
7211.57559,0.81610
7209.64684,0.81581
7207.71810,0.81370
7205.78936,0.81107
7203.86061,0.80927
7201.93187,0.81078
7200.00312,0.81622
7198.07438,0.81961
7196.14563,0.81750
7194.21689,0.81556
7192.28814,0.81642
7190.35940,0.81579
7188.43066,0.81296
7186.50191,0.81161
7184.57317,0.81268
7182.64442,0.81643
7180.71568,0.82317
7178.78693,0.82706
7176.85819,0.82401
7174.92944,0.81899
7173.00070,0.81639
7171.07196,0.81585
7169.14321,0.81534
7167.21447,0.81367
7165.28572,0.81310
7163.35698,0.81542
7161.42823,0.81898
7159.49949,0.82082
7157.57074,0.81853
7155.64200,0.81668
7153.71325,0.81980
7151.78451,0.82058
7149.85577,0.81420
7147.92702,0.80692
7145.99828,0.80395
7144.06953,0.80597
7142.14079,0.81138
7140.21204,0.81662
7138.28330,0.81839
7136.35455,0.81483
7134.42581,0.80846
7132.49707,0.80676
7130.56832,0.81055
7128.63958,0.81237
7126.71083,0.81092
7124.78209,0.81077
7122.85334,0.81248
7120.92460,0.81312
7118.99585,0.81109
7117.06711,0.81000
7115.13837,0.81402
7113.20962,0.81856
7111.28088,0.81643
7109.35213,0.80895
7107.42339,0.80282
7105.49464,0.80269
7103.56590,0.80642
7101.63715,0.80808
7099.70841,0.80545
7097.77967,0.80096
7095.85092,0.79976
7093.92218,0.80372
7091.99343,0.80874
7090.06469,0.81189
7088.13594,0.81350
7086.20720,0.81460
7084.27845,0.81448
7082.34971,0.81147
7080.42096,0.80716
7078.49222,0.80508
7076.56348,0.80612
7074.63473,0.80817
7072.70599,0.80797
7070.77724,0.80550
7068.84850,0.80413
7066.91975,0.80425
7064.99101,0.80468
7063.06226,0.80518
7061.13352,0.80524
7059.20478,0.80536
7057.27603,0.80501
7055.34729,0.80264
7053.41854,0.80029
7051.48980,0.80176
7049.56105,0.80565
7047.63231,0.80683
7045.70356,0.80532
7043.77482,0.80342
7041.84608,0.80104
7039.91733,0.79916
7037.98859,0.79874
7036.05984,0.80065
7034.13110,0.80479
7032.20235,0.80650
7030.27361,0.80339
7028.34486,0.80051
7026.41612,0.80230
7024.48738,0.80575
7022.55863,0.80660
7020.62989,0.80651
7018.70114,0.80823
7016.77240,0.81020
7014.84365,0.80835
7012.91491,0.80267
7010.98616,0.79916
7009.05742,0.80039
7007.12867,0.80231
7005.19993,0.80240
7003.27119,0.80136
7001.34244,0.80035
6999.41370,0.80140
6997.48495,0.80480
6995.55621,0.80766
6993.62746,0.80871
6991.69872,0.80862
6989.76997,0.80799
6987.84123,0.80752
6985.91249,0.80664
6983.98374,0.80488
6982.05500,0.80378
6980.12625,0.80461
6978.19751,0.80590
6976.26876,0.80766
6974.34002,0.81158
6972.41127,0.81354
6970.48253,0.81081
6968.55379,0.80809
6966.62504,0.80719
6964.69630,0.80591
6962.76755,0.80331
6960.83881,0.80206
6958.91006,0.80505
6956.98132,0.80769
6955.05257,0.80614
6953.12383,0.80510
6951.19509,0.80689
6949.26634,0.80796
6947.33760,0.80787
6945.40885,0.80846
6943.48011,0.80808
6941.55136,0.80658
6939.62262,0.80690
6937.69387,0.80937
6935.76513,0.81225
6933.83638,0.81363
6931.90764,0.81219
6929.97890,0.80807
6928.05015,0.80405
6926.12141,0.80504
6924.19266,0.81041
6922.26392,0.81256
6920.33517,0.80865
6918.40643,0.80388
6916.47768,0.80194
6914.54894,0.80139
6912.62020,0.80140
6910.69145,0.80238
6908.76271,0.80284
6906.83396,0.80254
6904.90522,0.80318
6902.97647,0.80346
6901.04773,0.80207
6899.11898,0.80206
6897.19024,0.80376
6895.26150,0.80394
6893.33275,0.80402
6891.40401,0.80541
6889.47526,0.80581
6887.54652,0.80557
6885.61777,0.80496
6883.68903,0.80381
6881.76028,0.80446
6879.83154,0.80632
6877.90280,0.80794
6875.97405,0.81071
6874.04531,0.81349
6872.11656,0.81303
6870.18782,0.80982
6868.25907,0.80758
6866.33033,0.80735
6864.40158,0.80732
6862.47284,0.80757
6860.54409,0.80951
6858.61535,0.81216
6856.68661,0.81262
6854.75786,0.81083
6852.82912,0.80931
6850.90037,0.80901
6848.97163,0.80945
6847.04288,0.81042
6845.11414,0.81281
6843.18539,0.81599
6841.25665,0.81615
6839.32791,0.81125
6837.39916,0.80547
6835.47042,0.80405
6833.54167,0.80586
6831.61293,0.80737
6829.68418,0.80792
6827.75544,0.80799
6825.82669,0.80810
6823.89795,0.80860
6821.96921,0.80951
6820.04046,0.81105
6818.11172,0.81347
6816.18297,0.81480
6814.25423,0.81231
6812.32548,0.80881
6810.39674,0.80871
6808.46799,0.81038
6806.53925,0.81128
6804.61051,0.81174
6802.68176,0.81163
6800.75302,0.81127
6798.82427,0.81005
6796.89553,0.80773
6794.96678,0.80766
6793.03804,0.80932
6791.10929,0.80940
6789.18055,0.80961
6787.25180,0.81164
6785.32306,0.81301
6783.39432,0.81213
6781.46557,0.81120
6779.53683,0.81133
6777.60808,0.81166
6775.67934,0.81348
6773.75059,0.81643
6771.82185,0.81657
6769.89310,0.81379
6767.96436,0.81257
6766.03562,0.81414
6764.10687,0.81590
6762.17813,0.81632
6760.24938,0.81526
6758.32064,0.81338
6756.39189,0.81288
6754.46315,0.81419
6752.53440,0.81554
6750.60566,0.81624
6748.67692,0.81616
6746.74817,0.81561
6744.81943,0.81492
6742.89068,0.81269
6740.96194,0.80976
6739.03319,0.80993
6737.10445,0.81292
6735.17570,0.81368
6733.24696,0.81142
6731.31822,0.81043
6729.38947,0.81147
6727.46073,0.81262
6725.53198,0.81461
6723.60324,0.81689
6721.67449,0.81628
6719.74575,0.81317
6717.81700,0.81089
6715.88826,0.81161
6713.95951,0.81402
6712.03077,0.81351
6710.10203,0.80970
6708.17328,0.80663
6706.24454,0.80638
6704.31579,0.80864
6702.38705,0.81028
6700.45830,0.81008
6698.52956,0.81181
6696.60081,0.81570
6694.67207,0.81709
6692.74333,0.81469
6690.81458,0.81260
6688.88584,0.81354
6686.95709,0.81518
6685.02835,0.81539
6683.09960,0.81520
6681.17086,0.81424
6679.24211,0.81080
6677.31337,0.80760
6675.38463,0.80845
6673.45588,0.81135
6671.52714,0.81335
6669.59839,0.81494
6667.66965,0.81587
6665.74090,0.81464
6663.81216,0.81192
6661.88341,0.81011
6659.95467,0.81034
6658.02593,0.81144
6656.09718,0.81174
6654.16844,0.81130
6652.23969,0.81109
6650.31095,0.81058
6648.38220,0.80982
6646.45346,0.81091
6644.52471,0.81424
6642.59597,0.81771
6640.66722,0.81930
6638.73848,0.81832
6636.80974,0.81619
6634.88099,0.81478
6632.95225,0.81367
6631.02350,0.81209
6629.09476,0.81105
6627.16601,0.80968
6625.23727,0.80682
6623.30852,0.80554
6621.37978,0.80747
6619.45104,0.81063
6617.52229,0.81337
6615.59355,0.81396
6613.66480,0.81310
6611.73606,0.81413
6609.80731,0.81661
6607.87857,0.81731
6605.94982,0.81624
6604.02108,0.81513
6602.09234,0.81394
6600.16359,0.81240
6598.23485,0.81125
6596.30610,0.81139
6594.37736,0.81288
6592.44861,0.81404
6590.51987,0.81428
6588.59112,0.81517
6586.66238,0.81621
6584.73364,0.81497
6582.80489,0.81258
6580.87615,0.81245
6578.94740,0.81414
6577.01866,0.81551
6575.08991,0.81645
6573.16117,0.81690
6571.23242,0.81642
6569.30368,0.81501
6567.37493,0.81383
6565.44619,0.81443
6563.51745,0.81672
6561.58870,0.81910
6559.65996,0.82027
6557.73121,0.81974
6555.80247,0.81761
6553.87372,0.81638
6551.94498,0.81742
6550.01623,0.81768
6548.08749,0.81680
6546.15875,0.81695
6544.23000,0.81782
6542.30126,0.81942
6540.37251,0.82178
6538.44377,0.82283
6536.51502,0.82236
6534.58628,0.82210
6532.65753,0.82163
6530.72879,0.82031
6528.80005,0.81914
6526.87130,0.81881
6524.94256,0.81914
6523.01381,0.81938
6521.08507,0.81908
6519.15632,0.81904
6517.22758,0.81984
6515.29883,0.81961
6513.37009,0.81723
6511.44135,0.81523
6509.51260,0.81523
6507.58386,0.81534
6505.65511,0.81434
6503.72637,0.81455
6501.79762,0.81690
6499.86888,0.81841
6497.94013,0.81868
6496.01139,0.81918
6494.08264,0.81908
6492.15390,0.81779
6490.22516,0.81624
6488.29641,0.81549
6486.36767,0.81642
6484.43892,0.81905
6482.51018,0.82096
6480.58143,0.81925
6478.65269,0.81616
6476.72394,0.81593
6474.79520,0.81699
6472.86646,0.81677
6470.93771,0.81711
6469.00897,0.81771
6467.08022,0.81681
6465.15148,0.81637
6463.22273,0.81722
6461.29399,0.81868
6459.36524,0.82091
6457.43650,0.82212
6455.50776,0.82242
6453.57901,0.82309
6451.65027,0.82176
6449.72152,0.81918
6447.79278,0.81829
6445.86403,0.81801
6443.93529,0.81692
6442.00654,0.81551
6440.07780,0.81488
6438.14906,0.81624
6436.22031,0.81886
6434.29157,0.81941
6432.36282,0.81769
6430.43408,0.81779
6428.50533,0.81947
6426.57659,0.81931
6424.64784,0.81804
6422.71910,0.81723
6420.79035,0.81683
6418.86161,0.81728
6416.93287,0.81827
6415.00412,0.81863
6413.07538,0.81820
6411.14663,0.81775
6409.21789,0.81818
6407.28914,0.81953
6405.36040,0.82193
6403.43165,0.82507
6401.50291,0.82568
6399.57417,0.82267
6397.64542,0.82017
6395.71668,0.82051
6393.78793,0.82099
6391.85919,0.81975
6389.93044,0.81844
6388.00170,0.81816
6386.07295,0.81823
6384.14421,0.81802
6382.21547,0.81741
6380.28672,0.81659
6378.35798,0.81569
6376.42923,0.81547
6374.50049,0.81712
6372.57174,0.81977
6370.64300,0.82148
6368.71425,0.82241
6366.78551,0.82257
6364.85677,0.82166
6362.92802,0.82159
6360.99928,0.82235
6359.07053,0.82222
6357.14179,0.82127
6355.21304,0.81911
6353.28430,0.81639
6351.35555,0.81565
6349.42681,0.81618
6347.49806,0.81606
6345.56932,0.81581
6343.64058,0.81568
6341.71183,0.81594
6339.78309,0.81716
6337.85434,0.81786
6335.92560,0.81770
6333.99685,0.81857
6332.06811,0.81947
6330.13936,0.81779
6328.21062,0.81496
6326.28188,0.81388
6324.35313,0.81501
6322.42439,0.81685
6320.49564,0.81733
6318.56690,0.81663
6316.63815,0.81675
6314.70941,0.81750
6312.78066,0.81707
6310.85192,0.81584
6308.92318,0.81583
6306.99443,0.81728
6305.06569,0.81915
6303.13694,0.82042
6301.20820,0.82027
6299.27945,0.81894
6297.35071,0.81784
6295.42196,0.81782
6293.49322,0.81793
6291.56447,0.81823
6289.63573,0.81932
6287.70699,0.81912
6285.77824,0.81628
6283.84950,0.81403
6281.92075,0.81502
6279.99201,0.81658
6278.06326,0.81657
6276.13452,0.81628
6274.20577,0.81609
6272.27703,0.81623
6270.34829,0.81754
6268.41954,0.81873
6266.49080,0.81771
6264.56205,0.81536
6262.63331,0.81430
6260.70456,0.81464
6258.77582,0.81502
6256.84707,0.81589
6254.91833,0.81750
6252.98959,0.81888
6251.06084,0.82019
6249.13210,0.82082
6247.20335,0.81899
6245.27461,0.81640
6243.34586,0.81508
6241.41712,0.81369
6239.48837,0.81267
6237.55963,0.81369
6235.63089,0.81483
6233.70214,0.81433
6231.77340,0.81372
6229.84465,0.81429
6227.91591,0.81551
6225.98716,0.81625
6224.05842,0.81604
6222.12967,0.81491
6220.20093,0.81341
6218.27218,0.81303
6216.34344,0.81398
6214.41470,0.81475
6212.48595,0.81423
6210.55721,0.81255
6208.62846,0.81075
6206.69972,0.80975
6204.77097,0.80947
6202.84223,0.80884
6200.91348,0.80684
6198.98474,0.80504
6197.05600,0.80597
6195.12725,0.80775
6193.19851,0.80734
6191.26976,0.80608
6189.34102,0.80512
6187.41227,0.80430
6185.48353,0.80534
6183.55478,0.80778
6181.62604,0.80849
6179.69730,0.80720
6177.76855,0.80639
6175.83981,0.80712
6173.91106,0.80806
6171.98232,0.80804
6170.05357,0.80728
6168.12483,0.80667
6166.19608,0.80628
6164.26734,0.80488
6162.33860,0.80277
6160.40985,0.80165
6158.48111,0.80121
6156.55236,0.80064
6154.62362,0.80059
6152.69487,0.80112
6150.76613,0.80080
6148.83738,0.79951
6146.90864,0.79897
6144.97989,0.79889
6143.05115,0.79806
6141.12241,0.79692
6139.19366,0.79561
6137.26492,0.79481
6135.33617,0.79577
6133.40743,0.79729
6131.47868,0.79705
6129.54994,0.79554
6127.62119,0.79471
6125.69245,0.79440
6123.76371,0.79323
6121.83496,0.79115
6119.90622,0.78903
6117.97747,0.78700
6116.04873,0.78533
6114.11998,0.78482
6112.19124,0.78466
6110.26249,0.78303
6108.33375,0.77995
6106.40501,0.77677
6104.47626,0.77446
6102.54752,0.77268
6100.61877,0.77052
6098.69003,0.76824
6096.76128,0.76577
6094.83254,0.76218
6092.90379,0.75878
6090.97505,0.75742
6089.04631,0.75643
6087.11756,0.75315
6085.18882,0.74913
6083.26007,0.74676
6081.33133,0.74474
6079.40258,0.74247
6077.47384,0.74076
6075.54509,0.73910
6073.61635,0.73760
6071.68760,0.73630
6069.75886,0.73360
6067.83012,0.72949
6065.90137,0.72564
6063.97263,0.72243
6062.04388,0.71885
6060.11514,0.71500
6058.18639,0.71234
6056.25765,0.71037
6054.32890,0.70806
6052.40016,0.70659
6050.47142,0.70574
6048.54267,0.70433
6046.61393,0.70257
6044.68518,0.69967
6042.75644,0.69543
6040.82769,0.69189
6038.89895,0.68983
6036.97020,0.68748
6035.04146,0.68449
6033.11272,0.68288
6031.18397,0.68270
6029.25523,0.68185
6027.32648,0.67973
6025.39774,0.67764
6023.46899,0.67612
6021.54025,0.67470
6019.61150,0.67413
6017.68276,0.67544
6015.75402,0.67756
6013.82527,0.67891
6011.89653,0.67966
6009.96778,0.68045
6008.03904,0.68137
6006.11029,0.68329
6004.18155,0.68701
6002.25280,0.69214
6000.32406,0.69701
5998.39531,0.69934
5996.46657,0.70015
5994.53783,0.70234
5992.60908,0.70543
5990.68034,0.70791
5988.75159,0.71020
5986.82285,0.71242
5984.89410,0.71353
5982.96536,0.71270
5981.03661,0.71104
5979.10787,0.71026
5977.17913,0.71038
5975.25038,0.71148
5973.32164,0.71388
5971.39289,0.71667
5969.46415,0.71886
5967.53540,0.72063
5965.60666,0.72292
5963.67791,0.72525
5961.74917,0.72650
5959.82043,0.72712
5957.89168,0.72745
5955.96294,0.72756
5954.03419,0.72796
5952.10545,0.72837
5950.17670,0.72886
5948.24796,0.73005
5946.31921,0.73134
5944.39047,0.73162
5942.46173,0.73098
5940.53298,0.73068
5938.60424,0.73153
5936.67549,0.73302
5934.74675,0.73532
5932.81800,0.73878
5930.88926,0.74117
5928.96051,0.74142
5927.03177,0.74218
5925.10302,0.74441
5923.17428,0.74655
5921.24554,0.74858
5919.31679,0.75177
5917.38805,0.75521
5915.45930,0.75666
5913.53056,0.75639
5911.60181,0.75637
5909.67307,0.75718
5907.74432,0.75835
5905.81558,0.75938
5903.88684,0.76033
5901.95809,0.76147
5900.02935,0.76211
5898.10060,0.76138
5896.17186,0.76021
5894.24311,0.76004
5892.31437,0.75950
5890.38562,0.75704
5888.45688,0.75457
5886.52814,0.75371
5884.59939,0.75374
5882.67065,0.75391
5880.74190,0.75326
5878.81316,0.75138
5876.88441,0.74950
5874.95567,0.74833
5873.02692,0.74777
5871.09818,0.74791
5869.16944,0.74792
5867.24069,0.74714
5865.31195,0.74631
5863.38320,0.74626
5861.45446,0.74678
5859.52571,0.74713
5857.59697,0.74725
5855.66822,0.74768
5853.73948,0.74837
5851.81073,0.74884
5849.88199,0.74898
5847.95325,0.74944
5846.02450,0.75065
5844.09576,0.75171
5842.16701,0.75184
5840.23827,0.75118
5838.30952,0.75049
5836.38078,0.75045
5834.45203,0.75081
5832.52329,0.75095
5830.59455,0.75052
5828.66580,0.75009
5826.73706,0.75019
5824.80831,0.75010
5822.87957,0.74947
5820.95082,0.74915
5819.02208,0.74928
5817.09333,0.74936
5815.16459,0.74951
5813.23585,0.74937
5811.30710,0.74861
5809.37836,0.74864
5807.44961,0.74942
5805.52087,0.74938
5803.59212,0.74887
5801.66338,0.74898
5799.73463,0.74983
5797.80589,0.75063
5795.87715,0.75038
5793.94840,0.74958
5792.01966,0.74963
5790.09091,0.75075
5788.16217,0.75182
5786.23342,0.75214
5784.30468,0.75210
5782.37593,0.75228
5780.44719,0.75260
5778.51844,0.75309
5776.58970,0.75419
5774.66096,0.75534
5772.73221,0.75550
5770.80347,0.75471
5768.87472,0.75393
5766.94598,0.75445
5765.01723,0.75625
5763.08849,0.75775
5761.15974,0.75843
5759.23100,0.75952
5757.30226,0.76093
5755.37351,0.76109
5753.44477,0.76033
5751.51602,0.75993
5749.58728,0.76050
5747.65853,0.76229
5745.72979,0.76451
5743.80104,0.76615
5741.87230,0.76686
5739.94356,0.76660
5738.01481,0.76676
5736.08607,0.76806
5734.15732,0.76869
5732.22858,0.76889
5730.29983,0.77060
5728.37109,0.77270
5726.44234,0.77369
5724.51360,0.77430
5722.58486,0.77459
5720.65611,0.77442
5718.72737,0.77495
5716.79862,0.77557
5714.86988,0.77447
5712.94113,0.77318
5711.01239,0.77395
5709.08364,0.77605
5707.15490,0.77728
5705.22615,0.77597
5703.29741,0.77354
5701.36867,0.77266
5699.43992,0.77296
5697.51118,0.77349
5695.58243,0.77440
5693.65369,0.77518
5691.72494,0.77568
5689.79620,0.77671
5687.86745,0.77795
5685.93871,0.77791
5684.00997,0.77691
5682.08122,0.77649
5680.15248,0.77672
5678.22373,0.77758
5676.29499,0.77911
5674.36624,0.78026
5672.43750,0.78012
5670.50875,0.77944
5668.58001,0.77938
5666.65127,0.77906
5664.72252,0.77838
5662.79378,0.77866
5660.86503,0.77901
5658.93629,0.77872
5657.00754,0.77902
5655.07880,0.78004
5653.15005,0.78052
5651.22131,0.78025
5649.29257,0.78023
5647.36382,0.78051
5645.43508,0.78070
5643.50633,0.78114
5641.57759,0.78168
5639.64884,0.78198
5637.72010,0.78236
5635.79135,0.78307
5633.86261,0.78395
5631.93386,0.78497
5630.00512,0.78589
5628.07638,0.78654
5626.14763,0.78687
5624.21889,0.78660
5622.29014,0.78650
5620.36140,0.78734
5618.43265,0.78850
5616.50391,0.78951
5614.57516,0.79008
5612.64642,0.78941
5610.71768,0.78799
5608.78893,0.78746
5606.86019,0.78791
5604.93144,0.78811
5603.00270,0.78780
5601.07395,0.78777
5599.14521,0.78820
5597.21646,0.78840
5595.28772,0.78782
5593.35898,0.78686
5591.43023,0.78657
5589.50149,0.78661
5587.57274,0.78579
5585.64400,0.78462
5583.71525,0.78412
5581.78651,0.78425
5579.85776,0.78443
5577.92902,0.78408
5576.00028,0.78351
5574.07153,0.78333
5572.14279,0.78328
5570.21404,0.78273
5568.28530,0.78203
5566.35655,0.78216
5564.42781,0.78292
5562.49906,0.78306
5560.57032,0.78266
5558.64157,0.78249
5556.71283,0.78232
5554.78409,0.78259
5552.85534,0.78382
5550.92660,0.78459
5548.99785,0.78414
5547.06911,0.78363
5545.14036,0.78347
5543.21162,0.78310
5541.28287,0.78262
5539.35413,0.78265
5537.42539,0.78314
5535.49664,0.78336
5533.56790,0.78304
5531.63915,0.78260
5529.71041,0.78236
5527.78166,0.78225
5525.85292,0.78240
5523.92417,0.78295
5521.99543,0.78328
5520.06669,0.78320
5518.13794,0.78323
5516.20920,0.78389
5514.28045,0.78595
5512.35171,0.78831
5510.42296,0.78848
5508.49422,0.78672
5506.56547,0.78498
5504.63673,0.78411
5502.70799,0.78398
5500.77924,0.78453
5498.85050,0.78540
5496.92175,0.78587
5494.99301,0.78555
5493.06426,0.78427
5491.13552,0.78291
5489.20677,0.78242
5487.27803,0.78223
5485.34928,0.78155
5483.42054,0.78061
5481.49180,0.78067
5479.56305,0.78180
5477.63431,0.78226
5475.70556,0.78160
5473.77682,0.78129
5471.84807,0.78199
5469.91933,0.78276
5467.99058,0.78292
5466.06184,0.78316
5464.13310,0.78470
5462.20435,0.78696
5460.27561,0.78789
5458.34686,0.78719
5456.41812,0.78608
5454.48937,0.78553
5452.56063,0.78562
5450.63188,0.78606
5448.70314,0.78703
5446.77440,0.78819
5444.84565,0.78898
5442.91691,0.79001
5440.98816,0.79092
5439.05942,0.79084
5437.13067,0.79096
5435.20193,0.79179
5433.27318,0.79225
5431.34444,0.79261
5429.41569,0.79331
5427.48695,0.79423
5425.55821,0.79499
5423.62946,0.79522
5421.70072,0.79549
5419.77197,0.79593
5417.84323,0.79610
5415.91448,0.79628
5413.98574,0.79663
5412.05699,0.79647
5410.12825,0.79543
5408.19951,0.79454
5406.27076,0.79497
5404.34202,0.79572
5402.41327,0.79527
5400.48453,0.79465
5398.55578,0.79508
5396.62704,0.79567
5394.69829,0.79609
5392.76955,0.79691
5390.84081,0.79756
5388.91206,0.79732
5386.98332,0.79659
5385.05457,0.79657
5383.12583,0.79704
5381.19708,0.79685
5379.26834,0.79684
5377.33959,0.79716
5375.41085,0.79650
5373.48211,0.79569
5371.55336,0.79542
5369.62462,0.79500
5367.69587,0.79503
5365.76713,0.79594
5363.83838,0.79662
5361.90964,0.79638
5359.98089,0.79531
5358.05215,0.79411
5356.12340,0.79387
5354.19466,0.79438
5352.26592,0.79447
5350.33717,0.79412
5348.40843,0.79372
5346.47968,0.79340
5344.55094,0.79374
5342.62219,0.79440
5340.69345,0.79437
5338.76470,0.79425
5336.83596,0.79495
5334.90722,0.79588
5332.97847,0.79656
5331.04973,0.79690
5329.12098,0.79662
5327.19224,0.79628
5325.26349,0.79688
5323.33475,0.79754
5321.40600,0.79666
5319.47726,0.79529
5317.54852,0.79486
5315.61977,0.79501
5313.69103,0.79529
5311.76228,0.79541
5309.83354,0.79522
5307.90479,0.79480
5305.97605,0.79391
5304.04730,0.79341
5302.11856,0.79421
5300.18982,0.79528
5298.26107,0.79543
5296.33233,0.79479
5294.40358,0.79375
5292.47484,0.79266
5290.54609,0.79172
5288.61735,0.79081
5286.68860,0.79022
5284.75986,0.79040
5282.83111,0.79088
5280.90237,0.79042
5278.97363,0.78898
5277.04488,0.78773
5275.11614,0.78684
5273.18739,0.78595
5271.25865,0.78504
5269.32990,0.78421
5267.40116,0.78351
5265.47241,0.78293
5263.54367,0.78264
5261.61493,0.78264
5259.68618,0.78281
5257.75744,0.78312
5255.82869,0.78318
5253.89995,0.78265
5251.97120,0.78154
5250.04246,0.78043
5248.11371,0.77984
5246.18497,0.77964
5244.25623,0.77985
5242.32748,0.78021
5240.39874,0.78013
5238.46999,0.77976
5236.54125,0.77945
5234.61250,0.77925
5232.68376,0.77928
5230.75501,0.77928
5228.82627,0.77899
5226.89753,0.77884
5224.96878,0.77876
5223.04004,0.77869
5221.11129,0.77904
5219.18255,0.77950
5217.25380,0.77934
5215.32506,0.77882
5213.39631,0.77892
5211.46757,0.77982
5209.53882,0.78068
5207.61008,0.78094
5205.68134,0.78062
5203.75259,0.78037
5201.82385,0.78062
5199.89510,0.78093
5197.96636,0.78090
5196.03761,0.78062
5194.10887,0.78062
5192.18012,0.78111
5190.25138,0.78137
5188.32264,0.78074
5186.39389,0.77978
5184.46515,0.77956
5182.53640,0.77999
5180.60766,0.78006
5178.67891,0.77961
5176.75017,0.77926
5174.82142,0.77906
5172.89268,0.77886
5170.96394,0.77901
5169.03519,0.77940
5167.10645,0.77932
5165.17770,0.77878
5163.24896,0.77834
5161.32021,0.77763
5159.39147,0.77617
5157.46272,0.77473
5155.53398,0.77395
5153.60524,0.77346
5151.67649,0.77287
5149.74775,0.77224
5147.81900,0.77203
5145.89026,0.77257
5143.96151,0.77289
5142.03277,0.77167
5140.10402,0.76972
5138.17528,0.76855
5136.24653,0.76796
5134.31779,0.76731
5132.38905,0.76678
5130.46030,0.76638
5128.53156,0.76537
5126.60281,0.76383
5124.67407,0.76282
5122.74532,0.76227
5120.81658,0.76156
5118.88783,0.76072
5116.95909,0.76027
5115.03035,0.76105
5113.10160,0.76294
5111.17286,0.76433
5109.24411,0.76470
5107.31537,0.76552
5105.38662,0.76759
5103.45788,0.76966
5101.52913,0.77115
5099.60039,0.77267
5097.67165,0.77412
5095.74290,0.77525
5093.81416,0.77636
5091.88541,0.77773
5089.95667,0.77926
5088.02792,0.78024
5086.09918,0.78046
5084.17043,0.78067
5082.24169,0.78136
5080.31295,0.78243
5078.38420,0.78301
5076.45546,0.78234
5074.52671,0.78147
5072.59797,0.78163
5070.66922,0.78234
5068.74048,0.78299
5066.81173,0.78393
5064.88299,0.78529
5062.95424,0.78613
5061.02550,0.78586
5059.09676,0.78540
5057.16801,0.78557
5055.23927,0.78602
5053.31052,0.78601
5051.38178,0.78540
5049.45303,0.78510
5047.52429,0.78534
5045.59554,0.78523
5043.66680,0.78469
5041.73806,0.78452
5039.80931,0.78521
5037.88057,0.78615
5035.95182,0.78641
5034.02308,0.78592
5032.09433,0.78510
5030.16559,0.78456
5028.23684,0.78466
5026.30810,0.78482
5024.37936,0.78451
5022.45061,0.78428
5020.52187,0.78488
5018.59312,0.78582
5016.66438,0.78571
5014.73563,0.78463
5012.80689,0.78425
5010.87814,0.78478
5008.94940,0.78486
5007.02066,0.78459
5005.09191,0.78501
5003.16317,0.78551
5001.23442,0.78536
4999.30568,0.78515
4997.37693,0.78528
4995.44819,0.78573
4993.51944,0.78629
4991.59070,0.78645
4989.66195,0.78630
4987.73321,0.78644
4985.80447,0.78679
4983.87572,0.78662
4981.94698,0.78578
4980.01823,0.78505
4978.08949,0.78488
4976.16074,0.78508
4974.23200,0.78542
4972.30325,0.78583
4970.37451,0.78623
4968.44577,0.78614
4966.51702,0.78551
4964.58828,0.78514
4962.65953,0.78485
4960.73079,0.78389
4958.80204,0.78291
4956.87330,0.78254
4954.94455,0.78225
4953.01581,0.78164
4951.08707,0.78086
4949.15832,0.78018
4947.22958,0.77971
4945.30083,0.77935
4943.37209,0.77892
4941.44334,0.77833
4939.51460,0.77770
4937.58585,0.77720
4935.65711,0.77684
4933.72837,0.77656
4931.79962,0.77640
4929.87088,0.77618
4927.94213,0.77599
4926.01339,0.77621
4924.08464,0.77631
4922.15590,0.77586
4920.22715,0.77545
4918.29841,0.77524
4916.36966,0.77506
4914.44092,0.77494
4912.51218,0.77480
4910.58343,0.77456
4908.65469,0.77407
4906.72594,0.77342
4904.79720,0.77256
4902.86845,0.77142
4900.93971,0.77058
4899.01096,0.77058
4897.08222,0.77065
4895.15348,0.77002
4893.22473,0.76956
4891.29599,0.76954
4889.36724,0.76907
4887.43850,0.76859
4885.50975,0.76841
4883.58101,0.76804
4881.65226,0.76787
4879.72352,0.76828
4877.79478,0.76889
4875.86603,0.76912
4873.93729,0.76870
4872.00854,0.76798
4870.07980,0.76758
4868.15105,0.76784
4866.22231,0.76810
4864.29356,0.76747
4862.36482,0.76654
4860.43608,0.76664
4858.50733,0.76748
4856.57859,0.76739
4854.64984,0.76617
4852.72110,0.76520
4850.79235,0.76482
4848.86361,0.76439
4846.93486,0.76364
4845.00612,0.76273
4843.07737,0.76176
4841.14863,0.76063
4839.21989,0.75937
4837.29114,0.75785
4835.36240,0.75624
4833.43365,0.75509
4831.50491,0.75428
4829.57616,0.75310
4827.64742,0.75157
4825.71867,0.75047
4823.78993,0.74994
4821.86119,0.74941
4819.93244,0.74853
4818.00370,0.74736
4816.07495,0.74633
4814.14621,0.74564
4812.21746,0.74489
4810.28872,0.74373
4808.35997,0.74247
4806.43123,0.74151
4804.50249,0.74062
4802.57374,0.73949
4800.64500,0.73833
4798.71625,0.73742
4796.78751,0.73695
4794.85876,0.73696
4792.93002,0.73719
4791.00127,0.73761
4789.07253,0.73807
4787.14379,0.73848
4785.21504,0.73935
4783.28630,0.74048
4781.35755,0.74123
4779.42881,0.74198
4777.50006,0.74297
4775.57132,0.74359
4773.64257,0.74384
4771.71383,0.74437
4769.78508,0.74508
4767.85634,0.74521
4765.92760,0.74490
4763.99885,0.74462
4762.07011,0.74408
4760.14136,0.74296
4758.21262,0.74150
4756.28387,0.74008
4754.35513,0.73852
4752.42638,0.73633
4750.49764,0.73392
4748.56890,0.73193
4746.64015,0.73011
4744.71141,0.72840
4742.78266,0.72677
4740.85392,0.72448
4738.92517,0.72132
4736.99643,0.71801
4735.06768,0.71523
4733.13894,0.71285
4731.21020,0.70989
4729.28145,0.70615
4727.35271,0.70223
4725.42396,0.69828
4723.49522,0.69453
4721.56647,0.69154
4719.63773,0.68965
4717.70898,0.68866
4715.78024,0.68802
4713.85150,0.68733
4711.92275,0.68657
4709.99401,0.68569
4708.06526,0.68441
4706.13652,0.68231
4704.20777,0.67902
4702.27903,0.67447
4700.35028,0.66913
4698.42154,0.66405
4696.49279,0.65963
4694.56405,0.65563
4692.63531,0.65264
4690.70656,0.65139
4688.77782,0.65144
4686.84907,0.65243
4684.92033,0.65491
4682.99158,0.65890
4681.06284,0.66343
4679.13409,0.66792
4677.20535,0.67261
4675.27661,0.67791
4673.34786,0.68339
4671.41912,0.68781
4669.49037,0.69061
4667.56163,0.69257
4665.63288,0.69438
4663.70414,0.69563
4661.77539,0.69588
4659.84665,0.69574
4657.91791,0.69585
4655.98916,0.69607
4654.06042,0.69568
4652.13167,0.69419
4650.20293,0.69181
4648.27418,0.68865
4646.34544,0.68476
4644.41669,0.68061
4642.48795,0.67669
4640.55921,0.67305
4638.63046,0.66975
4636.70172,0.66774
4634.77297,0.66757
4632.84423,0.66865
4630.91548,0.67083
4628.98674,0.67454
4627.05799,0.67995
4625.12925,0.68627
4623.20050,0.69226
4621.27176,0.69774
4619.34302,0.70292
4617.41427,0.70734
4615.48553,0.71069
4613.55678,0.71339
4611.62804,0.71589
4609.69929,0.71767
4607.77055,0.71806
4605.84180,0.71748
4603.91306,0.71649
4601.98432,0.71481
4600.05557,0.71210
4598.12683,0.70877
4596.19808,0.70547
4594.26934,0.70260
4592.34059,0.70054
4590.41185,0.69934
4588.48310,0.69843
4586.55436,0.69698
4584.62562,0.69447
4582.69687,0.69166
4580.76813,0.69019
4578.83938,0.69058
4576.91064,0.69248
4574.98189,0.69572
4573.05315,0.69986
4571.12440,0.70451
4569.19566,0.70939
4567.26692,0.71374
4565.33817,0.71722
4563.40943,0.72032
4561.48068,0.72290
4559.55194,0.72457
4557.62319,0.72561
4555.69445,0.72622
4553.76570,0.72630
4551.83696,0.72605
4549.90821,0.72590
4547.97947,0.72596
4546.05073,0.72596
4544.12198,0.72579
4542.19324,0.72545
4540.26449,0.72519
4538.33575,0.72520
4536.40700,0.72525
4534.47826,0.72499
4532.54951,0.72437
4530.62077,0.72378
4528.69203,0.72326
4526.76328,0.72224
4524.83454,0.72080
4522.90579,0.71947
4520.97705,0.71835
4519.04830,0.71732
4517.11956,0.71608
4515.19081,0.71455
4513.26207,0.71292
4511.33333,0.71091
4509.40458,0.70806
4507.47584,0.70467
4505.54709,0.70135
4503.61835,0.69802
4501.68960,0.69421
4499.76086,0.68970
4497.83211,0.68448
4495.90337,0.67901
4493.97462,0.67391
4492.04588,0.66947
4490.11714,0.66576
4488.18839,0.66268
4486.25965,0.66023
4484.33090,0.65835
4482.40216,0.65656
4480.47341,0.65458
4478.54467,0.65229
4476.61592,0.64948
4474.68718,0.64601
4472.75844,0.64188
4470.82969,0.63700
4468.90095,0.63114
4466.97220,0.62440
4465.04346,0.61718
4463.11471,0.60992
4461.18597,0.60346
4459.25722,0.59891
4457.32848,0.59670
4455.39974,0.59615
4453.47099,0.59639
4451.54225,0.59713
4449.61350,0.59802
4447.68476,0.59845
4445.75601,0.59810
4443.82727,0.59688
4441.89852,0.59492
4439.96978,0.59267
4438.04104,0.59045
4436.11229,0.58852
4434.18355,0.58744
4432.25480,0.58739
4430.32606,0.58807
4428.39731,0.58954
4426.46857,0.59186
4424.53982,0.59499
4422.61108,0.59865
4420.68233,0.60207
4418.75359,0.60486
4416.82485,0.60736
4414.89610,0.60961
4412.96736,0.61095
4411.03861,0.61111
4409.10987,0.61082
4407.18112,0.61086
4405.25238,0.61129
4403.32363,0.61206
4401.39489,0.61320
4399.46615,0.61455
4397.53740,0.61627
4395.60866,0.61840
4393.67991,0.62051
4391.75117,0.62224
4389.82242,0.62352
4387.89368,0.62474
4385.96493,0.62619
4384.03619,0.62741
4382.10745,0.62817
4380.17870,0.62890
4378.24996,0.62967
4376.32121,0.62999
4374.39247,0.62978
4372.46372,0.62939
4370.53498,0.62883
4368.60623,0.62804
4366.67749,0.62727
4364.74875,0.62650
4362.82000,0.62543
4360.89126,0.62459
4358.96251,0.62466
4357.03377,0.62527
4355.10502,0.62538
4353.17628,0.62449
4351.24753,0.62322
4349.31879,0.62213
4347.39004,0.62111
4345.46130,0.62002
4343.53256,0.61892
4341.60381,0.61788
4339.67507,0.61692
4337.74632,0.61617
4335.81758,0.61579
4333.88883,0.61581
4331.96009,0.61612
4330.03134,0.61644
4328.10260,0.61670
4326.17386,0.61685
4324.24511,0.61692
4322.31637,0.61714
4320.38762,0.61697
4318.45888,0.61609
4316.53013,0.61526
4314.60139,0.61446
4312.67264,0.61286
4310.74390,0.61041
4308.81516,0.60779
4306.88641,0.60554
4304.95767,0.60327
4303.02892,0.60054
4301.10018,0.59791
4299.17143,0.59592
4297.24269,0.59455
4295.31394,0.59348
4293.38520,0.59255
4291.45646,0.59205
4289.52771,0.59231
4287.59897,0.59317
4285.67022,0.59425
4283.74148,0.59529
4281.81273,0.59627
4279.88399,0.59723
4277.95524,0.59828
4276.02650,0.59919
4274.09775,0.59966
4272.16901,0.60009
4270.24027,0.60098
4268.31152,0.60226
4266.38278,0.60371
4264.45403,0.60507
4262.52529,0.60605
4260.59654,0.60653
4258.66780,0.60662
4256.73905,0.60649
4254.81031,0.60606
4252.88157,0.60532
4250.95282,0.60446
4249.02408,0.60374
4247.09533,0.60328
4245.16659,0.60281
4243.23784,0.60247
4241.30910,0.60295
4239.38035,0.60410
4237.45161,0.60493
4235.52287,0.60494
4233.59412,0.60466
4231.66538,0.60463
4229.73663,0.60477
4227.80789,0.60488
4225.87914,0.60517
4223.95040,0.60602
4222.02165,0.60724
4220.09291,0.60841
4218.16417,0.60969
4216.23542,0.61153
4214.30668,0.61361
4212.37793,0.61530
4210.44919,0.61652
4208.52044,0.61744
4206.59170,0.61807
4204.66295,0.61834
4202.73421,0.61844
4200.80546,0.61874
4198.87672,0.61916
4196.94798,0.61932
4195.01923,0.61903
4193.09049,0.61844
4191.16174,0.61774
4189.23300,0.61674
4187.30425,0.61511
4185.37551,0.61280
4183.44676,0.60988
4181.51802,0.60685
4179.58928,0.60467
4177.66053,0.60398
4175.73179,0.60472
4173.80304,0.60647
4171.87430,0.60873
4169.94555,0.61119
4168.01681,0.61368
4166.08806,0.61605
4164.15932,0.61826
4162.23058,0.62036
4160.30183,0.62227
4158.37309,0.62395
4156.44434,0.62532
4154.51560,0.62643
4152.58685,0.62742
4150.65811,0.62789
4148.72936,0.62745
4146.80062,0.62661
4144.87188,0.62563
4142.94313,0.62390
4141.01439,0.62122
4139.08564,0.61815
4137.15690,0.61527
4135.22815,0.61308
4133.29941,0.61178
4131.37066,0.61094
4129.44192,0.61008
4127.51317,0.60933
4125.58443,0.60895
4123.65569,0.60866
4121.72694,0.60827
4119.79820,0.60773
4117.86945,0.60673
4115.94071,0.60491
4114.01196,0.60250
4112.08322,0.59994
4110.15447,0.59716
4108.22573,0.59389
4106.29699,0.58988
4104.36824,0.58510
4102.43950,0.58003
4100.51075,0.57442
4098.58201,0.56708
4096.65326,0.55784
4094.72452,0.54861
4092.79577,0.54196
4090.86703,0.53944
4088.93829,0.54074
4087.00954,0.54428
4085.08080,0.54910
4083.15205,0.55505
4081.22331,0.56179
4079.29456,0.56893
4077.36582,0.57613
4075.43707,0.58303
4073.50833,0.58914
4071.57959,0.59385
4069.65084,0.59732
4067.72210,0.60029
4065.79335,0.60303
4063.86461,0.60538
4061.93586,0.60725
4060.00712,0.60897
4058.07837,0.61073
4056.14963,0.61213
4054.22088,0.61326
4052.29214,0.61458
4050.36340,0.61612
4048.43465,0.61761
4046.50591,0.61897
4044.57716,0.62027
4042.64842,0.62168
4040.71967,0.62343
4038.79093,0.62537
4036.86218,0.62709
4034.93344,0.62845
4033.00470,0.62941
4031.07595,0.63014
4029.14721,0.63091
4027.21846,0.63163
4025.28972,0.63192
4023.36097,0.63176
4021.43223,0.63158
4019.50348,0.63135
4017.57474,0.63075
4015.64600,0.62996
4013.71725,0.62975
4011.78851,0.63023
4009.85976,0.63073
4007.93102,0.63102
4006.00227,0.63160
4004.07353,0.63238
4002.14478,0.63276
4000.21604,0.63283
3998.28730,0.63316
3996.35855,0.63379
3994.42981,0.63462
3992.50106,0.63584
3990.57232,0.63712
3988.64357,0.63790
3986.71483,0.63834
3984.78608,0.63886
3982.85734,0.63926
3980.92859,0.63931
3978.99985,0.63919
3977.07111,0.63919
3975.14236,0.63948
3973.21362,0.63976
3971.28487,0.63973
3969.35613,0.63968
3967.42738,0.64005
3965.49864,0.64081
3963.56989,0.64181
3961.64115,0.64296
3959.71241,0.64424
3957.78366,0.64558
3955.85492,0.64684
3953.92617,0.64792
3951.99743,0.64896
3950.06868,0.65015
3948.13994,0.65123
3946.21119,0.65187
3944.28245,0.65219
3942.35371,0.65264
3940.42496,0.65325
3938.49622,0.65365
3936.56747,0.65382
3934.63873,0.65399
3932.70998,0.65408
3930.78124,0.65407
3928.85249,0.65418
3926.92375,0.65436
3924.99501,0.65438
3923.06626,0.65432
3921.13752,0.65431
3919.20877,0.65432
3917.28003,0.65446
3915.35128,0.65495
3913.42254,0.65576
3911.49379,0.65674
3909.56505,0.65762
3907.63630,0.65842
3905.70756,0.65959
3903.77882,0.66106
3901.85007,0.66230
3899.92133,0.66359
3897.99258,0.66562
3896.06384,0.66808
3894.13509,0.67012
3892.20635,0.67133
3890.27760,0.67200
3888.34886,0.67278
3886.42012,0.67402
3884.49137,0.67529
3882.56263,0.67603
3880.63388,0.67651
3878.70514,0.67706
3876.77639,0.67759
3874.84765,0.67826
3872.91890,0.67917
3870.99016,0.68006
3869.06142,0.68070
3867.13267,0.68106
3865.20393,0.68131
3863.27518,0.68171
3861.34644,0.68235
3859.41769,0.68299
3857.48895,0.68337
3855.56020,0.68371
3853.63146,0.68431
3851.70272,0.68474
3849.77397,0.68471
3847.84523,0.68459
3845.91648,0.68455
3843.98774,0.68450
3842.05899,0.68433
3840.13025,0.68404
3838.20150,0.68384
3836.27276,0.68382
3834.34401,0.68376
3832.41527,0.68365
3830.48653,0.68367
3828.55778,0.68381
3826.62904,0.68394
3824.70029,0.68387
3822.77155,0.68342
3820.84280,0.68242
3818.91406,0.68080
3816.98531,0.67868
3815.05657,0.67620
3813.12783,0.67381
3811.19908,0.67176
3809.27034,0.67020
3807.34159,0.66945
3805.41285,0.66939
3803.48410,0.66968
3801.55536,0.67051
3799.62661,0.67192
3797.69787,0.67361
3795.76913,0.67538
3793.84038,0.67701
3791.91164,0.67841
3789.98289,0.67937
3788.05415,0.67966
3786.12540,0.67949
3784.19666,0.67921
3782.26791,0.67887
3780.33917,0.67837
3778.41043,0.67782
3776.48168,0.67713
3774.55294,0.67588
3772.62419,0.67426
3770.69545,0.67281
3768.76670,0.67137
3766.83796,0.66954
3764.90921,0.66737
3762.98047,0.66515
3761.05172,0.66319
3759.12298,0.66211
3757.19424,0.66274
3755.26549,0.66502
3753.33675,0.66837
3751.40800,0.67245
3749.47926,0.67670
3747.55051,0.68009
3745.62177,0.68218
3743.69302,0.68305
3741.76428,0.68274
3739.83554,0.68151
3737.90679,0.67970
3735.97805,0.67758
3734.04930,0.67550
3732.12056,0.67406
3730.19181,0.67405
3728.26307,0.67575
3726.33432,0.67871
3724.40558,0.68189
3722.47684,0.68441
3720.54809,0.68601
3718.61935,0.68673
3716.69060,0.68682
3714.76186,0.68649
3712.83311,0.68554
3710.90437,0.68369
3708.97562,0.68117
3707.04688,0.67798
3705.11814,0.67382
3703.18939,0.66899
3701.26065,0.66418
3699.33190,0.65965
3697.40316,0.65483
3695.47441,0.64885
3693.54567,0.64133
3691.61692,0.63270
3689.68818,0.62403
3687.75943,0.61733
3685.83069,0.61477
3683.90195,0.61651
3681.97320,0.62139
3680.04446,0.62781
3678.11571,0.63423
3676.18697,0.63996
3674.25822,0.64405
3672.32948,0.64578
3670.40073,0.64615
3668.47199,0.64594
3666.54325,0.64477
3664.61450,0.64235
3662.68576,0.63926
3660.75701,0.63616
3658.82827,0.63294
3656.89952,0.62948
3654.97078,0.62618
3653.04203,0.62310
3651.11329,0.61976
3649.18455,0.61607
3647.25580,0.61250
3645.32706,0.60928
3643.39831,0.60611
3641.46957,0.60276
3639.54082,0.59958
3637.61208,0.59690
3635.68333,0.59458
3633.75459,0.59256
3631.82584,0.59067
3629.89710,0.58820
3627.96836,0.58498
3626.03961,0.58206
3624.11087,0.57978
3622.18212,0.57777
3620.25338,0.57572
3618.32463,0.57348
3616.39589,0.57128
3614.46714,0.56930
3612.53840,0.56727
3610.60966,0.56489
3608.68091,0.56237
3606.75217,0.56008
3604.82342,0.55789
3602.89468,0.55552
3600.96593,0.55275
3599.03719,0.54947
3597.10844,0.54566
3595.17970,0.54150
3593.25096,0.53721
3591.32221,0.53311
3589.39347,0.52924
3587.46472,0.52517
3585.53598,0.52064
3583.60723,0.51586
3581.67849,0.51096
3579.74974,0.50590
3577.82100,0.50081
3575.89226,0.49590
3573.96351,0.49123
3572.03477,0.48697
3570.10602,0.48320
3568.17728,0.47956
3566.24853,0.47557
3564.31979,0.47148
3562.39104,0.46791
3560.46230,0.46488
3558.53355,0.46193
3556.60481,0.45888
3554.67607,0.45610
3552.74732,0.45391
3550.81858,0.45232
3548.88983,0.45117
3546.96109,0.45029
3545.03234,0.44958
3543.10360,0.44900
3541.17485,0.44855
3539.24611,0.44818
3537.31737,0.44799
3535.38862,0.44822
3533.45988,0.44872
3531.53113,0.44904
3529.60239,0.44912
3527.67364,0.44930
3525.74490,0.44983
3523.81615,0.45061
3521.88741,0.45137
3519.95867,0.45182
3518.02992,0.45198
3516.10118,0.45242
3514.17243,0.45323
3512.24369,0.45374
3510.31494,0.45373
3508.38620,0.45368
3506.45745,0.45390
3504.52871,0.45429
3502.59997,0.45459
3500.67122,0.45429
3498.74248,0.45313
3496.81373,0.45171
3494.88499,0.45088
3492.95624,0.45073
3491.02750,0.45058
3489.09875,0.44979
3487.17001,0.44853
3485.24126,0.44728
3483.31252,0.44600
3481.38378,0.44440
3479.45503,0.44262
3477.52629,0.44076
3475.59754,0.43862
3473.66880,0.43611
3471.74005,0.43341
3469.81131,0.43053
3467.88256,0.42721
3465.95382,0.42326
3464.02508,0.41876
3462.09633,0.41430
3460.16759,0.41042
3458.23884,0.40659
3456.31010,0.40206
3454.38135,0.39715
3452.45261,0.39238
3450.52386,0.38760
3448.59512,0.38253
3446.66638,0.37725
3444.73763,0.37191
3442.80889,0.36640
3440.88014,0.36069
3438.95140,0.35478
3437.02265,0.34844
3435.09391,0.34173
3433.16516,0.33593
3431.23642,0.33301
3429.30768,0.33435
3427.37893,0.33983
3425.45019,0.34764
3423.52144,0.35592
3421.59270,0.36413
3419.66395,0.37222
3417.73521,0.38000
3415.80646,0.38714
3413.87772,0.39335
3411.94897,0.39905
3410.02023,0.40449
3408.09149,0.40911
3406.16274,0.41299
3404.23400,0.41672
3402.30525,0.42003
3400.37651,0.42232
3398.44776,0.42381
3396.51902,0.42514
3394.59027,0.42652
3392.66153,0.42779
3390.73279,0.42885
3388.80404,0.42973
3386.87530,0.43042
3384.94655,0.43081
3383.01781,0.43095
3381.08906,0.43105
3379.16032,0.43111
3377.23157,0.43103
3375.30283,0.43065
3373.37409,0.43005
3371.44534,0.42953
3369.51660,0.42895
3367.58785,0.42816
3365.65911,0.42732
3363.73036,0.42641
3361.80162,0.42519
3359.87287,0.42358
3357.94413,0.42181
3356.01539,0.42022
3354.08664,0.41850
3352.15790,0.41635
3350.22915,0.41402
3348.30041,0.41174
3346.37166,0.40976
3344.44292,0.40802
3342.51417,0.40611
3340.58543,0.40426
3338.65668,0.40298
3336.72794,0.40231
3334.79920,0.40222
3332.87045,0.40290
3330.94171,0.40444
3329.01296,0.40660
3327.08422,0.40900
3325.15547,0.41119
3323.22673,0.41274
3321.29798,0.41366
3319.36924,0.41427
3317.44050,0.41491
3315.51175,0.41546
3313.58301,0.41539
3311.65426,0.41474
3309.72552,0.41396
3307.79677,0.41326
3305.86803,0.41251
3303.93928,0.41187
3302.01054,0.41160
3300.08180,0.41167
3298.15305,0.41222
3296.22431,0.41331
3294.29556,0.41452
3292.36682,0.41557
3290.43807,0.41657
3288.50933,0.41770
3286.58058,0.41895
3284.65184,0.42013
3282.72310,0.42133
3280.79435,0.42238
3278.86561,0.42297
3276.93686,0.42353
3275.00812,0.42451
3273.07937,0.42551
3271.15063,0.42621
3269.22188,0.42678
3267.29314,0.42745
3265.36439,0.42807
3263.43565,0.42856
3261.50691,0.42927
3259.57816,0.43016
3257.64942,0.43074
3255.72067,0.43093
3253.79193,0.43109
3251.86318,0.43128
3249.93444,0.43139
3248.00569,0.43142
3246.07695,0.43140
3244.14821,0.43145
3242.21946,0.43150
3240.29072,0.43142
3238.36197,0.43156
3236.43323,0.43205
3234.50448,0.43250
3232.57574,0.43278
3230.64699,0.43324
3228.71825,0.43417
3226.78951,0.43563
3224.86076,0.43709
3222.93202,0.43797
3221.00327,0.43883
3219.07453,0.44022
3217.14578,0.44166
3215.21704,0.44266
3213.28829,0.44327
3211.35955,0.44371
3209.43081,0.44419
3207.50206,0.44471
3205.57332,0.44507
3203.64457,0.44513
3201.71583,0.44500
3199.78708,0.44481
3197.85834,0.44459
3195.92959,0.44431
3194.00085,0.44412
3192.07210,0.44435
3190.14336,0.44502
3188.21462,0.44555
3186.28587,0.44577
3184.35713,0.44607
3182.42838,0.44648
3180.49964,0.44677
3178.57089,0.44690
3176.64215,0.44699
3174.71340,0.44721
3172.78466,0.44768
3170.85592,0.44806
3168.92717,0.44805
3166.99843,0.44796
3165.06968,0.44790
3163.14094,0.44747
3161.21219,0.44667
3159.28345,0.44606
3157.35470,0.44583
3155.42596,0.44575
3153.49722,0.44559
3151.56847,0.44506
3149.63973,0.44390
3147.71098,0.44255
3145.78224,0.44168
3143.85349,0.44098
3141.92475,0.43968
3139.99600,0.43775
3138.06726,0.43549
3136.13852,0.43310
3134.20977,0.43071
3132.28103,0.42839
3130.35228,0.42625
3128.42354,0.42480
3126.49479,0.42461
3124.56605,0.42535
3122.63730,0.42621
3120.70856,0.42654
3118.77981,0.42595
3116.85107,0.42428
3114.92233,0.42140
3112.99358,0.41750
3111.06484,0.41318
3109.13609,0.40883
3107.20735,0.40457
3105.27860,0.40092
3103.34986,0.39884
3101.42111,0.39895
3099.49237,0.40102
3097.56363,0.40407
3095.63488,0.40691
3093.70614,0.40853
3091.77739,0.40811
3089.84865,0.40540
3087.91990,0.40104
3085.99116,0.39613
3084.06241,0.39161
3082.13367,0.38826
3080.20493,0.38663
3078.27618,0.38619
3076.34744,0.38576
3074.41869,0.38491
3072.48995,0.38373
3070.56120,0.38248
3068.63246,0.38166
3066.70371,0.38153
3064.77497,0.38165
3062.84623,0.38097
3060.91748,0.37854
3058.98874,0.37402
3057.05999,0.36886
3055.13125,0.36633
3053.20250,0.36889
3051.27376,0.37638
3049.34501,0.38692
3047.41627,0.39831
3045.48752,0.40869
3043.55878,0.41686
3041.63004,0.42210
3039.70129,0.42420
3037.77255,0.42397
3035.84380,0.42262
3033.91506,0.42053
3031.98631,0.41748
3030.05757,0.41332
3028.12882,0.40792
3026.20008,0.40133
3024.27134,0.39344
3022.34259,0.38381
3020.41385,0.37248
3018.48510,0.36043
3016.55636,0.34964
3014.62761,0.34201
3012.69887,0.33799
3010.77012,0.33649
3008.84138,0.33601
3006.91264,0.33541
3004.98389,0.33415
3003.05515,0.33232
3001.12640,0.33034
2999.19766,0.32841
2997.26891,0.32615
2995.34017,0.32299
2993.41142,0.31889
2991.48268,0.31402
2989.55394,0.30828
2987.62519,0.30142
2985.69645,0.29349
2983.76770,0.28471
2981.83896,0.27506
2979.91021,0.26462
2977.98147,0.25368
2976.05272,0.24261
2974.12398,0.23267
2972.19523,0.22558
2970.26649,0.22241
2968.33775,0.22309
2966.40900,0.22649
2964.48026,0.23121
2962.55151,0.23626
2960.62277,0.24119
2958.69402,0.24629
2956.76528,0.25187
2954.83653,0.25801
2952.90779,0.26494
2950.97905,0.27299
2949.05030,0.28190
2947.12156,0.29084
2945.19281,0.29924
2943.26407,0.30700
2941.33532,0.31383
2939.40658,0.31922
2937.47783,0.32285
2935.54909,0.32479
2933.62035,0.32532
2931.69160,0.32467
2929.76286,0.32296
2927.83411,0.32030
2925.90537,0.31684
2923.97662,0.31258
2922.04788,0.30779
2920.11913,0.30283
2918.19039,0.29741
2916.26165,0.29096
2914.33290,0.28337
2912.40416,0.27520
2910.47541,0.26802
2908.54667,0.26451
2906.61792,0.26699
2904.68918,0.27546
2902.76043,0.28731
2900.83169,0.29920
2898.90294,0.30893
2896.97420,0.31589
2895.04546,0.32024
2893.11671,0.32269
2891.18797,0.32453
2889.25922,0.32661
2887.33048,0.32915
2885.40173,0.33226
2883.47299,0.33587
2881.54424,0.33959
2879.61550,0.34295
2877.68676,0.34568
2875.75801,0.34784
2873.82927,0.34967
2871.90052,0.35130
2869.97178,0.35285
2868.04303,0.35452
2866.11429,0.35611
2864.18554,0.35718
2862.25680,0.35769
2860.32806,0.35794
2858.39931,0.35840
2856.47057,0.35945
2854.54182,0.36127
2852.61308,0.36445
2850.68433,0.37027
2848.75559,0.37949
2846.82684,0.39116
2844.89810,0.40322
2842.96936,0.41392
2841.04061,0.42280
2839.11187,0.43042
2837.18312,0.43723
2835.25438,0.44328
2833.32563,0.44857
2831.39689,0.45313
2829.46814,0.45712
2827.53940,0.46100
2825.61065,0.46476
2823.68191,0.46756
2821.75317,0.46901
2819.82442,0.46936
2817.89568,0.46903
2815.96693,0.46854
2814.03819,0.46814
2812.10944,0.46776
2810.18070,0.46733
2808.25195,0.46701
2806.32321,0.46711
2804.39447,0.46801
2802.46572,0.46990
2800.53698,0.47277
2798.60823,0.47633
2796.67949,0.48010
2794.75074,0.48371
2792.82200,0.48705
2790.89325,0.49014
2788.96451,0.49306
2787.03577,0.49586
2785.10702,0.49847
2783.17828,0.50087
2781.24953,0.50298
2779.32079,0.50482
2777.39204,0.50659
2775.46330,0.50835
2773.53455,0.50978
2771.60581,0.51089
2769.67707,0.51188
2767.74832,0.51272
2765.81958,0.51342
2763.89083,0.51411
2761.96209,0.51467
2760.03334,0.51496
2758.10460,0.51491
2756.17585,0.51460
2754.24711,0.51428
2752.31836,0.51417
2750.38962,0.51413
2748.46088,0.51392
2746.53213,0.51381
2744.60339,0.51432
2742.67464,0.51561
2740.74590,0.51752
2738.81715,0.51985
2736.88841,0.52237
2734.95966,0.52496
2733.03092,0.52756
2731.10218,0.53010
2729.17343,0.53263
2727.24469,0.53522
2725.31594,0.53754
2723.38720,0.53920
2721.45845,0.54044
2719.52971,0.54164
2717.60096,0.54289
2715.67222,0.54429
2713.74348,0.54591
2711.81473,0.54752
2709.88599,0.54909
2707.95724,0.55089
2706.02850,0.55285
2704.09975,0.55458
2702.17101,0.55587
2700.24226,0.55690
2698.31352,0.55785
2696.38477,0.55877
2694.45603,0.55974
2692.52729,0.56077
2690.59854,0.56153
2688.66980,0.56193
2686.74105,0.56210
2684.81231,0.56214
2682.88356,0.56232
2680.95482,0.56267
2679.02607,0.56305
2677.09733,0.56342
2675.16859,0.56388
2673.23984,0.56448
2671.31110,0.56516
2669.38235,0.56572
2667.45361,0.56602
2665.52486,0.56601
2663.59612,0.56570
2661.66737,0.56526
2659.73863,0.56468
2657.80989,0.56382
2655.88114,0.56273
2653.95240,0.56145
2652.02365,0.56007
2650.09491,0.55868
2648.16616,0.55710
2646.23742,0.55498
2644.30867,0.55218
2642.37993,0.54877
2640.45119,0.54483
2638.52244,0.54059
2636.59370,0.53667
2634.66495,0.53382
2632.73621,0.53227
2630.80746,0.53172
2628.87872,0.53186
2626.94997,0.53245
2625.02123,0.53333
2623.09248,0.53435
2621.16374,0.53526
2619.23500,0.53583
2617.30625,0.53599
2615.37751,0.53582
2613.44876,0.53541
2611.52002,0.53494
2609.59127,0.53454
2607.66253,0.53412
2605.73378,0.53346
2603.80504,0.53248
2601.87630,0.53132
2599.94755,0.52991
2598.01881,0.52808
2596.09006,0.52598
2594.16132,0.52394
2592.23257,0.52203
2590.30383,0.52018
2588.37508,0.51835
2586.44634,0.51681
2584.51760,0.51593
2582.58885,0.51568
2580.66011,0.51575
2578.73136,0.51599
2576.80262,0.51651
2574.87387,0.51718
2572.94513,0.51757
2571.01638,0.51754
2569.08764,0.51723
2567.15890,0.51666
2565.23015,0.51598
2563.30141,0.51545
2561.37266,0.51507
2559.44392,0.51471
2557.51517,0.51442
2555.58643,0.51410
2553.65768,0.51362
2551.72894,0.51312
2549.80019,0.51263
2547.87145,0.51210
2545.94271,0.51173
2544.01396,0.51153
2542.08522,0.51123
2540.15647,0.51092
2538.22773,0.51081
2536.29898,0.51087
2534.37024,0.51106
2532.44149,0.51144
2530.51275,0.51216
2528.58401,0.51329
2526.65526,0.51480
2524.72652,0.51656
2522.79777,0.51842
2520.86903,0.52028
2518.94028,0.52203
2517.01154,0.52366
2515.08279,0.52511
2513.15405,0.52622
2511.22531,0.52698
2509.29656,0.52745
2507.36782,0.52769
2505.43907,0.52796
2503.51033,0.52831
2501.58158,0.52863
2499.65284,0.52917
2497.72409,0.53019
2495.79535,0.53159
2493.86661,0.53330
2491.93786,0.53536
2490.00912,0.53759
2488.08037,0.53984
2486.15163,0.54226
2484.22288,0.54480
2482.29414,0.54734
2480.36539,0.54989
2478.43665,0.55227
2476.50790,0.55424
2474.57916,0.55587
2472.65042,0.55730
2470.72167,0.55850
2468.79293,0.55937
2466.86418,0.56006
2464.93544,0.56069
2463.00669,0.56112
2461.07795,0.56115
2459.14920,0.56091
2457.22046,0.56063
2455.29172,0.56029
2453.36297,0.55968
2451.43423,0.55881
2449.50548,0.55796
2447.57674,0.55709
2445.64799,0.55576
2443.71925,0.55371
2441.79050,0.55114
2439.86176,0.54840
2437.93302,0.54551
2436.00427,0.54239
2434.07553,0.53934
2432.14678,0.53651
2430.21804,0.53353
2428.28929,0.53022
2426.36055,0.52671
2424.43180,0.52313
2422.50306,0.51959
2420.57432,0.51621
2418.64557,0.51300
2416.71683,0.50995
2414.78808,0.50695
2412.85934,0.50403
2410.93059,0.50142
2409.00185,0.49899
2407.07310,0.49640
2405.14436,0.49383
2403.21561,0.49166
2401.28687,0.48971
2399.35813,0.48782
2397.42938,0.48631
2395.50064,0.48524
2393.57189,0.48436
2391.64315,0.48371
2389.71440,0.48338
2387.78566,0.48322
2385.85691,0.48321
2383.92817,0.48368
2381.99943,0.48491
2380.07068,0.48653
2378.14194,0.48798
2376.21319,0.48926
2374.28445,0.49073
2372.35570,0.49254
2370.42696,0.49478
2368.49821,0.49761
2366.56947,0.50105
2364.64073,0.50497
2362.71198,0.50914
2360.78324,0.51336
2358.85449,0.51764
2356.92575,0.52186
2354.99700,0.52567
2353.06826,0.52892
2351.13951,0.53166
2349.21077,0.53417
2347.28203,0.53659
2345.35328,0.53855
2343.42454,0.53984
2341.49579,0.54074
2339.56705,0.54123
2337.63830,0.54120
2335.70956,0.54124
2333.78081,0.54190
2331.85207,0.54309
2329.92332,0.54449
2327.99458,0.54586
2326.06584,0.54710
2324.13709,0.54833
2322.20835,0.54978
2320.27960,0.55140
2318.35086,0.55276
2316.42211,0.55355
2314.49337,0.55371
2312.56462,0.55309
2310.63588,0.55151
2308.70714,0.54898
2306.77839,0.54571
2304.84965,0.54186
2302.92090,0.53735
2300.99216,0.53214
2299.06341,0.52651
2297.13467,0.52089
2295.20592,0.51550
2293.27718,0.51051
2291.34844,0.50616
2289.41969,0.50272
2287.49095,0.50039
2285.56220,0.49904
2283.63346,0.49843
2281.70471,0.49852
2279.77597,0.49911
2277.84722,0.49957
2275.91848,0.49944
2273.98974,0.49886
2272.06099,0.49792
2270.13225,0.49647
2268.20350,0.49471
2266.27476,0.49314
2264.34601,0.49198
2262.41727,0.49129
2260.48852,0.49104
2258.55978,0.49116
2256.63103,0.49166
2254.70229,0.49253
2252.77355,0.49376
2250.84480,0.49561
2248.91606,0.49811
2246.98731,0.50087
2245.05857,0.50353
2243.12982,0.50602
2241.20108,0.50831
2239.27233,0.51039
2237.34359,0.51242
2235.41485,0.51440
2233.48610,0.51616
2231.55736,0.51757
2229.62861,0.51868
2227.69987,0.51960
2225.77112,0.52031
2223.84238,0.52081
2221.91363,0.52130
2219.98489,0.52196
2218.05615,0.52263
2216.12740,0.52316
2214.19866,0.52365
2212.26991,0.52430
2210.34117,0.52533
2208.41242,0.52704
2206.48368,0.52947
2204.55493,0.53218
2202.62619,0.53462
2200.69745,0.53643
2198.76870,0.53756
2196.83996,0.53815
2194.91121,0.53831
2192.98247,0.53815
2191.05372,0.53768
2189.12498,0.53674
2187.19623,0.53524
2185.26749,0.53338
2183.33874,0.53125
2181.41000,0.52880
2179.48126,0.52603
2177.55251,0.52300
2175.62377,0.51964
2173.69502,0.51610
2171.76628,0.51258
2169.83753,0.50876
2167.90879,0.50438
2165.98004,0.49967
2164.05130,0.49482
2162.12256,0.48973
2160.19381,0.48460
2158.26507,0.47971
2156.33632,0.47512
2154.40758,0.47062
2152.47883,0.46606
2150.55009,0.46173
2148.62134,0.45805
2146.69260,0.45496
2144.76386,0.45210
2142.83511,0.44935
2140.90637,0.44680
2138.97762,0.44450
2137.04888,0.44230
2135.12013,0.43990
2133.19139,0.43711
2131.26264,0.43384
2129.33390,0.43013
2127.40516,0.42615
2125.47641,0.42214
2123.54767,0.41846
2121.61892,0.41522
2119.69018,0.41234
2117.76143,0.40990
2115.83269,0.40807
2113.90394,0.40679
2111.97520,0.40604
2110.04645,0.40579
2108.11771,0.40594
2106.18897,0.40644
2104.26022,0.40719
2102.33148,0.40804
2100.40273,0.40890
2098.47399,0.40981
2096.54524,0.41079
2094.61650,0.41195
2092.68775,0.41355
2090.75901,0.41570
2088.83027,0.41837
2086.90152,0.42137
2084.97278,0.42474
2083.04403,0.42863
2081.11529,0.43276
2079.18654,0.43682
2077.25780,0.44095
2075.32905,0.44536
2073.40031,0.44995
2071.47157,0.45460
2069.54282,0.45933
2067.61408,0.46402
2065.68533,0.46864
2063.75659,0.47361
2061.82784,0.47907
2059.89910,0.48446
2057.97035,0.48942
2056.04161,0.49398
2054.11287,0.49809
2052.18412,0.50170
2050.25538,0.50475
2048.32663,0.50702
2046.39789,0.50851
2044.46914,0.50958
2042.54040,0.51047
2040.61165,0.51093
2038.68291,0.51082
2036.75416,0.51028
2034.82542,0.50924
2032.89668,0.50753
2030.96793,0.50515
2029.03919,0.50222
2027.11044,0.49880
2025.18170,0.49490
2023.25295,0.49060
2021.32421,0.48619
2019.39546,0.48202
2017.46672,0.47811
2015.53798,0.47432
2013.60923,0.47059
2011.68049,0.46685
2009.75174,0.46304
2007.82300,0.45908
2005.89425,0.45487
2003.96551,0.45037
2002.03676,0.44567
2000.10802,0.44091
1998.17928,0.43632
1996.25053,0.43191
1994.32179,0.42753
1992.39304,0.42321
1990.46430,0.41892
1988.53555,0.41459
1986.60681,0.41030
1984.67806,0.40604
1982.74932,0.40165
1980.82058,0.39709
1978.89183,0.39230
1976.96309,0.38706
1975.03434,0.38127
1973.10560,0.37468
1971.17685,0.36697
1969.24811,0.35794
1967.31936,0.34776
1965.39062,0.33738
1963.46187,0.32846
1961.53313,0.32281
1959.60439,0.32143
1957.67564,0.32386
1955.74690,0.32857
1953.81815,0.33413
1951.88941,0.33983
1949.96066,0.34562
1948.03192,0.35159
1946.10317,0.35784
1944.17443,0.36440
1942.24569,0.37113
1940.31694,0.37774
1938.38820,0.38409
1936.45945,0.39022
1934.53071,0.39606
1932.60196,0.40153
1930.67322,0.40664
1928.74447,0.41131
1926.81573,0.41554
1924.88699,0.41945
1922.95824,0.42309
1921.02950,0.42663
1919.10075,0.43017
1917.17201,0.43347
1915.24326,0.43639
1913.31452,0.43906
1911.38577,0.44145
1909.45703,0.44359
1907.52829,0.44557
1905.59954,0.44743
1903.67080,0.44908
1901.74205,0.45045
1899.81331,0.45156
1897.88456,0.45248
1895.95582,0.45322
1894.02707,0.45381
1892.09833,0.45417
1890.16958,0.45420
1888.24084,0.45394
1886.31210,0.45363
1884.38335,0.45332
1882.45461,0.45266
1880.52586,0.45141
1878.59712,0.44963
1876.66837,0.44735
1874.73963,0.44456
1872.81088,0.44137
1870.88214,0.43777
1868.95340,0.43365
1867.02465,0.42915
1865.09591,0.42453
1863.16716,0.41983
1861.23842,0.41472
1859.30967,0.40879
1857.38093,0.40197
1855.45218,0.39443
1853.52344,0.38621
1851.59470,0.37745
1849.66595,0.36848
1847.73721,0.35982
1845.80846,0.35164
1843.87972,0.34379
1841.95097,0.33656
1840.02223,0.33014
1838.09348,0.32417
1836.16474,0.31844
1834.23600,0.31305
1832.30725,0.30824
1830.37851,0.30406
1828.44976,0.30061
1826.52102,0.29814
1824.59227,0.29663
1822.66353,0.29585
1820.73478,0.29546
1818.80604,0.29510
1816.87729,0.29448
1814.94855,0.29343
1813.01981,0.29201
1811.09106,0.29042
1809.16232,0.28900
1807.23357,0.28792
1805.30483,0.28701
1803.37608,0.28611
1801.44734,0.28500
1799.51859,0.28345
1797.58985,0.28146
1795.66111,0.27931
1793.73236,0.27693
1791.80362,0.27406
1789.87487,0.27088
1787.94613,0.26748
1786.01738,0.26361
1784.08864,0.25928
1782.15989,0.25468
1780.23115,0.24974
1778.30241,0.24432
1776.37366,0.23853
1774.44492,0.23221
1772.51617,0.22504
1770.58743,0.21738
1768.65868,0.20934
1766.72994,0.20056
1764.80119,0.19141
1762.87245,0.18159
1760.94370,0.17038
1759.01496,0.15816
1757.08622,0.14482
1755.15747,0.13040
1753.22873,0.11518
1751.29998,0.09870
1749.37124,0.08187
1747.44249,0.06657
1745.51375,0.05365
1743.58500,0.04375
1741.65626,0.03722
1739.72752,0.03363
1737.79877,0.03225
1735.87003,0.03226
1733.94128,0.03321
1732.01254,0.03461
1730.08379,0.03597
1728.15505,0.03732
1726.22630,0.03872
1724.29756,0.04033
1722.36882,0.04225
1720.44007,0.04453
1718.51133,0.04750
1716.58258,0.05198
1714.65384,0.05918
1712.72509,0.06939
1710.79635,0.08154
1708.86760,0.09415
1706.93886,0.10665
1705.01012,0.11860
1703.08137,0.12940
1701.15263,0.13999
1699.22388,0.15002
1697.29514,0.15775
1695.36639,0.16410
1693.43765,0.16950
1691.50890,0.17327
1689.58016,0.17523
1687.65141,0.17533
1685.72267,0.17446
1683.79393,0.17488
1681.86518,0.17857
1679.93644,0.18489
1678.00769,0.19198
1676.07895,0.19868
1674.15020,0.20448
1672.22146,0.20953
1670.29271,0.21498
1668.36397,0.22143
1666.43523,0.22831
1664.50648,0.23535
1662.57774,0.24218
1660.64899,0.24765
1658.72025,0.25153
1656.79150,0.25464
1654.86276,0.25775
1652.93401,0.26101
1651.00527,0.26339
1649.07653,0.26503
1647.14778,0.26709
1645.21904,0.26974
1643.29029,0.27251
1641.36155,0.27530
1639.43280,0.27778
1637.50406,0.27976
1635.57531,0.28146
1633.64657,0.28288
1631.71783,0.28393
1629.78908,0.28474
1627.86034,0.28531
1625.93159,0.28538
1624.00285,0.28453
1622.07410,0.28215
1620.14536,0.27772
1618.21661,0.27105
1616.28787,0.26364
1614.35912,0.25948
1612.43038,0.26026
1610.50164,0.26471
1608.57289,0.27091
1606.64415,0.27697
1604.71540,0.28209
1602.78666,0.28668
1600.85791,0.29097
1598.92917,0.29415
1597.00042,0.29530
1595.07168,0.29417
1593.14294,0.29075
1591.21419,0.28546
1589.28545,0.27867
1587.35670,0.26940
1585.42796,0.25599
1583.49921,0.23869
1581.57047,0.22157
1579.64172,0.21086
1577.71298,0.21081
1575.78424,0.22178
1573.85549,0.23776
1571.92675,0.25291
1569.99800,0.26618
1568.06926,0.27639
1566.14051,0.28289
1564.21177,0.28669
1562.28302,0.28886
1560.35428,0.29007
1558.42554,0.29041
1556.49679,0.29018
1554.56805,0.28975
1552.63930,0.28889
1550.71056,0.28734
1548.78181,0.28519
1546.85307,0.28279
1544.92432,0.28093
1542.99558,0.28060
1541.06683,0.28173
1539.13809,0.28273
1537.20935,0.28221
1535.28060,0.28023
1533.35186,0.27687
1531.42311,0.27254
1529.49437,0.26787
1527.56562,0.26324
1525.63688,0.25942
1523.70813,0.25729
1521.77939,0.25680
1519.85065,0.25628
1517.92190,0.25333
1515.99316,0.24610
1514.06441,0.23297
1512.13567,0.21194
1510.20692,0.18306
1508.27818,0.15133
1506.34943,0.13060
1504.42069,0.13653
1502.49195,0.16328
1500.56320,0.19785
1498.63446,0.23071
1496.70571,0.25532
1494.77697,0.26916
1492.84822,0.27372
1490.91948,0.27177
1488.99073,0.26503
1487.06199,0.25504
1485.13325,0.24327
1483.20450,0.23058
1481.27576,0.21717
1479.34701,0.20310
1477.41827,0.18818
1475.48952,0.17256
1473.56078,0.15842
1471.63203,0.15133
1469.70329,0.15392
1467.77454,0.16054
1465.84580,0.16474
1463.91706,0.16431
1461.98831,0.16101
1460.05957,0.15707
1458.13082,0.15330
1456.20208,0.15026
1454.27333,0.14890
1452.34459,0.14937
1450.41584,0.15099
1448.48710,0.15288
1446.55836,0.15447
1444.62961,0.15570
1442.70087,0.15667
1440.77212,0.15763
1438.84338,0.15926
1436.91463,0.16212
1434.98589,0.16567
1433.05714,0.16885
1431.12840,0.17091
1429.19966,0.17069
1427.27091,0.16721
1425.34217,0.16010
1423.41342,0.14922
1421.48468,0.13457
1419.55593,0.11552
1417.62719,0.09406
1415.69844,0.07541
1413.76970,0.06270
1411.84096,0.05732
1409.91221,0.05899
1407.98347,0.06605
1406.05472,0.07677
1404.12598,0.08894
1402.19723,0.10003
1400.26849,0.10885
1398.33974,0.11509
1396.41100,0.11841
1394.48225,0.11896
1392.55351,0.11724
1390.62477,0.11400
1388.69602,0.11026
1386.76728,0.10719
1384.83853,0.10588
1382.90979,0.10600
1380.98104,0.10623
1379.05230,0.10565
1377.12355,0.10413
1375.19481,0.10188
1373.26607,0.09923
1371.33732,0.09709
1369.40858,0.09646
1367.47983,0.09751
1365.55109,0.09943
1363.62234,0.10097
1361.69360,0.10075
1359.76485,0.09807
1357.83611,0.09320
1355.90737,0.08675
1353.97862,0.07936
1352.04988,0.07177
1350.12113,0.06498
1348.19239,0.05998
1346.26364,0.05718
1344.33490,0.05610
1342.40615,0.05621
1340.47741,0.05822
1338.54867,0.06376
1336.61992,0.07367
1334.69118,0.08657
1332.76243,0.09893
1330.83369,0.10707
1328.90494,0.10934
1326.97620,0.10635
1325.04745,0.09980
1323.11871,0.09156
1321.18996,0.08314
1319.26122,0.07529
1317.33248,0.06803
1315.40373,0.06135
1313.47499,0.05547
1311.54624,0.05042
1309.61750,0.04624
1307.68875,0.04300
1305.76001,0.04047
1303.83126,0.03846
1301.90252,0.03702
1299.97378,0.03615
1298.04503,0.03587
1296.11629,0.03621
1294.18754,0.03707
1292.25880,0.03833
1290.33005,0.03992
1288.40131,0.04182
1286.47256,0.04412
1284.54382,0.04665
1282.61508,0.04911
1280.68633,0.05148
1278.75759,0.05374
1276.82884,0.05573
1274.90010,0.05758
1272.97135,0.05938
1271.04261,0.06084
1269.11386,0.06169
1267.18512,0.06215
1265.25638,0.06266
1263.32763,0.06336
1261.39889,0.06406
1259.47014,0.06463
1257.54140,0.06511
1255.61265,0.06547
1253.68391,0.06542
1251.75516,0.06480
1249.82642,0.06371
1247.89767,0.06229
1245.96893,0.06065
1244.04019,0.05902
1242.11144,0.05825
1240.18270,0.05947
1238.25395,0.06360
1236.32521,0.07128
1234.39646,0.08263
1232.46772,0.09671
1230.53897,0.11150
1228.61023,0.12505
1226.68149,0.13650
1224.75274,0.14656
1222.82400,0.15718
1220.89525,0.16927
1218.96651,0.18149
1217.03776,0.19194
1215.10902,0.19978
1213.18027,0.20553
1211.25153,0.21069
1209.32279,0.21658
1207.39404,0.22358
1205.46530,0.23132
1203.53655,0.23924
1201.60781,0.24674
1199.67906,0.25331
1197.75032,0.25872
1195.82157,0.26252
1193.89283,0.26401
1191.96409,0.26289
1190.03534,0.25917
1188.10660,0.25288
1186.17785,0.24433
1184.24911,0.23402
1182.32036,0.22243
1180.39162,0.21047
1178.46287,0.19940
1176.53413,0.19029
1174.60538,0.18354
1172.67664,0.17896
1170.74790,0.17580
1168.81915,0.17232
1166.89041,0.16659
1164.96166,0.15801
1163.03292,0.14764
1161.10417,0.13679
1159.17543,0.12589
1157.24668,0.11482
1155.31794,0.10362
1153.38920,0.09271
1151.46045,0.08248
1149.53171,0.07307
1147.60296,0.06465
1145.67422,0.05758
1143.74547,0.05220
1141.81673,0.04861
1139.88798,0.04677
1137.95924,0.04664
1136.03050,0.04804
1134.10175,0.05055
1132.17301,0.05339
1130.24426,0.05566
1128.31552,0.05720
1126.38677,0.05810
1124.45803,0.05818
1122.52928,0.05786
1120.60054,0.05806
1118.67180,0.05889
1116.74305,0.05971
1114.81431,0.06013
1112.88556,0.06023
1110.95682,0.06033
1109.02807,0.06067
1107.09933,0.06128
1105.17058,0.06219
1103.24184,0.06365
1101.31309,0.06573
1099.38435,0.06858
1097.45561,0.07282
1095.52686,0.07871
1093.59812,0.08574
1091.66937,0.09366
1089.74063,0.10267
1087.81188,0.11303
1085.88314,0.12522
1083.95439,0.13980
1082.02565,0.15662
1080.09691,0.17502
1078.16816,0.19395
1076.23942,0.21178
1074.31067,0.22705
1072.38193,0.23947
1070.45318,0.24948
1068.52444,0.25739
1066.59569,0.26331
1064.66695,0.26725
1062.73821,0.26911
1060.80946,0.26881
1058.88072,0.26630
1056.95197,0.26156
1055.02323,0.25476
1053.09448,0.24664
1051.16574,0.23813
1049.23699,0.22986
1047.30825,0.22261
1045.37951,0.21710
1043.45076,0.21337
1041.52202,0.21100
1039.59327,0.20920
1037.66453,0.20650
1035.73578,0.20117
1033.80704,0.19210
1031.87829,0.17767
1029.94955,0.15540
1028.02080,0.12658
1026.09206,0.10007
1024.16332,0.08596
1022.23457,0.08563
1020.30583,0.09413
1018.37708,0.11097
1016.44834,0.14032
1014.51959,0.18108
1012.59085,0.22394
1010.66210,0.25949
1008.73336,0.28461
1006.80462,0.30089
1004.87587,0.31083
1002.94713,0.31645
1001.01838,0.31948
999.08964,0.32067
997.16089,0.31945
995.23215,0.31496
993.30340,0.30658
991.37466,0.29552
989.44592,0.28585
987.51717,0.27998
985.58843,0.27463
983.65968,0.26484
981.73094,0.24936
979.80219,0.23033
977.87345,0.21085
975.94470,0.19408
974.01596,0.18329
972.08722,0.18150
970.15847,0.18990
968.22973,0.20661
966.30098,0.22753
964.37224,0.24886
962.44349,0.26881
960.51475,0.28686
958.58600,0.30256
956.65726,0.31574
954.72851,0.32667
952.79977,0.33564
950.87103,0.34293
948.94228,0.34869
947.01354,0.35293
945.08479,0.35597
943.15605,0.35825
941.22730,0.35975
939.29856,0.36030
937.36981,0.36014
935.44107,0.35986
933.51233,0.35965
931.58358,0.35941
929.65484,0.35903
927.72609,0.35834
925.79735,0.35724
923.86860,0.35553
921.93986,0.35276
920.01111,0.34879
918.08237,0.34370
916.15363,0.33728
914.22488,0.32907
912.29614,0.31908
910.36739,0.30771
908.43865,0.29566
906.50990,0.28403
904.58116,0.27393
902.65241,0.26593
900.72367,0.26047
898.79492,0.25776
896.86618,0.25710
894.93744,0.25735
893.00869,0.25766
891.07995,0.25697
889.15120,0.25405
887.22246,0.24816
885.29371,0.23942
883.36497,0.22848
881.43622,0.21600
879.50748,0.20262
877.57874,0.18876
875.64999,0.17555
873.72125,0.16866
871.79250,0.17577
869.86376,0.19506
867.93501,0.21483
866.00627,0.22690
864.07752,0.23063
862.14878,0.22746
860.22004,0.21938
858.29129,0.20917
856.36255,0.19883
854.43380,0.18906
852.50506,0.18040
850.57631,0.17464
848.64757,0.17462
846.71882,0.18133
844.79008,0.19274
842.86134,0.20590
840.93259,0.21893
839.00385,0.23104
837.07510,0.24181
835.14636,0.25098
833.21761,0.25875
831.28887,0.26567
829.36012,0.27150
827.43138,0.27563
825.50263,0.27831
823.57389,0.27982
821.64515,0.28015
819.71640,0.27958
817.78766,0.27842
815.85891,0.27667
813.93017,0.27446
812.00142,0.27197
810.07268,0.26941
808.14393,0.26699
806.21519,0.26438
804.28645,0.26105
802.35770,0.25717
800.42896,0.25209
798.50021,0.24310
796.57147,0.22980
794.64272,0.21887
792.71398,0.21851
790.78523,0.22849
788.85649,0.24193
786.92775,0.25413
784.99900,0.26397
783.07026,0.27103
781.14151,0.27565
779.21277,0.27909
777.28402,0.28196
775.35528,0.28413
773.42653,0.28579
771.49779,0.28741
769.56905,0.28916
767.64030,0.29081
765.71156,0.29169
763.78281,0.29083
761.85407,0.28804
759.92532,0.28412
757.99658,0.27938
756.06783,0.27332
754.13909,0.26559
752.21034,0.25604
750.28160,0.24430
748.35286,0.22958
746.42411,0.21080
744.49537,0.18729
742.56662,0.15922
740.63788,0.12848
738.70913,0.09981
736.78039,0.07825
734.85164,0.06519
732.92290,0.05917
730.99416,0.05904
729.06541,0.06441
727.13667,0.07623
725.20792,0.09739
723.27918,0.12886
721.35043,0.16585
719.42169,0.19991
717.49294,0.22408
715.56420,0.23679
713.63546,0.24187
711.70671,0.24423
709.77797,0.24643
707.84922,0.24911
705.92048,0.25204
703.99173,0.25574
702.06299,0.26246
700.13424,0.27301
698.20550,0.28444
696.27676,0.29356
694.34801,0.29952
692.41927,0.30247
690.49052,0.30253
688.56178,0.30018
686.63303,0.29614
684.70429,0.29050
682.77554,0.28383
680.84680,0.27880
678.91805,0.27820
676.98931,0.28150
675.06057,0.28556
673.13182,0.28846
671.20308,0.29045
669.27433,0.29190
667.34559,0.29318
665.41684,0.29477
663.48810,0.29614
661.55935,0.29593
659.63061,0.29393
657.70187,0.29178
655.77312,0.29137
653.84438,0.29347
651.91563,0.29693
649.98689,0.29959
648.05814,0.30049
646.12940,0.29973
644.20065,0.29795
642.27191,0.29666
640.34317,0.29609
638.41442,0.29355
636.48568,0.28503
634.55693,0.26935
632.62819,0.25616
630.69944,0.25886
628.77070,0.27335
626.84195,0.28490
624.91321,0.28988
622.98447,0.29215
621.05572,0.29263
619.12698,0.29108
617.19823,0.28827
615.26949,0.28624
613.34074,0.28682
611.41200,0.28858
609.48325,0.28888
607.55451,0.28770
605.62576,0.28622
603.69702,0.28498
601.76828,0.28406
599.83953,0.28290
