5996.40973,0.67306
5994.48101,0.68011
5992.55228,0.68492
5990.62356,0.68375
5988.69483,0.67867
5986.76610,0.67473
5984.83738,0.67358
5982.90865,0.66922
5980.97992,0.66107
5979.05120,0.65906
5977.12247,0.66647
5975.19375,0.67511
5973.26502,0.67883
5971.33629,0.67732
5969.40757,0.67334
5967.47884,0.67161
5965.55011,0.67390
5963.62139,0.67738
5961.69266,0.67940
5959.76394,0.68084
5957.83521,0.68191
5955.90648,0.68105
5953.97776,0.67986
5952.04903,0.68142
5950.12031,0.68474
5948.19158,0.68695
5946.26285,0.68738
5944.33413,0.68552
5942.40540,0.68286
5940.47667,0.68384
5938.54795,0.68856
5936.61922,0.69273
5934.69050,0.69512
5932.76177,0.69899
5930.83304,0.70554
5928.90432,0.71101
5926.97559,0.71233
5925.04686,0.71043
5923.11814,0.70713
5921.18941,0.70265
5919.26069,0.69925
5917.33196,0.70008
5915.40323,0.70496
5913.47451,0.71067
5911.54578,0.71374
5909.61706,0.71493
5907.68833,0.71623
5905.75960,0.71782
5903.83088,0.71956
5901.90215,0.71963
5899.97342,0.71767
5898.04470,0.71716
5896.11597,0.72116
5894.18725,0.72751
5892.25852,0.72918
5890.32979,0.72253
5888.40107,0.71427
5886.47234,0.71256
5884.54361,0.71600
5882.61489,0.71910
5880.68616,0.71801
5878.75744,0.71324
5876.82871,0.70818
5874.89998,0.70315
5872.97126,0.70059
5871.04253,0.70306
5869.11381,0.70606
5867.18508,0.70512
5865.25635,0.70129
5863.32763,0.69943
5861.39890,0.70356
5859.47017,0.70980
5857.54145,0.71062
5855.61272,0.70867
5853.68400,0.71011
5851.75527,0.71239
5849.82654,0.71283
5847.89782,0.71394
5845.96909,0.71728
5844.04036,0.71989
5842.11164,0.71814
5840.18291,0.71536
5838.25419,0.71564
5836.32546,0.71667
5834.39673,0.71636
5832.46801,0.71554
5830.53928,0.71446
5828.61056,0.71373
5826.68183,0.71423
5824.75310,0.71506
5822.82438,0.71435
5820.89565,0.71171
5818.96692,0.70972
5817.03820,0.71084
5815.10947,0.71408
5813.18075,0.71714
5811.25202,0.71899
5809.32329,0.71864
5807.39457,0.71636
5805.46584,0.71738
5803.53711,0.72272
5801.60839,0.72424
5799.67966,0.71880
5797.75094,0.71255
5795.82221,0.71081
5793.89348,0.71218
5791.96476,0.71133
5790.03603,0.70799
5788.10731,0.70836
5786.17858,0.71423
5784.24985,0.71879
5782.32113,0.71754
5780.39240,0.71539
5778.46367,0.71769
5776.53495,0.72217
5774.60622,0.72377
5772.67750,0.72062
5770.74877,0.71523
5768.82004,0.71288
5766.89132,0.71565
5764.96259,0.72131
5763.03386,0.72685
5761.10514,0.72987
5759.17641,0.73026
5757.24769,0.72976
5755.31896,0.72963
5753.39023,0.73021
5751.46151,0.73243
5749.53278,0.73533
5747.60406,0.73576
5745.67533,0.73640
5743.74660,0.74109
5741.81788,0.74643
5739.88915,0.74821
5737.96042,0.74607
5736.03170,0.74170
5734.10297,0.73822
5732.17425,0.73941
5730.24552,0.74446
5728.31679,0.74814
5726.38807,0.74858
5724.45934,0.74722
5722.53061,0.74606
5720.60189,0.74459
5718.67316,0.74097
5716.74444,0.73704
5714.81571,0.73386
5712.88698,0.73415
5710.95826,0.74029
5709.02953,0.74520
5707.10081,0.74422
5705.17208,0.74244
5703.24335,0.74321
5701.31463,0.74363
5699.38590,0.74097
5697.45717,0.73817
5695.52845,0.73936
5693.59972,0.74241
5691.67100,0.74227
5689.74227,0.74016
5687.81354,0.73997
5685.88482,0.74107
5683.95609,0.74178
5682.02736,0.74297
5680.09864,0.74641
5678.16991,0.74920
5676.24119,0.74714
5674.31246,0.74367
5672.38373,0.74351
5670.45501,0.74602
5668.52628,0.74878
5666.59756,0.74896
5664.66883,0.74555
5662.74010,0.74170
5660.81138,0.73984
5658.88265,0.73954
5656.95392,0.74117
5655.02520,0.74386
5653.09647,0.74484
5651.16775,0.74481
5649.23902,0.74667
5647.31029,0.74878
5645.38157,0.74820
5643.45284,0.74769
5641.52411,0.74901
5639.59539,0.75087
5637.66666,0.75448
5635.73794,0.75897
5633.80921,0.76047
5631.88048,0.75769
5629.95176,0.75278
5628.02303,0.75124
5626.09430,0.75622
5624.16558,0.76269
5622.23685,0.76541
5620.30813,0.76560
5618.37940,0.76484
5616.45067,0.76279
5614.52195,0.75923
5612.59322,0.75534
5610.66450,0.75412
5608.73577,0.75532
5606.80704,0.75493
5604.87832,0.75244
5602.94959,0.75155
5601.02086,0.75347
5599.09214,0.75589
5597.16341,0.75766
5595.23469,0.75922
5593.30596,0.75816
5591.37723,0.75459
5589.44851,0.75389
5587.51978,0.75535
5585.59105,0.75439
5583.66233,0.75430
5581.73360,0.75800
5579.80488,0.76138
5577.87615,0.76031
5575.94742,0.75506
5574.01870,0.75073
5572.08997,0.75227
5570.16125,0.75708
5568.23252,0.75805
5566.30379,0.75389
5564.37507,0.74960
5562.44634,0.74909
5560.51761,0.75173
5558.58889,0.75389
5556.66016,0.75418
5554.73144,0.75375
5552.80271,0.75253
5550.87398,0.75013
5548.94526,0.74771
5547.01653,0.74630
5545.08780,0.74548
5543.15908,0.74617
5541.23035,0.74981
5539.30163,0.75575
5537.37290,0.76120
5535.44417,0.76118
5533.51545,0.75460
5531.58672,0.74717
5529.65800,0.74337
5527.72927,0.74330
5525.80054,0.74519
5523.87182,0.74698
5521.94309,0.74825
5520.01436,0.75070
5518.08564,0.75387
5516.15691,0.75469
5514.22819,0.75278
5512.29946,0.75102
5510.37073,0.75083
5508.44201,0.75084
5506.51328,0.75024
5504.58455,0.75004
5502.65583,0.75004
5500.72710,0.75049
5498.79838,0.75357
5496.86965,0.75618
5494.94092,0.75260
5493.01220,0.74477
5491.08347,0.73813
5489.15475,0.73496
5487.22602,0.73626
5485.29729,0.74091
5483.36857,0.74532
5481.43984,0.74693
5479.51111,0.74477
5477.58239,0.73996
5475.65366,0.73793
5473.72494,0.74331
5471.79621,0.75105
5469.86748,0.75242
5467.93876,0.74694
5466.01003,0.74115
5464.08130,0.73979
5462.15258,0.74259
5460.22385,0.74745
5458.29513,0.75346
5456.36640,0.75896
5454.43767,0.76050
5452.50895,0.75835
5450.58022,0.75709
5448.65150,0.75864
5446.72277,0.76234
5444.79404,0.76777
5442.86532,0.77171
5440.93659,0.77092
5439.00786,0.76660
5437.07914,0.76260
5435.15041,0.76336
5433.22169,0.76761
5431.29296,0.76723
5429.36423,0.76185
5427.43551,0.76104
5425.50678,0.76804
5423.57805,0.77585
5421.64933,0.77846
5419.72060,0.77484
5417.79188,0.76652
5415.86315,0.75803
5413.93442,0.75411
5412.00570,0.75409
5410.07697,0.75636
5408.14825,0.75969
5406.21952,0.75948
5404.29079,0.75526
5402.36207,0.75309
5400.43334,0.75592
5398.50461,0.76092
5396.57589,0.76468
5394.64716,0.76685
5392.71844,0.76916
5390.78971,0.77103
5388.86098,0.76926
5386.93226,0.76276
5385.00353,0.75595
5383.07480,0.75466
5381.14608,0.75638
5379.21735,0.75572
5377.28863,0.75534
5375.35990,0.75886
5373.43117,0.76261
5371.50245,0.76315
5369.57372,0.76235
5367.64500,0.76232
5365.71627,0.76201
5363.78754,0.76241
5361.85882,0.76644
5359.93009,0.76984
5358.00136,0.76497
5356.07264,0.75225
5354.14391,0.74142
5352.21519,0.74122
5350.28646,0.74804
5348.35773,0.75239
5346.42901,0.75187
5344.50028,0.75045
5342.57155,0.74972
5340.64283,0.74799
5338.71410,0.74702
5336.78538,0.74937
5334.85665,0.75209
5332.92792,0.75370
5330.99920,0.75670
5329.07047,0.76062
5327.14175,0.76367
5325.21302,0.76520
5323.28429,0.76333
5321.35557,0.75831
5319.42684,0.75289
5317.49811,0.74921
5315.56939,0.74964
5313.64066,0.75352
5311.71194,0.75561
5309.78321,0.75370
5307.85448,0.75252
5305.92576,0.75608
5303.99703,0.76023
5302.06830,0.75929
5300.13958,0.75552
5298.21085,0.75403
5296.28213,0.75626
5294.35340,0.76026
5292.42467,0.76055
5290.49595,0.75470
5288.56722,0.74863
5286.63849,0.74574
5284.70977,0.74309
5282.78104,0.73989
5280.85232,0.73780
5278.92359,0.73738
5276.99486,0.73754
5275.06614,0.73610
5273.13741,0.73148
5271.20869,0.72505
5269.27996,0.72068
5267.35123,0.71784
5265.42251,0.71138
5263.49378,0.70447
5261.56505,0.70566
5259.63633,0.71217
5257.70760,0.71530
5255.77888,0.71475
5253.85015,0.71435
5251.92142,0.71156
5249.99270,0.70427
5248.06397,0.69836
5246.13524,0.69947
5244.20652,0.70500
5242.27779,0.70880
5240.34907,0.70990
5238.42034,0.71111
5236.49161,0.71204
5234.56289,0.71039
5232.63416,0.70807
5230.70544,0.70881
5228.77671,0.71177
5226.84798,0.71408
5224.91926,0.71633
5222.99053,0.72056
5221.06180,0.72593
5219.13308,0.73012
5217.20435,0.73259
5215.27563,0.73289
5213.34690,0.73048
5211.41817,0.72768
5209.48945,0.72531
5207.56072,0.72195
5205.63199,0.72104
5203.70327,0.72566
5201.77454,0.73201
5199.84582,0.73610
5197.91709,0.73811
5195.98836,0.73932
5194.05964,0.73954
5192.13091,0.74003
5190.20219,0.74218
5188.27346,0.74289
5186.34473,0.73986
5184.41601,0.73706
5182.48728,0.73715
5180.55855,0.73766
5178.62983,0.73698
5176.70110,0.73548
5174.77238,0.73345
5172.84365,0.73237
5170.91492,0.73419
5168.98620,0.73803
5167.05747,0.74018
5165.12874,0.73891
5163.20002,0.73684
5161.27129,0.73617
5159.34257,0.73468
5157.41384,0.73049
5155.48511,0.72656
5153.55639,0.72612
5151.62766,0.72951
5149.69894,0.73537
5147.77021,0.73948
5145.84148,0.73797
5143.91276,0.73339
5141.98403,0.73093
5140.05530,0.73174
5138.12658,0.73352
5136.19785,0.73366
5134.26913,0.73126
5132.34040,0.72848
5130.41167,0.72953
5128.48295,0.73486
5126.55422,0.73784
5124.62549,0.73325
5122.69677,0.72540
5120.76804,0.72046
5118.83932,0.71891
5116.91059,0.71964
5114.98186,0.72228
5113.05314,0.72503
5111.12441,0.72733
5109.19569,0.73008
5107.26696,0.73247
5105.33823,0.73386
5103.40951,0.73466
5101.48078,0.73484
5099.55205,0.73499
5097.62333,0.73640
5095.69460,0.73930
5093.76588,0.74199
5091.83715,0.74401
5089.90842,0.74777
5087.97970,0.75387
5086.05097,0.75906
5084.12224,0.76005
5082.19352,0.75674
5080.26479,0.75311
5078.33607,0.75347
5076.40734,0.75719
5074.47861,0.76029
5072.54989,0.76029
5070.62116,0.75815
5068.69244,0.75711
5066.76371,0.75858
5064.83498,0.76040
5062.90626,0.76066
5060.97753,0.75891
5059.04880,0.75560
5057.12008,0.75317
5055.19135,0.75390
5053.26263,0.75739
5051.33390,0.76053
5049.40517,0.75960
5047.47645,0.75575
5045.54772,0.75419
5043.61899,0.75620
5041.69027,0.75846
5039.76154,0.75927
5037.83282,0.75999
5035.90409,0.76081
5033.97536,0.76066
5032.04664,0.75937
5030.11791,0.75756
5028.18919,0.75734
5026.26046,0.75997
5024.33173,0.76099
5022.40301,0.75655
5020.47428,0.75222
5018.54555,0.75321
5016.61683,0.75542
5014.68810,0.75483
5012.75938,0.75370
5010.83065,0.75397
5008.90192,0.75484
5006.97320,0.75579
5005.04447,0.75640
5003.11574,0.75625
5001.18702,0.75571
4999.25829,0.75456
4997.32957,0.75178
4995.40084,0.75127
4993.47211,0.75361
4991.54339,0.75612
4989.61466,0.75791
4987.68594,0.75924
4985.75721,0.75942
4983.82848,0.75814
4981.89976,0.75742
4979.97103,0.75834
4978.04230,0.75776
4976.11358,0.75446
4974.18485,0.75149
4972.25613,0.75141
4970.32740,0.75466
4968.39867,0.75805
4966.46995,0.75859
4964.54122,0.75807
4962.61249,0.75798
4960.68377,0.75777
4958.75504,0.75776
4956.82632,0.75815
4954.89759,0.75765
4952.96886,0.75599
4951.04014,0.75535
4949.11141,0.75599
4947.18269,0.75568
4945.25396,0.75390
4943.32523,0.75234
4941.39651,0.75167
4939.46778,0.75075
4937.53905,0.74992
4935.61033,0.74947
4933.68160,0.74769
4931.75288,0.74603
4929.82415,0.74741
4927.89542,0.75051
4925.96670,0.75209
4924.03797,0.75107
4922.10924,0.74886
4920.18052,0.74718
4918.25179,0.74638
4916.32307,0.74607
4914.39434,0.74613
4912.46561,0.74629
4910.53689,0.74603
4908.60816,0.74601
4906.67943,0.74692
4904.75071,0.74780
4902.82198,0.74778
4900.89326,0.74645
4898.96453,0.74396
4897.03580,0.74185
4895.10708,0.74166
4893.17835,0.74271
4891.24963,0.74233
4889.32090,0.74049
4887.39217,0.73967
4885.46345,0.73969
4883.53472,0.73962
4881.60599,0.73944
4879.67727,0.73957
4877.74854,0.74174
4875.81982,0.74402
4873.89109,0.74232
4871.96236,0.73881
4870.03364,0.73887
4868.10491,0.74285
4866.17618,0.74589
4864.24746,0.74500
4862.31873,0.74275
4860.39001,0.74203
4858.46128,0.74153
4856.53255,0.73907
4854.60383,0.73665
4852.67510,0.73708
4850.74638,0.73840
4848.81765,0.73808
4846.88892,0.73823
4844.96020,0.74034
4843.03147,0.74121
4841.10274,0.73941
4839.17402,0.73608
4837.24529,0.73151
4835.31657,0.72747
4833.38784,0.72439
4831.45911,0.72131
4829.53039,0.72007
4827.60166,0.72114
4825.67293,0.72264
4823.74421,0.72310
4821.81548,0.72117
4819.88676,0.71827
4817.95803,0.71695
4816.02930,0.71631
4814.10058,0.71479
4812.17185,0.71350
4810.24313,0.71373
4808.31440,0.71498
4806.38567,0.71604
4804.45695,0.71583
4802.52822,0.71427
4800.59949,0.71285
4798.67077,0.71239
4796.74204,0.71168
4794.81332,0.70981
4792.88459,0.70821
4790.95586,0.70951
4789.02714,0.71272
4787.09841,0.71336
4785.16968,0.71131
4783.24096,0.71018
4781.31223,0.71046
4779.38351,0.71026
4777.45478,0.70919
4775.52605,0.70906
4773.59733,0.71041
4771.66860,0.71151
4769.73988,0.71240
4767.81115,0.71425
4765.88242,0.71647
4763.95370,0.71666
4762.02497,0.71315
4760.09624,0.70855
4758.16752,0.70633
4756.23879,0.70525
4754.31007,0.70347
4752.38134,0.70182
4750.45261,0.70001
4748.52389,0.69756
4746.59516,0.69546
4744.66643,0.69374
4742.73771,0.69213
4740.80898,0.69053
4738.88026,0.68898
4736.95153,0.68734
4735.02280,0.68396
4733.09408,0.67937
4731.16535,0.67658
4729.23663,0.67487
4727.30790,0.67078
4725.37917,0.66386
4723.45045,0.65754
4721.52172,0.65410
4719.59299,0.65149
4717.66427,0.64842
4715.73554,0.64699
4713.80682,0.64777
4711.87809,0.64835
4709.94936,0.64667
4708.02064,0.64343
4706.09191,0.64038
4704.16318,0.63742
4702.23446,0.63363
4700.30573,0.62920
4698.37701,0.62499
4696.44828,0.62153
4694.51955,0.61825
4692.59083,0.61451
4690.66210,0.61159
4688.73338,0.61122
4686.80465,0.61315
4684.87592,0.61663
4682.94720,0.62161
4681.01847,0.62711
4679.08974,0.63217
4677.16102,0.63711
4675.23229,0.64170
4673.30357,0.64531
4671.37484,0.64851
4669.44611,0.65200
4667.51739,0.65509
4665.58866,0.65676
4663.65993,0.65694
4661.73121,0.65694
4659.80248,0.65830
4657.87376,0.65945
4655.94503,0.65816
4654.01630,0.65613
4652.08758,0.65495
4650.15885,0.65305
4648.23013,0.64910
4646.30140,0.64442
4644.37267,0.64116
4642.44395,0.63892
4640.51522,0.63541
4638.58649,0.63050
4636.65777,0.62722
4634.72904,0.62749
4632.80032,0.62960
4630.87159,0.63193
4628.94286,0.63545
4627.01414,0.64131
4625.08541,0.64915
4623.15668,0.65658
4621.22796,0.66166
4619.29923,0.66599
4617.37051,0.67110
4615.44178,0.67558
4613.51305,0.67891
4611.58433,0.68167
4609.65560,0.68227
4607.72688,0.68018
4605.79815,0.67824
4603.86942,0.67733
4601.94070,0.67582
4600.01197,0.67332
4598.08324,0.66956
4596.15452,0.66462
4594.22579,0.66115
4592.29707,0.66057
4590.36834,0.66035
4588.43961,0.65850
4586.51089,0.65516
4584.58216,0.65075
4582.65343,0.64715
4580.72471,0.64573
4578.79598,0.64572
4576.86726,0.64729
4574.93853,0.65145
4573.00980,0.65779
4571.08108,0.66468
4569.15235,0.67086
4567.22363,0.67610
4565.29490,0.68013
4563.36617,0.68247
4561.43745,0.68392
4559.50872,0.68589
4557.57999,0.68783
4555.65127,0.68856
4553.72254,0.68889
4551.79382,0.68959
4549.86509,0.69023
4547.93636,0.69064
4546.00764,0.69075
4544.07891,0.69055
4542.15018,0.69044
4540.22146,0.68966
4538.29273,0.68749
4536.36401,0.68550
4534.43528,0.68552
4532.50655,0.68746
4530.57783,0.68900
4528.64910,0.68722
4526.72037,0.68320
4524.79165,0.68093
4522.86292,0.68091
4520.93420,0.68024
4519.00547,0.67777
4517.07674,0.67553
4515.14802,0.67524
4513.21929,0.67503
4511.29057,0.67272
4509.36184,0.66932
4507.43311,0.66643
4505.50439,0.66364
4503.57566,0.65995
4501.64693,0.65566
4499.71821,0.65138
4497.78948,0.64654
4495.86076,0.64072
4493.93203,0.63454
4492.00330,0.62932
4490.07458,0.62557
4488.14585,0.62248
4486.21712,0.61972
4484.28840,0.61766
4482.35967,0.61600
4480.43095,0.61427
4478.50222,0.61171
4476.57349,0.60789
4474.64477,0.60390
4472.71604,0.60022
4470.78732,0.59549
4468.85859,0.58895
4466.92986,0.58133
4465.00114,0.57363
4463.07241,0.56672
4461.14368,0.56102
4459.21496,0.55625
4457.28623,0.55304
4455.35751,0.55265
4453.42878,0.55422
4451.50005,0.55552
4449.57133,0.55573
4447.64260,0.55557
4445.71387,0.55475
4443.78515,0.55254
4441.85642,0.55036
4439.92770,0.54896
4437.99897,0.54731
4436.07024,0.54532
4434.14152,0.54366
4432.21279,0.54282
4430.28407,0.54305
4428.35534,0.54438
4426.42661,0.54726
4424.49789,0.55211
4422.56916,0.55757
4420.64043,0.56147
4418.71171,0.56358
4416.78298,0.56551
4414.85426,0.56812
4412.92553,0.57050
4410.99680,0.57143
4409.06808,0.57070
4407.13935,0.56919
4405.21062,0.56886
4403.28190,0.57081
4401.35317,0.57378
4399.42445,0.57622
4397.49572,0.57840
4395.56699,0.58067
4393.63827,0.58205
4391.70954,0.58264
4389.78082,0.58376
4387.85209,0.58538
4385.92336,0.58675
4383.99464,0.58846
4382.06591,0.59125
4380.13718,0.59355
4378.20846,0.59386
4376.27973,0.59305
4374.35101,0.59217
4372.42228,0.59196
4370.49355,0.59217
4368.56483,0.59144
4366.63610,0.58977
4364.70737,0.58827
4362.77865,0.58710
4360.84992,0.58625
4358.92120,0.58641
4356.99247,0.58742
4355.06374,0.58792
4353.13502,0.58767
4351.20629,0.58746
4349.27757,0.58720
4347.34884,0.58628
4345.42011,0.58480
4343.49139,0.58337
4341.56266,0.58179
4339.63393,0.57986
4337.70521,0.57848
4335.77648,0.57784
4333.84776,0.57749
4331.91903,0.57743
4329.99030,0.57758
4328.06158,0.57757
4326.13285,0.57703
4324.20412,0.57634
4322.27540,0.57638
4320.34667,0.57673
4318.41795,0.57606
4316.48922,0.57420
4314.56049,0.57223
4312.63177,0.57077
4310.70304,0.56942
4308.77432,0.56716
4306.84559,0.56348
4304.91686,0.55990
4302.98814,0.55805
4301.05941,0.55702
4299.13068,0.55558
4297.20196,0.55386
4295.27323,0.55216
4293.34451,0.55116
4291.41578,0.55078
4289.48705,0.55030
4287.55833,0.55096
4285.62960,0.55318
4283.70087,0.55498
4281.77215,0.55595
4279.84342,0.55689
4277.91470,0.55755
4275.98597,0.55810
4274.05724,0.55954
4272.12852,0.56163
4270.19979,0.56285
4268.27107,0.56338
4266.34234,0.56470
4264.41361,0.56645
4262.48489,0.56737
4260.55616,0.56750
4258.62743,0.56711
4256.69871,0.56633
4254.76998,0.56628
4252.84126,0.56693
4250.91253,0.56632
4248.98380,0.56432
4247.05508,0.56296
4245.12635,0.56310
4243.19762,0.56375
4241.26890,0.56420
4239.34017,0.56465
4237.41145,0.56536
4235.48272,0.56667
4233.55399,0.56801
4231.62527,0.56791
4229.69654,0.56642
4227.76782,0.56496
4225.83909,0.56455
4223.91036,0.56521
4221.98164,0.56633
4220.05291,0.56772
4218.12418,0.56974
4216.19546,0.57238
4214.26673,0.57525
4212.33801,0.57758
4210.40928,0.57827
4208.48055,0.57775
4206.55183,0.57763
4204.62310,0.57844
4202.69437,0.57966
4200.76565,0.58020
4198.83692,0.57946
4196.90820,0.57827
4194.97947,0.57759
4193.05074,0.57776
4191.12202,0.57808
4189.19329,0.57728
4187.26456,0.57541
4185.33584,0.57286
4183.40711,0.56951
4181.47839,0.56605
4179.54966,0.56367
4177.62093,0.56286
4175.69221,0.56363
4173.76348,0.56559
4171.83476,0.56804
4169.90603,0.57051
4167.97730,0.57290
4166.04858,0.57521
4164.11985,0.57757
4162.19112,0.57988
4160.26240,0.58185
4158.33367,0.58347
4156.40495,0.58470
4154.47622,0.58527
4152.54749,0.58568
4150.61877,0.58664
4148.69004,0.58733
4146.76131,0.58637
4144.83259,0.58391
4142.90386,0.58080
4140.97514,0.57761
4139.04641,0.57504
4137.11768,0.57307
4135.18896,0.57074
4133.26023,0.56869
4131.33151,0.56829
4129.40278,0.56860
4127.47405,0.56812
4125.54533,0.56739
4123.61660,0.56730
4121.68787,0.56733
4119.75915,0.56686
4117.83042,0.56589
4115.90170,0.56437
4113.97297,0.56206
4112.04424,0.55878
4110.11552,0.55468
4108.18679,0.54986
4106.25806,0.54507
4104.32934,0.54143
4102.40061,0.53781
4100.47189,0.53218
4098.54316,0.52383
4096.61443,0.51311
4094.68571,0.50234
4092.75698,0.49502
4090.82826,0.49249
4088.89953,0.49382
4086.97080,0.49793
4085.04208,0.50397
4083.11335,0.51085
4081.18462,0.51789
4079.25590,0.52532
4077.32717,0.53315
4075.39845,0.54062
4073.46972,0.54714
4071.54099,0.55260
4069.61227,0.55700
4067.68354,0.56059
4065.75481,0.56337
4063.82609,0.56525
4061.89736,0.56666
4059.96864,0.56839
4058.03991,0.57090
4056.11118,0.57348
4054.18246,0.57484
4052.25373,0.57513
4050.32501,0.57606
4048.39628,0.57729
4046.46755,0.57721
4044.53883,0.57775
4042.61010,0.58067
4040.68137,0.58359
4038.75265,0.58489
4036.82392,0.58568
4034.89520,0.58692
4032.96647,0.58858
4031.03774,0.59034
4029.10902,0.59142
4027.18029,0.59139
4025.25156,0.59132
4023.32284,0.59171
4021.39411,0.59144
4019.46539,0.59077
4017.53666,0.59119
4015.60793,0.59257
4013.67921,0.59357
4011.75048,0.59264
4009.82176,0.59005
4007.89303,0.58901
4005.96430,0.59064
4004.03558,0.59244
4002.10685,0.59365
4000.17812,0.59470
3998.24940,0.59454
3996.32067,0.59502
3994.39195,0.59607
3992.46322,0.59723
3990.53449,0.59837
3988.60577,0.59948
3986.67704,0.60055
3984.74831,0.60143
3982.81959,0.60174
3980.89086,0.60130
3978.96214,0.60060
3977.03341,0.60007
3975.10468,0.59965
3973.17596,0.59922
3971.24723,0.59906
3969.31851,0.59954
3967.38978,0.60035
3965.46105,0.60071
3963.53233,0.60060
3961.60360,0.60096
3959.67487,0.60219
3957.74615,0.60371
3955.81742,0.60514
3953.88870,0.60660
3951.95997,0.60779
3950.03124,0.60782
3948.10252,0.60702
3946.17379,0.60691
3944.24506,0.60761
3942.31634,0.60863
3940.38761,0.60975
3938.45889,0.61039
3936.53016,0.61017
3934.60143,0.60931
3932.67271,0.60868
3930.74398,0.60896
3928.81526,0.60981
3926.88653,0.61091
3924.95780,0.61191
3923.02908,0.61149
3921.10035,0.60965
3919.17162,0.60806
3917.24290,0.60862
3915.31417,0.61116
3913.38545,0.61332
3911.45672,0.61374
3909.52799,0.61328
3907.59927,0.61341
3905.67054,0.61403
3903.74181,0.61387
3901.81309,0.61431
3899.88436,0.61729
3897.95564,0.62064
3896.02691,0.62251
3894.09818,0.62413
3892.16946,0.62609
3890.24073,0.62680
3888.31201,0.62626
3886.38328,0.62650
3884.45455,0.62845
3882.52583,0.63021
3880.59710,0.63062
3878.66837,0.63009
3876.73965,0.62921
3874.81092,0.62834
3872.88220,0.62741
3870.95347,0.62679
3869.02474,0.62743
3867.09602,0.62925
3865.16729,0.63122
3863.23856,0.63162
3861.30984,0.62934
3859.38111,0.62581
3857.45239,0.62233
3855.52366,0.62082
3853.59493,0.62408
3851.66621,0.62840
3849.73748,0.62908
3847.80876,0.62773
3845.88003,0.62766
3843.95130,0.62935
3842.02258,0.63206
3840.09385,0.63493
3838.16512,0.63598
3836.23640,0.63474
3834.30767,0.63271
3832.37895,0.63085
3830.45022,0.62993
3828.52149,0.63027
3826.59277,0.63091
3824.66404,0.63029
3822.73531,0.62870
3820.80659,0.62708
3818.87786,0.62547
3816.94914,0.62342
3815.02041,0.62051
3813.09168,0.61739
3811.16296,0.61465
3809.23423,0.61288
3807.30550,0.61191
3805.37678,0.61186
3803.44805,0.61325
3801.51933,0.61588
3799.59060,0.61865
3797.66187,0.62177
3795.73315,0.62498
3793.80442,0.62713
3791.87570,0.62800
3789.94697,0.62827
3788.01824,0.62857
3786.08952,0.62897
3784.16079,0.62861
3782.23206,0.62775
3780.30334,0.62728
3778.37461,0.62615
3776.44589,0.62332
3774.51716,0.62055
3772.58843,0.61936
3770.65971,0.61847
3768.73098,0.61610
3766.80225,0.61282
3764.87353,0.60969
3762.94480,0.60716
3761.01608,0.60551
3759.08735,0.60410
3757.15862,0.60206
3755.22990,0.60057
3753.30117,0.60160
3751.37245,0.60498
3749.44372,0.60682
3747.51499,0.60613
3745.58627,0.60374
3743.65754,0.60381
3741.72881,0.60643
3739.80009,0.60765
3737.87136,0.60697
3735.94264,0.60571
3734.01391,0.60350
3732.08518,0.60042
3730.15646,0.59878
3728.22773,0.59993
3726.29900,0.60288
3724.37028,0.60642
3722.44155,0.61070
3720.51283,0.61469
3718.58410,0.61591
3716.65537,0.61471
3714.72665,0.61463
3712.79792,0.61723
3710.86920,0.61742
3708.94047,0.61135
3707.01174,0.60357
3705.08302,0.59754
3703.15429,0.59261
3701.22556,0.58738
3699.29684,0.58209
3697.36811,0.57708
3695.43939,0.57227
3693.51066,0.56771
3691.58193,0.56162
3689.65321,0.55068
3687.72448,0.53760
3685.79575,0.52910
3683.86703,0.52549
3681.93830,0.52463
3680.00958,0.52485
3678.08085,0.52424
3676.15212,0.52165
3674.22340,0.51811
3672.29467,0.51577
3670.36595,0.51282
3668.43722,0.50734
3666.50849,0.50132
3664.57977,0.49603
3662.65104,0.49126
3660.72231,0.48708
3658.79359,0.48321
3656.86486,0.47842
3654.93614,0.47328
3653.00741,0.47096
3651.07868,0.47183
3649.14996,0.47052
3647.22123,0.46367
3645.29250,0.45617
3643.36378,0.45139
3641.43505,0.44897
3639.50633,0.44704
3637.57760,0.44412
3635.64887,0.44048
3633.72015,0.43735
3631.79142,0.43592
3629.86270,0.43657
3627.93397,0.43730
3626.00524,0.43616
3624.07652,0.43471
3622.14779,0.43516
3620.21906,0.43780
3618.29034,0.44038
3616.36161,0.44120
3614.43289,0.44104
3612.50416,0.44065
3610.57543,0.44066
3608.64671,0.44187
3606.71798,0.44355
3604.78925,0.44489
3602.86053,0.44649
3600.93180,0.44841
3599.00308,0.44947
3597.07435,0.44932
3595.14562,0.44867
3593.21690,0.44811
3591.28817,0.44796
3589.35945,0.44788
3587.43072,0.44666
3585.50199,0.44406
3583.57327,0.44131
3581.64454,0.43877
3579.71581,0.43619
3577.78709,0.43342
3575.85836,0.43020
3573.92964,0.42652
3572.00091,0.42336
3570.07218,0.42177
3568.14346,0.42096
3566.21473,0.41877
3564.28600,0.41479
3562.35728,0.41033
3560.42855,0.40634
3558.49983,0.40318
3556.57110,0.40131
3554.64237,0.40078
3552.71365,0.40075
3550.78492,0.40029
3548.85620,0.39972
3546.92747,0.40012
3544.99874,0.40165
3543.07002,0.40296
3541.14129,0.40353
3539.21256,0.40426
3537.28384,0.40559
3535.35511,0.40715
3533.42639,0.40901
3531.49766,0.41129
3529.56893,0.41332
3527.64021,0.41484
3525.71148,0.41682
3523.78275,0.41956
3521.85403,0.42170
3519.92530,0.42304
3517.99658,0.42465
3516.06785,0.42676
3514.13912,0.42893
3512.21040,0.43100
3510.28167,0.43255
3508.35295,0.43304
3506.42422,0.43309
3504.49549,0.43362
3502.56677,0.43434
3500.63804,0.43492
3498.70931,0.43560
3496.78059,0.43637
3494.85186,0.43686
3492.92314,0.43699
3490.99441,0.43704
3489.06568,0.43742
3487.13696,0.43791
3485.20823,0.43776
3483.27950,0.43722
3481.35078,0.43674
3479.42205,0.43612
3477.49333,0.43516
3475.56460,0.43377
3473.63587,0.43170
3471.70715,0.42928
3469.77842,0.42728
3467.84970,0.42561
3465.92097,0.42326
3463.99224,0.41970
3462.06352,0.41536
3460.13479,0.41091
3458.20606,0.40670
3456.27734,0.40295
3454.34861,0.39964
3452.41989,0.39630
3450.49116,0.39278
3448.56243,0.38874
3446.63371,0.38329
3444.70498,0.37683
3442.77625,0.37042
3440.84753,0.36419
3438.91880,0.35793
3436.99008,0.35125
3435.06135,0.34412
3433.13262,0.33837
3431.20390,0.33654
3429.27517,0.33932
3427.34644,0.34533
3425.41772,0.35272
3423.48899,0.36094
3421.56027,0.37059
3419.63154,0.38083
3417.70281,0.38963
3415.77409,0.39686
3413.84536,0.40348
3411.91664,0.41002
3409.98791,0.41660
3408.05918,0.42221
3406.13046,0.42626
3404.20173,0.42993
3402.27300,0.43392
3400.34428,0.43702
3398.41555,0.43790
3396.48683,0.43997
3394.55810,0.44239
3392.62937,0.44460
3390.70065,0.44691
3388.77192,0.44930
3386.84319,0.45131
3384.91447,0.45252
3382.98574,0.45305
3381.05702,0.45331
3379.12829,0.45347
3377.19956,0.45377
3375.27084,0.45404
3373.34211,0.45414
3371.41339,0.45436
3369.48466,0.45462
3367.55593,0.45439
3365.62721,0.45349
3363.69848,0.45222
3361.76975,0.45095
3359.84103,0.44980
3357.91230,0.44848
3355.98358,0.44686
3354.05485,0.44522
3352.12612,0.44383
3350.19740,0.44242
3348.26867,0.44029
3346.33994,0.43755
3344.41122,0.43518
3342.48249,0.43337
3340.55377,0.43159
3338.62504,0.43005
3336.69631,0.42942
3334.76759,0.43003
3332.83886,0.43159
3330.91014,0.43348
3328.98141,0.43542
3327.05268,0.43739
3325.12396,0.43927
3323.19523,0.44101
3321.26650,0.44263
3319.33778,0.44403
3317.40905,0.44474
3315.48033,0.44443
3313.55160,0.44375
3311.62287,0.44343
3309.69415,0.44319
3307.76542,0.44283
3305.83669,0.44267
3303.90797,0.44274
3301.97924,0.44288
3300.05052,0.44291
3298.12179,0.44299
3296.19306,0.44349
3294.26434,0.44437
3292.33561,0.44554
3290.40689,0.44719
3288.47816,0.44889
3286.54943,0.44997
3284.62071,0.45075
3282.69198,0.45173
3280.76325,0.45256
3278.83453,0.45276
3276.90580,0.45279
3274.97708,0.45356
3273.04835,0.45506
3271.11962,0.45623
3269.19090,0.45647
3267.26217,0.45637
3265.33344,0.45632
3263.40472,0.45642
3261.47599,0.45696
3259.54727,0.45772
3257.61854,0.45787
3255.68981,0.45721
3253.76109,0.45656
3251.83236,0.45658
3249.90364,0.45685
3247.97491,0.45640
3246.04618,0.45516
3244.11746,0.45408
3242.18873,0.45394
3240.26000,0.45439
3238.33128,0.45426
3236.40255,0.45340
3234.47383,0.45293
3232.54510,0.45331
3230.61637,0.45406
3228.68765,0.45487
3226.75892,0.45583
3224.83019,0.45721
3222.90147,0.45840
3220.97274,0.45859
3219.04402,0.45856
3217.11529,0.45927
3215.18656,0.46035
3213.25784,0.46147
3211.32911,0.46278
3209.40039,0.46423
3207.47166,0.46522
3205.54293,0.46524
3203.61421,0.46414
3201.68548,0.46233
3199.75675,0.46109
3197.82803,0.46125
3195.89930,0.46229
3193.97058,0.46319
3192.04185,0.46339
3190.11312,0.46307
3188.18440,0.46245
3186.25567,0.46148
3184.32694,0.46098
3182.39822,0.46160
3180.46949,0.46251
3178.54077,0.46288
3176.61204,0.46282
3174.68331,0.46289
3172.75459,0.46326
3170.82586,0.46337
3168.89714,0.46276
3166.96841,0.46165
3165.03968,0.46063
3163.11096,0.46011
3161.18223,0.45946
3159.25350,0.45828
3157.32478,0.45729
3155.39605,0.45677
3153.46733,0.45611
3151.53860,0.45484
3149.60987,0.45304
3147.68115,0.45103
3145.75242,0.44917
3143.82369,0.44760
3141.89497,0.44590
3139.96624,0.44362
3138.03752,0.44071
3136.10879,0.43748
3134.18006,0.43417
3132.25134,0.43096
3130.32261,0.42836
3128.39389,0.42697
3126.46516,0.42671
3124.53643,0.42689
3122.60771,0.42706
3120.67898,0.42679
3118.75025,0.42548
3116.82153,0.42315
3114.89280,0.42025
3112.96408,0.41674
3111.03535,0.41214
3109.10662,0.40662
3107.17790,0.40109
3105.24917,0.39661
3103.32044,0.39404
3101.39172,0.39401
3099.46299,0.39635
3097.53427,0.39982
3095.60554,0.40298
3093.67681,0.40459
3091.74809,0.40366
3089.81936,0.40031
3087.89063,0.39565
3085.96191,0.39082
3084.03318,0.38623
3082.10446,0.38205
3080.17573,0.37909
3078.24700,0.37798
3076.31828,0.37794
3074.38955,0.37766
3072.46083,0.37638
3070.53210,0.37435
3068.60337,0.37280
3066.67465,0.37268
3064.74592,0.37344
3062.81719,0.37324
3060.88847,0.37033
3058.95974,0.36457
3057.03102,0.35833
3055.10229,0.35528
3053.17356,0.35799
3051.24484,0.36648
3049.31611,0.37878
3047.38738,0.39192
3045.45866,0.40338
3043.52993,0.41191
3041.60121,0.41701
3039.67248,0.41914
3037.74375,0.41951
3035.81503,0.41856
3033.88630,0.41567
3031.95758,0.41098
3030.02885,0.40563
3028.10012,0.40012
3026.17140,0.39357
3024.24267,0.38491
3022.31394,0.37391
3020.38522,0.36138
3018.45649,0.34868
3016.52777,0.33732
3014.59904,0.32912
3012.67031,0.32488
3010.74159,0.32342
3008.81286,0.32300
3006.88413,0.32243
3004.95541,0.32120
3003.02668,0.31939
3001.09796,0.31728
2999.16923,0.31510
2997.24050,0.31215
2995.31178,0.30869
2993.38305,0.30475
2991.45433,0.30029
2989.52560,0.29462
2987.59687,0.28729
2985.66815,0.27888
2983.73942,0.26983
2981.81069,0.26015
2979.88197,0.24972
2977.95324,0.23846
2976.02452,0.22705
2974.09579,0.21715
2972.16706,0.21060
2970.23834,0.20850
2968.30961,0.21072
2966.38088,0.21608
2964.45216,0.22285
2962.52343,0.22933
2960.59471,0.23523
2958.66598,0.24158
2956.73725,0.24895
2954.80853,0.25719
2952.87980,0.26613
2950.95108,0.27574
2949.02235,0.28637
2947.09362,0.29781
2945.16490,0.30914
2943.23617,0.31989
2941.30744,0.32977
2939.37872,0.33840
2937.44999,0.34537
2935.52127,0.35039
2933.59254,0.35357
2931.66381,0.35529
2929.73509,0.35552
2927.80636,0.35388
2925.87763,0.35062
2923.94891,0.34659
2922.02018,0.34180
2920.09146,0.33534
2918.16273,0.32673
2916.23400,0.31586
2914.30528,0.30306
2912.37655,0.28990
2910.44783,0.27900
2908.51910,0.27316
2906.59037,0.27441
2904.66165,0.28279
2902.73292,0.29558
2900.80419,0.30864
2898.87547,0.31914
2896.94674,0.32625
2895.01802,0.33041
2893.08929,0.33283
2891.16056,0.33452
2889.23184,0.33607
2887.30311,0.33800
2885.37438,0.34080
2883.44566,0.34471
2881.51693,0.34930
2879.58821,0.35374
2877.65948,0.35718
2875.73075,0.35958
2873.80203,0.36162
2871.87330,0.36359
2869.94458,0.36538
2868.01585,0.36717
2866.08712,0.36925
2864.15840,0.37159
2862.22967,0.37407
2860.30094,0.37683
2858.37222,0.38020
2856.44349,0.38424
2854.51477,0.38874
2852.58604,0.39403
2850.65731,0.40072
2848.72859,0.40857
2846.79986,0.41681
2844.87113,0.42489
2842.94241,0.43242
2841.01368,0.43909
2839.08496,0.44481
2837.15623,0.44968
2835.22750,0.45402
2833.29878,0.45816
2831.37005,0.46188
2829.44133,0.46522
2827.51260,0.46841
2825.58387,0.47101
2823.65515,0.47248
2821.72642,0.47281
2819.79769,0.47207
2817.86897,0.47023
2815.94024,0.46796
2814.01152,0.46631
2812.08279,0.46548
2810.15406,0.46490
2808.22534,0.46413
2806.29661,0.46339
2804.36788,0.46348
2802.43916,0.46508
2800.51043,0.46835
2798.58171,0.47277
2796.65298,0.47701
2794.72425,0.48026
2792.79553,0.48303
2790.86680,0.48584
2788.93808,0.48849
2787.00935,0.49095
2785.08062,0.49342
2783.15190,0.49583
2781.22317,0.49788
2779.29444,0.49969
2777.36572,0.50147
2775.43699,0.50312
2773.50827,0.50435
2771.57954,0.50509
2769.65081,0.50578
2767.72209,0.50665
2765.79336,0.50740
2763.86463,0.50805
2761.93591,0.50859
2760.00718,0.50855
2758.07846,0.50811
2756.14973,0.50792
2754.22100,0.50781
2752.29228,0.50748
2750.36355,0.50709
2748.43483,0.50656
2746.50610,0.50607
2744.57737,0.50639
2742.64865,0.50777
2740.71992,0.50984
2738.79119,0.51237
2736.86247,0.51529
2734.93374,0.51827
2733.00502,0.52097
2731.07629,0.52354
2729.14756,0.52632
2727.21884,0.52888
2725.29011,0.53090
2723.36138,0.53275
2721.43266,0.53429
2719.50393,0.53526
2717.57521,0.53628
2715.64648,0.53775
2713.71775,0.53932
2711.78903,0.54078
2709.86030,0.54222
2707.93157,0.54378
2706.00285,0.54545
2704.07412,0.54708
2702.14540,0.54852
2700.21667,0.54978
2698.28794,0.55080
2696.35922,0.55168
2694.43049,0.55240
2692.50177,0.55286
2690.57304,0.55325
2688.64431,0.55347
2686.71559,0.55321
2684.78686,0.55272
2682.85813,0.55243
2680.92941,0.55257
2679.00068,0.55300
2677.07196,0.55339
2675.14323,0.55381
2673.21450,0.55449
2671.28578,0.55527
2669.35705,0.55579
2667.42832,0.55585
2665.49960,0.55556
2663.57087,0.55495
2661.64215,0.55405
2659.71342,0.55314
2657.78469,0.55227
2655.85597,0.55111
2653.92724,0.54945
2651.99852,0.54741
2650.06979,0.54531
2648.14106,0.54314
2646.21234,0.54048
2644.28361,0.53709
2642.35488,0.53319
2640.42616,0.52904
2638.49743,0.52467
2636.56871,0.52042
2634.63998,0.51683
2632.71125,0.51441
2630.78253,0.51341
2628.85380,0.51333
2626.92507,0.51373
2624.99635,0.51478
2623.06762,0.51631
2621.13890,0.51744
2619.21017,0.51765
2617.28144,0.51728
2615.35272,0.51682
2613.42399,0.51643
2611.49527,0.51604
2609.56654,0.51556
2607.63781,0.51491
2605.70909,0.51405
2603.78036,0.51302
2601.85163,0.51172
2599.92291,0.50976
2597.99418,0.50714
2596.06546,0.50442
2594.13673,0.50209
2592.20800,0.50009
2590.27928,0.49824
2588.35055,0.49672
2586.42182,0.49552
2584.49310,0.49446
2582.56437,0.49367
2580.63565,0.49336
2578.70692,0.49355
2576.77819,0.49405
2574.84947,0.49462
2572.92074,0.49483
2570.99202,0.49431
2569.06329,0.49318
2567.13456,0.49189
2565.20584,0.49096
2563.27711,0.49063
2561.34838,0.49065
2559.41966,0.49058
2557.49093,0.49021
2555.56221,0.48957
2553.63348,0.48890
2551.70475,0.48840
2549.77603,0.48799
2547.84730,0.48747
2545.91857,0.48681
2543.98985,0.48623
2542.06112,0.48587
2540.13240,0.48557
2538.20367,0.48530
2536.27494,0.48520
2534.34622,0.48540
2532.41749,0.48600
2530.48877,0.48684
2528.56004,0.48778
2526.63131,0.48908
2524.70259,0.49097
2522.77386,0.49329
2520.84513,0.49558
2518.91641,0.49731
2516.98768,0.49860
2515.05896,0.49984
2513.13023,0.50093
2511.20150,0.50169
2509.27278,0.50224
2507.34405,0.50256
2505.41532,0.50261
2503.48660,0.50273
2501.55787,0.50317
2499.62915,0.50374
2497.70042,0.50450
2495.77169,0.50579
2493.84297,0.50760
2491.91424,0.50970
2489.98552,0.51198
2488.05679,0.51429
2486.12806,0.51662
2484.19934,0.51900
2482.27061,0.52136
2480.34188,0.52374
2478.41316,0.52598
2476.48443,0.52786
2474.55571,0.52962
2472.62698,0.53138
2470.69825,0.53263
2468.76953,0.53314
2466.84080,0.53320
2464.91207,0.53316
2462.98335,0.53338
2461.05462,0.53392
2459.12590,0.53419
2457.19717,0.53380
2455.26844,0.53295
2453.33972,0.53206
2451.41099,0.53131
2449.48227,0.53053
2447.55354,0.52933
2445.62481,0.52731
2443.69609,0.52456
2441.76736,0.52158
2439.83863,0.51844
2437.90991,0.51491
2435.98118,0.51111
2434.05246,0.50751
2432.12373,0.50420
2430.19500,0.50084
2428.26628,0.49717
2426.33755,0.49333
2424.40882,0.48956
2422.48010,0.48562
2420.55137,0.48165
2418.62265,0.47821
2416.69392,0.47517
2414.76519,0.47214
2412.83647,0.46912
2410.90774,0.46605
2408.97902,0.46293
2407.05029,0.45985
2405.12156,0.45711
2403.19284,0.45491
2401.26411,0.45283
2399.33538,0.45052
2397.40666,0.44813
2395.47793,0.44601
2393.54921,0.44427
2391.62048,0.44273
2389.69175,0.44107
2387.76303,0.43894
2385.83430,0.43622
2383.90557,0.43314
2381.97685,0.43010
2380.04812,0.42741
2378.11940,0.42498
2376.19067,0.42237
2374.26194,0.41919
2372.33322,0.41567
2370.40449,0.41251
2368.47576,0.40939
2366.54704,0.40588
2364.61831,0.40352
2362.68959,0.40268
2360.76086,0.40332
2358.83213,0.40882
2356.90341,0.41928
2354.97468,0.42924
2353.04596,0.43280
2351.11723,0.42988
2349.18850,0.42875
2347.25978,0.43500
2345.33105,0.44251
2343.40232,0.44354
2341.47360,0.44098
2339.54487,0.43973
2337.61615,0.44013
2335.68742,0.44197
2333.75869,0.44470
2331.82997,0.44777
2329.90124,0.45099
2327.97251,0.45390
2326.04379,0.45665
2324.11506,0.46042
2322.18634,0.46599
2320.25761,0.47175
2318.32888,0.47558
2316.40016,0.47771
2314.47143,0.47929
2312.54271,0.48026
2310.61398,0.48050
2308.68525,0.48047
2306.75653,0.48018
2304.82780,0.47919
2302.89907,0.47741
2300.97035,0.47493
2299.04162,0.47165
2297.11290,0.46782
2295.18417,0.46408
2293.25544,0.46085
2291.32672,0.45825
2289.39799,0.45632
2287.46926,0.45497
2285.54054,0.45418
2283.61181,0.45418
2281.68309,0.45500
2279.75436,0.45604
2277.82563,0.45653
2275.89691,0.45625
2273.96818,0.45545
2272.03946,0.45437
2270.11073,0.45314
2268.18200,0.45193
2266.25328,0.45081
2264.32455,0.44975
2262.39582,0.44898
2260.46710,0.44875
2258.53837,0.44897
2256.60965,0.44954
2254.68092,0.45057
2252.75219,0.45215
2250.82347,0.45450
2248.89474,0.45764
2246.96601,0.46044
2245.03729,0.46332
2243.10856,0.46611
2241.17984,0.46873
2239.25111,0.47106
2237.32238,0.47300
2235.39366,0.47463
2233.46493,0.47598
2231.53621,0.47704
2229.60748,0.47792
2227.67875,0.47887
2225.75003,0.47982
2223.82130,0.48048
2221.89257,0.48097
2219.96385,0.48160
2218.03512,0.48238
2216.10640,0.48313
2214.17767,0.48381
2212.24894,0.48460
2210.32022,0.48572
2208.39149,0.48738
2206.46276,0.48961
2204.53404,0.49222
2202.60531,0.49471
2200.67659,0.49657
2198.74786,0.49787
2196.81913,0.49873
2194.89041,0.49887
2192.96168,0.49837
2191.03296,0.49771
2189.10423,0.49695
2187.17550,0.49573
2185.24678,0.49396
2183.31805,0.49182
2181.38932,0.48932
2179.46060,0.48655
2177.53187,0.48358
2175.60315,0.48015
2173.67442,0.47624
2171.74569,0.47212
2169.81697,0.46796
2167.88824,0.46386
2165.95951,0.45969
2164.03079,0.45519
2162.10206,0.45042
2160.17334,0.44538
2158.24461,0.44010
2156.31588,0.43486
2154.38716,0.42982
2152.45843,0.42498
2150.52971,0.42069
2148.60098,0.41712
2146.67225,0.41394
2144.74353,0.41082
2142.81480,0.40785
2140.88607,0.40527
2138.95735,0.40304
2137.02862,0.40083
2135.09990,0.39829
2133.17117,0.39534
2131.24244,0.39192
2129.31372,0.38803
2127.38499,0.38396
2125.45626,0.38008
2123.52754,0.37651
2121.59881,0.37314
2119.67009,0.37001
2117.74136,0.36742
2115.81263,0.36551
2113.88391,0.36443
2111.95518,0.36414
2110.02646,0.36418
2108.09773,0.36435
2106.16900,0.36495
2104.24028,0.36593
2102.31155,0.36686
2100.38282,0.36757
2098.45410,0.36845
2096.52537,0.36963
2094.59665,0.37096
2092.66792,0.37255
2090.73919,0.37457
2088.81047,0.37713
2086.88174,0.38043
2084.95301,0.38425
2083.02429,0.38816
2081.09556,0.39222
2079.16684,0.39659
2077.23811,0.40104
2075.30938,0.40542
2073.38066,0.40976
2071.45193,0.41414
2069.52321,0.41862
2067.59448,0.42349
2065.66575,0.42886
2063.73703,0.43423
2061.80830,0.43920
2059.87957,0.44403
2057.95085,0.44904
2056.02212,0.45392
2054.09340,0.45807
2052.16467,0.46148
2050.23594,0.46437
2048.30722,0.46674
2046.37849,0.46856
2044.44976,0.47006
2042.52104,0.47108
2040.59231,0.47104
2038.66359,0.47023
2036.73486,0.46936
2034.80613,0.46829
2032.87741,0.46673
2030.94868,0.46452
2029.01996,0.46145
2027.09123,0.45757
2025.16250,0.45335
2023.23378,0.44919
2021.30505,0.44521
2019.37632,0.44153
2017.44760,0.43764
2015.51887,0.43327
2013.59015,0.42889
2011.66142,0.42479
2009.73269,0.42056
2007.80397,0.41617
2005.87524,0.41188
2003.94651,0.40759
2002.01779,0.40305
2000.08906,0.39844
1998.16034,0.39387
1996.23161,0.38948
1994.30288,0.38578
1992.37416,0.38223
1990.44543,0.37766
1988.51670,0.37243
1986.58798,0.36725
1984.65925,0.36272
1982.73053,0.35888
1980.80180,0.35476
1978.87307,0.34967
1976.94435,0.34383
1975.01562,0.33771
1973.08690,0.33132
1971.15817,0.32455
1969.22944,0.31705
1967.30072,0.30775
1965.37199,0.29709
1963.44326,0.28790
1961.51454,0.28228
1959.58581,0.28084
1957.65709,0.28326
1955.72836,0.28819
1953.79963,0.29382
1951.87091,0.29935
1949.94218,0.30514
1948.01345,0.31147
1946.08473,0.31830
1944.15600,0.32545
1942.22728,0.33195
1940.29855,0.33677
1938.36982,0.34121
1936.44110,0.34662
1934.51237,0.35254
1932.58365,0.35793
1930.65492,0.36250
1928.72619,0.36682
1926.79747,0.37170
1924.86874,0.37731
1922.94001,0.38233
1921.01129,0.38585
1919.08256,0.38901
1917.15384,0.39174
1915.22511,0.39326
1913.29638,0.39522
1911.36766,0.39870
1909.43893,0.40204
1907.51020,0.40374
1905.58148,0.40456
1903.65275,0.40563
1901.72403,0.40695
1899.79530,0.40847
1897.86657,0.41021
1895.93785,0.41160
1894.00912,0.41233
1892.08040,0.41331
1890.15167,0.41446
1888.22294,0.41400
1886.29422,0.41217
1884.36549,0.41053
1882.43676,0.40920
1880.50804,0.40774
1878.57931,0.40592
1876.65059,0.40354
1874.72186,0.40110
1872.79313,0.40023
1870.86441,0.40143
1868.93568,0.40082
1867.00695,0.39417
1865.07823,0.38443
1863.14950,0.37645
1861.22078,0.37053
1859.29205,0.36469
1857.36332,0.35787
1855.43460,0.35022
1853.50587,0.34206
1851.57715,0.33397
1849.64842,0.32686
1847.71969,0.32112
1845.79097,0.31537
1843.86224,0.30707
1841.93351,0.29706
1840.00479,0.28898
1838.07606,0.28290
1836.14734,0.27695
1834.21861,0.27194
1832.28988,0.26977
1830.36116,0.26893
1828.43243,0.26631
1826.50370,0.26272
1824.57498,0.25973
1822.64625,0.25727
1820.71753,0.25562
1818.78880,0.25487
1816.86007,0.25441
1814.93135,0.25410
1813.00262,0.25420
1811.07390,0.25386
1809.14517,0.25202
1807.21644,0.24961
1805.28772,0.24831
1803.35899,0.24851
1801.43026,0.24879
1799.50154,0.24751
1797.57281,0.24530
1795.64409,0.24425
1793.71536,0.24431
1791.78663,0.24202
1789.85791,0.23611
1787.92918,0.23009
1786.00045,0.22586
1784.07173,0.22259
1782.14300,0.21912
1780.21428,0.21451
1778.28555,0.20938
1776.35682,0.20597
1774.42810,0.20432
1772.49937,0.20028
1770.57065,0.19062
1768.64192,0.17900
1766.71319,0.16946
1764.78447,0.16246
1762.85574,0.15538
1760.92701,0.14575
1758.99829,0.13433
1757.06956,0.12202
1755.14084,0.11003
1753.21211,0.09931
1751.28338,0.08723
1749.35466,0.07142
1747.42593,0.05518
1745.49720,0.04246
1743.56848,0.03372
1741.63975,0.02806
1739.71103,0.02461
1737.78230,0.02320
1735.85357,0.02378
1733.92485,0.02508
1731.99612,0.02528
1730.06740,0.02488
1728.13867,0.02505
1726.20994,0.02576
1724.28122,0.02686
1722.35249,0.02842
1720.42376,0.03098
1718.49504,0.03529
1716.56631,0.04087
1714.63759,0.04608
1712.70886,0.05121
1710.78013,0.05766
1708.85141,0.06616
1706.92268,0.07710
1704.99395,0.08937
1703.06523,0.10086
1701.13650,0.11321
1699.20778,0.12731
1697.27905,0.13853
1695.35032,0.14431
1693.42160,0.14654
1691.49287,0.14836
1689.56415,0.15100
1687.63542,0.15447
1685.70669,0.15912
1683.77797,0.16314
1681.84924,0.16447
1679.92051,0.16645
1677.99179,0.17150
1676.06306,0.17909
1674.13434,0.18696
1672.20561,0.19452
1670.27688,0.20281
1668.34816,0.20925
1666.41943,0.21316
1664.49070,0.21885
1662.56198,0.22645
1660.63325,0.23138
1658.70453,0.23407
1656.77580,0.23971
1654.84707,0.25049
1652.91835,0.25949
1650.98962,0.25982
1649.06090,0.26039
1647.13217,0.26279
1645.20344,0.25905
1643.27472,0.25252
1641.34599,0.25047
1639.41726,0.25453
1637.48854,0.26176
1635.55981,0.26450
1633.63109,0.25948
1631.70236,0.25473
1629.77363,0.25447
1627.84491,0.25679
1625.91618,0.25905
1623.98745,0.25924
1622.05873,0.25597
1620.13000,0.25223
1618.20128,0.24989
1616.27255,0.24511
1614.34382,0.23836
1612.41510,0.23650
1610.48637,0.24148
1608.55764,0.24955
1606.62892,0.25641
1604.70019,0.26155
1602.77147,0.26615
1600.84274,0.27033
1598.91401,0.27378
1596.98529,0.27600
1595.05656,0.27566
1593.12784,0.27214
1591.19911,0.26644
1589.27038,0.25902
1587.34166,0.24882
1585.41293,0.23458
1583.48420,0.21697
1581.55548,0.20074
1579.62675,0.19264
1577.69803,0.19636
1575.76930,0.20815
1573.84057,0.21905
1571.91185,0.22922
1569.98312,0.24171
1568.05439,0.25147
1566.12567,0.25518
1564.19694,0.25745
1562.26822,0.26373
1560.33949,0.27570
1558.41076,0.28342
1556.48204,0.27624
1554.55331,0.26619
1552.62459,0.26031
1550.69586,0.25726
1548.76713,0.25548
1546.83841,0.25639
1544.90968,0.26310
1542.98095,0.27598
1541.05223,0.28494
1539.12350,0.27612
1537.19478,0.26216
1535.26605,0.25550
1533.33732,0.25216
1531.40860,0.24676
1529.47987,0.24184
1527.55114,0.23991
1525.62242,0.24050
1523.69369,0.24328
1521.76497,0.24616
1519.83624,0.24519
1517.90751,0.23979
1515.97879,0.22897
1514.05006,0.21345
1512.12134,0.19682
1510.19261,0.17994
1508.26388,0.15914
1506.33516,0.13780
1504.40643,0.13282
1502.47770,0.14640
1500.54898,0.17324
1498.62025,0.20688
1496.69153,0.23513
1494.76280,0.24846
1492.83407,0.25279
1490.90535,0.25412
1488.97662,0.24826
1487.04789,0.23384
1485.11917,0.21851
1483.19044,0.20555
1481.26172,0.19338
1479.33299,0.18172
1477.40426,0.17135
1475.47554,0.16151
1473.54681,0.15137
1471.61809,0.14330
1469.68936,0.14130
1467.76063,0.14480
1465.83191,0.14916
1463.90318,0.14967
1461.97445,0.14796
1460.04573,0.14870
1458.11700,0.14995
1456.18828,0.14516
1454.25955,0.13786
1452.33082,0.13440
1450.40210,0.13512
1448.47337,0.13773
1446.54464,0.13962
1444.61592,0.13994
1442.68719,0.13997
1440.75847,0.14107
1438.82974,0.14404
1436.90101,0.14849
1434.97229,0.15244
1433.04356,0.15500
1431.11484,0.15651
1429.18611,0.15596
1427.25738,0.15235
1425.32866,0.14553
1423.39993,0.13556
1421.47120,0.12242
1419.54248,0.10321
1417.61375,0.07937
1415.68503,0.06039
1413.75630,0.04953
1411.82757,0.04546
1409.89885,0.04701
1407.97012,0.05319
1406.04139,0.06308
1404.11267,0.07445
1402.18394,0.08434
1400.25522,0.09262
1398.32649,0.09962
1396.39776,0.10353
1394.46904,0.10346
1392.54031,0.10083
1390.61159,0.09762
1388.68286,0.09437
1386.75413,0.09115
1384.82541,0.08900
1382.89668,0.08860
1380.96795,0.08923
1379.03923,0.08986
1377.11050,0.08995
1375.18178,0.08869
1373.25305,0.08558
1371.32432,0.08250
1369.39560,0.08144
1367.46687,0.08241
1365.53814,0.08441
1363.60942,0.08596
1361.68069,0.08513
1359.75197,0.08152
1357.82324,0.07629
1355.89451,0.07000
1353.96579,0.06303
1352.03706,0.05625
1350.10834,0.05040
1348.17961,0.04609
1346.25088,0.04366
1344.32216,0.04298
1342.39343,0.04401
1340.46470,0.04721
1338.53598,0.05310
1336.60725,0.06165
1334.67853,0.07211
1332.74980,0.08254
1330.82107,0.08992
1328.89235,0.09217
1326.96362,0.08954
1325.03489,0.08375
1323.10617,0.07670
1321.17744,0.06959
1319.24872,0.06258
1317.31999,0.05574
1315.39126,0.04961
1313.46254,0.04431
1311.53381,0.03968
1309.60509,0.03587
1307.67636,0.03291
1305.74763,0.03056
1303.81891,0.02868
1301.89018,0.02737
1299.96145,0.02671
1298.03273,0.02655
1296.10400,0.02669
1294.17528,0.02713
1292.24655,0.02804
1290.31782,0.02941
1288.38910,0.03109
1286.46037,0.03285
1284.53164,0.03464
1282.60292,0.03672
1280.67419,0.03899
1278.74547,0.04091
1276.81674,0.04220
1274.88801,0.04332
1272.95929,0.04472
1271.03056,0.04599
1269.10183,0.04657
1267.17311,0.04675
1265.24438,0.04699
1263.31566,0.04737
1261.38693,0.04774
1259.45820,0.04795
1257.52948,0.04803
1255.60075,0.04824
1253.67203,0.04849
1251.74330,0.04849
1249.81457,0.04819
1247.88585,0.04748
1245.95712,0.04610
1244.02839,0.04453
1242.09967,0.04417
1240.17094,0.04613
1238.24222,0.05069
1236.31349,0.05804
1234.38476,0.06862
1232.45604,0.08189
1230.52731,0.09577
1228.59858,0.10820
1226.66986,0.11865
1224.74113,0.12801
1222.81241,0.13794
1220.88368,0.14953
1218.95495,0.16174
1217.02623,0.17218
1215.09750,0.17952
1213.16878,0.18477
1211.24005,0.19005
1209.31132,0.19643
1207.38260,0.20383
1205.45387,0.21181
1203.52514,0.21971
1201.59642,0.22684
1199.66769,0.23281
1197.73897,0.23749
1195.81024,0.24070
1193.88151,0.24171
1191.95279,0.23974
1190.02406,0.23493
1188.09533,0.22800
1186.16661,0.21936
1184.23788,0.20939
1182.30916,0.19869
1180.38043,0.18790
1178.45170,0.17783
1176.52298,0.16937
1174.59425,0.16309
1172.66553,0.15888
1170.73680,0.15542
1168.80807,0.15091
1166.87935,0.14467
1164.95062,0.13666
1163.02189,0.12686
1161.09317,0.11633
1159.16444,0.10615
1157.23572,0.09609
1155.30699,0.08569
1153.37826,0.07526
1151.44954,0.06565
1149.52081,0.05744
1147.59208,0.05034
1145.66336,0.04399
1143.73463,0.03890
1141.80591,0.03593
1139.87718,0.03499
1137.94845,0.03529
1136.01973,0.03637
1134.09100,0.03815
1132.16228,0.04020
1130.23355,0.04158
1128.30482,0.04215
1126.37610,0.04258
1124.44737,0.04277
1122.51864,0.04240
1120.58992,0.04220
1118.66119,0.04263
1116.73247,0.04312
1114.80374,0.04361
1112.87501,0.04458
1110.94629,0.04597
1109.01756,0.04736
1107.08883,0.04855
1105.16011,0.04923
1103.23138,0.04946
1101.30266,0.05066
1099.37393,0.05406
1097.44520,0.05896
1095.51648,0.06444
1093.58775,0.07063
1091.65903,0.07791
1089.73030,0.08658
1087.80157,0.09661
1085.87285,0.10816
1083.94412,0.12202
1082.01539,0.13862
1080.08667,0.15772
1078.15794,0.17839
1076.22922,0.19867
1074.30049,0.21627
1072.37176,0.23025
1070.44304,0.24121
1068.51431,0.25014
1066.58558,0.25752
1064.65686,0.26285
1062.72813,0.26546
1060.79941,0.26572
1058.87068,0.26399
1056.94195,0.25931
1055.01323,0.25134
1053.08450,0.24183
1051.15578,0.23215
1049.22705,0.22227
1047.29832,0.21296
1045.36960,0.20568
1043.44087,0.20103
1041.51214,0.19855
1039.58342,0.19686
1037.65469,0.19420
1035.72597,0.18938
1033.79724,0.18088
1031.86851,0.16617
1029.93979,0.14339
1028.01106,0.11461
1026.08233,0.08867
1024.15361,0.07545
1022.22488,0.07558
1020.29616,0.08334
1018.36743,0.09815
1016.43870,0.12503
1014.50998,0.16448
1012.58125,0.20824
1010.65253,0.24633
1008.72380,0.27444
1006.79507,0.29369
1004.86635,0.30619
1002.93762,0.31313
1001.00889,0.31605
999.08017,0.31666
997.15144,0.31530
995.22272,0.31044
993.29399,0.30062
991.36526,0.28779
989.43654,0.27712
987.50781,0.27082
985.57908,0.26466
983.65036,0.25318
981.72163,0.23532
979.79291,0.21411
977.86418,0.19345
975.93545,0.17652
974.00673,0.16600
972.07800,0.16414
970.14928,0.17215
968.22055,0.18873
966.29182,0.20995
964.36310,0.23193
962.43437,0.25254
960.50564,0.27100
958.57692,0.28725
956.64819,0.30152
954.71947,0.31354
952.79074,0.32270
950.86201,0.32959
948.93329,0.33541
947.00456,0.34028
945.07583,0.34382
943.14711,0.34574
941.21838,0.34637
939.28966,0.34666
937.36093,0.34655
935.43220,0.34599
933.50348,0.34590
931.57475,0.34594
929.64603,0.34502
927.71730,0.34346
925.78857,0.34162
923.85985,0.33898
921.93112,0.33518
920.00239,0.33049
918.07367,0.32517
916.14494,0.31876
914.21622,0.31029
912.28749,0.29961
910.35876,0.28756
908.43004,0.27477
906.50131,0.26217
904.57258,0.25171
902.64386,0.24421
900.71513,0.23903
898.78641,0.23628
896.85768,0.23570
894.92895,0.23535
893.00023,0.23389
891.07150,0.23160
889.14277,0.22822
887.21405,0.22240
885.28532,0.21365
883.35660,0.20330
881.42787,0.19219
879.49914,0.17921
877.57042,0.16404
875.64169,0.14968
873.71297,0.14289
871.78424,0.15007
869.85551,0.16839
867.92679,0.18674
865.99806,0.19764
864.06933,0.20091
862.14061,0.19789
860.21188,0.19014
858.28316,0.18051
856.35443,0.17105
854.42570,0.16202
852.49698,0.15357
850.56825,0.14744
848.63952,0.14685
846.71080,0.15339
844.78207,0.16493
842.85335,0.17801
840.92462,0.19043
838.99589,0.20169
837.06717,0.21175
835.13844,0.22061
833.20972,0.22924
831.28099,0.23752
829.35226,0.24368
827.42354,0.24739
825.49481,0.24983
823.56608,0.25188
821.63736,0.25323
819.70863,0.25332
817.77991,0.25249
815.85118,0.25111
813.92245,0.24947
811.99373,0.24784
810.06500,0.24581
808.13627,0.24273
806.20755,0.23864
804.27882,0.23486
802.35010,0.23223
800.42137,0.22814
798.49264,0.21888
796.56392,0.20584
794.63519,0.19579
792.70647,0.19482
790.77774,0.20299
788.84901,0.21526
786.92029,0.22688
784.99156,0.23583
783.06283,0.24239
781.13411,0.24756
779.20538,0.25128
777.27666,0.25317
775.34793,0.25323
773.41920,0.25275
771.49048,0.25421
769.56175,0.25768
767.63302,0.26029
765.70430,0.26072
763.77557,0.25968
761.84685,0.25711
759.91812,0.25312
757.98939,0.24811
756.06067,0.24165
754.13194,0.23350
752.20322,0.22385
750.27449,0.21281
748.34576,0.19939
746.41704,0.18172
744.48831,0.15894
742.55958,0.13210
740.63086,0.10419
738.70213,0.07945
736.77341,0.06126
734.84468,0.05080
732.91595,0.04702
730.98723,0.04783
729.05850,0.05215
727.12977,0.06150
725.20105,0.07889
723.27232,0.10526
721.34360,0.13807
719.41487,0.17027
717.48614,0.19410
715.55742,0.20786
713.62869,0.21438
711.69997,0.21673
709.77124,0.21764
707.84251,0.21903
705.91379,0.22173
703.98506,0.22646
702.05633,0.23415
700.12761,0.24465
698.19888,0.25598
696.27016,0.26529
694.34143,0.27065
692.41270,0.27193
690.48398,0.27025
688.55525,0.26709
686.62652,0.26310
684.69780,0.25783
682.76907,0.25152
680.84035,0.24616
678.91162,0.24382
676.98289,0.24432
675.05417,0.24528
673.12544,0.24645
671.19672,0.25384
669.26799,0.26870
667.33926,0.27510
665.41054,0.26876
663.48181,0.26465
661.55308,0.26460
659.62436,0.26297
657.69563,0.26007
655.76691,0.25924
653.83818,0.26197
651.90945,0.26688
649.98073,0.27066
648.05200,0.27135
646.12327,0.27052
644.19455,0.27079
642.26582,0.27209
640.33710,0.27179
638.40837,0.26723
636.47964,0.25701
634.55092,0.24298
632.62219,0.23276
630.69347,0.23378
628.76474,0.24386
626.83601,0.25357
624.90729,0.25844
622.97856,0.25980
621.04983,0.25853
619.12111,0.25609
617.19238,0.25346
615.26366,0.25097
613.33493,0.24995
611.40620,0.25073
609.47748,0.25158
607.54875,0.25116
605.62002,0.24973
603.69130,0.24804
601.76257,0.24722
599.83385,0.24719
597.90512,0.24649
595.97639,0.24541
594.04767,0.24625
592.11894,0.24917
590.19022,0.25071
588.26149,0.24907
586.33276,0.24638
584.40404,0.24463
582.47531,0.24326
580.54658,0.24063
578.61786,0.23686
576.68913,0.23332
574.76041,0.23043
572.83168,0.22733
570.90295,0.22379
568.97423,0.22048
567.04550,0.21712
565.11677,0.21365
563.18805,0.21059
561.25932,0.20629
559.33060,0.20043
557.40187,0.19624
555.47314,0.19416
553.54442,0.19148
551.61569,0.18799
549.68697,0.18469
547.75824,0.18105
545.82951,0.17681
543.90079,0.17304
541.97206,0.17016
540.04333,0.16735
538.11461,0.16375
536.18588,0.15871
534.25716,0.15247
532.32843,0.14645
530.39970,0.14118
528.47098,0.13542
526.54225,0.12860
524.61352,0.12314
522.68480,0.12120
520.75607,0.12153
518.82735,0.12162
516.89862,0.11959
514.96989,0.11498
513.04117,0.10791
511.11244,0.09875
509.18371,0.08985
507.25499,0.08476
505.32626,0.08532
503.39754,0.09004
501.46881,0.09511
499.54008,0.09842
497.61136,0.10142
495.68263,0.10555
493.75391,0.11007
491.82518,0.11330
489.89645,0.11489
487.96773,0.11708
486.03900,0.12096
484.11027,0.12283
482.18155,0.11994
480.25282,0.11578
478.32410,0.11405
476.39537,0.11512
474.46664,0.11853
472.53792,0.12258
470.60919,0.12413
468.68046,0.12322
466.75174,0.12121
464.82301,0.11717
462.89429,0.11226
460.96556,0.11115
459.03683,0.11568
457.10811,0.11995
455.17938,0.11572
453.25066,0.10402
451.32193,0.09254
449.39320,0.08488
447.46448,0.07735
445.53575,0.06800
443.60702,0.06043
441.67830,0.05654
439.74957,0.05419
437.82085,0.05059
435.89212,0.04633
433.96339,0.04596
432.03467,0.05191
430.10594,0.06031
428.17721,0.06670
426.24849,0.07179
424.31976,0.07730
422.39104,0.08302
420.46231,0.08808
418.53358,0.08962
416.60486,0.08597
414.67613,0.08071
412.74741,0.07710
410.81868,0.07563
408.88995,0.07287
406.96123,0.06583
405.03250,0.05838
403.10377,0.05411
401.17505,0.04975
399.24632,0.04237
