5996.40973,0.64150
5994.48101,0.64317
5992.55228,0.64843
5990.62356,0.65373
5988.69483,0.65343
5986.76610,0.64733
5984.83738,0.64155
5982.90865,0.63843
5980.97992,0.63553
5979.05120,0.63606
5977.12247,0.64353
5975.19375,0.65083
5973.26502,0.65209
5971.33629,0.64958
5969.40757,0.64483
5967.47884,0.64113
5965.55011,0.64320
5963.62139,0.64702
5961.69266,0.64861
5959.76394,0.65130
5957.83521,0.65395
5955.90648,0.65563
5953.97776,0.66096
5952.04903,0.66754
5950.12031,0.66872
5948.19158,0.66587
5946.26285,0.66459
5944.33413,0.66452
5942.40540,0.66188
5940.47667,0.65895
5938.54795,0.66002
5936.61922,0.66334
5934.69050,0.66567
5932.76177,0.66716
5930.83304,0.66800
5928.90432,0.66797
5926.97559,0.66903
5925.04686,0.67265
5923.11814,0.67785
5921.18941,0.68086
5919.26069,0.67767
5917.33196,0.67222
5915.40323,0.67217
5913.47451,0.67585
5911.54578,0.67989
5909.61706,0.68596
5907.68833,0.69064
5905.75960,0.69061
5903.83088,0.68893
5901.90215,0.68618
5899.97342,0.68450
5898.04470,0.68782
5896.11597,0.69338
5894.18725,0.69696
5892.25852,0.69650
5890.32979,0.69255
5888.40107,0.68961
5886.47234,0.68785
5884.54361,0.68431
5882.61489,0.68221
5880.68616,0.68506
5878.75744,0.69054
5876.82871,0.69293
5874.89998,0.68801
5872.97126,0.68027
5871.04253,0.67647
5869.11381,0.67829
5867.18508,0.68370
5865.25635,0.68551
5863.32763,0.68305
5861.39890,0.68331
5859.47017,0.68405
5857.54145,0.68038
5855.61272,0.67657
5853.68400,0.67811
5851.75527,0.68243
5849.82654,0.68381
5847.89782,0.68306
5845.96909,0.68372
5844.04036,0.68475
5842.11164,0.68571
5840.18291,0.68960
5838.25419,0.69254
5836.32546,0.68847
5834.39673,0.68231
5832.46801,0.68084
5830.53928,0.68295
5828.61056,0.68501
5826.68183,0.68651
5824.75310,0.68875
5822.82438,0.69041
5820.89565,0.68863
5818.96692,0.68508
5817.03820,0.68479
5815.10947,0.68731
5813.18075,0.68884
5811.25202,0.68862
5809.32329,0.68681
5807.39457,0.68614
5805.46584,0.69102
5803.53711,0.69762
5801.60839,0.69722
5799.67966,0.69066
5797.75094,0.68439
5795.82221,0.68117
5793.89348,0.68085
5791.96476,0.68129
5790.03603,0.68185
5788.10731,0.68362
5786.17858,0.68624
5784.24985,0.68758
5782.32113,0.68592
5780.39240,0.68477
5778.46367,0.68767
5776.53495,0.69102
5774.60622,0.69101
5772.67750,0.69083
5770.74877,0.69391
5768.82004,0.69713
5766.89132,0.69793
5764.96259,0.69839
5763.03386,0.69825
5761.10514,0.69489
5759.17641,0.69004
5757.24769,0.68750
5755.31896,0.68903
5753.39023,0.69404
5751.46151,0.69920
5749.53278,0.70321
5747.60406,0.70662
5745.67533,0.70811
5743.74660,0.70853
5741.81788,0.71025
5739.88915,0.71296
5737.96042,0.71437
5736.03170,0.71251
5734.10297,0.70854
5732.17425,0.70661
5730.24552,0.70737
5728.31679,0.70847
5726.38807,0.71104
5724.45934,0.71477
5722.53061,0.71809
5720.60189,0.72033
5718.67316,0.71833
5716.74444,0.71245
5714.81571,0.70577
5712.88698,0.70244
5710.95826,0.70576
5709.02953,0.71015
5707.10081,0.71116
5705.17208,0.71117
5703.24335,0.70965
5701.31463,0.70576
5699.38590,0.70277
5697.45717,0.70382
5695.52845,0.70928
5693.59972,0.71404
5691.67100,0.71112
5689.74227,0.70546
5687.81354,0.70582
5685.88482,0.70866
5683.95609,0.70945
5682.02736,0.71121
5680.09864,0.71397
5678.16991,0.71337
5676.24119,0.71021
5674.31246,0.70892
5672.38373,0.70963
5670.45501,0.71027
5668.52628,0.71063
5666.59756,0.71110
5664.66883,0.71135
5662.74010,0.71186
5660.81138,0.71188
5658.88265,0.70973
5656.95392,0.70822
5655.02520,0.70877
5653.09647,0.70687
5651.16775,0.70357
5649.23902,0.70539
5647.31029,0.71069
5645.38157,0.71419
5643.45284,0.71637
5641.52411,0.71666
5639.59539,0.71506
5637.66666,0.71679
5635.73794,0.72164
5633.80921,0.72347
5631.88048,0.72191
5629.95176,0.72177
5628.02303,0.72365
5626.09430,0.72495
5624.16558,0.72478
5622.23685,0.72484
5620.30813,0.72788
5618.37940,0.73108
5616.45067,0.73000
5614.52195,0.72520
5612.59322,0.71808
5610.66450,0.71282
5608.73577,0.71327
5606.80704,0.71579
5604.87832,0.71700
5602.94959,0.71764
5601.02086,0.71630
5599.09214,0.71293
5597.16341,0.71209
5595.23469,0.71560
5593.30596,0.71873
5591.37723,0.71893
5589.44851,0.71936
5587.51978,0.72064
5585.59105,0.72113
5583.66233,0.72296
5581.73360,0.72628
5579.80488,0.72691
5577.87615,0.72357
5575.94742,0.71997
5574.01870,0.72119
5572.08997,0.72750
5570.16125,0.73224
5568.23252,0.73056
5566.30379,0.72529
5564.37507,0.72074
5562.44634,0.71882
5560.51761,0.71891
5558.58889,0.71840
5556.66016,0.71790
5554.73144,0.71947
5552.80271,0.72143
5550.87398,0.72054
5548.94526,0.71660
5547.01653,0.71341
5545.08780,0.71381
5543.15908,0.71687
5541.23035,0.72112
5539.30163,0.72541
5537.37290,0.72697
5535.44417,0.72292
5533.51545,0.71509
5531.58672,0.70865
5529.65800,0.70688
5527.72927,0.70942
5525.80054,0.71314
5523.87182,0.71553
5521.94309,0.71666
5520.01436,0.71771
5518.08564,0.71896
5516.15691,0.71858
5514.22819,0.71503
5512.29946,0.70997
5510.37073,0.70629
5508.44201,0.70606
5506.51328,0.70886
5504.58455,0.71146
5502.65583,0.71279
5500.72710,0.71546
5498.79838,0.71951
5496.86965,0.71901
5494.94092,0.71151
5493.01220,0.70413
5491.08347,0.70240
5489.15475,0.70434
5487.22602,0.70758
5485.29729,0.71151
5483.36857,0.71506
5481.43984,0.71618
5479.51111,0.71338
5477.58239,0.70809
5475.65366,0.70480
5473.72494,0.70699
5471.79621,0.71255
5469.86748,0.71617
5467.93876,0.71607
5466.01003,0.71507
5464.08130,0.71528
5462.15258,0.71603
5460.22385,0.71691
5458.29513,0.71850
5456.36640,0.72094
5454.43767,0.72342
5452.50895,0.72517
5450.58022,0.72619
5448.65150,0.72583
5446.72277,0.72502
5444.79404,0.72653
5442.86532,0.72948
5440.93659,0.73102
5439.00786,0.73027
5437.07914,0.72815
5435.15041,0.72823
5433.22169,0.73141
5431.29296,0.73209
5429.36423,0.72856
5427.43551,0.72662
5425.50678,0.72910
5423.57805,0.73278
5421.64933,0.73430
5419.72060,0.73173
5417.79188,0.72532
5415.86315,0.71866
5413.93442,0.71495
5412.00570,0.71396
5410.07697,0.71571
5408.14825,0.71916
5406.21952,0.72005
5404.29079,0.71801
5402.36207,0.71731
5400.43334,0.71968
5398.50461,0.72306
5396.57589,0.72486
5394.64716,0.72573
5392.71844,0.72872
5390.78971,0.73208
5388.86098,0.73079
5386.93226,0.72512
5385.00353,0.72062
5383.07480,0.72064
5381.14608,0.72165
5379.21735,0.71967
5377.28863,0.71765
5375.35990,0.71936
5373.43117,0.72263
5371.50245,0.72415
5369.57372,0.72364
5367.64500,0.72263
5365.71627,0.72186
5363.78754,0.72241
5361.85882,0.72640
5359.93009,0.73139
5358.00136,0.73080
5356.07264,0.72196
5354.14391,0.71107
5352.21519,0.70771
5350.28646,0.71171
5348.35773,0.71460
5346.42901,0.71307
5344.50028,0.71157
5342.57155,0.71275
5340.64283,0.71406
5338.71410,0.71488
5336.78538,0.71548
5334.85665,0.71410
5332.92792,0.71284
5330.99920,0.71590
5329.07047,0.72141
5327.14175,0.72481
5325.21302,0.72577
5323.28429,0.72491
5321.35557,0.72204
5319.42684,0.71860
5317.49811,0.71723
5315.56939,0.71990
5313.64066,0.72497
5311.71194,0.72746
5309.78321,0.72484
5307.85448,0.72041
5305.92576,0.71917
5303.99703,0.72089
5302.06830,0.72195
5300.13958,0.72129
5298.21085,0.72040
5296.28213,0.72157
5294.35340,0.72473
5292.42467,0.72502
5290.49595,0.71988
5288.56722,0.71460
5286.63849,0.71296
5284.70977,0.71218
5282.78104,0.70991
5280.85232,0.70744
5278.92359,0.70636
5276.99486,0.70576
5275.06614,0.70359
5273.13741,0.69993
5271.20869,0.69668
5269.27996,0.69540
5267.35123,0.69436
5265.42251,0.68969
5263.49378,0.68419
5261.56505,0.68524
5259.63633,0.69120
5257.70760,0.69433
5255.77888,0.69300
5253.85015,0.69111
5251.92142,0.68901
5249.99270,0.68443
5248.06397,0.67968
5246.13524,0.67878
5244.20652,0.68209
5242.27779,0.68663
5240.34907,0.68935
5238.42034,0.69026
5236.49161,0.69053
5234.56289,0.68940
5232.63416,0.68822
5230.70544,0.68969
5228.77671,0.69107
5226.84798,0.68890
5224.91926,0.68692
5222.99053,0.69041
5221.06180,0.69761
5219.13308,0.70301
5217.20435,0.70489
5215.27563,0.70515
5213.34690,0.70473
5211.41817,0.70382
5209.48945,0.70118
5207.56072,0.69612
5205.63199,0.69324
5203.70327,0.69473
5201.77454,0.69744
5199.84582,0.70083
5197.91709,0.70592
5195.98836,0.71060
5194.05964,0.71218
5192.13091,0.71195
5190.20219,0.71207
5188.27346,0.71067
5186.34473,0.70684
5184.41601,0.70492
5182.48728,0.70617
5180.55855,0.70664
5178.62983,0.70527
5176.70110,0.70328
5174.77238,0.70077
5172.84365,0.69910
5170.91492,0.70001
5168.98620,0.70288
5167.05747,0.70465
5165.12874,0.70346
5163.20002,0.70197
5161.27129,0.70245
5159.34257,0.70296
5157.41384,0.70205
5155.48511,0.70056
5153.55639,0.70019
5151.62766,0.70226
5149.69894,0.70590
5147.77021,0.70811
5145.84148,0.70705
5143.91276,0.70478
5141.98403,0.70416
5140.05530,0.70458
5138.12658,0.70395
5136.19785,0.70275
5134.26913,0.70270
5132.34040,0.70448
5130.41167,0.70782
5128.48295,0.71040
5126.55422,0.70846
5124.62549,0.70177
5122.69677,0.69492
5120.76804,0.69147
5118.83932,0.69016
5116.91059,0.68972
5114.98186,0.69127
5113.05314,0.69414
5111.12441,0.69735
5109.19569,0.70150
5107.26696,0.70457
5105.33823,0.70468
5103.40951,0.70405
5101.48078,0.70432
5099.55205,0.70487
5097.62333,0.70595
5095.69460,0.70796
5093.76588,0.70971
5091.83715,0.71096
5089.90842,0.71361
5087.97970,0.71861
5086.05097,0.72385
5084.12224,0.72570
5082.19352,0.72256
5080.26479,0.71796
5078.33607,0.71741
5076.40734,0.72137
5074.47861,0.72529
5072.54989,0.72561
5070.62116,0.72273
5068.69244,0.72007
5066.76371,0.72002
5064.83498,0.72107
5062.90626,0.72122
5060.97753,0.72027
5059.04880,0.71910
5057.12008,0.71915
5055.19135,0.72085
5053.26263,0.72329
5051.33390,0.72487
5049.40517,0.72382
5047.47645,0.72141
5045.54772,0.72100
5043.61899,0.72241
5041.69027,0.72263
5039.76154,0.72185
5037.83282,0.72272
5035.90409,0.72437
5033.97536,0.72424
5032.04664,0.72258
5030.11791,0.72098
5028.18919,0.72125
5026.26046,0.72439
5024.33173,0.72748
5022.40301,0.72588
5020.47428,0.72095
5018.54555,0.71831
5016.61683,0.71845
5014.68810,0.71865
5012.75938,0.71933
5010.83065,0.72106
5008.90192,0.72251
5006.97320,0.72356
5005.04447,0.72456
5003.11574,0.72383
5001.18702,0.72078
4999.25829,0.71834
4997.32957,0.71731
4995.40084,0.71765
4993.47211,0.71866
4991.54339,0.72015
4989.61466,0.72191
4987.68594,0.72288
4985.75721,0.72247
4983.82848,0.72170
4981.89976,0.72209
4979.97103,0.72270
4978.04230,0.72119
4976.11358,0.71918
4974.18485,0.71905
4972.25613,0.71984
4970.32740,0.72095
4968.39867,0.72214
4966.46995,0.72321
4964.54122,0.72477
4962.61249,0.72597
4960.68377,0.72698
4958.75504,0.72841
4956.82632,0.72782
4954.89759,0.72438
4952.96886,0.72113
4951.04014,0.72066
4949.11141,0.72234
4947.18269,0.72348
4945.25396,0.72277
4943.32523,0.72133
4941.39651,0.72053
4939.46778,0.71965
4937.53905,0.71784
4935.61033,0.71610
4933.68160,0.71504
4931.75288,0.71505
4929.82415,0.71689
4927.89542,0.71985
4925.96670,0.72219
4924.03797,0.72227
4922.10924,0.72003
4920.18052,0.71709
4918.25179,0.71413
4916.32307,0.71239
4914.39434,0.71379
4912.46561,0.71643
4910.53689,0.71705
4908.60816,0.71671
4906.67943,0.71792
4904.75071,0.71964
4902.82198,0.71932
4900.89326,0.71662
4898.96453,0.71304
4897.03580,0.71077
4895.10708,0.71153
4893.17835,0.71375
4891.24963,0.71411
4889.32090,0.71346
4887.39217,0.71371
4885.46345,0.71347
4883.53472,0.71267
4881.60599,0.71200
4879.67727,0.71137
4877.74854,0.71271
4875.81982,0.71500
4873.89109,0.71420
4871.96236,0.71149
4870.03364,0.71119
4868.10491,0.71329
4866.17618,0.71399
4864.24746,0.71227
4862.31873,0.71153
4860.39001,0.71286
4858.46128,0.71307
4856.53255,0.71091
4854.60383,0.70967
4852.67510,0.71180
4850.74638,0.71414
4848.81765,0.71259
4846.88892,0.70966
4844.96020,0.70966
4843.03147,0.71120
4841.10274,0.71123
4839.17402,0.70877
4837.24529,0.70426
4835.31657,0.70041
4833.38784,0.69836
4831.45911,0.69577
4829.53039,0.69297
4827.60166,0.69245
4825.67293,0.69376
4823.74421,0.69470
4821.81548,0.69343
4819.88676,0.69106
4817.95803,0.69141
4816.02930,0.69351
4814.10058,0.69296
4812.17185,0.69091
4810.24313,0.69065
4808.31440,0.69134
4806.38567,0.69142
4804.45695,0.69035
4802.52822,0.68813
4800.59949,0.68649
4798.67077,0.68609
4796.74204,0.68521
4794.81332,0.68368
4792.88459,0.68287
4790.95586,0.68378
4789.02714,0.68600
4787.09841,0.68681
4785.16968,0.68568
4783.24096,0.68517
4781.31223,0.68501
4779.38351,0.68385
4777.45478,0.68271
4775.52605,0.68287
4773.59733,0.68402
4771.66860,0.68573
4769.73988,0.68834
4767.81115,0.69066
4765.88242,0.69127
4763.95370,0.69040
4762.02497,0.68816
4760.09624,0.68554
4758.16752,0.68393
4756.23879,0.68220
4754.31007,0.67992
4752.38134,0.67884
4750.45261,0.67793
4748.52389,0.67510
4746.59516,0.67161
4744.66643,0.66902
4742.73771,0.66724
4740.80898,0.66539
4738.88026,0.66356
4736.95153,0.66267
4735.02280,0.66115
4733.09408,0.65786
4731.16535,0.65462
4729.23663,0.65166
4727.30790,0.64721
4725.37917,0.64058
4723.45045,0.63372
4721.52172,0.62980
4719.59299,0.62872
4717.66427,0.62831
4715.73554,0.62893
4713.80682,0.63061
4711.87809,0.63083
4709.94936,0.62853
4708.02064,0.62514
4706.09191,0.62153
4704.16318,0.61720
4702.23446,0.61244
4700.30573,0.60828
4698.37701,0.60475
4696.44828,0.60131
4694.51955,0.59744
4692.59083,0.59375
4690.66210,0.59233
4688.73338,0.59334
4686.80465,0.59499
4684.87592,0.59735
4682.94720,0.60200
4681.01847,0.60860
4679.08974,0.61487
4677.16102,0.61974
4675.23229,0.62360
4673.30357,0.62678
4671.37484,0.62973
4669.44611,0.63262
4667.51739,0.63488
4665.58866,0.63586
4663.65993,0.63529
4661.73121,0.63437
4659.80248,0.63502
4657.87376,0.63623
4655.94503,0.63606
4654.01630,0.63571
4652.08758,0.63523
4650.15885,0.63259
4648.23013,0.62825
4646.30140,0.62361
4644.37267,0.61960
4642.44395,0.61676
4640.51522,0.61372
4638.58649,0.60998
4636.65777,0.60775
4634.72904,0.60819
4632.80032,0.60977
4630.87159,0.61177
4628.94286,0.61592
4627.01414,0.62301
4625.08541,0.63114
4623.15668,0.63768
4621.22796,0.64197
4619.29923,0.64553
4617.37051,0.64925
4615.44178,0.65291
4613.51305,0.65676
4611.58433,0.66024
4609.65560,0.66119
4607.72688,0.65929
4605.79815,0.65692
4603.86942,0.65552
4601.94070,0.65405
4600.01197,0.65111
4598.08324,0.64676
4596.15452,0.64271
4594.22579,0.64051
4592.29707,0.63945
4590.36834,0.63830
4588.43961,0.63749
4586.51089,0.63630
4584.58216,0.63317
4582.65343,0.62956
4580.72471,0.62784
4578.79598,0.62830
4576.86726,0.63073
4574.93853,0.63464
4573.00980,0.63918
4571.08108,0.64433
4569.15235,0.64962
4567.22363,0.65400
4565.29490,0.65771
4563.36617,0.66121
4561.43745,0.66391
4559.50872,0.66569
4557.57999,0.66758
4555.65127,0.66960
4553.72254,0.66994
4551.79382,0.66820
4549.86509,0.66674
4547.93636,0.66726
4546.00764,0.66870
4544.07891,0.66960
4542.15018,0.66966
4540.22146,0.66858
4538.29273,0.66638
4536.36401,0.66429
4534.43528,0.66392
4532.50655,0.66531
4530.57783,0.66593
4528.64910,0.66379
4526.72037,0.66083
4524.79165,0.65981
4522.86292,0.66001
4520.93420,0.65944
4519.00547,0.65765
4517.07674,0.65565
4515.14802,0.65467
4513.21929,0.65408
4511.29057,0.65250
4509.36184,0.64973
4507.43311,0.64580
4505.50439,0.64112
4503.57566,0.63667
4501.64693,0.63299
4499.71821,0.63014
4497.78948,0.62742
4495.86076,0.62334
4493.93203,0.61717
4492.00330,0.61064
4490.07458,0.60607
4488.14585,0.60301
4486.21712,0.59982
4484.28840,0.59665
4482.35967,0.59433
4480.43095,0.59231
4478.50222,0.58977
4476.57349,0.58711
4474.64477,0.58482
4472.71604,0.58200
4470.78732,0.57696
4468.85859,0.56947
4466.92986,0.56087
4465.00114,0.55256
4463.07241,0.54535
4461.14368,0.53938
4459.21496,0.53489
4457.28623,0.53267
4455.35751,0.53296
4453.42878,0.53470
4451.50005,0.53579
4449.57133,0.53526
4447.64260,0.53433
4445.71387,0.53335
4443.78515,0.53164
4441.85642,0.52997
4439.92770,0.52899
4437.99897,0.52821
4436.07024,0.52732
4434.14152,0.52632
4432.21279,0.52581
4430.28407,0.52637
4428.35534,0.52777
4426.42661,0.53005
4424.49789,0.53380
4422.56916,0.53850
4420.64043,0.54257
4418.71171,0.54525
4416.78298,0.54734
4414.85426,0.54974
4412.92553,0.55206
4410.99680,0.55331
4409.06808,0.55318
4407.13935,0.55233
4405.21062,0.55215
4403.28190,0.55348
4401.35317,0.55551
4399.42445,0.55745
4397.49572,0.55985
4395.56699,0.56268
4393.63827,0.56461
4391.70954,0.56574
4389.78082,0.56706
4387.85209,0.56809
4385.92336,0.56867
4383.99464,0.56986
4382.06591,0.57126
4380.13718,0.57142
4378.20846,0.57066
4376.27973,0.57037
4374.35101,0.57082
4372.42228,0.57151
4370.49355,0.57204
4368.56483,0.57164
4366.63610,0.57007
4364.70737,0.56867
4362.77865,0.56800
4360.84992,0.56748
4358.92120,0.56772
4356.99247,0.56891
4355.06374,0.56963
4353.13502,0.56890
4351.20629,0.56714
4349.27757,0.56590
4347.34884,0.56579
4345.42011,0.56521
4343.49139,0.56311
4341.56266,0.56040
4339.63393,0.55841
4337.70521,0.55753
4335.77648,0.55732
4333.84776,0.55751
4331.91903,0.55797
4329.99030,0.55867
4328.06158,0.55942
4326.13285,0.55924
4324.20412,0.55813
4322.27540,0.55745
4320.34667,0.55733
4318.41795,0.55644
4316.48922,0.55451
4314.56049,0.55234
4312.63177,0.55042
4310.70304,0.54897
4308.77432,0.54734
4306.84559,0.54464
4304.91686,0.54180
4302.98814,0.53990
4301.05941,0.53857
4299.13068,0.53705
4297.20196,0.53485
4295.27323,0.53266
4293.34451,0.53117
4291.41578,0.53044
4289.48705,0.53096
4287.55833,0.53259
4285.62960,0.53435
4283.70087,0.53587
4281.77215,0.53722
4279.84342,0.53835
4277.91470,0.53924
4275.98597,0.53983
4274.05724,0.54051
4272.12852,0.54203
4270.19979,0.54387
4268.27107,0.54507
4266.34234,0.54594
4264.41361,0.54700
4262.48489,0.54798
4260.55616,0.54864
4258.62743,0.54888
4256.69871,0.54841
4254.76998,0.54764
4252.84126,0.54725
4250.91253,0.54717
4248.98380,0.54689
4247.05508,0.54656
4245.12635,0.54661
4243.19762,0.54672
4241.26890,0.54653
4239.34017,0.54625
4237.41145,0.54623
4235.48272,0.54664
4233.55399,0.54700
4231.62527,0.54686
4229.69654,0.54624
4227.76782,0.54536
4225.83909,0.54520
4223.91036,0.54634
4221.98164,0.54802
4220.05291,0.54979
4218.12418,0.55194
4216.19546,0.55439
4214.26673,0.55656
4212.33801,0.55819
4210.40928,0.55867
4208.48055,0.55778
4206.55183,0.55763
4204.62310,0.55949
4202.69437,0.56125
4200.76565,0.56134
4198.83692,0.56075
4196.90820,0.56053
4194.97947,0.56072
4193.05074,0.56098
4191.12202,0.56043
4189.19329,0.55848
4187.26456,0.55568
4185.33584,0.55258
4183.40711,0.54931
4181.47839,0.54631
4179.54966,0.54425
4177.62093,0.54341
4175.69221,0.54363
4173.76348,0.54491
4171.83476,0.54718
4169.90603,0.55012
4167.97730,0.55366
4166.04858,0.55729
4164.11985,0.55969
4162.19112,0.56083
4160.26240,0.56222
4158.33367,0.56402
4156.40495,0.56521
4154.47622,0.56594
4152.54749,0.56683
4150.61877,0.56751
4148.69004,0.56748
4146.76131,0.56655
4144.83259,0.56438
4142.90386,0.56136
4140.97514,0.55832
4139.04641,0.55545
4137.11768,0.55277
4135.18896,0.55047
4133.26023,0.54907
4131.33151,0.54892
4129.40278,0.54922
4127.47405,0.54897
4125.54533,0.54822
4123.61660,0.54749
4121.68787,0.54714
4119.75915,0.54695
4117.83042,0.54619
4115.90170,0.54428
4113.97297,0.54150
4112.04424,0.53885
4110.11552,0.53601
4108.18679,0.53184
4106.25806,0.52710
4104.32934,0.52311
4102.40061,0.51903
4100.47189,0.51286
4098.54316,0.50394
4096.61443,0.49377
4094.68571,0.48484
4092.75698,0.47864
4090.82826,0.47587
4088.89953,0.47684
4086.97080,0.48057
4085.04208,0.48580
4083.11335,0.49198
4081.18462,0.49859
4079.25590,0.50577
4077.32717,0.51411
4075.39845,0.52259
4073.46972,0.52941
4071.54099,0.53413
4069.61227,0.53775
4067.68354,0.54113
4065.75481,0.54388
4063.82609,0.54542
4061.89736,0.54654
4059.96864,0.54871
4058.03991,0.55191
4056.11118,0.55433
4054.18246,0.55528
4052.25373,0.55637
4050.32501,0.55825
4048.39628,0.55923
4046.46755,0.55892
4044.53883,0.55968
4042.61010,0.56235
4040.68137,0.56486
4038.75265,0.56609
4036.82392,0.56707
4034.89520,0.56856
4032.96647,0.56999
4031.03774,0.57112
4029.10902,0.57198
4027.18029,0.57201
4025.25156,0.57203
4023.32284,0.57296
4021.39411,0.57332
4019.46539,0.57275
4017.53666,0.57307
4015.60793,0.57422
4013.67921,0.57437
4011.75048,0.57269
4009.82176,0.57043
4007.89303,0.56998
4005.96430,0.57178
4004.03558,0.57361
4002.10685,0.57456
4000.17812,0.57552
3998.24940,0.57607
3996.32067,0.57689
3994.39195,0.57747
3992.46322,0.57802
3990.53449,0.57882
3988.60577,0.57952
3986.67704,0.57994
3984.74831,0.58048
3982.81959,0.58114
3980.89086,0.58138
3978.96214,0.58126
3977.03341,0.58107
3975.10468,0.58051
3973.17596,0.57961
3971.24723,0.57921
3969.31851,0.57983
3967.38978,0.58091
3965.46105,0.58155
3963.53233,0.58155
3961.60360,0.58182
3959.67487,0.58303
3957.74615,0.58468
3955.81742,0.58617
3953.88870,0.58740
3951.95997,0.58823
3950.03124,0.58822
3948.10252,0.58766
3946.17379,0.58772
3944.24506,0.58863
3942.31634,0.58984
3940.38761,0.59094
3938.45889,0.59161
3936.53016,0.59156
3934.60143,0.59086
3932.67271,0.59037
3930.74398,0.59080
3928.81526,0.59160
3926.88653,0.59208
3924.95780,0.59192
3923.02908,0.59067
3921.10035,0.58907
3919.17162,0.58868
3917.24290,0.59036
3915.31417,0.59305
3913.38545,0.59509
3911.45672,0.59602
3909.52799,0.59628
3907.59927,0.59647
3905.67054,0.59636
3903.74181,0.59542
3901.81309,0.59575
3899.88436,0.59909
3897.95564,0.60261
3896.02691,0.60416
3894.09818,0.60519
3892.16946,0.60686
3890.24073,0.60811
3888.31201,0.60854
3886.38328,0.60935
3884.45455,0.61098
3882.52583,0.61162
3880.59710,0.61096
3878.66837,0.61061
3876.73965,0.61090
3874.81092,0.61088
3872.88220,0.61004
3870.95347,0.60960
3869.02474,0.61097
3867.09602,0.61310
3865.16729,0.61438
3863.23856,0.61420
3861.30984,0.61271
3859.38111,0.61058
3857.45239,0.60763
3855.52366,0.60483
3853.59493,0.60572
3851.66621,0.60967
3849.73748,0.61179
3847.80876,0.61140
3845.88003,0.61118
3843.95130,0.61215
3842.02258,0.61383
3840.09385,0.61574
3838.16512,0.61671
3836.23640,0.61591
3834.30767,0.61433
3832.37895,0.61335
3830.45022,0.61346
3828.52149,0.61415
3826.59277,0.61464
3824.66404,0.61439
3822.73531,0.61383
3820.80659,0.61269
3818.87786,0.61015
3816.94914,0.60692
3815.02041,0.60370
3813.09168,0.60093
3811.16296,0.59867
3809.23423,0.59707
3807.30550,0.59578
3805.37678,0.59525
3803.44805,0.59685
3801.51933,0.60059
3799.59060,0.60401
3797.66187,0.60620
3795.73315,0.60779
3793.80442,0.60901
3791.87570,0.60984
3789.94697,0.61015
3788.01824,0.61017
3786.08952,0.61033
3784.16079,0.60998
3782.23206,0.60908
3780.30334,0.60846
3778.37461,0.60748
3776.44589,0.60550
3774.51716,0.60374
3772.58843,0.60288
3770.65971,0.60174
3768.73098,0.59934
3766.80225,0.59664
3764.87353,0.59420
3762.94480,0.59194
3761.01608,0.59020
3759.08735,0.58833
3757.15862,0.58558
3755.22990,0.58421
3753.30117,0.58690
3751.37245,0.59225
3749.44372,0.59429
3747.51499,0.59230
3745.58627,0.58930
3743.65754,0.58952
3741.72881,0.59173
3739.80009,0.59214
3737.87136,0.59106
3735.94264,0.58975
3734.01391,0.58736
3732.08518,0.58392
3730.15646,0.58197
3728.22773,0.58337
3726.29900,0.58746
3724.37028,0.59198
3722.44155,0.59572
3720.51283,0.59847
3718.58410,0.59955
3716.65537,0.59906
3714.72665,0.59861
3712.79792,0.59907
3710.86920,0.59762
3708.94047,0.59207
3707.01174,0.58533
3705.08302,0.57983
3703.15429,0.57514
3701.22556,0.57010
3699.29684,0.56511
3697.36811,0.56046
3695.43939,0.55591
3693.51066,0.55172
3691.58193,0.54639
3689.65321,0.53634
3687.72448,0.52348
3685.79575,0.51454
3683.86703,0.51079
3681.93830,0.51087
3680.00958,0.51315
3678.08085,0.51489
3676.15212,0.51363
3674.22340,0.50980
3672.29467,0.50668
3670.36595,0.50327
3668.43722,0.49709
3666.50849,0.49044
3664.57977,0.48555
3662.65104,0.48171
3660.72231,0.47782
3658.79359,0.47373
3656.86486,0.46930
3654.93614,0.46502
3653.00741,0.46284
3651.07868,0.46256
3649.14996,0.45966
3647.22123,0.45268
3645.29250,0.44615
3643.36378,0.44169
3641.43505,0.43862
3639.50633,0.43616
3637.57760,0.43354
3635.64887,0.43063
3633.72015,0.42825
3631.79142,0.42727
3629.86270,0.42756
3627.93397,0.42753
3626.00524,0.42651
3624.07652,0.42572
3622.14779,0.42630
3620.21906,0.42827
3618.29034,0.43015
3616.36161,0.43077
3614.43289,0.43041
3612.50416,0.42954
3610.57543,0.42914
3608.64671,0.43027
3606.71798,0.43215
3604.78925,0.43372
3602.86053,0.43522
3600.93180,0.43669
3599.00308,0.43735
3597.07435,0.43694
3595.14562,0.43579
3593.21690,0.43434
3591.28817,0.43332
3589.35945,0.43306
3587.43072,0.43274
3585.50199,0.43106
3583.57327,0.42795
3581.64454,0.42435
3579.71581,0.42110
3577.78709,0.41809
3575.85836,0.41459
3573.92964,0.41056
3572.00091,0.40714
3570.07218,0.40541
3568.14346,0.40465
3566.21473,0.40267
3564.28600,0.39873
3562.35728,0.39419
3560.42855,0.39034
3558.49983,0.38739
3556.57110,0.38537
3554.64237,0.38439
3552.71365,0.38406
3550.78492,0.38372
3548.85620,0.38356
3546.92747,0.38445
3544.99874,0.38640
3543.07002,0.38780
3541.14129,0.38790
3539.21256,0.38796
3537.28384,0.38886
3535.35511,0.39015
3533.42639,0.39171
3531.49766,0.39384
3529.56893,0.39614
3527.64021,0.39803
3525.71148,0.39998
3523.78275,0.40248
3521.85403,0.40469
3519.92530,0.40605
3517.99658,0.40729
3516.06785,0.40920
3514.13912,0.41159
3512.21040,0.41353
3510.28167,0.41451
3508.35295,0.41489
3506.42422,0.41546
3504.49549,0.41628
3502.56677,0.41684
3500.63804,0.41734
3498.70931,0.41824
3496.78059,0.41929
3494.85186,0.41990
3492.92314,0.41999
3490.99441,0.41997
3489.06568,0.42011
3487.13696,0.42003
3485.20823,0.41937
3483.27950,0.41856
3481.35078,0.41805
3479.42205,0.41772
3477.49333,0.41703
3475.56460,0.41544
3473.63587,0.41319
3471.70715,0.41122
3469.77842,0.40980
3467.84970,0.40818
3465.92097,0.40586
3463.99224,0.40309
3462.06352,0.39979
3460.13479,0.39568
3458.20606,0.39118
3456.27734,0.38699
3454.34861,0.38322
3452.41989,0.37930
3450.49116,0.37519
3448.56243,0.37116
3446.63371,0.36663
3444.70498,0.36120
3442.77625,0.35516
3440.84753,0.34878
3438.91880,0.34220
3436.99008,0.33566
3435.06135,0.32949
3433.13262,0.32452
3431.20390,0.32238
3429.27517,0.32442
3427.34644,0.33014
3425.41772,0.33743
3423.48899,0.34495
3421.56027,0.35319
3419.63154,0.36187
3417.70281,0.36960
3415.77409,0.37621
3413.84536,0.38227
3411.91664,0.38809
3409.98791,0.39352
3408.05918,0.39795
3406.13046,0.40174
3404.20173,0.40553
3402.27300,0.40906
3400.34428,0.41193
3398.41555,0.41306
3396.48683,0.41445
3394.55810,0.41611
3392.62937,0.41858
3390.70065,0.42168
3388.77192,0.42444
3386.84319,0.42624
3384.91447,0.42731
3382.98574,0.42812
3381.05702,0.42854
3379.12829,0.42868
3377.19956,0.42922
3375.27084,0.43010
3373.34211,0.43080
3371.41339,0.43126
3369.48466,0.43140
3367.55593,0.43104
3365.62721,0.43025
3363.69848,0.42904
3361.76975,0.42772
3359.84103,0.42670
3357.91230,0.42572
3355.98358,0.42437
3354.05485,0.42291
3352.12612,0.42147
3350.19740,0.41937
3348.26867,0.41645
3346.33994,0.41381
3344.41122,0.41204
3342.48249,0.41069
3340.55377,0.40934
3338.62504,0.40798
3336.69631,0.40713
3334.76759,0.40750
3332.83886,0.40890
3330.91014,0.41067
3328.98141,0.41270
3327.05268,0.41505
3325.12396,0.41725
3323.19523,0.41879
3321.26650,0.41988
3319.33778,0.42095
3317.40905,0.42171
3315.48033,0.42185
3313.55160,0.42185
3311.62287,0.42200
3309.69415,0.42198
3307.76542,0.42164
3305.83669,0.42097
3303.90797,0.42004
3301.97924,0.41939
3300.05052,0.41943
3298.12179,0.42004
3296.19306,0.42105
3294.26434,0.42227
3292.33561,0.42355
3290.40689,0.42491
3288.47816,0.42630
3286.54943,0.42747
3284.62071,0.42840
3282.69198,0.42909
3280.76325,0.42949
3278.83453,0.42978
3276.90580,0.43007
3274.97708,0.43064
3273.04835,0.43165
3271.11962,0.43284
3269.19090,0.43380
3267.26217,0.43432
3265.33344,0.43464
3263.40472,0.43507
3261.47599,0.43546
3259.54727,0.43574
3257.61854,0.43581
3255.68981,0.43537
3253.76109,0.43476
3251.83236,0.43463
3249.90364,0.43465
3247.97491,0.43425
3246.04618,0.43371
3244.11746,0.43336
3242.18873,0.43322
3240.26000,0.43304
3238.33128,0.43241
3236.40255,0.43147
3234.47383,0.43084
3232.54510,0.43102
3230.61637,0.43206
3228.68765,0.43337
3226.75892,0.43462
3224.83019,0.43609
3222.90147,0.43742
3220.97274,0.43817
3219.04402,0.43882
3217.11529,0.43992
3215.18656,0.44122
3213.25784,0.44199
3211.32911,0.44203
3209.40039,0.44223
3207.47166,0.44302
3205.54293,0.44369
3203.61421,0.44367
3201.68548,0.44288
3199.75675,0.44179
3197.82803,0.44146
3195.89930,0.44221
3193.97058,0.44308
3192.04185,0.44319
3190.11312,0.44256
3188.18440,0.44163
3186.25567,0.44089
3184.32694,0.44074
3182.39822,0.44093
3180.46949,0.44105
3178.54077,0.44136
3176.61204,0.44198
3174.68331,0.44251
3172.75459,0.44276
3170.82586,0.44273
3168.89714,0.44244
3166.96841,0.44217
3165.03968,0.44194
3163.11096,0.44129
3161.18223,0.44008
3159.25350,0.43881
3157.32478,0.43790
3155.39605,0.43722
3153.46733,0.43640
3151.53860,0.43518
3149.60987,0.43361
3147.68115,0.43200
3145.75242,0.43066
3143.82369,0.42932
3141.89497,0.42731
3139.96624,0.42469
3138.03752,0.42203
3136.10879,0.41944
3134.18006,0.41673
3132.25134,0.41389
3130.32261,0.41122
3128.39389,0.40939
3126.46516,0.40908
3124.53643,0.40991
3122.60771,0.41051
3120.67898,0.41001
3118.75025,0.40849
3116.82153,0.40626
3114.89280,0.40339
3112.96408,0.39998
3111.03535,0.39589
3109.10662,0.39052
3107.17790,0.38465
3105.24917,0.38046
3103.32044,0.37875
3101.39172,0.37904
3099.46299,0.38101
3097.53427,0.38398
3095.60554,0.38687
3093.67681,0.38833
3091.74809,0.38743
3089.81936,0.38440
3087.89063,0.38022
3085.96191,0.37571
3084.03318,0.37124
3082.10446,0.36745
3080.17573,0.36520
3078.24700,0.36472
3076.31828,0.36498
3074.38955,0.36451
3072.46083,0.36286
3070.53210,0.36064
3068.60337,0.35883
3066.67465,0.35822
3064.74592,0.35844
3062.81719,0.35800
3060.88847,0.35550
3058.95974,0.35070
3057.03102,0.34512
3055.10229,0.34204
3053.17356,0.34433
3051.24484,0.35215
3049.31611,0.36378
3047.38738,0.37665
3045.45866,0.38783
3043.52993,0.39563
3041.60121,0.40015
3039.67248,0.40215
3037.74375,0.40209
3035.81503,0.40042
3033.88630,0.39771
3031.95758,0.39423
3030.02885,0.38992
3028.10012,0.38467
3026.17140,0.37812
3024.24267,0.36987
3022.31394,0.35978
3020.38522,0.34814
3018.45649,0.33620
3016.52777,0.32577
3014.59904,0.31834
3012.67031,0.31430
3010.74159,0.31266
3008.81286,0.31192
3006.88413,0.31118
3004.95541,0.31016
3003.02668,0.30870
3001.09796,0.30686
2999.16923,0.30490
2997.24050,0.30200
2995.31178,0.29847
2993.38305,0.29491
2991.45433,0.29073
2989.52560,0.28475
2987.59687,0.27735
2985.66815,0.26955
2983.73942,0.26123
2981.81069,0.25184
2979.88197,0.24163
2977.95324,0.23122
2976.02452,0.22105
2974.09579,0.21209
2972.16706,0.20590
2970.23834,0.20357
2968.30961,0.20524
2966.38088,0.21005
2964.45216,0.21624
2962.52343,0.22231
2960.59471,0.22803
2958.66598,0.23424
2956.73725,0.24144
2954.80853,0.24907
2952.87980,0.25700
2950.95108,0.26586
2949.02235,0.27559
2947.09362,0.28575
2945.16490,0.29597
2943.23617,0.30592
2941.30744,0.31514
2939.37872,0.32298
2937.44999,0.32936
2935.52127,0.33413
2933.59254,0.33696
2931.66381,0.33835
2929.73509,0.33858
2927.80636,0.33720
2925.87763,0.33427
2923.94891,0.33033
2922.02018,0.32538
2920.09146,0.31928
2918.16273,0.31171
2916.23400,0.30209
2914.30528,0.29067
2912.37655,0.27863
2910.44783,0.26812
2908.51910,0.26233
2906.59037,0.26379
2904.66165,0.27207
2902.73292,0.28408
2900.80419,0.29628
2898.87547,0.30628
2896.94674,0.31320
2895.01802,0.31736
2893.08929,0.31980
2891.16056,0.32147
2889.23184,0.32286
2887.30311,0.32461
2885.37438,0.32728
2883.44566,0.33073
2881.51693,0.33459
2879.58821,0.33854
2877.65948,0.34185
2875.73075,0.34426
2873.80203,0.34635
2871.87330,0.34822
2869.94458,0.34972
2868.01585,0.35135
2866.08712,0.35335
2864.15840,0.35540
2862.22967,0.35767
2860.30094,0.36061
2858.37222,0.36416
2856.44349,0.36796
2854.51477,0.37201
2852.58604,0.37678
2850.65731,0.38276
2848.72859,0.39005
2846.79986,0.39831
2844.87113,0.40659
2842.94241,0.41388
2841.01368,0.42013
2839.08496,0.42569
2837.15623,0.43059
2835.22750,0.43483
2833.29878,0.43868
2831.37005,0.44248
2829.44133,0.44610
2827.51260,0.44927
2825.58387,0.45187
2823.65515,0.45363
2821.72642,0.45416
2819.79769,0.45348
2817.86897,0.45200
2815.94024,0.45029
2814.01152,0.44893
2812.08279,0.44802
2810.15406,0.44724
2808.22534,0.44647
2806.29661,0.44611
2804.36788,0.44669
2802.43916,0.44851
2800.51043,0.45153
2798.58171,0.45518
2796.65298,0.45872
2794.72425,0.46193
2792.79553,0.46510
2790.86680,0.46818
2788.93808,0.47097
2787.00935,0.47347
2785.08062,0.47575
2783.15190,0.47792
2781.22317,0.47988
2779.29444,0.48155
2777.36572,0.48318
2775.43699,0.48456
2773.50827,0.48546
2771.57954,0.48627
2769.65081,0.48733
2767.72209,0.48851
2765.79336,0.48930
2763.86463,0.48956
2761.93591,0.48977
2760.00718,0.48999
2758.07846,0.48992
2756.14973,0.48968
2754.22100,0.48935
2752.29228,0.48876
2750.36355,0.48802
2748.43483,0.48716
2746.50610,0.48639
2744.57737,0.48669
2742.64865,0.48863
2740.71992,0.49149
2738.79119,0.49448
2736.86247,0.49741
2734.93374,0.50014
2733.00502,0.50265
2731.07629,0.50520
2729.14756,0.50786
2727.21884,0.51041
2725.29011,0.51244
2723.36138,0.51387
2721.43266,0.51521
2719.50393,0.51664
2717.57521,0.51783
2715.64648,0.51899
2713.71775,0.52056
2711.78903,0.52243
2709.86030,0.52414
2707.93157,0.52560
2706.00285,0.52705
2704.07412,0.52841
2702.14540,0.52944
2700.21667,0.53039
2698.28794,0.53143
2696.35922,0.53224
2694.43049,0.53281
2692.50177,0.53342
2690.57304,0.53412
2688.64431,0.53459
2686.71559,0.53461
2684.78686,0.53444
2682.85813,0.53436
2680.92941,0.53443
2679.00068,0.53459
2677.07196,0.53487
2675.14323,0.53546
2673.21450,0.53614
2671.28578,0.53663
2669.35705,0.53714
2667.42832,0.53750
2665.49960,0.53726
2663.57087,0.53650
2661.64215,0.53557
2659.71342,0.53463
2657.78469,0.53353
2655.85597,0.53208
2653.92724,0.53045
2651.99852,0.52881
2650.06979,0.52702
2648.14106,0.52496
2646.21234,0.52254
2644.28361,0.51954
2642.35488,0.51573
2640.42616,0.51115
2638.49743,0.50635
2636.56871,0.50213
2634.63998,0.49892
2632.71125,0.49684
2630.78253,0.49594
2628.85380,0.49591
2626.92507,0.49631
2624.99635,0.49714
2623.06762,0.49832
2621.13890,0.49937
2619.21017,0.49988
2617.28144,0.49978
2615.35272,0.49921
2613.42399,0.49840
2611.49527,0.49773
2609.56654,0.49737
2607.63781,0.49683
2605.70909,0.49576
2603.78036,0.49443
2601.85163,0.49289
2599.92291,0.49089
2597.99418,0.48877
2596.06546,0.48702
2594.13673,0.48531
2592.20800,0.48308
2590.27928,0.48054
2588.35055,0.47840
2586.42182,0.47694
2584.49310,0.47592
2582.56437,0.47521
2580.63565,0.47492
2578.70692,0.47510
2576.77819,0.47564
2574.84947,0.47626
2572.92074,0.47644
2570.99202,0.47589
2569.06329,0.47498
2567.13456,0.47414
2565.20584,0.47348
2563.27711,0.47315
2561.34838,0.47306
2559.41966,0.47274
2557.49093,0.47221
2555.56221,0.47185
2553.63348,0.47146
2551.70475,0.47078
2549.77603,0.47004
2547.84730,0.46949
2545.91857,0.46904
2543.98985,0.46857
2542.06112,0.46825
2540.13240,0.46803
2538.20367,0.46763
2536.27494,0.46730
2534.34622,0.46754
2532.41749,0.46831
2530.48877,0.46929
2528.56004,0.47037
2526.63131,0.47180
2524.70259,0.47369
2522.77386,0.47561
2520.84513,0.47729
2518.91641,0.47893
2516.98768,0.48053
2515.05896,0.48178
2513.13023,0.48265
2511.20150,0.48343
2509.27278,0.48435
2507.34405,0.48501
2505.41532,0.48495
2503.48660,0.48464
2501.55787,0.48485
2499.62915,0.48558
2497.70042,0.48635
2495.77169,0.48738
2493.84297,0.48910
2491.91424,0.49123
2489.98552,0.49338
2488.05679,0.49574
2486.12806,0.49846
2484.19934,0.50114
2482.27061,0.50351
2480.34188,0.50579
2478.41316,0.50800
2476.48443,0.50989
2474.55571,0.51160
2472.62698,0.51314
2470.69825,0.51423
2468.76953,0.51481
2466.84080,0.51512
2464.91207,0.51540
2462.98335,0.51564
2461.05462,0.51567
2459.12590,0.51545
2457.19717,0.51509
2455.26844,0.51465
2453.33972,0.51410
2451.41099,0.51336
2449.48227,0.51234
2447.55354,0.51099
2445.62481,0.50921
2443.69609,0.50687
2441.76736,0.50389
2439.83863,0.50050
2437.90991,0.49703
2435.98118,0.49365
2434.05246,0.49035
2432.12373,0.48694
2430.19500,0.48330
2428.26628,0.47960
2426.33755,0.47604
2424.40882,0.47248
2422.48010,0.46858
2420.55137,0.46463
2418.62265,0.46106
2416.69392,0.45777
2414.76519,0.45476
2412.83647,0.45198
2410.90774,0.44913
2408.97902,0.44623
2407.05029,0.44336
2405.12156,0.44044
2403.19284,0.43777
2401.26411,0.43541
2399.33538,0.43327
2397.40666,0.43132
2395.47793,0.42959
2393.54921,0.42794
2391.62048,0.42631
2389.69175,0.42470
2387.76303,0.42274
2385.83430,0.42003
2383.90557,0.41683
2381.97685,0.41360
2380.04812,0.41052
2378.11940,0.40785
2376.19067,0.40563
2374.26194,0.40324
2372.33322,0.40037
2370.40449,0.39763
2368.47576,0.39536
2366.54704,0.39350
2364.61831,0.39261
2362.68959,0.39175
2360.76086,0.39047
2358.83213,0.39285
2356.90341,0.40109
2354.97468,0.41087
2353.04596,0.41506
2351.11723,0.41272
2349.18850,0.41198
2347.25978,0.41805
2345.33105,0.42489
2343.40232,0.42546
2341.47360,0.42341
2339.54487,0.42361
2337.61615,0.42513
2335.68742,0.42666
2333.75869,0.42834
2331.82997,0.43081
2329.90124,0.43383
2327.97251,0.43649
2326.04379,0.43886
2324.11506,0.44235
2322.18634,0.44798
2320.25761,0.45419
2318.32888,0.45869
2316.40016,0.46125
2314.47143,0.46268
2312.54271,0.46322
2310.61398,0.46312
2308.68525,0.46297
2306.75653,0.46269
2304.82780,0.46159
2302.89907,0.45951
2300.97035,0.45681
2299.04162,0.45360
2297.11290,0.44995
2295.18417,0.44637
2293.25544,0.44335
2291.32672,0.44091
2289.39799,0.43895
2287.46926,0.43757
2285.54054,0.43700
2283.61181,0.43730
2281.68309,0.43811
2279.75436,0.43885
2277.82563,0.43916
2275.89691,0.43899
2273.96818,0.43841
2272.03946,0.43749
2270.11073,0.43626
2268.18200,0.43477
2266.25328,0.43324
2264.32455,0.43197
2262.39582,0.43124
2260.46710,0.43119
2258.53837,0.43169
2256.60965,0.43250
2254.68092,0.43363
2252.75219,0.43527
2250.82347,0.43754
2248.89474,0.44044
2246.96601,0.44291
2245.03729,0.44556
2243.10856,0.44829
2241.17984,0.45085
2239.25111,0.45315
2237.32238,0.45520
2235.39366,0.45691
2233.46493,0.45831
2231.53621,0.45945
2229.60748,0.46046
2227.67875,0.46152
2225.75003,0.46259
2223.82130,0.46343
2221.89257,0.46394
2219.96385,0.46442
2218.03512,0.46519
2216.10640,0.46630
2214.17767,0.46731
2212.24894,0.46784
2210.32022,0.46877
2208.39149,0.47078
2206.46276,0.47315
2204.53404,0.47533
2202.60531,0.47750
2200.67659,0.47939
2198.74786,0.48066
2196.81913,0.48145
2194.89041,0.48164
2192.96168,0.48102
2191.03296,0.48006
2189.10423,0.47932
2187.17550,0.47832
2185.24678,0.47641
2183.31805,0.47404
2181.38932,0.47168
2179.46060,0.46931
2177.53187,0.46674
2175.60315,0.46356
2173.67442,0.45979
2171.74569,0.45583
2169.81697,0.45184
2167.88824,0.44784
2165.95951,0.44374
2164.03079,0.43916
2162.10206,0.43403
2160.17334,0.42883
2158.24461,0.42389
2156.31588,0.41908
2154.38716,0.41423
2152.45843,0.40947
2150.52971,0.40522
2148.60098,0.40145
2146.67225,0.39787
2144.74353,0.39474
2142.81480,0.39235
2140.88607,0.39032
2138.95735,0.38807
2137.02862,0.38547
2135.09990,0.38270
2133.17117,0.37991
2131.24244,0.37687
2129.31372,0.37344
2127.38499,0.36988
2125.45626,0.36623
2123.52754,0.36256
2121.59881,0.35941
2119.67009,0.35689
2117.74136,0.35451
2115.81263,0.35228
2113.88391,0.35079
2111.95518,0.35038
2110.02646,0.35078
2108.09773,0.35122
2106.16900,0.35152
2104.24028,0.35222
2102.31155,0.35340
2100.38282,0.35456
2098.45410,0.35552
2096.52537,0.35650
2094.59665,0.35776
2092.66792,0.35930
2090.73919,0.36113
2088.81047,0.36342
2086.88174,0.36638
2084.95301,0.37000
2083.02429,0.37394
2081.09556,0.37800
2079.16684,0.38220
2077.23811,0.38648
2075.30938,0.39069
2073.38066,0.39486
2071.45193,0.39913
2069.52321,0.40378
2067.59448,0.40905
2065.66575,0.41462
2063.73703,0.41984
2061.80830,0.42463
2059.87957,0.42939
2057.95085,0.43420
2056.02212,0.43872
2054.09340,0.44262
2052.16467,0.44591
2050.23594,0.44864
2048.30722,0.45079
2046.37849,0.45257
2044.44976,0.45428
2042.52104,0.45563
2040.59231,0.45590
2038.66359,0.45529
2036.73486,0.45444
2034.80613,0.45317
2032.87741,0.45143
2030.94868,0.44922
2029.01996,0.44620
2027.09123,0.44241
2025.16250,0.43845
2023.23378,0.43458
2021.30505,0.43078
2019.37632,0.42715
2017.44760,0.42326
2015.51887,0.41874
2013.59015,0.41418
2011.66142,0.40997
2009.73269,0.40578
2007.80397,0.40151
2005.87524,0.39727
2003.94651,0.39298
2002.01779,0.38870
2000.08906,0.38435
1998.16034,0.37961
1996.23161,0.37491
1994.30288,0.37109
1992.37416,0.36768
1990.44543,0.36360
1988.51670,0.35887
1986.58798,0.35399
1984.65925,0.34956
1982.73053,0.34558
1980.80180,0.34146
1978.87307,0.33686
1976.94435,0.33159
1975.01562,0.32550
1973.08690,0.31873
1971.15817,0.31175
1969.22944,0.30433
1967.30072,0.29526
1965.37199,0.28506
1963.44326,0.27660
1961.51454,0.27165
1959.58581,0.27053
1957.65709,0.27293
1955.72836,0.27766
1953.79963,0.28296
1951.87091,0.28809
1949.94218,0.29355
1948.01345,0.29974
1946.08473,0.30637
1944.15600,0.31294
1942.22728,0.31882
1940.29855,0.32362
1938.36982,0.32833
1936.44110,0.33374
1934.51237,0.33948
1932.58365,0.34495
1930.65492,0.34974
1928.72619,0.35385
1926.79747,0.35808
1924.86874,0.36323
1922.94001,0.36839
1921.01129,0.37231
1919.08256,0.37562
1917.15384,0.37828
1915.22511,0.37968
1913.29638,0.38146
1911.36766,0.38488
1909.43893,0.38845
1907.51020,0.39032
1905.58148,0.39081
1903.65275,0.39126
1901.72403,0.39218
1899.79530,0.39372
1897.86657,0.39579
1895.93785,0.39752
1894.00912,0.39832
1892.08040,0.39905
1890.15167,0.39981
1888.22294,0.39913
1886.29422,0.39739
1884.36549,0.39591
1882.43676,0.39459
1880.50804,0.39308
1878.57931,0.39136
1876.65059,0.38919
1874.72186,0.38684
1872.79313,0.38585
1870.86441,0.38693
1868.93568,0.38646
1867.00695,0.38018
1865.07823,0.37091
1863.14950,0.36326
1861.22078,0.35738
1859.29205,0.35143
1857.36332,0.34460
1855.43460,0.33695
1853.50587,0.32885
1851.57715,0.32105
1849.64842,0.31441
1847.71969,0.30907
1845.79097,0.30355
1843.86224,0.29538
1841.93351,0.28559
1840.00479,0.27782
1838.07606,0.27215
1836.14734,0.26673
1834.21861,0.26224
1832.28988,0.26022
1830.36116,0.25912
1828.43243,0.25632
1826.50370,0.25295
1824.57498,0.25045
1822.64625,0.24822
1820.71753,0.24619
1818.78880,0.24483
1816.86007,0.24410
1814.93135,0.24380
1813.00262,0.24379
1811.07390,0.24330
1809.14517,0.24157
1807.21644,0.23943
1805.28772,0.23829
1803.35899,0.23850
1801.43026,0.23883
1799.50154,0.23775
1797.57281,0.23565
1795.64409,0.23453
1793.71536,0.23450
1791.78663,0.23224
1789.85791,0.22644
1787.92918,0.22053
1786.00045,0.21638
1784.07173,0.21319
1782.14300,0.20988
1780.21428,0.20557
1778.28555,0.20084
1776.35682,0.19773
1774.42810,0.19618
1772.49937,0.19212
1770.57065,0.18265
1768.64192,0.17166
1766.71319,0.16280
1764.78447,0.15606
1762.85574,0.14901
1760.92701,0.13977
1758.99829,0.12907
1757.06956,0.11740
1755.14084,0.10580
1753.21211,0.09529
1751.28338,0.08366
1749.35466,0.06914
1747.42593,0.05450
1745.49720,0.04260
1743.56848,0.03376
1741.63975,0.02780
1739.71103,0.02456
1737.78230,0.02370
1735.85357,0.02452
1733.92485,0.02610
1731.99612,0.02722
1730.06740,0.02763
1728.13867,0.02801
1726.20994,0.02859
1724.28122,0.02947
1722.35249,0.03105
1720.42376,0.03403
1718.49504,0.03890
1716.56631,0.04465
1714.63759,0.04977
1712.70886,0.05504
1710.78013,0.06185
1708.85141,0.07070
1706.92268,0.08159
1704.99395,0.09313
1703.06523,0.10384
1701.13650,0.11565
1699.20778,0.12859
1697.27905,0.13796
1695.35032,0.14258
1693.42160,0.14460
1691.49287,0.14643
1689.56415,0.14891
1687.63542,0.15190
1685.70669,0.15541
1683.77797,0.15800
1681.84924,0.15909
1679.92051,0.16172
1677.99179,0.16698
1676.06306,0.17396
1674.13434,0.18114
1672.20561,0.18838
1670.27688,0.19637
1668.34816,0.20251
1666.41943,0.20626
1664.49070,0.21173
1662.56198,0.21908
1660.63325,0.22397
1658.70453,0.22660
1656.77580,0.23186
1654.84707,0.24201
1652.91835,0.25043
1650.98962,0.25019
1649.06090,0.24997
1647.13217,0.25194
1645.20344,0.24893
1643.27472,0.24343
1641.34599,0.24182
1639.41726,0.24583
1637.48854,0.25297
1635.55981,0.25578
1633.63109,0.25084
1631.70236,0.24613
1629.77363,0.24583
1627.84491,0.24794
1625.91618,0.24994
1623.98745,0.25002
1622.05873,0.24700
1620.13000,0.24370
1618.20128,0.24170
1616.27255,0.23717
1614.34382,0.23056
1612.41510,0.22839
1610.48637,0.23258
1608.55764,0.23977
1606.62892,0.24618
1604.70019,0.25120
1602.77147,0.25565
1600.84274,0.25944
1598.91401,0.26239
1596.98529,0.26422
1595.05656,0.26359
1593.12784,0.26002
1591.19911,0.25476
1589.27038,0.24815
1587.34166,0.23873
1585.41293,0.22530
1583.48420,0.20899
1581.55548,0.19410
1579.62675,0.18642
1577.69803,0.18952
1575.76930,0.20061
1573.84057,0.21139
1571.91185,0.22124
1569.98312,0.23273
1568.05439,0.24151
1566.12567,0.24487
1564.19694,0.24689
1562.26822,0.25234
1560.33949,0.26254
1558.41076,0.26854
1556.48204,0.26154
1554.55331,0.25249
1552.62459,0.24734
1550.69586,0.24460
1548.76713,0.24271
1546.83841,0.24341
1544.90968,0.24993
1542.98095,0.26188
1541.05223,0.26920
1539.12350,0.26110
1537.19478,0.24940
1535.26605,0.24390
1533.33732,0.24063
1531.40860,0.23522
1529.47987,0.23029
1527.55114,0.22795
1525.62242,0.22802
1523.69369,0.23080
1521.76497,0.23424
1519.83624,0.23365
1517.90751,0.22832
1515.97879,0.21840
1514.05006,0.20509
1512.12134,0.19110
1510.19261,0.17649
1508.26388,0.15746
1506.33516,0.13705
1504.40643,0.13165
1502.47770,0.14401
1500.54898,0.16914
1498.62025,0.20074
1496.69153,0.22695
1494.76280,0.23854
1492.83407,0.24123
1490.90535,0.24113
1488.97662,0.23526
1487.04789,0.22252
1485.11917,0.20880
1483.19044,0.19666
1481.26172,0.18499
1479.33299,0.17378
1477.40426,0.16392
1475.47554,0.15488
1473.54681,0.14576
1471.61809,0.13847
1469.68936,0.13689
1467.76063,0.14051
1465.83191,0.14458
1463.90318,0.14461
1461.97445,0.14253
1460.04573,0.14286
1458.11700,0.14414
1456.18828,0.14049
1454.25955,0.13446
1452.33082,0.13158
1450.40210,0.13212
1448.47337,0.13389
1446.54464,0.13503
1444.61592,0.13540
1442.68719,0.13584
1440.75847,0.13718
1438.82974,0.14028
1436.90101,0.14461
1434.97229,0.14770
1433.04356,0.14920
1431.11484,0.15020
1429.18611,0.14965
1427.25738,0.14634
1425.32866,0.14009
1423.39993,0.13090
1421.47120,0.11870
1419.54248,0.10073
1417.61375,0.07834
1415.68503,0.06054
1413.75630,0.05040
1411.82757,0.04650
1409.89885,0.04781
1407.97012,0.05373
1406.04139,0.06344
1404.11267,0.07464
1402.18394,0.08427
1400.25522,0.09194
1398.32649,0.09802
1396.39776,0.10129
1394.46904,0.10128
1392.54031,0.09922
1390.61159,0.09669
1388.68286,0.09426
1386.75413,0.09197
1384.82541,0.09038
1382.89668,0.08990
1380.96795,0.08993
1379.03923,0.08968
1377.11050,0.08893
1375.18178,0.08731
1373.25305,0.08462
1371.32432,0.08211
1369.39560,0.08114
1367.46687,0.08177
1365.53814,0.08336
1363.60942,0.08470
1361.68069,0.08411
1359.75197,0.08112
1357.82324,0.07660
1355.89451,0.07107
1353.96579,0.06476
1352.03706,0.05828
1350.10834,0.05240
1348.17961,0.04776
1346.25088,0.04493
1344.32216,0.04406
1342.39343,0.04503
1340.46470,0.04810
1338.53598,0.05386
1336.60725,0.06235
1334.67853,0.07255
1332.74980,0.08234
1330.82107,0.08901
1328.89235,0.09071
1326.96362,0.08775
1325.03489,0.08201
1323.10617,0.07529
1321.17744,0.06844
1319.24872,0.06165
1317.31999,0.05524
1315.39126,0.04953
1313.46254,0.04442
1311.53381,0.03976
1309.60509,0.03580
1307.67636,0.03281
1305.74763,0.03071
1303.81891,0.02921
1301.89018,0.02814
1299.96145,0.02752
1298.03273,0.02749
1296.10400,0.02804
1294.17528,0.02885
1292.24655,0.02991
1290.31782,0.03150
1288.38910,0.03350
1286.46037,0.03540
1284.53164,0.03703
1282.60292,0.03871
1280.67419,0.04058
1278.74547,0.04241
1276.81674,0.04406
1274.88801,0.04553
1272.95929,0.04685
1271.03056,0.04809
1269.10183,0.04920
1267.17311,0.04992
1265.24438,0.05028
1263.31566,0.05070
1261.38693,0.05124
1259.45820,0.05155
1257.52948,0.05151
1255.60075,0.05154
1253.67203,0.05185
1251.74330,0.05176
1249.81457,0.05072
1247.88585,0.04929
1245.95712,0.04803
1244.02839,0.04711
1242.09967,0.04701
1240.17094,0.04872
1238.24222,0.05329
1236.31349,0.06109
1234.38476,0.07170
1232.45604,0.08446
1230.52731,0.09810
1228.59858,0.11087
1226.66986,0.12168
1224.74113,0.13096
1222.81241,0.14034
1220.88368,0.15099
1218.95495,0.16220
1217.02623,0.17179
1215.09750,0.17856
1213.16878,0.18363
1211.24005,0.18869
1209.31132,0.19435
1207.38260,0.20055
1205.45387,0.20701
1203.52514,0.21334
1201.59642,0.21907
1199.66769,0.22376
1197.73897,0.22710
1195.81024,0.22896
1193.88151,0.22890
1191.95279,0.22665
1190.02406,0.22225
1188.09533,0.21595
1186.16661,0.20792
1184.23788,0.19851
1182.30916,0.18845
1180.38043,0.17864
1178.45170,0.16971
1176.52298,0.16190
1174.59425,0.15552
1172.66553,0.15095
1170.73680,0.14775
1168.80807,0.14413
1166.87935,0.13817
1164.95062,0.12973
1163.02189,0.12034
1161.09317,0.11117
1159.16444,0.10205
1157.23572,0.09251
1155.30699,0.08286
1153.37826,0.07370
1151.44954,0.06523
1149.52081,0.05713
1147.59208,0.04945
1145.66336,0.04319
1143.73463,0.03884
1141.80591,0.03599
1139.87718,0.03471
1137.94845,0.03539
1136.01973,0.03755
1134.09100,0.04020
1132.16228,0.04235
1130.23355,0.04358
1128.30482,0.04437
1126.37610,0.04479
1124.44737,0.04465
1122.51864,0.04463
1120.58992,0.04504
1118.66119,0.04600
1116.73247,0.04771
1114.80374,0.04915
1112.87501,0.04925
1110.94629,0.04846
1109.01756,0.04804
1107.08883,0.04864
1105.16011,0.04995
1103.23138,0.05158
1101.30266,0.05398
1099.37393,0.05792
1097.44520,0.06312
1095.51648,0.06869
1093.58775,0.07471
1091.65903,0.08176
1089.73030,0.09004
1087.80157,0.09980
1085.87285,0.11159
1083.94412,0.12594
1082.01539,0.14268
1080.08667,0.16100
1078.15794,0.17973
1076.22922,0.19734
1074.30049,0.21300
1072.37176,0.22663
1070.44304,0.23808
1068.51431,0.24725
1066.58558,0.25366
1064.65686,0.25733
1062.72813,0.25945
1060.79941,0.25990
1058.87068,0.25735
1056.94195,0.25161
1055.01323,0.24373
1053.08450,0.23506
1051.15578,0.22613
1049.22705,0.21723
1047.29832,0.20978
1045.36960,0.20440
1043.44087,0.20028
1041.51214,0.19716
1039.58342,0.19506
1037.65469,0.19271
1035.72597,0.18811
1033.79724,0.17949
1031.86851,0.16494
1029.93979,0.14288
1028.01106,0.11543
1026.08233,0.09088
1024.15361,0.07796
1022.22488,0.07759
1020.29616,0.08553
1018.36743,0.10105
1016.43870,0.12778
1014.50998,0.16613
1012.58125,0.20809
1010.65253,0.24356
1008.72380,0.26895
1006.79507,0.28559
1004.86635,0.29575
1002.93762,0.30188
1001.00889,0.30548
999.08017,0.30691
997.15144,0.30604
995.22272,0.30179
993.29399,0.29285
991.36526,0.28079
989.43654,0.27033
987.50781,0.26372
985.57908,0.25732
983.65036,0.24666
981.72163,0.23073
979.79291,0.21154
977.86418,0.19254
975.93545,0.17676
974.00673,0.16680
972.07800,0.16529
970.14928,0.17309
968.22055,0.18817
966.29182,0.20729
964.36310,0.22773
962.43437,0.24777
960.50564,0.26615
958.57692,0.28207
956.64819,0.29565
954.71947,0.30687
952.79074,0.31517
950.86201,0.32100
948.93329,0.32591
947.00456,0.33052
945.07583,0.33410
943.14711,0.33608
941.21838,0.33663
939.28966,0.33619
937.36093,0.33533
935.43220,0.33459
933.50348,0.33448
931.57475,0.33490
929.64603,0.33473
927.71730,0.33337
925.78857,0.33130
923.85985,0.32857
921.93112,0.32540
920.00239,0.32189
918.07367,0.31679
916.14494,0.30953
914.21622,0.30076
912.28749,0.29068
910.35876,0.27960
908.43004,0.26815
906.50131,0.25677
904.57258,0.24640
902.64386,0.23817
900.71513,0.23301
898.78641,0.23096
896.85768,0.23056
894.92895,0.23036
893.00023,0.22984
891.07150,0.22853
889.14277,0.22549
887.21405,0.21982
885.28532,0.21137
883.35660,0.20108
881.42787,0.18965
879.49914,0.17731
877.57042,0.16437
875.64169,0.15203
873.71297,0.14530
871.78424,0.15082
869.85551,0.16731
867.92679,0.18478
865.99806,0.19549
864.06933,0.19839
862.14061,0.19500
860.21188,0.18758
858.28316,0.17850
856.35443,0.16919
854.42570,0.16057
852.49698,0.15372
850.56825,0.14984
848.63952,0.15041
846.71080,0.15653
844.78207,0.16691
842.85335,0.17854
840.92462,0.18964
838.99589,0.19969
837.06717,0.20856
835.13844,0.21678
833.20972,0.22437
831.28099,0.23087
829.35226,0.23647
827.42354,0.24130
825.49481,0.24519
823.56608,0.24810
821.63736,0.24940
819.70863,0.24854
817.77991,0.24634
815.85118,0.24434
813.92245,0.24340
811.99373,0.24259
810.06500,0.24052
808.13627,0.23736
806.20755,0.23409
804.27882,0.23094
802.35010,0.22768
800.42137,0.22322
798.49264,0.21461
796.56392,0.20182
794.63519,0.19195
792.70647,0.19214
790.77774,0.20110
788.84901,0.21262
786.92029,0.22321
784.99156,0.23206
783.06283,0.23836
781.13411,0.24257
779.20538,0.24611
777.27666,0.24895
775.34793,0.25132
773.41920,0.25379
771.49048,0.25508
769.56175,0.25455
767.63302,0.25361
765.70430,0.25293
763.77557,0.25182
761.84685,0.24979
759.91812,0.24622
757.98939,0.24052
756.06067,0.23390
754.13194,0.22724
752.20322,0.21905
750.27449,0.20805
748.34576,0.19401
746.41704,0.17628
744.48831,0.15491
742.55958,0.13073
740.63086,0.10501
738.70213,0.08119
736.77341,0.06356
734.84468,0.05396
732.91595,0.05094
730.98723,0.05172
729.05850,0.05582
727.12977,0.06550
725.20105,0.08302
723.27232,0.10842
721.34360,0.13908
719.41487,0.16889
717.48614,0.19089
715.55742,0.20324
713.62869,0.20897
711.69997,0.21173
709.77124,0.21372
707.84251,0.21576
705.91379,0.21850
703.98506,0.22303
702.05633,0.23020
700.12761,0.23975
698.19888,0.24994
696.27016,0.25811
694.34143,0.26241
692.41270,0.26329
690.48398,0.26237
688.55525,0.26040
686.62652,0.25674
684.69780,0.25047
682.76907,0.24228
680.84035,0.23517
678.91162,0.23199
676.98289,0.23225
675.05417,0.23304
673.12544,0.23424
671.19672,0.24193
669.26799,0.25727
667.33926,0.26456
665.41054,0.25861
663.48181,0.25401
661.55308,0.25428
659.62436,0.25487
657.69563,0.25459
655.76691,0.25493
653.83818,0.25696
651.90945,0.25993
649.98073,0.26176
648.05200,0.26180
646.12327,0.26202
644.19455,0.26350
642.26582,0.26461
640.33710,0.26341
638.40837,0.25869
636.47964,0.24920
634.55092,0.23640
632.62219,0.22779
630.69347,0.23054
628.76474,0.24188
626.83601,0.25139
624.90729,0.25430
622.97856,0.25381
621.04983,0.25251
619.12111,0.25067
617.19238,0.24780
615.26366,0.24494
613.33493,0.24369
611.40620,0.24341
609.47748,0.24330
607.54875,0.24370
605.62002,0.24375
603.69130,0.24225
601.76257,0.24007
599.83385,0.23823
597.90512,0.23671
595.97639,0.23617
594.04767,0.23835
592.11894,0.24275
590.19022,0.24586
588.26149,0.24639
586.33276,0.24578
584.40404,0.24425
582.47531,0.24128
580.54658,0.23786
578.61786,0.23483
576.68913,0.23117
574.76041,0.22676
572.83168,0.22309
570.90295,0.22084
568.97423,0.21929
567.04550,0.21673
565.11677,0.21295
563.18805,0.20969
561.25932,0.20770
559.33060,0.20635
557.40187,0.20407
555.47314,0.19930
553.54442,0.19374
551.61569,0.19017
549.68697,0.18756
547.75824,0.18336
545.82951,0.17789
543.90079,0.17275
541.97206,0.16744
540.04333,0.16046
538.11461,0.15370
536.18588,0.15055
534.25716,0.14901
532.32843,0.14379
530.39970,0.13587
528.47098,0.13064
526.54225,0.12845
524.61352,0.12598
522.68480,0.12315
520.75607,0.12199
518.82735,0.12232
516.89862,0.12123
514.96989,0.11704
513.04117,0.11012
511.11244,0.10051
509.18371,0.09074
507.25499,0.08578
505.32626,0.08693
503.39754,0.09104
501.46881,0.09582
499.54008,0.10071
497.61136,0.10557
495.68263,0.11188
493.75391,0.12040
491.82518,0.12677
489.89645,0.12598
487.96773,0.12125
486.03900,0.11877
484.11027,0.11975
482.18155,0.12219
480.25282,0.12457
478.32410,0.12659
476.39537,0.12914
474.46664,0.13172
472.53792,0.13210
470.60919,0.13043
468.68046,0.12792
466.75174,0.12442
464.82301,0.12074
462.89429,0.11773
460.96556,0.11576
459.03683,0.11439
457.10811,0.11052
455.17938,0.10289
453.25066,0.09510
451.32193,0.08952
449.39320,0.08462
447.46448,0.07773
445.53575,0.06826
443.60702,0.05837
441.67830,0.05201
439.74957,0.05078
437.82085,0.05216
435.89212,0.05415
433.96339,0.05691
432.03467,0.06056
430.10594,0.06469
428.17721,0.06880
426.24849,0.07378
424.31976,0.08127
422.39104,0.08940
420.46231,0.09089
418.53358,0.08340
416.60486,0.07813
414.67613,0.07895
412.74741,0.07983
410.81868,0.07954
408.88995,0.08162
406.96123,0.08250
405.03250,0.07235
403.10377,0.05522
401.17505,0.04664
399.24632,0.05123
