7497.02977,0.83227
7495.10103,0.83136
7493.17228,0.83412
7491.24354,0.84206
7489.31479,0.84671
7487.38605,0.84518
7485.45730,0.84227
7483.52856,0.83930
7481.59982,0.83654
7479.67107,0.83612
7477.74233,0.83955
7475.81358,0.84145
7473.88484,0.83595
7471.95609,0.83077
7470.02735,0.83280
7468.09860,0.83568
7466.16986,0.83610
7464.24112,0.83878
7462.31237,0.84255
7460.38363,0.84118
7458.45488,0.83528
7456.52614,0.83135
7454.59739,0.83088
7452.66865,0.83112
7450.73990,0.83101
7448.81116,0.83008
7446.88242,0.82833
7444.95367,0.82728
7443.02493,0.82762
7441.09618,0.82801
7439.16744,0.82762
7437.23869,0.82638
7435.30995,0.82385
7433.38120,0.82337
7431.45246,0.82902
7429.52371,0.83485
7427.59497,0.83484
7425.66623,0.83628
7423.73748,0.84059
7421.80874,0.83929
7419.87999,0.83599
7417.95125,0.83564
7416.02250,0.83413
7414.09376,0.83129
7412.16501,0.83037
7410.23627,0.83125
7408.30753,0.83106
7406.37878,0.82980
7404.45004,0.83001
7402.52129,0.83125
7400.59255,0.83094
7398.66380,0.82698
7396.73506,0.82154
7394.80631,0.82018
7392.87757,0.82569
7390.94883,0.83470
7389.02008,0.84022
7387.09134,0.83914
7385.16259,0.83420
7383.23385,0.82936
7381.30510,0.82594
7379.37636,0.82264
7377.44761,0.81910
7375.51887,0.81735
7373.59013,0.81801
7371.66138,0.81776
7369.73264,0.81608
7367.80389,0.81740
7365.87515,0.82091
7363.94640,0.82170
7362.01766,0.82028
7360.08891,0.81881
7358.16017,0.81871
7356.23142,0.82172
7354.30268,0.82474
7352.37394,0.82538
7350.44519,0.82572
7348.51645,0.82472
7346.58770,0.82156
7344.65896,0.81968
7342.73021,0.82022
7340.80147,0.82042
7338.87272,0.81936
7336.94398,0.81917
7335.01524,0.81949
7333.08649,0.81741
7331.15775,0.81353
7329.22900,0.81262
7327.30026,0.81523
7325.37151,0.81653
7323.44277,0.81626
7321.51402,0.81877
7319.58528,0.82360
7317.65654,0.82533
7315.72779,0.82388
7313.79905,0.82334
7311.87030,0.82151
7309.94156,0.81720
7308.01281,0.81411
7306.08407,0.81363
7304.15532,0.81638
7302.22658,0.81945
7300.29784,0.81995
7298.36909,0.82032
7296.44035,0.81941
7294.51160,0.81809
7292.58286,0.82253
7290.65411,0.82860
7288.72537,0.82681
7286.79662,0.81903
7284.86788,0.81399
7282.93913,0.81405
7281.01039,0.81581
7279.08165,0.81806
7277.15290,0.82110
7275.22416,0.82211
7273.29541,0.81982
7271.36667,0.81855
7269.43792,0.81935
7267.50918,0.81925
7265.58043,0.81803
7263.65169,0.81612
7261.72295,0.81593
7259.79420,0.82123
7257.86546,0.82704
7255.93671,0.82568
7254.00797,0.82114
7252.07922,0.81963
7250.15048,0.81871
7248.22173,0.81651
7246.29299,0.81450
7244.36425,0.81204
7242.43550,0.80925
7240.50676,0.80927
7238.57801,0.81410
7236.64927,0.82036
7234.72052,0.82075
7232.79178,0.81372
7230.86303,0.80848
7228.93429,0.81072
7227.00554,0.81450
7225.07680,0.81470
7223.14806,0.81150
7221.21931,0.80871
7219.29057,0.81090
7217.36182,0.81543
7215.43308,0.81765
7213.50433,0.81836
7211.57559,0.81800
7209.64684,0.81559
7207.71810,0.81281
7205.78936,0.81114
7203.86061,0.80938
7201.93187,0.80722
7200.00312,0.80698
7198.07438,0.80948
7196.14563,0.81163
7194.21689,0.81281
7192.28814,0.81529
7190.35940,0.81693
7188.43066,0.81534
7186.50191,0.81108
7184.57317,0.80660
7182.64442,0.80701
7180.71568,0.81171
7178.78693,0.81320
7176.85819,0.80974
7174.92944,0.80624
7173.00070,0.80494
7171.07196,0.80484
7169.14321,0.80604
7167.21447,0.80804
7165.28572,0.80998
7163.35698,0.81265
7161.42823,0.81649
7159.49949,0.81998
7157.57074,0.82048
7155.64200,0.81827
7153.71325,0.81650
7151.78451,0.81679
7149.85577,0.81779
7147.92702,0.81773
7145.99828,0.81595
7144.06953,0.81259
7142.14079,0.81030
7140.21204,0.81072
7138.28330,0.81110
7136.35455,0.81065
7134.42581,0.81126
7132.49707,0.81129
7130.56832,0.80777
7128.63958,0.80460
7126.71083,0.80620
7124.78209,0.80775
7122.85334,0.80739
7120.92460,0.80957
7118.99585,0.81192
7117.06711,0.81189
7115.13837,0.81275
7113.20962,0.81281
7111.28088,0.81014
7109.35213,0.80894
7107.42339,0.80920
7105.49464,0.80821
7103.56590,0.80794
7101.63715,0.80834
7099.70841,0.80652
7097.77967,0.80346
7095.85092,0.80132
7093.92218,0.79991
7091.99343,0.79885
7090.06469,0.79885
7088.13594,0.80120
7086.20720,0.80527
7084.27845,0.80827
7082.34971,0.80811
7080.42096,0.80478
7078.49222,0.80102
7076.56348,0.80013
7074.63473,0.80288
7072.70599,0.80642
7070.77724,0.80689
7068.84850,0.80487
7066.91975,0.80458
7064.99101,0.80678
7063.06226,0.80781
7061.13352,0.80632
7059.20478,0.80492
7057.27603,0.80420
7055.34729,0.80293
7053.41854,0.80116
7051.48980,0.79995
7049.56105,0.80087
7047.63231,0.80328
7045.70356,0.80509
7043.77482,0.80577
7041.84608,0.80595
7039.91733,0.80775
7037.98859,0.81112
7036.05984,0.81240
7034.13110,0.81001
7032.20235,0.80529
7030.27361,0.80136
7028.34486,0.80207
7026.41612,0.80639
7024.48738,0.80782
7022.55863,0.80372
7020.62989,0.79974
7018.70114,0.79996
7016.77240,0.80259
7014.84365,0.80531
7012.91491,0.80550
7010.98616,0.80325
7009.05742,0.80238
7007.12867,0.80249
7005.19993,0.80136
7003.27119,0.80064
7001.34244,0.80176
6999.41370,0.80433
6997.48495,0.80752
6995.55621,0.81065
6993.62746,0.81325
6991.69872,0.81336
6989.76997,0.81067
6987.84123,0.80819
6985.91249,0.80703
6983.98374,0.80543
6982.05500,0.80280
6980.12625,0.80190
6978.19751,0.80493
6976.26876,0.80834
6974.34002,0.80856
6972.41127,0.80750
6970.48253,0.80593
6968.55379,0.80377
6966.62504,0.80365
6964.69630,0.80386
6962.76755,0.80244
6960.83881,0.80266
6958.91006,0.80325
6956.98132,0.80151
6955.05257,0.80165
6953.12383,0.80519
6951.19509,0.80758
6949.26634,0.80825
6947.33760,0.80978
6945.40885,0.81208
6943.48011,0.81341
6941.55136,0.81176
6939.62262,0.80810
6937.69387,0.80584
6935.76513,0.80500
6933.83638,0.80455
6931.90764,0.80482
6929.97890,0.80361
6928.05015,0.80034
6926.12141,0.80061
6924.19266,0.80588
6922.26392,0.81011
6920.33517,0.81055
6918.40643,0.80876
6916.47768,0.80702
6914.54894,0.80742
6912.62020,0.80936
6910.69145,0.81033
6908.76271,0.80815
6906.83396,0.80464
6904.90522,0.80523
6902.97647,0.80931
6901.04773,0.81037
6899.11898,0.80774
6897.19024,0.80541
6895.26150,0.80433
6893.33275,0.80435
6891.40401,0.80532
6889.47526,0.80630
6887.54652,0.80639
6885.61777,0.80512
6883.68903,0.80489
6881.76028,0.80785
6879.83154,0.81148
6877.90280,0.81432
6875.97405,0.81583
6874.04531,0.81356
6872.11656,0.80884
6870.18782,0.80516
6868.25907,0.80513
6866.33033,0.80919
6864.40158,0.81195
6862.47284,0.81028
6860.54409,0.80764
6858.61535,0.80686
6856.68661,0.80893
6854.75786,0.81263
6852.82912,0.81361
6850.90037,0.81081
6848.97163,0.80798
6847.04288,0.80571
6845.11414,0.80322
6843.18539,0.80240
6841.25665,0.80430
6839.32791,0.80858
6837.39916,0.81171
6835.47042,0.81082
6833.54167,0.80865
6831.61293,0.80733
6829.68418,0.80680
6827.75544,0.80679
6825.82669,0.80748
6823.89795,0.80863
6821.96921,0.80890
6820.04046,0.80989
6818.11172,0.81277
6816.18297,0.81344
6814.25423,0.81075
6812.32548,0.80924
6810.39674,0.81048
6808.46799,0.81261
6806.53925,0.81326
6804.61051,0.81025
6802.68176,0.80557
6800.75302,0.80273
6798.82427,0.80289
6796.89553,0.80558
6794.96678,0.80842
6793.03804,0.81010
6791.10929,0.81066
6789.18055,0.81014
6787.25180,0.81051
6785.32306,0.81332
6783.39432,0.81533
6781.46557,0.81323
6779.53683,0.81079
6777.60808,0.81108
6775.67934,0.81152
6773.75059,0.81199
6771.82185,0.81299
6769.89310,0.81273
6767.96436,0.81142
6766.03562,0.81061
6764.10687,0.81178
6762.17813,0.81415
6760.24938,0.81443
6758.32064,0.81197
6756.39189,0.80872
6754.46315,0.80590
6752.53440,0.80390
6750.60566,0.80303
6748.67692,0.80451
6746.74817,0.80863
6744.81943,0.81187
6742.89068,0.81137
6740.96194,0.80945
6739.03319,0.80901
6737.10445,0.80920
6735.17570,0.80797
6733.24696,0.80707
6731.31822,0.80974
6729.38947,0.81429
6727.46073,0.81724
6725.53198,0.81748
6723.60324,0.81572
6721.67449,0.81409
6719.74575,0.81287
6717.81700,0.81119
6715.88826,0.81010
6713.95951,0.81032
6712.03077,0.81100
6710.10203,0.81088
6708.17328,0.81011
6706.24454,0.81081
6704.31579,0.81343
6702.38705,0.81533
6700.45830,0.81530
6698.52956,0.81522
6696.60081,0.81508
6694.67207,0.81353
6692.74333,0.81289
6690.81458,0.81408
6688.88584,0.81366
6686.95709,0.81137
6685.02835,0.80948
6683.09960,0.80773
6681.17086,0.80594
6679.24211,0.80537
6677.31337,0.80678
6675.38463,0.80948
6673.45588,0.81172
6671.52714,0.81231
6669.59839,0.81161
6667.66965,0.81111
6665.74090,0.81186
6663.81216,0.81241
6661.88341,0.81031
6659.95467,0.80740
6658.02593,0.80768
6656.09718,0.81065
6654.16844,0.81280
6652.23969,0.81263
6650.31095,0.81169
6648.38220,0.81253
6646.45346,0.81566
6644.52471,0.81807
6642.59597,0.81668
6640.66722,0.81359
6638.73848,0.81183
6636.80974,0.81006
6634.88099,0.80883
6632.95225,0.81119
6631.02350,0.81465
6629.09476,0.81404
6627.16601,0.81058
6625.23727,0.80967
6623.30852,0.81256
6621.37978,0.81559
6619.45104,0.81614
6617.52229,0.81531
6615.59355,0.81487
6613.66480,0.81498
6611.73606,0.81536
6609.80731,0.81607
6607.87857,0.81763
6605.94982,0.81935
6604.02108,0.81920
6602.09234,0.81782
6600.16359,0.81752
6598.23485,0.81784
6596.30610,0.81748
6594.37736,0.81667
6592.44861,0.81524
6590.51987,0.81402
6588.59112,0.81597
6586.66238,0.81949
6584.73364,0.81900
6582.80489,0.81602
6580.87615,0.81592
6578.94740,0.81698
6577.01866,0.81548
6575.08991,0.81332
6573.16117,0.81279
6571.23242,0.81338
6569.30368,0.81454
6567.37493,0.81582
6565.44619,0.81617
6563.51745,0.81443
6561.58870,0.81233
6559.65996,0.81281
6557.73121,0.81480
6555.80247,0.81644
6553.87372,0.81605
6551.94498,0.81216
6550.01623,0.80942
6548.08749,0.81177
6546.15875,0.81437
6544.23000,0.81405
6542.30126,0.81331
6540.37251,0.81205
6538.44377,0.81053
6536.51502,0.81174
6534.58628,0.81503
6532.65753,0.81766
6530.72879,0.81919
6528.80005,0.81973
6526.87130,0.81959
6524.94256,0.81919
6523.01381,0.81861
6521.08507,0.81840
6519.15632,0.81836
6517.22758,0.81801
6515.29883,0.81799
6513.37009,0.81779
6511.44135,0.81637
6509.51260,0.81488
6507.58386,0.81490
6505.65511,0.81534
6503.72637,0.81523
6501.79762,0.81584
6499.86888,0.81693
6497.94013,0.81719
6496.01139,0.81643
6494.08264,0.81540
6492.15390,0.81477
6490.22516,0.81416
6488.29641,0.81489
6486.36767,0.81822
6484.43892,0.82126
6482.51018,0.82066
6480.58143,0.81764
6478.65269,0.81670
6476.72394,0.81852
6474.79520,0.81975
6472.86646,0.81964
6470.93771,0.81933
6469.00897,0.81962
6467.08022,0.82095
6465.15148,0.82188
6463.22273,0.82010
6461.29399,0.81651
6459.36524,0.81491
6457.43650,0.81616
6455.50776,0.81771
6453.57901,0.81783
6451.65027,0.81667
6449.72152,0.81571
6447.79278,0.81635
6445.86403,0.81835
6443.93529,0.81996
6442.00654,0.82015
6440.07780,0.81993
6438.14906,0.81999
6436.22031,0.81987
6434.29157,0.81931
6432.36282,0.81804
6430.43408,0.81700
6428.50533,0.81776
6426.57659,0.81942
6424.64784,0.81998
6422.71910,0.81961
6420.79035,0.81916
6418.86161,0.81848
6416.93287,0.81724
6415.00412,0.81641
6413.07538,0.81657
6411.14663,0.81602
6409.21789,0.81474
6407.28914,0.81526
6405.36040,0.81689
6403.43165,0.81748
6401.50291,0.81827
6399.57417,0.81996
6397.64542,0.82069
6395.71668,0.82013
6393.78793,0.81946
6391.85919,0.81903
6389.93044,0.81864
6388.00170,0.81821
6386.07295,0.81773
6384.14421,0.81748
6382.21547,0.81790
6380.28672,0.81869
6378.35798,0.81891
6376.42923,0.81730
6374.50049,0.81466
6372.57174,0.81420
6370.64300,0.81594
6368.71425,0.81672
6366.78551,0.81598
6364.85677,0.81666
6362.92802,0.81945
6360.99928,0.82060
6359.07053,0.81907
6357.14179,0.81827
6355.21304,0.81909
6353.28430,0.81871
6351.35555,0.81666
6349.42681,0.81574
6347.49806,0.81658
6345.56932,0.81770
6343.64058,0.81841
6341.71183,0.81914
6339.78309,0.82009
6337.85434,0.82018
6335.92560,0.81928
6333.99685,0.81761
6332.06811,0.81565
6330.13936,0.81529
6328.21062,0.81602
6326.28188,0.81599
6324.35313,0.81540
6322.42439,0.81522
6320.49564,0.81633
6318.56690,0.81787
6316.63815,0.81766
6314.70941,0.81491
6312.78066,0.81189
6310.85192,0.81172
6308.92318,0.81393
6306.99443,0.81646
6305.06569,0.81857
6303.13694,0.81952
6301.20820,0.81893
6299.27945,0.81814
6297.35071,0.81836
6295.42196,0.81851
6293.49322,0.81801
6291.56447,0.81797
6289.63573,0.81785
6287.70699,0.81721
6285.77824,0.81715
6283.84950,0.81761
6281.92075,0.81803
6279.99201,0.81903
6278.06326,0.82048
6276.13452,0.82049
6274.20577,0.81821
6272.27703,0.81535
6270.34829,0.81342
6268.41954,0.81282
6266.49080,0.81405
6264.56205,0.81631
6262.63331,0.81691
6260.70456,0.81497
6258.77582,0.81311
6256.84707,0.81332
6254.91833,0.81438
6252.98959,0.81492
6251.06084,0.81496
6249.13210,0.81460
6247.20335,0.81484
6245.27461,0.81660
6243.34586,0.81772
6241.41712,0.81657
6239.48837,0.81590
6237.55963,0.81697
6235.63089,0.81711
6233.70214,0.81645
6231.77340,0.81627
6229.84465,0.81582
6227.91591,0.81566
6225.98716,0.81576
6224.05842,0.81450
6222.12967,0.81286
6220.20093,0.81303
6218.27218,0.81436
6216.34344,0.81418
6214.41470,0.81177
6212.48595,0.80988
6210.55721,0.81074
6208.62846,0.81199
6206.69972,0.81064
6204.77097,0.80847
6202.84223,0.80787
6200.91348,0.80764
6198.98474,0.80647
6197.05600,0.80519
6195.12725,0.80466
6193.19851,0.80499
6191.26976,0.80584
6189.34102,0.80585
6187.41227,0.80456
6185.48353,0.80343
6183.55478,0.80290
6181.62604,0.80344
6179.69730,0.80566
6177.76855,0.80756
6175.83981,0.80740
6173.91106,0.80601
6171.98232,0.80446
6170.05357,0.80386
6168.12483,0.80397
6166.19608,0.80274
6164.26734,0.80114
6162.33860,0.80213
6160.40985,0.80403
6158.48111,0.80376
6156.55236,0.80290
6154.62362,0.80276
6152.69487,0.80118
6150.76613,0.79841
6148.83738,0.79701
6146.90864,0.79672
6144.97989,0.79664
6143.05115,0.79713
6141.12241,0.79786
6139.19366,0.79788
6137.26492,0.79690
6135.33617,0.79640
6133.40743,0.79659
6131.47868,0.79561
6129.54994,0.79388
6127.62119,0.79268
6125.69245,0.79189
6123.76371,0.79162
6121.83496,0.79094
6119.90622,0.78890
6117.97747,0.78725
6116.04873,0.78698
6114.11998,0.78680
6112.19124,0.78607
6110.26249,0.78440
6108.33375,0.78188
6106.40501,0.77924
6104.47626,0.77635
6102.54752,0.77333
6100.61877,0.77118
6098.69003,0.77001
6096.76128,0.76805
6094.83254,0.76410
6092.90379,0.75919
6090.97505,0.75482
6089.04631,0.75193
6087.11756,0.75035
6085.18882,0.74927
6083.26007,0.74786
6081.33133,0.74601
6079.40258,0.74460
6077.47384,0.74287
6075.54509,0.73917
6073.61635,0.73483
6071.68760,0.73279
6069.75886,0.73231
6067.83012,0.73030
6065.90137,0.72682
6063.97263,0.72313
6062.04388,0.71953
6060.11514,0.71646
6058.18639,0.71313
6056.25765,0.70940
6054.32890,0.70663
6052.40016,0.70512
6050.47142,0.70372
6048.54267,0.70171
6046.61393,0.70014
6044.68518,0.69975
6042.75644,0.69872
6040.82769,0.69554
6038.89895,0.69139
6036.97020,0.68782
6035.04146,0.68528
6033.11272,0.68322
6031.18397,0.68126
6029.25523,0.67998
6027.32648,0.67871
6025.39774,0.67633
6023.46899,0.67424
6021.54025,0.67368
6019.61150,0.67367
6017.68276,0.67449
6015.75402,0.67725
6013.82527,0.68051
6011.89653,0.68197
6009.96778,0.68256
6008.03904,0.68479
6006.11029,0.68788
6004.18155,0.68990
6002.25280,0.69186
6000.32406,0.69459
5998.39531,0.69715
5996.46657,0.69959
5994.53783,0.70239
5992.60908,0.70463
5990.68034,0.70625
5988.75159,0.70852
5986.82285,0.71061
5984.89410,0.71136
5982.96536,0.71199
5981.03661,0.71311
5979.10787,0.71402
5977.17913,0.71421
5975.25038,0.71321
5973.32164,0.71171
5971.39289,0.71179
5969.46415,0.71408
5967.53540,0.71746
5965.60666,0.72111
5963.67791,0.72404
5961.74917,0.72547
5959.82043,0.72602
5957.89168,0.72656
5955.96294,0.72725
5954.03419,0.72781
5952.10545,0.72814
5950.17670,0.72885
5948.24796,0.73049
5946.31921,0.73200
5944.39047,0.73157
5942.46173,0.72958
5940.53298,0.72871
5938.60424,0.73021
5936.67549,0.73315
5934.74675,0.73603
5932.81800,0.73815
5930.88926,0.74079
5928.96051,0.74425
5927.03177,0.74664
5925.10302,0.74821
5923.17428,0.74998
5921.24554,0.75123
5919.31679,0.75133
5917.38805,0.75048
5915.45930,0.75028
5913.53056,0.75197
5911.60181,0.75390
5909.67307,0.75493
5907.74432,0.75632
5905.81558,0.75814
5903.88684,0.75885
5901.95809,0.75849
5900.02935,0.75864
5898.10060,0.75914
5896.17186,0.75830
5894.24311,0.75665
5892.31437,0.75603
5890.38562,0.75663
5888.45688,0.75726
5886.52814,0.75674
5884.59939,0.75561
5882.67065,0.75467
5880.74190,0.75340
5878.81316,0.75228
5876.88441,0.75192
5874.95567,0.75139
5873.02692,0.75018
5871.09818,0.74857
5869.16944,0.74686
5867.24069,0.74603
5865.31195,0.74627
5863.38320,0.74651
5861.45446,0.74678
5859.52571,0.74737
5857.59697,0.74760
5855.66822,0.74764
5853.73948,0.74811
5851.81073,0.74889
5849.88199,0.74991
5847.95325,0.75075
5846.02450,0.75081
5844.09576,0.75040
5842.16701,0.75001
5840.23827,0.75016
5838.30952,0.75103
5836.38078,0.75184
5834.45203,0.75196
5832.52329,0.75112
5830.59455,0.74989
5828.66580,0.74976
5826.73706,0.75060
5824.80831,0.75113
5822.87957,0.75123
5820.95082,0.75165
5819.02208,0.75176
5817.09333,0.74998
5815.16459,0.74775
5813.23585,0.74727
5811.30710,0.74763
5809.37836,0.74800
5807.44961,0.74882
5805.52087,0.74939
5803.59212,0.74906
5801.66338,0.74842
5799.73463,0.74839
5797.80589,0.74886
5795.87715,0.74921
5793.94840,0.74983
5792.01966,0.75105
5790.09091,0.75190
5788.16217,0.75161
5786.23342,0.75083
5784.30468,0.75097
5782.37593,0.75199
5780.44719,0.75307
5778.51844,0.75448
5776.58970,0.75591
5774.66096,0.75640
5772.73221,0.75579
5770.80347,0.75456
5768.87472,0.75380
5766.94598,0.75376
5765.01723,0.75418
5763.08849,0.75526
5761.15974,0.75656
5759.23100,0.75792
5757.30226,0.75959
5755.37351,0.76083
5753.44477,0.76137
5751.51602,0.76180
5749.58728,0.76205
5747.65853,0.76254
5745.72979,0.76413
5743.80104,0.76577
5741.87230,0.76603
5739.94356,0.76577
5738.01481,0.76665
5736.08607,0.76860
5734.15732,0.77027
5732.22858,0.77151
5730.29983,0.77319
5728.37109,0.77489
5726.44234,0.77570
5724.51360,0.77573
5722.58486,0.77482
5720.65611,0.77298
5718.72737,0.77159
5716.79862,0.77156
5714.86988,0.77232
5712.94113,0.77304
5711.01239,0.77334
5709.08364,0.77318
5707.15490,0.77267
5705.22615,0.77215
5703.29741,0.77284
5701.36867,0.77543
5699.43992,0.77742
5697.51118,0.77687
5695.58243,0.77634
5693.65369,0.77726
5691.72494,0.77805
5689.79620,0.77789
5687.86745,0.77700
5685.93871,0.77623
5684.00997,0.77641
5682.08122,0.77768
5680.15248,0.77945
5678.22373,0.78033
5676.29499,0.78004
5674.36624,0.77972
5672.43750,0.77992
5670.50875,0.78021
5668.58001,0.77984
5666.65127,0.77884
5664.72252,0.77846
5662.79378,0.77895
5660.86503,0.77940
5658.93629,0.77939
5657.00754,0.77894
5655.07880,0.77853
5653.15005,0.77859
5651.22131,0.77858
5649.29257,0.77826
5647.36382,0.77843
5645.43508,0.77973
5643.50633,0.78174
5641.57759,0.78326
5639.64884,0.78411
5637.72010,0.78513
5635.79135,0.78583
5633.86261,0.78548
5631.93386,0.78510
5630.00512,0.78567
5628.07638,0.78644
5626.14763,0.78630
5624.21889,0.78610
5622.29014,0.78699
5620.36140,0.78806
5618.43265,0.78842
5616.50391,0.78849
5614.57516,0.78864
5612.64642,0.78892
5610.71768,0.78916
5608.78893,0.78903
5606.86019,0.78873
5604.93144,0.78840
5603.00270,0.78755
5601.07395,0.78678
5599.14521,0.78695
5597.21646,0.78731
5595.28772,0.78715
5593.35898,0.78662
5591.43023,0.78585
5589.50149,0.78524
5587.57274,0.78517
5585.64400,0.78515
5583.71525,0.78460
5581.78651,0.78434
5579.85776,0.78475
5577.92902,0.78476
5576.00028,0.78393
5574.07153,0.78297
5572.14279,0.78277
5570.21404,0.78358
5568.28530,0.78421
5566.35655,0.78353
5564.42781,0.78239
5562.49906,0.78188
5560.57032,0.78188
5558.64157,0.78160
5556.71283,0.78095
5554.78409,0.78070
5552.85534,0.78061
5550.92660,0.78013
5548.99785,0.77977
5547.06911,0.78034
5545.14036,0.78155
5543.21162,0.78222
5541.28287,0.78255
5539.35413,0.78293
5537.42539,0.78296
5535.49664,0.78328
5533.56790,0.78370
5531.63915,0.78305
5529.71041,0.78207
5527.78166,0.78196
5525.85292,0.78253
5523.92417,0.78318
5521.99543,0.78347
5520.06669,0.78369
5518.13794,0.78433
5516.20920,0.78516
5514.28045,0.78584
5512.35171,0.78598
5510.42296,0.78561
5508.49422,0.78514
5506.56547,0.78459
5504.63673,0.78436
5502.70799,0.78465
5500.77924,0.78494
5498.85050,0.78489
5496.92175,0.78470
5494.99301,0.78480
5493.06426,0.78510
5491.13552,0.78504
5489.20677,0.78459
5487.27803,0.78434
5485.34928,0.78357
5483.42054,0.78122
5481.49180,0.77912
5479.56305,0.77906
5477.63431,0.78038
5475.70556,0.78188
5473.77682,0.78225
5471.84807,0.78150
5469.91933,0.78174
5467.99058,0.78295
5466.06184,0.78310
5464.13310,0.78312
5462.20435,0.78452
5460.27561,0.78573
5458.34686,0.78545
5456.41812,0.78427
5454.48937,0.78346
5452.56063,0.78413
5450.63188,0.78572
5448.70314,0.78686
5446.77440,0.78736
5444.84565,0.78837
5442.91691,0.79009
5440.98816,0.79102
5439.05942,0.79091
5437.13067,0.79129
5435.20193,0.79258
5433.27318,0.79409
5431.34444,0.79544
5429.41569,0.79637
5427.48695,0.79673
5425.55821,0.79672
5423.62946,0.79594
5421.70072,0.79431
5419.77197,0.79353
5417.84323,0.79438
5415.91448,0.79529
5413.98574,0.79533
5412.05699,0.79500
5410.12825,0.79484
5408.19951,0.79471
5406.27076,0.79456
5404.34202,0.79489
5402.41327,0.79505
5400.48453,0.79393
5398.55578,0.79244
5396.62704,0.79248
5394.69829,0.79451
5392.76955,0.79644
5390.84081,0.79645
5388.91206,0.79557
5386.98332,0.79497
5385.05457,0.79483
5383.12583,0.79550
5381.19708,0.79629
5379.26834,0.79636
5377.33959,0.79624
5375.41085,0.79625
5373.48211,0.79624
5371.55336,0.79657
5369.62462,0.79678
5367.69587,0.79610
5365.76713,0.79511
5363.83838,0.79437
5361.90964,0.79369
5359.98089,0.79314
5358.05215,0.79301
5356.12340,0.79328
5354.19466,0.79355
5352.26592,0.79350
5350.33717,0.79333
5348.40843,0.79365
5346.47968,0.79437
5344.55094,0.79477
5342.62219,0.79519
5340.69345,0.79585
5338.76470,0.79615
5336.83596,0.79611
5334.90722,0.79595
5332.97847,0.79571
5331.04973,0.79543
5329.12098,0.79530
5327.19224,0.79559
5325.26349,0.79557
5323.33475,0.79464
5321.40600,0.79392
5319.47726,0.79430
5317.54852,0.79523
5315.61977,0.79571
5313.69103,0.79530
5311.76228,0.79485
5309.83354,0.79539
5307.90479,0.79621
5305.97605,0.79612
5304.04730,0.79521
5302.11856,0.79414
5300.18982,0.79330
5298.26107,0.79288
5296.33233,0.79260
5294.40358,0.79222
5292.47484,0.79217
5290.54609,0.79263
5288.61735,0.79280
5286.68860,0.79222
5284.75986,0.79155
5282.83111,0.79106
5280.90237,0.79005
5278.97363,0.78862
5277.04488,0.78779
5275.11614,0.78739
5273.18739,0.78662
5271.25865,0.78565
5269.32990,0.78476
5267.40116,0.78357
5265.47241,0.78239
5263.54367,0.78165
5261.61493,0.78084
5259.68618,0.77996
5257.75744,0.77953
5255.82869,0.77955
5253.89995,0.77984
5251.97120,0.78001
5250.04246,0.77957
5248.11371,0.77880
5246.18497,0.77835
5244.25623,0.77832
5242.32748,0.77817
5240.39874,0.77774
5238.46999,0.77761
5236.54125,0.77801
5234.61250,0.77852
5232.68376,0.77836
5230.75501,0.77745
5228.82627,0.77708
5226.89753,0.77762
5224.96878,0.77830
5223.04004,0.77890
5221.11129,0.77922
5219.18255,0.77935
5217.25380,0.77949
5215.32506,0.77928
5213.39631,0.77911
5211.46757,0.77922
5209.53882,0.77898
5207.61008,0.77832
5205.68134,0.77782
5203.75259,0.77810
5201.82385,0.77932
5199.89510,0.78059
5197.96636,0.78101
5196.03761,0.78096
5194.10887,0.78106
5192.18012,0.78095
5190.25138,0.78036
5188.32264,0.78006
5186.39389,0.78032
5184.46515,0.78060
5182.53640,0.78066
5180.60766,0.78043
5178.67891,0.77990
5176.75017,0.77926
5174.82142,0.77849
5172.89268,0.77773
5170.96394,0.77750
5169.03519,0.77762
5167.10645,0.77764
5165.17770,0.77772
5163.24896,0.77756
5161.32021,0.77672
5159.39147,0.77570
5157.46272,0.77513
5155.53398,0.77486
5153.60524,0.77422
5151.67649,0.77301
5149.74775,0.77177
5147.81900,0.77104
5145.89026,0.77072
5143.96151,0.77019
5142.03277,0.76917
5140.10402,0.76813
5138.17528,0.76756
5136.24653,0.76715
5134.31779,0.76627
5132.38905,0.76521
5130.46030,0.76443
5128.53156,0.76352
5126.60281,0.76227
5124.67407,0.76112
5122.74532,0.76010
5120.81658,0.75940
5118.88783,0.75977
5116.95909,0.76051
5115.03035,0.76080
5113.10160,0.76164
5111.17286,0.76354
5109.24411,0.76551
5107.31537,0.76702
5105.38662,0.76816
5103.45788,0.76910
5101.52913,0.77020
5099.60039,0.77163
5097.67165,0.77296
5095.74290,0.77393
5093.81416,0.77488
5091.88541,0.77593
5089.95667,0.77692
5088.02792,0.77795
5086.09918,0.77936
5084.17043,0.78082
5082.24169,0.78135
5080.31295,0.78101
5078.38420,0.78103
5076.45546,0.78189
5074.52671,0.78274
5072.59797,0.78298
5070.66922,0.78300
5068.74048,0.78317
5066.81173,0.78362
5064.88299,0.78454
5062.95424,0.78555
5061.02550,0.78567
5059.09676,0.78499
5057.16801,0.78460
5055.23927,0.78465
5053.31052,0.78466
5051.38178,0.78466
5049.45303,0.78476
5047.52429,0.78489
5045.59554,0.78484
5043.66680,0.78480
5041.73806,0.78496
5039.80931,0.78499
5037.88057,0.78489
5035.95182,0.78451
5034.02308,0.78375
5032.09433,0.78375
5030.16559,0.78482
5028.23684,0.78551
5026.30810,0.78531
5024.37936,0.78497
5022.45061,0.78475
5020.52187,0.78461
5018.59312,0.78478
5016.66438,0.78515
5014.73563,0.78502
5012.80689,0.78428
5010.87814,0.78390
5008.94940,0.78427
5007.02066,0.78483
5005.09191,0.78508
5003.16317,0.78489
5001.23442,0.78439
4999.30568,0.78403
4997.37693,0.78422
4995.44819,0.78493
4993.51944,0.78582
4991.59070,0.78639
4989.66195,0.78640
4987.73321,0.78605
4985.80447,0.78584
4983.87572,0.78607
4981.94698,0.78641
4980.01823,0.78638
4978.08949,0.78601
4976.16074,0.78565
4974.23200,0.78534
4972.30325,0.78489
4970.37451,0.78441
4968.44577,0.78430
4966.51702,0.78448
4964.58828,0.78452
4962.65953,0.78423
4960.73079,0.78344
4958.80204,0.78253
4956.87330,0.78226
4954.94455,0.78199
4953.01581,0.78073
4951.08707,0.77959
4949.15832,0.77978
4947.22958,0.78011
4945.30083,0.77940
4943.37209,0.77847
4941.44334,0.77810
4939.51460,0.77775
4937.58585,0.77700
4935.65711,0.77650
4933.72837,0.77664
4931.79962,0.77682
4929.87088,0.77674
4927.94213,0.77673
4926.01339,0.77674
4924.08464,0.77630
4922.15590,0.77542
4920.22715,0.77477
4918.29841,0.77466
4916.36966,0.77431
4914.44092,0.77327
4912.51218,0.77247
4910.58343,0.77243
4908.65469,0.77215
4906.72594,0.77107
4904.79720,0.77001
4902.86845,0.76991
4900.93971,0.77041
4899.01096,0.77038
4897.08222,0.76975
4895.15348,0.76955
4893.22473,0.76997
4891.29599,0.77029
4889.36724,0.77013
4887.43850,0.76975
4885.50975,0.76941
4883.58101,0.76894
4881.65226,0.76845
4879.72352,0.76828
4877.79478,0.76820
4875.86603,0.76794
4873.93729,0.76749
4872.00854,0.76731
4870.07980,0.76782
4868.15105,0.76812
4866.22231,0.76725
4864.29356,0.76609
4862.36482,0.76582
4860.43608,0.76611
4858.50733,0.76627
4856.57859,0.76624
4854.64984,0.76600
4852.72110,0.76540
4850.79235,0.76472
4848.86361,0.76423
4846.93486,0.76356
4845.00612,0.76243
4843.07737,0.76105
4841.14863,0.75954
4839.21989,0.75814
4837.29114,0.75723
4835.36240,0.75679
4833.43365,0.75615
4831.50491,0.75466
4829.57616,0.75291
4827.64742,0.75189
4825.71867,0.75125
4823.78993,0.75018
4821.86119,0.74876
4819.93244,0.74753
4818.00370,0.74656
4816.07495,0.74563
4814.14621,0.74450
4812.21746,0.74339
4810.28872,0.74235
4808.35997,0.74109
4806.43123,0.73999
4804.50249,0.73913
4802.57374,0.73802
4800.64500,0.73715
4798.71625,0.73703
4796.78751,0.73686
4794.85876,0.73614
4792.93002,0.73575
4791.00127,0.73628
4789.07253,0.73751
4787.14379,0.73899
4785.21504,0.74000
4783.28630,0.74044
4781.35755,0.74112
4779.42881,0.74203
4777.50006,0.74241
4775.57132,0.74269
4773.64257,0.74357
4771.71383,0.74439
4769.78508,0.74480
4767.85634,0.74495
4765.92760,0.74442
4763.99885,0.74361
4762.07011,0.74316
4760.14136,0.74253
4758.21262,0.74147
4756.28387,0.74013
4754.35513,0.73825
4752.42638,0.73577
4750.49764,0.73318
4748.56890,0.73084
4746.64015,0.72841
4744.71141,0.72585
4742.78266,0.72382
4740.85392,0.72228
4738.92517,0.72043
4736.99643,0.71785
4735.06768,0.71499
4733.13894,0.71214
4731.21020,0.70895
4729.28145,0.70553
4727.35271,0.70192
4725.42396,0.69794
4723.49522,0.69413
4721.56647,0.69115
4719.63773,0.68905
4717.70898,0.68775
4715.78024,0.68727
4713.85150,0.68743
4711.92275,0.68748
4709.99401,0.68645
4708.06526,0.68410
4706.13652,0.68103
4704.20777,0.67746
4702.27903,0.67297
4700.35028,0.66809
4698.42154,0.66379
4696.49279,0.65990
4694.56405,0.65590
4692.63531,0.65237
4690.70656,0.65045
4688.77782,0.65047
4686.84907,0.65200
4684.92033,0.65454
4682.99158,0.65775
4681.06284,0.66201
4679.13409,0.66753
4677.20535,0.67324
4675.27661,0.67828
4673.34786,0.68262
4671.41912,0.68622
4669.49037,0.68912
4667.56163,0.69129
4665.63288,0.69267
4663.70414,0.69361
4661.77539,0.69459
4659.84665,0.69541
4657.91791,0.69571
4655.98916,0.69553
4654.06042,0.69498
4652.13167,0.69377
4650.20293,0.69148
4648.27418,0.68827
4646.34544,0.68464
4644.41669,0.68077
4642.48795,0.67679
4640.55921,0.67295
4638.63046,0.66980
4636.70172,0.66797
4634.77297,0.66743
4632.84423,0.66800
4630.91548,0.66999
4628.98674,0.67374
4627.05799,0.67901
4625.12925,0.68505
4623.20050,0.69100
4621.27176,0.69648
4619.34302,0.70151
4617.41427,0.70584
4615.48553,0.70926
4613.55678,0.71206
4611.62804,0.71448
4609.69929,0.71627
4607.77055,0.71711
4605.84180,0.71700
4603.91306,0.71611
4601.98432,0.71454
4600.05557,0.71225
4598.12683,0.70925
4596.19808,0.70598
4594.26934,0.70308
4592.34059,0.70094
4590.41185,0.69943
4588.48310,0.69786
4586.55436,0.69595
4584.62562,0.69407
4582.69687,0.69242
4580.76813,0.69128
4578.83938,0.69113
4576.91064,0.69246
4574.98189,0.69563
4573.05315,0.70017
4571.12440,0.70506
4569.19566,0.70967
4567.26692,0.71397
4565.33817,0.71783
4563.40943,0.72083
4561.48068,0.72292
4559.55194,0.72428
4557.62319,0.72490
4555.69445,0.72489
4553.76570,0.72466
4551.83696,0.72479
4549.90821,0.72519
4547.97947,0.72505
4546.05073,0.72459
4544.12198,0.72481
4542.19324,0.72556
4540.26449,0.72597
4538.33575,0.72566
4536.40700,0.72503
4534.47826,0.72466
4532.54951,0.72436
4530.62077,0.72367
4528.69203,0.72270
4526.76328,0.72174
4524.83454,0.72070
4522.90579,0.71956
4520.97705,0.71867
4519.04830,0.71788
4517.11956,0.71660
4515.19081,0.71476
4513.26207,0.71276
4511.33333,0.71063
4509.40458,0.70783
4507.47584,0.70435
4505.54709,0.70087
4503.61835,0.69745
4501.68960,0.69331
4499.76086,0.68829
4497.83211,0.68332
4495.90337,0.67891
4493.97462,0.67453
4492.04588,0.66992
4490.11714,0.66569
4488.18839,0.66239
4486.25965,0.65998
4484.33090,0.65801
4482.40216,0.65625
4480.47341,0.65456
4478.54467,0.65253
4476.61592,0.64991
4474.68718,0.64671
4472.75844,0.64264
4470.82969,0.63752
4468.90095,0.63151
4466.97220,0.62460
4465.04346,0.61694
4463.11471,0.60937
4461.18597,0.60307
4459.25722,0.59868
4457.32848,0.59638
4455.39974,0.59607
4453.47099,0.59696
4451.54225,0.59787
4449.61350,0.59828
4447.68476,0.59806
4445.75601,0.59707
4443.82727,0.59552
4441.89852,0.59366
4439.96978,0.59145
4438.04104,0.58921
4436.11229,0.58756
4434.18355,0.58663
4432.25480,0.58630
4430.32606,0.58686
4428.39731,0.58870
4426.46857,0.59170
4424.53982,0.59520
4422.61108,0.59866
4420.68233,0.60181
4418.75359,0.60466
4416.82485,0.60693
4414.89610,0.60810
4412.96736,0.60870
4411.03861,0.60951
4409.10987,0.61012
4407.18112,0.61020
4405.25238,0.61059
4403.32363,0.61185
4401.39489,0.61341
4399.46615,0.61489
4397.53740,0.61677
4395.60866,0.61900
4393.67991,0.62091
4391.75117,0.62263
4389.82242,0.62423
4387.89368,0.62537
4385.96493,0.62626
4384.03619,0.62705
4382.10745,0.62733
4380.17870,0.62732
4378.24996,0.62778
4376.32121,0.62840
4374.39247,0.62849
4372.46372,0.62828
4370.53498,0.62828
4368.60623,0.62832
4366.67749,0.62788
4364.74875,0.62678
4362.82000,0.62534
4360.89126,0.62443
4358.96251,0.62455
4357.03377,0.62501
4355.10502,0.62479
4353.17628,0.62388
4351.24753,0.62307
4349.31879,0.62255
4347.39004,0.62189
4345.46130,0.62094
4343.53256,0.61984
4341.60381,0.61855
4339.67507,0.61689
4337.74632,0.61525
4335.81758,0.61455
4333.88883,0.61494
4331.96009,0.61550
4330.03134,0.61564
4328.10260,0.61562
4326.17386,0.61586
4324.24511,0.61649
4322.31637,0.61707
4320.38762,0.61685
4318.45888,0.61586
4316.53013,0.61475
4314.60139,0.61352
4312.67264,0.61187
4310.74390,0.60996
4308.81516,0.60809
4306.88641,0.60606
4304.95767,0.60346
4303.02892,0.60066
4301.10018,0.59850
4299.17143,0.59694
4297.24269,0.59540
4295.31394,0.59378
4293.38520,0.59239
4291.45646,0.59167
4289.52771,0.59187
4287.59897,0.59257
4285.67022,0.59353
4283.74148,0.59466
4281.81273,0.59563
4279.88399,0.59664
4277.95524,0.59802
4276.02650,0.59924
4274.09775,0.60000
4272.16901,0.60069
4270.24027,0.60152
4268.31152,0.60243
4266.38278,0.60346
4264.45403,0.60451
4262.52529,0.60518
4260.59654,0.60526
4258.66780,0.60532
4256.73905,0.60563
4254.81031,0.60550
4252.88157,0.60496
4250.95282,0.60463
4249.02408,0.60418
4247.09533,0.60324
4245.16659,0.60262
4243.23784,0.60264
4241.30910,0.60286
4239.38035,0.60333
4237.45161,0.60402
4235.52287,0.60453
4233.59412,0.60472
4231.66538,0.60451
4229.73663,0.60406
4227.80789,0.60394
4225.87914,0.60432
4223.95040,0.60500
4222.02165,0.60622
4220.09291,0.60820
4218.16417,0.61043
4216.23542,0.61230
4214.30668,0.61377
4212.37793,0.61489
4210.44919,0.61554
4208.52044,0.61600
4206.59170,0.61654
4204.66295,0.61709
4202.73421,0.61766
4200.80546,0.61815
4198.87672,0.61835
4196.94798,0.61839
4195.01923,0.61858
4193.09049,0.61869
4191.16174,0.61818
4189.23300,0.61694
4187.30425,0.61497
4185.37551,0.61226
4183.44676,0.60931
4181.51802,0.60665
4179.58928,0.60449
4177.66053,0.60334
4175.73179,0.60367
4173.80304,0.60535
4171.87430,0.60795
4169.94555,0.61084
4168.01681,0.61355
4166.08806,0.61606
4164.15932,0.61830
4162.23058,0.62044
4160.30183,0.62278
4158.37309,0.62492
4156.44434,0.62632
4154.51560,0.62720
4152.58685,0.62783
4150.65811,0.62809
4148.72936,0.62791
4146.80062,0.62716
4144.87188,0.62557
4142.94313,0.62331
4141.01439,0.62073
4139.08564,0.61793
4137.15690,0.61512
4135.22815,0.61266
4133.29941,0.61076
4131.37066,0.60968
4129.44192,0.60936
4127.51317,0.60928
4125.58443,0.60922
4123.65569,0.60899
4121.72694,0.60832
4119.79820,0.60735
4117.86945,0.60626
4115.94071,0.60462
4114.01196,0.60207
4112.08322,0.59918
4110.15447,0.59636
4108.22573,0.59326
4106.29699,0.58955
4104.36824,0.58526
4102.43950,0.58046
4100.51075,0.57455
4098.58201,0.56677
4096.65326,0.55742
4094.72452,0.54832
4092.79577,0.54178
4090.86703,0.53922
4088.93829,0.54056
4087.00954,0.54452
4085.08080,0.54972
4083.15205,0.55538
4081.22331,0.56143
4079.29456,0.56823
4077.36582,0.57567
4075.43707,0.58280
4073.50833,0.58861
4071.57959,0.59297
4069.65084,0.59639
4067.72210,0.59936
4065.79335,0.60228
4063.86461,0.60493
4061.93586,0.60676
4060.00712,0.60816
4058.07837,0.60971
4056.14963,0.61119
4054.22088,0.61253
4052.29214,0.61407
4050.36340,0.61573
4048.43465,0.61713
4046.50591,0.61832
4044.57716,0.61979
4042.64842,0.62164
4040.71967,0.62352
4038.79093,0.62532
4036.86218,0.62697
4034.93344,0.62818
4033.00470,0.62892
4031.07595,0.62952
4029.14721,0.63017
4027.21846,0.63077
4025.28972,0.63124
4023.36097,0.63156
4021.43223,0.63147
4019.50348,0.63087
4017.57474,0.63035
4015.64600,0.63025
4013.71725,0.63022
4011.78851,0.63034
4009.85976,0.63086
4007.93102,0.63140
4006.00227,0.63167
4004.07353,0.63184
4002.14478,0.63201
4000.21604,0.63243
3998.28730,0.63326
3996.35855,0.63421
3994.42981,0.63514
3992.50106,0.63600
3990.57232,0.63684
3988.64357,0.63774
3986.71483,0.63841
3984.78608,0.63876
3982.85734,0.63904
3980.92859,0.63902
3978.99985,0.63866
3977.07111,0.63834
3975.14236,0.63810
3973.21362,0.63782
3971.28487,0.63791
3969.35613,0.63887
3967.42738,0.64033
3965.49864,0.64154
3963.56989,0.64241
3961.64115,0.64330
3959.71241,0.64436
3957.78366,0.64542
3955.85492,0.64657
3953.92617,0.64782
3951.99743,0.64875
3950.06868,0.64958
3948.13994,0.65049
3946.21119,0.65105
3944.28245,0.65134
3942.35371,0.65173
3940.42496,0.65207
3938.49622,0.65232
3936.56747,0.65274
3934.63873,0.65313
3932.70998,0.65313
3930.78124,0.65293
3928.85249,0.65287
3926.92375,0.65293
3924.99501,0.65314
3923.06626,0.65357
3921.13752,0.65392
3919.20877,0.65390
3917.28003,0.65390
3915.35128,0.65450
3913.42254,0.65559
3911.49379,0.65667
3909.56505,0.65772
3907.63630,0.65867
3905.70756,0.65942
3903.77882,0.66025
3901.85007,0.66143
3899.92133,0.66313
3897.99258,0.66529
3896.06384,0.66748
3894.13509,0.66943
3892.20635,0.67104
3890.27760,0.67220
3888.34886,0.67303
3886.42012,0.67388
3884.49137,0.67475
3882.56263,0.67538
3880.63388,0.67568
3878.70514,0.67585
3876.77639,0.67629
3874.84765,0.67707
3872.91890,0.67788
3870.99016,0.67868
3869.06142,0.67940
3867.13267,0.67981
3865.20393,0.68009
3863.27518,0.68051
3861.34644,0.68101
3859.41769,0.68167
3857.48895,0.68257
3855.56020,0.68366
3853.63146,0.68457
3851.70272,0.68465
3849.77397,0.68417
3847.84523,0.68380
3845.91648,0.68379
3843.98774,0.68405
3842.05899,0.68421
3840.13025,0.68409
3838.20150,0.68397
3836.27276,0.68386
3834.34401,0.68336
3832.41527,0.68264
3830.48653,0.68242
3828.55778,0.68268
3826.62904,0.68283
3824.70029,0.68272
3822.77155,0.68236
3820.84280,0.68147
3818.91406,0.67997
3816.98531,0.67783
3815.05657,0.67497
3813.12783,0.67224
3811.19908,0.67046
3809.27034,0.66950
3807.34159,0.66901
3805.41285,0.66873
3803.48410,0.66879
3801.55536,0.66958
3799.62661,0.67114
3797.69787,0.67297
3795.76913,0.67451
3793.84038,0.67567
3791.91164,0.67680
3789.98289,0.67787
3788.05415,0.67875
3786.12540,0.67933
3784.19666,0.67911
3782.26791,0.67828
3780.33917,0.67746
3778.41043,0.67663
3776.48168,0.67548
3774.55294,0.67414
3772.62419,0.67283
3770.69545,0.67174
3768.76670,0.67057
3766.83796,0.66881
3764.90921,0.66661
3762.98047,0.66453
3761.05172,0.66284
3759.12298,0.66178
3757.19424,0.66193
3755.26549,0.66378
3753.33675,0.66737
3751.40800,0.67204
3749.47926,0.67629
3747.55051,0.67927
3745.62177,0.68146
3743.69302,0.68275
3741.76428,0.68255
3739.83554,0.68130
3737.90679,0.67942
3735.97805,0.67694
3734.04930,0.67441
3732.12056,0.67271
3730.19181,0.67263
3728.26307,0.67430
3726.33432,0.67704
3724.40558,0.67998
3722.47684,0.68251
3720.54809,0.68429
3718.61935,0.68536
3716.69060,0.68588
3714.76186,0.68560
3712.83311,0.68437
3710.90437,0.68232
3708.97562,0.67951
3707.04688,0.67613
3705.11814,0.67228
3703.18939,0.66782
3701.26065,0.66283
3699.33190,0.65789
3697.40316,0.65295
3695.47441,0.64719
3693.54567,0.64012
3691.61692,0.63179
3689.68818,0.62295
3687.75943,0.61594
3685.83069,0.61334
3683.90195,0.61510
3681.97320,0.61966
3680.04446,0.62528
3678.11571,0.63079
3676.18697,0.63609
3674.25822,0.64027
3672.32948,0.64211
3670.40073,0.64208
3668.47199,0.64071
3666.54325,0.63835
3664.61450,0.63566
3662.68576,0.63300
3660.75701,0.63021
3658.82827,0.62704
3656.89952,0.62356
3654.97078,0.62002
3653.04203,0.61663
3651.11329,0.61329
3649.18455,0.60977
3647.25580,0.60605
3645.32706,0.60261
3643.39831,0.59965
3641.46957,0.59686
3639.54082,0.59396
3637.61208,0.59094
3635.68333,0.58798
3633.75459,0.58542
3631.82584,0.58307
3629.89710,0.58068
3627.96836,0.57838
3626.03961,0.57622
3624.11087,0.57403
3622.18212,0.57173
3620.25338,0.56930
3618.32463,0.56710
3616.39589,0.56533
3614.46714,0.56368
3612.53840,0.56188
3610.60966,0.55994
3608.68091,0.55788
3606.75217,0.55562
3604.82342,0.55319
3602.89468,0.55049
3600.96593,0.54755
3599.03719,0.54456
3597.10844,0.54135
3595.17970,0.53762
3593.25096,0.53345
3591.32221,0.52931
3589.39347,0.52558
3587.46472,0.52177
3585.53598,0.51718
3583.60723,0.51231
3581.67849,0.50779
3579.74974,0.50324
3577.82100,0.49842
3575.89226,0.49360
3573.96351,0.48874
3572.03477,0.48383
3570.10602,0.47913
3568.17728,0.47482
3566.24853,0.47107
3564.31979,0.46775
3562.39104,0.46462
3560.46230,0.46168
3558.53355,0.45886
3556.60481,0.45607
3554.67607,0.45352
3552.74732,0.45154
3550.81858,0.45009
3548.88983,0.44888
3546.96109,0.44791
3545.03234,0.44722
3543.10360,0.44659
3541.17485,0.44606
3539.24611,0.44584
3537.31737,0.44590
3535.38862,0.44601
3533.45988,0.44630
3531.53113,0.44689
3529.60239,0.44736
3527.67364,0.44755
3525.74490,0.44791
3523.81615,0.44860
3521.88741,0.44912
3519.95867,0.44932
3518.02992,0.44975
3516.10118,0.45078
3514.17243,0.45200
3512.24369,0.45265
3510.31494,0.45250
3508.38620,0.45203
3506.45745,0.45172
3504.52871,0.45168
3502.59997,0.45163
3500.67122,0.45132
3498.74248,0.45107
3496.81373,0.45084
3494.88499,0.45031
3492.95624,0.44971
3491.02750,0.44914
3489.09875,0.44823
3487.17001,0.44687
3485.24126,0.44528
3483.31252,0.44382
3481.38378,0.44246
3479.45503,0.44067
3477.52629,0.43830
3475.59754,0.43575
3473.66880,0.43342
3471.74005,0.43121
3469.81131,0.42842
3467.88256,0.42486
3465.95382,0.42113
3464.02508,0.41742
3462.09633,0.41352
3460.16759,0.40926
3458.23884,0.40475
3456.31010,0.40031
3454.38135,0.39594
3452.45261,0.39133
3450.52386,0.38641
3448.59512,0.38137
3446.66638,0.37632
3444.73763,0.37122
3442.80889,0.36579
3440.88014,0.35972
3438.95140,0.35321
3437.02265,0.34658
3435.09391,0.33996
3433.16516,0.33444
3431.23642,0.33208
3429.30768,0.33401
3427.37893,0.33965
3425.45019,0.34750
3423.52144,0.35597
3421.59270,0.36421
3419.66395,0.37198
3417.73521,0.37923
3415.80646,0.38605
3413.87772,0.39247
3411.94897,0.39831
3410.02023,0.40347
3408.09149,0.40794
3406.16274,0.41171
3404.23400,0.41508
3402.30525,0.41831
3400.37651,0.42116
3398.44776,0.42348
3396.51902,0.42532
3394.59027,0.42679
3392.66153,0.42790
3390.73279,0.42860
3388.80404,0.42893
3386.87530,0.42906
3384.94655,0.42920
3383.01781,0.42941
3381.08906,0.42953
3379.16032,0.42957
3377.23157,0.42968
3375.30283,0.42974
3373.37409,0.42951
3371.44534,0.42910
3369.51660,0.42862
3367.58785,0.42787
3365.65911,0.42669
3363.73036,0.42535
3361.80162,0.42432
3359.87287,0.42322
3357.94413,0.42137
3356.01539,0.41923
3354.08664,0.41744
3352.15790,0.41570
3350.22915,0.41360
3348.30041,0.41128
3346.37166,0.40902
3344.44292,0.40687
3342.51417,0.40485
3340.58543,0.40309
3338.65668,0.40188
3336.72794,0.40138
3334.79920,0.40151
3332.87045,0.40228
3330.94171,0.40375
3329.01296,0.40574
3327.08422,0.40793
3325.15547,0.40995
3323.22673,0.41140
3321.29798,0.41246
3319.36924,0.41340
3317.44050,0.41406
3315.51175,0.41418
3313.58301,0.41382
3311.65426,0.41349
3309.72552,0.41339
3307.79677,0.41306
3305.86803,0.41238
3303.93928,0.41175
3302.01054,0.41130
3300.08180,0.41117
3298.15305,0.41171
3296.22431,0.41265
3294.29556,0.41351
3292.36682,0.41459
3290.43807,0.41604
3288.50933,0.41734
3286.58058,0.41836
3284.65184,0.41934
3282.72310,0.42034
3280.79435,0.42116
3278.86561,0.42180
3276.93686,0.42262
3275.00812,0.42369
3273.07937,0.42468
3271.15063,0.42543
3269.22188,0.42610
3267.29314,0.42689
3265.36439,0.42764
3263.43565,0.42814
3261.50691,0.42854
3259.57816,0.42900
3257.64942,0.42962
3255.72067,0.43022
3253.79193,0.43041
3251.86318,0.43035
3249.93444,0.43059
3248.00569,0.43108
3246.07695,0.43138
3244.14821,0.43153
3242.21946,0.43173
3240.29072,0.43179
3238.36197,0.43161
3236.43323,0.43156
3234.50448,0.43198
3232.57574,0.43263
3230.64699,0.43317
3228.71825,0.43390
3226.78951,0.43509
3224.86076,0.43638
3222.93202,0.43741
3221.00327,0.43834
3219.07453,0.43930
3217.14578,0.44023
3215.21704,0.44128
3213.28829,0.44221
3211.35955,0.44276
3209.43081,0.44307
3207.50206,0.44329
3205.57332,0.44362
3203.64457,0.44404
3201.71583,0.44400
3199.78708,0.44346
3197.85834,0.44300
3195.92959,0.44296
3194.00085,0.44306
3192.07210,0.44316
3190.14336,0.44357
3188.21462,0.44408
3186.28587,0.44439
3184.35713,0.44469
3182.42838,0.44503
3180.49964,0.44538
3178.57089,0.44574
3176.64215,0.44609
3174.71340,0.44647
3172.78466,0.44680
3170.85592,0.44691
3168.92717,0.44675
3166.99843,0.44649
3165.06968,0.44622
3163.14094,0.44601
3161.21219,0.44611
3159.28345,0.44629
3157.35470,0.44596
3155.42596,0.44520
3153.49722,0.44458
3151.56847,0.44408
3149.63973,0.44345
3147.71098,0.44259
3145.78224,0.44141
3143.85349,0.43999
3141.92475,0.43857
3139.99600,0.43699
3138.06726,0.43487
3136.13852,0.43238
3134.20977,0.42986
3132.28103,0.42742
3130.35228,0.42542
3128.42354,0.42430
3126.49479,0.42411
3124.56605,0.42476
3122.63730,0.42567
3120.70856,0.42592
3118.77981,0.42518
3116.85107,0.42345
3114.92233,0.42073
3112.99358,0.41716
3111.06484,0.41281
3109.13609,0.40796
3107.20735,0.40344
3105.27860,0.40000
3103.34986,0.39799
3101.42111,0.39787
3099.49237,0.39987
3097.56363,0.40314
3095.63488,0.40606
3093.70614,0.40737
3091.77739,0.40662
3089.84865,0.40384
3087.91990,0.39963
3085.99116,0.39499
3084.06241,0.39076
3082.13367,0.38760
3080.20493,0.38591
3078.27618,0.38529
3076.34744,0.38499
3074.41869,0.38432
3072.48995,0.38291
3070.56120,0.38129
3068.63246,0.38042
3066.70371,0.38053
3064.77497,0.38093
3062.84623,0.38044
3060.91748,0.37798
3058.98874,0.37353
3057.05999,0.36878
3055.13125,0.36650
3053.20250,0.36887
3051.27376,0.37618
3049.34501,0.38679
3047.41627,0.39831
3045.48752,0.40866
3043.55878,0.41637
3041.63004,0.42086
3039.70129,0.42264
3037.77255,0.42284
3035.84380,0.42197
3033.91506,0.41991
3031.98631,0.41678
3030.05757,0.41264
3028.12882,0.40728
3026.20008,0.40068
3024.27134,0.39277
3022.34259,0.38314
3020.41385,0.37185
3018.48510,0.35996
3016.55636,0.34934
3014.62761,0.34189
3012.69887,0.33808
3010.77012,0.33660
3008.84138,0.33596
3006.91264,0.33543
3004.98389,0.33444
3003.05515,0.33265
3001.12640,0.33036
2999.19766,0.32799
2997.26891,0.32544
2995.34017,0.32237
2993.41142,0.31866
2991.48268,0.31418
2989.55394,0.30846
2987.62519,0.30124
2985.69645,0.29293
2983.76770,0.28402
2981.83896,0.27453
2979.91021,0.26427
2977.98147,0.25342
2976.05272,0.24259
2974.12398,0.23273
2972.19523,0.22529
2970.26649,0.22194
2968.33775,0.22299
2966.40900,0.22679
2964.48026,0.23138
2962.55151,0.23588
2960.62277,0.24042
2958.69402,0.24539
2956.76528,0.25101
2954.83653,0.25750
2952.90779,0.26498
2950.97905,0.27317
2949.05030,0.28171
2947.12156,0.29040
2945.19281,0.29897
2943.26407,0.30693
2941.33532,0.31366
2939.40658,0.31879
2937.47783,0.32237
2935.54909,0.32450
2933.62035,0.32522
2931.69160,0.32470
2929.76286,0.32310
2927.83411,0.32046
2925.90537,0.31691
2923.97662,0.31276
2922.04788,0.30826
2920.11913,0.30321
2918.19039,0.29739
2916.26165,0.29074
2914.33290,0.28316
2912.40416,0.27504
2910.47541,0.26804
2908.54667,0.26474
2906.61792,0.26722
2904.68918,0.27545
2902.76043,0.28691
2900.83169,0.29833
2898.90294,0.30784
2896.97420,0.31487
2895.04546,0.31946
2893.11671,0.32221
2891.18797,0.32405
2889.25922,0.32586
2887.33048,0.32832
2885.40173,0.33165
2883.47299,0.33551
2881.54424,0.33927
2879.61550,0.34247
2877.68676,0.34501
2875.75801,0.34706
2873.82927,0.34874
2871.90052,0.35022
2869.97178,0.35190
2868.04303,0.35381
2866.11429,0.35552
2864.18554,0.35679
2862.25680,0.35760
2860.32806,0.35800
2858.39931,0.35839
2856.47057,0.35912
2854.54182,0.36072
2852.61308,0.36422
2850.68433,0.37046
2848.75559,0.37951
2846.82684,0.39072
2844.89810,0.40255
2842.96936,0.41337
2841.04061,0.42254
2839.11187,0.43020
2837.18312,0.43668
2835.25438,0.44242
2833.32563,0.44773
2831.39689,0.45256
2829.46814,0.45684
2827.53940,0.46070
2825.61065,0.46417
2823.68191,0.46681
2821.75317,0.46822
2819.82442,0.46866
2817.89568,0.46849
2815.96693,0.46791
2814.03819,0.46739
2812.10944,0.46720
2810.18070,0.46691
2808.25195,0.46644
2806.32321,0.46648
2804.39447,0.46753
2802.46572,0.46950
2800.53698,0.47221
2798.60823,0.47558
2796.67949,0.47934
2794.75074,0.48312
2792.82200,0.48674
2790.89325,0.48998
2788.96451,0.49267
2787.03577,0.49495
2785.10702,0.49719
2783.17828,0.49957
2781.24953,0.50183
2779.32079,0.50377
2777.39204,0.50545
2775.46330,0.50692
2773.53455,0.50833
2771.60581,0.50979
2769.67707,0.51111
2767.74832,0.51225
2765.81958,0.51317
2763.89083,0.51366
2761.96209,0.51367
2760.03334,0.51354
2758.10460,0.51359
2756.17585,0.51376
2754.24711,0.51380
2752.31836,0.51365
2750.38962,0.51334
2748.46088,0.51302
2746.53213,0.51285
2744.60339,0.51307
2742.67464,0.51409
2740.74590,0.51614
2738.81715,0.51883
2736.88841,0.52174
2734.95966,0.52470
2733.03092,0.52743
2731.10218,0.52978
2729.17343,0.53190
2727.24469,0.53394
2725.31594,0.53585
2723.38720,0.53765
2721.45845,0.53943
2719.52971,0.54103
2717.60096,0.54227
2715.67222,0.54339
2713.74348,0.54466
2711.81473,0.54617
2709.88599,0.54801
2707.95724,0.55002
2706.02850,0.55188
2704.09975,0.55342
2702.17101,0.55468
2700.24226,0.55591
2698.31352,0.55732
2696.38477,0.55860
2694.45603,0.55932
2692.52729,0.55970
2690.59854,0.56019
2688.66980,0.56068
2686.74105,0.56092
2684.81231,0.56106
2682.88356,0.56125
2680.95482,0.56147
2679.02607,0.56172
2677.09733,0.56214
2675.16859,0.56290
2673.23984,0.56387
2671.31110,0.56473
2669.38235,0.56532
2667.45361,0.56548
2665.52486,0.56534
2663.59612,0.56495
2661.66737,0.56415
2659.73863,0.56327
2657.80989,0.56257
2655.88114,0.56174
2653.95240,0.56065
2652.02365,0.55956
2650.09491,0.55834
2648.16616,0.55663
2646.23742,0.55432
2644.30867,0.55143
2642.37993,0.54804
2640.45119,0.54419
2638.52244,0.54007
2636.59370,0.53629
2634.66495,0.53344
2632.73621,0.53155
2630.80746,0.53061
2628.87872,0.53076
2626.94997,0.53168
2625.02123,0.53270
2623.09248,0.53359
2621.16374,0.53436
2619.23500,0.53490
2617.30625,0.53512
2615.37751,0.53514
2613.44876,0.53496
2611.52002,0.53453
2609.59127,0.53397
2607.66253,0.53345
2605.73378,0.53296
2603.80504,0.53218
2601.87630,0.53094
2599.94755,0.52929
2598.01881,0.52737
2596.09006,0.52527
2594.16132,0.52312
2592.23257,0.52112
2590.30383,0.51920
2588.37508,0.51739
2586.44634,0.51610
2584.51760,0.51541
2582.58885,0.51508
2580.66011,0.51514
2578.73136,0.51544
2576.80262,0.51583
2574.87387,0.51632
2572.94513,0.51669
2571.01638,0.51675
2569.08764,0.51655
2567.15890,0.51614
2565.23015,0.51563
2563.30141,0.51513
2561.37266,0.51460
2559.44392,0.51398
2557.51517,0.51342
2555.58643,0.51308
2553.65768,0.51290
2551.72894,0.51260
2549.80019,0.51210
2547.87145,0.51163
2545.94271,0.51119
2544.01396,0.51077
2542.08522,0.51041
2540.15647,0.51009
2538.22773,0.50983
2536.29898,0.50982
2534.37024,0.51021
2532.44149,0.51088
2530.51275,0.51169
2528.58401,0.51273
2526.65526,0.51415
2524.72652,0.51586
2522.79777,0.51772
2520.86903,0.51968
2518.94028,0.52159
2517.01154,0.52317
2515.08279,0.52429
2513.15405,0.52505
2511.22531,0.52569
2509.29656,0.52641
2507.36782,0.52711
2505.43907,0.52756
2503.51033,0.52766
2501.58158,0.52767
2499.65284,0.52814
2497.72409,0.52923
2495.79535,0.53070
2493.86661,0.53245
2491.93786,0.53445
2490.00912,0.53663
2488.08037,0.53898
2486.15163,0.54137
2484.22288,0.54371
2482.29414,0.54620
2480.36539,0.54884
2478.43665,0.55136
2476.50790,0.55362
2474.57916,0.55558
2472.65042,0.55716
2470.72167,0.55828
2468.79293,0.55903
2466.86418,0.55962
2464.93544,0.56007
2463.00669,0.56025
2461.07795,0.56024
2459.14920,0.56016
2457.22046,0.55998
2455.29172,0.55969
2453.36297,0.55922
2451.43423,0.55853
2449.50548,0.55778
2447.57674,0.55682
2445.64799,0.55533
2443.71925,0.55333
2441.79050,0.55095
2439.86176,0.54820
2437.93302,0.54512
2436.00427,0.54192
2434.07553,0.53884
2432.14678,0.53579
2430.21804,0.53254
2428.28929,0.52926
2426.36055,0.52605
2424.43180,0.52270
2422.50306,0.51927
2420.57432,0.51592
2418.64557,0.51268
2416.71683,0.50957
2414.78808,0.50670
2412.85934,0.50396
2410.93059,0.50116
2409.00185,0.49842
2407.07310,0.49596
2405.14436,0.49367
2403.21561,0.49138
2401.28687,0.48931
2399.35813,0.48762
2397.42938,0.48611
2395.50064,0.48473
2393.57189,0.48362
2391.64315,0.48282
2389.71440,0.48243
2387.78566,0.48260
2385.85691,0.48322
2383.92817,0.48406
2381.99943,0.48506
2380.07068,0.48624
2378.14194,0.48754
2376.21319,0.48891
2374.28445,0.49049
2372.35570,0.49241
2370.42696,0.49470
2368.49821,0.49747
2366.56947,0.50084
2364.64073,0.50471
2362.71198,0.50896
2360.78324,0.51334
2358.85449,0.51755
2356.92575,0.52149
2354.99700,0.52510
2353.06826,0.52826
2351.13951,0.53096
2349.21077,0.53349
2347.28203,0.53590
2345.35328,0.53800
2343.42454,0.53966
2341.49579,0.54063
2339.56705,0.54071
2337.63830,0.54046
2335.70956,0.54068
2333.78081,0.54166
2331.85207,0.54313
2329.92332,0.54455
2327.99458,0.54571
2326.06584,0.54687
2324.13709,0.54827
2322.20835,0.54987
2320.27960,0.55137
2318.35086,0.55243
2316.42211,0.55296
2314.49337,0.55292
2312.56462,0.55212
2310.63588,0.55054
2308.70714,0.54823
2306.77839,0.54511
2304.84965,0.54120
2302.92090,0.53661
2300.99216,0.53145
2299.06341,0.52600
2297.13467,0.52050
2295.20592,0.51520
2293.27718,0.51032
2291.34844,0.50594
2289.41969,0.50225
2287.49095,0.49958
2285.56220,0.49810
2283.63346,0.49766
2281.70471,0.49798
2279.77597,0.49870
2277.84722,0.49927
2275.91848,0.49918
2273.98974,0.49842
2272.06099,0.49726
2270.13225,0.49595
2268.20350,0.49462
2266.27476,0.49344
2264.34601,0.49248
2262.41727,0.49166
2260.48852,0.49108
2258.55978,0.49098
2256.63103,0.49140
2254.70229,0.49217
2252.77355,0.49337
2250.84480,0.49530
2248.91606,0.49783
2246.98731,0.50034
2245.05857,0.50275
2243.12982,0.50536
2241.20108,0.50801
2239.27233,0.51025
2237.34359,0.51206
2235.41485,0.51376
2233.48610,0.51545
2231.55736,0.51690
2229.62861,0.51802
2227.69987,0.51898
2225.77112,0.51980
2223.84238,0.52051
2221.91363,0.52121
2219.98489,0.52193
2218.05615,0.52256
2216.12740,0.52301
2214.19866,0.52333
2212.26991,0.52377
2210.34117,0.52470
2208.41242,0.52643
2206.48368,0.52888
2204.55493,0.53155
2202.62619,0.53395
2200.69745,0.53586
2198.76870,0.53710
2196.83996,0.53761
2194.91121,0.53773
2192.98247,0.53760
2191.05372,0.53708
2189.12498,0.53617
2187.19623,0.53487
2185.26749,0.53316
2183.33874,0.53104
2181.41000,0.52856
2179.48126,0.52577
2177.55251,0.52267
2175.62377,0.51935
2173.69502,0.51587
2171.76628,0.51212
2169.83753,0.50817
2167.90879,0.50400
2165.98004,0.49940
2164.05130,0.49450
2162.12256,0.48946
2160.19381,0.48424
2158.26507,0.47905
2156.33632,0.47422
2154.40758,0.46967
2152.47883,0.46530
2150.55009,0.46127
2148.62134,0.45766
2146.69260,0.45436
2144.76386,0.45142
2142.83511,0.44887
2140.90637,0.44659
2138.97762,0.44442
2137.04888,0.44218
2135.12013,0.43968
2133.19139,0.43681
2131.26264,0.43359
2129.33390,0.42988
2127.40516,0.42578
2125.47641,0.42169
2123.54767,0.41792
2121.61892,0.41457
2119.69018,0.41169
2117.76143,0.40930
2115.83269,0.40742
2113.90394,0.40605
2111.97520,0.40530
2110.04645,0.40527
2108.11771,0.40570
2106.18897,0.40627
2104.26022,0.40695
2102.33148,0.40771
2100.40273,0.40853
2098.47399,0.40949
2096.54524,0.41063
2094.61650,0.41194
2092.68775,0.41344
2090.75901,0.41519
2088.83027,0.41748
2086.90152,0.42053
2084.97278,0.42427
2083.04403,0.42834
2081.11529,0.43240
2079.18654,0.43643
2077.25780,0.44057
2075.32905,0.44483
2073.40031,0.44920
2071.47157,0.45369
2069.54282,0.45828
2067.61408,0.46307
2065.68533,0.46812
2063.75659,0.47330
2061.82784,0.47854
2059.89910,0.48378
2057.97035,0.48882
2056.04161,0.49349
2054.11287,0.49766
2052.18412,0.50116
2050.25538,0.50391
2048.32663,0.50609
2046.39789,0.50783
2044.46914,0.50907
2042.54040,0.50987
2040.61165,0.51031
2038.68291,0.51027
2036.75416,0.50968
2034.82542,0.50861
2032.89668,0.50701
2030.96793,0.50465
2029.03919,0.50154
2027.11044,0.49811
2025.18170,0.49436
2023.25295,0.49006
2021.32421,0.48553
2019.39546,0.48128
2017.46672,0.47728
2015.53798,0.47345
2013.60923,0.46985
2011.68049,0.46619
2009.75174,0.46224
2007.82300,0.45816
2005.89425,0.45409
2003.96551,0.44988
2002.03676,0.44544
2000.10802,0.44091
1998.17928,0.43633
1996.25053,0.43172
1994.32179,0.42711
1992.39304,0.42257
1990.46430,0.41826
1988.53555,0.41423
1986.60681,0.41023
1984.67806,0.40597
1982.74932,0.40147
1980.82058,0.39684
1978.89183,0.39197
1976.96309,0.38663
1975.03434,0.38070
1973.10560,0.37395
1971.17685,0.36611
1969.24811,0.35711
1967.31936,0.34706
1965.39062,0.33662
1963.46187,0.32757
1961.53313,0.32202
1959.60439,0.32092
1957.67564,0.32353
1955.74690,0.32832
1953.81815,0.33394
1951.88941,0.33971
1949.96066,0.34549
1948.03192,0.35134
1946.10317,0.35737
1944.17443,0.36375
1942.24569,0.37046
1940.31694,0.37713
1938.38820,0.38359
1936.45945,0.38987
1934.53071,0.39574
1932.60196,0.40106
1930.67322,0.40605
1928.74447,0.41084
1926.81573,0.41520
1924.88699,0.41898
1922.95824,0.42249
1921.02950,0.42597
1919.10075,0.42940
1917.17201,0.43268
1915.24326,0.43565
1913.31452,0.43837
1911.38577,0.44086
1909.45703,0.44309
1907.52829,0.44517
1905.59954,0.44710
1903.67080,0.44882
1901.74205,0.45028
1899.81331,0.45141
1897.88456,0.45228
1895.95582,0.45304
1894.02707,0.45356
1892.09833,0.45371
1890.16958,0.45364
1888.24084,0.45347
1886.31210,0.45321
1884.38335,0.45280
1882.45461,0.45206
1880.52586,0.45089
1878.59712,0.44928
1876.66837,0.44726
1874.73963,0.44465
1872.81088,0.44136
1870.88214,0.43760
1868.95340,0.43348
1867.02465,0.42908
1865.09591,0.42454
1863.16716,0.41968
1861.23842,0.41433
1859.30967,0.40842
1857.38093,0.40171
1855.45218,0.39418
1853.52344,0.38601
1851.59470,0.37732
1849.66595,0.36850
1847.73721,0.36000
1845.80846,0.35183
1843.87972,0.34383
1841.95097,0.33646
1840.02223,0.32997
1838.09348,0.32392
1836.16474,0.31814
1834.23600,0.31280
1832.30725,0.30812
1830.37851,0.30414
1828.44976,0.30081
1826.52102,0.29822
1824.59227,0.29656
1822.66353,0.29579
1820.73478,0.29541
1818.80604,0.29487
1816.87729,0.29402
1814.94855,0.29302
1813.01981,0.29193
1811.09106,0.29058
1809.16232,0.28909
1807.23357,0.28775
1805.30483,0.28665
1803.37608,0.28576
1801.44734,0.28474
1799.51859,0.28322
1797.58985,0.28130
1795.66111,0.27930
1793.73236,0.27696
1791.80362,0.27396
1789.87487,0.27062
1787.94613,0.26716
1786.01738,0.26332
1784.08864,0.25898
1782.15989,0.25436
1780.23115,0.24936
1778.30241,0.24392
1776.37366,0.23827
1774.44492,0.23213
1772.51617,0.22498
1770.58743,0.21721
1768.65868,0.20908
1766.72994,0.20034
1764.80119,0.19126
1762.87245,0.18149
1760.94370,0.17043
1759.01496,0.15841
1757.08622,0.14511
1755.15747,0.13065
1753.22873,0.11553
1751.29998,0.09919
1749.37124,0.08221
1747.44249,0.06648
1745.51375,0.05334
1743.58500,0.04358
1741.65626,0.03729
1739.72752,0.03391
1737.79877,0.03256
1735.87003,0.03238
1733.94128,0.03309
1732.01254,0.03449
1730.08379,0.03603
1728.15505,0.03750
1726.22630,0.03892
1724.29756,0.04053
1722.36882,0.04234
1720.44007,0.04430
1718.51133,0.04704
1716.58258,0.05175
1714.65384,0.05925
1712.72509,0.06937
1710.79635,0.08125
1708.86760,0.09357
1706.93886,0.10588
1705.01012,0.11798
1703.08137,0.12910
1701.15263,0.13972
1699.22388,0.14952
1697.29514,0.15727
1695.36639,0.16384
1693.43765,0.16933
1691.50890,0.17313
1689.58016,0.17525
1687.65141,0.17561
1685.72267,0.17485
1683.79393,0.17499
1681.86518,0.17840
1679.93644,0.18479
1678.00769,0.19203
1676.07895,0.19858
1674.15020,0.20411
1672.22146,0.20901
1670.29271,0.21443
1668.36397,0.22098
1666.43523,0.22805
1664.50648,0.23514
1662.57774,0.24177
1660.64899,0.24709
1658.72025,0.25116
1656.79150,0.25447
1654.86276,0.25752
1652.93401,0.26070
1651.00527,0.26321
1649.07653,0.26500
1647.14778,0.26701
1645.21904,0.26939
1643.29029,0.27175
1641.36155,0.27412
1639.43280,0.27653
1637.50406,0.27876
1635.57531,0.28060
1633.64657,0.28182
1631.71783,0.28265
1629.78908,0.28339
1627.86034,0.28398
1625.93159,0.28421
1624.00285,0.28350
1622.07410,0.28102
1620.14536,0.27658
1618.21661,0.27019
1616.28787,0.26299
1614.35912,0.25876
1612.43038,0.25949
1610.50164,0.26403
1608.57289,0.27023
1606.64415,0.27634
1604.71540,0.28178
1602.78666,0.28662
1600.85791,0.29088
1598.92917,0.29405
1597.00042,0.29528
1595.07168,0.29410
1593.14294,0.29074
1591.21419,0.28558
1589.28545,0.27857
1587.35670,0.26904
1585.42796,0.25571
1583.49921,0.23854
1581.57047,0.22142
1579.64172,0.21067
1577.71298,0.21066
1575.78424,0.22169
1573.85549,0.23759
1571.92675,0.25262
1569.99800,0.26598
1568.06926,0.27627
1566.14051,0.28279
1564.21177,0.28663
1562.28302,0.28874
1560.35428,0.28984
1558.42554,0.29017
1556.49679,0.28976
1554.56805,0.28903
1552.63930,0.28811
1550.71056,0.28685
1548.78181,0.28507
1546.85307,0.28291
1544.92432,0.28110
1542.99558,0.28058
1541.06683,0.28138
1539.13809,0.28225
1537.20935,0.28197
1535.28060,0.28026
1533.35186,0.27693
1531.42311,0.27235
1529.49437,0.26736
1527.56562,0.26260
1525.63688,0.25899
1523.70813,0.25727
1521.77939,0.25695
1519.85065,0.25618
1517.92190,0.25286
1515.99316,0.24556
1514.06441,0.23262
1512.13567,0.21182
1510.20692,0.18319
1508.27818,0.15164
1506.34943,0.13084
1504.42069,0.13656
1502.49195,0.16319
1500.56320,0.19770
1498.63446,0.23051
1496.70571,0.25512
1494.77697,0.26901
1492.84822,0.27356
1490.91948,0.27151
1488.99073,0.26462
1487.06199,0.25468
1485.13325,0.24315
1483.20450,0.23068
1481.27576,0.21727
1479.34701,0.20302
1477.41827,0.18788
1475.48952,0.17215
1473.56078,0.15812
1471.63203,0.15118
1469.70329,0.15376
1467.77454,0.16029
1465.84580,0.16444
1463.91706,0.16415
1461.98831,0.16107
1460.05957,0.15722
1458.13082,0.15325
1456.20208,0.14999
1454.27333,0.14876
1452.34459,0.14931
1450.41584,0.15077
1448.48710,0.15261
1446.55836,0.15437
1444.62961,0.15573
1442.70087,0.15682
1440.77212,0.15793
1438.84338,0.15963
1436.91463,0.16239
1434.98589,0.16574
1433.05714,0.16879
1431.12840,0.17079
1429.19966,0.17062
1427.27091,0.16736
1425.34217,0.16038
1423.41342,0.14936
1421.48468,0.13451
1419.55593,0.11532
1417.62719,0.09388
1415.69844,0.07544
1413.76970,0.06289
1411.84096,0.05741
1409.91221,0.05889
1407.98347,0.06592
1406.05472,0.07672
1404.12598,0.08899
1402.19723,0.10018
1400.26849,0.10903
1398.33974,0.11522
1396.41100,0.11856
1394.48225,0.11911
1392.55351,0.11724
1390.62477,0.11388
1388.69602,0.11004
1386.76728,0.10688
1384.83853,0.10560
1382.90979,0.10595
1380.98104,0.10643
1379.05230,0.10606
1377.12355,0.10471
1375.19481,0.10232
1373.26607,0.09927
1371.33732,0.09681
1369.40858,0.09609
1367.47983,0.09725
1365.55109,0.09946
1363.62234,0.10122
1361.69360,0.10105
1359.76485,0.09836
1357.83611,0.09342
1355.90737,0.08671
1353.97862,0.07905
1352.04988,0.07152
1350.12113,0.06496
1348.19239,0.06006
1346.26364,0.05714
1344.33490,0.05597
1342.40615,0.05609
1340.47741,0.05806
1338.54867,0.06361
1336.61992,0.07369
1334.69118,0.08659
1332.76243,0.09878
1330.83369,0.10688
1328.90494,0.10919
1326.97620,0.10624
1325.04745,0.09978
1323.11871,0.09166
1321.18996,0.08325
1319.26122,0.07526
1317.33248,0.06795
1315.40373,0.06139
1313.47499,0.05561
1311.54624,0.05069
1309.61750,0.04669
1307.68875,0.04336
1305.76001,0.04056
1303.83126,0.03840
1301.90252,0.03695
1299.97378,0.03614
1298.04503,0.03592
1296.11629,0.03623
1294.18754,0.03704
1292.25880,0.03827
1290.33005,0.03977
1288.40131,0.04157
1286.47256,0.04384
1284.54382,0.04649
1282.61508,0.04914
1280.68633,0.05153
1278.75759,0.05375
1276.82884,0.05596
1274.90010,0.05799
1272.97135,0.05955
1271.04261,0.06081
1269.11386,0.06188
1267.18512,0.06266
1265.25638,0.06329
1263.32763,0.06392
1261.39889,0.06446
1259.47014,0.06488
1257.54140,0.06515
1255.61265,0.06519
1253.68391,0.06503
1251.75516,0.06462
1249.82642,0.06384
1247.89767,0.06255
1245.96893,0.06072
1244.04019,0.05893
1242.11144,0.05818
1240.18270,0.05943
1238.25395,0.06368
1236.32521,0.07153
1234.39646,0.08289
1232.46772,0.09685
1230.53897,0.11156
1228.61023,0.12496
1226.68149,0.13621
1224.75274,0.14630
1222.82400,0.15688
1220.89525,0.16869
1218.96651,0.18081
1217.03776,0.19130
1215.10902,0.19921
1213.18027,0.20544
1211.25153,0.21127
1209.32279,0.21739
1207.39404,0.22429
1205.46530,0.23202
1203.53655,0.23985
1201.60781,0.24709
1199.67906,0.25355
1197.75032,0.25897
1195.82157,0.26282
1193.89283,0.26438
1191.96409,0.26311
1190.03534,0.25901
1188.10660,0.25258
1186.17785,0.24420
1184.24911,0.23398
1182.32036,0.22246
1180.39162,0.21073
1178.46287,0.19976
1176.53413,0.19040
1174.60538,0.18342
1172.67664,0.17893
1170.74790,0.17589
1168.81915,0.17236
1166.89041,0.16658
1164.96166,0.15821
1163.03292,0.14816
1161.10417,0.13733
1159.17543,0.12608
1157.24668,0.11468
1155.31794,0.10346
1153.38920,0.09263
1151.46045,0.08238
1149.53171,0.07296
1147.60296,0.06455
1145.67422,0.05738
1143.74547,0.05188
1141.81673,0.04855
1139.88798,0.04739
1137.95924,0.04783
1136.03050,0.04941
1134.10175,0.05177
1132.17301,0.05427
1130.24426,0.05620
1128.31552,0.05737
1126.38677,0.05784
1124.45803,0.05783
1122.52928,0.05780
1120.60054,0.05811
1118.67180,0.05895
1116.74305,0.05997
1114.81431,0.06029
1112.88556,0.06005
1110.95682,0.06021
1109.02807,0.06073
1107.09933,0.06109
1105.17058,0.06156
1103.24184,0.06263
1101.31309,0.06459
1099.38435,0.06777
1097.45561,0.07228
1095.52686,0.07804
1093.59812,0.08514
1091.66937,0.09369
1089.74063,0.10332
1087.81188,0.11379
1085.88314,0.12563
1083.95439,0.13965
1082.02565,0.15632
1080.09691,0.17515
1078.16816,0.19439
1076.23942,0.21211
1074.31067,0.22741
1072.38193,0.24007
1070.45318,0.25003
1068.52444,0.25760
1066.59569,0.26320
1064.66695,0.26694
1062.73821,0.26881
1060.80946,0.26868
1058.88072,0.26618
1056.95197,0.26123
1055.02323,0.25428
1053.09448,0.24600
1051.16574,0.23745
1049.23699,0.22945
1047.30825,0.22233
1045.37951,0.21667
1043.45076,0.21273
1041.52202,0.21014
1039.59327,0.20830
1037.66453,0.20601
1035.73578,0.20149
1033.80704,0.19293
1031.87829,0.17829
1029.94955,0.15554
1028.02080,0.12617
1026.09206,0.09925
1024.16332,0.08549
1022.23457,0.08603
1020.30583,0.09516
1018.37708,0.11215
1016.44834,0.14118
1014.51959,0.18138
1012.59085,0.22366
1010.66210,0.25875
1008.73336,0.28378
1006.80462,0.30037
1004.87587,0.31068
1002.94713,0.31643
1001.01838,0.31914
999.08964,0.31984
997.16089,0.31848
995.23215,0.31409
993.30340,0.30575
991.37466,0.29466
989.44592,0.28500
987.51717,0.27920
985.58843,0.27391
983.65968,0.26415
981.73094,0.24889
979.80219,0.23029
977.87345,0.21109
975.94470,0.19414
974.01596,0.18313
972.08722,0.18151
970.15847,0.19015
968.22973,0.20672
966.30098,0.22726
964.37224,0.24841
962.44349,0.26842
960.51475,0.28670
958.58600,0.30278
956.65726,0.31628
954.72851,0.32721
952.79977,0.33591
950.87103,0.34285
948.94228,0.34827
947.01354,0.35231
945.08479,0.35533
943.15605,0.35755
941.22730,0.35889
939.29856,0.35955
937.36981,0.35997
935.44107,0.36003
933.51233,0.35954
931.58358,0.35888
929.65484,0.35833
927.72609,0.35774
925.79735,0.35683
923.86860,0.35518
921.93986,0.35238
920.01111,0.34826
918.08237,0.34298
916.15363,0.33643
914.22488,0.32813
912.29614,0.31807
910.36739,0.30686
908.43865,0.29521
906.50990,0.28376
904.58116,0.27330
902.65241,0.26495
900.72367,0.25940
898.79492,0.25672
896.86618,0.25652
894.93744,0.25745
893.00869,0.25780
891.07995,0.25662
889.15120,0.25349
887.22246,0.24798
885.29371,0.23982
883.36497,0.22910
881.43622,0.21640
879.50748,0.20265
877.57874,0.18835
875.64999,0.17485
873.72125,0.16811
871.79250,0.17559
869.86376,0.19507
867.93501,0.21485
866.00627,0.22666
864.07752,0.22994
862.14878,0.22691
860.22004,0.21954
858.29129,0.20950
856.36255,0.19880
854.43380,0.18902
852.50506,0.18082
850.57631,0.17529
848.64757,0.17469
846.71882,0.18065
844.79008,0.19216
842.86134,0.20613
840.93259,0.21964
839.00385,0.23128
837.07510,0.24105
835.14636,0.24974
833.21761,0.25797
831.28887,0.26538
829.36012,0.27128
827.43138,0.27552
825.50263,0.27817
823.57389,0.27949
821.64515,0.27994
819.71640,0.27953
817.78766,0.27822
815.85891,0.27659
813.93017,0.27498
812.00142,0.27295
810.07268,0.27006
808.14393,0.26671
806.21519,0.26345
804.28645,0.26040
802.35770,0.25718
800.42896,0.25243
798.50021,0.24365
796.57147,0.23046
794.64272,0.21934
792.71398,0.21859
790.78523,0.22830
788.85649,0.24184
786.92775,0.25420
784.99900,0.26391
783.07026,0.27090
781.14151,0.27568
779.21277,0.27895
777.28402,0.28129
775.35528,0.28328
773.42653,0.28544
771.49779,0.28760
769.56905,0.28937
767.64030,0.29076
765.71156,0.29146
763.78281,0.29063
761.85407,0.28813
759.92532,0.28455
757.99658,0.27983
756.06783,0.27342
754.13909,0.26540
752.21034,0.25570
750.28160,0.24373
748.35286,0.22908
746.42411,0.21084
744.49537,0.18770
742.56662,0.15964
740.63788,0.12904
738.70913,0.10028
736.78039,0.07802
734.85164,0.06466
732.92290,0.05918
730.99416,0.05932
729.06541,0.06431
727.13667,0.07592
725.20792,0.09732
723.27918,0.12910
721.35043,0.16623
719.42169,0.20013
717.49294,0.22423
715.56420,0.23727
713.63546,0.24256
711.70671,0.24471
709.77797,0.24657
707.84922,0.24914
705.92048,0.25246
703.99173,0.25666
702.06299,0.26324
700.13424,0.27325
698.20550,0.28451
696.27676,0.29335
694.34801,0.29840
692.41927,0.30081
690.49052,0.30167
688.56178,0.30067
686.63303,0.29695
684.70429,0.29037
682.77554,0.28255
680.84680,0.27683
678.91805,0.27590
676.98931,0.27908
675.06057,0.28334
673.13182,0.28660
671.20308,0.28869
669.27433,0.29053
667.34559,0.29260
665.41684,0.29418
663.48810,0.29462
661.55935,0.29375
659.63061,0.29171
657.70187,0.28959
655.77312,0.28921
653.84438,0.29160
651.91563,0.29535
649.98689,0.29814
648.05814,0.29946
646.12940,0.29969
644.20065,0.29909
642.27191,0.29807
640.34317,0.29637
638.41442,0.29267
636.48568,0.28381
634.55693,0.26791
632.62819,0.25440
630.69944,0.25704
628.77070,0.27166
626.84195,0.28359
624.91321,0.28862
622.98447,0.29003
621.05572,0.28987
619.12698,0.28929
617.19823,0.28836
615.26949,0.28713
613.34074,0.28695
611.41200,0.28772
609.48325,0.28733
607.55451,0.28601
605.62576,0.28603
603.69702,0.28618
601.76828,0.28426
599.83953,0.28205
