7497.03301,0.78369
7495.10426,0.78431
7493.17552,0.78318
7491.24677,0.78258
7489.31803,0.78405
7487.38928,0.78495
7485.46054,0.78212
7483.53179,0.77687
7481.60305,0.77220
7479.67430,0.77242
7477.74556,0.77600
7475.81681,0.77528
7473.88807,0.77248
7471.95932,0.77283
7470.03057,0.77227
7468.10183,0.76925
7466.17308,0.76721
7464.24434,0.76679
7462.31559,0.76598
7460.38685,0.76295
7458.45810,0.76047
7456.52936,0.76108
7454.60061,0.76016
7452.67187,0.75557
7450.74312,0.75191
7448.81438,0.74984
7446.88563,0.74784
7444.95689,0.74772
7443.02814,0.74856
7441.09940,0.74836
7439.17065,0.74838
7437.24190,0.74838
7435.31316,0.74597
7433.38441,0.74209
7431.45567,0.74216
7429.52692,0.74810
7427.59818,0.75330
7425.66943,0.75125
7423.74069,0.74325
7421.81194,0.73507
7419.88320,0.73312
7417.95445,0.73762
7416.02571,0.73961
7414.09696,0.73294
7412.16822,0.72300
7410.23947,0.71944
7408.31073,0.72158
7406.38198,0.72120
7404.45323,0.71779
7402.52449,0.71399
7400.59574,0.71102
7398.66700,0.71195
7396.73825,0.71493
7394.80951,0.71513
7392.88076,0.71408
7390.95202,0.71459
7389.02327,0.71257
7387.09453,0.70816
7385.16578,0.70860
7383.23704,0.71082
7381.30829,0.70817
7379.37955,0.70474
7377.45080,0.70317
7375.52205,0.70033
7373.59331,0.69749
7371.66456,0.69712
7369.73582,0.69657
7367.80707,0.69542
7365.87833,0.69722
7363.94958,0.69914
7362.02084,0.69549
7360.09209,0.68981
7358.16335,0.68910
7356.23460,0.69284
7354.30586,0.69624
7352.37711,0.69687
7350.44837,0.69708
7348.51962,0.69802
7346.59088,0.69566
7344.66213,0.68966
7342.73338,0.68410
7340.80464,0.68000
7338.87589,0.67767
7336.94715,0.67789
7335.01840,0.67948
7333.08966,0.68145
7331.16091,0.68306
7329.23217,0.68115
7327.30342,0.67572
7325.37468,0.67380
7323.44593,0.67653
7321.51719,0.67691
7319.58844,0.67353
7317.65970,0.67076
7315.73095,0.67133
7313.80221,0.67302
7311.87346,0.67185
7309.94471,0.66862
7308.01597,0.66559
7306.08722,0.66531
7304.15848,0.66794
7302.22973,0.66856
7300.30099,0.66689
7298.37224,0.66371
7296.44350,0.65784
7294.51475,0.65338
7292.58601,0.65240
7290.65726,0.65256
7288.72852,0.65363
7286.79977,0.65636
7284.87103,0.65809
7282.94228,0.65619
7281.01353,0.65423
7279.08479,0.65470
7277.15604,0.65553
7275.22730,0.65643
7273.29855,0.65820
7271.36981,0.65871
7269.44106,0.65582
7267.51232,0.65307
7265.58357,0.65348
7263.65483,0.65470
7261.72608,0.65693
7259.79734,0.66028
7257.86859,0.65944
7255.93985,0.65359
7254.01110,0.64882
7252.08236,0.64797
7250.15361,0.64859
7248.22486,0.64741
7246.29612,0.64477
7244.36737,0.64293
7242.43863,0.64247
7240.50988,0.64428
7238.58114,0.64638
7236.65239,0.64507
7234.72365,0.64222
7232.79490,0.64134
7230.86616,0.64195
7228.93741,0.64220
7227.00867,0.64323
7225.07992,0.64471
7223.15118,0.64353
7221.22243,0.64152
7219.29369,0.64091
7217.36494,0.63921
7215.43619,0.63556
7213.50745,0.63152
7211.57870,0.62786
7209.64996,0.62688
7207.72121,0.62965
7205.79247,0.63193
7203.86372,0.63133
7201.93498,0.63110
7200.00623,0.63225
7198.07749,0.63198
7196.14874,0.63062
7194.22000,0.63028
7192.29125,0.62931
7190.36251,0.62398
7188.43376,0.61119
7186.50501,0.59630
7184.57627,0.59244
7182.64752,0.60184
7180.71878,0.61322
7178.79003,0.61872
7176.86129,0.61961
7174.93254,0.61897
7173.00380,0.61719
7171.07505,0.61423
7169.14631,0.61290
7167.21756,0.61412
7165.28882,0.61401
7163.36007,0.61249
7161.43133,0.61230
7159.50258,0.61138
7157.57384,0.60868
7155.64509,0.60628
7153.71634,0.60378
7151.78760,0.60230
7149.85885,0.60364
7147.93011,0.60351
7146.00136,0.59914
7144.07262,0.59367
7142.14387,0.58939
7140.21513,0.58770
7138.28638,0.58931
7136.35764,0.59277
7134.42889,0.59472
7132.50015,0.59172
7130.57140,0.58571
7128.64266,0.58223
7126.71391,0.58219
7124.78516,0.58198
7122.85642,0.57886
7120.92767,0.57370
7118.99893,0.56915
7117.07018,0.56579
7115.14144,0.56293
7113.21269,0.56111
7111.28395,0.56039
7109.35520,0.56106
7107.42646,0.56279
7105.49771,0.56161
7103.56897,0.55823
7101.64022,0.55916
7099.71148,0.56196
7097.78273,0.55895
7095.85399,0.55161
7093.92524,0.54532
7091.99649,0.54130
7090.06775,0.53844
7088.13900,0.53590
7086.21026,0.53422
7084.28151,0.53315
7082.35277,0.53080
7080.42402,0.52835
7078.49528,0.52812
7076.56653,0.52786
7074.63779,0.52554
7072.70904,0.52166
7070.78030,0.51733
7068.85155,0.51608
7066.92281,0.51637
7064.99406,0.51239
7063.06532,0.50623
7061.13657,0.50307
7059.20782,0.50476
7057.27908,0.50889
7055.35033,0.50856
7053.42159,0.50269
7051.49284,0.49751
7049.56410,0.49498
7047.63535,0.49298
7045.70661,0.49149
7043.77786,0.49177
7041.84912,0.49252
7039.92037,0.49105
7037.99163,0.48846
7036.06288,0.48594
7034.13414,0.48224
7032.20539,0.47940
7030.27664,0.47834
7028.34790,0.47506
7026.41915,0.46977
7024.49041,0.46769
7022.56166,0.47032
7020.63292,0.47427
7018.70417,0.47552
7016.77543,0.47265
7014.84668,0.46761
7012.91794,0.46387
7010.98919,0.46293
7009.06045,0.46335
7007.13170,0.46354
7005.20296,0.46263
7003.27421,0.46085
7001.34547,0.45923
6999.41672,0.45729
6997.48797,0.45538
6995.55923,0.45587
6993.63048,0.45840
6991.70174,0.45976
6989.77299,0.46000
6987.84425,0.46098
6985.91550,0.45994
6983.98676,0.45506
6982.05801,0.44962
6980.12927,0.44625
6978.20052,0.44508
6976.27178,0.44538
6974.34303,0.44729
6972.41429,0.44975
6970.48554,0.45107
6968.55680,0.45251
6966.62805,0.45319
6964.69930,0.45062
6962.77056,0.44755
6960.84181,0.44802
6958.91307,0.45009
6956.98432,0.44933
6955.05558,0.44601
6953.12683,0.44336
6951.19809,0.44310
6949.26934,0.44442
6947.34060,0.44597
6945.41185,0.44775
6943.48311,0.44920
6941.55436,0.44985
6939.62562,0.45052
6937.69687,0.45088
6935.76812,0.44989
6933.83938,0.44803
6931.91063,0.44651
6929.98189,0.44582
6928.05314,0.44659
6926.12440,0.44939
6924.19565,0.45238
6922.26691,0.45209
6920.33816,0.44856
6918.40942,0.44621
6916.48067,0.44675
6914.55193,0.44731
6912.62318,0.44686
6910.69444,0.44665
6908.76569,0.44663
6906.83695,0.44773
6904.90820,0.45061
6902.97945,0.45107
6901.05071,0.44652
6899.12196,0.44143
6897.19322,0.44052
6895.26447,0.44359
6893.33573,0.44731
6891.40698,0.44983
6889.47824,0.45208
6887.54949,0.45386
6885.62075,0.45340
6883.69200,0.45074
6881.76326,0.44775
6879.83451,0.44584
6877.90577,0.44696
6875.97702,0.45209
6874.04828,0.45616
6872.11953,0.45535
6870.19078,0.45328
6868.26204,0.45177
6866.33329,0.45040
6864.40455,0.45095
6862.47580,0.45300
6860.54706,0.45467
6858.61831,0.45552
6856.68957,0.45566
6854.76082,0.45531
6852.83208,0.45429
6850.90333,0.45345
6848.97459,0.45379
6847.04584,0.45462
6845.11710,0.45571
6843.18835,0.45757
6841.25960,0.45876
6839.33086,0.45718
6837.40211,0.45463
6835.47337,0.45415
6833.54462,0.45439
6831.61588,0.45392
6829.68713,0.45443
6827.75839,0.45524
6825.82964,0.45442
6823.90090,0.45403
6821.97215,0.45479
6820.04341,0.45479
6818.11466,0.45599
6816.18592,0.45902
6814.25717,0.45969
6812.32843,0.45773
6810.39968,0.45679
6808.47093,0.45787
6806.54219,0.45904
6804.61344,0.45880
6802.68470,0.45811
6800.75595,0.45764
6798.82721,0.45655
6796.89846,0.45571
6794.96972,0.45699
6793.04097,0.46000
6791.11223,0.46288
6789.18348,0.46430
6787.25474,0.46326
6785.32599,0.46118
6783.39725,0.46150
6781.46850,0.46330
6779.53975,0.46385
6777.61101,0.46500
6775.68226,0.46802
6773.75352,0.47041
6771.82477,0.47043
6769.89603,0.46880
6767.96728,0.46658
6766.03854,0.46519
6764.10979,0.46639
6762.18105,0.46850
6760.25230,0.46799
6758.32356,0.46666
6756.39481,0.46890
6754.46607,0.47327
6752.53732,0.47442
6750.60858,0.47257
6748.67983,0.47225
6746.75108,0.47328
6744.82234,0.47300
6742.89359,0.47159
6740.96485,0.47096
6739.03610,0.47258
6737.10736,0.47495
6735.17861,0.47604
6733.24987,0.47666
6731.32112,0.47748
6729.39238,0.47738
6727.46363,0.47558
6725.53489,0.47347
6723.60614,0.47377
6721.67740,0.47646
6719.74865,0.47839
6717.81991,0.47765
6715.89116,0.47578
6713.96241,0.47543
6712.03367,0.47733
6710.10492,0.48029
6708.17618,0.48228
6706.24743,0.48203
6704.31869,0.48145
6702.38994,0.48271
6700.46120,0.48479
6698.53245,0.48563
6696.60371,0.48496
6694.67496,0.48469
6692.74622,0.48556
6690.81747,0.48681
6688.88873,0.48831
6686.95998,0.48876
6685.03123,0.48762
6683.10249,0.48688
6681.17374,0.48759
6679.24500,0.48894
6677.31625,0.49042
6675.38751,0.49164
6673.45876,0.49113
6671.53002,0.48971
6669.60127,0.49034
6667.67253,0.49225
6665.74378,0.49218
6663.81504,0.49067
6661.88629,0.49149
6659.95755,0.49511
6658.02880,0.49845
6656.10006,0.49969
6654.17131,0.49894
6652.24256,0.49779
6650.31382,0.49814
6648.38507,0.50070
6646.45633,0.50389
6644.52758,0.50452
6642.59884,0.50337
6640.67009,0.50430
6638.74135,0.50718
6636.81260,0.50902
6634.88386,0.50836
6632.95511,0.50554
6631.02637,0.50208
6629.09762,0.50028
6627.16888,0.50100
6625.24013,0.50205
6623.31139,0.50267
6621.38264,0.50434
6619.45389,0.50527
6617.52515,0.50444
6615.59640,0.50520
6613.66766,0.50877
6611.73891,0.51212
6609.81017,0.51287
6607.88142,0.51202
6605.95268,0.51137
6604.02393,0.51156
6602.09519,0.51173
6600.16644,0.51135
6598.23770,0.51223
6596.30895,0.51427
6594.38021,0.51506
6592.45146,0.51463
6590.52271,0.51515
6588.59397,0.51793
6586.66522,0.52034
6584.73648,0.51958
6582.80773,0.51760
6580.87899,0.51662
6578.95024,0.51603
6577.02150,0.51560
6575.09275,0.51658
6573.16401,0.51851
6571.23526,0.51844
6569.30652,0.51664
6567.37777,0.51690
6565.44903,0.51883
6563.52028,0.52051
6561.59154,0.52267
6559.66279,0.52356
6557.73404,0.52212
6555.80530,0.52100
6553.87655,0.52122
6551.94781,0.52228
6550.01906,0.52322
6548.09032,0.52273
6546.16157,0.52162
6544.23283,0.52141
6542.30408,0.52176
6540.37534,0.52205
6538.44659,0.52205
6536.51785,0.52165
6534.58910,0.52191
6532.66036,0.52318
6530.73161,0.52401
6528.80287,0.52345
6526.87412,0.52250
6524.94537,0.52263
6523.01663,0.52357
6521.08788,0.52383
6519.15914,0.52348
6517.23039,0.52495
6515.30165,0.52758
6513.37290,0.52750
6511.44416,0.52603
6509.51541,0.52674
6507.58667,0.52831
6505.65792,0.52813
6503.72918,0.52617
6501.80043,0.52485
6499.87169,0.52614
6497.94294,0.52789
6496.01419,0.52768
6494.08545,0.52694
6492.15670,0.52695
6490.22796,0.52752
6488.29921,0.52784
6486.37047,0.52662
6484.44172,0.52504
6482.51298,0.52557
6480.58423,0.52792
6478.65549,0.52977
6476.72674,0.53047
6474.79800,0.53005
6472.86925,0.52814
6470.94051,0.52650
6469.01176,0.52706
6467.08302,0.52933
6465.15427,0.53162
6463.22552,0.53270
6461.29678,0.53280
6459.36803,0.53258
6457.43929,0.53185
6455.51054,0.53061
6453.58180,0.53040
6451.65305,0.53171
6449.72431,0.53219
6447.79556,0.53095
6445.86682,0.53006
6443.93807,0.53000
6442.00933,0.52875
6440.08058,0.52665
6438.15184,0.52662
6436.22309,0.52873
6434.29434,0.53038
6432.36560,0.53159
6430.43685,0.53372
6428.50811,0.53514
6426.57936,0.53392
6424.65062,0.53173
6422.72187,0.53095
6420.79313,0.53132
6418.86438,0.53147
6416.93564,0.53150
6415.00689,0.53238
6413.07815,0.53364
6411.14940,0.53428
6409.22066,0.53454
6407.29191,0.53414
6405.36317,0.53286
6403.43442,0.53190
6401.50567,0.53232
6399.57693,0.53371
6397.64818,0.53441
6395.71944,0.53431
6393.79069,0.53466
6391.86195,0.53572
6389.93320,0.53635
6388.00446,0.53565
6386.07571,0.53524
6384.14697,0.53624
6382.21822,0.53745
6380.28948,0.53760
6378.36073,0.53675
6376.43199,0.53670
6374.50324,0.53756
6372.57450,0.53786
6370.64575,0.53792
6368.71700,0.53829
6366.78826,0.53879
6364.85951,0.53917
6362.93077,0.53896
6361.00202,0.53936
6359.07328,0.54129
6357.14453,0.54248
6355.21579,0.54225
6353.28704,0.54164
6351.35830,0.53956
6349.42955,0.53739
6347.50081,0.53837
6345.57206,0.54141
6343.64332,0.54439
6341.71457,0.54680
6339.78582,0.54671
6337.85708,0.54353
6335.92833,0.53992
6333.99959,0.53810
6332.07084,0.53879
6330.14210,0.54092
6328.21335,0.54241
6326.28461,0.54282
6324.35586,0.54314
6322.42712,0.54400
6320.49837,0.54546
6318.56963,0.54718
6316.64088,0.54809
6314.71214,0.54797
6312.78339,0.54786
6310.85465,0.54800
6308.92590,0.54764
6306.99715,0.54589
6305.06841,0.54422
6303.13966,0.54449
6301.21092,0.54468
6299.28217,0.54377
6297.35343,0.54406
6295.42468,0.54582
6293.49594,0.54744
6291.56719,0.54863
6289.63845,0.55039
6287.70970,0.55236
6285.78096,0.55251
6283.85221,0.55131
6281.92347,0.55136
6279.99472,0.55295
6278.06598,0.55431
6276.13723,0.55463
6274.20848,0.55453
6272.27974,0.55485
6270.35099,0.55522
6268.42225,0.55452
6266.49350,0.55359
6264.56476,0.55392
6262.63601,0.55440
6260.70727,0.55420
6258.77852,0.55444
6256.84978,0.55498
6254.92103,0.55506
6252.99229,0.55534
6251.06354,0.55609
6249.13480,0.55673
6247.20605,0.55759
6245.27730,0.55898
6243.34856,0.55977
6241.41981,0.55911
6239.49107,0.55858
6237.56232,0.55949
6235.63358,0.56081
6233.70483,0.56180
6231.77609,0.56245
6229.84734,0.56341
6227.91860,0.56506
6225.98985,0.56592
6224.06111,0.56538
6222.13236,0.56502
6220.20362,0.56589
6218.27487,0.56725
6216.34613,0.56771
6214.41738,0.56704
6212.48863,0.56628
6210.55989,0.56579
6208.63114,0.56485
6206.70240,0.56316
6204.77365,0.56211
6202.84491,0.56298
6200.91616,0.56392
6198.98742,0.56342
6197.05867,0.56309
6195.12993,0.56307
6193.20118,0.56230
6191.27244,0.56170
6189.34369,0.56137
6187.41495,0.55971
6185.48620,0.55687
6183.55746,0.55489
6181.62871,0.55484
6179.69996,0.55581
6177.77122,0.55628
6175.84247,0.55551
6173.91373,0.55368
6171.98498,0.55172
6170.05624,0.54984
6168.12749,0.54794
6166.19875,0.54731
6164.27000,0.54783
6162.34126,0.54827
6160.41251,0.54979
6158.48377,0.55319
6156.55502,0.55673
6154.62628,0.55813
6152.69753,0.55721
6150.76878,0.55638
6148.84004,0.55716
6146.91129,0.55851
6144.98255,0.55911
6143.05380,0.55918
6141.12506,0.55960
6139.19631,0.55985
6137.26757,0.55971
6135.33882,0.56071
6133.41008,0.56266
6131.48133,0.56334
6129.55259,0.56235
6127.62384,0.56126
6125.69510,0.56149
6123.76635,0.56294
6121.83761,0.56370
6119.90886,0.56258
6117.98011,0.56095
6116.05137,0.56049
6114.12262,0.56122
6112.19388,0.56168
6110.26513,0.56133
6108.33639,0.56104
6106.40764,0.56090
6104.47890,0.56075
6102.55015,0.56081
6100.62141,0.56106
6098.69266,0.56085
6096.76392,0.55903
6094.83517,0.55600
6092.90643,0.55355
6090.97768,0.55246
6089.04893,0.55194
6087.12019,0.55077
6085.19144,0.54867
6083.26270,0.54661
6081.33395,0.54532
6079.40521,0.54373
6077.47646,0.54169
6075.54772,0.54028
6073.61897,0.53892
6071.69023,0.53715
6069.76148,0.53525
6067.83274,0.53253
6065.90399,0.52930
6063.97525,0.52674
6062.04650,0.52442
6060.11776,0.52170
6058.18901,0.51934
6056.26026,0.51759
6054.33152,0.51540
6052.40277,0.51186
6050.47403,0.50808
6048.54528,0.50489
6046.61654,0.50112
6044.68779,0.49699
6042.75905,0.49337
6040.83030,0.48985
6038.90156,0.48588
6036.97281,0.48145
6035.04407,0.47762
6033.11532,0.47438
6031.18658,0.47036
6029.25783,0.46625
6027.32909,0.46316
6025.40034,0.46016
6023.47159,0.45637
6021.54285,0.45250
6019.61410,0.44945
6017.68536,0.44693
6015.75661,0.44365
6013.82787,0.43928
6011.89912,0.43554
6009.97038,0.43352
6008.04163,0.43170
6006.11289,0.42890
6004.18414,0.42563
6002.25540,0.42258
6000.32665,0.42033
5998.39791,0.41907
5996.46916,0.41793
5994.54041,0.41550
5992.61167,0.41205
5990.68292,0.40969
5988.75418,0.40834
5986.82543,0.40669
5984.89669,0.40581
5982.96794,0.40605
5981.03920,0.40526
5979.11045,0.40354
5977.18171,0.40293
5975.25296,0.40275
5973.32422,0.40209
5971.39547,0.40154
5969.46673,0.40072
5967.53798,0.39955
5965.60924,0.39862
5963.68049,0.39809
5961.75174,0.39805
5959.82300,0.39796
5957.89425,0.39741
5955.96551,0.39698
5954.03676,0.39658
5952.10802,0.39537
5950.17927,0.39425
5948.25053,0.39470
5946.32178,0.39637
5944.39304,0.39727
5942.46429,0.39586
5940.53555,0.39398
5938.60680,0.39417
5936.67806,0.39553
5934.74931,0.39592
5932.82057,0.39491
5930.89182,0.39331
5928.96307,0.39191
5927.03433,0.39153
5925.10558,0.39227
5923.17684,0.39282
5921.24809,0.39213
5919.31935,0.39091
5917.39060,0.39093
5915.46186,0.39180
5913.53311,0.39144
5911.60437,0.39002
5909.67562,0.38917
5907.74688,0.38920
5905.81813,0.38910
5903.88939,0.38823
5901.96064,0.38702
5900.03189,0.38647
5898.10315,0.38684
5896.17440,0.38665
5894.24566,0.38539
5892.31691,0.38513
5890.38817,0.38689
5888.45942,0.38849
5886.53068,0.38804
5884.60193,0.38643
5882.67319,0.38546
5880.74444,0.38559
5878.81570,0.38624
5876.88695,0.38679
5874.95821,0.38641
5873.02946,0.38502
5871.10072,0.38377
5869.17197,0.38345
5867.24322,0.38371
5865.31448,0.38335
5863.38573,0.38264
5861.45699,0.38337
5859.52824,0.38494
5857.59950,0.38561
5855.67075,0.38490
5853.74201,0.38304
5851.81326,0.38173
5849.88452,0.38164
5847.95577,0.38126
5846.02703,0.38039
5844.09828,0.37987
5842.16954,0.37977
5840.24079,0.37957
5838.31205,0.37894
5836.38330,0.37803
5834.45455,0.37681
5832.52581,0.37558
5830.59706,0.37499
5828.66832,0.37424
5826.73957,0.37241
5824.81083,0.37106
5822.88208,0.37125
5820.95334,0.37122
5819.02459,0.36998
5817.09585,0.36838
5815.16710,0.36718
5813.23836,0.36676
5811.30961,0.36673
5809.38087,0.36619
5807.45212,0.36535
5805.52337,0.36540
5803.59463,0.36610
5801.66588,0.36614
5799.73714,0.36535
5797.80839,0.36506
5795.87965,0.36623
5793.95090,0.36737
5792.02216,0.36684
5790.09341,0.36570
5788.16467,0.36585
5786.23592,0.36768
5784.30718,0.37007
5782.37843,0.37167
5780.44969,0.37207
5778.52094,0.37223
5776.59220,0.37287
5774.66345,0.37400
5772.73470,0.37624
5770.80596,0.37903
5768.87721,0.38067
5766.94847,0.38140
5765.01972,0.38271
5763.09098,0.38470
5761.16223,0.38612
5759.23349,0.38674
5757.30474,0.38769
5755.37600,0.38923
5753.44725,0.39041
5751.51851,0.39064
5749.58976,0.39066
5747.66102,0.39200
5745.73227,0.39470
5743.80352,0.39676
5741.87478,0.39748
5739.94603,0.39799
5738.01729,0.39855
5736.08854,0.39910
5734.15980,0.40008
5732.23105,0.40168
5730.30231,0.40330
5728.37356,0.40446
5726.44482,0.40582
5724.51607,0.40776
5722.58733,0.40985
5720.65858,0.41134
5718.72984,0.41180
5716.80109,0.41259
5714.87235,0.41455
5712.94360,0.41625
5711.01485,0.41721
5709.08611,0.41805
5707.15736,0.41849
5705.22862,0.41856
5703.29987,0.41889
5701.37113,0.41959
5699.44238,0.42062
5697.51364,0.42184
5695.58489,0.42306
5693.65615,0.42394
5691.72740,0.42392
5689.79866,0.42342
5687.86991,0.42347
5685.94117,0.42401
5684.01242,0.42402
5682.08368,0.42338
5680.15493,0.42368
5678.22618,0.42541
5676.29744,0.42658
5674.36869,0.42628
5672.43995,0.42616
5670.51120,0.42708
5668.58246,0.42788
5666.65371,0.42801
5664.72497,0.42842
5662.79622,0.42895
5660.86748,0.42904
5658.93873,0.42923
5657.00999,0.42943
5655.08124,0.42938
5653.15250,0.42982
5651.22375,0.43149
5649.29500,0.43396
5647.36626,0.43583
5645.43751,0.43657
5643.50877,0.43692
5641.58002,0.43740
5639.65128,0.43826
5637.72253,0.43902
5635.79379,0.43880
5633.86504,0.43856
5631.93630,0.43916
5630.00755,0.43994
5628.07881,0.44061
5626.15006,0.44105
5624.22132,0.44176
5622.29257,0.44333
5620.36383,0.44480
5618.43508,0.44518
5616.50633,0.44476
5614.57759,0.44460
5612.64884,0.44528
5610.72010,0.44615
5608.79135,0.44640
5606.86261,0.44660
5604.93386,0.44775
5603.00512,0.44900
5601.07637,0.44873
5599.14763,0.44728
5597.21888,0.44629
5595.29014,0.44622
5593.36139,0.44642
5591.43265,0.44677
5589.50390,0.44727
5587.57516,0.44747
5585.64641,0.44722
5583.71766,0.44708
5581.78892,0.44753
5579.86017,0.44831
5577.93143,0.44928
5576.00268,0.45021
5574.07394,0.45097
5572.14519,0.45229
5570.21645,0.45361
5568.28770,0.45380
5566.35896,0.45367
5564.43021,0.45411
5562.50147,0.45457
5560.57272,0.45444
5558.64398,0.45439
5556.71523,0.45522
5554.78648,0.45580
5552.85774,0.45504
5550.92899,0.45430
5549.00025,0.45443
5547.07150,0.45459
5545.14276,0.45503
5543.21401,0.45598
5541.28527,0.45653
5539.35652,0.45699
5537.42778,0.45816
5535.49903,0.45875
5533.57029,0.45797
5531.64154,0.45775
5529.71280,0.45941
5527.78405,0.46155
5525.85531,0.46254
5523.92656,0.46249
5521.99781,0.46247
5520.06907,0.46278
5518.14032,0.46293
5516.21158,0.46281
5514.28283,0.46303
5512.35409,0.46393
5510.42534,0.46502
5508.49660,0.46602
5506.56785,0.46679
5504.63911,0.46666
5502.71036,0.46631
5500.78162,0.46743
5498.85287,0.46936
5496.92413,0.47031
5494.99538,0.47031
5493.06664,0.47000
5491.13789,0.46948
5489.20914,0.46927
5487.28040,0.47029
5485.35165,0.47198
5483.42291,0.47275
5481.49416,0.47223
5479.56542,0.47152
5477.63667,0.47178
5475.70793,0.47275
5473.77918,0.47320
5471.85044,0.47335
5469.92169,0.47413
5467.99295,0.47502
5466.06420,0.47489
5464.13546,0.47388
5462.20671,0.47352
5460.27796,0.47476
5458.34922,0.47643
5456.42047,0.47743
5454.49173,0.47806
5452.56298,0.47853
5450.63424,0.47956
5448.70549,0.48191
5446.77675,0.48434
5444.84800,0.48509
5442.91926,0.48419
5440.99051,0.48314
5439.06177,0.48321
5437.13302,0.48421
5435.20428,0.48552
5433.27553,0.48674
5431.34679,0.48734
5429.41804,0.48731
5427.48929,0.48747
5425.56055,0.48840
5423.63180,0.48951
5421.70306,0.49013
5419.77431,0.49032
5417.84557,0.49048
5415.91682,0.49073
5413.98808,0.49102
5412.05933,0.49168
5410.13059,0.49226
5408.20184,0.49242
5406.27310,0.49343
5404.34435,0.49504
5402.41561,0.49574
5400.48686,0.49579
5398.55811,0.49623
5396.62937,0.49719
5394.70062,0.49806
5392.77188,0.49810
5390.84313,0.49749
5388.91439,0.49665
5386.98564,0.49543
5385.05690,0.49419
5383.12815,0.49397
5381.19941,0.49443
5379.27066,0.49431
5377.34192,0.49413
5375.41317,0.49477
5373.48443,0.49537
5371.55568,0.49529
5369.62694,0.49481
5367.69819,0.49426
5365.76944,0.49403
5363.84070,0.49417
5361.91195,0.49429
5359.98321,0.49404
5358.05446,0.49367
5356.12572,0.49320
5354.19697,0.49207
5352.26823,0.49060
5350.33948,0.48961
5348.41074,0.48886
5346.48199,0.48802
5344.55325,0.48746
5342.62450,0.48731
5340.69576,0.48726
5338.76701,0.48693
5336.83827,0.48603
5334.90952,0.48475
5332.98077,0.48308
5331.05203,0.48083
5329.12328,0.47838
5327.19454,0.47625
5325.26579,0.47409
5323.33705,0.47147
5321.40830,0.46888
5319.47956,0.46672
5317.55081,0.46476
5315.62207,0.46266
5313.69332,0.46039
5311.76458,0.45805
5309.83583,0.45542
5307.90709,0.45237
5305.97834,0.44890
5304.04959,0.44490
5302.12085,0.44055
5300.19210,0.43613
5298.26336,0.43161
5296.33461,0.42691
5294.40587,0.42201
5292.47712,0.41680
5290.54838,0.41127
5288.61963,0.40559
5286.69089,0.39982
5284.76214,0.39410
5282.83340,0.38861
5280.90465,0.38288
5278.97591,0.37644
5277.04716,0.36985
5275.11842,0.36354
5273.18967,0.35731
5271.26092,0.35141
5269.33218,0.34582
5267.40343,0.34013
5265.47469,0.33415
5263.54594,0.32814
5261.61720,0.32268
5259.68845,0.31772
5257.75971,0.31320
5255.83096,0.30928
5253.90222,0.30550
5251.97347,0.30147
5250.04473,0.29742
5248.11598,0.29361
5246.18724,0.29032
5244.25849,0.28752
5242.32975,0.28476
5240.40100,0.28202
5238.47225,0.27962
5236.54351,0.27736
5234.61476,0.27519
5232.68602,0.27379
5230.75727,0.27334
5228.82853,0.27279
5226.89978,0.27117
5224.97104,0.26919
5223.04229,0.26787
5221.11355,0.26708
5219.18480,0.26640
5217.25606,0.26570
5215.32731,0.26527
5213.39857,0.26537
5211.46982,0.26548
5209.54107,0.26546
5207.61233,0.26568
5205.68358,0.26576
5203.75484,0.26557
5201.82609,0.26573
5199.89735,0.26628
5197.96860,0.26690
5196.03986,0.26772
5194.11111,0.26847
5192.18237,0.26870
5190.25362,0.26889
5188.32488,0.26981
5186.39613,0.27102
5184.46739,0.27167
5182.53864,0.27224
5180.60990,0.27371
5178.68115,0.27557
5176.75240,0.27676
5174.82366,0.27750
5172.89491,0.27862
5170.96617,0.28018
5169.03742,0.28171
5167.10868,0.28273
5165.17993,0.28338
5163.25119,0.28425
5161.32244,0.28507
5159.39370,0.28552
5157.46495,0.28649
5155.53621,0.28833
5153.60746,0.28986
5151.67872,0.29071
5149.74997,0.29223
5147.82123,0.29450
5145.89248,0.29617
5143.96373,0.29696
5142.03499,0.29762
5140.10624,0.29870
5138.17750,0.30005
5136.24875,0.30150
5134.32001,0.30295
5132.39126,0.30410
5130.46252,0.30529
5128.53377,0.30696
5126.60503,0.30873
5124.67628,0.30999
5122.74754,0.31093
5120.81879,0.31228
5118.89005,0.31407
5116.96130,0.31607
5115.03255,0.31791
5113.10381,0.31912
5111.17506,0.32037
5109.24632,0.32243
5107.31757,0.32456
5105.38883,0.32638
5103.46008,0.32828
5101.53134,0.33013
5099.60259,0.33187
5097.67385,0.33363
5095.74510,0.33498
5093.81636,0.33611
5091.88761,0.33763
5089.95887,0.33914
5088.03012,0.34007
5086.10138,0.34086
5084.17263,0.34215
5082.24388,0.34384
5080.31514,0.34524
5078.38639,0.34665
5076.45765,0.34872
5074.52890,0.35047
5072.60016,0.35122
5070.67141,0.35196
5068.74267,0.35358
5066.81392,0.35567
5064.88518,0.35740
5062.95643,0.35840
5061.02769,0.35892
5059.09894,0.35975
5057.17020,0.36109
5055.24145,0.36217
5053.31270,0.36264
5051.38396,0.36325
5049.45521,0.36489
5047.52647,0.36689
5045.59772,0.36826
5043.66898,0.36913
5041.74023,0.36955
5039.81149,0.37005
5037.88274,0.37141
5035.95400,0.37307
5034.02525,0.37408
5032.09651,0.37416
5030.16776,0.37389
5028.23902,0.37425
5026.31027,0.37552
5024.38153,0.37714
5022.45278,0.37835
5020.52403,0.37884
5018.59529,0.37902
5016.66654,0.37964
5014.73780,0.38052
5012.80905,0.38092
5010.88031,0.38085
5008.95156,0.38071
5007.02282,0.38046
5005.09407,0.38033
5003.16533,0.38106
5001.23658,0.38212
4999.30784,0.38234
4997.37909,0.38186
4995.45035,0.38129
4993.52160,0.38080
4991.59286,0.38054
4989.66411,0.38032
4987.73536,0.37980
4985.80662,0.37897
4983.87787,0.37800
4981.94913,0.37710
4980.02038,0.37656
4978.09164,0.37602
4976.16289,0.37488
4974.23415,0.37392
4972.30540,0.37354
4970.37666,0.37268
4968.44791,0.37115
4966.51917,0.36969
4964.59042,0.36859
4962.66168,0.36761
4960.73293,0.36619
4958.80418,0.36444
4956.87544,0.36293
4954.94669,0.36147
4953.01795,0.35970
4951.08920,0.35817
4949.16046,0.35709
4947.23171,0.35568
4945.30297,0.35372
4943.37422,0.35161
4941.44548,0.34944
4939.51673,0.34730
4937.58799,0.34548
4935.65924,0.34403
4933.73050,0.34274
4931.80175,0.34146
4929.87301,0.33981
4927.94426,0.33764
4926.01551,0.33525
4924.08677,0.33301
4922.15802,0.33107
4920.22928,0.32919
4918.30053,0.32731
4916.37179,0.32547
4914.44304,0.32370
4912.51430,0.32206
4910.58555,0.32020
4908.65681,0.31820
4906.72806,0.31648
4904.79932,0.31500
4902.87057,0.31370
4900.94183,0.31262
4899.01308,0.31136
4897.08434,0.30972
4895.15559,0.30818
4893.22684,0.30687
4891.29810,0.30565
4889.36935,0.30469
4887.44061,0.30365
4885.51186,0.30203
4883.58312,0.30033
4881.65437,0.29914
4879.72563,0.29825
4877.79688,0.29735
4875.86814,0.29621
4873.93939,0.29480
4872.01065,0.29369
4870.08190,0.29309
4868.15316,0.29247
4866.22441,0.29137
4864.29566,0.28977
4862.36692,0.28820
4860.43817,0.28743
4858.50943,0.28705
4856.58068,0.28638
4854.65194,0.28575
4852.72319,0.28501
4850.79445,0.28367
4848.86570,0.28213
4846.93696,0.28071
4845.00821,0.27941
4843.07947,0.27838
4841.15072,0.27769
4839.22198,0.27726
4837.29323,0.27678
4835.36449,0.27572
4833.43574,0.27400
4831.50699,0.27236
4829.57825,0.27152
4827.64950,0.27128
4825.72076,0.27105
4823.79201,0.27033
4821.86327,0.26897
4819.93452,0.26756
4818.00578,0.26682
4816.07703,0.26628
4814.14829,0.26525
4812.21954,0.26428
4810.29080,0.26407
4808.36205,0.26407
4806.43331,0.26342
4804.50456,0.26245
4802.57582,0.26201
4800.64707,0.26156
4798.71832,0.26061
4796.78958,0.25995
4794.86083,0.25996
4792.93209,0.26028
4791.00334,0.26015
4789.07460,0.25911
4787.14585,0.25792
4785.21711,0.25769
4783.28836,0.25827
4781.35962,0.25853
4779.43087,0.25814
4777.50213,0.25773
4775.57338,0.25764
4773.64464,0.25750
4771.71589,0.25712
4769.78714,0.25686
4767.85840,0.25662
4765.92965,0.25569
4764.00091,0.25455
4762.07216,0.25402
4760.14342,0.25357
4758.21467,0.25282
4756.28593,0.25218
4754.35718,0.25142
4752.42844,0.25002
4750.49969,0.24829
4748.57095,0.24700
4746.64220,0.24621
4744.71346,0.24541
4742.78471,0.24454
4740.85597,0.24364
4738.92722,0.24277
4736.99847,0.24207
4735.06973,0.24136
4733.14098,0.24068
4731.21224,0.24047
4729.28349,0.24047
4727.35475,0.24001
4725.42600,0.23945
4723.49726,0.23945
4721.56851,0.23984
4719.63977,0.24014
4717.71102,0.23995
4715.78228,0.23909
4713.85353,0.23787
4711.92479,0.23677
4709.99604,0.23598
4708.06729,0.23549
4706.13855,0.23515
4704.20980,0.23449
4702.28106,0.23311
4700.35231,0.23150
4698.42357,0.23036
4696.49482,0.22920
4694.56608,0.22753
4692.63733,0.22614
4690.70859,0.22522
4688.77984,0.22393
4686.85110,0.22226
4684.92235,0.22073
4682.99361,0.21970
4681.06486,0.21931
4679.13612,0.21901
4677.20737,0.21850
4675.27862,0.21851
4673.34988,0.21946
4671.42113,0.22066
4669.49239,0.22149
4667.56364,0.22224
4665.63490,0.22355
4663.70615,0.22555
4661.77741,0.22774
4659.84866,0.22982
4657.91992,0.23194
4655.99117,0.23412
4654.06243,0.23593
4652.13368,0.23712
4650.20494,0.23819
4648.27619,0.23944
4646.34745,0.24042
4644.41870,0.24096
4642.48995,0.24134
4640.56121,0.24128
4638.63246,0.24058
4636.70372,0.23983
4634.77497,0.23920
4632.84623,0.23842
4630.91748,0.23769
4628.98874,0.23723
4627.05999,0.23696
4625.13125,0.23681
4623.20250,0.23715
4621.27376,0.23818
4619.34501,0.23963
4617.41627,0.24142
4615.48752,0.24361
4613.55877,0.24601
4611.63003,0.24863
4609.70128,0.25133
4607.77254,0.25409
4605.84379,0.25729
4603.91505,0.26049
4601.98630,0.26292
4600.05756,0.26512
4598.12881,0.26751
4596.20007,0.26940
4594.27132,0.27084
4592.34258,0.27233
4590.41383,0.27345
4588.48509,0.27382
4586.55634,0.27392
4584.62760,0.27416
4582.69885,0.27463
4580.77010,0.27517
4578.84136,0.27535
4576.91261,0.27502
4574.98387,0.27446
4573.05512,0.27397
4571.12638,0.27402
4569.19763,0.27462
4567.26889,0.27511
4565.34014,0.27526
4563.41140,0.27568
4561.48265,0.27678
4559.55391,0.27823
4557.62516,0.27947
4555.69642,0.28044
4553.76767,0.28128
4551.83893,0.28195
4549.91018,0.28247
4547.98143,0.28324
4546.05269,0.28441
4544.12394,0.28537
4542.19520,0.28547
4540.26645,0.28494
4538.33771,0.28447
4536.40896,0.28410
4534.48022,0.28347
4532.55147,0.28285
4530.62273,0.28229
4528.69398,0.28137
4526.76524,0.28062
4524.83649,0.28031
4522.90775,0.27953
4520.97900,0.27799
4519.05025,0.27632
4517.12151,0.27472
4515.19276,0.27325
4513.26402,0.27193
4511.33527,0.27033
4509.40653,0.26833
4507.47778,0.26630
4505.54904,0.26430
4503.62029,0.26223
4501.69155,0.26013
4499.76280,0.25786
4497.83406,0.25524
4495.90531,0.25288
4493.97657,0.25120
4492.04782,0.24932
4490.11908,0.24657
4488.19033,0.24374
4486.26158,0.24120
4484.33284,0.23846
4482.40409,0.23545
4480.47535,0.23225
4478.54660,0.22895
4476.61786,0.22565
4474.68911,0.22198
4472.76037,0.21786
4470.83162,0.21372
4468.90288,0.20927
4466.97413,0.20404
4465.04539,0.19866
4463.11664,0.19369
4461.18790,0.18859
4459.25915,0.18316
4457.33041,0.17774
4455.40166,0.17225
4453.47291,0.16638
4451.54417,0.16060
4449.61542,0.15536
4447.68668,0.15020
4445.75793,0.14509
4443.82919,0.14047
4441.90044,0.13613
4439.97170,0.13198
4438.04295,0.12816
4436.11421,0.12466
4434.18546,0.12163
4432.25672,0.11897
4430.32797,0.11651
4428.39923,0.11451
4426.47048,0.11308
4424.54173,0.11164
4422.61299,0.11008
4420.68424,0.10903
4418.75550,0.10866
4416.82675,0.10845
4414.89801,0.10807
4412.96926,0.10771
4411.04052,0.10771
4409.11177,0.10802
4407.18303,0.10845
4405.25428,0.10895
4403.32554,0.10930
4401.39679,0.10947
4399.46805,0.10962
4397.53930,0.10963
4395.61056,0.10937
4393.68181,0.10914
4391.75306,0.10914
4389.82432,0.10896
4387.89557,0.10846
4385.96683,0.10808
4384.03808,0.10802
4382.10934,0.10811
4380.18059,0.10790
4378.25185,0.10702
4376.32310,0.10561
4374.39436,0.10421
4372.46561,0.10321
4370.53687,0.10257
4368.60812,0.10196
4366.67938,0.10139
4364.75063,0.10098
4362.82189,0.10048
4360.89314,0.09972
4358.96439,0.09900
4357.03565,0.09868
4355.10690,0.09882
4353.17816,0.09903
4351.24941,0.09913
4349.32067,0.09932
4347.39192,0.09962
4345.46318,0.09965
4343.53443,0.09936
4341.60569,0.09931
4339.67694,0.09990
4337.74820,0.10069
4335.81945,0.10110
4333.89071,0.10125
4331.96196,0.10167
4330.03321,0.10225
4328.10447,0.10260
4326.17572,0.10267
4324.24698,0.10260
4322.31823,0.10262
4320.38949,0.10299
4318.46074,0.10384
4316.53200,0.10500
4314.60325,0.10597
4312.67451,0.10649
4310.74576,0.10667
4308.81702,0.10687
4306.88827,0.10751
4304.95953,0.10836
4303.03078,0.10879
4301.10204,0.10870
4299.17329,0.10867
4297.24454,0.10902
4295.31580,0.10936
4293.38705,0.10933
4291.45831,0.10904
4289.52956,0.10874
4287.60082,0.10868
4285.67207,0.10892
4283.74333,0.10904
4281.81458,0.10898
4279.88584,0.10915
4277.95709,0.10948
4276.02835,0.10974
4274.09960,0.11006
4272.17086,0.11051
4270.24211,0.11097
4268.31336,0.11124
4266.38462,0.11134
4264.45587,0.11142
4262.52713,0.11144
4260.59838,0.11159
4258.66964,0.11199
4256.74089,0.11243
4254.81215,0.11279
4252.88340,0.11306
4250.95466,0.11335
4249.02591,0.11390
4247.09717,0.11452
4245.16842,0.11489
4243.23968,0.11509
4241.31093,0.11518
4239.38219,0.11522
4237.45344,0.11526
4235.52469,0.11534
4233.59595,0.11567
4231.66720,0.11617
4229.73846,0.11656
4227.80971,0.11692
4225.88097,0.11731
4223.95222,0.11766
4222.02348,0.11790
4220.09473,0.11813
4218.16599,0.11855
4216.23724,0.11919
4214.30850,0.12000
4212.37975,0.12064
4210.45101,0.12077
4208.52226,0.12094
4206.59352,0.12163
4204.66477,0.12223
4202.73602,0.12230
4200.80728,0.12233
4198.87853,0.12267
4196.94979,0.12287
4195.02104,0.12271
4193.09230,0.12263
4191.16355,0.12270
4189.23481,0.12257
4187.30606,0.12227
4185.37732,0.12214
4183.44857,0.12232
4181.51983,0.12258
4179.59108,0.12253
4177.66234,0.12232
4175.73359,0.12228
4173.80484,0.12213
4171.87610,0.12160
4169.94735,0.12103
4168.01861,0.12087
4166.08986,0.12086
4164.16112,0.12066
4162.23237,0.12038
4160.30363,0.12032
4158.37488,0.12050
4156.44614,0.12070
4154.51739,0.12090
4152.58865,0.12117
4150.65990,0.12132
4148.73116,0.12107
4146.80241,0.12041
4144.87367,0.11960
4142.94492,0.11889
4141.01617,0.11859
4139.08743,0.11874
4137.15868,0.11886
4135.22994,0.11870
4133.30119,0.11865
4131.37245,0.11874
4129.44370,0.11858
4127.51496,0.11839
4125.58621,0.11850
4123.65747,0.11859
4121.72872,0.11822
4119.79998,0.11756
4117.87123,0.11701
4115.94249,0.11661
4114.01374,0.11627
4112.08500,0.11583
4110.15625,0.11498
4108.22750,0.11397
4106.29876,0.11331
4104.37001,0.11295
4102.44127,0.11253
4100.51252,0.11183
4098.58378,0.11091
4096.65503,0.10991
4094.72629,0.10900
4092.79754,0.10810
4090.86880,0.10696
4088.94005,0.10561
4087.01131,0.10436
4085.08256,0.10316
4083.15382,0.10183
4081.22507,0.10063
4079.29632,0.09975
4077.36758,0.09892
4075.43883,0.09797
4073.51009,0.09678
4071.58134,0.09538
4069.65260,0.09410
4067.72385,0.09317
4065.79511,0.09267
4063.86636,0.09255
4061.93762,0.09255
4060.00887,0.09245
4058.08013,0.09224
4056.15138,0.09209
4054.22264,0.09220
4052.29389,0.09258
4050.36515,0.09303
4048.43640,0.09320
4046.50765,0.09317
4044.57891,0.09341
4042.65016,0.09390
4040.72142,0.09414
4038.79267,0.09413
4036.86393,0.09418
4034.93518,0.09437
4033.00644,0.09456
4031.07769,0.09461
4029.14895,0.09454
4027.22020,0.09453
4025.29146,0.09455
4023.36271,0.09438
4021.43397,0.09400
4019.50522,0.09385
4017.57648,0.09422
4015.64773,0.09484
4013.71898,0.09540
4011.79024,0.09583
4009.86149,0.09610
4007.93275,0.09613
4006.00400,0.09614
4004.07526,0.09639
4002.14651,0.09675
4000.21777,0.09709
3998.28902,0.09747
3996.36028,0.09789
3994.43153,0.09801
3992.50279,0.09787
3990.57404,0.09801
3988.64530,0.09847
3986.71655,0.09882
3984.78780,0.09903
3982.85906,0.09951
3980.93031,0.10043
3979.00157,0.10136
3977.07282,0.10189
3975.14408,0.10212
3973.21533,0.10255
3971.28659,0.10344
3969.35784,0.10436
3967.42910,0.10504
3965.50035,0.10596
3963.57161,0.10718
3961.64286,0.10812
3959.71412,0.10858
3957.78537,0.10882
3955.85663,0.10913
3953.92788,0.10965
3951.99913,0.11052
3950.07039,0.11168
3948.14164,0.11268
3946.21290,0.11326
3944.28415,0.11385
3942.35541,0.11462
3940.42666,0.11520
3938.49792,0.11550
3936.56917,0.11576
3934.64043,0.11628
3932.71168,0.11707
3930.78294,0.11774
3928.85419,0.11835
3926.92545,0.11907
3924.99670,0.11960
3923.06795,0.11999
3921.13921,0.12059
3919.21046,0.12121
3917.28172,0.12175
3915.35297,0.12246
3913.42423,0.12321
3911.49548,0.12383
3909.56674,0.12437
3907.63799,0.12482
3905.70925,0.12536
3903.78050,0.12621
3901.85176,0.12706
3899.92301,0.12764
3897.99427,0.12797
3896.06552,0.12803
3894.13678,0.12795
3892.20803,0.12807
3890.27928,0.12875
3888.35054,0.12982
3886.42179,0.13054
3884.49305,0.13053
3882.56430,0.13037
3880.63556,0.13062
3878.70681,0.13119
3876.77807,0.13179
3874.84932,0.13236
3872.92058,0.13283
3870.99183,0.13328
3869.06309,0.13398
3867.13434,0.13502
3865.20560,0.13632
3863.27685,0.13748
3861.34811,0.13831
3859.41936,0.13905
3857.49061,0.13972
3855.56187,0.14020
3853.63312,0.14080
3851.70438,0.14177
3849.77563,0.14252
3847.84689,0.14279
3845.91814,0.14302
3843.98940,0.14360
3842.06065,0.14440
3840.13191,0.14510
3838.20316,0.14566
3836.27442,0.14617
3834.34567,0.14643
3832.41693,0.14624
3830.48818,0.14606
3828.55943,0.14635
3826.63069,0.14676
3824.70194,0.14704
3822.77320,0.14722
3820.84445,0.14716
3818.91571,0.14698
3816.98696,0.14691
3815.05822,0.14695
3813.12947,0.14707
3811.20073,0.14727
3809.27198,0.14747
3807.34324,0.14764
3805.41449,0.14773
3803.48575,0.14757
3801.55700,0.14725
3799.62826,0.14729
3797.69951,0.14757
3795.77076,0.14757
3793.84202,0.14747
3791.91327,0.14758
3789.98453,0.14758
3788.05578,0.14742
3786.12704,0.14735
3784.19829,0.14716
3782.26955,0.14663
3780.34080,0.14611
3778.41206,0.14582
3776.48331,0.14547
3774.55457,0.14488
3772.62582,0.14423
3770.69708,0.14353
3768.76833,0.14279
3766.83959,0.14227
3764.91084,0.14202
3762.98209,0.14188
3761.05335,0.14148
3759.12460,0.14076
3757.19586,0.14036
3755.26711,0.14049
3753.33837,0.14062
3751.40962,0.14034
3749.48088,0.13968
3747.55213,0.13905
3745.62339,0.13857
3743.69464,0.13810
3741.76590,0.13757
3739.83715,0.13697
3737.90841,0.13615
3735.97966,0.13483
3734.05091,0.13333
3732.12217,0.13231
3730.19342,0.13159
3728.26468,0.13069
3726.33593,0.12957
3724.40719,0.12840
3722.47844,0.12709
3720.54970,0.12557
3718.62095,0.12402
3716.69221,0.12241
3714.76346,0.12072
3712.83472,0.11897
3710.90597,0.11704
3708.97723,0.11488
3707.04848,0.11260
3705.11974,0.11024
3703.19099,0.10775
3701.26224,0.10502
3699.33350,0.10201
3697.40475,0.09874
3695.47601,0.09545
3693.54726,0.09238
3691.61852,0.08937
3689.68977,0.08581
3687.76103,0.08174
3685.83228,0.07799
3683.90354,0.07480
3681.97479,0.07177
3680.04605,0.06865
3678.11730,0.06563
3676.18856,0.06311
3674.25981,0.06170
3672.33107,0.06104
3670.40232,0.06013
3668.47357,0.05898
3666.54483,0.05817
3664.61608,0.05767
3662.68734,0.05719
3660.75859,0.05662
3658.82985,0.05607
3656.90110,0.05554
3654.97236,0.05521
3653.04361,0.05533
3651.11487,0.05562
3649.18612,0.05552
3647.25738,0.05501
3645.32863,0.05453
3643.39989,0.05435
3641.47114,0.05446
3639.54239,0.05450
3637.61365,0.05430
3635.68490,0.05406
3633.75616,0.05401
3631.82741,0.05419
3629.89867,0.05432
3627.96992,0.05430
3626.04118,0.05430
3624.11243,0.05416
3622.18369,0.05403
3620.25494,0.05420
3618.32620,0.05429
3616.39745,0.05410
3614.46871,0.05391
3612.53996,0.05378
3610.61122,0.05359
3608.68247,0.05327
3606.75372,0.05317
3604.82498,0.05343
3602.89623,0.05365
3600.96749,0.05365
3599.03874,0.05359
3597.11000,0.05343
3595.18125,0.05314
3593.25251,0.05307
3591.32376,0.05316
3589.39502,0.05322
3587.46627,0.05339
3585.53753,0.05361
3583.60878,0.05358
3581.68004,0.05331
3579.75129,0.05300
3577.82254,0.05282
3575.89380,0.05277
3573.96505,0.05283
3572.03631,0.05294
3570.10756,0.05293
3568.17882,0.05272
3566.25007,0.05249
3564.32133,0.05246
3562.39258,0.05253
3560.46384,0.05254
3558.53509,0.05244
3556.60635,0.05239
3554.67760,0.05267
3552.74886,0.05292
3550.82011,0.05278
3548.89137,0.05255
3546.96262,0.05247
3545.03387,0.05252
3543.10513,0.05258
3541.17638,0.05241
3539.24764,0.05213
3537.31889,0.05215
3535.39015,0.05238
3533.46140,0.05235
3531.53266,0.05211
3529.60391,0.05212
3527.67517,0.05246
3525.74642,0.05269
3523.81768,0.05259
3521.88893,0.05236
3519.96019,0.05213
3518.03144,0.05202
3516.10270,0.05209
3514.17395,0.05217
3512.24520,0.05222
3510.31646,0.05223
3508.38771,0.05209
3506.45897,0.05199
3504.53022,0.05208
3502.60148,0.05203
3500.67273,0.05173
3498.74399,0.05164
3496.81524,0.05177
3494.88650,0.05201
3492.95775,0.05255
3491.02901,0.05314
3489.10026,0.05318
3487.17152,0.05276
3485.24277,0.05246
3483.31402,0.05253
3481.38528,0.05267
3479.45653,0.05254
3477.52779,0.05228
3475.59904,0.05230
3473.67030,0.05245
3471.74155,0.05252
3469.81281,0.05263
3467.88406,0.05278
3465.95532,0.05277
3464.02657,0.05257
3462.09783,0.05234
3460.16908,0.05210
3458.24034,0.05208
3456.31159,0.05240
3454.38285,0.05265
3452.45410,0.05262
3450.52535,0.05267
3448.59661,0.05300
3446.66786,0.05338
3444.73912,0.05348
3442.81037,0.05311
3440.88163,0.05264
3438.95288,0.05267
3437.02414,0.05310
3435.09539,0.05325
3433.16665,0.05302
3431.23790,0.05283
3429.30916,0.05292
3427.38041,0.05316
3425.45167,0.05325
3423.52292,0.05314
3421.59418,0.05294
3419.66543,0.05269
3417.73668,0.05264
3415.80794,0.05284
3413.87919,0.05292
3411.95045,0.05272
3410.02170,0.05253
3408.09296,0.05264
3406.16421,0.05301
3404.23547,0.05333
3402.30672,0.05340
3400.37798,0.05331
3398.44923,0.05317
3396.52049,0.05301
3394.59174,0.05284
3392.66300,0.05288
3390.73425,0.05316
3388.80550,0.05330
3386.87676,0.05326
3384.94801,0.05325
3383.01927,0.05311
3381.09052,0.05286
3379.16178,0.05278
3377.23303,0.05288
3375.30429,0.05280
3373.37554,0.05267
3371.44680,0.05288
3369.51805,0.05314
3367.58931,0.05318
3365.66056,0.05325
3363.73182,0.05342
3361.80307,0.05356
3359.87433,0.05349
3357.94558,0.05321
3356.01683,0.05297
3354.08809,0.05310
3352.15934,0.05344
3350.23060,0.05349
3348.30185,0.05323
3346.37311,0.05306
3344.44436,0.05322
3342.51562,0.05349
3340.58687,0.05355
3338.65813,0.05346
3336.72938,0.05345
3334.80064,0.05336
3332.87189,0.05308
3330.94315,0.05300
3329.01440,0.05319
3327.08566,0.05335
3325.15691,0.05340
3323.22816,0.05357
3321.29942,0.05382
3319.37067,0.05375
3317.44193,0.05325
3315.51318,0.05290
3313.58444,0.05308
3311.65569,0.05332
3309.72695,0.05340
3307.79820,0.05356
3305.86946,0.05361
3303.94071,0.05342
3302.01197,0.05329
3300.08322,0.05324
3298.15448,0.05326
3296.22573,0.05333
3294.29698,0.05329
3292.36824,0.05321
3290.43949,0.05336
3288.51075,0.05364
3286.58200,0.05392
3284.65326,0.05419
3282.72451,0.05427
3280.79577,0.05394
3278.86702,0.05345
3276.93828,0.05339
3275.00953,0.05390
3273.08079,0.05429
3271.15204,0.05427
3269.22330,0.05408
3267.29455,0.05372
3265.36581,0.05333
3263.43706,0.05338
3261.50831,0.05372
3259.57957,0.05374
3257.65082,0.05355
3255.72208,0.05363
3253.79333,0.05389
3251.86459,0.05395
3249.93584,0.05374
3248.00710,0.05345
3246.07835,0.05333
3244.14961,0.05351
3242.22086,0.05382
3240.29212,0.05411
3238.36337,0.05437
3236.43463,0.05445
3234.50588,0.05422
3232.57713,0.05396
3230.64839,0.05389
3228.71964,0.05417
3226.79090,0.05473
3224.86215,0.05493
3222.93341,0.05451
3221.00466,0.05407
3219.07592,0.05390
3217.14717,0.05368
3215.21843,0.05352
3213.28968,0.05363
3211.36094,0.05373
3209.43219,0.05368
3207.50345,0.05377
3205.57470,0.05408
3203.64596,0.05425
3201.71721,0.05408
3199.78846,0.05370
3197.85972,0.05345
3195.93097,0.05358
3194.00223,0.05389
3192.07348,0.05403
3190.14474,0.05386
3188.21599,0.05375
3186.28725,0.05387
3184.35850,0.05398
3182.42976,0.05397
3180.50101,0.05390
3178.57227,0.05382
3176.64352,0.05380
3174.71478,0.05394
3172.78603,0.05404
3170.85729,0.05404
3168.92854,0.05416
3166.99979,0.05435
3165.07105,0.05435
3163.14230,0.05417
3161.21356,0.05382
3159.28481,0.05350
3157.35607,0.05355
3155.42732,0.05386
3153.49858,0.05413
3151.56983,0.05423
3149.64109,0.05424
3147.71234,0.05425
3145.78360,0.05416
3143.85485,0.05390
3141.92611,0.05366
3139.99736,0.05370
3138.06861,0.05394
3136.13987,0.05390
3134.21112,0.05355
3132.28238,0.05338
3130.35363,0.05355
3128.42489,0.05366
3126.49614,0.05350
3124.56740,0.05332
3122.63865,0.05335
3120.70991,0.05366
3118.78116,0.05395
3116.85242,0.05383
3114.92367,0.05357
3112.99493,0.05368
3111.06618,0.05387
3109.13744,0.05385
3107.20869,0.05374
3105.27994,0.05368
3103.35120,0.05374
3101.42245,0.05369
3099.49371,0.05344
3097.56496,0.05331
3095.63622,0.05346
3093.70747,0.05354
3091.77873,0.05340
3089.84998,0.05335
3087.92124,0.05346
3085.99249,0.05353
3084.06375,0.05355
3082.13500,0.05369
3080.20626,0.05376
3078.27751,0.05355
3076.34877,0.05333
3074.42002,0.05326
3072.49127,0.05321
3070.56253,0.05318
3068.63378,0.05320
3066.70504,0.05315
3064.77629,0.05315
3062.84755,0.05328
3060.91880,0.05327
3058.99006,0.05313
3057.06131,0.05313
3055.13257,0.05307
3053.20382,0.05283
3051.27508,0.05268
3049.34633,0.05283
3047.41759,0.05293
3045.48884,0.05288
3043.56009,0.05289
3041.63135,0.05288
3039.70260,0.05287
3037.77386,0.05292
3035.84511,0.05289
3033.91637,0.05269
3031.98762,0.05254
3030.05888,0.05253
3028.13013,0.05255
3026.20139,0.05248
3024.27264,0.05244
3022.34390,0.05242
3020.41515,0.05221
3018.48641,0.05193
3016.55766,0.05190
3014.62892,0.05197
3012.70017,0.05204
3010.77142,0.05205
3008.84268,0.05193
3006.91393,0.05169
3004.98519,0.05144
3003.05644,0.05136
3001.12770,0.05141
2999.19895,0.05131
2997.27021,0.05110
2995.34146,0.05095
2993.41272,0.05088
2991.48397,0.05094
2989.55523,0.05097
2987.62648,0.05083
2985.69774,0.05082
2983.76899,0.05075
2981.84025,0.05045
2979.91150,0.05031
2977.98275,0.05037
2976.05401,0.05051
2974.12526,0.05075
2972.19652,0.05075
2970.26777,0.05047
2968.33903,0.05057
2966.41028,0.05112
2964.48154,0.05154
2962.55279,0.05171
2960.62405,0.05178
2958.69530,0.05180
2956.76656,0.05181
2954.83781,0.05191
2952.90907,0.05205
2950.98032,0.05219
2949.05157,0.05233
2947.12283,0.05244
2945.19408,0.05238
2943.26534,0.05230
2941.33659,0.05256
2939.40785,0.05303
2937.47910,0.05337
2935.55036,0.05367
2933.62161,0.05407
2931.69287,0.05459
2929.76412,0.05526
2927.83538,0.05600
2925.90663,0.05670
2923.97789,0.05740
2922.04914,0.05805
2920.12040,0.05847
2918.19165,0.05854
2916.26290,0.05846
2914.33416,0.05843
2912.40541,0.05825
2910.47667,0.05781
2908.54792,0.05741
2906.61918,0.05721
2904.69043,0.05708
2902.76169,0.05694
2900.83294,0.05675
2898.90420,0.05654
2896.97545,0.05641
2895.04671,0.05632
2893.11796,0.05628
2891.18922,0.05632
2889.26047,0.05620
2887.33172,0.05582
2885.40298,0.05550
2883.47423,0.05550
2881.54549,0.05565
2879.61674,0.05577
2877.68800,0.05586
2875.75925,0.05589
2873.83051,0.05597
2871.90176,0.05602
2869.97302,0.05580
2868.04427,0.05561
2866.11553,0.05576
2864.18678,0.05606
2862.25804,0.05630
2860.32929,0.05655
2858.40055,0.05704
2856.47180,0.05781
2854.54305,0.05846
2852.61431,0.05885
2850.68556,0.05925
2848.75682,0.05957
2846.82807,0.05946
2844.89933,0.05898
2842.97058,0.05850
2841.04184,0.05808
2839.11309,0.05775
2837.18435,0.05779
2835.25560,0.05792
2833.32686,0.05764
2831.39811,0.05717
2829.46937,0.05690
2827.54062,0.05685
2825.61188,0.05686
2823.68313,0.05682
2821.75438,0.05672
2819.82564,0.05667
2817.89689,0.05660
2815.96815,0.05636
2814.03940,0.05603
2812.11066,0.05579
2810.18191,0.05582
2808.25317,0.05612
2806.32442,0.05639
2804.39568,0.05647
2802.46693,0.05647
2800.53819,0.05648
2798.60944,0.05644
2796.68070,0.05639
2794.75195,0.05645
2792.82320,0.05644
2790.89446,0.05629
2788.96571,0.05619
2787.03697,0.05628
2785.10822,0.05647
2783.17948,0.05651
2781.25073,0.05627
2779.32199,0.05598
2777.39324,0.05589
2775.46450,0.05591
2773.53575,0.05577
2771.60701,0.05561
2769.67826,0.05574
2767.74952,0.05605
2765.82077,0.05625
2763.89203,0.05625
2761.96328,0.05613
2760.03453,0.05596
2758.10579,0.05592
2756.17704,0.05609
2754.24830,0.05627
2752.31955,0.05628
2750.39081,0.05611
2748.46206,0.05591
2746.53332,0.05587
2744.60457,0.05590
2742.67583,0.05586
2740.74708,0.05595
2738.81834,0.05627
2736.88959,0.05650
2734.96085,0.05652
2733.03210,0.05647
2731.10336,0.05626
2729.17461,0.05598
2727.24586,0.05593
2725.31712,0.05610
2723.38837,0.05629
2721.45963,0.05646
2719.53088,0.05655
2717.60214,0.05654
2715.67339,0.05650
2713.74465,0.05645
2711.81590,0.05650
2709.88716,0.05662
2707.95841,0.05660
2706.02967,0.05658
2704.10092,0.05679
2702.17218,0.05712
2700.24343,0.05735
2698.31468,0.05736
2696.38594,0.05732
2694.45719,0.05740
2692.52845,0.05754
2690.59970,0.05764
2688.67096,0.05773
2686.74221,0.05772
2684.81347,0.05766
2682.88472,0.05778
2680.95598,0.05807
2679.02723,0.05829
2677.09849,0.05843
2675.16974,0.05849
2673.24100,0.05847
2671.31225,0.05847
2669.38351,0.05852
2667.45476,0.05855
2665.52601,0.05859
2663.59727,0.05866
2661.66852,0.05873
2659.73978,0.05877
2657.81103,0.05887
2655.88229,0.05902
2653.95354,0.05918
2652.02480,0.05925
2650.09605,0.05908
2648.16731,0.05888
2646.23856,0.05893
2644.30982,0.05918
2642.38107,0.05945
2640.45233,0.05967
2638.52358,0.05980
2636.59484,0.05982
2634.66609,0.05977
2632.73734,0.05968
2630.80860,0.05967
2628.87985,0.05983
2626.95111,0.05999
2625.02236,0.06009
2623.09362,0.06028
2621.16487,0.06046
2619.23613,0.06042
2617.30738,0.06014
2615.37864,0.05989
2613.44989,0.05996
2611.52115,0.06028
2609.59240,0.06053
2607.66366,0.06056
2605.73491,0.06035
2603.80616,0.06011
2601.87742,0.06008
2599.94867,0.06018
2598.01993,0.06024
2596.09118,0.06023
2594.16244,0.06021
2592.23369,0.06031
2590.30495,0.06051
2588.37620,0.06069
2586.44746,0.06077
2584.51871,0.06072
2582.58997,0.06061
2580.66122,0.06054
2578.73248,0.06064
2576.80373,0.06088
2574.87499,0.06099
2572.94624,0.06083
2571.01749,0.06065
2569.08875,0.06067
2567.16000,0.06078
2565.23126,0.06091
2563.30251,0.06096
2561.37377,0.06087
2559.44502,0.06075
2557.51628,0.06076
2555.58753,0.06083
2553.65879,0.06090
2551.73004,0.06093
2549.80130,0.06088
2547.87255,0.06075
2545.94381,0.06060
2544.01506,0.06054
2542.08631,0.06064
2540.15757,0.06077
2538.22882,0.06086
2536.30008,0.06104
2534.37133,0.06131
2532.44259,0.06147
2530.51384,0.06146
2528.58510,0.06145
2526.65635,0.06160
2524.72761,0.06185
2522.79886,0.06210
2520.87012,0.06228
2518.94137,0.06241
2517.01263,0.06254
2515.08388,0.06274
2513.15514,0.06289
2511.22639,0.06287
2509.29764,0.06277
2507.36890,0.06277
2505.44015,0.06296
2503.51141,0.06320
2501.58266,0.06329
2499.65392,0.06317
2497.72517,0.06302
2495.79643,0.06296
2493.86768,0.06297
2491.93894,0.06306
2490.01019,0.06334
2488.08145,0.06360
2486.15270,0.06372
2484.22396,0.06383
2482.29521,0.06402
2480.36647,0.06421
2478.43772,0.06431
2476.50897,0.06432
2474.58023,0.06427
2472.65148,0.06433
2470.72274,0.06459
2468.79399,0.06493
2466.86525,0.06516
2464.93650,0.06529
2463.00776,0.06553
2461.07901,0.06580
2459.15027,0.06588
2457.22152,0.06588
2455.29278,0.06589
2453.36403,0.06593
2451.43529,0.06610
2449.50654,0.06629
2447.57779,0.06635
2445.64905,0.06633
2443.72030,0.06624
2441.79156,0.06616
2439.86281,0.06614
2437.93407,0.06619
2436.00532,0.06628
2434.07658,0.06627
2432.14783,0.06613
2430.21909,0.06599
2428.29034,0.06597
2426.36160,0.06607
2424.43285,0.06619
2422.50411,0.06631
2420.57536,0.06649
2418.64662,0.06671
2416.71787,0.06693
2414.78912,0.06704
2412.86038,0.06703
2410.93163,0.06711
2409.00289,0.06731
2407.07414,0.06748
2405.14540,0.06758
2403.21665,0.06771
2401.28791,0.06782
2399.35916,0.06784
2397.43042,0.06778
2395.50167,0.06767
2393.57293,0.06768
2391.64418,0.06787
2389.71544,0.06805
2387.78669,0.06811
2385.85795,0.06819
2383.92920,0.06835
2382.00045,0.06839
2380.07171,0.06824
2378.14296,0.06813
2376.21422,0.06818
2374.28547,0.06837
2372.35673,0.06864
2370.42798,0.06874
2368.49924,0.06865
2366.57049,0.06862
2364.64175,0.06870
2362.71300,0.06875
2360.78426,0.06872
2358.85551,0.06870
2356.92677,0.06879
2354.99802,0.06881
2353.06927,0.06865
2351.14053,0.06865
2349.21178,0.06886
2347.28304,0.06894
2345.35429,0.06874
2343.42555,0.06850
2341.49680,0.06849
2339.56806,0.06861
2337.63931,0.06862
2335.71057,0.06858
2333.78182,0.06863
2331.85308,0.06872
2329.92433,0.06881
2327.99559,0.06893
2326.06684,0.06912
2324.13810,0.06930
2322.20935,0.06944
2320.28060,0.06958
2318.35186,0.06973
2316.42311,0.06999
2314.49437,0.07033
2312.56562,0.07058
2310.63688,0.07070
2308.70813,0.07075
2306.77939,0.07077
2304.85064,0.07086
2302.92190,0.07105
2300.99315,0.07123
2299.06441,0.07141
2297.13566,0.07166
2295.20692,0.07190
2293.27817,0.07204
2291.34943,0.07210
2289.42068,0.07232
2287.49193,0.07272
2285.56319,0.07287
2283.63444,0.07275
2281.70570,0.07280
2279.77695,0.07305
2277.84821,0.07319
2275.91946,0.07324
2273.99072,0.07337
2272.06197,0.07354
2270.13323,0.07366
2268.20448,0.07384
2266.27574,0.07410
2264.34699,0.07425
2262.41825,0.07423
2260.48950,0.07412
2258.56075,0.07407
2256.63201,0.07417
2254.70326,0.07437
2252.77452,0.07451
2250.84577,0.07451
2248.91703,0.07452
2246.98828,0.07461
2245.05954,0.07461
2243.13079,0.07447
2241.20205,0.07436
2239.27330,0.07433
2237.34456,0.07432
2235.41581,0.07432
2233.48707,0.07432
2231.55832,0.07437
2229.62958,0.07440
2227.70083,0.07438
2225.77208,0.07435
2223.84334,0.07442
2221.91459,0.07455
2219.98585,0.07468
2218.05710,0.07476
2216.12836,0.07480
2214.19961,0.07481
2212.27087,0.07481
2210.34212,0.07485
2208.41338,0.07496
2206.48463,0.07502
2204.55589,0.07495
2202.62714,0.07480
2200.69840,0.07453
2198.76965,0.07418
2196.84090,0.07404
2194.91216,0.07417
2192.98341,0.07422
2191.05467,0.07397
2189.12592,0.07358
2187.19718,0.07326
2185.26843,0.07310
2183.33969,0.07303
2181.41094,0.07293
2179.48220,0.07272
2177.55345,0.07239
2175.62471,0.07203
2173.69596,0.07169
2171.76722,0.07132
2169.83847,0.07090
2167.90973,0.07044
2165.98098,0.06999
2164.05223,0.06969
2162.12349,0.06950
2160.19474,0.06928
2158.26600,0.06907
2156.33725,0.06886
2154.40851,0.06856
2152.47976,0.06813
2150.55102,0.06768
2148.62227,0.06731
2146.69353,0.06698
2144.76478,0.06660
2142.83604,0.06617
2140.90729,0.06580
2138.97855,0.06547
2137.04980,0.06523
2135.12106,0.06512
2133.19231,0.06499
2131.26356,0.06476
2129.33482,0.06458
2127.40607,0.06447
2125.47733,0.06425
2123.54858,0.06395
2121.61984,0.06373
2119.69109,0.06355
2117.76235,0.06333
2115.83360,0.06310
2113.90486,0.06293
2111.97611,0.06281
2110.04737,0.06274
2108.11862,0.06262
2106.18988,0.06245
2104.26113,0.06239
2102.33238,0.06233
2100.40364,0.06215
2098.47489,0.06209
2096.54615,0.06205
2094.61740,0.06184
2092.68866,0.06171
2090.75991,0.06177
2088.83117,0.06170
2086.90242,0.06144
2084.97368,0.06119
2083.04493,0.06109
2081.11619,0.06099
2079.18744,0.06080
2077.25870,0.06067
2075.32995,0.06062
2073.40121,0.06059
2071.47246,0.06054
2069.54371,0.06053
2067.61497,0.06072
2065.68622,0.06114
2063.75748,0.06142
2061.82873,0.06139
2059.89999,0.06128
2057.97124,0.06129
2056.04250,0.06137
2054.11375,0.06138
2052.18501,0.06138
2050.25626,0.06147
2048.32752,0.06164
2046.39877,0.06190
2044.47003,0.06211
2042.54128,0.06208
2040.61254,0.06188
2038.68379,0.06170
2036.75504,0.06162
2034.82630,0.06153
2032.89755,0.06135
2030.96881,0.06119
2029.04006,0.06109
2027.11132,0.06095
2025.18257,0.06081
2023.25383,0.06072
2021.32508,0.06064
2019.39634,0.06049
2017.46759,0.06032
2015.53885,0.06023
2013.61010,0.06021
2011.68136,0.06013
2009.75261,0.05998
2007.82386,0.05989
2005.89512,0.05997
2003.96637,0.06011
2002.03763,0.06020
2000.10888,0.06019
1998.18014,0.05999
1996.25139,0.05975
1994.32265,0.05967
1992.39390,0.05975
1990.46516,0.05988
1988.53641,0.05998
1986.60767,0.05995
1984.67892,0.05982
1982.75018,0.05976
1980.82143,0.05978
1978.89269,0.05968
1976.96394,0.05940
1975.03519,0.05929
1973.10645,0.05938
1971.17770,0.05927
1969.24896,0.05898
1967.32021,0.05886
1965.39147,0.05894
1963.46272,0.05903
1961.53398,0.05901
1959.60523,0.05896
1957.67649,0.05887
1955.74774,0.05872
1953.81900,0.05863
1951.89025,0.05864
1949.96151,0.05876
1948.03276,0.05899
1946.10402,0.05920
1944.17527,0.05923
1942.24652,0.05921
1940.31778,0.05930
1938.38903,0.05954
1936.46029,0.05986
1934.53154,0.06014
1932.60280,0.06025
1930.67405,0.06031
1928.74531,0.06047
1926.81656,0.06065
1924.88782,0.06065
1922.95907,0.06047
1921.03033,0.06033
1919.10158,0.06028
1917.17284,0.06016
1915.24409,0.05998
1913.31534,0.05981
1911.38660,0.05969
1909.45785,0.05950
1907.52911,0.05923
1905.60036,0.05904
1903.67162,0.05891
1901.74287,0.05860
1899.81413,0.05816
1897.88538,0.05780
1895.95664,0.05751
1894.02789,0.05716
1892.09915,0.05681
1890.17040,0.05657
1888.24166,0.05647
1886.31291,0.05647
1884.38417,0.05651
1882.45542,0.05649
1880.52667,0.05637
1878.59793,0.05615
1876.66918,0.05596
1874.74044,0.05586
1872.81169,0.05586
1870.88295,0.05586
1868.95420,0.05574
1867.02546,0.05554
1865.09671,0.05543
1863.16797,0.05542
1861.23922,0.05531
1859.31048,0.05497
1857.38173,0.05461
1855.45299,0.05448
1853.52424,0.05447
1851.59549,0.05437
1849.66675,0.05428
1847.73800,0.05422
1845.80926,0.05395
1843.88051,0.05343
1841.95177,0.05295
1840.02302,0.05266
1838.09428,0.05251
1836.16553,0.05230
1834.23679,0.05198
1832.30804,0.05163
1830.37930,0.05125
1828.45055,0.05076
1826.52181,0.05026
1824.59306,0.04989
1822.66432,0.04959
1820.73557,0.04920
1818.80682,0.04884
1816.87808,0.04860
1814.94933,0.04827
1813.02059,0.04784
1811.09184,0.04755
1809.16310,0.04732
1807.23435,0.04701
1805.30561,0.04675
1803.37686,0.04660
1801.44812,0.04642
1799.51937,0.04609
1797.59063,0.04579
1795.66188,0.04559
1793.73314,0.04527
1791.80439,0.04471
1789.87565,0.04423
1787.94690,0.04402
1786.01815,0.04392
1784.08941,0.04378
1782.16066,0.04363
1780.23192,0.04336
1778.30317,0.04293
1776.37443,0.04257
1774.44568,0.04234
1772.51694,0.04200
1770.58819,0.04149
1768.65945,0.04098
1766.73070,0.04048
1764.80196,0.03993
1762.87321,0.03921
1760.94447,0.03828
1759.01572,0.03738
1757.08697,0.03656
1755.15823,0.03564
1753.22948,0.03463
1751.30074,0.03361
1749.37199,0.03278
1747.44325,0.03238
1745.51450,0.03255
1743.58576,0.03344
1741.65701,0.03507
1739.72827,0.03764
1737.79952,0.04095
1735.87078,0.04455
1733.94203,0.04868
1732.01329,0.05280
1730.08454,0.05640
1728.15580,0.05986
1726.22705,0.06299
1724.29830,0.06544
1722.36956,0.06721
1720.44081,0.06857
1718.51207,0.06957
1716.58332,0.06991
1714.65458,0.06955
1712.72583,0.06891
1710.79709,0.06823
1708.86834,0.06739
1706.93960,0.06640
1705.01085,0.06549
1703.08211,0.06468
1701.15336,0.06382
1699.22462,0.06301
1697.29587,0.06241
1695.36713,0.06178
1693.43838,0.06112
1691.50963,0.06059
1689.58089,0.06024
1687.65214,0.06009
1685.72340,0.05996
1683.79465,0.05963
1681.86591,0.05928
1679.93716,0.05898
1678.00842,0.05859
1676.07967,0.05821
1674.15093,0.05799
1672.22218,0.05797
1670.29344,0.05804
1668.36469,0.05797
1666.43595,0.05776
1664.50720,0.05761
1662.57845,0.05748
1660.64971,0.05736
1658.72096,0.05741
1656.79222,0.05762
1654.86347,0.05771
1652.93473,0.05745
1651.00598,0.05721
1649.07724,0.05721
1647.14849,0.05701
1645.21975,0.05645
1643.29100,0.05614
1641.36226,0.05626
1639.43351,0.05639
1637.50477,0.05639
1635.57602,0.05641
1633.64728,0.05638
1631.71853,0.05617
1629.78978,0.05598
1627.86104,0.05587
1625.93229,0.05566
1624.00355,0.05536
1622.07480,0.05513
1620.14606,0.05501
1618.21731,0.05499
1616.28857,0.05504
1614.35982,0.05506
1612.43108,0.05502
1610.50233,0.05500
1608.57359,0.05507
1606.64484,0.05518
1604.71610,0.05533
1602.78735,0.05550
1600.85861,0.05555
1598.92986,0.05542
1597.00111,0.05524
1595.07237,0.05517
1593.14362,0.05522
1591.21488,0.05518
1589.28613,0.05498
1587.35739,0.05474
1585.42864,0.05448
1583.49990,0.05427
1581.57115,0.05421
1579.64241,0.05411
1577.71366,0.05378
1575.78492,0.05342
1573.85617,0.05332
1571.92743,0.05342
1569.99868,0.05347
1568.06993,0.05338
1566.14119,0.05327
1564.21244,0.05325
1562.28370,0.05334
1560.35495,0.05337
1558.42621,0.05316
1556.49746,0.05297
1554.56872,0.05282
1552.63997,0.05262
1550.71123,0.05250
1548.78248,0.05250
1546.85374,0.05254
1544.92499,0.05255
1542.99625,0.05250
1541.06750,0.05230
1539.13876,0.05200
1537.21001,0.05196
1535.28126,0.05212
1533.35252,0.05207
1531.42377,0.05174
1529.49503,0.05143
1527.56628,0.05115
1525.63754,0.05088
1523.70879,0.05063
1521.78005,0.05025
1519.85130,0.04970
1517.92256,0.04919
1515.99381,0.04900
1514.06507,0.04932
1512.13632,0.04991
1510.20758,0.05056
1508.27883,0.05125
1506.35008,0.05171
1504.42134,0.05175
1502.49259,0.05171
1500.56385,0.05168
1498.63510,0.05153
1496.70636,0.05115
1494.77761,0.05081
1492.84887,0.05068
1490.92012,0.05049
1488.99138,0.05000
1487.06263,0.04936
1485.13389,0.04877
1483.20514,0.04828
1481.27640,0.04782
1479.34765,0.04743
1477.41891,0.04714
1475.49016,0.04702
1473.56141,0.04724
1471.63267,0.04753
1469.70392,0.04762
1467.77518,0.04765
1465.84643,0.04774
1463.91769,0.04795
1461.98894,0.04828
1460.06020,0.04854
1458.13145,0.04870
1456.20271,0.04894
1454.27396,0.04914
1452.34522,0.04929
1450.41647,0.04954
1448.48773,0.04983
1446.55898,0.05006
1444.63024,0.05026
1442.70149,0.05051
1440.77274,0.05073
1438.84400,0.05076
1436.91525,0.05067
1434.98651,0.05066
1433.05776,0.05065
1431.12902,0.05038
1429.20027,0.04996
1427.27153,0.04973
1425.34278,0.04959
1423.41404,0.04933
1421.48529,0.04895
1419.55655,0.04844
1417.62780,0.04806
1415.69906,0.04801
1413.77031,0.04806
1411.84156,0.04815
1409.91282,0.04842
1407.98407,0.04881
1406.05533,0.04914
1404.12658,0.04920
1402.19784,0.04888
1400.26909,0.04840
1398.34035,0.04805
1396.41160,0.04800
1394.48286,0.04817
1392.55411,0.04836
1390.62537,0.04858
1388.69662,0.04882
1386.76788,0.04896
1384.83913,0.04898
1382.91039,0.04896
1380.98164,0.04895
1379.05289,0.04899
1377.12415,0.04905
1375.19540,0.04907
1373.26666,0.04900
1371.33791,0.04889
1369.40917,0.04884
1367.48042,0.04886
1365.55168,0.04886
1363.62293,0.04880
1361.69419,0.04873
1359.76544,0.04861
1357.83670,0.04846
1355.90795,0.04830
1353.97921,0.04807
1352.05046,0.04787
1350.12172,0.04778
1348.19297,0.04759
1346.26422,0.04712
1344.33548,0.04663
1342.40673,0.04642
1340.47799,0.04646
1338.54924,0.04658
1336.62050,0.04652
1334.69175,0.04612
1332.76301,0.04570
1330.83426,0.04554
1328.90552,0.04548
1326.97677,0.04535
1325.04803,0.04517
1323.11928,0.04494
1321.19054,0.04460
1319.26179,0.04417
1317.33304,0.04387
1315.40430,0.04371
1313.47555,0.04354
1311.54681,0.04342
1309.61806,0.04335
1307.68932,0.04315
1305.76057,0.04284
1303.83183,0.04263
1301.90308,0.04255
1299.97434,0.04246
1298.04559,0.04240
1296.11685,0.04266
1294.18810,0.04304
1292.25936,0.04301
1290.33061,0.04269
1288.40187,0.04249
1286.47312,0.04229
1284.54437,0.04189
1282.61563,0.04151
1280.68688,0.04141
1278.75814,0.04150
1276.82939,0.04159
1274.90065,0.04165
1272.97190,0.04179
1271.04316,0.04204
1269.11441,0.04230
1267.18567,0.04264
1265.25692,0.04309
1263.32818,0.04347
1261.39943,0.04360
1259.47069,0.04347
1257.54194,0.04336
1255.61320,0.04359
1253.68445,0.04402
1251.75570,0.04448
1249.82696,0.04510
1247.89821,0.04580
1245.96947,0.04623
1244.04072,0.04634
1242.11198,0.04646
1240.18323,0.04674
1238.25449,0.04704
1236.32574,0.04730
1234.39700,0.04755
1232.46825,0.04771
1230.53951,0.04769
1228.61076,0.04765
1226.68202,0.04782
1224.75327,0.04810
1222.82452,0.04813
1220.89578,0.04786
1218.96703,0.04766
1217.03829,0.04761
1215.10954,0.04749
1213.18080,0.04735
1211.25205,0.04735
1209.32331,0.04743
1207.39456,0.04755
1205.46582,0.04771
1203.53707,0.04795
1201.60833,0.04823
1199.67958,0.04854
1197.75084,0.04885
1195.82209,0.04907
1193.89335,0.04923
1191.96460,0.04952
1190.03585,0.05006
1188.10711,0.05085
1186.17836,0.05176
1184.24962,0.05261
1182.32087,0.05332
1180.39213,0.05393
1178.46338,0.05441
1176.53464,0.05476
1174.60589,0.05526
1172.67715,0.05611
1170.74840,0.05707
1168.81966,0.05798
1166.89091,0.05897
1164.96217,0.06003
1163.03342,0.06107
1161.10467,0.06214
1159.17593,0.06322
1157.24718,0.06428
1155.31844,0.06526
1153.38969,0.06611
1151.46095,0.06671
1149.53220,0.06693
1147.60346,0.06689
1145.67471,0.06673
1143.74597,0.06655
1141.81722,0.06634
1139.88848,0.06602
1137.95973,0.06578
1136.03099,0.06577
1134.10224,0.06572
1132.17350,0.06546
1130.24475,0.06518
1128.31600,0.06513
1126.38726,0.06540
1124.45851,0.06584
1122.52977,0.06628
1120.60102,0.06665
1118.67228,0.06718
1116.74353,0.06806
1114.81479,0.06893
1112.88604,0.06968
1110.95730,0.07061
1109.02855,0.07161
1107.09981,0.07239
1105.17106,0.07307
1103.24232,0.07384
1101.31357,0.07457
1099.38483,0.07502
1097.45608,0.07533
1095.52733,0.07572
1093.59859,0.07608
1091.66984,0.07636
1089.74110,0.07671
1087.81235,0.07719
1085.88361,0.07750
1083.95486,0.07742
1082.02612,0.07729
1080.09737,0.07766
1078.16863,0.07848
1076.23988,0.07914
1074.31114,0.07944
1072.38239,0.07975
1070.45365,0.08019
1068.52490,0.08066
1066.59615,0.08103
1064.66741,0.08129
1062.73866,0.08161
1060.80992,0.08208
1058.88117,0.08255
1056.95243,0.08267
1055.02368,0.08209
1053.09494,0.08117
1051.16619,0.08077
1049.23745,0.08113
1047.30870,0.08159
1045.37996,0.08164
1043.45121,0.08139
1041.52247,0.08129
1039.59372,0.08161
1037.66498,0.08201
1035.73623,0.08218
1033.80748,0.08231
1031.87874,0.08224
1029.94999,0.08180
1028.02125,0.08120
1026.09250,0.08057
1024.16376,0.08018
1022.23501,0.08016
1020.30627,0.08007
1018.37752,0.07966
1016.44878,0.07932
1014.52003,0.07917
1012.59129,0.07879
1010.66254,0.07807
1008.73380,0.07729
1006.80505,0.07668
1004.87631,0.07648
1002.94756,0.07651
1001.01881,0.07609
999.09007,0.07525
997.16132,0.07469
995.23258,0.07444
993.30383,0.07416
991.37509,0.07386
989.44634,0.07369
987.51760,0.07386
985.58885,0.07426
983.66011,0.07452
981.73136,0.07456
979.80262,0.07458
977.87387,0.07459
975.94513,0.07438
974.01638,0.07408
972.08763,0.07408
970.15889,0.07437
968.23014,0.07471
966.30140,0.07491
964.37265,0.07480
962.44391,0.07447
960.51516,0.07428
958.58642,0.07434
956.65767,0.07448
954.72893,0.07439
952.80018,0.07401
950.87144,0.07361
948.94269,0.07330
947.01395,0.07296
945.08520,0.07263
943.15646,0.07250
941.22771,0.07259
939.29896,0.07265
937.37022,0.07258
935.44147,0.07246
933.51273,0.07226
931.58398,0.07193
929.65524,0.07151
927.72649,0.07122
925.79775,0.07116
923.86900,0.07119
921.94026,0.07126
920.01151,0.07137
918.08277,0.07135
916.15402,0.07097
914.22528,0.07061
912.29653,0.07079
910.36779,0.07103
908.43904,0.07090
906.51029,0.07089
904.58155,0.07110
902.65280,0.07103
900.72406,0.07067
898.79531,0.07048
896.86657,0.07064
894.93782,0.07070
893.00908,0.07051
891.08033,0.07034
889.15159,0.07022
887.22284,0.07008
885.29410,0.06996
883.36535,0.06975
881.43661,0.06962
879.50786,0.06968
877.57911,0.06970
875.65037,0.06961
873.72162,0.06957
871.79288,0.06959
869.86413,0.06963
867.93539,0.06943
866.00664,0.06881
864.07790,0.06826
862.14915,0.06813
860.22041,0.06806
858.29166,0.06784
856.36292,0.06758
854.43417,0.06729
852.50543,0.06697
850.57668,0.06686
848.64794,0.06683
846.71919,0.06641
844.79044,0.06580
842.86170,0.06542
840.93295,0.06504
839.00421,0.06461
837.07546,0.06456
835.14672,0.06491
833.21797,0.06522
831.28923,0.06561
829.36048,0.06620
827.43174,0.06659
825.50299,0.06666
823.57425,0.06663
821.64550,0.06634
819.71676,0.06585
817.78801,0.06567
815.85926,0.06593
813.93052,0.06628
812.00177,0.06650
810.07303,0.06668
808.14428,0.06693
806.21554,0.06727
804.28679,0.06766
802.35805,0.06795
800.42930,0.06821
798.50056,0.06857
796.57181,0.06872
794.64307,0.06858
792.71432,0.06852
790.78558,0.06843
788.85683,0.06820
786.92809,0.06818
784.99934,0.06857
783.07059,0.06907
781.14185,0.06930
779.21310,0.06930
777.28436,0.06928
775.35561,0.06910
773.42687,0.06870
771.49812,0.06831
769.56938,0.06822
767.64063,0.06842
765.71189,0.06851
763.78314,0.06841
761.85440,0.06841
759.92565,0.06856
757.99691,0.06858
756.06816,0.06831
754.13942,0.06806
752.21067,0.06796
750.28192,0.06784
748.35318,0.06775
746.42443,0.06774
744.49569,0.06783
742.56694,0.06788
740.63820,0.06771
738.70945,0.06766
736.78071,0.06799
734.85196,0.06828
732.92322,0.06823
730.99447,0.06818
729.06573,0.06864
727.13698,0.06959
725.20824,0.07020
723.27949,0.07002
721.35074,0.06943
719.42200,0.06885
717.49325,0.06849
715.56451,0.06818
713.63576,0.06800
711.70702,0.06820
709.77827,0.06827
707.84953,0.06801
705.92078,0.06796
703.99204,0.06801
702.06329,0.06787
700.13455,0.06794
698.20580,0.06848
696.27706,0.06920
694.34831,0.06984
692.41957,0.07043
690.49082,0.07113
688.56207,0.07181
686.63333,0.07216
684.70458,0.07214
682.77584,0.07236
680.84709,0.07322
678.91835,0.07395
676.98960,0.07392
675.06086,0.07358
673.13211,0.07348
671.20337,0.07337
669.27462,0.07287
667.34588,0.07262
665.41713,0.07271
663.48839,0.07226
661.55964,0.07129
659.63090,0.07037
657.70215,0.06968
655.77340,0.06920
653.84466,0.06883
651.91591,0.06812
649.98717,0.06737
648.05842,0.06773
646.12968,0.06871
644.20093,0.06865
642.27219,0.06768
640.34344,0.06696
638.41470,0.06652
636.48595,0.06596
634.55721,0.06489
632.62846,0.06332
630.69972,0.06243
628.77097,0.06293
626.84222,0.06366
624.91348,0.06351
622.98473,0.06330
621.05599,0.06421
619.12724,0.06594
617.19850,0.06729
615.26975,0.06792
613.34101,0.06847
611.41226,0.06885
609.48352,0.06834
607.55477,0.06738
605.62603,0.06682
603.69728,0.06620
601.76854,0.06496
599.83979,0.06425
