7497.03301,0.79324
7495.10426,0.78475
7493.17552,0.78567
7491.24677,0.79435
7489.31803,0.79835
7487.38928,0.79487
7485.46054,0.78906
7483.53179,0.78355
7481.60305,0.78345
7479.67430,0.79009
7477.74556,0.79518
7475.81681,0.79295
7473.88807,0.78434
7471.95932,0.77443
7470.03057,0.76796
7468.10183,0.76346
7466.17308,0.76108
7464.24434,0.76454
7462.31559,0.76911
7460.38685,0.76681
7458.45810,0.75958
7456.52936,0.75479
7454.60061,0.75591
7452.67187,0.76062
7450.74312,0.76336
7448.81438,0.76157
7446.88563,0.75837
7444.95689,0.75627
7443.02814,0.75433
7441.09940,0.75176
7439.17065,0.74882
7437.24190,0.74659
7435.31316,0.74584
7433.38441,0.74532
7431.45567,0.74365
7429.52692,0.74428
7427.59818,0.74998
7425.66943,0.75331
7423.74069,0.75039
7421.81194,0.74852
7419.88320,0.74706
7417.95445,0.74176
7416.02571,0.73644
7414.09696,0.73155
7412.16822,0.72608
7410.23947,0.72370
7408.31073,0.72343
7406.38198,0.72132
7404.45323,0.71763
7402.52449,0.71491
7400.59574,0.71467
7398.66700,0.71368
7396.73825,0.70854
7394.80951,0.70419
7392.88076,0.70710
7390.95202,0.71303
7389.02327,0.71296
7387.09453,0.70827
7385.16578,0.70597
7383.23704,0.70554
7381.30829,0.70521
7379.37955,0.70760
7377.45080,0.71053
7375.52205,0.70779
7373.59331,0.70095
7371.66456,0.69883
7369.73582,0.70344
7367.80707,0.70657
7365.87833,0.70339
7363.94958,0.69776
7362.02084,0.69356
7360.09209,0.69113
7358.16335,0.69090
7356.23460,0.69351
7354.30586,0.69860
7352.37711,0.70254
7350.44837,0.69760
7348.51962,0.68702
7346.59088,0.68477
7344.66213,0.69175
7342.73338,0.69698
7340.80464,0.69464
7338.87589,0.68867
7336.94715,0.68529
7335.01840,0.68491
7333.08966,0.68437
7331.16091,0.68159
7329.23217,0.67674
7327.30342,0.67331
7325.37468,0.67460
7323.44593,0.67704
7321.51719,0.67650
7319.58844,0.67433
7317.65970,0.67102
7315.73095,0.66806
7313.80221,0.66743
7311.87346,0.66646
7309.94471,0.66521
7308.01597,0.66564
7306.08722,0.66623
7304.15848,0.66744
7302.22973,0.66970
7300.30099,0.66884
7298.37224,0.66479
7296.44350,0.66228
7294.51475,0.66045
7292.58601,0.65813
7290.65726,0.65779
7288.72852,0.65816
7286.79977,0.65629
7284.87103,0.65313
7282.94228,0.65247
7281.01353,0.65379
7279.08479,0.65377
7277.15604,0.65529
7275.22730,0.66114
7273.29855,0.66718
7271.36981,0.66891
7269.44106,0.66619
7267.51232,0.66185
7265.58357,0.65874
7263.65483,0.65797
7261.72608,0.65947
7259.79734,0.66301
7257.86859,0.66431
7255.93985,0.66008
7254.01110,0.65711
7252.08236,0.65906
7250.15361,0.65908
7248.22486,0.65422
7246.29612,0.64907
7244.36737,0.64701
7242.43863,0.64741
7240.50988,0.64921
7238.58114,0.65206
7236.65239,0.65482
7234.72365,0.65620
7232.79490,0.65597
7230.86616,0.65388
7228.93741,0.64878
7227.00867,0.64192
7225.07992,0.63832
7223.15118,0.64091
7221.22243,0.64700
7219.29369,0.65106
7217.36494,0.64830
7215.43619,0.64129
7213.50745,0.63900
7211.57870,0.64227
7209.64996,0.64420
7207.72121,0.64292
7205.79247,0.64046
7203.86372,0.63819
7201.93498,0.63607
7200.00623,0.63305
7198.07749,0.63046
7196.14874,0.63072
7194.22000,0.63258
7192.29125,0.63237
7190.36251,0.62718
7188.43376,0.61711
7186.50501,0.60876
7184.57627,0.60937
7182.64752,0.61527
7180.71878,0.61760
7178.79003,0.61649
7176.86129,0.61686
7174.93254,0.61786
7173.00380,0.61718
7171.07505,0.61606
7169.14631,0.61494
7167.21756,0.61393
7165.28882,0.61311
7163.36007,0.61062
7161.43133,0.60708
7159.50258,0.60581
7157.57384,0.60847
7155.64509,0.61239
7153.71634,0.61229
7151.78760,0.60868
7149.85885,0.60589
7147.93011,0.60405
7146.00136,0.60210
7144.07262,0.60083
7142.14387,0.60070
7140.21513,0.60127
7138.28638,0.60080
7136.35764,0.59718
7134.42889,0.59311
7132.50015,0.59141
7130.57140,0.58832
7128.64266,0.58411
7126.71391,0.58145
7124.78516,0.57697
7122.85642,0.57187
7120.92767,0.57042
7118.99893,0.57005
7117.07018,0.56857
7115.14144,0.56782
7113.21269,0.56750
7111.28395,0.56661
7109.35520,0.56621
7107.42646,0.56444
7105.49771,0.55942
7103.56897,0.55539
7101.64022,0.55382
7099.71148,0.55109
7097.78273,0.54942
7095.85399,0.55256
7093.92524,0.55609
7091.99649,0.55411
7090.06775,0.54698
7088.13900,0.53965
7086.21026,0.53615
7084.28151,0.53429
7082.35277,0.53143
7080.42402,0.52948
7078.49528,0.52795
7076.56653,0.52432
7074.63779,0.52078
7072.70904,0.52048
7070.78030,0.52221
7068.85155,0.52270
7066.92281,0.52011
7064.99406,0.51573
7063.06532,0.51324
7061.13657,0.51371
7059.20782,0.51432
7057.27908,0.51203
7055.35033,0.50702
7053.42159,0.50393
7051.49284,0.50443
7049.56410,0.50413
7047.63535,0.50103
7045.70661,0.49711
7043.77786,0.49416
7041.84912,0.49228
7039.92037,0.49071
7037.99163,0.48914
7036.06288,0.48766
7034.13414,0.48663
7032.20539,0.48532
7030.27664,0.48281
7028.34790,0.48009
7026.41915,0.47691
7024.49041,0.47353
7022.56166,0.47260
7020.63292,0.47337
7018.70417,0.47303
7016.77543,0.47216
7014.84668,0.47193
7012.91794,0.47106
7010.98919,0.46824
7009.06045,0.46482
7007.13170,0.46263
7005.20296,0.46226
7003.27421,0.46233
7001.34547,0.46053
6999.41672,0.45869
6997.48797,0.45879
6995.55923,0.45879
6993.63048,0.45799
6991.70174,0.45628
6989.77299,0.45342
6987.84425,0.45102
6985.91550,0.45018
6983.98676,0.45012
6982.05801,0.45009
6980.12927,0.45079
6978.20052,0.45118
6976.27178,0.44947
6974.34303,0.44879
6972.41429,0.45101
6970.48554,0.45222
6968.55680,0.45090
6966.62805,0.45065
6964.69930,0.45293
6962.77056,0.45419
6960.84181,0.45225
6958.91307,0.45028
6956.98432,0.45065
6955.05558,0.45138
6953.12683,0.45144
6951.19809,0.45223
6949.26934,0.45361
6947.34060,0.45364
6945.41185,0.45151
6943.48311,0.44909
6941.55436,0.44863
6939.62562,0.44924
6937.69687,0.44870
6935.76812,0.44824
6933.83938,0.44958
6931.91063,0.45082
6929.98189,0.45145
6928.05314,0.45145
6926.12440,0.44876
6924.19565,0.44538
6922.26691,0.44373
6920.33816,0.44320
6918.40942,0.44496
6916.48067,0.44849
6914.55193,0.45049
6912.62318,0.45019
6910.69444,0.44917
6908.76569,0.44877
6906.83695,0.45073
6904.90820,0.45552
6902.97945,0.45816
6901.05071,0.45518
6899.12196,0.45204
6897.19322,0.45302
6895.26447,0.45430
6893.33573,0.45305
6891.40698,0.45172
6889.47824,0.45083
6887.54949,0.45046
6885.62075,0.45290
6883.69200,0.45679
6881.76326,0.45802
6879.83451,0.45515
6877.90577,0.45076
6875.97702,0.44763
6874.04828,0.44671
6872.11953,0.44834
6870.19078,0.45031
6868.26204,0.45053
6866.33329,0.45151
6864.40455,0.45540
6862.47580,0.45942
6860.54706,0.45969
6858.61831,0.45581
6856.68957,0.45140
6854.76082,0.45025
6852.83208,0.45125
6850.90333,0.45183
6848.97459,0.45193
6847.04584,0.45193
6845.11710,0.45252
6843.18835,0.45412
6841.25960,0.45629
6839.33086,0.45917
6837.40211,0.46218
6835.47337,0.46284
6833.54462,0.45993
6831.61588,0.45586
6829.68713,0.45297
6827.75839,0.45282
6825.82964,0.45672
6823.90090,0.46175
6821.97215,0.46320
6820.04341,0.46139
6818.11466,0.46048
6816.18592,0.46186
6814.25717,0.46343
6812.32843,0.46384
6810.39968,0.46377
6808.47093,0.46357
6806.54219,0.46288
6804.61344,0.46367
6802.68470,0.46631
6800.75595,0.46773
6798.82721,0.46794
6796.89846,0.46813
6794.96972,0.46725
6793.04097,0.46556
6791.11223,0.46483
6789.18348,0.46541
6787.25474,0.46610
6785.32599,0.46665
6783.39725,0.46681
6781.46850,0.46584
6779.53975,0.46547
6777.61101,0.46611
6775.68226,0.46485
6773.75352,0.46238
6771.82477,0.46239
6769.89603,0.46502
6767.96728,0.46778
6766.03854,0.46926
6764.10979,0.46948
6762.18105,0.46941
6760.25230,0.46951
6758.32356,0.46877
6756.39481,0.46703
6754.46607,0.46694
6752.53732,0.47084
6750.60858,0.47598
6748.67983,0.47779
6746.75108,0.47675
6744.82234,0.47588
6742.89359,0.47576
6740.96485,0.47573
6739.03610,0.47619
6737.10736,0.47717
6735.17861,0.47752
6733.24987,0.47724
6731.32112,0.47712
6729.39238,0.47744
6727.46363,0.47837
6725.53489,0.47868
6723.60614,0.47716
6721.67740,0.47577
6719.74865,0.47711
6717.81991,0.48040
6715.89116,0.48271
6713.96241,0.48314
6712.03367,0.48331
6710.10492,0.48343
6708.17618,0.48266
6706.24743,0.48203
6704.31869,0.48219
6702.38994,0.48340
6700.46120,0.48600
6698.53245,0.48763
6696.60371,0.48678
6694.67496,0.48555
6692.74622,0.48620
6690.81747,0.48828
6688.88873,0.48975
6686.95998,0.49093
6685.03123,0.49291
6683.10249,0.49349
6681.17374,0.49191
6679.24500,0.49115
6677.31625,0.49233
6675.38751,0.49385
6673.45876,0.49471
6671.53002,0.49486
6669.60127,0.49441
6667.67253,0.49390
6665.74378,0.49396
6663.81504,0.49459
6661.88629,0.49558
6659.95755,0.49726
6658.02880,0.49915
6656.10006,0.49975
6654.17131,0.49971
6652.24256,0.50030
6650.31382,0.50043
6648.38507,0.50086
6646.45633,0.50306
6644.52758,0.50519
6642.59884,0.50587
6640.67009,0.50504
6638.74135,0.50387
6636.81260,0.50499
6634.88386,0.50803
6632.95511,0.51022
6631.02637,0.51091
6629.09762,0.51030
6627.16888,0.50818
6625.24013,0.50645
6623.31139,0.50670
6621.38264,0.50786
6619.45389,0.50904
6617.52515,0.51014
6615.59640,0.51163
6613.66766,0.51377
6611.73891,0.51555
6609.81017,0.51624
6607.88142,0.51608
6605.95268,0.51517
6604.02393,0.51374
6602.09519,0.51331
6600.16644,0.51459
6598.23770,0.51583
6596.30895,0.51561
6594.38021,0.51497
6592.45146,0.51582
6590.52271,0.51697
6588.59397,0.51592
6586.66522,0.51463
6584.73648,0.51628
6582.80773,0.51855
6580.87899,0.51863
6578.95024,0.51862
6577.02150,0.51898
6575.09275,0.51799
6573.16401,0.51707
6571.23526,0.51890
6569.30652,0.52290
6567.37777,0.52550
6565.44903,0.52638
6563.52028,0.52696
6561.59154,0.52618
6559.66279,0.52520
6557.73404,0.52576
6555.80530,0.52609
6553.87655,0.52483
6551.94781,0.52281
6550.01906,0.52288
6548.09032,0.52580
6546.16157,0.52738
6544.23283,0.52611
6542.30408,0.52506
6540.37534,0.52563
6538.44659,0.52676
6536.51785,0.52686
6534.58910,0.52691
6532.66036,0.52841
6530.73161,0.52958
6528.80287,0.52952
6526.87412,0.52953
6524.94537,0.52935
6523.01663,0.52733
6521.08788,0.52429
6519.15914,0.52353
6517.23039,0.52551
6515.30165,0.52727
6513.37290,0.52714
6511.44416,0.52697
6509.51541,0.52827
6507.58667,0.52930
6505.65792,0.52835
6503.72918,0.52685
6501.80043,0.52716
6499.87169,0.52848
6497.94294,0.52838
6496.01419,0.52750
6494.08545,0.52846
6492.15670,0.53087
6490.22796,0.53222
6488.29921,0.53251
6486.37047,0.53222
6484.44172,0.53153
6482.51298,0.53139
6480.58423,0.53081
6478.65549,0.52932
6476.72674,0.52915
6474.79800,0.53090
6472.86925,0.53283
6470.94051,0.53395
6469.01176,0.53406
6467.08302,0.53367
6465.15427,0.53360
6463.22552,0.53343
6461.29678,0.53329
6459.36803,0.53331
6457.43929,0.53287
6455.51054,0.53249
6453.58180,0.53175
6451.65305,0.53028
6449.72431,0.52982
6447.79556,0.53097
6445.86682,0.53233
6443.93807,0.53272
6442.00933,0.53269
6440.08058,0.53347
6438.15184,0.53451
6436.22309,0.53471
6434.29434,0.53361
6432.36560,0.53155
6430.43685,0.53069
6428.50811,0.53178
6426.57936,0.53279
6424.65062,0.53210
6422.72187,0.53044
6420.79313,0.53070
6418.86438,0.53264
6416.93564,0.53349
6415.00689,0.53419
6413.07815,0.53565
6411.14940,0.53661
6409.22066,0.53742
6407.29191,0.53861
6405.36317,0.53958
6403.43442,0.53938
6401.50567,0.53839
6399.57693,0.53839
6397.64818,0.53912
6395.71944,0.53895
6393.79069,0.53792
6391.86195,0.53658
6389.93320,0.53576
6388.00446,0.53641
6386.07571,0.53831
6384.14697,0.54111
6382.21822,0.54358
6380.28948,0.54292
6378.36073,0.53959
6376.43199,0.53759
6374.50324,0.53804
6372.57450,0.53921
6370.64575,0.54075
6368.71700,0.54203
6366.78826,0.54204
6364.85951,0.54182
6362.93077,0.54212
6361.00202,0.54302
6359.07328,0.54528
6357.14453,0.54715
6355.21579,0.54624
6353.28704,0.54447
6351.35830,0.54449
6349.42955,0.54500
6347.50081,0.54347
6345.57206,0.54194
6343.64332,0.54382
6341.71457,0.54651
6339.78582,0.54658
6337.85708,0.54487
6335.92833,0.54331
6333.99959,0.54309
6332.07084,0.54317
6330.14210,0.54256
6328.21335,0.54303
6326.28461,0.54545
6324.35586,0.54868
6322.42712,0.55097
6320.49837,0.55091
6318.56963,0.54978
6316.64088,0.54958
6314.71214,0.54958
6312.78339,0.54827
6310.85465,0.54635
6308.92590,0.54647
6306.99715,0.54942
6305.06841,0.55242
6303.13966,0.55281
6301.21092,0.55140
6299.28217,0.55067
6297.35343,0.55085
6295.42468,0.55105
6293.49594,0.55155
6291.56719,0.55195
6289.63845,0.55226
6287.70970,0.55395
6285.78096,0.55625
6283.85221,0.55681
6281.92347,0.55579
6279.99472,0.55454
6278.06598,0.55436
6276.13723,0.55567
6274.20848,0.55702
6272.27974,0.55753
6270.35099,0.55713
6268.42225,0.55619
6266.49350,0.55537
6264.56476,0.55471
6262.63601,0.55505
6260.70727,0.55704
6258.77852,0.55897
6256.84978,0.55941
6254.92103,0.55918
6252.99229,0.55935
6251.06354,0.55992
6249.13480,0.56033
6247.20605,0.56023
6245.27730,0.55962
6243.34856,0.55919
6241.41981,0.56010
6239.49107,0.56216
6237.56232,0.56406
6235.63358,0.56520
6233.70483,0.56560
6231.77609,0.56532
6229.84734,0.56453
6227.91860,0.56424
6225.98985,0.56535
6224.06111,0.56725
6222.13236,0.56887
6220.20362,0.56935
6218.27487,0.56834
6216.34613,0.56667
6214.41738,0.56594
6212.48863,0.56619
6210.55989,0.56584
6208.63114,0.56505
6206.70240,0.56548
6204.77365,0.56707
6202.84491,0.56783
6200.91616,0.56666
6198.98742,0.56498
6197.05867,0.56403
6195.12993,0.56418
6193.20118,0.56597
6191.27244,0.56803
6189.34369,0.56803
6187.41495,0.56572
6185.48620,0.56249
6183.55746,0.55980
6181.62871,0.55792
6179.69996,0.55644
6177.77122,0.55580
6175.84247,0.55620
6173.91373,0.55658
6171.98498,0.55601
6170.05624,0.55445
6168.12749,0.55277
6166.19875,0.55192
6164.27000,0.55202
6162.34126,0.55253
6160.41251,0.55320
6158.48377,0.55409
6156.55502,0.55522
6154.62628,0.55707
6152.69753,0.55934
6150.76878,0.56079
6148.84004,0.56126
6146.91129,0.56162
6144.98255,0.56245
6143.05380,0.56389
6141.12506,0.56547
6139.19631,0.56622
6137.26757,0.56574
6135.33882,0.56461
6133.41008,0.56328
6131.48133,0.56194
6129.55259,0.56154
6127.62384,0.56282
6125.69510,0.56478
6123.76635,0.56668
6121.83761,0.56792
6119.90886,0.56635
6117.98011,0.56271
6116.05137,0.56034
6114.12262,0.56030
6112.19388,0.56229
6110.26513,0.56495
6108.33639,0.56631
6106.40764,0.56626
6104.47890,0.56516
6102.55015,0.56362
6100.62141,0.56296
6098.69266,0.56293
6096.76392,0.56235
6094.83517,0.56108
6092.90643,0.55918
6090.97768,0.55668
6089.04893,0.55420
6087.12019,0.55234
6085.19144,0.55122
6083.26270,0.55068
6081.33395,0.54972
6079.40521,0.54802
6077.47646,0.54715
6075.54772,0.54686
6073.61897,0.54477
6071.69023,0.54064
6069.76148,0.53642
6067.83274,0.53361
6065.90399,0.53189
6063.97525,0.52985
6062.04650,0.52723
6060.11776,0.52457
6058.18901,0.52176
6056.26026,0.51874
6054.33152,0.51576
6052.40277,0.51289
6050.47403,0.50979
6048.54528,0.50657
6046.61654,0.50376
6044.68779,0.50101
6042.75905,0.49773
6040.83030,0.49425
6038.90156,0.49060
6036.97281,0.48628
6035.04407,0.48207
6033.11532,0.47880
6031.18658,0.47508
6029.25783,0.47013
6027.32909,0.46555
6025.40034,0.46241
6023.47159,0.45975
6021.54285,0.45645
6019.61410,0.45252
6017.68536,0.44833
6015.75661,0.44514
6013.82787,0.44366
6011.89912,0.44208
6009.97038,0.43842
6008.04163,0.43320
6006.11289,0.42898
6004.18414,0.42670
6002.25540,0.42396
6000.32665,0.41975
5998.39791,0.41603
5996.46916,0.41427
5994.54041,0.41405
5992.61167,0.41388
5990.68292,0.41224
5988.75418,0.40947
5986.82543,0.40752
5984.89669,0.40723
5982.96794,0.40795
5981.03920,0.40807
5979.11045,0.40676
5977.18171,0.40579
5975.25296,0.40577
5973.32422,0.40510
5971.39547,0.40407
5969.46673,0.40365
5967.53798,0.40308
5965.60924,0.40216
5963.68049,0.40196
5961.75174,0.40267
5959.82300,0.40344
5957.89425,0.40314
5955.96551,0.40148
5954.03676,0.39923
5952.10802,0.39719
5950.17927,0.39620
5948.25053,0.39658
5946.32178,0.39678
5944.39304,0.39545
5942.46429,0.39393
5940.53555,0.39401
5938.60680,0.39537
5936.67806,0.39679
5934.74931,0.39719
5932.82057,0.39617
5930.89182,0.39513
5928.96307,0.39545
5927.03433,0.39647
5925.10558,0.39688
5923.17684,0.39590
5921.24809,0.39415
5919.31935,0.39344
5917.39060,0.39416
5915.46186,0.39453
5913.53311,0.39338
5911.60437,0.39203
5909.67562,0.39115
5907.74688,0.38948
5905.81813,0.38813
5903.88939,0.38903
5901.96064,0.39008
5900.03189,0.38964
5898.10315,0.38962
5896.17440,0.39008
5894.24566,0.38928
5892.31691,0.38810
5890.38817,0.38793
5888.45942,0.38796
5886.53068,0.38692
5884.60193,0.38507
5882.67319,0.38400
5880.74444,0.38459
5878.81570,0.38591
5876.88695,0.38718
5874.95821,0.38817
5873.02946,0.38824
5871.10072,0.38791
5869.17197,0.38784
5867.24322,0.38712
5865.31448,0.38600
5863.38573,0.38573
5861.45699,0.38589
5859.52824,0.38589
5857.59950,0.38598
5855.67075,0.38593
5853.74201,0.38556
5851.81326,0.38537
5849.88452,0.38574
5847.95577,0.38632
5846.02703,0.38568
5844.09828,0.38335
5842.16954,0.38135
5840.24079,0.38079
5838.31205,0.38067
5836.38330,0.38053
5834.45455,0.38025
5832.52581,0.37879
5830.59706,0.37609
5828.66832,0.37379
5826.73957,0.37255
5824.81083,0.37185
5822.88208,0.37135
5820.95334,0.37089
5819.02459,0.37011
5817.09585,0.36834
5815.16710,0.36661
5813.23836,0.36661
5811.30961,0.36715
5809.38087,0.36714
5807.45212,0.36741
5805.52337,0.36714
5803.59463,0.36596
5801.66588,0.36572
5799.73714,0.36637
5797.80839,0.36652
5795.87965,0.36640
5793.95090,0.36728
5792.02216,0.36909
5790.09341,0.36995
5788.16467,0.36987
5786.23592,0.37066
5784.30718,0.37223
5782.37843,0.37393
5780.44969,0.37567
5778.52094,0.37667
5776.59220,0.37660
5774.66345,0.37650
5772.73470,0.37728
5770.80596,0.37869
5768.87721,0.38059
5766.94847,0.38335
5765.01972,0.38592
5763.09098,0.38716
5761.16223,0.38777
5759.23349,0.38846
5757.30474,0.38918
5755.37600,0.39048
5753.44725,0.39272
5751.51851,0.39455
5749.58976,0.39519
5747.66102,0.39578
5745.73227,0.39735
5743.80352,0.39932
5741.87478,0.40054
5739.94603,0.40110
5738.01729,0.40165
5736.08854,0.40222
5734.15980,0.40320
5732.23105,0.40470
5730.30231,0.40596
5728.37356,0.40693
5726.44482,0.40829
5724.51607,0.40965
5722.58733,0.41026
5720.65858,0.41078
5718.72984,0.41193
5716.80109,0.41368
5714.87235,0.41577
5712.94360,0.41736
5711.01485,0.41768
5709.08611,0.41749
5707.15736,0.41809
5705.22862,0.41953
5703.29987,0.42088
5701.37113,0.42131
5699.44238,0.42143
5697.51364,0.42218
5695.58489,0.42294
5693.65615,0.42381
5691.72740,0.42527
5689.79866,0.42626
5687.86991,0.42644
5685.94117,0.42653
5684.01242,0.42650
5682.08368,0.42631
5680.15493,0.42639
5678.22618,0.42676
5676.29744,0.42691
5674.36869,0.42710
5672.43995,0.42794
5670.51120,0.42910
5668.58246,0.43029
5666.65371,0.43125
5664.72497,0.43121
5662.79622,0.43037
5660.86748,0.43000
5658.93873,0.43078
5657.00999,0.43213
5655.08124,0.43268
5653.15250,0.43237
5651.22375,0.43268
5649.29500,0.43402
5647.36626,0.43540
5645.43751,0.43638
5643.50877,0.43724
5641.58002,0.43821
5639.65128,0.43887
5637.72253,0.43929
5635.79379,0.44020
5633.86504,0.44106
5631.93630,0.44102
5630.00755,0.44094
5628.07881,0.44189
5626.15006,0.44316
5624.22132,0.44377
5622.29257,0.44419
5620.36383,0.44492
5618.43508,0.44539
5616.50633,0.44547
5614.57759,0.44570
5612.64884,0.44649
5610.72010,0.44754
5608.79135,0.44784
5606.86261,0.44763
5604.93386,0.44796
5603.00512,0.44830
5601.07637,0.44806
5599.14763,0.44809
5597.21888,0.44872
5595.29014,0.44919
5593.36139,0.44923
5591.43265,0.44931
5589.50390,0.44975
5587.57516,0.45046
5585.64641,0.45079
5583.71766,0.45048
5581.78892,0.45061
5579.86017,0.45206
5577.93143,0.45394
5576.00268,0.45441
5574.07394,0.45326
5572.14519,0.45243
5570.21645,0.45294
5568.28770,0.45369
5566.35896,0.45378
5564.43021,0.45376
5562.50147,0.45426
5560.57272,0.45539
5558.64398,0.45683
5556.71523,0.45783
5554.78648,0.45774
5552.85774,0.45714
5550.92899,0.45720
5549.00025,0.45743
5547.07150,0.45710
5545.14276,0.45721
5543.21401,0.45841
5541.28527,0.45978
5539.35652,0.46019
5537.42778,0.45967
5535.49903,0.45942
5533.57029,0.45985
5531.64154,0.46042
5529.71280,0.46141
5527.78405,0.46273
5525.85531,0.46316
5523.92656,0.46271
5521.99781,0.46289
5520.06907,0.46381
5518.14032,0.46455
5516.21158,0.46499
5514.28283,0.46547
5512.35409,0.46638
5510.42534,0.46765
5508.49660,0.46819
5506.56785,0.46767
5504.63911,0.46755
5502.71036,0.46852
5500.78162,0.46964
5498.85287,0.47026
5496.92413,0.47045
5494.99538,0.47052
5493.06664,0.47085
5491.13789,0.47166
5489.20914,0.47286
5487.28040,0.47380
5485.35165,0.47416
5483.42291,0.47466
5481.49416,0.47538
5479.56542,0.47516
5477.63667,0.47445
5475.70793,0.47470
5473.77918,0.47538
5471.85044,0.47594
5469.92169,0.47686
5467.99295,0.47754
5466.06420,0.47766
5464.13546,0.47811
5462.20671,0.47901
5460.27796,0.47972
5458.34922,0.48029
5456.42047,0.48091
5454.49173,0.48111
5452.56298,0.48108
5450.63424,0.48199
5448.70549,0.48367
5446.77675,0.48441
5444.84800,0.48426
5442.91926,0.48458
5440.99051,0.48505
5439.06177,0.48548
5437.13302,0.48659
5435.20428,0.48815
5433.27553,0.48944
5431.34679,0.49009
5429.41804,0.49019
5427.48929,0.49045
5425.56055,0.49143
5423.63180,0.49275
5421.70306,0.49366
5419.77431,0.49427
5417.84557,0.49490
5415.91682,0.49528
5413.98808,0.49544
5412.05933,0.49608
5410.13059,0.49704
5408.20184,0.49728
5406.27310,0.49722
5404.34435,0.49791
5402.41561,0.49891
5400.48686,0.49927
5398.55811,0.49859
5396.62937,0.49760
5394.70062,0.49783
5392.77188,0.49925
5390.84313,0.50037
5388.91439,0.50042
5386.98564,0.49978
5385.05690,0.49906
5383.12815,0.49824
5381.19941,0.49752
5379.27066,0.49748
5377.34192,0.49784
5375.41317,0.49824
5373.48443,0.49854
5371.55568,0.49830
5369.62694,0.49746
5367.69819,0.49665
5365.76944,0.49677
5363.84070,0.49776
5361.91195,0.49815
5359.98321,0.49714
5358.05446,0.49548
5356.12572,0.49411
5354.19697,0.49342
5352.26823,0.49315
5350.33948,0.49296
5348.41074,0.49255
5346.48199,0.49156
5344.55325,0.49006
5342.62450,0.48864
5340.69576,0.48806
5338.76701,0.48820
5336.83827,0.48782
5334.90952,0.48618
5332.98077,0.48391
5331.05203,0.48213
5329.12328,0.48104
5327.19454,0.47972
5325.26579,0.47763
5323.33705,0.47507
5321.40830,0.47268
5319.47956,0.47085
5317.55081,0.46911
5315.62207,0.46675
5313.69332,0.46374
5311.76458,0.46045
5309.83583,0.45688
5307.90709,0.45289
5305.97834,0.44883
5304.04959,0.44508
5302.12085,0.44135
5300.19210,0.43712
5298.26336,0.43283
5296.33461,0.42879
5294.40587,0.42443
5292.47712,0.41942
5290.54838,0.41390
5288.61963,0.40858
5286.69089,0.40379
5284.76214,0.39866
5282.83340,0.39292
5280.90465,0.38675
5278.97591,0.38014
5277.04716,0.37398
5275.11842,0.36863
5273.18967,0.36304
5271.26092,0.35698
5269.33218,0.35117
5267.40343,0.34578
5265.47469,0.34024
5263.54594,0.33447
5261.61720,0.32915
5259.68845,0.32440
5257.75971,0.31996
5255.83096,0.31582
5253.90222,0.31164
5251.97347,0.30704
5250.04473,0.30230
5248.11598,0.29814
5246.18724,0.29500
5244.25849,0.29255
5242.32975,0.29015
5240.40100,0.28761
5238.47225,0.28480
5236.54351,0.28196
5234.61476,0.28017
5232.68602,0.27962
5230.75727,0.27891
5228.82853,0.27727
5226.89978,0.27549
5224.97104,0.27405
5223.04229,0.27281
5221.11355,0.27203
5219.18480,0.27186
5217.25606,0.27180
5215.32731,0.27142
5213.39857,0.27077
5211.46982,0.27014
5209.54107,0.26972
5207.61233,0.26955
5205.68358,0.26986
5203.75484,0.27035
5201.82609,0.27055
5199.89735,0.27056
5197.96860,0.27055
5196.03986,0.27092
5194.11111,0.27167
5192.18237,0.27221
5190.25362,0.27267
5188.32488,0.27337
5186.39613,0.27415
5184.46739,0.27486
5182.53864,0.27565
5180.60990,0.27665
5178.68115,0.27755
5176.75240,0.27820
5174.82366,0.27918
5172.89491,0.28085
5170.96617,0.28253
5169.03742,0.28361
5167.10868,0.28454
5165.17993,0.28568
5163.25119,0.28662
5161.32244,0.28708
5159.39370,0.28758
5157.46495,0.28897
5155.53621,0.29125
5153.60746,0.29358
5151.67872,0.29556
5149.74997,0.29723
5147.82123,0.29834
5145.89248,0.29911
5143.96373,0.29993
5142.03499,0.30093
5140.10624,0.30248
5138.17750,0.30448
5136.24875,0.30611
5134.32001,0.30714
5132.39126,0.30828
5130.46252,0.30988
5128.53377,0.31146
5126.60503,0.31290
5124.67628,0.31437
5122.74754,0.31584
5120.81879,0.31741
5118.89005,0.31891
5116.96130,0.32020
5115.03255,0.32174
5113.10381,0.32346
5111.17506,0.32462
5109.24632,0.32536
5107.31757,0.32653
5105.38883,0.32826
5103.46008,0.33013
5101.53134,0.33210
5099.60259,0.33412
5097.67385,0.33575
5095.74510,0.33691
5093.81636,0.33786
5091.88761,0.33884
5089.95887,0.34016
5088.03012,0.34166
5086.10138,0.34310
5084.17263,0.34476
5082.24388,0.34676
5080.31514,0.34876
5078.38639,0.35038
5076.45765,0.35169
5074.52890,0.35299
5072.60016,0.35414
5070.67141,0.35506
5068.74267,0.35612
5066.81392,0.35761
5064.88518,0.35937
5062.95643,0.36095
5061.02769,0.36223
5059.09894,0.36326
5057.17020,0.36398
5055.24145,0.36460
5053.31270,0.36530
5051.38396,0.36619
5049.45521,0.36758
5047.52647,0.36919
5045.59772,0.37023
5043.66898,0.37079
5041.74023,0.37190
5039.81149,0.37375
5037.88274,0.37512
5035.95400,0.37536
5034.02525,0.37547
5032.09651,0.37641
5030.16776,0.37763
5028.23902,0.37830
5026.31027,0.37871
5024.38153,0.37915
5022.45278,0.37961
5020.52403,0.38016
5018.59529,0.38097
5016.66654,0.38222
5014.73780,0.38325
5012.80905,0.38340
5010.88031,0.38326
5008.95156,0.38317
5007.02282,0.38304
5005.09407,0.38304
5003.16533,0.38320
5001.23658,0.38359
4999.30784,0.38419
4997.37909,0.38421
4995.45035,0.38336
4993.52160,0.38261
4991.59286,0.38247
4989.66411,0.38263
4987.73536,0.38255
4985.80662,0.38177
4983.87787,0.38056
4981.94913,0.37983
4980.02038,0.37967
4978.09164,0.37916
4976.16289,0.37813
4974.23415,0.37729
4972.30540,0.37640
4970.37666,0.37493
4968.44791,0.37309
4966.51917,0.37156
4964.59042,0.37076
4962.66168,0.37022
4960.73293,0.36904
4958.80418,0.36697
4956.87544,0.36469
4954.94669,0.36322
4953.01795,0.36245
4951.08920,0.36127
4949.16046,0.35933
4947.23171,0.35698
4945.30297,0.35473
4943.37422,0.35295
4941.44548,0.35099
4939.51673,0.34844
4937.58799,0.34627
4935.65924,0.34521
4933.73050,0.34435
4931.80175,0.34249
4929.87301,0.33978
4927.94426,0.33731
4926.01551,0.33574
4924.08677,0.33440
4922.15802,0.33238
4920.22928,0.32994
4918.30053,0.32797
4916.37179,0.32671
4914.44304,0.32555
4912.51430,0.32381
4910.58555,0.32161
4908.65681,0.31966
4906.72806,0.31844
4904.79932,0.31741
4902.87057,0.31570
4900.94183,0.31383
4899.01308,0.31273
4897.08434,0.31185
4895.15559,0.31057
4893.22684,0.30886
4891.29810,0.30677
4889.36935,0.30480
4887.44061,0.30339
4885.51186,0.30223
4883.58312,0.30097
4881.65437,0.29977
4879.72563,0.29875
4877.79688,0.29771
4875.86814,0.29683
4873.93939,0.29614
4872.01065,0.29511
4870.08190,0.29378
4868.15316,0.29268
4866.22441,0.29203
4864.29566,0.29148
4862.36692,0.29073
4860.43817,0.28983
4858.50943,0.28862
4856.58068,0.28716
4854.65194,0.28596
4852.72319,0.28489
4850.79445,0.28368
4848.86570,0.28264
4846.93696,0.28196
4845.00821,0.28145
4843.07947,0.28093
4841.15072,0.28018
4839.22198,0.27909
4837.29323,0.27782
4835.36449,0.27636
4833.43574,0.27502
4831.50699,0.27424
4829.57825,0.27355
4827.64950,0.27231
4825.72076,0.27081
4823.79201,0.27003
4821.86327,0.27009
4819.93452,0.26982
4818.00578,0.26857
4816.07703,0.26715
4814.14829,0.26631
4812.21954,0.26585
4810.29080,0.26536
4808.36205,0.26471
4806.43331,0.26397
4804.50456,0.26328
4802.57582,0.26283
4800.64707,0.26275
4798.71832,0.26258
4796.78958,0.26199
4794.86083,0.26151
4792.93209,0.26142
4791.00334,0.26131
4789.07460,0.26117
4787.14585,0.26083
4785.21711,0.25990
4783.28836,0.25905
4781.35962,0.25873
4779.43087,0.25851
4777.50213,0.25861
4775.57338,0.25907
4773.64464,0.25922
4771.71589,0.25869
4769.78714,0.25764
4767.85840,0.25649
4765.92965,0.25572
4764.00091,0.25554
4762.07216,0.25535
4760.14342,0.25460
4758.21467,0.25370
4756.28593,0.25285
4754.35718,0.25156
4752.42844,0.25020
4750.49969,0.24958
4748.57095,0.24926
4746.64220,0.24814
4744.71346,0.24635
4742.78471,0.24498
4740.85597,0.24438
4738.92722,0.24406
4736.99847,0.24370
4735.06973,0.24308
4733.14098,0.24213
4731.21224,0.24135
4729.28349,0.24106
4727.35475,0.24108
4725.42600,0.24111
4723.49726,0.24079
4721.56851,0.24018
4719.63977,0.23955
4717.71102,0.23891
4715.78228,0.23845
4713.85353,0.23825
4711.92479,0.23795
4709.99604,0.23732
4708.06729,0.23661
4706.13855,0.23619
4704.20980,0.23579
4702.28106,0.23479
4700.35231,0.23349
4698.42357,0.23249
4696.49482,0.23149
4694.56608,0.23000
4692.63733,0.22808
4690.70859,0.22621
4688.77984,0.22448
4686.85110,0.22288
4684.92235,0.22162
4682.99361,0.22074
4681.06486,0.22013
4679.13612,0.21977
4677.20737,0.21969
4675.27862,0.21981
4673.34988,0.22002
4671.42113,0.22032
4669.49239,0.22109
4667.56364,0.22281
4665.63490,0.22479
4663.70615,0.22653
4661.77741,0.22866
4659.84866,0.23096
4657.91992,0.23285
4655.99117,0.23483
4654.06243,0.23718
4652.13368,0.23906
4650.20494,0.23996
4648.27619,0.24040
4646.34745,0.24093
4644.41870,0.24165
4642.48995,0.24214
4640.56121,0.24182
4638.63246,0.24107
4636.70372,0.24040
4634.77497,0.23949
4632.84623,0.23828
4630.91748,0.23755
4628.98874,0.23744
4627.05999,0.23746
4625.13125,0.23761
4623.20250,0.23823
4621.27376,0.23924
4619.34501,0.24046
4617.41627,0.24229
4615.48752,0.24484
4613.55877,0.24743
4611.63003,0.24977
4609.70128,0.25222
4607.77254,0.25492
4605.84379,0.25774
4603.91505,0.26058
4601.98630,0.26329
4600.05756,0.26579
4598.12881,0.26804
4596.20007,0.27004
4594.27132,0.27193
4592.34258,0.27348
4590.41383,0.27434
4588.48509,0.27464
4586.55634,0.27487
4584.62760,0.27535
4582.69885,0.27583
4580.77010,0.27612
4578.84136,0.27651
4576.91261,0.27672
4574.98387,0.27632
4573.05512,0.27566
4571.12638,0.27529
4569.19763,0.27541
4567.26889,0.27590
4565.34014,0.27654
4563.41140,0.27752
4561.48265,0.27878
4559.55391,0.27982
4557.62516,0.28061
4555.69642,0.28140
4553.76767,0.28248
4551.83893,0.28367
4549.91018,0.28442
4547.98143,0.28477
4546.05269,0.28517
4544.12394,0.28569
4542.19520,0.28616
4540.26645,0.28601
4538.33771,0.28536
4536.40896,0.28498
4534.48022,0.28475
4532.55147,0.28443
4530.62273,0.28406
4528.69398,0.28325
4526.76524,0.28207
4524.83649,0.28109
4522.90775,0.28012
4520.97900,0.27888
4519.05025,0.27746
4517.12151,0.27603
4515.19276,0.27485
4513.26402,0.27359
4511.33527,0.27172
4509.40653,0.26959
4507.47778,0.26772
4505.54904,0.26587
4503.62029,0.26357
4501.69155,0.26095
4499.76280,0.25837
4497.83406,0.25581
4495.90531,0.25329
4493.97657,0.25116
4492.04782,0.24955
4490.11908,0.24790
4488.19033,0.24560
4486.26158,0.24281
4484.33284,0.23995
4482.40409,0.23711
4480.47535,0.23387
4478.54660,0.23015
4476.61786,0.22644
4474.68911,0.22266
4472.76037,0.21832
4470.83162,0.21362
4468.90288,0.20913
4466.97413,0.20489
4465.04539,0.20047
4463.11664,0.19559
4461.18790,0.19039
4459.25915,0.18491
4457.33041,0.17904
4455.40166,0.17321
4453.47291,0.16763
4451.54417,0.16194
4449.61542,0.15625
4447.68668,0.15087
4445.75793,0.14557
4443.82919,0.14058
4441.90044,0.13650
4439.97170,0.13289
4438.04295,0.12898
4436.11421,0.12517
4434.18546,0.12197
4432.25672,0.11924
4430.32797,0.11693
4428.39923,0.11512
4426.47048,0.11344
4424.54173,0.11165
4422.61299,0.11000
4420.68424,0.10884
4418.75550,0.10827
4416.82675,0.10802
4414.89801,0.10785
4412.96926,0.10794
4411.04052,0.10825
4409.11177,0.10846
4407.18303,0.10858
4405.25428,0.10876
4403.32554,0.10887
4401.39679,0.10889
4399.46805,0.10919
4397.53930,0.10990
4395.61056,0.11042
4393.68181,0.11032
4391.75306,0.10996
4389.82432,0.10992
4387.89557,0.11007
4385.96683,0.10985
4384.03808,0.10906
4382.10934,0.10786
4380.18059,0.10661
4378.25185,0.10577
4376.32310,0.10516
4374.39436,0.10435
4372.46561,0.10350
4370.53687,0.10286
4368.60812,0.10226
4366.67938,0.10161
4364.75063,0.10092
4362.82189,0.10027
4360.89314,0.09992
4358.96439,0.09985
4357.03565,0.09984
4355.10690,0.09980
4353.17816,0.09968
4351.24941,0.09950
4349.32067,0.09948
4347.39192,0.09966
4345.46318,0.09998
4343.53443,0.10034
4341.60569,0.10065
4339.67694,0.10095
4337.74820,0.10120
4335.81945,0.10143
4333.89071,0.10184
4331.96196,0.10233
4330.03321,0.10260
4328.10447,0.10266
4326.17572,0.10266
4324.24698,0.10271
4322.31823,0.10294
4320.38949,0.10341
4318.46074,0.10400
4316.53200,0.10470
4314.60325,0.10566
4312.67451,0.10662
4310.74576,0.10734
4308.81702,0.10792
4306.88827,0.10853
4304.95953,0.10914
4303.03078,0.10947
4301.10204,0.10944
4299.17329,0.10937
4297.24454,0.10941
4295.31580,0.10923
4293.38705,0.10881
4291.45831,0.10863
4289.52956,0.10865
4287.60082,0.10866
4285.67207,0.10889
4283.74333,0.10948
4281.81458,0.11009
4279.88584,0.11025
4277.95709,0.11005
4276.02835,0.11002
4274.09960,0.11029
4272.17086,0.11049
4270.24211,0.11062
4268.31336,0.11094
4266.38462,0.11150
4264.45587,0.11221
4262.52713,0.11264
4260.59838,0.11262
4258.66964,0.11257
4256.74089,0.11260
4254.81215,0.11260
4252.88340,0.11274
4250.95466,0.11329
4249.02591,0.11402
4247.09717,0.11469
4245.16842,0.11532
4243.23968,0.11579
4241.31093,0.11603
4239.38219,0.11609
4237.45344,0.11603
4235.52469,0.11596
4233.59595,0.11602
4231.66720,0.11651
4229.73846,0.11723
4227.80971,0.11766
4225.88097,0.11775
4223.95222,0.11786
4222.02348,0.11816
4220.09473,0.11853
4218.16599,0.11877
4216.23724,0.11905
4214.30850,0.11971
4212.37975,0.12059
4210.45101,0.12113
4208.52226,0.12125
4206.59352,0.12114
4204.66477,0.12095
4202.73602,0.12112
4200.80728,0.12174
4198.87853,0.12201
4196.94979,0.12169
4195.02104,0.12152
4193.09230,0.12194
4191.16355,0.12267
4189.23481,0.12316
4187.30606,0.12319
4185.37732,0.12306
4183.44857,0.12296
4181.51983,0.12282
4179.59108,0.12262
4177.66234,0.12237
4175.73359,0.12217
4173.80484,0.12211
4171.87610,0.12202
4169.94735,0.12188
4168.01861,0.12185
4166.08986,0.12173
4164.16112,0.12126
4162.23237,0.12091
4160.30363,0.12115
4158.37488,0.12153
4156.44614,0.12135
4154.51739,0.12071
4152.58865,0.12030
4150.65990,0.12037
4148.73116,0.12051
4146.80241,0.12042
4144.87367,0.12014
4142.94492,0.11975
4141.01617,0.11936
4139.08743,0.11916
4137.15868,0.11911
4135.22994,0.11905
4133.30119,0.11903
4131.37245,0.11920
4129.44370,0.11945
4127.51496,0.11950
4125.58621,0.11946
4123.65747,0.11946
4121.72872,0.11930
4119.79998,0.11885
4117.87123,0.11824
4115.94249,0.11765
4114.01374,0.11691
4112.08500,0.11605
4110.15625,0.11539
4108.22750,0.11483
4106.29876,0.11422
4104.37001,0.11370
4102.44127,0.11324
4100.51252,0.11258
4098.58378,0.11171
4096.65503,0.11070
4094.72629,0.10938
4092.79754,0.10792
4090.86880,0.10675
4088.94005,0.10589
4087.01131,0.10494
4085.08256,0.10363
4083.15382,0.10232
4081.22507,0.10142
4079.29632,0.10055
4077.36758,0.09937
4075.43883,0.09810
4073.51009,0.09708
4071.58134,0.09622
4069.65260,0.09531
4067.72385,0.09449
4065.79511,0.09389
4063.86636,0.09333
4061.93762,0.09280
4060.00887,0.09240
4058.08013,0.09230
4056.15138,0.09251
4054.22264,0.09278
4052.29389,0.09307
4050.36515,0.09363
4048.43640,0.09428
4046.50765,0.09455
4044.57891,0.09439
4042.65016,0.09407
4040.72142,0.09390
4038.79267,0.09416
4036.86393,0.09468
4034.93518,0.09496
4033.00644,0.09494
4031.07769,0.09476
4029.14895,0.09445
4027.22020,0.09437
4025.29146,0.09466
4023.36271,0.09489
4021.43397,0.09493
4019.50522,0.09506
4017.57648,0.09542
4015.64773,0.09590
4013.71898,0.09625
4011.79024,0.09642
4009.86149,0.09649
4007.93275,0.09669
4006.00400,0.09691
4004.07526,0.09671
4002.14651,0.09639
4000.21777,0.09656
3998.28902,0.09697
3996.36028,0.09731
3994.43153,0.09777
3992.50279,0.09839
3990.57404,0.09893
3988.64530,0.09924
3986.71655,0.09945
3984.78780,0.09960
3982.85906,0.09971
3980.93031,0.10019
3979.00157,0.10113
3977.07282,0.10203
3975.14408,0.10251
3973.21533,0.10289
3971.28659,0.10370
3969.35784,0.10477
3967.42910,0.10553
3965.50035,0.10600
3963.57161,0.10681
3961.64286,0.10800
3959.71412,0.10905
3957.78537,0.10990
3955.85663,0.11066
3953.92788,0.11143
3951.99913,0.11212
3950.07039,0.11265
3948.14164,0.11331
3946.21290,0.11412
3944.28415,0.11462
3942.35541,0.11480
3940.42666,0.11512
3938.49792,0.11579
3936.56917,0.11655
3934.64043,0.11719
3932.71168,0.11784
3930.78294,0.11869
3928.85419,0.11953
3926.92545,0.12027
3924.99670,0.12101
3923.06795,0.12164
3921.13921,0.12218
3919.21046,0.12286
3917.28172,0.12344
3915.35297,0.12368
3913.42423,0.12384
3911.49548,0.12429
3909.56674,0.12517
3907.63799,0.12619
3905.70925,0.12696
3903.78050,0.12738
3901.85176,0.12764
3899.92301,0.12789
3897.99427,0.12817
3896.06552,0.12852
3894.13678,0.12898
3892.20803,0.12953
3890.27928,0.12997
3888.35054,0.13013
3886.42179,0.13013
3884.49305,0.13029
3882.56430,0.13077
3880.63556,0.13135
3878.70681,0.13180
3876.77807,0.13228
3874.84932,0.13296
3872.92058,0.13373
3870.99183,0.13452
3869.06309,0.13540
3867.13434,0.13633
3865.20560,0.13714
3863.27685,0.13779
3861.34811,0.13846
3859.41936,0.13932
3857.49061,0.14035
3855.56187,0.14161
3853.63312,0.14289
3851.70438,0.14352
3849.77563,0.14378
3847.84689,0.14419
3845.91814,0.14464
3843.98940,0.14500
3842.06065,0.14542
3840.13191,0.14598
3838.20316,0.14645
3836.27442,0.14670
3834.34567,0.14686
3832.41693,0.14701
3830.48818,0.14708
3828.55943,0.14726
3826.63069,0.14760
3824.70194,0.14786
3822.77320,0.14796
3820.84445,0.14803
3818.91571,0.14817
3816.98696,0.14829
3815.05822,0.14824
3813.12947,0.14817
3811.20073,0.14825
3809.27198,0.14853
3807.34324,0.14890
3805.41449,0.14917
3803.48575,0.14924
3801.55700,0.14908
3799.62826,0.14889
3797.69951,0.14887
3795.77076,0.14886
3793.84202,0.14872
3791.91327,0.14852
3789.98453,0.14841
3788.05578,0.14837
3786.12704,0.14824
3784.19829,0.14792
3782.26955,0.14745
3780.34080,0.14694
3778.41206,0.14656
3776.48331,0.14645
3774.55457,0.14640
3772.62582,0.14617
3770.69708,0.14586
3768.76833,0.14545
3766.83959,0.14487
3764.91084,0.14428
3762.98209,0.14374
3761.05335,0.14318
3759.12460,0.14265
3757.19586,0.14218
3755.26711,0.14175
3753.33837,0.14155
3751.40962,0.14153
3749.48088,0.14130
3747.55213,0.14086
3745.62339,0.14030
3743.69464,0.13967
3741.76590,0.13918
3739.83715,0.13862
3737.90841,0.13781
3735.97966,0.13691
3734.05091,0.13602
3732.12217,0.13500
3730.19342,0.13370
3728.26468,0.13228
3726.33593,0.13083
3724.40719,0.12935
3722.47844,0.12793
3720.54970,0.12655
3718.62095,0.12516
3716.69221,0.12384
3714.76346,0.12260
3712.83472,0.12096
3710.90597,0.11851
3708.97723,0.11591
3707.04848,0.11367
3705.11974,0.11156
3703.19099,0.10905
3701.26224,0.10604
3699.33350,0.10300
3697.40475,0.10004
3695.47601,0.09693
3693.54726,0.09364
3691.61852,0.09018
3689.68977,0.08648
3687.76103,0.08272
3685.83228,0.07929
3683.90354,0.07630
3681.97479,0.07335
3680.04605,0.07001
3678.11730,0.06667
3676.18856,0.06423
3674.25981,0.06296
3672.33107,0.06207
3670.40232,0.06107
3668.47357,0.06004
3666.54483,0.05906
3664.61608,0.05814
3662.68734,0.05745
3660.75859,0.05696
3658.82985,0.05640
3656.90110,0.05595
3654.97236,0.05593
3653.04361,0.05600
3651.11487,0.05578
3649.18612,0.05533
3647.25738,0.05487
3645.32863,0.05458
3643.39989,0.05452
3641.47114,0.05462
3639.54239,0.05477
3637.61365,0.05463
3635.68490,0.05409
3633.75616,0.05368
3631.82741,0.05365
3629.89867,0.05383
3627.96992,0.05393
3626.04118,0.05367
3624.11243,0.05338
3622.18369,0.05354
3620.25494,0.05390
3618.32620,0.05392
3616.39745,0.05381
3614.46871,0.05385
3612.53996,0.05378
3610.61122,0.05361
3608.68247,0.05360
3606.75372,0.05363
3604.82498,0.05360
3602.89623,0.05365
3600.96749,0.05373
3599.03874,0.05366
3597.11000,0.05340
3595.18125,0.05319
3593.25251,0.05339
3591.32376,0.05370
3589.39502,0.05353
3587.46627,0.05303
3585.53753,0.05281
3583.60878,0.05274
3581.68004,0.05264
3579.75129,0.05278
3577.82254,0.05312
3575.89380,0.05330
3573.96505,0.05318
3572.03631,0.05295
3570.10756,0.05286
3568.17882,0.05295
3566.25007,0.05299
3564.32133,0.05277
3562.39258,0.05253
3560.46384,0.05254
3558.53509,0.05264
3556.60635,0.05253
3554.67760,0.05236
3552.74886,0.05235
3550.82011,0.05240
3548.89137,0.05245
3546.96262,0.05255
3545.03387,0.05262
3543.10513,0.05256
3541.17638,0.05253
3539.24764,0.05276
3537.31889,0.05298
3535.39015,0.05283
3533.46140,0.05237
3531.53266,0.05194
3529.60391,0.05186
3527.67517,0.05217
3525.74642,0.05264
3523.81768,0.05294
3521.88893,0.05282
3519.96019,0.05232
3518.03144,0.05183
3516.10270,0.05170
3514.17395,0.05190
3512.24520,0.05228
3510.31646,0.05255
3508.38771,0.05241
3506.45897,0.05211
3504.53022,0.05203
3502.60148,0.05202
3500.67273,0.05191
3498.74399,0.05190
3496.81524,0.05201
3494.88650,0.05215
3492.95775,0.05242
3491.02901,0.05269
3489.10026,0.05266
3487.17152,0.05234
3485.24277,0.05200
3483.31402,0.05195
3481.38528,0.05217
3479.45653,0.05233
3477.52779,0.05233
3475.59904,0.05249
3473.67030,0.05286
3471.74155,0.05304
3469.81281,0.05290
3467.88406,0.05283
3465.95532,0.05284
3464.02657,0.05288
3462.09783,0.05295
3460.16908,0.05285
3458.24034,0.05280
3456.31159,0.05299
3454.38285,0.05318
3452.45410,0.05335
3450.52535,0.05351
3448.59661,0.05338
3446.66786,0.05297
3444.73912,0.05281
3442.81037,0.05309
3440.88163,0.05342
3438.95288,0.05350
3437.02414,0.05332
3435.09539,0.05304
3433.16665,0.05297
3431.23790,0.05307
3429.30916,0.05309
3427.38041,0.05294
3425.45167,0.05264
3423.52292,0.05239
3421.59418,0.05251
3419.66543,0.05280
3417.73668,0.05297
3415.80794,0.05302
3413.87919,0.05292
3411.95045,0.05272
3410.02170,0.05252
3408.09296,0.05249
3406.16421,0.05272
3404.23547,0.05312
3402.30672,0.05360
3400.37798,0.05400
3398.44923,0.05398
3396.52049,0.05353
3394.59174,0.05296
3392.66300,0.05262
3390.73425,0.05266
3388.80550,0.05290
3386.87676,0.05310
3384.94801,0.05316
3383.01927,0.05310
3381.09052,0.05310
3379.16178,0.05314
3377.23303,0.05312
3375.30429,0.05301
3373.37554,0.05287
3371.44680,0.05291
3369.51805,0.05309
3367.58931,0.05313
3365.66056,0.05308
3363.73182,0.05311
3361.80307,0.05330
3359.87433,0.05349
3357.94558,0.05354
3356.01683,0.05344
3354.08809,0.05320
3352.15934,0.05311
3350.23060,0.05338
3348.30185,0.05368
3346.37311,0.05378
3344.44436,0.05381
3342.51562,0.05387
3340.58687,0.05398
3338.65813,0.05406
3336.72938,0.05396
3334.80064,0.05375
3332.87189,0.05359
3330.94315,0.05350
3329.01440,0.05353
3327.08566,0.05378
3325.15691,0.05398
3323.22816,0.05397
3321.29942,0.05406
3319.37067,0.05424
3317.44193,0.05415
3315.51318,0.05383
3313.58444,0.05380
3311.65569,0.05391
3309.72695,0.05370
3307.79820,0.05347
3305.86946,0.05352
3303.94071,0.05349
3302.01197,0.05333
3300.08322,0.05326
3298.15448,0.05321
3296.22573,0.05324
3294.29698,0.05339
3292.36824,0.05342
3290.43949,0.05339
3288.51075,0.05344
3286.58200,0.05353
3284.65326,0.05359
3282.72451,0.05355
3280.79577,0.05355
3278.86702,0.05372
3276.93828,0.05377
3275.00953,0.05365
3273.08079,0.05370
3271.15204,0.05390
3269.22330,0.05398
3267.29455,0.05400
3265.36581,0.05410
3263.43706,0.05414
3261.50831,0.05396
3259.57957,0.05374
3257.65082,0.05381
3255.72208,0.05412
3253.79333,0.05424
3251.86459,0.05417
3249.93584,0.05425
3248.00710,0.05444
3246.07835,0.05445
3244.14961,0.05429
3242.22086,0.05424
3240.29212,0.05422
3238.36337,0.05412
3236.43463,0.05408
3234.50588,0.05404
3232.57713,0.05407
3230.64839,0.05420
3228.71964,0.05421
3226.79090,0.05407
3224.86215,0.05394
3222.93341,0.05386
3221.00466,0.05378
3219.07592,0.05378
3217.14717,0.05401
3215.21843,0.05437
3213.28968,0.05445
3211.36094,0.05413
3209.43219,0.05371
3207.50345,0.05359
3205.57470,0.05388
3203.64596,0.05413
3201.71721,0.05400
3199.78846,0.05382
3197.85972,0.05396
3195.93097,0.05418
3194.00223,0.05419
3192.07348,0.05400
3190.14474,0.05372
3188.21599,0.05373
3186.28725,0.05412
3184.35850,0.05443
3182.42976,0.05447
3180.50101,0.05432
3178.57227,0.05409
3176.64352,0.05399
3174.71478,0.05403
3172.78603,0.05397
3170.85729,0.05379
3168.92854,0.05379
3166.99979,0.05404
3165.07105,0.05428
3163.14230,0.05443
3161.21356,0.05450
3159.28481,0.05443
3157.35607,0.05424
3155.42732,0.05408
3153.49858,0.05403
3151.56983,0.05402
3149.64109,0.05402
3147.71234,0.05400
3145.78360,0.05382
3143.85485,0.05363
3141.92611,0.05365
3139.99736,0.05373
3138.06861,0.05372
3136.13987,0.05381
3134.21112,0.05400
3132.28238,0.05416
3130.35363,0.05429
3128.42489,0.05430
3126.49614,0.05402
3124.56740,0.05355
3122.63865,0.05324
3120.70991,0.05330
3118.78116,0.05355
3116.85242,0.05363
3114.92367,0.05342
3112.99493,0.05323
3111.06618,0.05329
3109.13744,0.05339
3107.20869,0.05351
3105.27994,0.05366
3103.35120,0.05358
3101.42245,0.05342
3099.49371,0.05346
3097.56496,0.05355
3095.63622,0.05354
3093.70747,0.05352
3091.77873,0.05349
3089.84998,0.05340
3087.92124,0.05336
3085.99249,0.05348
3084.06375,0.05358
3082.13500,0.05346
3080.20626,0.05321
3078.27751,0.05304
3076.34877,0.05308
3074.42002,0.05317
3072.49127,0.05327
3070.56253,0.05345
3068.63378,0.05357
3066.70504,0.05352
3064.77629,0.05319
3062.84755,0.05276
3060.91880,0.05270
3058.99006,0.05291
3057.06131,0.05288
3055.13257,0.05266
3053.20382,0.05277
3051.27508,0.05305
3049.34633,0.05304
3047.41759,0.05288
3045.48884,0.05277
3043.56009,0.05266
3041.63135,0.05264
3039.70260,0.05266
3037.77386,0.05259
3035.84511,0.05262
3033.91637,0.05279
3031.98762,0.05282
3030.05888,0.05271
3028.13013,0.05261
3026.20139,0.05248
3024.27264,0.05239
3022.34390,0.05238
3020.41515,0.05248
3018.48641,0.05264
3016.55766,0.05270
3014.62892,0.05257
3012.70017,0.05232
3010.77142,0.05208
3008.84268,0.05198
3006.91393,0.05203
3004.98519,0.05197
3003.05644,0.05177
3001.12770,0.05164
2999.19895,0.05155
2997.27021,0.05142
2995.34146,0.05129
2993.41272,0.05115
2991.48397,0.05090
2989.55523,0.05060
2987.62648,0.05048
2985.69774,0.05058
2983.76899,0.05070
2981.84025,0.05082
2979.91150,0.05088
2977.98275,0.05086
2976.05401,0.05078
2974.12526,0.05056
2972.19652,0.05020
2970.26777,0.05015
2968.33903,0.05064
2966.41028,0.05110
2964.48154,0.05110
2962.55279,0.05096
2960.62405,0.05095
2958.69530,0.05103
2956.76656,0.05124
2954.83781,0.05152
2952.90907,0.05178
2950.98032,0.05196
2949.05157,0.05206
2947.12283,0.05212
2945.19408,0.05215
2943.26534,0.05219
2941.33659,0.05252
2939.40785,0.05313
2937.47910,0.05364
2935.55036,0.05397
2933.62161,0.05428
2931.69287,0.05479
2929.76412,0.05557
2927.83538,0.05634
2925.90663,0.05696
2923.97789,0.05754
2922.04914,0.05803
2920.12040,0.05831
2918.19165,0.05847
2916.26290,0.05862
2914.33416,0.05860
2912.40541,0.05817
2910.47667,0.05767
2908.54792,0.05747
2906.61918,0.05737
2904.69043,0.05720
2902.76169,0.05704
2900.83294,0.05678
2898.90420,0.05633
2896.97545,0.05585
2895.04671,0.05562
2893.11796,0.05568
2891.18922,0.05580
2889.26047,0.05595
2887.33172,0.05621
2885.40298,0.05629
2883.47423,0.05599
2881.54549,0.05571
2879.61674,0.05569
2877.68800,0.05565
2875.75925,0.05539
2873.83051,0.05519
2871.90176,0.05530
2869.97302,0.05563
2868.04427,0.05596
2866.11553,0.05616
2864.18678,0.05628
2862.25804,0.05641
2860.32929,0.05665
2858.40055,0.05714
2856.47180,0.05774
2854.54305,0.05819
2852.61431,0.05849
2850.68556,0.05887
2848.75682,0.05927
2846.82807,0.05936
2844.89933,0.05910
2842.97058,0.05875
2841.04184,0.05847
2839.11309,0.05818
2837.18435,0.05792
2835.25560,0.05785
2833.32686,0.05787
2831.39811,0.05782
2829.46937,0.05761
2827.54062,0.05724
2825.61188,0.05689
2823.68313,0.05679
2821.75438,0.05688
2819.82564,0.05697
2817.89689,0.05690
2815.96815,0.05666
2814.03940,0.05630
2812.11066,0.05597
2810.18191,0.05582
2808.25317,0.05578
2806.32442,0.05589
2804.39568,0.05623
2802.46693,0.05653
2800.53819,0.05648
2798.60944,0.05621
2796.68070,0.05610
2794.75195,0.05623
2792.82320,0.05627
2790.89446,0.05618
2788.96571,0.05615
2787.03697,0.05609
2785.10822,0.05594
2783.17948,0.05595
2781.25073,0.05621
2779.32199,0.05639
2777.39324,0.05629
2775.46450,0.05612
2773.53575,0.05608
2771.60701,0.05610
2769.67826,0.05604
2767.74952,0.05597
2765.82077,0.05598
2763.89203,0.05599
2761.96328,0.05599
2760.03453,0.05609
2758.10579,0.05624
2756.17704,0.05629
2754.24830,0.05621
2752.31955,0.05612
2750.39081,0.05607
2748.46206,0.05608
2746.53332,0.05618
2744.60457,0.05625
2742.67583,0.05632
2740.74708,0.05645
2738.81834,0.05641
2736.88959,0.05619
2734.96085,0.05612
2733.03210,0.05630
2731.10336,0.05642
2729.17461,0.05635
2727.24586,0.05630
2725.31712,0.05632
2723.38837,0.05624
2721.45963,0.05607
2719.53088,0.05600
2717.60214,0.05616
2715.67339,0.05647
2713.74465,0.05667
2711.81590,0.05662
2709.88716,0.05658
2707.95841,0.05674
2706.02967,0.05690
2704.10092,0.05702
2702.17218,0.05730
2700.24343,0.05751
2698.31468,0.05745
2696.38594,0.05736
2694.45719,0.05753
2692.52845,0.05780
2690.59970,0.05792
2688.67096,0.05793
2686.74221,0.05796
2684.81347,0.05795
2682.88472,0.05795
2680.95598,0.05807
2679.02723,0.05826
2677.09849,0.05844
2675.16974,0.05848
2673.24100,0.05837
2671.31225,0.05826
2669.38351,0.05831
2667.45476,0.05845
2665.52601,0.05851
2663.59727,0.05858
2661.66852,0.05883
2659.73978,0.05917
2657.81103,0.05934
2655.88229,0.05920
2653.95354,0.05892
2652.02480,0.05887
2650.09605,0.05917
2648.16731,0.05949
2646.23856,0.05953
2644.30982,0.05941
2642.38107,0.05947
2640.45233,0.05971
2638.52358,0.05982
2636.59484,0.05970
2634.66609,0.05955
2632.73734,0.05957
2630.80860,0.05975
2628.87985,0.05986
2626.95111,0.05984
2625.02236,0.05989
2623.09362,0.06010
2621.16487,0.06034
2619.23613,0.06054
2617.30738,0.06057
2615.37864,0.06045
2613.44989,0.06043
2611.52115,0.06056
2609.59240,0.06068
2607.66366,0.06074
2605.73491,0.06068
2603.80616,0.06049
2601.87742,0.06032
2599.94867,0.06032
2598.01993,0.06050
2596.09118,0.06065
2594.16244,0.06062
2592.23369,0.06054
2590.30495,0.06049
2588.37620,0.06042
2586.44746,0.06034
2584.51871,0.06029
2582.58997,0.06035
2580.66122,0.06054
2578.73248,0.06068
2576.80373,0.06076
2574.87499,0.06084
2572.94624,0.06089
2571.01749,0.06098
2569.08875,0.06101
2567.16000,0.06094
2565.23126,0.06091
2563.30251,0.06088
2561.37377,0.06080
2559.44502,0.06082
2557.51628,0.06098
2555.58753,0.06104
2553.65879,0.06081
2551.73004,0.06060
2549.80130,0.06059
2547.87255,0.06054
2545.94381,0.06045
2544.01506,0.06051
2542.08631,0.06065
2540.15757,0.06074
2538.22882,0.06086
2536.30008,0.06098
2534.37133,0.06096
2532.44259,0.06089
2530.51384,0.06097
2528.58510,0.06123
2526.65635,0.06159
2524.72761,0.06190
2522.79886,0.06215
2520.87012,0.06240
2518.94137,0.06258
2517.01263,0.06269
2515.08388,0.06280
2513.15514,0.06289
2511.22639,0.06304
2509.29764,0.06318
2507.36890,0.06316
2505.44015,0.06310
2503.51141,0.06305
2501.58266,0.06284
2499.65392,0.06258
2497.72517,0.06259
2495.79643,0.06289
2493.86768,0.06323
2491.93894,0.06334
2490.01019,0.06335
2488.08145,0.06344
2486.15270,0.06354
2484.22396,0.06365
2482.29521,0.06387
2480.36647,0.06421
2478.43772,0.06454
2476.50897,0.06477
2474.58023,0.06488
2472.65148,0.06502
2470.72274,0.06531
2468.79399,0.06563
2466.86525,0.06570
2464.93650,0.06541
2463.00776,0.06519
2461.07901,0.06541
2459.15027,0.06582
2457.22152,0.06614
2455.29278,0.06644
2453.36403,0.06660
2451.43529,0.06646
2449.50654,0.06624
2447.57779,0.06616
2445.64905,0.06616
2443.72030,0.06615
2441.79156,0.06615
2439.86281,0.06622
2437.93407,0.06633
2436.00532,0.06644
2434.07658,0.06654
2432.14783,0.06642
2430.21909,0.06606
2428.29034,0.06577
2426.36160,0.06574
2424.43285,0.06591
2422.50411,0.06618
2420.57536,0.06642
2418.64662,0.06662
2416.71787,0.06680
2414.78912,0.06692
2412.86038,0.06702
2410.93163,0.06710
2409.00289,0.06716
2407.07414,0.06733
2405.14540,0.06769
2403.21665,0.06804
2401.28791,0.06821
2399.35916,0.06831
2397.43042,0.06843
2395.50167,0.06848
2393.57293,0.06848
2391.64418,0.06863
2389.71544,0.06880
2387.78669,0.06874
2385.85795,0.06859
2383.92920,0.06851
2382.00045,0.06852
2380.07171,0.06861
2378.14296,0.06868
2376.21422,0.06876
2374.28547,0.06882
2372.35673,0.06868
2370.42798,0.06836
2368.49924,0.06811
2366.57049,0.06813
2364.64175,0.06840
2362.71300,0.06860
2360.78426,0.06857
2358.85551,0.06859
2356.92677,0.06885
2354.99802,0.06906
2353.06927,0.06900
2351.14053,0.06885
2349.21178,0.06880
2347.28304,0.06892
2345.35429,0.06908
2343.42555,0.06903
2341.49680,0.06885
2339.56806,0.06881
2337.63931,0.06890
2335.71057,0.06893
2333.78182,0.06876
2331.85308,0.06861
2329.92433,0.06878
2327.99559,0.06914
2326.06684,0.06933
2324.13810,0.06940
2322.20935,0.06960
2320.28060,0.06986
2318.35186,0.07010
2316.42311,0.07033
2314.49437,0.07051
2312.56562,0.07067
2310.63688,0.07088
2308.70813,0.07106
2306.77939,0.07113
2304.85064,0.07114
2302.92190,0.07124
2300.99315,0.07145
2299.06441,0.07165
2297.13566,0.07176
2295.20692,0.07189
2293.27817,0.07211
2291.34943,0.07240
2289.42068,0.07279
2287.49193,0.07310
2285.56319,0.07324
2283.63444,0.07337
2281.70570,0.07345
2279.77695,0.07334
2277.84821,0.07320
2275.91946,0.07328
2273.99072,0.07356
2272.06197,0.07378
2270.13323,0.07381
2268.20448,0.07379
2266.27574,0.07387
2264.34699,0.07412
2262.41825,0.07445
2260.48950,0.07462
2258.56075,0.07459
2256.63201,0.07459
2254.70326,0.07468
2252.77452,0.07475
2250.84577,0.07471
2248.91703,0.07472
2246.98828,0.07490
2245.05954,0.07510
2243.13079,0.07515
2241.20205,0.07503
2239.27330,0.07472
2237.34456,0.07448
2235.41581,0.07452
2233.48707,0.07462
2231.55832,0.07468
2229.62958,0.07480
2227.70083,0.07491
2225.77208,0.07491
2223.84334,0.07485
2221.91459,0.07489
2219.98585,0.07504
2218.05710,0.07520
2216.12836,0.07527
2214.19961,0.07529
2212.27087,0.07530
2210.34212,0.07527
2208.41338,0.07520
2206.48463,0.07508
2204.55589,0.07491
2202.62714,0.07480
2200.69840,0.07481
2198.76965,0.07468
2196.84090,0.07433
2194.91216,0.07408
2192.98341,0.07407
2191.05467,0.07405
2189.12592,0.07384
2187.19718,0.07366
2185.26843,0.07350
2183.33969,0.07323
2181.41094,0.07304
2179.48220,0.07290
2177.55345,0.07250
2175.62471,0.07197
2173.69596,0.07167
2171.76722,0.07159
2169.83847,0.07139
2167.90973,0.07103
2165.98098,0.07072
2164.05223,0.07039
2162.12349,0.06994
2160.19474,0.06956
2158.26600,0.06931
2156.33725,0.06906
2154.40851,0.06876
2152.47976,0.06839
2150.55102,0.06798
2148.62227,0.06757
2146.69353,0.06717
2144.76478,0.06677
2142.83604,0.06630
2140.90729,0.06584
2138.97855,0.06561
2137.04980,0.06555
2135.12106,0.06542
2133.19231,0.06517
2131.26356,0.06493
2129.33482,0.06473
2127.40607,0.06455
2125.47733,0.06440
2123.54858,0.06430
2121.61984,0.06419
2119.69109,0.06403
2117.76235,0.06384
2115.83360,0.06359
2113.90486,0.06327
2111.97611,0.06303
2110.04737,0.06293
2108.11862,0.06284
2106.18988,0.06279
2104.26113,0.06279
2102.33238,0.06273
2100.40364,0.06257
2098.47489,0.06237
2096.54615,0.06229
2094.61740,0.06232
2092.68866,0.06226
2090.75991,0.06204
2088.83117,0.06180
2086.90242,0.06167
2084.97368,0.06153
2083.04493,0.06119
2081.11619,0.06081
2079.18744,0.06058
2077.25870,0.06047
2075.32995,0.06048
2073.40121,0.06072
2071.47246,0.06100
2069.54371,0.06111
2067.61497,0.06106
2065.68622,0.06098
2063.75748,0.06105
2061.82873,0.06129
2059.89999,0.06145
2057.97124,0.06154
2056.04250,0.06166
2054.11375,0.06177
2052.18501,0.06187
2050.25626,0.06205
2048.32752,0.06221
2046.39877,0.06224
2044.47003,0.06216
2042.54128,0.06210
2040.61254,0.06203
2038.68379,0.06193
2036.75504,0.06177
2034.82630,0.06160
2032.89755,0.06153
2030.96881,0.06151
2029.04006,0.06147
2027.11132,0.06137
2025.18257,0.06126
2023.25383,0.06106
2021.32508,0.06078
2019.39634,0.06058
2017.46759,0.06056
2015.53885,0.06071
2013.61010,0.06091
2011.68136,0.06097
2009.75261,0.06079
2007.82386,0.06053
2005.89512,0.06033
2003.96637,0.06015
2002.03763,0.06002
2000.10888,0.06007
1998.18014,0.06027
1996.25139,0.06040
1994.32265,0.06028
1992.39390,0.05997
1990.46516,0.05971
1988.53641,0.05959
1986.60767,0.05954
1984.67892,0.05952
1982.75018,0.05953
1980.82143,0.05953
1978.89269,0.05948
1976.96394,0.05943
1975.03519,0.05945
1973.10645,0.05953
1971.17770,0.05953
1969.24896,0.05947
1967.32021,0.05944
1965.39147,0.05935
1963.46272,0.05912
1961.53398,0.05890
1959.60523,0.05876
1957.67649,0.05862
1955.74774,0.05851
1953.81900,0.05854
1951.89025,0.05875
1949.96151,0.05898
1948.03276,0.05916
1946.10402,0.05941
1944.17527,0.05973
1942.24652,0.05992
1940.31778,0.06001
1938.38903,0.06017
1936.46029,0.06039
1934.53154,0.06055
1932.60280,0.06066
1930.67405,0.06077
1928.74531,0.06082
1926.81656,0.06070
1924.88782,0.06058
1922.95907,0.06064
1921.03033,0.06071
1919.10158,0.06060
1917.17284,0.06039
1915.24409,0.06019
1913.31534,0.06004
1911.38660,0.05985
1909.45785,0.05957
1907.52911,0.05934
1905.60036,0.05921
1903.67162,0.05905
1901.74287,0.05880
1899.81413,0.05839
1897.88538,0.05794
1895.95664,0.05762
1894.02789,0.05730
1892.09915,0.05690
1890.17040,0.05659
1888.24166,0.05648
1886.31291,0.05653
1884.38417,0.05655
1882.45542,0.05652
1880.52667,0.05649
1878.59793,0.05637
1876.66918,0.05615
1874.74044,0.05596
1872.81169,0.05590
1870.88295,0.05591
1868.95420,0.05582
1867.02546,0.05568
1865.09671,0.05562
1863.16797,0.05550
1861.23922,0.05519
1859.31048,0.05492
1857.38173,0.05480
1855.45299,0.05469
1853.52424,0.05445
1851.59549,0.05413
1849.66675,0.05385
1847.73800,0.05368
1845.80926,0.05345
1843.88051,0.05311
1841.95177,0.05283
1840.02302,0.05269
1838.09428,0.05254
1836.16553,0.05218
1834.23679,0.05171
1832.30804,0.05139
1830.37930,0.05121
1828.45055,0.05101
1826.52181,0.05071
1824.59306,0.05033
1822.66432,0.04993
1820.73557,0.04951
1818.80682,0.04907
1816.87808,0.04866
1814.94933,0.04837
1813.02059,0.04827
1811.09184,0.04810
1809.16310,0.04765
1807.23435,0.04714
1805.30561,0.04671
1803.37686,0.04636
1801.44812,0.04614
1799.51937,0.04606
1797.59063,0.04595
1795.66188,0.04570
1793.73314,0.04538
1791.80439,0.04498
1789.87565,0.04462
1787.94690,0.04435
1786.01815,0.04408
1784.08941,0.04391
1782.16066,0.04388
1780.23192,0.04368
1778.30317,0.04319
1776.37443,0.04271
1774.44568,0.04235
1772.51694,0.04194
1770.58819,0.04139
1768.65945,0.04088
1766.73070,0.04045
1764.80196,0.03992
1762.87321,0.03915
1760.94447,0.03809
1759.01572,0.03700
1757.08697,0.03615
1755.15823,0.03545
1753.22948,0.03460
1751.30074,0.03355
1749.37199,0.03270
1747.44325,0.03245
1745.51450,0.03278
1743.58576,0.03366
1741.65701,0.03530
1739.72827,0.03790
1737.79952,0.04105
1735.87078,0.04462
1733.94203,0.04900
1732.01329,0.05333
1730.08454,0.05689
1728.15580,0.06019
1726.22705,0.06333
1724.29830,0.06601
1722.36956,0.06789
1720.44081,0.06906
1718.51207,0.06975
1716.58332,0.06985
1714.65458,0.06929
1712.72583,0.06847
1710.79709,0.06776
1708.86834,0.06717
1706.93960,0.06640
1705.01085,0.06542
1703.08211,0.06458
1701.15336,0.06385
1699.22462,0.06305
1697.29587,0.06226
1695.36713,0.06144
1693.43838,0.06073
1691.50963,0.06025
1689.58089,0.05993
1687.65214,0.05976
1685.72340,0.05961
1683.79465,0.05935
1681.86591,0.05922
1679.93716,0.05919
1678.00842,0.05906
1676.07967,0.05880
1674.15093,0.05850
1672.22218,0.05826
1670.29344,0.05799
1668.36469,0.05767
1666.43595,0.05746
1664.50720,0.05741
1662.57845,0.05744
1660.64971,0.05745
1658.72096,0.05741
1656.79222,0.05738
1654.86347,0.05732
1652.93473,0.05718
1651.00598,0.05710
1649.07724,0.05708
1647.14849,0.05691
1645.21975,0.05665
1643.29100,0.05654
1641.36226,0.05643
1639.43351,0.05627
1637.50477,0.05626
1635.57602,0.05631
1633.64728,0.05612
1631.71853,0.05597
1629.78978,0.05601
1627.86104,0.05600
1625.93229,0.05586
1624.00355,0.05566
1622.07480,0.05543
1620.14606,0.05528
1618.21731,0.05516
1616.28857,0.05503
1614.35982,0.05506
1612.43108,0.05525
1610.50233,0.05545
1608.57359,0.05554
1606.64484,0.05550
1604.71610,0.05545
1602.78735,0.05546
1600.85861,0.05548
1598.92986,0.05549
1597.00111,0.05542
1595.07237,0.05524
1593.14362,0.05509
1591.21488,0.05507
1589.28613,0.05503
1587.35739,0.05482
1585.42864,0.05447
1583.49990,0.05419
1581.57115,0.05411
1579.64241,0.05419
1577.71366,0.05426
1575.78492,0.05422
1573.85617,0.05420
1571.92743,0.05418
1569.99868,0.05396
1568.06993,0.05352
1566.14119,0.05308
1564.21244,0.05290
1562.28370,0.05306
1560.35495,0.05326
1558.42621,0.05298
1556.49746,0.05251
1554.56872,0.05238
1552.63997,0.05253
1550.71123,0.05279
1548.78248,0.05299
1546.85374,0.05297
1544.92499,0.05272
1542.99625,0.05252
1541.06750,0.05248
1539.13876,0.05236
1537.21001,0.05228
1535.28126,0.05235
1533.35252,0.05223
1531.42377,0.05186
1529.49503,0.05153
1527.56628,0.05132
1525.63754,0.05119
1523.70879,0.05102
1521.78005,0.05057
1519.85130,0.04999
1517.92256,0.04951
1515.99381,0.04920
1514.06507,0.04922
1512.13632,0.04963
1510.20758,0.05036
1508.27883,0.05113
1506.35008,0.05165
1504.42134,0.05200
1502.49259,0.05231
1500.56385,0.05234
1498.63510,0.05204
1496.70636,0.05158
1494.77761,0.05112
1492.84887,0.05074
1490.92012,0.05033
1488.99138,0.04974
1487.06263,0.04907
1485.13389,0.04858
1483.20514,0.04828
1481.27640,0.04796
1479.34765,0.04752
1477.41891,0.04717
1475.49016,0.04703
1473.56141,0.04700
1471.63267,0.04696
1469.70392,0.04707
1467.77518,0.04735
1465.84643,0.04769
1463.91769,0.04807
1461.98894,0.04845
1460.06020,0.04870
1458.13145,0.04874
1456.20271,0.04867
1454.27396,0.04873
1452.34522,0.04897
1450.41647,0.04929
1448.48773,0.04970
1446.55898,0.05013
1444.63024,0.05034
1442.70149,0.05033
1440.77274,0.05029
1438.84400,0.05031
1436.91525,0.05044
1434.98651,0.05055
1433.05776,0.05043
1431.12902,0.05015
1429.20027,0.04989
1427.27153,0.04979
1425.34278,0.04974
1423.41404,0.04953
1421.48529,0.04918
1419.55655,0.04879
1417.62780,0.04834
1415.69906,0.04801
1413.77031,0.04792
1411.84156,0.04798
1409.91282,0.04820
1407.98407,0.04856
1406.05533,0.04890
1404.12658,0.04909
1402.19784,0.04902
1400.26909,0.04876
1398.34035,0.04855
1396.41160,0.04844
1394.48286,0.04827
1392.55411,0.04812
1390.62537,0.04814
1388.69662,0.04828
1386.76788,0.04841
1384.83913,0.04860
1382.91039,0.04887
1380.98164,0.04895
1379.05289,0.04884
1377.12415,0.04886
1375.19540,0.04907
1373.26666,0.04921
1371.33791,0.04905
1369.40917,0.04878
1367.48042,0.04870
1365.55168,0.04864
1363.62293,0.04851
1361.69419,0.04851
1359.76544,0.04858
1357.83670,0.04850
1355.90795,0.04824
1353.97921,0.04792
1352.05046,0.04765
1350.12172,0.04745
1348.19297,0.04720
1346.26422,0.04697
1344.33548,0.04686
1342.40673,0.04682
1340.47799,0.04674
1338.54924,0.04651
1336.62050,0.04623
1334.69175,0.04604
1332.76301,0.04581
1330.83426,0.04555
1328.90552,0.04545
1326.97677,0.04533
1325.04803,0.04499
1323.11928,0.04476
1321.19054,0.04461
1319.26179,0.04434
1317.33304,0.04402
1315.40430,0.04372
1313.47555,0.04345
1311.54681,0.04336
1309.61806,0.04333
1307.68932,0.04311
1305.76057,0.04276
1303.83183,0.04249
1301.90308,0.04233
1299.97434,0.04232
1298.04559,0.04253
1296.11685,0.04287
1294.18810,0.04312
1292.25936,0.04321
1290.33061,0.04310
1288.40187,0.04273
1286.47312,0.04229
1284.54437,0.04207
1282.61563,0.04202
1280.68688,0.04209
1278.75814,0.04224
1276.82939,0.04229
1274.90065,0.04210
1272.97190,0.04191
1271.04316,0.04207
1269.11441,0.04248
1267.18567,0.04277
1265.25692,0.04291
1263.32818,0.04307
1261.39943,0.04329
1259.47069,0.04351
1257.54194,0.04380
1255.61320,0.04430
1253.68445,0.04478
1251.75570,0.04509
1249.82696,0.04545
1247.89821,0.04591
1245.96947,0.04626
1244.04072,0.04648
1242.11198,0.04673
1240.18323,0.04708
1238.25449,0.04747
1236.32574,0.04778
1234.39700,0.04784
1232.46825,0.04763
1230.53951,0.04744
1228.61076,0.04755
1226.68202,0.04781
1224.75327,0.04798
1222.82452,0.04814
1220.89578,0.04834
1218.96703,0.04834
1217.03829,0.04804
1215.10954,0.04780
1213.18080,0.04793
1211.25205,0.04815
1209.32331,0.04818
1207.39456,0.04810
1205.46582,0.04797
1203.53707,0.04789
1201.60833,0.04800
1199.67958,0.04836
1197.75084,0.04893
1195.82209,0.04950
1193.89335,0.04993
1191.96460,0.05031
1190.03585,0.05067
1188.10711,0.05108
1186.17836,0.05167
1184.24962,0.05245
1182.32087,0.05340
1180.39213,0.05430
1178.46338,0.05487
1176.53464,0.05527
1174.60589,0.05577
1172.67715,0.05631
1170.74840,0.05697
1168.81966,0.05792
1166.89091,0.05908
1164.96217,0.06031
1163.03342,0.06159
1161.10467,0.06275
1159.17593,0.06365
1157.24718,0.06455
1155.31844,0.06561
1153.38969,0.06649
1151.46095,0.06690
1149.53220,0.06700
1147.60346,0.06705
1145.67471,0.06708
1143.74597,0.06687
1141.81722,0.06633
1139.88848,0.06578
1137.95973,0.06553
1136.03099,0.06530
1134.10224,0.06483
1132.17350,0.06450
1130.24475,0.06471
1128.31600,0.06517
1126.38726,0.06545
1124.45851,0.06575
1122.52977,0.06627
1120.60102,0.06681
1118.67228,0.06735
1116.74353,0.06812
1114.81479,0.06894
1112.88604,0.06955
1110.95730,0.07012
1109.02855,0.07081
1107.09981,0.07163
1105.17106,0.07239
1103.24232,0.07307
1101.31357,0.07387
1099.38483,0.07470
1097.45608,0.07522
1095.52733,0.07554
1093.59859,0.07592
1091.66984,0.07636
1089.74110,0.07682
1087.81235,0.07722
1085.88361,0.07732
1083.95486,0.07746
1082.02612,0.07804
1080.09737,0.07858
1078.16863,0.07867
1076.23988,0.07870
1074.31114,0.07899
1072.38239,0.07950
1070.45365,0.08015
1068.52490,0.08087
1066.59615,0.08139
1064.66741,0.08163
1062.73866,0.08180
1060.80992,0.08196
1058.88117,0.08202
1056.95243,0.08207
1055.02368,0.08197
1053.09494,0.08161
1051.16619,0.08156
1049.23745,0.08208
1047.30870,0.08261
1045.37996,0.08278
1043.45121,0.08264
1041.52247,0.08226
1039.59372,0.08194
1037.66498,0.08205
1035.73623,0.08226
1033.80748,0.08205
1031.87874,0.08150
1029.94999,0.08088
1028.02125,0.08052
1026.09250,0.08064
1024.16376,0.08083
1022.23501,0.08057
1020.30627,0.08002
1018.37752,0.07963
1016.44878,0.07944
1014.52003,0.07931
1012.59129,0.07918
1010.66254,0.07891
1008.73380,0.07827
1006.80505,0.07740
1004.87631,0.07670
1002.94756,0.07634
1001.01881,0.07610
999.09007,0.07559
997.16132,0.07498
995.23258,0.07466
993.30383,0.07454
991.37509,0.07447
989.44634,0.07448
987.51760,0.07452
985.58885,0.07449
983.66011,0.07444
981.73136,0.07445
979.80262,0.07444
977.87387,0.07434
975.94513,0.07426
974.01638,0.07435
972.08763,0.07450
970.15889,0.07457
968.23014,0.07454
966.30140,0.07453
964.37265,0.07450
962.44391,0.07437
960.51516,0.07431
958.58642,0.07440
956.65767,0.07454
954.72893,0.07450
952.80018,0.07418
950.87144,0.07392
948.94269,0.07390
947.01395,0.07374
945.08520,0.07329
943.15646,0.07287
941.22771,0.07269
939.29896,0.07269
937.37022,0.07279
935.44147,0.07283
933.51273,0.07273
931.58398,0.07247
929.65524,0.07220
927.72649,0.07218
925.79775,0.07218
923.86900,0.07177
921.94026,0.07120
920.01151,0.07088
918.08277,0.07084
916.15402,0.07109
914.22528,0.07137
912.29653,0.07120
910.36779,0.07085
908.43904,0.07088
906.51029,0.07104
904.58155,0.07092
902.65280,0.07084
900.72406,0.07108
898.79531,0.07112
896.86657,0.07060
894.93782,0.07009
893.00908,0.07019
891.08033,0.07058
889.15159,0.07068
887.22284,0.07037
885.29410,0.07001
883.36535,0.06996
881.43661,0.07014
879.50786,0.07033
877.57911,0.07054
875.65037,0.07068
873.72162,0.07056
871.79288,0.07027
869.86413,0.06987
867.93539,0.06944
866.00664,0.06917
864.07790,0.06897
862.14915,0.06857
860.22041,0.06796
858.29166,0.06739
856.36292,0.06706
854.43417,0.06694
852.50543,0.06675
850.57668,0.06646
848.64794,0.06640
846.71919,0.06658
844.79044,0.06663
842.86170,0.06636
840.93295,0.06586
839.00421,0.06541
837.07546,0.06515
835.14672,0.06514
833.21797,0.06551
831.28923,0.06613
829.36048,0.06653
827.43174,0.06651
825.50299,0.06630
823.57425,0.06606
821.64550,0.06580
819.71676,0.06565
817.78801,0.06569
815.85926,0.06581
813.93052,0.06591
812.00177,0.06611
810.07303,0.06672
808.14428,0.06756
806.21554,0.06813
804.28679,0.06838
802.35805,0.06876
800.42930,0.06941
798.50056,0.06974
796.57181,0.06949
794.64307,0.06916
792.71432,0.06890
790.78558,0.06844
788.85683,0.06815
786.92809,0.06841
784.99934,0.06886
783.07059,0.06909
781.14185,0.06929
779.21310,0.06959
777.28436,0.06979
775.35561,0.06971
773.42687,0.06930
771.49812,0.06899
769.56938,0.06915
767.64063,0.06917
765.71189,0.06859
763.78314,0.06809
761.85440,0.06830
759.92565,0.06864
757.99691,0.06840
756.06816,0.06772
754.13942,0.06714
752.21067,0.06704
750.28192,0.06729
748.35318,0.06727
746.42443,0.06678
744.49569,0.06638
742.56694,0.06641
740.63820,0.06669
738.70945,0.06694
736.78071,0.06705
734.85196,0.06725
732.92322,0.06779
730.99447,0.06871
729.06573,0.06983
727.13698,0.07065
725.20824,0.07063
723.27949,0.07017
721.35074,0.07015
719.42200,0.07031
717.49325,0.06990
715.56451,0.06905
713.63576,0.06842
711.70702,0.06828
709.77827,0.06846
707.84953,0.06848
705.92078,0.06813
703.99204,0.06800
702.06329,0.06845
700.13455,0.06883
698.20580,0.06877
696.27706,0.06874
694.34831,0.06887
692.41957,0.06896
690.49082,0.06951
688.56207,0.07074
686.63333,0.07191
684.70458,0.07270
682.77584,0.07329
680.84709,0.07364
678.91835,0.07404
676.98960,0.07488
675.06086,0.07567
673.13211,0.07568
671.20337,0.07519
669.27462,0.07471
667.34588,0.07410
665.41713,0.07305
663.48839,0.07169
661.55964,0.07074
659.63090,0.07049
657.70215,0.07034
655.77340,0.06978
653.84466,0.06886
651.91591,0.06806
649.98717,0.06799
648.05842,0.06858
646.12968,0.06910
644.20093,0.06902
642.27219,0.06847
640.34344,0.06800
638.41470,0.06769
636.48595,0.06685
634.55721,0.06524
632.62846,0.06382
630.69972,0.06347
628.77097,0.06394
626.84222,0.06407
624.91348,0.06372
622.98473,0.06425
621.05599,0.06571
619.12724,0.06675
617.19850,0.06731
615.26975,0.06760
613.34101,0.06655
611.41226,0.06500
609.48352,0.06535
607.55477,0.06661
605.62603,0.06618
603.69728,0.06401
601.76854,0.06176
599.83979,0.06100
