7497.03301,0.78669
7495.10426,0.78579
7493.17552,0.78482
7491.24677,0.78648
7489.31803,0.78758
7487.38928,0.78050
7485.46054,0.76873
7483.53179,0.76422
7481.60305,0.77000
7479.67430,0.77662
7477.74556,0.77745
7475.81681,0.77449
7473.88807,0.77028
7471.95932,0.76540
7470.03057,0.76214
7468.10183,0.76232
7466.17308,0.76334
7464.24434,0.76409
7462.31559,0.76400
7460.38685,0.76114
7458.45810,0.75920
7456.52936,0.76146
7454.60061,0.76448
7452.67187,0.76518
7450.74312,0.76397
7448.81438,0.76170
7446.88563,0.75858
7444.95689,0.75671
7443.02814,0.75849
7441.09940,0.76025
7439.17065,0.75800
7437.24190,0.75404
7435.31316,0.74802
7433.38441,0.73954
7431.45567,0.73289
7429.52692,0.72992
7427.59818,0.73456
7425.66943,0.74616
7423.74069,0.75095
7421.81194,0.74458
7419.88320,0.73725
7417.95445,0.73249
7416.02571,0.72769
7414.09696,0.72485
7412.16822,0.72461
7410.23947,0.72386
7408.31073,0.72362
7406.38198,0.72578
7404.45323,0.72858
7402.52449,0.72861
7400.59574,0.72386
7398.66700,0.71802
7396.73825,0.71456
7394.80951,0.71163
7392.88076,0.70751
7390.95202,0.70355
7389.02327,0.70101
7387.09453,0.69986
7385.16578,0.70131
7383.23704,0.70346
7381.30829,0.70159
7379.37955,0.69854
7377.45080,0.69888
7375.52205,0.70036
7373.59331,0.70140
7371.66456,0.70343
7369.73582,0.70438
7367.80707,0.70158
7365.87833,0.69776
7363.94958,0.69503
7362.02084,0.69230
7360.09209,0.69160
7358.16335,0.69494
7356.23460,0.69954
7354.30586,0.70176
7352.37711,0.69938
7350.44837,0.69395
7348.51962,0.69056
7346.59088,0.68948
7344.66213,0.68702
7342.73338,0.68433
7340.80464,0.68492
7338.87589,0.68620
7336.94715,0.68452
7335.01840,0.68333
7333.08966,0.68365
7331.16091,0.68238
7329.23217,0.68144
7327.30342,0.68129
7325.37468,0.67876
7323.44593,0.67413
7321.51719,0.67009
7319.58844,0.66916
7317.65970,0.67186
7315.73095,0.67520
7313.80221,0.67468
7311.87346,0.66907
7309.94471,0.66271
7308.01597,0.66032
7306.08722,0.66119
7304.15848,0.66136
7302.22973,0.66124
7300.30099,0.66484
7298.37224,0.67084
7296.44350,0.67336
7294.51475,0.67092
7292.58601,0.66680
7290.65726,0.66504
7288.72852,0.66698
7286.79977,0.66851
7284.87103,0.66560
7282.94228,0.66088
7281.01353,0.65833
7279.08479,0.65702
7277.15604,0.65398
7275.22730,0.64980
7273.29855,0.64746
7271.36981,0.64866
7269.44106,0.65203
7267.51232,0.65294
7265.58357,0.64999
7263.65483,0.64765
7261.72608,0.64882
7259.79734,0.65379
7257.86859,0.66042
7255.93985,0.66219
7254.01110,0.65699
7252.08236,0.65113
7250.15361,0.64887
7248.22486,0.64894
7246.29612,0.64984
7244.36737,0.65154
7242.43863,0.65283
7240.50988,0.65228
7238.58114,0.65226
7236.65239,0.65377
7234.72365,0.65332
7232.79490,0.65004
7230.86616,0.64746
7228.93741,0.64761
7227.00867,0.64936
7225.07992,0.65128
7223.15118,0.65161
7221.22243,0.64921
7219.29369,0.64429
7217.36494,0.63798
7215.43619,0.63487
7213.50745,0.63709
7211.57870,0.64020
7209.64996,0.64152
7207.72121,0.64072
7205.79247,0.63723
7203.86372,0.63286
7201.93498,0.62952
7200.00623,0.62850
7198.07749,0.63081
7196.14874,0.63337
7194.22000,0.63186
7192.29125,0.62630
7190.36251,0.61900
7188.43376,0.61169
7186.50501,0.60536
7184.57627,0.60239
7182.64752,0.60585
7180.71878,0.61340
7178.79003,0.61860
7176.86129,0.61976
7174.93254,0.61994
7173.00380,0.61780
7171.07505,0.61205
7169.14631,0.60891
7167.21756,0.61102
7165.28882,0.61408
7163.36007,0.61558
7161.43133,0.61574
7159.50258,0.61555
7157.57384,0.61413
7155.64509,0.61067
7153.71634,0.60660
7151.78760,0.60234
7149.85885,0.59913
7147.93011,0.59855
7146.00136,0.59851
7144.07262,0.59734
7142.14387,0.59572
7140.21513,0.59435
7138.28638,0.59325
7136.35764,0.59176
7134.42889,0.58890
7132.50015,0.58425
7130.57140,0.58178
7128.64266,0.58468
7126.71391,0.58712
7124.78516,0.58484
7122.85642,0.58099
7120.92767,0.57796
7118.99893,0.57504
7117.07018,0.56971
7115.14144,0.56269
7113.21269,0.55897
7111.28395,0.55933
7109.35520,0.56055
7107.42646,0.56153
7105.49771,0.56123
7103.56897,0.55758
7101.64022,0.55260
7099.71148,0.55023
7097.78273,0.54965
7095.85399,0.54802
7093.92524,0.54553
7091.99649,0.54360
7090.06775,0.54201
7088.13900,0.53927
7086.21026,0.53490
7084.28151,0.53014
7082.35277,0.52655
7080.42402,0.52584
7078.49528,0.52792
7076.56653,0.52928
7074.63779,0.52898
7072.70904,0.52917
7070.78030,0.52847
7068.85155,0.52558
7066.92281,0.52155
7064.99406,0.51554
7063.06532,0.51012
7061.13657,0.51031
7059.20782,0.51354
7057.27908,0.51371
7055.35033,0.51093
7053.42159,0.50885
7051.49284,0.50673
7049.56410,0.50263
7047.63535,0.49838
7045.70661,0.49422
7043.77786,0.48998
7041.84912,0.48834
7039.92037,0.48786
7037.99163,0.48429
7036.06288,0.47989
7034.13414,0.47934
7032.20539,0.48168
7030.27664,0.48310
7028.34790,0.48216
7026.41915,0.47956
7024.49041,0.47642
7022.56166,0.47452
7020.63292,0.47370
7018.70417,0.47189
7016.77543,0.47015
7014.84668,0.46917
7012.91794,0.46737
7010.98919,0.46465
7009.06045,0.46226
7007.13170,0.46217
7005.20296,0.46332
7003.27421,0.46233
7001.34547,0.45943
6999.41672,0.45752
6997.48797,0.45767
6995.55923,0.45805
6993.63048,0.45704
6991.70174,0.45485
6989.77299,0.45293
6987.84425,0.45313
6985.91550,0.45435
6983.98676,0.45435
6982.05801,0.45443
6980.12927,0.45424
6978.20052,0.45187
6976.27178,0.44990
6974.34303,0.44906
6972.41429,0.44729
6970.48554,0.44662
6968.55680,0.44864
6966.62805,0.45090
6964.69930,0.45110
6962.77056,0.44994
6960.84181,0.44919
6958.91307,0.44878
6956.98432,0.44930
6955.05558,0.45205
6953.12683,0.45466
6951.19809,0.45445
6949.26934,0.45185
6947.34060,0.44882
6945.41185,0.44696
6943.48311,0.44541
6941.55436,0.44490
6939.62562,0.44760
6937.69687,0.45061
6935.76812,0.45063
6933.83938,0.44923
6931.91063,0.44887
6929.98189,0.44907
6928.05314,0.44839
6926.12440,0.44831
6924.19565,0.44991
6922.26691,0.45108
6920.33816,0.45072
6918.40942,0.45014
6916.48067,0.45021
6914.55193,0.44952
6912.62318,0.44661
6910.69444,0.44310
6908.76569,0.44165
6906.83695,0.44188
6904.90820,0.44325
6902.97945,0.44605
6901.05071,0.44841
6899.12196,0.44966
6897.19322,0.45097
6895.26447,0.45133
6893.33573,0.45024
6891.40698,0.44989
6889.47824,0.45148
6887.54949,0.45221
6885.62075,0.44979
6883.69200,0.44752
6881.76326,0.44848
6879.83451,0.45005
6877.90577,0.45028
6875.97702,0.45040
6874.04828,0.45058
6872.11953,0.45080
6870.19078,0.45205
6868.26204,0.45362
6866.33329,0.45364
6864.40455,0.45269
6862.47580,0.45297
6860.54706,0.45460
6858.61831,0.45609
6856.68957,0.45600
6854.76082,0.45418
6852.83208,0.45284
6850.90333,0.45323
6848.97459,0.45358
6847.04584,0.45314
6845.11710,0.45335
6843.18835,0.45611
6841.25960,0.46153
6839.33086,0.46513
6837.40211,0.46435
6835.47337,0.46294
6833.54462,0.46317
6831.61588,0.46368
6829.68713,0.46317
6827.75839,0.46216
6825.82964,0.46198
6823.90090,0.46087
6821.97215,0.45698
6820.04341,0.45399
6818.11466,0.45501
6816.18592,0.45794
6814.25717,0.46016
6812.32843,0.46131
6810.39968,0.46237
6808.47093,0.46393
6806.54219,0.46435
6804.61344,0.46228
6802.68470,0.45934
6800.75595,0.45763
6798.82721,0.45872
6796.89846,0.46219
6794.96972,0.46400
6793.04097,0.46341
6791.11223,0.46368
6789.18348,0.46423
6787.25474,0.46383
6785.32599,0.46412
6783.39725,0.46527
6781.46850,0.46631
6779.53975,0.46776
6777.61101,0.46916
6775.68226,0.46915
6773.75352,0.46919
6771.82477,0.46932
6769.89603,0.46744
6767.96728,0.46560
6766.03854,0.46681
6764.10979,0.46941
6762.18105,0.47023
6760.25230,0.46993
6758.32356,0.47028
6756.39481,0.47031
6754.46607,0.46985
6752.53732,0.47012
6750.60858,0.47128
6748.67983,0.47289
6746.75108,0.47382
6744.82234,0.47290
6742.89359,0.47105
6740.96485,0.47128
6739.03610,0.47426
6737.10736,0.47585
6735.17861,0.47397
6733.24987,0.47209
6731.32112,0.47260
6729.39238,0.47446
6727.46363,0.47652
6725.53489,0.47875
6723.60614,0.48038
6721.67740,0.47987
6719.74865,0.47805
6717.81991,0.47732
6715.89116,0.47872
6713.96241,0.48120
6712.03367,0.48287
6710.10492,0.48383
6708.17618,0.48452
6706.24743,0.48411
6704.31869,0.48276
6702.38994,0.48222
6700.46120,0.48386
6698.53245,0.48587
6696.60371,0.48647
6694.67496,0.48777
6692.74622,0.49064
6690.81747,0.49169
6688.88873,0.49010
6686.95998,0.48950
6685.03123,0.49094
6683.10249,0.49211
6681.17374,0.49230
6679.24500,0.49251
6677.31625,0.49329
6675.38751,0.49404
6673.45876,0.49525
6671.53002,0.49776
6669.60127,0.49890
6667.67253,0.49649
6665.74378,0.49372
6663.81504,0.49418
6661.88629,0.49700
6659.95755,0.49849
6658.02880,0.49799
6656.10006,0.49854
6654.17131,0.49975
6652.24256,0.49860
6650.31382,0.49711
6648.38507,0.49922
6646.45633,0.50275
6644.52758,0.50280
6642.59884,0.50007
6640.67009,0.49965
6638.74135,0.50380
6636.81260,0.50849
6634.88386,0.50891
6632.95511,0.50595
6631.02637,0.50413
6629.09762,0.50554
6627.16888,0.50725
6625.24013,0.50684
6623.31139,0.50692
6621.38264,0.50922
6619.45389,0.51103
6617.52515,0.51095
6615.59640,0.51162
6613.66766,0.51339
6611.73891,0.51357
6609.81017,0.51197
6607.88142,0.51083
6605.95268,0.51237
6604.02393,0.51499
6602.09519,0.51510
6600.16644,0.51509
6598.23770,0.51814
6596.30895,0.52003
6594.38021,0.51734
6592.45146,0.51485
6590.52271,0.51696
6588.59397,0.52056
6586.66522,0.52111
6584.73648,0.51981
6582.80773,0.52000
6580.87899,0.52101
6578.95024,0.52085
6577.02150,0.51982
6575.09275,0.51840
6573.16401,0.51711
6571.23526,0.51738
6569.30652,0.51870
6567.37777,0.51937
6565.44903,0.52005
6563.52028,0.52095
6561.59154,0.52147
6559.66279,0.52292
6557.73404,0.52535
6555.80530,0.52664
6553.87655,0.52594
6551.94781,0.52491
6550.01906,0.52554
6548.09032,0.52688
6546.16157,0.52721
6544.23283,0.52677
6542.30408,0.52578
6540.37534,0.52517
6538.44659,0.52551
6536.51785,0.52602
6534.58910,0.52814
6532.66036,0.53110
6530.73161,0.53067
6528.80287,0.52750
6526.87412,0.52552
6524.94537,0.52612
6523.01663,0.52759
6521.08788,0.52740
6519.15914,0.52640
6517.23039,0.52707
6515.30165,0.52860
6513.37290,0.52901
6511.44416,0.52793
6509.51541,0.52683
6507.58667,0.52800
6505.65792,0.53043
6503.72918,0.53106
6501.80043,0.52983
6499.87169,0.52857
6497.94294,0.52827
6496.01419,0.52816
6494.08545,0.52775
6492.15670,0.52770
6490.22796,0.52727
6488.29921,0.52600
6486.37047,0.52568
6484.44172,0.52721
6482.51298,0.52887
6480.58423,0.52897
6478.65549,0.52793
6476.72674,0.52690
6474.79800,0.52651
6472.86925,0.52729
6470.94051,0.52929
6469.01176,0.53106
6467.08302,0.53125
6465.15427,0.53004
6463.22552,0.52841
6461.29678,0.52741
6459.36803,0.52793
6457.43929,0.52967
6455.51054,0.53099
6453.58180,0.53093
6451.65305,0.52987
6449.72431,0.52912
6447.79556,0.53022
6445.86682,0.53197
6443.93807,0.53192
6442.00933,0.53068
6440.08058,0.53020
6438.15184,0.53145
6436.22309,0.53358
6434.29434,0.53399
6432.36560,0.53274
6430.43685,0.53268
6428.50811,0.53342
6426.57936,0.53243
6424.65062,0.53085
6422.72187,0.53133
6420.79313,0.53295
6418.86438,0.53381
6416.93564,0.53423
6415.00689,0.53479
6413.07815,0.53484
6411.14940,0.53386
6409.22066,0.53263
6407.29191,0.53190
6405.36317,0.53207
6403.43442,0.53398
6401.50567,0.53646
6399.57693,0.53752
6397.64818,0.53757
6395.71944,0.53770
6393.79069,0.53782
6391.86195,0.53818
6389.93320,0.53937
6388.00446,0.53900
6386.07571,0.53576
6384.14697,0.53376
6382.21822,0.53459
6380.28948,0.53645
6378.36073,0.53897
6376.43199,0.54095
6374.50324,0.54130
6372.57450,0.54032
6370.64575,0.53875
6368.71700,0.53905
6366.78826,0.54199
6364.85951,0.54429
6362.93077,0.54448
6361.00202,0.54362
6359.07328,0.54198
6357.14453,0.54145
6355.21579,0.54313
6353.28704,0.54304
6351.35830,0.54008
6349.42955,0.53842
6347.50081,0.53957
6345.57206,0.54160
6343.64332,0.54158
6341.71457,0.53921
6339.78582,0.53864
6337.85708,0.54054
6335.92833,0.54119
6333.99959,0.54061
6332.07084,0.54144
6330.14210,0.54394
6328.21335,0.54586
6326.28461,0.54565
6324.35586,0.54516
6322.42712,0.54587
6320.49837,0.54670
6318.56963,0.54713
6316.64088,0.54737
6314.71214,0.54721
6312.78339,0.54684
6310.85465,0.54711
6308.92590,0.54830
6306.99715,0.54881
6305.06841,0.54799
6303.13966,0.54717
6301.21092,0.54720
6299.28217,0.54881
6297.35343,0.55145
6295.42468,0.55352
6293.49594,0.55498
6291.56719,0.55498
6289.63845,0.55307
6287.70970,0.55079
6285.78096,0.54844
6283.85221,0.54749
6281.92347,0.54936
6279.99472,0.55162
6278.06598,0.55326
6276.13723,0.55549
6274.20848,0.55653
6272.27974,0.55466
6270.35099,0.55305
6268.42225,0.55425
6266.49350,0.55618
6264.56476,0.55777
6262.63601,0.55914
6260.70727,0.55838
6258.77852,0.55616
6256.84978,0.55578
6254.92103,0.55776
6252.99229,0.56000
6251.06354,0.56046
6249.13480,0.55881
6247.20605,0.55649
6245.27730,0.55565
6243.34856,0.55741
6241.41981,0.56020
6239.49107,0.56177
6237.56232,0.56208
6235.63358,0.56242
6233.70483,0.56316
6231.77609,0.56320
6229.84734,0.56281
6227.91860,0.56348
6225.98985,0.56531
6224.06111,0.56774
6222.13236,0.56955
6220.20362,0.56968
6218.27487,0.56891
6216.34613,0.56847
6214.41738,0.56833
6212.48863,0.56790
6210.55989,0.56807
6208.63114,0.56975
6206.70240,0.57134
6204.77365,0.57141
6202.84491,0.57074
6200.91616,0.57032
6198.98742,0.57040
6197.05867,0.56966
6195.12993,0.56673
6193.20118,0.56355
6191.27244,0.56223
6189.34369,0.56145
6187.41495,0.55990
6185.48620,0.55887
6183.55746,0.55916
6181.62871,0.55915
6179.69996,0.55786
6177.77122,0.55590
6175.84247,0.55414
6173.91373,0.55346
6171.98498,0.55352
6170.05624,0.55357
6168.12749,0.55378
6166.19875,0.55383
6164.27000,0.55291
6162.34126,0.55153
6160.41251,0.55182
6158.48377,0.55395
6156.55502,0.55525
6154.62628,0.55482
6152.69753,0.55408
6150.76878,0.55452
6148.84004,0.55630
6146.91129,0.55760
6144.98255,0.55800
6143.05380,0.55944
6141.12506,0.56207
6139.19631,0.56401
6137.26757,0.56420
6135.33882,0.56324
6133.41008,0.56213
6131.48133,0.56152
6129.55259,0.56218
6127.62384,0.56400
6125.69510,0.56522
6123.76635,0.56507
6121.83761,0.56476
6119.90886,0.56466
6117.98011,0.56412
6116.05137,0.56311
6114.12262,0.56226
6112.19388,0.56174
6110.26513,0.56124
6108.33639,0.56115
6106.40764,0.56163
6104.47890,0.56195
6102.55015,0.56188
6100.62141,0.56122
6098.69266,0.55991
6096.76392,0.55855
6094.83517,0.55726
6092.90643,0.55597
6090.97768,0.55471
6089.04893,0.55364
6087.12019,0.55368
6085.19144,0.55445
6083.26270,0.55373
6081.33395,0.55048
6079.40521,0.54618
6077.47646,0.54286
6075.54772,0.54092
6073.61897,0.53971
6071.69023,0.53840
6069.76148,0.53641
6067.83274,0.53399
6065.90399,0.53179
6063.97525,0.53032
6062.04650,0.52865
6060.11776,0.52545
6058.18901,0.52180
6056.26026,0.51908
6054.33152,0.51696
6052.40277,0.51465
6050.47403,0.51123
6048.54528,0.50647
6046.61654,0.50252
6044.68779,0.50090
6042.75905,0.49894
6040.83030,0.49477
6038.90156,0.48998
6036.97281,0.48559
6035.04407,0.48182
6033.11532,0.47820
6031.18658,0.47323
6029.25783,0.46733
6027.32909,0.46251
6025.40034,0.45929
6023.47159,0.45737
6021.54285,0.45628
6019.61410,0.45405
6017.68536,0.44974
6015.75661,0.44555
6013.82787,0.44311
6011.89912,0.44074
6009.97038,0.43671
6008.04163,0.43204
6006.11289,0.42779
6004.18414,0.42445
6002.25540,0.42300
6000.32665,0.42237
5998.39791,0.42044
5996.46916,0.41743
5994.54041,0.41461
5992.61167,0.41230
5990.68292,0.41051
5988.75418,0.40956
5986.82543,0.40918
5984.89669,0.40850
5982.96794,0.40694
5981.03920,0.40486
5979.11045,0.40331
5977.18171,0.40240
5975.25296,0.40149
5973.32422,0.40138
5971.39547,0.40220
5969.46673,0.40202
5967.53798,0.40102
5965.60924,0.40085
5963.68049,0.40078
5961.75174,0.40044
5959.82300,0.40078
5957.89425,0.40121
5955.96551,0.40073
5954.03676,0.39966
5952.10802,0.39867
5950.17927,0.39732
5948.25053,0.39575
5946.32178,0.39539
5944.39304,0.39593
5942.46429,0.39601
5940.53555,0.39611
5938.60680,0.39642
5936.67806,0.39590
5934.74931,0.39457
5932.82057,0.39357
5930.89182,0.39386
5928.96307,0.39463
5927.03433,0.39417
5925.10558,0.39253
5923.17684,0.39078
5921.24809,0.38982
5919.31935,0.39013
5917.39060,0.39152
5915.46186,0.39274
5913.53311,0.39204
5911.60437,0.39021
5909.67562,0.38942
5907.74688,0.38956
5905.81813,0.38959
5903.88939,0.38929
5901.96064,0.38875
5900.03189,0.38822
5898.10315,0.38806
5896.17440,0.38825
5894.24566,0.38821
5892.31691,0.38764
5890.38817,0.38749
5888.45942,0.38827
5886.53068,0.38871
5884.60193,0.38824
5882.67319,0.38748
5880.74444,0.38667
5878.81570,0.38595
5876.88695,0.38550
5874.95821,0.38545
5873.02946,0.38539
5871.10072,0.38490
5869.17197,0.38463
5867.24322,0.38521
5865.31448,0.38647
5863.38573,0.38749
5861.45699,0.38730
5859.52824,0.38652
5857.59950,0.38645
5855.67075,0.38666
5853.74201,0.38635
5851.81326,0.38574
5849.88452,0.38477
5847.95577,0.38332
5846.02703,0.38173
5844.09828,0.38014
5842.16954,0.37897
5840.24079,0.37869
5838.31205,0.37889
5836.38330,0.37922
5834.45455,0.37969
5832.52581,0.37902
5830.59706,0.37670
5828.66832,0.37453
5826.73957,0.37342
5824.81083,0.37295
5822.88208,0.37260
5820.95334,0.37191
5819.02459,0.37099
5817.09585,0.36992
5815.16710,0.36838
5813.23836,0.36686
5811.30961,0.36677
5809.38087,0.36817
5807.45212,0.36889
5805.52337,0.36753
5803.59463,0.36570
5801.66588,0.36523
5799.73714,0.36597
5797.80839,0.36755
5795.87965,0.36964
5793.95090,0.37108
5792.02216,0.37133
5790.09341,0.37129
5788.16467,0.37153
5786.23592,0.37138
5784.30718,0.37106
5782.37843,0.37149
5780.44969,0.37228
5778.52094,0.37320
5776.59220,0.37455
5774.66345,0.37560
5772.73470,0.37627
5770.80596,0.37718
5768.87721,0.37801
5766.94847,0.37894
5765.01972,0.38047
5763.09098,0.38208
5761.16223,0.38382
5759.23349,0.38600
5757.30474,0.38789
5755.37600,0.38916
5753.44725,0.39021
5751.51851,0.39134
5749.58976,0.39267
5747.66102,0.39438
5745.73227,0.39639
5743.80352,0.39842
5741.87478,0.40042
5739.94603,0.40160
5738.01729,0.40105
5736.08854,0.40009
5734.15980,0.40056
5732.23105,0.40239
5730.30231,0.40446
5728.37356,0.40593
5726.44482,0.40693
5724.51607,0.40795
5722.58733,0.40876
5720.65858,0.40917
5718.72984,0.40993
5716.80109,0.41128
5714.87235,0.41232
5712.94360,0.41297
5711.01485,0.41432
5709.08611,0.41678
5707.15736,0.41889
5705.22862,0.41958
5703.29987,0.41991
5701.37113,0.42022
5699.44238,0.42044
5697.51364,0.42144
5695.58489,0.42251
5693.65615,0.42330
5691.72740,0.42440
5689.79866,0.42493
5687.86991,0.42488
5685.94117,0.42559
5684.01242,0.42674
5682.08368,0.42675
5680.15493,0.42563
5678.22618,0.42487
5676.29744,0.42515
5674.36869,0.42610
5672.43995,0.42704
5670.51120,0.42779
5668.58246,0.42835
5666.65371,0.42870
5664.72497,0.42919
5662.79622,0.42986
5660.86748,0.43060
5658.93873,0.43134
5657.00999,0.43141
5655.08124,0.43115
5653.15250,0.43192
5651.22375,0.43323
5649.29500,0.43386
5647.36626,0.43440
5645.43751,0.43564
5643.50877,0.43669
5641.58002,0.43670
5639.65128,0.43673
5637.72253,0.43781
5635.79379,0.43911
5633.86504,0.43986
5631.93630,0.44046
5630.00755,0.44146
5628.07881,0.44264
5626.15006,0.44331
5624.22132,0.44341
5622.29257,0.44321
5620.36383,0.44333
5618.43508,0.44460
5616.50633,0.44629
5614.57759,0.44683
5612.64884,0.44623
5610.72010,0.44567
5608.79135,0.44550
5606.86261,0.44548
5604.93386,0.44621
5603.00512,0.44768
5601.07637,0.44834
5599.14763,0.44804
5597.21888,0.44824
5595.29014,0.44895
5593.36139,0.44903
5591.43265,0.44869
5589.50390,0.44902
5587.57516,0.44976
5585.64641,0.45011
5583.71766,0.44999
5581.78892,0.44979
5579.86017,0.45033
5577.93143,0.45161
5576.00268,0.45244
5574.07394,0.45253
5572.14519,0.45272
5570.21645,0.45309
5568.28770,0.45294
5566.35896,0.45260
5564.43021,0.45326
5562.50147,0.45488
5560.57272,0.45622
5558.64398,0.45687
5556.71523,0.45707
5554.78648,0.45673
5552.85774,0.45641
5550.92899,0.45667
5549.00025,0.45689
5547.07150,0.45664
5545.14276,0.45656
5543.21401,0.45723
5541.28527,0.45820
5539.35652,0.45889
5537.42778,0.45943
5535.49903,0.46001
5533.57029,0.46067
5531.64154,0.46154
5529.71280,0.46209
5527.78405,0.46146
5525.85531,0.46075
5523.92656,0.46135
5521.99781,0.46223
5520.06907,0.46236
5518.14032,0.46255
5516.21158,0.46350
5514.28283,0.46506
5512.35409,0.46653
5510.42534,0.46742
5508.49660,0.46856
5506.56785,0.46971
5504.63911,0.46957
5502.71036,0.46936
5500.78162,0.47017
5498.85287,0.47089
5496.92413,0.47137
5494.99538,0.47194
5493.06664,0.47201
5491.13789,0.47136
5489.20914,0.47086
5487.28040,0.47099
5485.35165,0.47104
5483.42291,0.47100
5481.49416,0.47172
5479.56542,0.47266
5477.63667,0.47304
5475.70793,0.47325
5473.77918,0.47360
5471.85044,0.47401
5469.92169,0.47441
5467.99295,0.47508
5466.06420,0.47605
5464.13546,0.47637
5462.20671,0.47586
5460.27796,0.47639
5458.34922,0.47868
5456.42047,0.48082
5454.49173,0.48180
5452.56298,0.48243
5450.63424,0.48295
5448.70549,0.48325
5446.77675,0.48362
5444.84800,0.48442
5442.91926,0.48561
5440.99051,0.48659
5439.06177,0.48722
5437.13302,0.48798
5435.20428,0.48861
5433.27553,0.48852
5431.34679,0.48833
5429.41804,0.48904
5427.48929,0.49020
5425.56055,0.49044
5423.63180,0.48994
5421.70306,0.49033
5419.77431,0.49169
5417.84557,0.49258
5415.91682,0.49278
5413.98808,0.49294
5412.05933,0.49299
5410.13059,0.49323
5408.20184,0.49461
5406.27310,0.49652
5404.34435,0.49733
5402.41561,0.49707
5400.48686,0.49709
5398.55811,0.49740
5396.62937,0.49714
5394.70062,0.49669
5392.77188,0.49711
5390.84313,0.49836
5388.91439,0.49908
5386.98564,0.49841
5385.05690,0.49743
5383.12815,0.49735
5381.19941,0.49766
5379.27066,0.49781
5377.34192,0.49816
5375.41317,0.49870
5373.48443,0.49854
5371.55568,0.49717
5369.62694,0.49570
5367.69819,0.49565
5365.76944,0.49643
5363.84070,0.49636
5361.91195,0.49531
5359.98321,0.49439
5358.05446,0.49408
5356.12572,0.49373
5354.19697,0.49298
5352.26823,0.49255
5350.33948,0.49280
5348.41074,0.49294
5346.48199,0.49194
5344.55325,0.48980
5342.62450,0.48798
5340.69576,0.48767
5338.76701,0.48799
5336.83827,0.48726
5334.90952,0.48526
5332.98077,0.48285
5331.05203,0.48089
5329.12328,0.47975
5327.19454,0.47884
5325.26579,0.47727
5323.33705,0.47495
5321.40830,0.47255
5319.47956,0.47054
5317.55081,0.46868
5315.62207,0.46636
5313.69332,0.46350
5311.76458,0.46033
5309.83583,0.45672
5307.90709,0.45267
5305.97834,0.44874
5304.04959,0.44516
5302.12085,0.44131
5300.19210,0.43702
5298.26336,0.43284
5296.33461,0.42835
5294.40587,0.42317
5292.47712,0.41830
5290.54838,0.41401
5288.61963,0.40934
5286.69089,0.40392
5284.76214,0.39796
5282.83340,0.39184
5280.90465,0.38579
5278.97591,0.37969
5277.04716,0.37372
5275.11842,0.36786
5273.18967,0.36167
5271.26092,0.35521
5269.33218,0.34894
5267.40343,0.34317
5265.47469,0.33768
5263.54594,0.33237
5261.61720,0.32762
5259.68845,0.32285
5257.75971,0.31770
5255.83096,0.31283
5253.90222,0.30825
5251.97347,0.30398
5250.04473,0.30024
5248.11598,0.29634
5246.18724,0.29250
5244.25849,0.29022
5242.32975,0.28912
5240.40100,0.28720
5238.47225,0.28411
5236.54351,0.28118
5234.61476,0.27902
5232.68602,0.27721
5230.75727,0.27577
5228.82853,0.27490
5226.89978,0.27444
5224.97104,0.27373
5223.04229,0.27231
5221.11355,0.27069
5219.18480,0.26962
5217.25606,0.26930
5215.32731,0.26916
5213.39857,0.26897
5211.46982,0.26904
5209.54107,0.26899
5207.61233,0.26837
5205.68358,0.26765
5203.75484,0.26744
5201.82609,0.26776
5199.89735,0.26816
5197.96860,0.26842
5196.03986,0.26890
5194.11111,0.26973
5192.18237,0.27087
5190.25362,0.27201
5188.32488,0.27264
5186.39613,0.27297
5184.46739,0.27342
5182.53864,0.27417
5180.60990,0.27573
5178.68115,0.27771
5176.75240,0.27927
5174.82366,0.28044
5172.89491,0.28103
5170.96617,0.28079
5169.03742,0.28080
5167.10868,0.28236
5165.17993,0.28500
5163.25119,0.28689
5161.32244,0.28754
5159.39370,0.28813
5157.46495,0.28909
5155.53621,0.29018
5153.60746,0.29135
5151.67872,0.29232
5149.74997,0.29343
5147.82123,0.29518
5145.89248,0.29710
5143.96373,0.29888
5142.03499,0.30060
5140.10624,0.30181
5138.17750,0.30252
5136.24875,0.30349
5134.32001,0.30455
5132.39126,0.30548
5130.46252,0.30716
5128.53377,0.30946
5126.60503,0.31124
5124.67628,0.31209
5122.74754,0.31298
5120.81879,0.31470
5118.89005,0.31655
5116.96130,0.31817
5115.03255,0.32002
5113.10381,0.32190
5111.17506,0.32336
5109.24632,0.32441
5107.31757,0.32550
5105.38883,0.32698
5103.46008,0.32890
5101.53134,0.33125
5099.60259,0.33369
5097.67385,0.33580
5095.74510,0.33725
5093.81636,0.33810
5091.88761,0.33899
5089.95887,0.34055
5088.03012,0.34273
5086.10138,0.34465
5084.17263,0.34571
5082.24388,0.34650
5080.31514,0.34760
5078.38639,0.34890
5076.45765,0.35011
5074.52890,0.35136
5072.60016,0.35307
5070.67141,0.35473
5068.74267,0.35569
5066.81392,0.35658
5064.88518,0.35783
5062.95643,0.35904
5061.02769,0.36009
5059.09894,0.36123
5057.17020,0.36245
5055.24145,0.36387
5053.31270,0.36569
5051.38396,0.36746
5049.45521,0.36867
5047.52647,0.36943
5045.59772,0.37028
5043.66898,0.37144
5041.74023,0.37232
5039.81149,0.37258
5037.88274,0.37289
5035.95400,0.37398
5034.02525,0.37569
5032.09651,0.37701
5030.16776,0.37744
5028.23902,0.37818
5026.31027,0.37958
5024.38153,0.37999
5022.45278,0.37917
5020.52403,0.37871
5018.59529,0.37971
5016.66654,0.38184
5014.73780,0.38339
5012.80905,0.38333
5010.88031,0.38247
5008.95156,0.38153
5007.02282,0.38093
5005.09407,0.38103
5003.16533,0.38143
5001.23658,0.38219
4999.30784,0.38345
4997.37909,0.38413
4995.45035,0.38387
4993.52160,0.38323
4991.59286,0.38237
4989.66411,0.38182
4987.73536,0.38181
4985.80662,0.38140
4983.87787,0.38022
4981.94913,0.37878
4980.02038,0.37749
4978.09164,0.37679
4976.16289,0.37663
4974.23415,0.37612
4972.30540,0.37500
4970.37666,0.37394
4968.44791,0.37266
4966.51917,0.37082
4964.59042,0.36948
4962.66168,0.36883
4960.73293,0.36795
4958.80418,0.36625
4956.87544,0.36381
4954.94669,0.36174
4953.01795,0.36050
4951.08920,0.35922
4949.16046,0.35800
4947.23171,0.35694
4945.30297,0.35516
4943.37422,0.35262
4941.44548,0.35030
4939.51673,0.34845
4937.58799,0.34651
4935.65924,0.34455
4933.73050,0.34276
4931.80175,0.34094
4929.87301,0.33901
4927.94426,0.33706
4926.01551,0.33523
4924.08677,0.33377
4922.15802,0.33244
4920.22928,0.33071
4918.30053,0.32883
4916.37179,0.32708
4914.44304,0.32506
4912.51430,0.32290
4910.58555,0.32126
4908.65681,0.32000
4906.72806,0.31843
4904.79932,0.31664
4902.87057,0.31508
4900.94183,0.31349
4899.01308,0.31169
4897.08434,0.31039
4895.15559,0.30974
4893.22684,0.30880
4891.29810,0.30724
4889.36935,0.30578
4887.44061,0.30448
4885.51186,0.30296
4883.58312,0.30146
4881.65437,0.30025
4879.72563,0.29911
4877.79688,0.29803
4875.86814,0.29703
4873.93939,0.29581
4872.01065,0.29460
4870.08190,0.29364
4868.15316,0.29287
4866.22441,0.29220
4864.29566,0.29125
4862.36692,0.28984
4860.43817,0.28840
4858.50943,0.28756
4856.58068,0.28743
4854.65194,0.28694
4852.72319,0.28566
4850.79445,0.28449
4848.86570,0.28359
4846.93696,0.28232
4845.00821,0.28070
4843.07947,0.27935
4841.15072,0.27834
4839.22198,0.27713
4837.29323,0.27602
4835.36449,0.27559
4833.43574,0.27550
4831.50699,0.27517
4829.57825,0.27430
4827.64950,0.27295
4825.72076,0.27149
4823.79201,0.27015
4821.86327,0.26912
4819.93452,0.26833
4818.00578,0.26738
4816.07703,0.26651
4814.14829,0.26639
4812.21954,0.26674
4810.29080,0.26641
4808.36205,0.26499
4806.43331,0.26323
4804.50456,0.26210
4802.57582,0.26184
4800.64707,0.26202
4798.71832,0.26202
4796.78958,0.26165
4794.86083,0.26126
4792.93209,0.26091
4791.00334,0.26025
4789.07460,0.25944
4787.14585,0.25886
4785.21711,0.25870
4783.28836,0.25884
4781.35962,0.25894
4779.43087,0.25892
4777.50213,0.25857
4775.57338,0.25805
4773.64464,0.25779
4771.71589,0.25743
4769.78714,0.25662
4767.85840,0.25602
4765.92965,0.25606
4764.00091,0.25596
4762.07216,0.25505
4760.14342,0.25370
4758.21467,0.25245
4756.28593,0.25129
4754.35718,0.25006
4752.42844,0.24894
4750.49969,0.24813
4748.57095,0.24748
4746.64220,0.24674
4744.71346,0.24579
4742.78471,0.24461
4740.85597,0.24350
4738.92722,0.24265
4736.99847,0.24198
4735.06973,0.24166
4733.14098,0.24158
4731.21224,0.24140
4729.28349,0.24150
4727.35475,0.24190
4725.42600,0.24177
4723.49726,0.24101
4721.56851,0.24014
4719.63977,0.23940
4717.71102,0.23888
4715.78228,0.23853
4713.85353,0.23821
4711.92479,0.23789
4709.99604,0.23742
4708.06729,0.23680
4706.13855,0.23618
4704.20980,0.23553
4702.28106,0.23470
4700.35231,0.23343
4698.42357,0.23182
4696.49482,0.23031
4694.56608,0.22892
4692.63733,0.22739
4690.70859,0.22575
4688.77984,0.22426
4686.85110,0.22319
4684.92235,0.22249
4682.99361,0.22158
4681.06486,0.22031
4679.13612,0.21938
4677.20737,0.21908
4675.27862,0.21906
4673.34988,0.21944
4671.42113,0.22040
4669.49239,0.22167
4667.56364,0.22302
4665.63490,0.22439
4663.70615,0.22617
4661.77741,0.22855
4659.84866,0.23063
4657.91992,0.23206
4655.99117,0.23367
4654.06243,0.23556
4652.13368,0.23721
4650.20494,0.23880
4648.27619,0.24026
4646.34745,0.24118
4644.41870,0.24191
4642.48995,0.24248
4640.56121,0.24214
4638.63246,0.24112
4636.70372,0.24044
4634.77497,0.23998
4632.84623,0.23899
4630.91748,0.23759
4628.98874,0.23677
4627.05999,0.23688
4625.13125,0.23731
4623.20250,0.23776
4621.27376,0.23872
4619.34501,0.24053
4617.41627,0.24286
4615.48752,0.24508
4613.55877,0.24718
4611.63003,0.24979
4609.70128,0.25286
4607.77254,0.25553
4605.84379,0.25773
4603.91505,0.26020
4601.98630,0.26314
4600.05756,0.26593
4598.12881,0.26808
4596.20007,0.26988
4594.27132,0.27177
4592.34258,0.27346
4590.41383,0.27445
4588.48509,0.27487
4586.55634,0.27507
4584.62760,0.27542
4582.69885,0.27587
4580.77010,0.27597
4578.84136,0.27579
4576.91261,0.27571
4574.98387,0.27575
4573.05512,0.27590
4571.12638,0.27579
4569.19763,0.27543
4567.26889,0.27560
4565.34014,0.27644
4563.41140,0.27739
4561.48265,0.27838
4559.55391,0.27937
4557.62516,0.28017
4555.69642,0.28105
4553.76767,0.28221
4551.83893,0.28348
4549.91018,0.28467
4547.98143,0.28521
4546.05269,0.28497
4544.12394,0.28457
4542.19520,0.28435
4540.26645,0.28428
4538.33771,0.28444
4536.40896,0.28473
4534.48022,0.28470
4532.55147,0.28406
4530.62273,0.28320
4528.69398,0.28238
4526.76524,0.28142
4524.83649,0.28030
4522.90775,0.27926
4520.97900,0.27825
4519.05025,0.27700
4517.12151,0.27561
4515.19276,0.27448
4513.26402,0.27364
4511.33527,0.27247
4509.40653,0.27036
4507.47778,0.26764
4505.54904,0.26504
4503.62029,0.26264
4501.69155,0.26023
4499.76280,0.25793
4497.83406,0.25601
4495.90531,0.25415
4493.97657,0.25196
4492.04782,0.24960
4490.11908,0.24718
4488.19033,0.24460
4486.26158,0.24184
4484.33284,0.23884
4482.40409,0.23573
4480.47535,0.23263
4478.54660,0.22934
4476.61786,0.22581
4474.68911,0.22202
4472.76037,0.21789
4470.83162,0.21348
4468.90288,0.20914
4466.97413,0.20472
4465.04539,0.19970
4463.11664,0.19432
4461.18790,0.18889
4459.25915,0.18316
4457.33041,0.17737
4455.40166,0.17193
4453.47291,0.16670
4451.54417,0.16150
4449.61542,0.15632
4447.68668,0.15122
4445.75793,0.14630
4443.82919,0.14138
4441.90044,0.13666
4439.97170,0.13249
4438.04295,0.12875
4436.11421,0.12540
4434.18546,0.12252
4432.25672,0.11984
4430.32797,0.11725
4428.39923,0.11500
4426.47048,0.11320
4424.54173,0.11180
4422.61299,0.11054
4420.68424,0.10918
4418.75550,0.10821
4416.82675,0.10794
4414.89801,0.10790
4412.96926,0.10781
4411.04052,0.10766
4409.11177,0.10755
4407.18303,0.10771
4405.25428,0.10820
4403.32554,0.10865
4401.39679,0.10883
4399.46805,0.10899
4397.53930,0.10947
4395.61056,0.10991
4393.68181,0.10992
4391.75306,0.10961
4389.82432,0.10928
4387.89557,0.10916
4385.96683,0.10899
4384.03808,0.10838
4382.10934,0.10741
4380.18059,0.10626
4378.25185,0.10515
4376.32310,0.10436
4374.39436,0.10393
4372.46561,0.10366
4370.53687,0.10329
4368.60812,0.10267
4366.67938,0.10173
4364.75063,0.10082
4362.82189,0.10038
4360.89314,0.10009
4358.96439,0.09961
4357.03565,0.09921
4355.10690,0.09907
4353.17816,0.09935
4351.24941,0.10005
4349.32067,0.10045
4347.39192,0.10014
4345.46318,0.09949
4343.53443,0.09907
4341.60569,0.09946
4339.67694,0.10051
4337.74820,0.10140
4335.81945,0.10176
4333.89071,0.10196
4331.96196,0.10238
4330.03321,0.10293
4328.10447,0.10323
4326.17572,0.10322
4324.24698,0.10307
4322.31823,0.10294
4320.38949,0.10314
4318.46074,0.10384
4316.53200,0.10463
4314.60325,0.10520
4312.67451,0.10585
4310.74576,0.10679
4308.81702,0.10791
4306.88827,0.10884
4304.95953,0.10919
4303.03078,0.10900
4301.10204,0.10872
4299.17329,0.10878
4297.24454,0.10924
4295.31580,0.10970
4293.38705,0.10998
4291.45831,0.10998
4289.52956,0.10974
4287.60082,0.10969
4285.67207,0.10983
4283.74333,0.10962
4281.81458,0.10915
4279.88584,0.10912
4277.95709,0.10958
4276.02835,0.10995
4274.09960,0.11002
4272.17086,0.11016
4270.24211,0.11053
4268.31336,0.11092
4266.38462,0.11139
4264.45587,0.11190
4262.52713,0.11218
4260.59838,0.11227
4258.66964,0.11239
4256.74089,0.11251
4254.81215,0.11266
4252.88340,0.11295
4250.95466,0.11334
4249.02591,0.11376
4247.09717,0.11410
4245.16842,0.11436
4243.23968,0.11478
4241.31093,0.11537
4239.38219,0.11595
4237.45344,0.11641
4235.52469,0.11670
4233.59595,0.11678
4231.66720,0.11669
4229.73846,0.11667
4227.80971,0.11694
4225.88097,0.11723
4223.95222,0.11736
4222.02348,0.11787
4220.09473,0.11898
4218.16599,0.11977
4216.23724,0.11972
4214.30850,0.11961
4212.37975,0.11999
4210.45101,0.12084
4208.52226,0.12181
4206.59352,0.12227
4204.66477,0.12213
4202.73602,0.12198
4200.80728,0.12212
4198.87853,0.12239
4196.94979,0.12266
4195.02104,0.12277
4193.09230,0.12261
4191.16355,0.12247
4189.23481,0.12249
4187.30606,0.12244
4185.37732,0.12234
4183.44857,0.12229
4181.51983,0.12223
4179.59108,0.12214
4177.66234,0.12217
4175.73359,0.12224
4173.80484,0.12210
4171.87610,0.12180
4169.94735,0.12153
4168.01861,0.12145
4166.08986,0.12143
4164.16112,0.12108
4162.23237,0.12076
4160.30363,0.12096
4158.37488,0.12114
4156.44614,0.12094
4154.51739,0.12076
4152.58865,0.12082
4150.65990,0.12086
4148.73116,0.12062
4146.80241,0.12001
4144.87367,0.11916
4142.94492,0.11862
4141.01617,0.11866
4139.08743,0.11897
4137.15868,0.11913
4135.22994,0.11908
4133.30119,0.11910
4131.37245,0.11919
4129.44370,0.11899
4127.51496,0.11865
4125.58621,0.11862
4123.65747,0.11880
4121.72872,0.11879
4119.79998,0.11859
4117.87123,0.11827
4115.94249,0.11775
4114.01374,0.11704
4112.08500,0.11633
4110.15625,0.11564
4108.22750,0.11486
4106.29876,0.11413
4104.37001,0.11352
4102.44127,0.11285
4100.51252,0.11202
4098.58378,0.11100
4096.65503,0.10981
4094.72629,0.10866
4092.79754,0.10762
4090.86880,0.10653
4088.94005,0.10535
4087.01131,0.10426
4085.08256,0.10339
4083.15382,0.10259
4081.22507,0.10162
4079.29632,0.10036
4077.36758,0.09893
4075.43883,0.09766
4073.51009,0.09671
4071.58134,0.09573
4069.65260,0.09465
4067.72385,0.09381
4065.79511,0.09308
4063.86636,0.09242
4061.93762,0.09223
4060.00887,0.09241
4058.08013,0.09255
4056.15138,0.09249
4054.22264,0.09220
4052.29389,0.09190
4050.36515,0.09186
4048.43640,0.09207
4046.50765,0.09246
4044.57891,0.09303
4042.65016,0.09375
4040.72142,0.09439
4038.79267,0.09464
4036.86393,0.09450
4034.93518,0.09433
4033.00644,0.09435
4031.07769,0.09446
4029.14895,0.09451
4027.22020,0.09451
4025.29146,0.09452
4023.36271,0.09462
4021.43397,0.09475
4019.50522,0.09487
4017.57648,0.09509
4015.64773,0.09537
4013.71898,0.09567
4011.79024,0.09611
4009.86149,0.09665
4007.93275,0.09689
4006.00400,0.09662
4004.07526,0.09632
4002.14651,0.09641
4000.21777,0.09684
3998.28902,0.09744
3996.36028,0.09798
3994.43153,0.09823
3992.50279,0.09838
3990.57404,0.09863
3988.64530,0.09903
3986.71655,0.09942
3984.78780,0.09955
3982.85906,0.09960
3980.93031,0.10001
3979.00157,0.10080
3977.07282,0.10170
3975.14408,0.10264
3973.21533,0.10357
3971.28659,0.10439
3969.35784,0.10519
3967.42910,0.10600
3965.50035,0.10669
3963.57161,0.10709
3961.64286,0.10749
3959.71412,0.10845
3957.78537,0.10978
3955.85663,0.11078
3953.92788,0.11135
3951.99913,0.11192
3950.07039,0.11258
3948.14164,0.11299
3946.21290,0.11319
3944.28415,0.11356
3942.35541,0.11419
3940.42666,0.11499
3938.49792,0.11582
3936.56917,0.11651
3934.64043,0.11707
3932.71168,0.11772
3930.78294,0.11851
3928.85419,0.11911
3926.92545,0.11954
3924.99670,0.12021
3923.06795,0.12120
3921.13921,0.12209
3919.21046,0.12248
3917.28172,0.12261
3915.35297,0.12312
3913.42423,0.12413
3911.49548,0.12516
3909.56674,0.12598
3907.63799,0.12659
3905.70925,0.12690
3903.78050,0.12682
3901.85176,0.12650
3899.92301,0.12665
3897.99427,0.12767
3896.06552,0.12887
3894.13678,0.12953
3892.20803,0.12959
3890.27928,0.12949
3888.35054,0.12964
3886.42179,0.13002
3884.49305,0.13038
3882.56430,0.13064
3880.63556,0.13107
3878.70681,0.13180
3876.77807,0.13250
3874.84932,0.13301
3872.92058,0.13356
3870.99183,0.13425
3869.06309,0.13505
3867.13434,0.13588
3865.20560,0.13658
3863.27685,0.13732
3861.34811,0.13831
3859.41936,0.13939
3857.49061,0.14049
3855.56187,0.14157
3853.63312,0.14238
3851.70438,0.14294
3849.77563,0.14357
3847.84689,0.14427
3845.91814,0.14478
3843.98940,0.14504
3842.06065,0.14537
3840.13191,0.14592
3838.20316,0.14641
3836.27442,0.14677
3834.34567,0.14716
3832.41693,0.14735
3830.48818,0.14724
3828.55943,0.14719
3826.63069,0.14745
3824.70194,0.14779
3822.77320,0.14788
3820.84445,0.14765
3818.91571,0.14735
3816.98696,0.14722
3815.05822,0.14730
3813.12947,0.14759
3811.20073,0.14793
3809.27198,0.14807
3807.34324,0.14795
3805.41449,0.14787
3803.48575,0.14791
3801.55700,0.14795
3799.62826,0.14834
3797.69951,0.14890
3795.77076,0.14899
3793.84202,0.14881
3791.91327,0.14882
3789.98453,0.14887
3788.05578,0.14873
3786.12704,0.14835
3784.19829,0.14777
3782.26955,0.14727
3780.34080,0.14700
3778.41206,0.14666
3776.48331,0.14607
3774.55457,0.14549
3772.62582,0.14522
3770.69708,0.14520
3768.76833,0.14497
3766.83959,0.14437
3764.91084,0.14360
3762.98209,0.14288
3761.05335,0.14233
3759.12460,0.14196
3757.19586,0.14166
3755.26711,0.14132
3753.33837,0.14091
3751.40962,0.14052
3749.48088,0.14045
3747.55213,0.14060
3745.62339,0.14026
3743.69464,0.13912
3741.76590,0.13797
3739.83715,0.13739
3737.90841,0.13712
3735.97966,0.13660
3734.05091,0.13562
3732.12217,0.13455
3730.19342,0.13346
3728.26468,0.13204
3726.33593,0.13024
3724.40719,0.12830
3722.47844,0.12672
3720.54970,0.12574
3718.62095,0.12486
3716.69221,0.12359
3714.76346,0.12206
3712.83472,0.12031
3710.90597,0.11814
3708.97723,0.11579
3707.04848,0.11347
3705.11974,0.11105
3703.19099,0.10840
3701.26224,0.10545
3699.33350,0.10241
3697.40475,0.09937
3695.47601,0.09627
3693.54726,0.09323
3691.61852,0.09017
3689.68977,0.08678
3687.76103,0.08321
3685.83228,0.07990
3683.90354,0.07675
3681.97479,0.07345
3680.04605,0.06995
3678.11730,0.06668
3676.18856,0.06425
3674.25981,0.06295
3672.33107,0.06207
3670.40232,0.06081
3668.47357,0.05943
3666.54483,0.05847
3664.61608,0.05786
3662.68734,0.05732
3660.75859,0.05675
3658.82985,0.05623
3656.90110,0.05593
3654.97236,0.05581
3653.04361,0.05560
3651.11487,0.05514
3649.18612,0.05455
3647.25738,0.05415
3645.32863,0.05407
3643.39989,0.05409
3641.47114,0.05400
3639.54239,0.05397
3637.61365,0.05413
3635.68490,0.05414
3633.75616,0.05397
3631.82741,0.05393
3629.89867,0.05396
3627.96992,0.05399
3626.04118,0.05410
3624.11243,0.05417
3622.18369,0.05416
3620.25494,0.05410
3618.32620,0.05401
3616.39745,0.05379
3614.46871,0.05330
3612.53996,0.05296
3610.61122,0.05311
3608.68247,0.05342
3606.75372,0.05350
3604.82498,0.05329
3602.89623,0.05308
3600.96749,0.05312
3599.03874,0.05339
3597.11000,0.05367
3595.18125,0.05380
3593.25251,0.05368
3591.32376,0.05334
3589.39502,0.05307
3587.46627,0.05308
3585.53753,0.05307
3583.60878,0.05269
3581.68004,0.05228
3579.75129,0.05230
3577.82254,0.05274
3575.89380,0.05327
3573.96505,0.05355
3572.03631,0.05345
3570.10756,0.05318
3568.17882,0.05309
3566.25007,0.05307
3564.32133,0.05288
3562.39258,0.05267
3560.46384,0.05254
3558.53509,0.05230
3556.60635,0.05198
3554.67760,0.05191
3552.74886,0.05203
3550.82011,0.05204
3548.89137,0.05211
3546.96262,0.05242
3545.03387,0.05260
3543.10513,0.05240
3541.17638,0.05220
3539.24764,0.05233
3537.31889,0.05263
3535.39015,0.05284
3533.46140,0.05285
3531.53266,0.05279
3529.60391,0.05286
3527.67517,0.05309
3525.74642,0.05328
3523.81768,0.05320
3521.88893,0.05283
3519.96019,0.05252
3518.03144,0.05250
3516.10270,0.05249
3514.17395,0.05244
3512.24520,0.05250
3510.31646,0.05249
3508.38771,0.05231
3506.45897,0.05225
3504.53022,0.05234
3502.60148,0.05223
3500.67273,0.05191
3498.74399,0.05177
3496.81524,0.05190
3494.88650,0.05214
3492.95775,0.05241
3491.02901,0.05277
3489.10026,0.05325
3487.17152,0.05356
3485.24277,0.05345
3483.31402,0.05322
3481.38528,0.05310
3479.45653,0.05293
3477.52779,0.05267
3475.59904,0.05237
3473.67030,0.05210
3471.74155,0.05205
3469.81281,0.05228
3467.88406,0.05254
3465.95532,0.05261
3464.02657,0.05243
3462.09783,0.05223
3460.16908,0.05222
3458.24034,0.05221
3456.31159,0.05220
3454.38285,0.05241
3452.45410,0.05289
3450.52535,0.05338
3448.59661,0.05347
3446.66786,0.05322
3444.73912,0.05306
3442.81037,0.05300
3440.88163,0.05289
3438.95288,0.05277
3437.02414,0.05273
3435.09539,0.05279
3433.16665,0.05288
3431.23790,0.05299
3429.30916,0.05310
3427.38041,0.05323
3425.45167,0.05327
3423.52292,0.05296
3421.59418,0.05261
3419.66543,0.05266
3417.73668,0.05289
3415.80794,0.05303
3413.87919,0.05305
3411.95045,0.05299
3410.02170,0.05293
3408.09296,0.05294
3406.16421,0.05301
3404.23547,0.05323
3402.30672,0.05346
3400.37798,0.05345
3398.44923,0.05327
3396.52049,0.05316
3394.59174,0.05316
3392.66300,0.05316
3390.73425,0.05311
3388.80550,0.05306
3386.87676,0.05320
3384.94801,0.05361
3383.01927,0.05398
3381.09052,0.05406
3379.16178,0.05383
3377.23303,0.05337
3375.30429,0.05289
3373.37554,0.05279
3371.44680,0.05315
3369.51805,0.05349
3367.58931,0.05348
3365.66056,0.05335
3363.73182,0.05332
3361.80307,0.05346
3359.87433,0.05362
3357.94558,0.05343
3356.01683,0.05302
3354.08809,0.05291
3352.15934,0.05311
3350.23060,0.05339
3348.30185,0.05383
3346.37311,0.05419
3344.44436,0.05415
3342.51562,0.05386
3340.58687,0.05361
3338.65813,0.05371
3336.72938,0.05393
3334.80064,0.05370
3332.87189,0.05330
3330.94315,0.05318
3329.01440,0.05323
3327.08566,0.05350
3325.15691,0.05388
3323.22816,0.05400
3321.29942,0.05395
3319.37067,0.05392
3317.44193,0.05379
3315.51318,0.05361
3313.58444,0.05354
3311.65569,0.05368
3309.72695,0.05388
3307.79820,0.05387
3305.86946,0.05375
3303.94071,0.05376
3302.01197,0.05376
3300.08322,0.05357
3298.15448,0.05332
3296.22573,0.05327
3294.29698,0.05351
3292.36824,0.05395
3290.43949,0.05435
3288.51075,0.05438
3286.58200,0.05407
3284.65326,0.05388
3282.72451,0.05391
3280.79577,0.05385
3278.86702,0.05359
3276.93828,0.05346
3275.00953,0.05368
3273.08079,0.05397
3271.15204,0.05402
3269.22330,0.05393
3267.29455,0.05402
3265.36581,0.05438
3263.43706,0.05457
3261.50831,0.05439
3259.57957,0.05420
3257.65082,0.05412
3255.72208,0.05402
3253.79333,0.05396
3251.86459,0.05386
3249.93584,0.05367
3248.00710,0.05365
3246.07835,0.05400
3244.14961,0.05430
3242.22086,0.05418
3240.29212,0.05384
3238.36337,0.05364
3236.43463,0.05371
3234.50588,0.05385
3232.57713,0.05371
3230.64839,0.05344
3228.71964,0.05346
3226.79090,0.05383
3224.86215,0.05417
3222.93341,0.05422
3221.00466,0.05406
3219.07592,0.05377
3217.14717,0.05374
3215.21843,0.05420
3213.28968,0.05471
3211.36094,0.05483
3209.43219,0.05459
3207.50345,0.05420
3205.57470,0.05401
3203.64596,0.05417
3201.71721,0.05424
3199.78846,0.05395
3197.85972,0.05383
3195.93097,0.05406
3194.00223,0.05414
3192.07348,0.05402
3190.14474,0.05406
3188.21599,0.05416
3186.28725,0.05402
3184.35850,0.05385
3182.42976,0.05393
3180.50101,0.05398
3178.57227,0.05381
3176.64352,0.05368
3174.71478,0.05363
3172.78603,0.05373
3170.85729,0.05391
3168.92854,0.05385
3166.99979,0.05379
3165.07105,0.05397
3163.14230,0.05415
3161.21356,0.05419
3159.28481,0.05404
3157.35607,0.05367
3155.42732,0.05347
3153.49858,0.05368
3151.56983,0.05386
3149.64109,0.05387
3147.71234,0.05401
3145.78360,0.05424
3143.85485,0.05430
3141.92611,0.05420
3139.99736,0.05419
3138.06861,0.05427
3136.13987,0.05423
3134.21112,0.05406
3132.28238,0.05393
3130.35363,0.05399
3128.42489,0.05411
3126.49614,0.05400
3124.56740,0.05384
3122.63865,0.05393
3120.70991,0.05413
3118.78116,0.05424
3116.85242,0.05414
3114.92367,0.05391
3112.99493,0.05385
3111.06618,0.05388
3109.13744,0.05384
3107.20869,0.05388
3105.27994,0.05391
3103.35120,0.05384
3101.42245,0.05392
3099.49371,0.05415
3097.56496,0.05425
3095.63622,0.05415
3093.70747,0.05395
3091.77873,0.05370
3089.84998,0.05356
3087.92124,0.05355
3085.99249,0.05354
3084.06375,0.05355
3082.13500,0.05356
3080.20626,0.05353
3078.27751,0.05348
3076.34877,0.05343
3074.42002,0.05337
3072.49127,0.05321
3070.56253,0.05299
3068.63378,0.05299
3066.70504,0.05316
3064.77629,0.05326
3062.84755,0.05336
3060.91880,0.05345
3058.99006,0.05347
3057.06131,0.05360
3055.13257,0.05386
3053.20382,0.05392
3051.27508,0.05372
3049.34633,0.05346
3047.41759,0.05322
3045.48884,0.05312
3043.56009,0.05312
3041.63135,0.05303
3039.70260,0.05281
3037.77386,0.05258
3035.84511,0.05254
3033.91637,0.05265
3031.98762,0.05267
3030.05888,0.05267
3028.13013,0.05274
3026.20139,0.05270
3024.27264,0.05250
3022.34390,0.05241
3020.41515,0.05243
3018.48641,0.05233
3016.55766,0.05214
3014.62892,0.05205
3012.70017,0.05215
3010.77142,0.05234
3008.84268,0.05235
3006.91393,0.05205
3004.98519,0.05176
3003.05644,0.05171
3001.12770,0.05167
2999.19895,0.05157
2997.27021,0.05160
2995.34146,0.05158
2993.41272,0.05140
2991.48397,0.05131
2989.55523,0.05123
2987.62648,0.05105
2985.69774,0.05096
2983.76899,0.05092
2981.84025,0.05063
2979.91150,0.05018
2977.98275,0.04995
2976.05401,0.05015
2974.12526,0.05061
2972.19652,0.05092
2970.26777,0.05079
2968.33903,0.05049
2966.41028,0.05035
2964.48154,0.05056
2962.55279,0.05100
2960.62405,0.05134
2958.69530,0.05153
2956.76656,0.05162
2954.83781,0.05156
2952.90907,0.05152
2950.98032,0.05156
2949.05157,0.05158
2947.12283,0.05176
2945.19408,0.05215
2943.26534,0.05251
2941.33659,0.05284
2939.40785,0.05322
2937.47910,0.05366
2935.55036,0.05419
2933.62161,0.05483
2931.69287,0.05552
2929.76412,0.05612
2927.83538,0.05650
2925.90663,0.05677
2923.97789,0.05720
2922.04914,0.05789
2920.12040,0.05867
2918.19165,0.05915
2916.26290,0.05915
2914.33416,0.05873
2912.40541,0.05818
2910.47667,0.05781
2908.54792,0.05763
2906.61918,0.05732
2904.69043,0.05693
2902.76169,0.05670
2900.83294,0.05664
2898.90420,0.05659
2896.97545,0.05644
2895.04671,0.05624
2893.11796,0.05606
2891.18922,0.05588
2889.26047,0.05583
2887.33172,0.05582
2885.40298,0.05574
2883.47423,0.05573
2881.54549,0.05582
2879.61674,0.05594
2877.68800,0.05599
2875.75925,0.05589
2873.83051,0.05584
2871.90176,0.05592
2869.97302,0.05583
2868.04427,0.05559
2866.11553,0.05558
2864.18678,0.05585
2862.25804,0.05623
2860.32929,0.05672
2858.40055,0.05729
2856.47180,0.05789
2854.54305,0.05850
2852.61431,0.05922
2850.68556,0.05985
2848.75682,0.05996
2846.82807,0.05973
2844.89933,0.05957
2842.97058,0.05930
2841.04184,0.05869
2839.11309,0.05814
2837.18435,0.05778
2835.25560,0.05739
2833.32686,0.05707
2831.39811,0.05689
2829.46937,0.05679
2827.54062,0.05680
2825.61188,0.05689
2823.68313,0.05696
2821.75438,0.05700
2819.82564,0.05692
2817.89689,0.05678
2815.96815,0.05664
2814.03940,0.05644
2812.11066,0.05619
2810.18191,0.05596
2808.25317,0.05588
2806.32442,0.05601
2804.39568,0.05620
2802.46693,0.05625
2800.53819,0.05619
2798.60944,0.05622
2796.68070,0.05632
2794.75195,0.05617
2792.82320,0.05588
2790.89446,0.05581
2788.96571,0.05602
2787.03697,0.05637
2785.10822,0.05663
2783.17948,0.05654
2781.25073,0.05635
2779.32199,0.05644
2777.39324,0.05651
2775.46450,0.05627
2773.53575,0.05606
2771.60701,0.05601
2769.67826,0.05590
2767.74952,0.05578
2765.82077,0.05583
2763.89203,0.05592
2761.96328,0.05595
2760.03453,0.05612
2758.10579,0.05632
2756.17704,0.05630
2754.24830,0.05623
2752.31955,0.05631
2750.39081,0.05642
2748.46206,0.05653
2746.53332,0.05658
2744.60457,0.05639
2742.67583,0.05621
2740.74708,0.05633
2738.81834,0.05651
2736.88959,0.05650
2734.96085,0.05642
2733.03210,0.05639
2731.10336,0.05639
2729.17461,0.05634
2727.24586,0.05633
2725.31712,0.05636
2723.38837,0.05629
2721.45963,0.05631
2719.53088,0.05661
2717.60214,0.05682
2715.67339,0.05672
2713.74465,0.05651
2711.81590,0.05646
2709.88716,0.05668
2707.95841,0.05692
2706.02967,0.05693
2704.10092,0.05694
2702.17218,0.05711
2700.24343,0.05721
2698.31468,0.05727
2696.38594,0.05744
2694.45719,0.05759
2692.52845,0.05771
2690.59970,0.05784
2688.67096,0.05795
2686.74221,0.05810
2684.81347,0.05821
2682.88472,0.05815
2680.95598,0.05812
2679.02723,0.05824
2677.09849,0.05843
2675.16974,0.05852
2673.24100,0.05841
2671.31225,0.05838
2669.38351,0.05865
2667.45476,0.05895
2665.52601,0.05904
2663.59727,0.05903
2661.66852,0.05905
2659.73978,0.05906
2657.81103,0.05898
2655.88229,0.05897
2653.95354,0.05918
2652.02480,0.05941
2650.09605,0.05945
2648.16731,0.05932
2646.23856,0.05922
2644.30982,0.05936
2642.38107,0.05960
2640.45233,0.05961
2638.52358,0.05955
2636.59484,0.05966
2634.66609,0.05977
2632.73734,0.05967
2630.80860,0.05953
2628.87985,0.05965
2626.95111,0.05997
2625.02236,0.06015
2623.09362,0.06016
2621.16487,0.06014
2619.23613,0.06016
2617.30738,0.06025
2615.37864,0.06030
2613.44989,0.06022
2611.52115,0.06017
2609.59240,0.06013
2607.66366,0.05991
2605.73491,0.05974
2603.80616,0.05983
2601.87742,0.05993
2599.94867,0.05992
2598.01993,0.06006
2596.09118,0.06040
2594.16244,0.06054
2592.23369,0.06040
2590.30495,0.06034
2588.37620,0.06042
2586.44746,0.06045
2584.51871,0.06046
2582.58997,0.06042
2580.66122,0.06037
2578.73248,0.06045
2576.80373,0.06057
2574.87499,0.06063
2572.94624,0.06069
2571.01749,0.06075
2569.08875,0.06074
2567.16000,0.06072
2565.23126,0.06073
2563.30251,0.06075
2561.37377,0.06075
2559.44502,0.06073
2557.51628,0.06077
2555.58753,0.06087
2553.65879,0.06091
2551.73004,0.06084
2549.80130,0.06065
2547.87255,0.06042
2545.94381,0.06035
2544.01506,0.06046
2542.08631,0.06068
2540.15757,0.06097
2538.22882,0.06120
2536.30008,0.06129
2534.37133,0.06136
2532.44259,0.06152
2530.51384,0.06174
2528.58510,0.06187
2526.65635,0.06184
2524.72761,0.06179
2522.79886,0.06196
2520.87012,0.06236
2518.94137,0.06271
2517.01263,0.06279
2515.08388,0.06280
2513.15514,0.06292
2511.22639,0.06296
2509.29764,0.06283
2507.36890,0.06275
2505.44015,0.06293
2503.51141,0.06325
2501.58266,0.06335
2499.65392,0.06326
2497.72517,0.06330
2495.79643,0.06351
2493.86768,0.06368
2491.93894,0.06367
2490.01019,0.06359
2488.08145,0.06369
2486.15270,0.06398
2484.22396,0.06427
2482.29521,0.06436
2480.36647,0.06430
2478.43772,0.06426
2476.50897,0.06431
2474.58023,0.06448
2472.65148,0.06474
2470.72274,0.06494
2468.79399,0.06506
2466.86525,0.06521
2464.93650,0.06538
2463.00776,0.06555
2461.07901,0.06566
2459.15027,0.06574
2457.22152,0.06587
2455.29278,0.06604
2453.36403,0.06627
2451.43529,0.06642
2449.50654,0.06640
2447.57779,0.06628
2445.64905,0.06614
2443.72030,0.06602
2441.79156,0.06588
2439.86281,0.06582
2437.93407,0.06590
2436.00532,0.06601
2434.07658,0.06612
2432.14783,0.06623
2430.21909,0.06628
2428.29034,0.06633
2426.36160,0.06642
2424.43285,0.06648
2422.50411,0.06662
2420.57536,0.06681
2418.64662,0.06688
2416.71787,0.06690
2414.78912,0.06700
2412.86038,0.06719
2410.93163,0.06738
2409.00289,0.06746
2407.07414,0.06752
2405.14540,0.06778
2403.21665,0.06820
2401.28791,0.06839
2399.35916,0.06834
2397.43042,0.06836
2395.50167,0.06847
2393.57293,0.06851
2391.64418,0.06847
2389.71544,0.06839
2387.78669,0.06836
2385.85795,0.06843
2383.92920,0.06860
2382.00045,0.06878
2380.07171,0.06879
2378.14296,0.06859
2376.21422,0.06833
2374.28547,0.06820
2372.35673,0.06822
2370.42798,0.06834
2368.49924,0.06846
2366.57049,0.06851
2364.64175,0.06858
2362.71300,0.06879
2360.78426,0.06894
2358.85551,0.06881
2356.92677,0.06864
2354.99802,0.06864
2353.06927,0.06865
2351.14053,0.06859
2349.21178,0.06863
2347.28304,0.06876
2345.35429,0.06871
2343.42555,0.06854
2341.49680,0.06848
2339.56806,0.06846
2337.63931,0.06838
2335.71057,0.06831
2333.78182,0.06843
2331.85308,0.06872
2329.92433,0.06890
2327.99559,0.06891
2326.06684,0.06904
2324.13810,0.06934
2322.20935,0.06960
2320.28060,0.06981
2318.35186,0.06994
2316.42311,0.06994
2314.49437,0.06996
2312.56562,0.07013
2310.63688,0.07045
2308.70813,0.07080
2306.77939,0.07107
2304.85064,0.07125
2302.92190,0.07131
2300.99315,0.07126
2299.06441,0.07135
2297.13566,0.07163
2295.20692,0.07178
2293.27817,0.07180
2291.34943,0.07198
2289.42068,0.07231
2287.49193,0.07257
2285.56319,0.07278
2283.63444,0.07304
2281.70570,0.07329
2279.77695,0.07330
2277.84821,0.07324
2275.91946,0.07337
2273.99072,0.07353
2272.06197,0.07360
2270.13323,0.07372
2268.20448,0.07391
2266.27574,0.07400
2264.34699,0.07405
2262.41825,0.07414
2260.48950,0.07424
2258.56075,0.07437
2256.63201,0.07454
2254.70326,0.07470
2252.77452,0.07473
2250.84577,0.07457
2248.91703,0.07445
2246.98828,0.07446
2245.05954,0.07449
2243.13079,0.07443
2241.20205,0.07436
2239.27330,0.07438
2237.34456,0.07454
2235.41581,0.07468
2233.48707,0.07466
2231.55832,0.07465
2229.62958,0.07477
2227.70083,0.07486
2225.77208,0.07484
2223.84334,0.07481
2221.91459,0.07482
2219.98585,0.07488
2218.05710,0.07499
2216.12836,0.07510
2214.19961,0.07518
2212.27087,0.07529
2210.34212,0.07538
2208.41338,0.07533
2206.48463,0.07514
2204.55589,0.07494
2202.62714,0.07480
2200.69840,0.07463
2198.76965,0.07440
2196.84090,0.07419
2194.91216,0.07402
2192.98341,0.07394
2191.05467,0.07390
2189.12592,0.07366
2187.19718,0.07330
2185.26843,0.07315
2183.33969,0.07317
2181.41094,0.07301
2179.48220,0.07257
2177.55345,0.07213
2175.62471,0.07183
2173.69596,0.07165
2171.76722,0.07148
2169.83847,0.07112
2167.90973,0.07066
2165.98098,0.07031
2164.05223,0.07002
2162.12349,0.06970
2160.19474,0.06938
2158.26600,0.06909
2156.33725,0.06878
2154.40851,0.06850
2152.47976,0.06824
2150.55102,0.06789
2148.62227,0.06747
2146.69353,0.06706
2144.76478,0.06666
2142.83604,0.06630
2140.90729,0.06600
2138.97855,0.06578
2137.04980,0.06570
2135.12106,0.06561
2133.19231,0.06534
2131.26356,0.06490
2129.33482,0.06443
2127.40607,0.06418
2125.47733,0.06424
2123.54858,0.06427
2121.61984,0.06400
2119.69109,0.06369
2117.76235,0.06354
2115.83360,0.06344
2113.90486,0.06325
2111.97611,0.06297
2110.04737,0.06274
2108.11862,0.06262
2106.18988,0.06256
2104.26113,0.06248
2102.33238,0.06225
2100.40364,0.06198
2098.47489,0.06190
2096.54615,0.06191
2094.61740,0.06185
2092.68866,0.06164
2090.75991,0.06141
2088.83117,0.06134
2086.90242,0.06137
2084.97368,0.06132
2083.04493,0.06113
2081.11619,0.06092
2079.18744,0.06078
2077.25870,0.06071
2075.32995,0.06075
2073.40121,0.06094
2071.47246,0.06113
2069.54371,0.06121
2067.61497,0.06122
2065.68622,0.06130
2063.75748,0.06141
2061.82873,0.06133
2059.89999,0.06119
2057.97124,0.06127
2056.04250,0.06146
2054.11375,0.06163
2052.18501,0.06178
2050.25626,0.06177
2048.32752,0.06160
2046.39877,0.06150
2044.47003,0.06158
2042.54128,0.06176
2040.61254,0.06197
2038.68379,0.06201
2036.75504,0.06183
2034.82630,0.06165
2032.89755,0.06156
2030.96881,0.06147
2029.04006,0.06131
2027.11132,0.06114
2025.18257,0.06104
2023.25383,0.06098
2021.32508,0.06084
2019.39634,0.06066
2017.46759,0.06058
2015.53885,0.06063
2013.61010,0.06060
2011.68136,0.06047
2009.75261,0.06034
2007.82386,0.06023
2005.89512,0.06009
2003.96637,0.06000
2002.03763,0.06003
2000.10888,0.06013
1998.18014,0.06012
1996.25139,0.06004
1994.32265,0.06001
1992.39390,0.05993
1990.46516,0.05971
1988.53641,0.05957
1986.60767,0.05962
1984.67892,0.05974
1982.75018,0.05979
1980.82143,0.05977
1978.89269,0.05978
1976.96394,0.05975
1975.03519,0.05956
1973.10645,0.05933
1971.17770,0.05926
1969.24896,0.05933
1967.32021,0.05928
1965.39147,0.05911
1963.46272,0.05902
1961.53398,0.05897
1959.60523,0.05881
1957.67649,0.05863
1955.74774,0.05863
1953.81900,0.05874
1951.89025,0.05874
1949.96151,0.05874
1948.03276,0.05891
1946.10402,0.05917
1944.17527,0.05942
1942.24652,0.05966
1940.31778,0.06000
1938.38903,0.06043
1936.46029,0.06069
1934.53154,0.06069
1932.60280,0.06059
1930.67405,0.06055
1928.74531,0.06064
1926.81656,0.06078
1924.88782,0.06082
1922.95907,0.06073
1921.03033,0.06059
1919.10158,0.06041
1917.17284,0.06020
1915.24409,0.06003
1913.31534,0.05988
1911.38660,0.05975
1909.45785,0.05967
1907.52911,0.05957
1905.60036,0.05935
1903.67162,0.05901
1901.74287,0.05861
1899.81413,0.05823
1897.88538,0.05792
1895.95664,0.05768
1894.02789,0.05743
1892.09915,0.05709
1890.17040,0.05675
1888.24166,0.05647
1886.31291,0.05631
1884.38417,0.05632
1882.45542,0.05639
1880.52667,0.05630
1878.59793,0.05613
1876.66918,0.05608
1874.74044,0.05605
1872.81169,0.05596
1870.88295,0.05587
1868.95420,0.05585
1867.02546,0.05581
1865.09671,0.05566
1863.16797,0.05545
1861.23922,0.05523
1859.31048,0.05496
1857.38173,0.05472
1855.45299,0.05449
1853.52424,0.05435
1851.59549,0.05432
1849.66675,0.05424
1847.73800,0.05403
1845.80926,0.05373
1843.88051,0.05335
1841.95177,0.05300
1840.02302,0.05272
1838.09428,0.05248
1836.16553,0.05227
1834.23679,0.05205
1832.30804,0.05184
1830.37930,0.05159
1828.45055,0.05120
1826.52181,0.05067
1824.59306,0.05006
1822.66432,0.04961
1820.73557,0.04936
1818.80682,0.04914
1816.87808,0.04888
1814.94933,0.04852
1813.02059,0.04799
1811.09184,0.04745
1809.16310,0.04714
1807.23435,0.04694
1805.30561,0.04669
1803.37686,0.04650
1801.44812,0.04629
1799.51937,0.04598
1797.59063,0.04573
1795.66188,0.04564
1793.73314,0.04553
1791.80439,0.04525
1789.87565,0.04491
1787.94690,0.04462
1786.01815,0.04437
1784.08941,0.04417
1782.16066,0.04393
1780.23192,0.04348
1778.30317,0.04297
1776.37443,0.04267
1774.44568,0.04251
1772.51694,0.04213
1770.58819,0.04159
1768.65945,0.04117
1766.73070,0.04068
1764.80196,0.04002
1762.87321,0.03926
1760.94447,0.03840
1759.01572,0.03756
1757.08697,0.03682
1755.15823,0.03609
1753.22948,0.03523
1751.30074,0.03407
1749.37199,0.03287
1747.44325,0.03240
1745.51450,0.03284
1743.58576,0.03387
1741.65701,0.03551
1739.72827,0.03814
1737.79952,0.04152
1735.87078,0.04526
1733.94203,0.04955
1732.01329,0.05370
1730.08454,0.05712
1728.15580,0.06033
1726.22705,0.06335
1724.29830,0.06581
1722.36956,0.06756
1720.44081,0.06865
1718.51207,0.06915
1716.58332,0.06922
1714.65458,0.06901
1712.72583,0.06852
1710.79709,0.06785
1708.86834,0.06708
1706.93960,0.06626
1705.01085,0.06548
1703.08211,0.06486
1701.15336,0.06419
1699.22462,0.06337
1697.29587,0.06257
1695.36713,0.06171
1693.43838,0.06096
1691.50963,0.06049
1689.58089,0.06012
1687.65214,0.05979
1685.72340,0.05948
1683.79465,0.05909
1681.86591,0.05887
1679.93716,0.05890
1678.00842,0.05894
1676.07967,0.05886
1674.15093,0.05872
1672.22218,0.05853
1670.29344,0.05814
1668.36469,0.05763
1666.43595,0.05742
1664.50720,0.05746
1662.57845,0.05742
1660.64971,0.05746
1658.72096,0.05766
1656.79222,0.05779
1654.86347,0.05775
1652.93473,0.05762
1651.00598,0.05755
1649.07724,0.05749
1647.14849,0.05728
1645.21975,0.05684
1643.29100,0.05648
1641.36226,0.05632
1639.43351,0.05617
1637.50477,0.05597
1635.57602,0.05582
1633.64728,0.05579
1631.71853,0.05586
1629.78978,0.05596
1627.86104,0.05596
1625.93229,0.05582
1624.00355,0.05564
1622.07480,0.05545
1620.14606,0.05535
1618.21731,0.05529
1616.28857,0.05519
1614.35982,0.05512
1612.43108,0.05512
1610.50233,0.05514
1608.57359,0.05516
1606.64484,0.05524
1604.71610,0.05534
1602.78735,0.05528
1600.85861,0.05515
1598.92986,0.05526
1597.00111,0.05547
1595.07237,0.05543
1593.14362,0.05518
1591.21488,0.05492
1589.28613,0.05473
1587.35739,0.05467
1585.42864,0.05457
1583.49990,0.05437
1581.57115,0.05433
1579.64241,0.05448
1577.71366,0.05452
1575.78492,0.05440
1573.85617,0.05431
1571.92743,0.05410
1569.99868,0.05380
1568.06993,0.05368
1566.14119,0.05369
1564.21244,0.05370
1562.28370,0.05372
1560.35495,0.05367
1558.42621,0.05342
1556.49746,0.05307
1554.56872,0.05286
1552.63997,0.05285
1550.71123,0.05292
1548.78248,0.05294
1546.85374,0.05296
1544.92499,0.05305
1542.99625,0.05313
1541.06750,0.05284
1539.13876,0.05227
1537.21001,0.05213
1535.28126,0.05227
1533.35252,0.05215
1531.42377,0.05178
1529.49503,0.05151
1527.56628,0.05136
1525.63754,0.05118
1523.70879,0.05090
1521.78005,0.05043
1519.85130,0.04985
1517.92256,0.04937
1515.99381,0.04908
1514.06507,0.04912
1512.13632,0.04961
1510.20758,0.05047
1508.27883,0.05146
1506.35008,0.05208
1504.42134,0.05211
1502.49259,0.05206
1500.56385,0.05210
1498.63510,0.05195
1496.70636,0.05153
1494.77761,0.05111
1492.84887,0.05061
1490.92012,0.04995
1488.99138,0.04946
1487.06263,0.04919
1485.13389,0.04876
1483.20514,0.04819
1481.27640,0.04780
1479.34765,0.04763
1477.41891,0.04743
1475.49016,0.04714
1473.56141,0.04689
1471.63267,0.04677
1469.70392,0.04684
1467.77518,0.04710
1465.84643,0.04754
1463.91769,0.04811
1461.98894,0.04866
1460.06020,0.04907
1458.13145,0.04924
1456.20271,0.04907
1454.27396,0.04883
1452.34522,0.04881
1450.41647,0.04910
1448.48773,0.04957
1446.55898,0.04995
1444.63024,0.05019
1442.70149,0.05047
1440.77274,0.05071
1438.84400,0.05077
1436.91525,0.05071
1434.98651,0.05059
1433.05776,0.05041
1431.12902,0.05028
1429.20027,0.05022
1427.27153,0.05011
1425.34278,0.04992
1423.41404,0.04972
1421.48529,0.04943
1419.55655,0.04898
1417.62780,0.04840
1415.69906,0.04793
1413.77031,0.04786
1411.84156,0.04821
1409.91282,0.04868
1407.98407,0.04913
1406.05533,0.04940
1404.12658,0.04926
1402.19784,0.04888
1400.26909,0.04863
1398.34035,0.04864
1396.41160,0.04874
1394.48286,0.04874
1392.55411,0.04869
1390.62537,0.04876
1388.69662,0.04892
1386.76788,0.04897
1384.83913,0.04889
1382.91039,0.04883
1380.98164,0.04879
1379.05289,0.04881
1377.12415,0.04899
1375.19540,0.04921
1373.26666,0.04918
1371.33791,0.04899
1369.40917,0.04884
1367.48042,0.04870
1365.55168,0.04853
1363.62293,0.04848
1361.69419,0.04855
1359.76544,0.04844
1357.83670,0.04817
1355.90795,0.04801
1353.97921,0.04786
1352.05046,0.04758
1350.12172,0.04740
1348.19297,0.04735
1346.26422,0.04734
1344.33548,0.04732
1342.40673,0.04716
1340.47799,0.04690
1338.54924,0.04668
1336.62050,0.04635
1334.69175,0.04596
1332.76301,0.04575
1330.83426,0.04565
1328.90552,0.04540
1326.97677,0.04508
1325.04803,0.04497
1323.11928,0.04485
1321.19054,0.04449
1319.26179,0.04419
1317.33304,0.04410
1315.40430,0.04392
1313.47555,0.04366
1311.54681,0.04345
1309.61806,0.04324
1307.68932,0.04304
1305.76057,0.04293
1303.83183,0.04287
1301.90308,0.04284
1299.97434,0.04292
1298.04559,0.04301
1296.11685,0.04295
1294.18810,0.04285
1292.25936,0.04286
1290.33061,0.04280
1288.40187,0.04251
1286.47312,0.04220
1284.54437,0.04201
1282.61563,0.04184
1280.68688,0.04161
1278.75814,0.04151
1276.82939,0.04164
1274.90065,0.04191
1272.97190,0.04214
1271.04316,0.04229
1269.11441,0.04247
1267.18567,0.04264
1265.25692,0.04276
1263.32818,0.04299
1261.39943,0.04324
1259.47069,0.04333
1257.54194,0.04343
1255.61320,0.04375
1253.68445,0.04434
1251.75570,0.04506
1249.82696,0.04557
1247.89821,0.04586
1245.96947,0.04623
1244.04072,0.04654
1242.11198,0.04669
1240.18323,0.04684
1238.25449,0.04703
1236.32574,0.04722
1234.39700,0.04740
1232.46825,0.04756
1230.53951,0.04773
1228.61076,0.04785
1226.68202,0.04779
1224.75327,0.04775
1222.82452,0.04801
1220.89578,0.04835
1218.96703,0.04830
1217.03829,0.04778
1215.10954,0.04728
1213.18080,0.04715
1211.25205,0.04716
1209.32331,0.04720
1207.39456,0.04742
1205.46582,0.04772
1203.53707,0.04799
1201.60833,0.04824
1199.67958,0.04834
1197.75084,0.04845
1195.82209,0.04893
1193.89335,0.04958
1191.96460,0.04996
1190.03585,0.05030
1188.10711,0.05097
1186.17836,0.05177
1184.24962,0.05244
1182.32087,0.05304
1180.39213,0.05371
1178.46338,0.05448
1176.53464,0.05509
1174.60589,0.05560
1172.67715,0.05632
1170.74840,0.05716
1168.81966,0.05804
1166.89091,0.05909
1164.96217,0.06015
1163.03342,0.06117
1161.10467,0.06237
1159.17593,0.06367
1157.24718,0.06486
1155.31844,0.06580
1153.38969,0.06649
1151.46095,0.06700
1149.53220,0.06728
1147.60346,0.06721
1145.67471,0.06684
1143.74597,0.06640
1141.81722,0.06596
1139.88848,0.06556
1137.95973,0.06537
1136.03099,0.06545
1134.10224,0.06553
1132.17350,0.06547
1130.24475,0.06540
1128.31600,0.06556
1126.38726,0.06590
1124.45851,0.06617
1122.52977,0.06633
1120.60102,0.06668
1118.67228,0.06723
1116.74353,0.06788
1114.81479,0.06860
1112.88604,0.06932
1110.95730,0.07017
1109.02855,0.07129
1107.09981,0.07216
1105.17106,0.07253
1103.24232,0.07292
1101.31357,0.07362
1099.38483,0.07440
1097.45608,0.07508
1095.52733,0.07551
1093.59859,0.07564
1091.66984,0.07583
1089.74110,0.07631
1087.81235,0.07675
1085.88361,0.07702
1083.95486,0.07745
1082.02612,0.07799
1080.09737,0.07846
1078.16863,0.07889
1076.23988,0.07929
1074.31114,0.07960
1072.38239,0.07980
1070.45365,0.08011
1068.52490,0.08070
1066.59615,0.08129
1064.66741,0.08150
1062.73866,0.08144
1060.80992,0.08147
1058.88117,0.08169
1056.95243,0.08192
1055.02368,0.08198
1053.09494,0.08189
1051.16619,0.08178
1049.23745,0.08171
1047.30870,0.08164
1045.37996,0.08151
1043.45121,0.08147
1041.52247,0.08158
1039.59372,0.08164
1037.66498,0.08139
1035.73623,0.08095
1033.80748,0.08066
1031.87874,0.08058
1029.94999,0.08059
1028.02125,0.08072
1026.09250,0.08090
1024.16376,0.08085
1022.23501,0.08047
1020.30627,0.08010
1018.37752,0.07980
1016.44878,0.07927
1014.52003,0.07880
1012.59129,0.07861
1010.66254,0.07835
1008.73380,0.07795
1006.80505,0.07755
1004.87631,0.07711
1002.94756,0.07669
1001.01881,0.07634
999.09007,0.07585
997.16132,0.07508
995.23258,0.07433
993.30383,0.07402
991.37509,0.07415
989.44634,0.07440
987.51760,0.07460
985.58885,0.07475
983.66011,0.07480
981.73136,0.07472
979.80262,0.07449
977.87387,0.07432
975.94513,0.07463
974.01638,0.07521
972.08763,0.07538
970.15889,0.07511
968.23014,0.07490
966.30140,0.07483
964.37265,0.07473
962.44391,0.07471
960.51516,0.07477
958.58642,0.07463
956.65767,0.07431
954.72893,0.07411
952.80018,0.07413
950.87144,0.07420
948.94269,0.07402
947.01395,0.07356
945.08520,0.07315
943.15646,0.07307
941.22771,0.07308
939.29896,0.07301
937.37022,0.07284
935.44147,0.07245
933.51273,0.07209
931.58398,0.07212
929.65524,0.07235
927.72649,0.07239
925.79775,0.07217
923.86900,0.07194
921.94026,0.07177
920.01151,0.07144
918.08277,0.07118
916.15402,0.07124
914.22528,0.07123
912.29653,0.07094
910.36779,0.07073
908.43904,0.07072
906.51029,0.07078
904.58155,0.07097
902.65280,0.07125
900.72406,0.07124
898.79531,0.07103
896.86657,0.07110
894.93782,0.07114
893.00908,0.07079
891.08033,0.07048
889.15159,0.07040
887.22284,0.07036
885.29410,0.07022
883.36535,0.06995
881.43661,0.06978
879.50786,0.06990
877.57911,0.07020
875.65037,0.07028
873.72162,0.06991
871.79288,0.06951
869.86413,0.06945
867.93539,0.06932
866.00664,0.06877
864.07790,0.06815
862.14915,0.06796
860.22041,0.06809
858.29166,0.06808
856.36292,0.06778
854.43417,0.06731
852.50543,0.06690
850.57668,0.06661
848.64794,0.06631
846.71919,0.06597
844.79044,0.06575
842.86170,0.06575
840.93295,0.06580
839.00421,0.06573
837.07546,0.06552
835.14672,0.06536
833.21797,0.06548
831.28923,0.06591
829.36048,0.06631
827.43174,0.06643
825.50299,0.06639
823.57425,0.06630
821.64550,0.06631
819.71676,0.06659
817.78801,0.06681
815.85926,0.06668
813.93052,0.06668
812.00177,0.06712
810.07303,0.06772
808.14428,0.06849
806.21554,0.06920
804.28679,0.06925
802.35805,0.06895
800.42930,0.06891
798.50056,0.06906
796.57181,0.06913
794.64307,0.06907
792.71432,0.06882
790.78558,0.06847
788.85683,0.06826
786.92809,0.06813
784.99934,0.06808
783.07059,0.06843
781.14185,0.06894
779.21310,0.06917
777.28436,0.06921
775.35561,0.06922
773.42687,0.06915
771.49812,0.06910
769.56938,0.06914
767.64063,0.06897
765.71189,0.06865
763.78314,0.06846
761.85440,0.06826
759.92565,0.06814
757.99691,0.06826
756.06816,0.06849
754.13942,0.06861
752.21067,0.06838
750.28192,0.06805
748.35318,0.06788
746.42443,0.06773
744.49569,0.06762
742.56694,0.06769
740.63820,0.06785
738.70945,0.06803
736.78071,0.06796
734.85196,0.06772
732.92322,0.06773
730.99447,0.06809
729.06573,0.06867
727.13698,0.06951
725.20824,0.07035
723.27949,0.07056
721.35074,0.07015
719.42200,0.06991
717.49325,0.06998
715.56451,0.06987
713.63576,0.06934
711.70702,0.06865
709.77827,0.06811
707.84953,0.06768
705.92078,0.06751
703.99204,0.06783
702.06329,0.06808
700.13455,0.06794
698.20580,0.06775
696.27706,0.06808
694.34831,0.06910
692.41957,0.07001
690.49082,0.07035
688.56207,0.07067
686.63333,0.07114
684.70458,0.07141
682.77584,0.07193
680.84709,0.07306
678.91835,0.07413
676.98960,0.07465
675.06086,0.07436
673.13211,0.07359
671.20337,0.07318
669.27462,0.07308
667.34588,0.07298
665.41713,0.07289
663.48839,0.07254
661.55964,0.07200
659.63090,0.07161
657.70215,0.07099
655.77340,0.07004
653.84466,0.06937
651.91591,0.06887
649.98717,0.06805
648.05842,0.06736
646.12968,0.06739
644.20093,0.06752
642.27219,0.06716
640.34344,0.06692
638.41470,0.06691
636.48595,0.06656
634.55721,0.06594
632.62846,0.06523
630.69972,0.06463
628.77097,0.06445
626.84222,0.06462
624.91348,0.06497
622.98473,0.06518
621.05599,0.06531
619.12724,0.06551
617.19850,0.06550
615.26975,0.06505
613.34101,0.06453
611.41226,0.06453
609.48352,0.06472
607.55477,0.06445
605.62603,0.06417
603.69728,0.06454
601.76854,0.06548
599.83979,0.06625
