7497.03301,0.78262
7495.10426,0.77781
7493.17552,0.77586
7491.24677,0.77820
7489.31803,0.78662
7487.38928,0.79338
7485.46054,0.78984
7483.53179,0.77996
7481.60305,0.77210
7479.67430,0.76989
7477.74556,0.77015
7475.81681,0.76789
7473.88807,0.76430
7471.95932,0.76549
7470.03057,0.77019
7468.10183,0.77163
7466.17308,0.77030
7464.24434,0.76720
7462.31559,0.76194
7460.38685,0.75852
7458.45810,0.75781
7456.52936,0.75752
7454.60061,0.75716
7452.67187,0.75629
7450.74312,0.75445
7448.81438,0.75149
7446.88563,0.74754
7444.95689,0.74511
7443.02814,0.74586
7441.09940,0.74657
7439.17065,0.74544
7437.24190,0.74469
7435.31316,0.74534
7433.38441,0.74558
7431.45567,0.74280
7429.52692,0.73783
7427.59818,0.73637
7425.66943,0.73955
7423.74069,0.73821
7421.81194,0.72917
7419.88320,0.72261
7417.95445,0.72346
7416.02571,0.72685
7414.09696,0.72851
7412.16822,0.72798
7410.23947,0.72748
7408.31073,0.72827
7406.38198,0.72784
7404.45323,0.72403
7402.52449,0.71915
7400.59574,0.71566
7398.66700,0.71413
7396.73825,0.71374
7394.80951,0.71166
7392.88076,0.70818
7390.95202,0.70692
7389.02327,0.70809
7387.09453,0.70909
7385.16578,0.71013
7383.23704,0.71157
7381.30829,0.71203
7379.37955,0.71341
7377.45080,0.71385
7375.52205,0.70793
7373.59331,0.70016
7371.66456,0.69852
7369.73582,0.70333
7367.80707,0.70822
7365.87833,0.70629
7363.94958,0.69967
7362.02084,0.69629
7360.09209,0.69810
7358.16335,0.69947
7356.23460,0.69568
7354.30586,0.69209
7352.37711,0.69694
7350.44837,0.70427
7348.51962,0.70266
7346.59088,0.69580
7344.66213,0.69304
7342.73338,0.69262
7340.80464,0.68825
7338.87589,0.68157
7336.94715,0.67912
7335.01840,0.68132
7333.08966,0.68173
7331.16091,0.67682
7329.23217,0.67233
7327.30342,0.67292
7325.37468,0.67435
7323.44593,0.67467
7321.51719,0.67537
7319.58844,0.67431
7317.65970,0.67249
7315.73095,0.67297
7313.80221,0.67481
7311.87346,0.67709
7309.94471,0.67675
7308.01597,0.67094
7306.08722,0.66561
7304.15848,0.66534
7302.22973,0.66721
7300.30099,0.66908
7298.37224,0.66887
7296.44350,0.66448
7294.51475,0.65890
7292.58601,0.65635
7290.65726,0.65596
7288.72852,0.65612
7286.79977,0.65756
7284.87103,0.65922
7282.94228,0.65997
7281.01353,0.65929
7279.08479,0.65642
7277.15604,0.65396
7275.22730,0.65454
7273.29855,0.65685
7271.36981,0.65837
7269.44106,0.65798
7267.51232,0.65674
7265.58357,0.65491
7263.65483,0.65211
7261.72608,0.65046
7259.79734,0.65025
7257.86859,0.64881
7255.93985,0.64718
7254.01110,0.64819
7252.08236,0.65070
7250.15361,0.65120
7248.22486,0.64989
7246.29612,0.64936
7244.36737,0.64872
7242.43863,0.64877
7240.50988,0.65124
7238.58114,0.65203
7236.65239,0.64998
7234.72365,0.64833
7232.79490,0.64837
7230.86616,0.65087
7228.93741,0.65412
7227.00867,0.65420
7225.07992,0.64991
7223.15118,0.64377
7221.22243,0.64037
7219.29369,0.64071
7217.36494,0.64017
7215.43619,0.63775
7213.50745,0.63707
7211.57870,0.63726
7209.64996,0.63548
7207.72121,0.63383
7205.79247,0.63373
7203.86372,0.63209
7201.93498,0.63009
7200.00623,0.63092
7198.07749,0.63246
7196.14874,0.63355
7194.22000,0.63359
7192.29125,0.62910
7190.36251,0.62040
7188.43376,0.61194
7186.50501,0.60696
7184.57627,0.60645
7182.64752,0.60951
7180.71878,0.61374
7178.79003,0.61689
7176.86129,0.61801
7174.93254,0.61723
7173.00380,0.61585
7171.07505,0.61587
7169.14631,0.61726
7167.21756,0.61749
7165.28882,0.61637
7163.36007,0.61672
7161.43133,0.61823
7159.50258,0.61723
7157.57384,0.61318
7155.64509,0.60769
7153.71634,0.60162
7151.78760,0.59785
7149.85885,0.59768
7147.93011,0.59786
7146.00136,0.59604
7144.07262,0.59417
7142.14387,0.59432
7140.21513,0.59430
7138.28638,0.59306
7136.35764,0.59141
7134.42889,0.58740
7132.50015,0.58259
7130.57140,0.58128
7128.64266,0.58280
7126.71391,0.58383
7124.78516,0.58263
7122.85642,0.57986
7120.92767,0.57795
7118.99893,0.57756
7117.07018,0.57600
7115.14144,0.57220
7113.21269,0.56832
7111.28395,0.56442
7109.35520,0.55994
7107.42646,0.55736
7105.49771,0.55785
7103.56897,0.55902
7101.64022,0.55897
7099.71148,0.55736
7097.78273,0.55408
7095.85399,0.54982
7093.92524,0.54541
7091.99649,0.54247
7090.06775,0.54356
7088.13900,0.54558
7086.21026,0.54205
7084.28151,0.53513
7082.35277,0.53082
7080.42402,0.52835
7078.49528,0.52622
7076.56653,0.52695
7074.63779,0.52943
7072.70904,0.52790
7070.78030,0.52263
7068.85155,0.51964
7066.92281,0.51953
7064.99406,0.51933
7063.06532,0.51915
7061.13657,0.51761
7059.20782,0.51224
7057.27908,0.50761
7055.35033,0.50755
7053.42159,0.50773
7051.49284,0.50535
7049.56410,0.50210
7047.63535,0.49953
7045.70661,0.49820
7043.77786,0.49727
7041.84912,0.49572
7039.92037,0.49394
7037.99163,0.49144
7036.06288,0.48682
7034.13414,0.48182
7032.20539,0.47837
7030.27664,0.47543
7028.34790,0.47351
7026.41915,0.47359
7024.49041,0.47392
7022.56166,0.47372
7020.63292,0.47288
7018.70417,0.47017
7016.77543,0.46784
7014.84668,0.46818
7012.91794,0.46823
7010.98919,0.46657
7009.06045,0.46500
7007.13170,0.46399
7005.20296,0.46493
7003.27421,0.46743
7001.34547,0.46712
6999.41672,0.46338
6997.48797,0.45895
6995.55923,0.45572
6993.63048,0.45567
6991.70174,0.45761
6989.77299,0.45780
6987.84425,0.45521
6985.91550,0.45209
6983.98676,0.45042
6982.05801,0.44972
6980.12927,0.45069
6978.20052,0.45413
6976.27178,0.45638
6974.34303,0.45445
6972.41429,0.45088
6970.48554,0.44805
6968.55680,0.44513
6966.62805,0.44420
6964.69930,0.44682
6962.77056,0.44883
6960.84181,0.44864
6958.91307,0.44845
6956.98432,0.44807
6955.05558,0.44664
6953.12683,0.44510
6951.19809,0.44558
6949.26934,0.44797
6947.34060,0.44904
6945.41185,0.44790
6943.48311,0.44655
6941.55436,0.44546
6939.62562,0.44536
6937.69687,0.44663
6935.76812,0.44624
6933.83938,0.44448
6931.91063,0.44565
6929.98189,0.44901
6928.05314,0.44955
6926.12440,0.44622
6924.19565,0.44471
6922.26691,0.44899
6920.33816,0.45372
6918.40942,0.45404
6916.48067,0.45323
6914.55193,0.45281
6912.62318,0.45057
6910.69444,0.44775
6908.76569,0.44698
6906.83695,0.44842
6904.90820,0.45050
6902.97945,0.45213
6901.05071,0.45246
6899.12196,0.45000
6897.19322,0.44742
6895.26447,0.44852
6893.33573,0.45042
6891.40698,0.45028
6889.47824,0.45056
6887.54949,0.45206
6885.62075,0.45231
6883.69200,0.45119
6881.76326,0.44987
6879.83451,0.44855
6877.90577,0.44827
6875.97702,0.44971
6874.04828,0.45237
6872.11953,0.45407
6870.19078,0.45273
6868.26204,0.45063
6866.33329,0.45072
6864.40455,0.45115
6862.47580,0.45009
6860.54706,0.45083
6858.61831,0.45476
6856.68957,0.45713
6854.76082,0.45623
6852.83208,0.45567
6850.90333,0.45658
6848.97459,0.45714
6847.04584,0.45602
6845.11710,0.45378
6843.18835,0.45297
6841.25960,0.45433
6839.33086,0.45606
6837.40211,0.45721
6835.47337,0.45765
6833.54462,0.45770
6831.61588,0.45791
6829.68713,0.45775
6827.75839,0.45646
6825.82964,0.45506
6823.90090,0.45540
6821.97215,0.45719
6820.04341,0.45820
6818.11466,0.45785
6816.18592,0.45882
6814.25717,0.46164
6812.32843,0.46259
6810.39968,0.46054
6808.47093,0.45832
6806.54219,0.45857
6804.61344,0.46135
6802.68470,0.46357
6800.75595,0.46309
6798.82721,0.46164
6796.89846,0.46086
6794.96972,0.46051
6793.04097,0.46111
6791.11223,0.46233
6789.18348,0.46264
6787.25474,0.46249
6785.32599,0.46272
6783.39725,0.46390
6781.46850,0.46703
6779.53975,0.46967
6777.61101,0.46926
6775.68226,0.46926
6773.75352,0.47183
6771.82477,0.47383
6769.89603,0.47274
6767.96728,0.46933
6766.03854,0.46652
6764.10979,0.46549
6762.18105,0.46500
6760.25230,0.46434
6758.32356,0.46408
6756.39481,0.46503
6754.46607,0.46644
6752.53732,0.46778
6750.60858,0.47061
6748.67983,0.47474
6746.75108,0.47763
6744.82234,0.47829
6742.89359,0.47709
6740.96485,0.47476
6739.03610,0.47362
6737.10736,0.47424
6735.17861,0.47480
6733.24987,0.47554
6731.32112,0.47756
6729.39238,0.47994
6727.46363,0.48092
6725.53489,0.47965
6723.60614,0.47721
6721.67740,0.47548
6719.74865,0.47608
6717.81991,0.47950
6715.89116,0.48223
6713.96241,0.48173
6712.03367,0.48146
6710.10492,0.48200
6708.17618,0.48012
6706.24743,0.47793
6704.31869,0.47921
6702.38994,0.48239
6700.46120,0.48463
6698.53245,0.48639
6696.60371,0.48827
6694.67496,0.48947
6692.74622,0.48977
6690.81747,0.48923
6688.88873,0.48843
6686.95998,0.48876
6685.03123,0.49086
6683.10249,0.49354
6681.17374,0.49443
6679.24500,0.49316
6677.31625,0.49174
6675.38751,0.49068
6673.45876,0.48856
6671.53002,0.48623
6669.60127,0.48714
6667.67253,0.49213
6665.74378,0.49807
6663.81504,0.50085
6661.88629,0.49817
6659.95755,0.49282
6658.02880,0.49017
6656.10006,0.49122
6654.17131,0.49478
6652.24256,0.49914
6650.31382,0.49959
6648.38507,0.49641
6646.45633,0.49657
6644.52758,0.50027
6642.59884,0.50135
6640.67009,0.50010
6638.74135,0.50082
6636.81260,0.50227
6634.88386,0.50128
6632.95511,0.49998
6631.02637,0.50160
6629.09762,0.50464
6627.16888,0.50576
6625.24013,0.50467
6623.31139,0.50524
6621.38264,0.50886
6619.45389,0.51081
6617.52515,0.50973
6615.59640,0.51002
6613.66766,0.51179
6611.73891,0.51100
6609.81017,0.50788
6607.88142,0.50610
6605.95268,0.50606
6604.02393,0.50602
6602.09519,0.50668
6600.16644,0.50872
6598.23770,0.51046
6596.30895,0.51151
6594.38021,0.51337
6592.45146,0.51616
6590.52271,0.51849
6588.59397,0.51932
6586.66522,0.51892
6584.73648,0.51846
6582.80773,0.51828
6580.87899,0.51699
6578.95024,0.51530
6577.02150,0.51565
6575.09275,0.51710
6573.16401,0.51864
6571.23526,0.52031
6569.30652,0.52047
6567.37777,0.51988
6565.44903,0.52073
6563.52028,0.52139
6561.59154,0.52045
6559.66279,0.52023
6557.73404,0.52187
6555.80530,0.52358
6553.87655,0.52424
6551.94781,0.52399
6550.01906,0.52409
6548.09032,0.52549
6546.16157,0.52633
6544.23283,0.52472
6542.30408,0.52283
6540.37534,0.52324
6538.44659,0.52453
6536.51785,0.52497
6534.58910,0.52494
6532.66036,0.52514
6530.73161,0.52568
6528.80287,0.52583
6526.87412,0.52575
6524.94537,0.52557
6523.01663,0.52431
6521.08788,0.52334
6519.15914,0.52447
6517.23039,0.52652
6515.30165,0.52774
6513.37290,0.52766
6511.44416,0.52765
6509.51541,0.52925
6507.58667,0.53068
6505.65792,0.53030
6503.72918,0.52916
6501.80043,0.52834
6499.87169,0.52809
6497.94294,0.52750
6496.01419,0.52651
6494.08545,0.52593
6492.15670,0.52580
6490.22796,0.52598
6488.29921,0.52490
6486.37047,0.52375
6484.44172,0.52586
6482.51298,0.52906
6480.58423,0.53111
6478.65549,0.53270
6476.72674,0.53255
6474.79800,0.53032
6472.86925,0.52801
6470.94051,0.52614
6469.01176,0.52506
6467.08302,0.52545
6465.15427,0.52600
6463.22552,0.52637
6461.29678,0.52778
6459.36803,0.52990
6457.43929,0.53148
6455.51054,0.53124
6453.58180,0.52996
6451.65305,0.53003
6449.72431,0.53090
6447.79556,0.53063
6445.86682,0.53022
6443.93807,0.53074
6442.00933,0.53114
6440.08058,0.53029
6438.15184,0.52789
6436.22309,0.52596
6434.29434,0.52590
6432.36560,0.52593
6430.43685,0.52611
6428.50811,0.52822
6426.57936,0.53064
6424.65062,0.53071
6422.72187,0.53000
6420.79313,0.53102
6418.86438,0.53242
6416.93564,0.53239
6415.00689,0.53176
6413.07815,0.53198
6411.14940,0.53312
6409.22066,0.53444
6407.29191,0.53488
6405.36317,0.53407
6403.43442,0.53345
6401.50567,0.53378
6399.57693,0.53454
6397.64818,0.53602
6395.71944,0.53876
6393.79069,0.54085
6391.86195,0.53970
6389.93320,0.53644
6388.00446,0.53370
6386.07571,0.53299
6384.14697,0.53506
6382.21822,0.53762
6380.28948,0.53721
6378.36073,0.53521
6376.43199,0.53496
6374.50324,0.53549
6372.57450,0.53567
6370.64575,0.53647
6368.71700,0.53825
6366.78826,0.54065
6364.85951,0.54191
6362.93077,0.54180
6361.00202,0.54214
6359.07328,0.54264
6357.14453,0.54280
6355.21579,0.54323
6353.28704,0.54294
6351.35830,0.54178
6349.42955,0.54189
6347.50081,0.54331
6345.57206,0.54399
6343.64332,0.54374
6341.71457,0.54343
6339.78582,0.54302
6337.85708,0.54272
6335.92833,0.54291
6333.99959,0.54275
6332.07084,0.54197
6330.14210,0.54270
6328.21335,0.54572
6326.28461,0.54771
6324.35586,0.54636
6322.42712,0.54436
6320.49837,0.54434
6318.56963,0.54545
6316.64088,0.54644
6314.71214,0.54724
6312.78339,0.54737
6310.85465,0.54674
6308.92590,0.54690
6306.99715,0.54784
6305.06841,0.54752
6303.13966,0.54597
6301.21092,0.54510
6299.28217,0.54588
6297.35343,0.54780
6295.42468,0.54899
6293.49594,0.54853
6291.56719,0.54814
6289.63845,0.54860
6287.70970,0.54868
6285.78096,0.54889
6283.85221,0.55025
6281.92347,0.55146
6279.99472,0.55176
6278.06598,0.55298
6276.13723,0.55534
6274.20848,0.55597
6272.27974,0.55443
6270.35099,0.55353
6268.42225,0.55405
6266.49350,0.55443
6264.56476,0.55427
6262.63601,0.55490
6260.70727,0.55668
6258.77852,0.55788
6256.84978,0.55762
6254.92103,0.55705
6252.99229,0.55733
6251.06354,0.55855
6249.13480,0.55964
6247.20605,0.56057
6245.27730,0.56215
6243.34856,0.56269
6241.41981,0.56118
6239.49107,0.56012
6237.56232,0.56121
6235.63358,0.56258
6233.70483,0.56241
6231.77609,0.56165
6229.84734,0.56168
6227.91860,0.56283
6225.98985,0.56442
6224.06111,0.56579
6222.13236,0.56730
6220.20362,0.56848
6218.27487,0.56819
6216.34613,0.56632
6214.41738,0.56392
6212.48863,0.56315
6210.55989,0.56478
6208.63114,0.56595
6206.70240,0.56494
6204.77365,0.56341
6202.84491,0.56196
6200.91616,0.56107
6198.98742,0.56212
6197.05867,0.56355
6195.12993,0.56343
6193.20118,0.56235
6191.27244,0.56105
6189.34369,0.56029
6187.41495,0.56046
6185.48620,0.56015
6183.55746,0.55854
6181.62871,0.55667
6179.69996,0.55514
6177.77122,0.55377
6175.84247,0.55324
6173.91373,0.55420
6171.98498,0.55457
6170.05624,0.55189
6168.12749,0.54822
6166.19875,0.54735
6164.27000,0.54962
6162.34126,0.55241
6160.41251,0.55308
6158.48377,0.55214
6156.55502,0.55225
6154.62628,0.55383
6152.69753,0.55548
6150.76878,0.55645
6148.84004,0.55752
6146.91129,0.55931
6144.98255,0.56043
6143.05380,0.56063
6141.12506,0.56111
6139.19631,0.56123
6137.26757,0.56051
6135.33882,0.56020
6133.41008,0.56045
6131.48133,0.56033
6129.55259,0.56013
6127.62384,0.56025
6125.69510,0.56042
6123.76635,0.56076
6121.83761,0.56081
6119.90886,0.56008
6117.98011,0.55910
6116.05137,0.55872
6114.12262,0.55958
6112.19388,0.56102
6110.26513,0.56111
6108.33639,0.55997
6106.40764,0.56035
6104.47890,0.56248
6102.55015,0.56330
6100.62141,0.56223
6098.69266,0.56141
6096.76392,0.56026
6094.83517,0.55775
6092.90643,0.55572
6090.97768,0.55475
6089.04893,0.55348
6087.12019,0.55153
6085.19144,0.54985
6083.26270,0.54910
6081.33395,0.54797
6079.40521,0.54575
6077.47646,0.54402
6075.54772,0.54326
6073.61897,0.54195
6071.69023,0.53976
6069.76148,0.53735
6067.83274,0.53439
6065.90399,0.53073
6063.97525,0.52705
6062.04650,0.52441
6060.11776,0.52368
6058.18901,0.52325
6056.26026,0.52113
6054.33152,0.51793
6052.40277,0.51482
6050.47403,0.51182
6048.54528,0.50849
6046.61654,0.50473
6044.68779,0.50138
6042.75905,0.49859
6040.83030,0.49524
6038.90156,0.49102
6036.97281,0.48621
6035.04407,0.48097
6033.11532,0.47600
6031.18658,0.47187
6029.25783,0.46812
6027.32909,0.46447
6025.40034,0.46152
6023.47159,0.45918
6021.54285,0.45660
6019.61410,0.45339
6017.68536,0.44974
6015.75661,0.44615
6013.82787,0.44265
6011.89912,0.43916
6009.97038,0.43551
6008.04163,0.43125
6006.11289,0.42756
6004.18414,0.42570
6002.25540,0.42427
6000.32665,0.42166
5998.39791,0.41839
5996.46916,0.41532
5994.54041,0.41287
5992.61167,0.41119
5990.68292,0.40975
5988.75418,0.40802
5986.82543,0.40673
5984.89669,0.40669
5982.96794,0.40675
5981.03920,0.40583
5979.11045,0.40457
5977.18171,0.40334
5975.25296,0.40154
5973.32422,0.39950
5971.39547,0.39913
5969.46673,0.40067
5967.53798,0.40217
5965.60924,0.40253
5963.68049,0.40144
5961.75174,0.39923
5959.82300,0.39784
5957.89425,0.39849
5955.96551,0.39924
5954.03676,0.39816
5952.10802,0.39657
5950.17927,0.39611
5948.25053,0.39643
5946.32178,0.39655
5944.39304,0.39656
5942.46429,0.39735
5940.53555,0.39850
5938.60680,0.39841
5936.67806,0.39678
5934.74931,0.39496
5932.82057,0.39428
5930.89182,0.39485
5928.96307,0.39520
5927.03433,0.39400
5925.10558,0.39234
5923.17684,0.39164
5921.24809,0.39148
5919.31935,0.39131
5917.39060,0.39139
5915.46186,0.39145
5913.53311,0.39120
5911.60437,0.39130
5909.67562,0.39221
5907.74688,0.39279
5905.81813,0.39144
5903.88939,0.38937
5901.96064,0.38867
5900.03189,0.38851
5898.10315,0.38757
5896.17440,0.38635
5894.24566,0.38554
5892.31691,0.38524
5890.38817,0.38550
5888.45942,0.38608
5886.53068,0.38658
5884.60193,0.38682
5882.67319,0.38684
5880.74444,0.38697
5878.81570,0.38727
5876.88695,0.38719
5874.95821,0.38650
5873.02946,0.38593
5871.10072,0.38572
5869.17197,0.38526
5867.24322,0.38499
5865.31448,0.38543
5863.38573,0.38571
5861.45699,0.38530
5859.52824,0.38514
5857.59950,0.38570
5855.67075,0.38629
5853.74201,0.38663
5851.81326,0.38666
5849.88452,0.38584
5847.95577,0.38458
5846.02703,0.38402
5844.09828,0.38413
5842.16954,0.38397
5840.24079,0.38275
5838.31205,0.38081
5836.38330,0.37921
5834.45455,0.37770
5832.52581,0.37573
5830.59706,0.37432
5828.66832,0.37390
5826.73957,0.37363
5824.81083,0.37273
5822.88208,0.37104
5820.95334,0.36923
5819.02459,0.36812
5817.09585,0.36771
5815.16710,0.36726
5813.23836,0.36674
5811.30961,0.36697
5809.38087,0.36754
5807.45212,0.36711
5805.52337,0.36615
5803.59463,0.36612
5801.66588,0.36709
5799.73714,0.36771
5797.80839,0.36675
5795.87965,0.36539
5793.95090,0.36554
5792.02216,0.36677
5790.09341,0.36817
5788.16467,0.36916
5786.23592,0.36935
5784.30718,0.36970
5782.37843,0.37086
5780.44969,0.37212
5778.52094,0.37345
5776.59220,0.37497
5774.66345,0.37588
5772.73470,0.37632
5770.80596,0.37714
5768.87721,0.37852
5766.94847,0.38034
5765.01972,0.38200
5763.09098,0.38317
5761.16223,0.38439
5759.23349,0.38617
5757.30474,0.38835
5755.37600,0.39007
5753.44725,0.39116
5751.51851,0.39224
5749.58976,0.39329
5747.66102,0.39430
5745.73227,0.39574
5743.80352,0.39762
5741.87478,0.39917
5739.94603,0.40010
5738.01729,0.40054
5736.08854,0.40069
5734.15980,0.40146
5732.23105,0.40320
5730.30231,0.40484
5728.37356,0.40557
5726.44482,0.40579
5724.51607,0.40648
5722.58733,0.40764
5720.65858,0.40883
5718.72984,0.41026
5716.80109,0.41193
5714.87235,0.41348
5712.94360,0.41473
5711.01485,0.41543
5709.08611,0.41509
5707.15736,0.41485
5705.22862,0.41680
5703.29987,0.41990
5701.37113,0.42172
5699.44238,0.42235
5697.51364,0.42270
5695.58489,0.42285
5693.65615,0.42320
5691.72740,0.42385
5689.79866,0.42413
5687.86991,0.42445
5685.94117,0.42523
5684.01242,0.42567
5682.08368,0.42562
5680.15493,0.42583
5678.22618,0.42621
5676.29744,0.42634
5674.36869,0.42693
5672.43995,0.42810
5670.51120,0.42868
5668.58246,0.42846
5666.65371,0.42790
5664.72497,0.42735
5662.79622,0.42720
5660.86748,0.42776
5658.93873,0.42890
5657.00999,0.43016
5655.08124,0.43150
5653.15250,0.43287
5651.22375,0.43407
5649.29500,0.43495
5647.36626,0.43530
5645.43751,0.43548
5643.50877,0.43600
5641.58002,0.43655
5639.65128,0.43727
5637.72253,0.43891
5635.79379,0.44044
5633.86504,0.44080
5631.93630,0.44073
5630.00755,0.44065
5628.07881,0.44086
5626.15006,0.44122
5624.22132,0.44069
5622.29257,0.43958
5620.36383,0.43922
5618.43508,0.44005
5616.50633,0.44186
5614.57759,0.44370
5612.64884,0.44416
5610.72010,0.44341
5608.79135,0.44327
5606.86261,0.44430
5604.93386,0.44523
5603.00512,0.44547
5601.07637,0.44592
5599.14763,0.44662
5597.21888,0.44679
5595.29014,0.44674
5593.36139,0.44692
5591.43265,0.44744
5589.50390,0.44825
5587.57516,0.44854
5585.64641,0.44810
5583.71766,0.44780
5581.78892,0.44785
5579.86017,0.44866
5577.93143,0.45049
5576.00268,0.45199
5574.07394,0.45233
5572.14519,0.45189
5570.21645,0.45185
5568.28770,0.45312
5566.35896,0.45445
5564.43021,0.45478
5562.50147,0.45469
5560.57272,0.45498
5558.64398,0.45562
5556.71523,0.45584
5554.78648,0.45591
5552.85774,0.45639
5550.92899,0.45655
5549.00025,0.45637
5547.07150,0.45657
5545.14276,0.45697
5543.21401,0.45736
5541.28527,0.45790
5539.35652,0.45854
5537.42778,0.45944
5535.49903,0.46049
5533.57029,0.46096
5531.64154,0.46104
5529.71280,0.46138
5527.78405,0.46126
5525.85531,0.46041
5523.92656,0.46022
5521.99781,0.46119
5520.06907,0.46279
5518.14032,0.46443
5516.21158,0.46525
5514.28283,0.46527
5512.35409,0.46528
5510.42534,0.46559
5508.49660,0.46614
5506.56785,0.46697
5504.63911,0.46799
5502.71036,0.46888
5500.78162,0.46931
5498.85287,0.46942
5496.92413,0.46977
5494.99538,0.46998
5493.06664,0.46975
5491.13789,0.46980
5489.20914,0.47030
5487.28040,0.47113
5485.35165,0.47170
5483.42291,0.47096
5481.49416,0.46957
5479.56542,0.46930
5477.63667,0.47062
5475.70793,0.47267
5473.77918,0.47400
5471.85044,0.47416
5469.92169,0.47439
5467.99295,0.47541
5466.06420,0.47665
5464.13546,0.47762
5462.20671,0.47811
5460.27796,0.47828
5458.34922,0.47850
5456.42047,0.47857
5454.49173,0.47884
5452.56298,0.48023
5450.63424,0.48176
5448.70549,0.48180
5446.77675,0.48163
5444.84800,0.48296
5442.91926,0.48448
5440.99051,0.48524
5439.06177,0.48580
5437.13302,0.48585
5435.20428,0.48551
5433.27553,0.48597
5431.34679,0.48727
5429.41804,0.48835
5427.48929,0.48881
5425.56055,0.48912
5423.63180,0.48956
5421.70306,0.49009
5419.77431,0.49090
5417.84557,0.49218
5415.91682,0.49371
5413.98808,0.49458
5412.05933,0.49446
5410.13059,0.49403
5408.20184,0.49397
5406.27310,0.49450
5404.34435,0.49515
5402.41561,0.49556
5400.48686,0.49603
5398.55811,0.49637
5396.62937,0.49620
5394.70062,0.49601
5392.77188,0.49605
5390.84313,0.49596
5388.91439,0.49601
5386.98564,0.49662
5385.05690,0.49712
5383.12815,0.49669
5381.19941,0.49612
5379.27066,0.49628
5377.34192,0.49630
5375.41317,0.49583
5373.48443,0.49576
5371.55568,0.49601
5369.62694,0.49591
5367.69819,0.49549
5365.76944,0.49497
5363.84070,0.49444
5361.91195,0.49379
5359.98321,0.49296
5358.05446,0.49247
5356.12572,0.49228
5354.19697,0.49153
5352.26823,0.49075
5350.33948,0.49083
5348.41074,0.49076
5346.48199,0.48987
5344.55325,0.48907
5342.62450,0.48846
5340.69576,0.48753
5338.76701,0.48658
5336.83827,0.48540
5334.90952,0.48355
5332.98077,0.48174
5331.05203,0.48049
5329.12328,0.47920
5327.19454,0.47740
5325.26579,0.47521
5323.33705,0.47299
5321.40830,0.47128
5319.47956,0.46974
5317.55081,0.46744
5315.62207,0.46410
5313.69332,0.46019
5311.76458,0.45656
5309.83583,0.45344
5307.90709,0.45040
5305.97834,0.44713
5304.04959,0.44346
5302.12085,0.43945
5300.19210,0.43552
5298.26336,0.43178
5296.33461,0.42772
5294.40587,0.42296
5292.47712,0.41786
5290.54838,0.41255
5288.61963,0.40690
5286.69089,0.40115
5284.76214,0.39523
5282.83340,0.38906
5280.90465,0.38312
5278.97591,0.37749
5277.04716,0.37157
5275.11842,0.36510
5273.18967,0.35853
5271.26092,0.35230
5269.33218,0.34628
5267.40343,0.34056
5265.47469,0.33529
5263.54594,0.33007
5261.61720,0.32507
5259.68845,0.32082
5257.75971,0.31708
5255.83096,0.31321
5253.90222,0.30894
5251.97347,0.30424
5250.04473,0.29938
5248.11598,0.29510
5246.18724,0.29206
5244.25849,0.28979
5242.32975,0.28724
5240.40100,0.28454
5238.47225,0.28222
5236.54351,0.27999
5234.61476,0.27791
5232.68602,0.27605
5230.75727,0.27420
5228.82853,0.27288
5226.89978,0.27234
5224.97104,0.27173
5223.04229,0.27080
5221.11355,0.26973
5219.18480,0.26826
5217.25606,0.26695
5215.32731,0.26665
5213.39857,0.26688
5211.46982,0.26704
5209.54107,0.26728
5207.61233,0.26750
5205.68358,0.26728
5203.75484,0.26678
5201.82609,0.26702
5199.89735,0.26830
5197.96860,0.26926
5196.03986,0.26917
5194.11111,0.26905
5192.18237,0.26951
5190.25362,0.27037
5188.32488,0.27139
5186.39613,0.27210
5184.46739,0.27250
5182.53864,0.27352
5180.60990,0.27494
5178.68115,0.27545
5176.75240,0.27556
5174.82366,0.27674
5172.89491,0.27860
5170.96617,0.27988
5169.03742,0.28073
5167.10868,0.28166
5165.17993,0.28268
5163.25119,0.28419
5161.32244,0.28595
5159.39370,0.28692
5157.46495,0.28738
5155.53621,0.28848
5153.60746,0.29059
5151.67872,0.29310
5149.74997,0.29488
5147.82123,0.29574
5145.89248,0.29661
5143.96373,0.29783
5142.03499,0.29916
5140.10624,0.30083
5138.17750,0.30274
5136.24875,0.30434
5134.32001,0.30555
5132.39126,0.30654
5130.46252,0.30721
5128.53377,0.30793
5126.60503,0.30957
5124.67628,0.31170
5122.74754,0.31325
5120.81879,0.31470
5118.89005,0.31678
5116.96130,0.31894
5115.03255,0.32050
5113.10381,0.32163
5111.17506,0.32287
5109.24632,0.32447
5107.31757,0.32623
5105.38883,0.32791
5103.46008,0.32947
5101.53134,0.33116
5099.60259,0.33304
5097.67385,0.33427
5095.74510,0.33460
5093.81636,0.33515
5091.88761,0.33680
5089.95887,0.33879
5088.03012,0.34017
5086.10138,0.34168
5084.17263,0.34396
5082.24388,0.34631
5080.31514,0.34791
5078.38639,0.34872
5076.45765,0.34958
5074.52890,0.35111
5072.60016,0.35289
5070.67141,0.35449
5068.74267,0.35563
5066.81392,0.35621
5064.88518,0.35697
5062.95643,0.35833
5061.02769,0.35971
5059.09894,0.36121
5057.17020,0.36304
5055.24145,0.36422
5053.31270,0.36448
5051.38396,0.36480
5049.45521,0.36574
5047.52647,0.36691
5045.59772,0.36806
5043.66898,0.36947
5041.74023,0.37108
5039.81149,0.37236
5037.88274,0.37300
5035.95400,0.37335
5034.02525,0.37402
5032.09651,0.37487
5030.16776,0.37574
5028.23902,0.37678
5026.31027,0.37747
5024.38153,0.37773
5022.45278,0.37827
5020.52403,0.37904
5018.59529,0.37964
5016.66654,0.38037
5014.73780,0.38133
5012.80905,0.38193
5010.88031,0.38192
5008.95156,0.38180
5007.02282,0.38173
5005.09407,0.38131
5003.16533,0.38062
5001.23658,0.38031
4999.30784,0.38075
4997.37909,0.38172
4995.45035,0.38231
4993.52160,0.38160
4991.59286,0.38027
4989.66411,0.37955
4987.73536,0.37948
4985.80662,0.37962
4983.87787,0.37961
4981.94913,0.37908
4980.02038,0.37801
4978.09164,0.37683
4976.16289,0.37598
4974.23415,0.37518
4972.30540,0.37409
4970.37666,0.37273
4968.44791,0.37128
4966.51917,0.37022
4964.59042,0.36938
4962.66168,0.36817
4960.73293,0.36665
4958.80418,0.36486
4956.87544,0.36274
4954.94669,0.36064
4953.01795,0.35894
4951.08920,0.35768
4949.16046,0.35649
4947.23171,0.35521
4945.30297,0.35381
4943.37422,0.35190
4941.44548,0.34949
4939.51673,0.34730
4937.58799,0.34552
4935.65924,0.34357
4933.73050,0.34114
4931.80175,0.33897
4929.87301,0.33758
4927.94426,0.33610
4926.01551,0.33399
4924.08677,0.33209
4922.15802,0.33051
4920.22928,0.32871
4918.30053,0.32696
4916.37179,0.32553
4914.44304,0.32413
4912.51430,0.32255
4910.58555,0.32071
4908.65681,0.31866
4906.72806,0.31666
4904.79932,0.31494
4902.87057,0.31344
4900.94183,0.31220
4899.01308,0.31117
4897.08434,0.30974
4895.15559,0.30770
4893.22684,0.30590
4891.29810,0.30495
4889.36935,0.30415
4887.44061,0.30263
4885.51186,0.30074
4883.58312,0.29942
4881.65437,0.29876
4879.72563,0.29828
4877.79688,0.29758
4875.86814,0.29654
4873.93939,0.29555
4872.01065,0.29479
4870.08190,0.29359
4868.15316,0.29179
4866.22441,0.29003
4864.29566,0.28884
4862.36692,0.28814
4860.43817,0.28731
4858.50943,0.28618
4856.58068,0.28529
4854.65194,0.28447
4852.72319,0.28351
4850.79445,0.28251
4848.86570,0.28154
4846.93696,0.28088
4845.00821,0.28042
4843.07947,0.27970
4841.15072,0.27865
4839.22198,0.27728
4837.29323,0.27575
4835.36449,0.27461
4833.43574,0.27402
4831.50699,0.27339
4829.57825,0.27236
4827.64950,0.27127
4825.72076,0.27023
4823.79201,0.26914
4821.86327,0.26825
4819.93452,0.26754
4818.00578,0.26662
4816.07703,0.26566
4814.14829,0.26528
4812.21954,0.26528
4810.29080,0.26509
4808.36205,0.26462
4806.43331,0.26407
4804.50456,0.26346
4802.57582,0.26256
4800.64707,0.26162
4798.71832,0.26117
4796.78958,0.26096
4794.86083,0.26054
4792.93209,0.25997
4791.00334,0.25974
4789.07460,0.25977
4787.14585,0.25953
4785.21711,0.25905
4783.28836,0.25873
4781.35962,0.25846
4779.43087,0.25774
4777.50213,0.25685
4775.57338,0.25665
4773.64464,0.25718
4771.71589,0.25768
4769.78714,0.25749
4767.85840,0.25671
4765.92965,0.25599
4764.00091,0.25556
4762.07216,0.25494
4760.14342,0.25384
4758.21467,0.25260
4756.28593,0.25143
4754.35718,0.25019
4752.42844,0.24890
4750.49969,0.24767
4748.57095,0.24660
4746.64220,0.24596
4744.71346,0.24553
4742.78471,0.24472
4740.85597,0.24355
4738.92722,0.24247
4736.99847,0.24171
4735.06973,0.24124
4733.14098,0.24089
4731.21224,0.24055
4729.28349,0.24023
4727.35475,0.23986
4725.42600,0.23945
4723.49726,0.23906
4721.56851,0.23845
4719.63977,0.23771
4717.71102,0.23761
4715.78228,0.23821
4713.85353,0.23860
4711.92479,0.23837
4709.99604,0.23758
4708.06729,0.23635
4706.13855,0.23536
4704.20980,0.23483
4702.28106,0.23385
4700.35231,0.23229
4698.42357,0.23109
4696.49482,0.23002
4694.56608,0.22820
4692.63733,0.22617
4690.70859,0.22487
4688.77984,0.22389
4686.85110,0.22276
4684.92235,0.22190
4682.99361,0.22134
4681.06486,0.22052
4679.13612,0.21939
4677.20737,0.21837
4675.27862,0.21794
4673.34988,0.21833
4671.42113,0.21943
4669.49239,0.22085
4667.56364,0.22211
4665.63490,0.22312
4663.70615,0.22446
4661.77741,0.22665
4659.84866,0.22957
4657.91992,0.23233
4655.99117,0.23424
4654.06243,0.23586
4652.13368,0.23772
4650.20494,0.23935
4648.27619,0.24022
4646.34745,0.24059
4644.41870,0.24101
4642.48995,0.24123
4640.56121,0.24087
4638.63246,0.24045
4636.70372,0.24021
4634.77497,0.23957
4632.84623,0.23843
4630.91748,0.23724
4628.98874,0.23618
4627.05999,0.23541
4625.13125,0.23529
4623.20250,0.23586
4621.27376,0.23681
4619.34501,0.23828
4617.41627,0.24065
4615.48752,0.24355
4613.55877,0.24624
4611.63003,0.24871
4609.70128,0.25140
4607.77254,0.25445
4605.84379,0.25774
4603.91505,0.26099
4601.98630,0.26378
4600.05756,0.26591
4598.12881,0.26753
4596.20007,0.26898
4594.27132,0.27052
4592.34258,0.27188
4590.41383,0.27272
4588.48509,0.27321
4586.55634,0.27368
4584.62760,0.27412
4582.69885,0.27448
4580.77010,0.27498
4578.84136,0.27536
4576.91261,0.27523
4574.98387,0.27486
4573.05512,0.27470
4571.12638,0.27479
4569.19763,0.27489
4567.26889,0.27500
4565.34014,0.27556
4563.41140,0.27658
4561.48265,0.27760
4559.55391,0.27874
4557.62516,0.28018
4555.69642,0.28135
4553.76767,0.28169
4551.83893,0.28175
4549.91018,0.28232
4547.98143,0.28346
4546.05269,0.28471
4544.12394,0.28530
4542.19520,0.28500
4540.26645,0.28443
4538.33771,0.28420
4536.40896,0.28412
4534.48022,0.28354
4532.55147,0.28255
4530.62273,0.28172
4528.69398,0.28105
4526.76524,0.28045
4524.83649,0.27987
4522.90775,0.27917
4520.97900,0.27831
4519.05025,0.27710
4517.12151,0.27546
4515.19276,0.27360
4513.26402,0.27179
4511.33527,0.27023
4509.40653,0.26880
4507.47778,0.26710
4505.54904,0.26498
4503.62029,0.26254
4501.69155,0.25992
4499.76280,0.25740
4497.83406,0.25519
4495.90531,0.25305
4493.97657,0.25072
4492.04782,0.24844
4490.11908,0.24626
4488.19033,0.24390
4486.26158,0.24140
4484.33284,0.23892
4482.40409,0.23612
4480.47535,0.23280
4478.54660,0.22930
4476.61786,0.22573
4474.68911,0.22181
4472.76037,0.21767
4470.83162,0.21363
4468.90288,0.20927
4466.97413,0.20415
4465.04539,0.19864
4463.11664,0.19356
4461.18790,0.18887
4459.25915,0.18384
4457.33041,0.17819
4455.40166,0.17229
4453.47291,0.16652
4451.54417,0.16085
4449.61542,0.15517
4447.68668,0.14991
4445.75793,0.14529
4443.82919,0.14082
4441.90044,0.13619
4439.97170,0.13166
4438.04295,0.12766
4436.11421,0.12414
4434.18546,0.12109
4432.25672,0.11878
4430.32797,0.11697
4428.39923,0.11510
4426.47048,0.11304
4424.54173,0.11118
4422.61299,0.10984
4420.68424,0.10906
4418.75550,0.10869
4416.82675,0.10848
4414.89801,0.10822
4412.96926,0.10793
4411.04052,0.10783
4409.11177,0.10811
4407.18303,0.10876
4405.25428,0.10944
4403.32554,0.10960
4401.39679,0.10941
4399.46805,0.10943
4397.53930,0.10974
4395.61056,0.10995
4393.68181,0.10988
4391.75306,0.10979
4389.82432,0.10967
4387.89557,0.10926
4385.96683,0.10868
4384.03808,0.10821
4382.10934,0.10773
4380.18059,0.10709
4378.25185,0.10642
4376.32310,0.10580
4374.39436,0.10501
4372.46561,0.10381
4370.53687,0.10263
4368.60812,0.10204
4366.67938,0.10175
4364.75063,0.10110
4362.82189,0.10028
4360.89314,0.09982
4358.96439,0.09978
4357.03565,0.09982
4355.10690,0.09981
4353.17816,0.09971
4351.24941,0.09971
4349.32067,0.09983
4347.39192,0.09964
4345.46318,0.09908
4343.53443,0.09879
4341.60569,0.09920
4339.67694,0.09995
4337.74820,0.10056
4335.81945,0.10106
4333.89071,0.10154
4331.96196,0.10177
4330.03321,0.10179
4328.10447,0.10195
4326.17572,0.10224
4324.24698,0.10245
4322.31823,0.10286
4320.38949,0.10376
4318.46074,0.10487
4316.53200,0.10569
4314.60325,0.10607
4312.67451,0.10614
4310.74576,0.10615
4308.81702,0.10644
4306.88827,0.10705
4304.95953,0.10764
4303.03078,0.10813
4301.10204,0.10844
4299.17329,0.10848
4297.24454,0.10851
4295.31580,0.10876
4293.38705,0.10915
4291.45831,0.10949
4289.52956,0.10980
4287.60082,0.11020
4285.67207,0.11036
4283.74333,0.10990
4281.81458,0.10916
4279.88584,0.10872
4277.95709,0.10871
4276.02835,0.10903
4274.09960,0.10958
4272.17086,0.11019
4270.24211,0.11087
4268.31336,0.11158
4266.38462,0.11186
4264.45587,0.11152
4262.52713,0.11113
4260.59838,0.11107
4258.66964,0.11127
4256.74089,0.11182
4254.81215,0.11255
4252.88340,0.11320
4250.95466,0.11370
4249.02591,0.11399
4247.09717,0.11407
4245.16842,0.11415
4243.23968,0.11437
4241.31093,0.11456
4239.38219,0.11473
4237.45344,0.11507
4235.52469,0.11551
4233.59595,0.11580
4231.66720,0.11598
4229.73846,0.11645
4227.80971,0.11717
4225.88097,0.11758
4223.95222,0.11773
4222.02348,0.11812
4220.09473,0.11861
4218.16599,0.11905
4216.23724,0.11968
4214.30850,0.12030
4212.37975,0.12060
4210.45101,0.12072
4208.52226,0.12097
4206.59352,0.12134
4204.66477,0.12166
4202.73602,0.12177
4200.80728,0.12180
4198.87853,0.12211
4196.94979,0.12278
4195.02104,0.12330
4193.09230,0.12332
4191.16355,0.12294
4189.23481,0.12239
4187.30606,0.12216
4185.37732,0.12236
4183.44857,0.12244
4181.51983,0.12214
4179.59108,0.12165
4177.66234,0.12147
4175.73359,0.12182
4173.80484,0.12202
4171.87610,0.12175
4169.94735,0.12147
4168.01861,0.12136
4166.08986,0.12129
4164.16112,0.12109
4162.23237,0.12071
4160.30363,0.12060
4158.37488,0.12101
4156.44614,0.12135
4154.51739,0.12128
4152.58865,0.12112
4150.65990,0.12109
4148.73116,0.12098
4146.80241,0.12046
4144.87367,0.11982
4142.94492,0.11949
4141.01617,0.11937
4139.08743,0.11930
4137.15868,0.11929
4135.22994,0.11916
4133.30119,0.11874
4131.37245,0.11847
4129.44370,0.11881
4127.51496,0.11923
4125.58621,0.11901
4123.65747,0.11835
4121.72872,0.11787
4119.79998,0.11751
4117.87123,0.11684
4115.94249,0.11612
4114.01374,0.11586
4112.08500,0.11593
4110.15625,0.11581
4108.22750,0.11515
4106.29876,0.11429
4104.37001,0.11356
4102.44127,0.11286
4100.51252,0.11215
4098.58378,0.11128
4096.65503,0.11022
4094.72629,0.10915
4092.79754,0.10818
4090.86880,0.10738
4088.94005,0.10649
4087.01131,0.10507
4085.08256,0.10329
4083.15382,0.10164
4081.22507,0.10036
4079.29632,0.09940
4077.36758,0.09852
4075.43883,0.09749
4073.51009,0.09651
4071.58134,0.09589
4069.65260,0.09538
4067.72385,0.09464
4065.79511,0.09366
4063.86636,0.09279
4061.93762,0.09244
4060.00887,0.09237
4058.08013,0.09212
4056.15138,0.09194
4054.22264,0.09207
4052.29389,0.09238
4050.36515,0.09271
4048.43640,0.09281
4046.50765,0.09300
4044.57891,0.09359
4042.65016,0.09403
4040.72142,0.09399
4038.79267,0.09390
4036.86393,0.09399
4034.93518,0.09409
4033.00644,0.09431
4031.07769,0.09470
4029.14895,0.09485
4027.22020,0.09481
4025.29146,0.09478
4023.36271,0.09459
4021.43397,0.09429
4019.50522,0.09413
4017.57648,0.09437
4015.64773,0.09494
4013.71898,0.09539
4011.79024,0.09553
4009.86149,0.09559
4007.93275,0.09576
4006.00400,0.09598
4004.07526,0.09604
4002.14651,0.09598
4000.21777,0.09599
3998.28902,0.09612
3996.36028,0.09652
3994.43153,0.09704
3992.50279,0.09742
3990.57404,0.09792
3988.64530,0.09860
3986.71655,0.09909
3984.78780,0.09944
3982.85906,0.09983
3980.93031,0.10018
3979.00157,0.10046
3977.07282,0.10102
3975.14408,0.10215
3973.21533,0.10332
3971.28659,0.10391
3969.35784,0.10427
3967.42910,0.10476
3965.50035,0.10538
3963.57161,0.10625
3961.64286,0.10715
3959.71412,0.10799
3957.78537,0.10898
3955.85663,0.10984
3953.92788,0.11041
3951.99913,0.11116
3950.07039,0.11214
3948.14164,0.11286
3946.21290,0.11321
3944.28415,0.11366
3942.35541,0.11444
3940.42666,0.11519
3938.49792,0.11566
3936.56917,0.11608
3934.64043,0.11664
3932.71168,0.11714
3930.78294,0.11763
3928.85419,0.11833
3926.92545,0.11916
3924.99670,0.11990
3923.06795,0.12055
3921.13921,0.12123
3919.21046,0.12191
3917.28172,0.12266
3915.35297,0.12353
3913.42423,0.12427
3911.49548,0.12472
3909.56674,0.12518
3907.63799,0.12570
3905.70925,0.12588
3903.78050,0.12588
3901.85176,0.12630
3899.92301,0.12718
3897.99427,0.12801
3896.06552,0.12867
3894.13678,0.12941
3892.20803,0.13011
3890.27928,0.13042
3888.35054,0.13051
3886.42179,0.13066
3884.49305,0.13094
3882.56430,0.13118
3880.63556,0.13127
3878.70681,0.13166
3876.77807,0.13249
3874.84932,0.13327
3872.92058,0.13388
3870.99183,0.13459
3869.06309,0.13552
3867.13434,0.13640
3865.20560,0.13694
3863.27685,0.13739
3861.34811,0.13807
3859.41936,0.13890
3857.49061,0.13979
3855.56187,0.14082
3853.63312,0.14181
3851.70438,0.14206
3849.77563,0.14222
3847.84689,0.14308
3845.91814,0.14420
3843.98940,0.14495
3842.06065,0.14532
3840.13191,0.14545
3838.20316,0.14549
3836.27442,0.14577
3834.34567,0.14634
3832.41693,0.14695
3830.48818,0.14746
3828.55943,0.14764
3826.63069,0.14729
3824.70194,0.14699
3822.77320,0.14722
3820.84445,0.14749
3818.91571,0.14759
3816.98696,0.14784
3815.05822,0.14793
3813.12947,0.14764
3811.20073,0.14749
3809.27198,0.14782
3807.34324,0.14844
3805.41449,0.14896
3803.48575,0.14909
3801.55700,0.14876
3799.62826,0.14820
3797.69951,0.14781
3795.77076,0.14768
3793.84202,0.14773
3791.91327,0.14768
3789.98453,0.14753
3788.05578,0.14755
3786.12704,0.14756
3784.19829,0.14743
3782.26955,0.14733
3780.34080,0.14722
3778.41206,0.14680
3776.48331,0.14608
3774.55457,0.14537
3772.62582,0.14486
3770.69708,0.14450
3768.76833,0.14407
3766.83959,0.14347
3764.91084,0.14297
3762.98209,0.14263
3761.05335,0.14212
3759.12460,0.14126
3757.19586,0.14041
3755.26711,0.14000
3753.33837,0.14002
3751.40962,0.13991
3749.48088,0.13952
3747.55213,0.13940
3745.62339,0.13932
3743.69464,0.13879
3741.76590,0.13802
3739.83715,0.13720
3737.90841,0.13625
3735.97966,0.13527
3734.05091,0.13419
3732.12217,0.13307
3730.19342,0.13212
3728.26468,0.13106
3726.33593,0.12966
3724.40719,0.12834
3722.47844,0.12730
3720.54970,0.12608
3718.62095,0.12452
3716.69221,0.12291
3714.76346,0.12126
3712.83472,0.11928
3710.90597,0.11713
3708.97723,0.11522
3707.04848,0.11333
3705.11974,0.11100
3703.19099,0.10814
3701.26224,0.10504
3699.33350,0.10212
3697.40475,0.09943
3695.47601,0.09651
3693.54726,0.09312
3691.61852,0.08957
3689.68977,0.08607
3687.76103,0.08265
3685.83228,0.07949
3683.90354,0.07645
3681.97479,0.07313
3680.04605,0.06945
3678.11730,0.06597
3676.18856,0.06359
3674.25981,0.06263
3672.33107,0.06194
3670.40232,0.06069
3668.47357,0.05937
3666.54483,0.05846
3664.61608,0.05774
3662.68734,0.05703
3660.75859,0.05647
3658.82985,0.05617
3656.90110,0.05601
3654.97236,0.05572
3653.04361,0.05511
3651.11487,0.05436
3649.18612,0.05406
3647.25738,0.05443
3645.32863,0.05473
3643.39989,0.05459
3641.47114,0.05438
3639.54239,0.05442
3637.61365,0.05448
3635.68490,0.05421
3633.75616,0.05373
3631.82741,0.05344
3629.89867,0.05357
3627.96992,0.05391
3626.04118,0.05391
3624.11243,0.05352
3622.18369,0.05335
3620.25494,0.05356
3618.32620,0.05350
3616.39745,0.05322
3614.46871,0.05328
3612.53996,0.05342
3610.61122,0.05334
3608.68247,0.05336
3606.75372,0.05353
3604.82498,0.05364
3602.89623,0.05357
3600.96749,0.05344
3599.03874,0.05355
3597.11000,0.05376
3595.18125,0.05374
3593.25251,0.05346
3591.32376,0.05306
3589.39502,0.05281
3587.46627,0.05279
3585.53753,0.05285
3583.60878,0.05288
3581.68004,0.05288
3579.75129,0.05293
3577.82254,0.05295
3575.89380,0.05278
3573.96505,0.05265
3572.03631,0.05268
3570.10756,0.05265
3568.17882,0.05247
3566.25007,0.05222
3564.32133,0.05208
3562.39258,0.05223
3560.46384,0.05255
3558.53509,0.05275
3556.60635,0.05275
3554.67760,0.05266
3552.74886,0.05249
3550.82011,0.05239
3548.89137,0.05259
3546.96262,0.05283
3545.03387,0.05275
3543.10513,0.05250
3541.17638,0.05241
3539.24764,0.05252
3537.31889,0.05262
3535.39015,0.05257
3533.46140,0.05247
3531.53266,0.05250
3529.60391,0.05268
3527.67517,0.05280
3525.74642,0.05271
3523.81768,0.05243
3521.88893,0.05213
3519.96019,0.05217
3518.03144,0.05237
3516.10270,0.05241
3514.17395,0.05249
3512.24520,0.05268
3510.31646,0.05259
3508.38771,0.05212
3506.45897,0.05182
3504.53022,0.05199
3502.60148,0.05225
3500.67273,0.05231
3498.74399,0.05240
3496.81524,0.05253
3494.88650,0.05240
3492.95775,0.05229
3491.02901,0.05251
3489.10026,0.05283
3487.17152,0.05292
3485.24277,0.05275
3483.31402,0.05248
3481.38528,0.05227
3479.45653,0.05224
3477.52779,0.05236
3475.59904,0.05248
3473.67030,0.05248
3471.74155,0.05229
3469.81281,0.05206
3467.88406,0.05198
3465.95532,0.05196
3464.02657,0.05185
3462.09783,0.05179
3460.16908,0.05191
3458.24034,0.05195
3456.31159,0.05183
3454.38285,0.05172
3452.45410,0.05170
3450.52535,0.05175
3448.59661,0.05195
3446.66786,0.05219
3444.73912,0.05219
3442.81037,0.05208
3440.88163,0.05207
3438.95288,0.05207
3437.02414,0.05199
3435.09539,0.05195
3433.16665,0.05214
3431.23790,0.05256
3429.30916,0.05300
3427.38041,0.05321
3425.45167,0.05311
3423.52292,0.05299
3421.59418,0.05306
3419.66543,0.05318
3417.73668,0.05319
3415.80794,0.05314
3413.87919,0.05302
3411.95045,0.05291
3410.02170,0.05297
3408.09296,0.05308
3406.16421,0.05315
3404.23547,0.05325
3402.30672,0.05331
3400.37798,0.05326
3398.44923,0.05325
3396.52049,0.05341
3394.59174,0.05354
3392.66300,0.05322
3390.73425,0.05268
3388.80550,0.05238
3386.87676,0.05239
3384.94801,0.05253
3383.01927,0.05287
3381.09052,0.05343
3379.16178,0.05366
3377.23303,0.05338
3375.30429,0.05323
3373.37554,0.05327
3371.44680,0.05321
3369.51805,0.05319
3367.58931,0.05331
3365.66056,0.05345
3363.73182,0.05359
3361.80307,0.05365
3359.87433,0.05358
3357.94558,0.05333
3356.01683,0.05301
3354.08809,0.05280
3352.15934,0.05270
3350.23060,0.05279
3348.30185,0.05308
3346.37311,0.05320
3344.44436,0.05298
3342.51562,0.05265
3340.58687,0.05246
3338.65813,0.05250
3336.72938,0.05262
3334.80064,0.05267
3332.87189,0.05267
3330.94315,0.05283
3329.01440,0.05307
3327.08566,0.05315
3325.15691,0.05307
3323.22816,0.05304
3321.29942,0.05320
3319.37067,0.05350
3317.44193,0.05374
3315.51318,0.05365
3313.58444,0.05328
3311.65569,0.05310
3309.72695,0.05338
3307.79820,0.05370
3305.86946,0.05366
3303.94071,0.05341
3302.01197,0.05330
3300.08322,0.05349
3298.15448,0.05382
3296.22573,0.05405
3294.29698,0.05420
3292.36824,0.05421
3290.43949,0.05391
3288.51075,0.05353
3286.58200,0.05347
3284.65326,0.05362
3282.72451,0.05369
3280.79577,0.05374
3278.86702,0.05372
3276.93828,0.05362
3275.00953,0.05362
3273.08079,0.05374
3271.15204,0.05388
3269.22330,0.05403
3267.29455,0.05420
3265.36581,0.05420
3263.43706,0.05404
3261.50831,0.05404
3259.57957,0.05408
3257.65082,0.05404
3255.72208,0.05406
3253.79333,0.05417
3251.86459,0.05412
3249.93584,0.05381
3248.00710,0.05358
3246.07835,0.05359
3244.14961,0.05364
3242.22086,0.05366
3240.29212,0.05381
3238.36337,0.05404
3236.43463,0.05405
3234.50588,0.05402
3232.57713,0.05425
3230.64839,0.05440
3228.71964,0.05423
3226.79090,0.05419
3224.86215,0.05448
3222.93341,0.05477
3221.00466,0.05474
3219.07592,0.05452
3217.14717,0.05440
3215.21843,0.05426
3213.28968,0.05389
3211.36094,0.05364
3209.43219,0.05384
3207.50345,0.05436
3205.57470,0.05479
3203.64596,0.05485
3201.71721,0.05442
3199.78846,0.05391
3197.85972,0.05382
3195.93097,0.05401
3194.00223,0.05403
3192.07348,0.05390
3190.14474,0.05391
3188.21599,0.05409
3186.28725,0.05417
3184.35850,0.05402
3182.42976,0.05389
3180.50101,0.05401
3178.57227,0.05428
3176.64352,0.05439
3174.71478,0.05423
3172.78603,0.05389
3170.85729,0.05354
3168.92854,0.05349
3166.99979,0.05387
3165.07105,0.05437
3163.14230,0.05465
3161.21356,0.05468
3159.28481,0.05448
3157.35607,0.05409
3155.42732,0.05383
3153.49858,0.05386
3151.56983,0.05399
3149.64109,0.05401
3147.71234,0.05396
3145.78360,0.05402
3143.85485,0.05407
3141.92611,0.05401
3139.99736,0.05398
3138.06861,0.05405
3136.13987,0.05422
3134.21112,0.05427
3132.28238,0.05386
3130.35363,0.05342
3128.42489,0.05342
3126.49614,0.05344
3124.56740,0.05328
3122.63865,0.05328
3120.70991,0.05343
3118.78116,0.05346
3116.85242,0.05339
3114.92367,0.05343
3112.99493,0.05369
3111.06618,0.05399
3109.13744,0.05398
3107.20869,0.05361
3105.27994,0.05329
3103.35120,0.05331
3101.42245,0.05359
3099.49371,0.05384
3097.56496,0.05398
3095.63622,0.05411
3093.70747,0.05405
3091.77873,0.05371
3089.84998,0.05334
3087.92124,0.05314
3085.99249,0.05318
3084.06375,0.05336
3082.13500,0.05339
3080.20626,0.05326
3078.27751,0.05310
3076.34877,0.05296
3074.42002,0.05299
3072.49127,0.05327
3070.56253,0.05353
3068.63378,0.05357
3066.70504,0.05348
3064.77629,0.05336
3062.84755,0.05327
3060.91880,0.05328
3058.99006,0.05333
3057.06131,0.05326
3055.13257,0.05309
3053.20382,0.05317
3051.27508,0.05343
3049.34633,0.05344
3047.41759,0.05322
3045.48884,0.05311
3043.56009,0.05309
3041.63135,0.05293
3039.70260,0.05270
3037.77386,0.05270
3035.84511,0.05284
3033.91637,0.05279
3031.98762,0.05258
3030.05888,0.05249
3028.13013,0.05260
3026.20139,0.05270
3024.27264,0.05248
3022.34390,0.05212
3020.41515,0.05205
3018.48641,0.05212
3016.55766,0.05203
3014.62892,0.05195
3012.70017,0.05199
3010.77142,0.05197
3008.84268,0.05184
3006.91393,0.05173
3004.98519,0.05163
3003.05644,0.05151
3001.12770,0.05148
2999.19895,0.05145
2997.27021,0.05138
2995.34146,0.05141
2993.41272,0.05138
2991.48397,0.05106
2989.55523,0.05068
2987.62648,0.05057
2985.69774,0.05081
2983.76899,0.05116
2981.84025,0.05120
2979.91150,0.05091
2977.98275,0.05062
2976.05401,0.05043
2974.12526,0.05032
2972.19652,0.05038
2970.26777,0.05050
2968.33903,0.05053
2966.41028,0.05069
2964.48154,0.05102
2962.55279,0.05119
2960.62405,0.05128
2958.69530,0.05154
2956.76656,0.05188
2954.83781,0.05209
2952.90907,0.05212
2950.98032,0.05201
2949.05157,0.05199
2947.12283,0.05214
2945.19408,0.05231
2943.26534,0.05244
2941.33659,0.05252
2939.40785,0.05254
2937.47910,0.05272
2935.55036,0.05318
2933.62161,0.05388
2931.69287,0.05473
2929.76412,0.05539
2927.83538,0.05578
2925.90663,0.05632
2923.97789,0.05710
2922.04914,0.05780
2920.12040,0.05842
2918.19165,0.05892
2916.26290,0.05896
2914.33416,0.05858
2912.40541,0.05826
2910.47667,0.05803
2908.54792,0.05762
2906.61918,0.05715
2904.69043,0.05695
2902.76169,0.05696
2900.83294,0.05676
2898.90420,0.05623
2896.97545,0.05572
2895.04671,0.05562
2893.11796,0.05596
2891.18922,0.05620
2889.26047,0.05607
2887.33172,0.05593
2885.40298,0.05583
2883.47423,0.05568
2881.54549,0.05563
2879.61674,0.05568
2877.68800,0.05565
2875.75925,0.05550
2873.83051,0.05538
2871.90176,0.05554
2869.97302,0.05591
2868.04427,0.05614
2866.11553,0.05615
2864.18678,0.05605
2862.25804,0.05597
2860.32929,0.05621
2858.40055,0.05694
2856.47180,0.05783
2854.54305,0.05847
2852.61431,0.05902
2850.68556,0.05957
2848.75682,0.05970
2846.82807,0.05940
2844.89933,0.05909
2842.97058,0.05882
2841.04184,0.05855
2839.11309,0.05816
2837.18435,0.05762
2835.25560,0.05726
2833.32686,0.05721
2831.39811,0.05726
2829.46937,0.05720
2827.54062,0.05704
2825.61188,0.05681
2823.68313,0.05663
2821.75438,0.05655
2819.82564,0.05641
2817.89689,0.05628
2815.96815,0.05629
2814.03940,0.05633
2812.11066,0.05642
2810.18191,0.05656
2808.25317,0.05658
2806.32442,0.05648
2804.39568,0.05640
2802.46693,0.05634
2800.53819,0.05645
2798.60944,0.05672
2796.68070,0.05670
2794.75195,0.05631
2792.82320,0.05601
2790.89446,0.05601
2788.96571,0.05608
2787.03697,0.05618
2785.10822,0.05636
2783.17948,0.05644
2781.25073,0.05628
2779.32199,0.05596
2777.39324,0.05582
2775.46450,0.05600
2773.53575,0.05612
2771.60701,0.05593
2769.67826,0.05588
2767.74952,0.05608
2765.82077,0.05621
2763.89203,0.05614
2761.96328,0.05599
2760.03453,0.05600
2758.10579,0.05623
2756.17704,0.05640
2754.24830,0.05634
2752.31955,0.05610
2750.39081,0.05594
2748.46206,0.05601
2746.53332,0.05609
2744.60457,0.05602
2742.67583,0.05603
2740.74708,0.05619
2738.81834,0.05625
2736.88959,0.05615
2734.96085,0.05620
2733.03210,0.05646
2731.10336,0.05663
2729.17461,0.05643
2727.24586,0.05611
2725.31712,0.05614
2723.38837,0.05646
2721.45963,0.05657
2719.53088,0.05651
2717.60214,0.05659
2715.67339,0.05664
2713.74465,0.05649
2711.81590,0.05640
2709.88716,0.05654
2707.95841,0.05675
2706.02967,0.05688
2704.10092,0.05691
2702.17218,0.05686
2700.24343,0.05686
2698.31468,0.05705
2696.38594,0.05729
2694.45719,0.05736
2692.52845,0.05734
2690.59970,0.05733
2688.67096,0.05730
2686.74221,0.05735
2684.81347,0.05754
2682.88472,0.05779
2680.95598,0.05798
2679.02723,0.05805
2677.09849,0.05802
2675.16974,0.05789
2673.24100,0.05773
2671.31225,0.05769
2669.38351,0.05786
2667.45476,0.05816
2665.52601,0.05843
2663.59727,0.05865
2661.66852,0.05882
2659.73978,0.05890
2657.81103,0.05890
2655.88229,0.05899
2653.95354,0.05919
2652.02480,0.05944
2650.09605,0.05959
2648.16731,0.05953
2646.23856,0.05945
2644.30982,0.05941
2642.38107,0.05928
2640.45233,0.05922
2638.52358,0.05941
2636.59484,0.05969
2634.66609,0.05986
2632.73734,0.05994
2630.80860,0.05997
2628.87985,0.05992
2626.95111,0.05988
2625.02236,0.05995
2623.09362,0.06010
2621.16487,0.06019
2619.23613,0.06008
2617.30738,0.05990
2615.37864,0.05984
2613.44989,0.05989
2611.52115,0.06002
2609.59240,0.06024
2607.66366,0.06045
2605.73491,0.06055
2603.80616,0.06054
2601.87742,0.06040
2599.94867,0.06015
2598.01993,0.06002
2596.09118,0.05999
2594.16244,0.05999
2592.23369,0.06016
2590.30495,0.06029
2588.37620,0.06023
2586.44746,0.06024
2584.51871,0.06035
2582.58997,0.06045
2580.66122,0.06060
2578.73248,0.06073
2576.80373,0.06065
2574.87499,0.06046
2572.94624,0.06043
2571.01749,0.06065
2569.08875,0.06086
2567.16000,0.06078
2565.23126,0.06058
2563.30251,0.06054
2561.37377,0.06067
2559.44502,0.06065
2557.51628,0.06042
2555.58753,0.06038
2553.65879,0.06058
2551.73004,0.06070
2549.80130,0.06066
2547.87255,0.06064
2545.94381,0.06077
2544.01506,0.06096
2542.08631,0.06106
2540.15757,0.06112
2538.22882,0.06125
2536.30008,0.06138
2534.37133,0.06142
2532.44259,0.06146
2530.51384,0.06152
2528.58510,0.06157
2526.65635,0.06157
2524.72761,0.06157
2522.79886,0.06173
2520.87012,0.06201
2518.94137,0.06222
2517.01263,0.06231
2515.08388,0.06236
2513.15514,0.06240
2511.22639,0.06248
2509.29764,0.06258
2507.36890,0.06268
2505.44015,0.06285
2503.51141,0.06302
2501.58266,0.06301
2499.65392,0.06288
2497.72517,0.06289
2495.79643,0.06313
2493.86768,0.06343
2491.93894,0.06351
2490.01019,0.06343
2488.08145,0.06352
2486.15270,0.06385
2484.22396,0.06415
2482.29521,0.06429
2480.36647,0.06443
2478.43772,0.06462
2476.50897,0.06470
2474.58023,0.06461
2472.65148,0.06459
2470.72274,0.06482
2468.79399,0.06513
2466.86525,0.06538
2464.93650,0.06562
2463.00776,0.06586
2461.07901,0.06599
2459.15027,0.06593
2457.22152,0.06581
2455.29278,0.06583
2453.36403,0.06602
2451.43529,0.06620
2449.50654,0.06614
2447.57779,0.06601
2445.64905,0.06612
2443.72030,0.06631
2441.79156,0.06627
2439.86281,0.06609
2437.93407,0.06595
2436.00532,0.06586
2434.07658,0.06589
2432.14783,0.06601
2430.21909,0.06601
2428.29034,0.06592
2426.36160,0.06592
2424.43285,0.06601
2422.50411,0.06617
2420.57536,0.06641
2418.64662,0.06669
2416.71787,0.06696
2414.78912,0.06710
2412.86038,0.06706
2410.93163,0.06704
2409.00289,0.06724
2407.07414,0.06754
2405.14540,0.06776
2403.21665,0.06794
2401.28791,0.06809
2399.35916,0.06813
2397.43042,0.06806
2395.50167,0.06796
2393.57293,0.06788
2391.64418,0.06792
2389.71544,0.06807
2387.78669,0.06809
2385.85795,0.06809
2383.92920,0.06831
2382.00045,0.06860
2380.07171,0.06875
2378.14296,0.06869
2376.21422,0.06847
2374.28547,0.06829
2372.35673,0.06819
2370.42798,0.06811
2368.49924,0.06812
2366.57049,0.06827
2364.64175,0.06835
2362.71300,0.06837
2360.78426,0.06850
2358.85551,0.06869
2356.92677,0.06875
2354.99802,0.06877
2353.06927,0.06885
2351.14053,0.06882
2349.21178,0.06849
2347.28304,0.06803
2345.35429,0.06789
2343.42555,0.06814
2341.49680,0.06845
2339.56806,0.06858
2337.63931,0.06855
2335.71057,0.06849
2333.78182,0.06846
2331.85308,0.06847
2329.92433,0.06848
2327.99559,0.06847
2326.06684,0.06857
2324.13810,0.06896
2322.20935,0.06948
2320.28060,0.06968
2318.35186,0.06970
2316.42311,0.06990
2314.49437,0.07020
2312.56562,0.07044
2310.63688,0.07061
2308.70813,0.07081
2306.77939,0.07105
2304.85064,0.07123
2302.92190,0.07132
2300.99315,0.07142
2299.06441,0.07154
2297.13566,0.07157
2295.20692,0.07154
2293.27817,0.07160
2291.34943,0.07182
2289.42068,0.07212
2287.49193,0.07230
2285.56319,0.07247
2283.63444,0.07274
2281.70570,0.07294
2279.77695,0.07297
2277.84821,0.07292
2275.91946,0.07298
2273.99072,0.07310
2272.06197,0.07326
2270.13323,0.07357
2268.20448,0.07401
2266.27574,0.07432
2264.34699,0.07447
2262.41825,0.07454
2260.48950,0.07450
2258.56075,0.07435
2256.63201,0.07426
2254.70326,0.07432
2252.77452,0.07442
2250.84577,0.07440
2248.91703,0.07431
2246.98828,0.07426
2245.05954,0.07428
2243.13079,0.07439
2241.20205,0.07462
2239.27330,0.07481
2237.34456,0.07477
2235.41581,0.07454
2233.48707,0.07437
2231.55832,0.07439
2229.62958,0.07451
2227.70083,0.07450
2225.77208,0.07437
2223.84334,0.07428
2221.91459,0.07434
2219.98585,0.07445
2218.05710,0.07458
2216.12836,0.07478
2214.19961,0.07491
2212.27087,0.07491
2210.34212,0.07497
2208.41338,0.07506
2206.48463,0.07505
2204.55589,0.07502
2202.62714,0.07498
2200.69840,0.07486
2198.76965,0.07475
2196.84090,0.07454
2194.91216,0.07417
2192.98341,0.07383
2191.05467,0.07360
2189.12592,0.07341
2187.19718,0.07314
2185.26843,0.07272
2183.33969,0.07241
2181.41094,0.07244
2179.48220,0.07253
2177.55345,0.07240
2175.62471,0.07211
2173.69596,0.07184
2171.76722,0.07163
2169.83847,0.07130
2167.90973,0.07077
2165.98098,0.07023
2164.05223,0.06985
2162.12349,0.06953
2160.19474,0.06911
2158.26600,0.06863
2156.33725,0.06829
2154.40851,0.06805
2152.47976,0.06786
2150.55102,0.06768
2148.62227,0.06739
2146.69353,0.06705
2144.76478,0.06670
2142.83604,0.06626
2140.90729,0.06581
2138.97855,0.06557
2137.04980,0.06546
2135.12106,0.06525
2133.19231,0.06501
2131.26356,0.06485
2129.33482,0.06465
2127.40607,0.06432
2125.47733,0.06401
2123.54858,0.06385
2121.61984,0.06379
2119.69109,0.06380
2117.76235,0.06374
2115.83360,0.06347
2113.90486,0.06311
2111.97611,0.06283
2110.04737,0.06266
2108.11862,0.06268
2106.18988,0.06271
2104.26113,0.06249
2102.33238,0.06214
2100.40364,0.06193
2098.47489,0.06186
2096.54615,0.06172
2094.61740,0.06153
2092.68866,0.06142
2090.75991,0.06141
2088.83117,0.06135
2086.90242,0.06112
2084.97368,0.06087
2083.04493,0.06083
2081.11619,0.06096
2079.18744,0.06113
2077.25870,0.06123
2075.32995,0.06123
2073.40121,0.06119
2071.47246,0.06111
2069.54371,0.06100
2067.61497,0.06092
2065.68622,0.06096
2063.75748,0.06110
2061.82873,0.06125
2059.89999,0.06127
2057.97124,0.06122
2056.04250,0.06112
2054.11375,0.06111
2052.18501,0.06133
2050.25626,0.06154
2048.32752,0.06158
2046.39877,0.06163
2044.47003,0.06172
2042.54128,0.06173
2040.61254,0.06164
2038.68379,0.06148
2036.75504,0.06141
2034.82630,0.06150
2032.89755,0.06152
2030.96881,0.06131
2029.04006,0.06098
2027.11132,0.06071
2025.18257,0.06056
2023.25383,0.06055
2021.32508,0.06060
2019.39634,0.06058
2017.46759,0.06046
2015.53885,0.06031
2013.61010,0.06020
2011.68136,0.06019
2009.75261,0.06033
2007.82386,0.06051
2005.89512,0.06059
2003.96637,0.06048
2002.03763,0.06021
2000.10888,0.06001
1998.18014,0.05993
1996.25139,0.05987
1994.32265,0.05986
1992.39390,0.05986
1990.46516,0.05989
1988.53641,0.05997
1986.60767,0.05985
1984.67892,0.05959
1982.75018,0.05968
1980.82143,0.05987
1978.89269,0.05971
1976.96394,0.05938
1975.03519,0.05923
1973.10645,0.05919
1971.17770,0.05914
1969.24896,0.05916
1967.32021,0.05922
1965.39147,0.05915
1963.46272,0.05890
1961.53398,0.05862
1959.60523,0.05848
1957.67649,0.05847
1955.74774,0.05859
1953.81900,0.05876
1951.89025,0.05879
1949.96151,0.05874
1948.03276,0.05886
1946.10402,0.05911
1944.17527,0.05937
1942.24652,0.05954
1940.31778,0.05961
1938.38903,0.05977
1936.46029,0.06007
1934.53154,0.06031
1932.60280,0.06033
1930.67405,0.06027
1928.74531,0.06044
1926.81656,0.06077
1924.88782,0.06092
1922.95907,0.06086
1921.03033,0.06078
1919.10158,0.06069
1917.17284,0.06044
1915.24409,0.06014
1913.31534,0.05991
1911.38660,0.05973
1909.45785,0.05955
1907.52911,0.05928
1905.60036,0.05902
1903.67162,0.05888
1901.74287,0.05869
1899.81413,0.05825
1897.88538,0.05779
1895.95664,0.05751
1894.02789,0.05732
1892.09915,0.05703
1890.17040,0.05670
1888.24166,0.05654
1886.31291,0.05657
1884.38417,0.05655
1882.45542,0.05633
1880.52667,0.05610
1878.59793,0.05600
1876.66918,0.05596
1874.74044,0.05594
1872.81169,0.05604
1870.88295,0.05610
1868.95420,0.05595
1867.02546,0.05573
1865.09671,0.05549
1863.16797,0.05522
1861.23922,0.05502
1859.31048,0.05493
1857.38173,0.05483
1855.45299,0.05465
1853.52424,0.05440
1851.59549,0.05414
1849.66675,0.05397
1847.73800,0.05391
1845.80926,0.05377
1843.88051,0.05351
1841.95177,0.05320
1840.02302,0.05285
1838.09428,0.05257
1836.16553,0.05228
1834.23679,0.05190
1832.30804,0.05160
1830.37930,0.05132
1828.45055,0.05097
1826.52181,0.05059
1824.59306,0.05010
1822.66432,0.04959
1820.73557,0.04927
1818.80682,0.04905
1816.87808,0.04875
1814.94933,0.04841
1813.02059,0.04815
1811.09184,0.04782
1809.16310,0.04727
1807.23435,0.04678
1805.30561,0.04652
1803.37686,0.04644
1801.44812,0.04638
1799.51937,0.04619
1797.59063,0.04580
1795.66188,0.04535
1793.73314,0.04492
1791.80439,0.04456
1789.87565,0.04433
1787.94690,0.04423
1786.01815,0.04411
1784.08941,0.04383
1782.16066,0.04350
1780.23192,0.04329
1778.30317,0.04308
1776.37443,0.04281
1774.44568,0.04249
1772.51694,0.04204
1770.58819,0.04146
1768.65945,0.04084
1766.73070,0.04021
1764.80196,0.03972
1762.87321,0.03925
1760.94447,0.03857
1759.01572,0.03776
1757.08697,0.03680
1755.15823,0.03567
1753.22948,0.03459
1751.30074,0.03372
1749.37199,0.03307
1747.44325,0.03264
1745.51450,0.03268
1743.58576,0.03355
1741.65701,0.03529
1739.72827,0.03782
1737.79952,0.04088
1735.87078,0.04442
1733.94203,0.04875
1732.01329,0.05306
1730.08454,0.05670
1728.15580,0.06006
1726.22705,0.06304
1724.29830,0.06545
1722.36956,0.06739
1720.44081,0.06901
1718.51207,0.07007
1716.58332,0.07017
1714.65458,0.06950
1712.72583,0.06875
1710.79709,0.06801
1708.86834,0.06718
1706.93960,0.06630
1705.01085,0.06541
1703.08211,0.06461
1701.15336,0.06384
1699.22462,0.06303
1697.29587,0.06231
1695.36713,0.06152
1693.43838,0.06083
1691.50963,0.06049
1689.58089,0.06038
1687.65214,0.06033
1685.72340,0.06002
1683.79465,0.05933
1681.86591,0.05889
1679.93716,0.05883
1678.00842,0.05871
1676.07967,0.05846
1674.15093,0.05827
1672.22218,0.05817
1670.29344,0.05803
1668.36469,0.05775
1666.43595,0.05748
1664.50720,0.05742
1662.57845,0.05745
1660.64971,0.05744
1658.72096,0.05756
1656.79222,0.05770
1654.86347,0.05755
1652.93473,0.05711
1651.00598,0.05697
1649.07724,0.05722
1647.14849,0.05737
1645.21975,0.05697
1643.29100,0.05629
1641.36226,0.05582
1639.43351,0.05574
1637.50477,0.05587
1635.57602,0.05596
1633.64728,0.05590
1631.71853,0.05576
1629.78978,0.05567
1627.86104,0.05564
1625.93229,0.05560
1624.00355,0.05554
1622.07480,0.05547
1620.14606,0.05543
1618.21731,0.05529
1616.28857,0.05506
1614.35982,0.05504
1612.43108,0.05520
1610.50233,0.05531
1608.57359,0.05533
1606.64484,0.05530
1604.71610,0.05515
1602.78735,0.05500
1600.85861,0.05512
1598.92986,0.05530
1597.00111,0.05527
1595.07237,0.05514
1593.14362,0.05507
1591.21488,0.05501
1589.28613,0.05486
1587.35739,0.05470
1585.42864,0.05451
1583.49990,0.05427
1581.57115,0.05409
1579.64241,0.05398
1577.71366,0.05385
1575.78492,0.05374
1573.85617,0.05380
1571.92743,0.05392
1569.99868,0.05394
1568.06993,0.05384
1566.14119,0.05367
1564.21244,0.05348
1562.28370,0.05338
1560.35495,0.05339
1558.42621,0.05334
1556.49746,0.05319
1554.56872,0.05308
1552.63997,0.05304
1550.71123,0.05291
1548.78248,0.05266
1546.85374,0.05247
1544.92499,0.05239
1542.99625,0.05234
1541.06750,0.05240
1539.13876,0.05246
1537.21001,0.05238
1535.28126,0.05227
1533.35252,0.05209
1531.42377,0.05179
1529.49503,0.05150
1527.56628,0.05122
1525.63754,0.05099
1523.70879,0.05075
1521.78005,0.05028
1519.85130,0.04973
1517.92256,0.04932
1515.99381,0.04900
1514.06507,0.04897
1512.13632,0.04951
1510.20758,0.05033
1508.27883,0.05095
1506.35008,0.05132
1504.42134,0.05164
1502.49259,0.05188
1500.56385,0.05196
1498.63510,0.05184
1496.70636,0.05141
1494.77761,0.05087
1492.84887,0.05054
1490.92012,0.05024
1488.99138,0.04973
1487.06263,0.04912
1485.13389,0.04858
1483.20514,0.04813
1481.27640,0.04775
1479.34765,0.04748
1477.41891,0.04724
1475.49016,0.04706
1473.56141,0.04705
1471.63267,0.04725
1469.70392,0.04749
1467.77518,0.04774
1465.84643,0.04800
1463.91769,0.04829
1461.98894,0.04865
1460.06020,0.04898
1458.13145,0.04903
1456.20271,0.04885
1454.27396,0.04878
1452.34522,0.04891
1450.41647,0.04922
1448.48773,0.04968
1446.55898,0.05008
1444.63024,0.05035
1442.70149,0.05061
1440.77274,0.05088
1438.84400,0.05094
1436.91525,0.05070
1434.98651,0.05052
1433.05776,0.05061
1431.12902,0.05061
1429.20027,0.05029
1427.27153,0.04985
1425.34278,0.04943
1423.41404,0.04899
1421.48529,0.04856
1419.55655,0.04825
1417.62780,0.04800
1415.69906,0.04777
1413.77031,0.04768
1411.84156,0.04785
1409.91282,0.04824
1407.98407,0.04863
1406.05533,0.04885
1404.12658,0.04887
1402.19784,0.04884
1400.26909,0.04876
1398.34035,0.04856
1396.41160,0.04834
1394.48286,0.04817
1392.55411,0.04817
1390.62537,0.04833
1388.69662,0.04851
1386.76788,0.04864
1384.83913,0.04870
1382.91039,0.04869
1380.98164,0.04880
1379.05289,0.04898
1377.12415,0.04904
1375.19540,0.04902
1373.26666,0.04896
1371.33791,0.04889
1369.40917,0.04893
1367.48042,0.04893
1365.55168,0.04884
1363.62293,0.04883
1361.69419,0.04875
1359.76544,0.04843
1357.83670,0.04802
1355.90795,0.04765
1353.97921,0.04736
1352.05046,0.04728
1350.12172,0.04733
1348.19297,0.04731
1346.26422,0.04718
1344.33548,0.04698
1342.40673,0.04674
1340.47799,0.04654
1338.54924,0.04629
1336.62050,0.04598
1334.69175,0.04576
1332.76301,0.04565
1330.83426,0.04555
1328.90552,0.04541
1326.97677,0.04518
1325.04803,0.04485
1323.11928,0.04467
1321.19054,0.04476
1319.26179,0.04481
1317.33304,0.04460
1315.40430,0.04430
1313.47555,0.04399
1311.54681,0.04363
1309.61806,0.04323
1307.68932,0.04286
1305.76057,0.04267
1303.83183,0.04265
1301.90308,0.04263
1299.97434,0.04256
1298.04559,0.04251
1296.11685,0.04257
1294.18810,0.04280
1292.25936,0.04299
1290.33061,0.04297
1288.40187,0.04270
1286.47312,0.04231
1284.54437,0.04206
1282.61563,0.04195
1280.68688,0.04169
1278.75814,0.04142
1276.82939,0.04153
1274.90065,0.04193
1272.97190,0.04226
1271.04316,0.04235
1269.11441,0.04241
1267.18567,0.04268
1265.25692,0.04296
1263.32818,0.04298
1261.39943,0.04302
1259.47069,0.04328
1257.54194,0.04361
1255.61320,0.04393
1253.68445,0.04435
1251.75570,0.04482
1249.82696,0.04532
1247.89821,0.04584
1245.96947,0.04624
1244.04072,0.04655
1242.11198,0.04688
1240.18323,0.04722
1238.25449,0.04736
1236.32574,0.04727
1234.39700,0.04730
1232.46825,0.04756
1230.53951,0.04777
1228.61076,0.04776
1226.68202,0.04768
1224.75327,0.04773
1222.82452,0.04779
1220.89578,0.04775
1218.96703,0.04773
1217.03829,0.04774
1215.10954,0.04770
1213.18080,0.04765
1211.25205,0.04761
1209.32331,0.04751
1207.39456,0.04749
1205.46582,0.04767
1203.53707,0.04793
1201.60833,0.04830
1199.67958,0.04867
1197.75084,0.04892
1195.82209,0.04928
1193.89335,0.04977
1191.96460,0.05018
1190.03585,0.05057
1188.10711,0.05102
1186.17836,0.05160
1184.24962,0.05229
1182.32087,0.05307
1180.39213,0.05389
1178.46338,0.05467
1176.53464,0.05531
1174.60589,0.05581
1172.67715,0.05634
1170.74840,0.05713
1168.81966,0.05812
1166.89091,0.05909
1164.96217,0.06007
1163.03342,0.06121
1161.10467,0.06243
1159.17593,0.06352
1157.24718,0.06444
1155.31844,0.06527
1153.38969,0.06615
1151.46095,0.06690
1149.53220,0.06713
1147.60346,0.06684
1145.67471,0.06657
1143.74597,0.06657
1141.81722,0.06639
1139.88848,0.06587
1137.95973,0.06541
1136.03099,0.06499
1134.10224,0.06452
1132.17350,0.06431
1130.24475,0.06449
1128.31600,0.06485
1126.38726,0.06525
1124.45851,0.06569
1122.52977,0.06613
1120.60102,0.06656
1118.67228,0.06717
1116.74353,0.06807
1114.81479,0.06901
1112.88604,0.06971
1110.95730,0.07034
1109.02855,0.07111
1107.09981,0.07198
1105.17106,0.07291
1103.24232,0.07374
1101.31357,0.07430
1099.38483,0.07468
1097.45608,0.07500
1095.52733,0.07529
1093.59859,0.07548
1091.66984,0.07573
1089.74110,0.07622
1087.81235,0.07665
1085.88361,0.07676
1083.95486,0.07689
1082.02612,0.07729
1080.09737,0.07776
1078.16863,0.07834
1076.23988,0.07898
1074.31114,0.07948
1072.38239,0.07982
1070.45365,0.08011
1068.52490,0.08039
1066.59615,0.08055
1064.66741,0.08084
1062.73866,0.08131
1060.80992,0.08168
1058.88117,0.08173
1056.95243,0.08147
1055.02368,0.08133
1053.09494,0.08152
1051.16619,0.08163
1049.23745,0.08142
1047.30870,0.08118
1045.37996,0.08125
1043.45121,0.08142
1041.52247,0.08138
1039.59372,0.08127
1037.66498,0.08122
1035.73623,0.08130
1033.80748,0.08134
1031.87874,0.08119
1029.94999,0.08112
1028.02125,0.08118
1026.09250,0.08109
1024.16376,0.08087
1022.23501,0.08057
1020.30627,0.08014
1018.37752,0.07971
1016.44878,0.07935
1014.52003,0.07904
1012.59129,0.07859
1010.66254,0.07794
1008.73380,0.07753
1006.80505,0.07749
1004.87631,0.07736
1002.94756,0.07684
1001.01881,0.07619
999.09007,0.07574
997.16132,0.07529
995.23258,0.07474
993.30383,0.07452
991.37509,0.07459
989.44634,0.07459
987.51760,0.07446
985.58885,0.07430
983.66011,0.07425
981.73136,0.07433
979.80262,0.07445
977.87387,0.07460
975.94513,0.07460
974.01638,0.07433
972.08763,0.07410
970.15889,0.07419
968.23014,0.07441
966.30140,0.07463
964.37265,0.07474
962.44391,0.07466
960.51516,0.07460
958.58642,0.07451
956.65767,0.07431
954.72893,0.07425
952.80018,0.07437
950.87144,0.07424
948.94269,0.07366
947.01395,0.07314
945.08520,0.07292
943.15646,0.07271
941.22771,0.07233
939.29896,0.07206
937.37022,0.07235
935.44147,0.07289
933.51273,0.07293
931.58398,0.07254
929.65524,0.07220
927.72649,0.07206
925.79775,0.07213
923.86900,0.07206
921.94026,0.07161
920.01151,0.07113
918.08277,0.07102
916.15402,0.07108
914.22528,0.07116
912.29653,0.07137
910.36779,0.07146
908.43904,0.07113
906.51029,0.07065
904.58155,0.07031
902.65280,0.07026
900.72406,0.07041
898.79531,0.07044
896.86657,0.07034
894.93782,0.07036
893.00908,0.07047
891.08033,0.07058
889.15159,0.07072
887.22284,0.07058
885.29410,0.07016
883.36535,0.06998
881.43661,0.06996
879.50786,0.06975
877.57911,0.06960
875.65037,0.06981
873.72162,0.07007
871.79288,0.06999
869.86413,0.06960
867.93539,0.06908
866.00664,0.06867
864.07790,0.06850
862.14915,0.06833
860.22041,0.06807
858.29166,0.06803
856.36292,0.06827
854.43417,0.06824
852.50543,0.06758
850.57668,0.06676
848.64794,0.06627
846.71919,0.06601
844.79044,0.06590
842.86170,0.06590
840.93295,0.06574
839.00421,0.06561
837.07546,0.06586
835.14672,0.06610
833.21797,0.06598
831.28923,0.06591
829.36048,0.06605
827.43174,0.06610
825.50299,0.06610
823.57425,0.06615
821.64550,0.06618
819.71676,0.06600
817.78801,0.06565
815.85926,0.06554
813.93052,0.06588
812.00177,0.06642
810.07303,0.06704
808.14428,0.06778
806.21554,0.06838
804.28679,0.06860
802.35805,0.06866
800.42930,0.06884
798.50056,0.06900
796.57181,0.06916
794.64307,0.06941
792.71432,0.06955
790.78558,0.06932
788.85683,0.06890
786.92809,0.06865
784.99934,0.06847
783.07059,0.06826
781.14185,0.06838
779.21310,0.06880
777.28436,0.06902
775.35561,0.06884
773.42687,0.06841
771.49812,0.06815
769.56938,0.06822
767.64063,0.06840
765.71189,0.06836
763.78314,0.06808
761.85440,0.06790
759.92565,0.06792
757.99691,0.06805
756.06816,0.06818
754.13942,0.06788
752.21067,0.06739
750.28192,0.06734
748.35318,0.06747
746.42443,0.06763
744.49569,0.06784
742.56694,0.06792
740.63820,0.06795
738.70945,0.06791
736.78071,0.06794
734.85196,0.06827
732.92322,0.06865
730.99447,0.06881
729.06573,0.06908
727.13698,0.06952
725.20824,0.06984
723.27949,0.07002
721.35074,0.06999
719.42200,0.06990
717.49325,0.06991
715.56451,0.06966
713.63576,0.06903
711.70702,0.06825
709.77827,0.06754
707.84953,0.06724
705.92078,0.06734
703.99204,0.06758
702.06329,0.06804
700.13455,0.06879
698.20580,0.06935
696.27706,0.06959
694.34831,0.06994
692.41957,0.07028
690.49082,0.07055
688.56207,0.07107
686.63333,0.07158
684.70458,0.07194
682.77584,0.07253
680.84709,0.07317
678.91835,0.07354
676.98960,0.07375
675.06086,0.07403
673.13211,0.07417
671.20337,0.07376
669.27462,0.07293
667.34588,0.07225
665.41713,0.07201
663.48839,0.07174
661.55964,0.07144
659.63090,0.07133
657.70215,0.07064
655.77340,0.06911
653.84466,0.06794
651.91591,0.06802
649.98717,0.06876
648.05842,0.06913
646.12968,0.06900
644.20093,0.06868
642.27219,0.06813
640.34344,0.06722
638.41470,0.06609
636.48595,0.06498
634.55721,0.06407
632.62846,0.06361
630.69972,0.06405
628.77097,0.06487
626.84222,0.06479
624.91348,0.06434
622.98473,0.06465
621.05599,0.06528
619.12724,0.06569
617.19850,0.06616
615.26975,0.06660
613.34101,0.06627
611.41226,0.06551
609.48352,0.06563
607.55477,0.06661
605.62603,0.06701
603.69728,0.06581
601.76854,0.06433
599.83979,0.06408
