7497.03301,0.78858
7495.10426,0.78752
7493.17552,0.78663
7491.24677,0.78699
7489.31803,0.78588
7487.38928,0.78401
7485.46054,0.78358
7483.53179,0.78096
7481.60305,0.77426
7479.67430,0.76840
7477.74556,0.76726
7475.81681,0.76884
7473.88807,0.77273
7471.95932,0.77882
7470.03057,0.78074
7468.10183,0.77643
7466.17308,0.77173
7464.24434,0.76797
7462.31559,0.76371
7460.38685,0.76216
7458.45810,0.76302
7456.52936,0.76187
7454.60061,0.75846
7452.67187,0.75518
7450.74312,0.75427
7448.81438,0.75537
7446.88563,0.75738
7444.95689,0.75945
7443.02814,0.75932
7441.09940,0.75590
7439.17065,0.74950
7437.24190,0.74562
7435.31316,0.74861
7433.38441,0.75063
7431.45567,0.74595
7429.52692,0.73951
7427.59818,0.73498
7425.66943,0.73315
7423.74069,0.73463
7421.81194,0.73800
7419.88320,0.73924
7417.95445,0.73469
7416.02571,0.72746
7414.09696,0.72314
7412.16822,0.72031
7410.23947,0.71850
7408.31073,0.71997
7406.38198,0.71988
7404.45323,0.71690
7402.52449,0.71757
7400.59574,0.72019
7398.66700,0.71887
7396.73825,0.71569
7394.80951,0.71373
7392.88076,0.71279
7390.95202,0.71344
7389.02327,0.71427
7387.09453,0.71300
7385.16578,0.71188
7383.23704,0.71040
7381.30829,0.70380
7379.37955,0.69623
7377.45080,0.69517
7375.52205,0.69936
7373.59331,0.70319
7371.66456,0.70293
7369.73582,0.69950
7367.80707,0.69625
7365.87833,0.69423
7363.94958,0.69294
7362.02084,0.69252
7360.09209,0.69200
7358.16335,0.68931
7356.23460,0.68731
7354.30586,0.69074
7352.37711,0.69599
7350.44837,0.69774
7348.51962,0.69662
7346.59088,0.69233
7344.66213,0.68526
7342.73338,0.68113
7340.80464,0.68162
7338.87589,0.68258
7336.94715,0.68272
7335.01840,0.68168
7333.08966,0.67859
7331.16091,0.67660
7329.23217,0.67706
7327.30342,0.67671
7325.37468,0.67693
7323.44593,0.67890
7321.51719,0.67727
7319.58844,0.67280
7317.65970,0.67117
7315.73095,0.67081
7313.80221,0.66806
7311.87346,0.66411
7309.94471,0.66231
7308.01597,0.66338
7306.08722,0.66410
7304.15848,0.66199
7302.22973,0.65985
7300.30099,0.66105
7298.37224,0.66381
7296.44350,0.66496
7294.51475,0.66355
7292.58601,0.66052
7290.65726,0.65845
7288.72852,0.65776
7286.79977,0.65599
7284.87103,0.65261
7282.94228,0.65137
7281.01353,0.65511
7279.08479,0.65932
7277.15604,0.65909
7275.22730,0.65769
7273.29855,0.65803
7271.36981,0.65765
7269.44106,0.65707
7267.51232,0.65843
7265.58357,0.65899
7263.65483,0.65685
7261.72608,0.65541
7259.79734,0.65654
7257.86859,0.65833
7255.93985,0.65873
7254.01110,0.65452
7252.08236,0.64646
7250.15361,0.64252
7248.22486,0.64490
7246.29612,0.64686
7244.36737,0.64580
7242.43863,0.64574
7240.50988,0.64851
7238.58114,0.65256
7236.65239,0.65465
7234.72365,0.65003
7232.79490,0.64140
7230.86616,0.63738
7228.93741,0.64007
7227.00867,0.64613
7225.07992,0.64842
7223.15118,0.64344
7221.22243,0.63902
7219.29369,0.63958
7217.36494,0.64103
7215.43619,0.64160
7213.50745,0.64162
7211.57870,0.63996
7209.64996,0.63848
7207.72121,0.63995
7205.79247,0.63924
7203.86372,0.63283
7201.93498,0.62791
7200.00623,0.62741
7198.07749,0.62834
7196.14874,0.63089
7194.22000,0.63352
7192.29125,0.63103
7190.36251,0.62110
7188.43376,0.60712
7186.50501,0.59662
7184.57627,0.59494
7182.64752,0.59927
7180.71878,0.60554
7178.79003,0.61170
7176.86129,0.61383
7174.93254,0.61245
7173.00380,0.61219
7171.07505,0.61273
7169.14631,0.61128
7167.21756,0.60949
7165.28882,0.60981
7163.36007,0.61017
7161.43133,0.60838
7159.50258,0.60549
7157.57384,0.60376
7155.64509,0.60189
7153.71634,0.59727
7151.78760,0.59382
7149.85885,0.59392
7147.93011,0.59270
7146.00136,0.58936
7144.07262,0.58767
7142.14387,0.58755
7140.21513,0.58760
7138.28638,0.58836
7136.35764,0.58996
7134.42889,0.59089
7132.50015,0.58957
7130.57140,0.58671
7128.64266,0.58389
7126.71391,0.58134
7124.78516,0.57865
7122.85642,0.57517
7120.92767,0.57230
7118.99893,0.57125
7117.07018,0.57027
7115.14144,0.56891
7113.21269,0.56782
7111.28395,0.56640
7109.35520,0.56412
7107.42646,0.56060
7105.49771,0.55690
7103.56897,0.55610
7101.64022,0.55652
7099.71148,0.55212
7097.78273,0.54469
7095.85399,0.54060
7093.92524,0.53890
7091.99649,0.53581
7090.06775,0.53316
7088.13900,0.53437
7086.21026,0.53789
7084.28151,0.53852
7082.35277,0.53302
7080.42402,0.52559
7078.49528,0.52288
7076.56653,0.52268
7074.63779,0.51922
7072.70904,0.51494
7070.78030,0.51477
7068.85155,0.51447
7066.92281,0.50925
7064.99406,0.50466
7063.06532,0.50567
7061.13657,0.50955
7059.20782,0.51201
7057.27908,0.51195
7055.35033,0.51024
7053.42159,0.50728
7051.49284,0.50449
7049.56410,0.50203
7047.63535,0.49727
7045.70661,0.49149
7043.77786,0.48802
7041.84912,0.48518
7039.92037,0.48263
7037.99163,0.48321
7036.06288,0.48480
7034.13414,0.48379
7032.20539,0.48062
7030.27664,0.47697
7028.34790,0.47483
7026.41915,0.47454
7024.49041,0.47490
7022.56166,0.47576
7020.63292,0.47538
7018.70417,0.47209
7016.77543,0.46954
7014.84668,0.47002
7012.91794,0.47056
7010.98919,0.46910
7009.06045,0.46618
7007.13170,0.46387
7005.20296,0.46335
7003.27421,0.46402
7001.34547,0.46480
6999.41672,0.46297
6997.48797,0.45909
6995.55923,0.45706
6993.63048,0.45655
6991.70174,0.45514
6989.77299,0.45339
6987.84425,0.45439
6985.91550,0.45702
6983.98676,0.45626
6982.05801,0.45369
6980.12927,0.45251
6978.20052,0.45047
6976.27178,0.44783
6974.34303,0.44733
6972.41429,0.44921
6970.48554,0.45206
6968.55680,0.45303
6966.62805,0.45149
6964.69930,0.44968
6962.77056,0.44811
6960.84181,0.44767
6958.91307,0.45001
6956.98432,0.45213
6955.05558,0.45068
6953.12683,0.44804
6951.19809,0.44623
6949.26934,0.44484
6947.34060,0.44483
6945.41185,0.44619
6943.48311,0.44687
6941.55436,0.44562
6939.62562,0.44353
6937.69687,0.44186
6935.76812,0.44111
6933.83938,0.44339
6931.91063,0.44705
6929.98189,0.44652
6928.05314,0.44400
6926.12440,0.44493
6924.19565,0.44727
6922.26691,0.44709
6920.33816,0.44471
6918.40942,0.44342
6916.48067,0.44412
6914.55193,0.44378
6912.62318,0.44280
6910.69444,0.44485
6908.76569,0.44904
6906.83695,0.45068
6904.90820,0.44963
6902.97945,0.44939
6901.05071,0.44910
6899.12196,0.44753
6897.19322,0.44688
6895.26447,0.44682
6893.33573,0.44589
6891.40698,0.44519
6889.47824,0.44558
6887.54949,0.44649
6885.62075,0.44762
6883.69200,0.44970
6881.76326,0.45293
6879.83451,0.45522
6877.90577,0.45434
6875.97702,0.45120
6874.04828,0.44927
6872.11953,0.44979
6870.19078,0.44996
6868.26204,0.44915
6866.33329,0.45096
6864.40455,0.45540
6862.47580,0.45747
6860.54706,0.45557
6858.61831,0.45268
6856.68957,0.45058
6854.76082,0.45031
6852.83208,0.45240
6850.90333,0.45383
6848.97459,0.45281
6847.04584,0.45175
6845.11710,0.45208
6843.18835,0.45283
6841.25960,0.45376
6839.33086,0.45540
6837.40211,0.45683
6835.47337,0.45721
6833.54462,0.45665
6831.61588,0.45467
6829.68713,0.45300
6827.75839,0.45513
6825.82964,0.45912
6823.90090,0.46035
6821.97215,0.45941
6820.04341,0.46015
6818.11466,0.46285
6816.18592,0.46367
6814.25717,0.46088
6812.32843,0.45769
6810.39968,0.45800
6808.47093,0.46177
6806.54219,0.46401
6804.61344,0.46144
6802.68470,0.45852
6800.75595,0.45970
6798.82721,0.46170
6796.89846,0.46200
6794.96972,0.46299
6793.04097,0.46341
6791.11223,0.46151
6789.18348,0.46121
6787.25474,0.46450
6785.32599,0.46725
6783.39725,0.46693
6781.46850,0.46562
6779.53975,0.46502
6777.61101,0.46544
6775.68226,0.46582
6773.75352,0.46550
6771.82477,0.46633
6769.89603,0.46821
6767.96728,0.46861
6766.03854,0.46745
6764.10979,0.46593
6762.18105,0.46493
6760.25230,0.46614
6758.32356,0.46842
6756.39481,0.46863
6754.46607,0.46778
6752.53732,0.46715
6750.60858,0.46653
6748.67983,0.46702
6746.75108,0.46862
6744.82234,0.47040
6742.89359,0.47166
6740.96485,0.47203
6739.03610,0.47248
6737.10736,0.47349
6735.17861,0.47497
6733.24987,0.47571
6731.32112,0.47354
6729.39238,0.47074
6727.46363,0.47155
6725.53489,0.47357
6723.60614,0.47266
6721.67740,0.47161
6719.74865,0.47396
6717.81991,0.47752
6715.89116,0.47888
6713.96241,0.47816
6712.03367,0.47905
6710.10492,0.48288
6708.17618,0.48477
6706.24743,0.48267
6704.31869,0.48065
6702.38994,0.48073
6700.46120,0.48162
6698.53245,0.48302
6696.60371,0.48605
6694.67496,0.48963
6692.74622,0.49103
6690.81747,0.48994
6688.88873,0.48812
6686.95998,0.48802
6685.03123,0.48941
6683.10249,0.48954
6681.17374,0.48854
6679.24500,0.48759
6677.31625,0.48650
6675.38751,0.48641
6673.45876,0.48914
6671.53002,0.49355
6669.60127,0.49525
6667.67253,0.49298
6665.74378,0.49228
6663.81504,0.49556
6661.88629,0.49774
6659.95755,0.49695
6658.02880,0.49601
6656.10006,0.49611
6654.17131,0.49781
6652.24256,0.50052
6650.31382,0.50205
6648.38507,0.50187
6646.45633,0.50104
6644.52758,0.50126
6642.59884,0.50286
6640.67009,0.50344
6638.74135,0.50223
6636.81260,0.50133
6634.88386,0.50171
6632.95511,0.50259
6631.02637,0.50397
6629.09762,0.50590
6627.16888,0.50595
6625.24013,0.50366
6623.31139,0.50331
6621.38264,0.50578
6619.45389,0.50787
6617.52515,0.50937
6615.59640,0.51021
6613.66766,0.50907
6611.73891,0.50795
6609.81017,0.50938
6607.88142,0.51196
6605.95268,0.51315
6604.02393,0.51300
6602.09519,0.51236
6600.16644,0.51113
6598.23770,0.51030
6596.30895,0.51142
6594.38021,0.51398
6592.45146,0.51538
6590.52271,0.51365
6588.59397,0.51092
6586.66522,0.51074
6584.73648,0.51247
6582.80773,0.51379
6580.87899,0.51568
6578.95024,0.51905
6577.02150,0.52103
6575.09275,0.52008
6573.16401,0.51835
6571.23526,0.51796
6569.30652,0.51947
6567.37777,0.52141
6565.44903,0.52127
6563.52028,0.51961
6561.59154,0.51937
6559.66279,0.52051
6557.73404,0.52143
6555.80530,0.52263
6553.87655,0.52365
6551.94781,0.52332
6550.01906,0.52272
6548.09032,0.52179
6546.16157,0.51975
6544.23283,0.51941
6542.30408,0.52239
6540.37534,0.52563
6538.44659,0.52700
6536.51785,0.52648
6534.58910,0.52357
6532.66036,0.51981
6530.73161,0.51926
6528.80287,0.52256
6526.87412,0.52539
6524.94537,0.52511
6523.01663,0.52351
6521.08788,0.52254
6519.15914,0.52272
6517.23039,0.52440
6515.30165,0.52609
6513.37290,0.52590
6511.44416,0.52531
6509.51541,0.52587
6507.58667,0.52692
6505.65792,0.52756
6503.72918,0.52763
6501.80043,0.52802
6499.87169,0.52890
6497.94294,0.52923
6496.01419,0.52844
6494.08545,0.52759
6492.15670,0.52776
6490.22796,0.52840
6488.29921,0.52849
6486.37047,0.52717
6484.44172,0.52515
6482.51298,0.52471
6480.58423,0.52629
6478.65549,0.52760
6476.72674,0.52701
6474.79800,0.52618
6472.86925,0.52676
6470.94051,0.52775
6469.01176,0.52689
6467.08302,0.52401
6465.15427,0.52294
6463.22552,0.52525
6461.29678,0.52765
6459.36803,0.52779
6457.43929,0.52638
6455.51054,0.52538
6453.58180,0.52524
6451.65305,0.52576
6449.72431,0.52748
6447.79556,0.52912
6445.86682,0.52924
6443.93807,0.52879
6442.00933,0.52810
6440.08058,0.52682
6438.15184,0.52662
6436.22309,0.52815
6434.29434,0.52965
6432.36560,0.53061
6430.43685,0.53110
6428.50811,0.53053
6426.57936,0.52948
6424.65062,0.52900
6422.72187,0.52999
6420.79313,0.53213
6418.86438,0.53294
6416.93564,0.53182
6415.00689,0.53091
6413.07815,0.53136
6411.14940,0.53282
6409.22066,0.53372
6407.29191,0.53290
6405.36317,0.53210
6403.43442,0.53357
6401.50567,0.53550
6399.57693,0.53505
6397.64818,0.53369
6395.71944,0.53300
6393.79069,0.53264
6391.86195,0.53364
6389.93320,0.53611
6388.00446,0.53801
6386.07571,0.53772
6384.14697,0.53645
6382.21822,0.53617
6380.28948,0.53616
6378.36073,0.53605
6376.43199,0.53723
6374.50324,0.53923
6372.57450,0.53956
6370.64575,0.53811
6368.71700,0.53752
6366.78826,0.53852
6364.85951,0.53980
6362.93077,0.54075
6361.00202,0.54100
6359.07328,0.54056
6357.14453,0.54061
6355.21579,0.54199
6353.28704,0.54303
6351.35830,0.54170
6349.42955,0.53940
6347.50081,0.53843
6345.57206,0.53807
6343.64332,0.53665
6341.71457,0.53584
6339.78582,0.53839
6337.85708,0.54186
6335.92833,0.54195
6333.99959,0.54026
6332.07084,0.54087
6330.14210,0.54336
6328.21335,0.54456
6326.28461,0.54331
6324.35586,0.54136
6322.42712,0.54135
6320.49837,0.54331
6318.56963,0.54460
6316.64088,0.54454
6314.71214,0.54423
6312.78339,0.54354
6310.85465,0.54246
6308.92590,0.54214
6306.99715,0.54351
6305.06841,0.54568
6303.13966,0.54698
6301.21092,0.54689
6299.28217,0.54548
6297.35343,0.54434
6295.42468,0.54548
6293.49594,0.54833
6291.56719,0.55060
6289.63845,0.55100
6287.70970,0.55038
6285.78096,0.54989
6283.85221,0.55036
6281.92347,0.55220
6279.99472,0.55398
6278.06598,0.55440
6276.13723,0.55321
6274.20848,0.55141
6272.27974,0.55098
6270.35099,0.55204
6268.42225,0.55292
6266.49350,0.55196
6264.56476,0.55024
6262.63601,0.55067
6260.70727,0.55284
6258.77852,0.55469
6256.84978,0.55621
6254.92103,0.55783
6252.99229,0.55869
6251.06354,0.55873
6249.13480,0.55871
6247.20605,0.55834
6245.27730,0.55804
6243.34856,0.55799
6241.41981,0.55729
6239.49107,0.55722
6237.56232,0.55884
6235.63358,0.56035
6233.70483,0.56055
6231.77609,0.56044
6229.84734,0.56192
6227.91860,0.56496
6225.98985,0.56674
6224.06111,0.56617
6222.13236,0.56538
6220.20362,0.56501
6218.27487,0.56439
6216.34613,0.56452
6214.41738,0.56561
6212.48863,0.56603
6210.55989,0.56557
6208.63114,0.56469
6206.70240,0.56320
6204.77365,0.56242
6202.84491,0.56373
6200.91616,0.56550
6198.98742,0.56548
6197.05867,0.56400
6195.12993,0.56243
6193.20118,0.56139
6191.27244,0.56134
6189.34369,0.56128
6187.41495,0.55901
6185.48620,0.55575
6183.55746,0.55476
6181.62871,0.55527
6179.69996,0.55476
6177.77122,0.55357
6175.84247,0.55266
6173.91373,0.55197
6171.98498,0.55142
6170.05624,0.55132
6168.12749,0.55188
6166.19875,0.55144
6164.27000,0.54874
6162.34126,0.54636
6160.41251,0.54661
6158.48377,0.54813
6156.55502,0.54927
6154.62628,0.55047
6152.69753,0.55226
6150.76878,0.55368
6148.84004,0.55447
6146.91129,0.55586
6144.98255,0.55741
6143.05380,0.55830
6141.12506,0.55924
6139.19631,0.55987
6137.26757,0.55917
6135.33882,0.55786
6133.41008,0.55813
6131.48133,0.56023
6129.55259,0.56106
6127.62384,0.55977
6125.69510,0.55914
6123.76635,0.56058
6121.83761,0.56285
6119.90886,0.56401
6117.98011,0.56363
6116.05137,0.56251
6114.12262,0.56150
6112.19388,0.56092
6110.26513,0.56014
6108.33639,0.55878
6106.40764,0.55769
6104.47890,0.55697
6102.55015,0.55628
6100.62141,0.55554
6098.69266,0.55438
6096.76392,0.55414
6094.83517,0.55547
6092.90643,0.55573
6090.97768,0.55376
6089.04893,0.55079
6087.12019,0.54848
6085.19144,0.54739
6083.26270,0.54583
6081.33395,0.54324
6079.40521,0.54113
6077.47646,0.54042
6075.54772,0.54024
6073.61897,0.53857
6071.69023,0.53558
6069.76148,0.53309
6067.83274,0.53131
6065.90399,0.52888
6063.97525,0.52521
6062.04650,0.52179
6060.11776,0.51965
6058.18901,0.51768
6056.26026,0.51526
6054.33152,0.51281
6052.40277,0.51041
6050.47403,0.50820
6048.54528,0.50579
6046.61654,0.50254
6044.68779,0.49917
6042.75905,0.49603
6040.83030,0.49227
6038.90156,0.48800
6036.97281,0.48385
6035.04407,0.48011
6033.11532,0.47672
6031.18658,0.47258
6029.25783,0.46744
6027.32909,0.46224
6025.40034,0.45761
6023.47159,0.45464
6021.54285,0.45276
6019.61410,0.45006
6017.68536,0.44705
6015.75661,0.44465
6013.82787,0.44194
6011.89912,0.43841
6009.97038,0.43476
6008.04163,0.43141
6006.11289,0.42820
6004.18414,0.42548
6002.25540,0.42351
6000.32665,0.42112
5998.39791,0.41749
5996.46916,0.41411
5994.54041,0.41221
5992.61167,0.41086
5990.68292,0.40898
5988.75418,0.40662
5986.82543,0.40484
5984.89669,0.40449
5982.96794,0.40453
5981.03920,0.40359
5979.11045,0.40224
5977.18171,0.40079
5975.25296,0.39885
5973.32422,0.39804
5971.39547,0.39917
5969.46673,0.39985
5967.53798,0.39939
5965.60924,0.39969
5963.68049,0.40008
5961.75174,0.39911
5959.82300,0.39801
5957.89425,0.39742
5955.96551,0.39672
5954.03676,0.39627
5952.10802,0.39654
5950.17927,0.39711
5948.25053,0.39725
5946.32178,0.39653
5944.39304,0.39477
5942.46429,0.39282
5940.53555,0.39186
5938.60680,0.39177
5936.67806,0.39226
5934.74931,0.39326
5932.82057,0.39396
5930.89182,0.39374
5928.96307,0.39325
5927.03433,0.39331
5925.10558,0.39373
5923.17684,0.39378
5921.24809,0.39303
5919.31935,0.39129
5917.39060,0.38912
5915.46186,0.38817
5913.53311,0.38854
5911.60437,0.38878
5909.67562,0.38905
5907.74688,0.38957
5905.81813,0.38918
5903.88939,0.38827
5901.96064,0.38806
5900.03189,0.38761
5898.10315,0.38659
5896.17440,0.38654
5894.24566,0.38729
5892.31691,0.38724
5890.38817,0.38649
5888.45942,0.38631
5886.53068,0.38673
5884.60193,0.38675
5882.67319,0.38550
5880.74444,0.38320
5878.81570,0.38192
5876.88695,0.38323
5874.95821,0.38559
5873.02946,0.38662
5871.10072,0.38615
5869.17197,0.38523
5867.24322,0.38431
5865.31448,0.38352
5863.38573,0.38310
5861.45699,0.38306
5859.52824,0.38347
5857.59950,0.38403
5855.67075,0.38442
5853.74201,0.38508
5851.81326,0.38532
5849.88452,0.38388
5847.95577,0.38227
5846.02703,0.38190
5844.09828,0.38172
5842.16954,0.38112
5840.24079,0.38034
5838.31205,0.37956
5836.38330,0.37890
5834.45455,0.37771
5832.52581,0.37537
5830.59706,0.37348
5828.66832,0.37362
5826.73957,0.37419
5824.81083,0.37311
5822.88208,0.37086
5820.95334,0.36926
5819.02459,0.36923
5817.09585,0.36953
5815.16710,0.36848
5813.23836,0.36683
5811.30961,0.36588
5809.38087,0.36562
5807.45212,0.36565
5805.52337,0.36566
5803.59463,0.36557
5801.66588,0.36531
5799.73714,0.36478
5797.80839,0.36409
5795.87965,0.36367
5793.95090,0.36450
5792.02216,0.36640
5790.09341,0.36768
5788.16467,0.36786
5786.23592,0.36819
5784.30718,0.36945
5782.37843,0.37091
5780.44969,0.37170
5778.52094,0.37259
5776.59220,0.37412
5774.66345,0.37500
5772.73470,0.37529
5770.80596,0.37662
5768.87721,0.37866
5766.94847,0.38039
5765.01972,0.38201
5763.09098,0.38346
5761.16223,0.38461
5759.23349,0.38585
5757.30474,0.38723
5755.37600,0.38935
5753.44725,0.39199
5751.51851,0.39321
5749.58976,0.39321
5747.66102,0.39364
5745.73227,0.39458
5743.80352,0.39579
5741.87478,0.39674
5739.94603,0.39708
5738.01729,0.39792
5736.08854,0.39964
5734.15980,0.40115
5732.23105,0.40185
5730.30231,0.40206
5728.37356,0.40256
5726.44482,0.40391
5724.51607,0.40562
5722.58733,0.40698
5720.65858,0.40814
5718.72984,0.40953
5716.80109,0.41120
5714.87235,0.41313
5712.94360,0.41492
5711.01485,0.41570
5709.08611,0.41549
5707.15736,0.41512
5705.22862,0.41557
5703.29987,0.41736
5701.37113,0.41906
5699.44238,0.41942
5697.51364,0.41996
5695.58489,0.42164
5693.65615,0.42253
5691.72740,0.42157
5689.79866,0.42065
5687.86991,0.42134
5685.94117,0.42245
5684.01242,0.42257
5682.08368,0.42217
5680.15493,0.42233
5678.22618,0.42323
5676.29744,0.42441
5674.36869,0.42565
5672.43995,0.42670
5670.51120,0.42709
5668.58246,0.42696
5666.65371,0.42687
5664.72497,0.42725
5662.79622,0.42768
5660.86748,0.42773
5658.93873,0.42820
5657.00999,0.42927
5655.08124,0.43009
5653.15250,0.43038
5651.22375,0.43053
5649.29500,0.43147
5647.36626,0.43309
5645.43751,0.43425
5643.50877,0.43499
5641.58002,0.43581
5639.65128,0.43671
5637.72253,0.43799
5635.79379,0.43942
5633.86504,0.44007
5631.93630,0.43990
5630.00755,0.43968
5628.07881,0.43983
5626.15006,0.44045
5624.22132,0.44126
5622.29257,0.44165
5620.36383,0.44195
5618.43508,0.44261
5616.50633,0.44285
5614.57759,0.44269
5612.64884,0.44270
5610.72010,0.44245
5608.79135,0.44182
5606.86261,0.44155
5604.93386,0.44228
5603.00512,0.44396
5601.07637,0.44570
5599.14763,0.44644
5597.21888,0.44620
5595.29014,0.44657
5593.36139,0.44789
5591.43265,0.44855
5589.50390,0.44856
5587.57516,0.44882
5585.64641,0.44891
5583.71766,0.44915
5581.78892,0.44982
5579.86017,0.44939
5577.93143,0.44786
5576.00268,0.44738
5574.07394,0.44847
5572.14519,0.44956
5570.21645,0.45030
5568.28770,0.45110
5566.35896,0.45118
5564.43021,0.45064
5562.50147,0.45092
5560.57272,0.45224
5558.64398,0.45346
5556.71523,0.45388
5554.78648,0.45402
5552.85774,0.45441
5550.92899,0.45458
5549.00025,0.45446
5547.07150,0.45509
5545.14276,0.45646
5543.21401,0.45700
5541.28527,0.45657
5539.35652,0.45659
5537.42778,0.45727
5535.49903,0.45788
5533.57029,0.45832
5531.64154,0.45893
5529.71280,0.45947
5527.78405,0.45935
5525.85531,0.45917
5523.92656,0.45976
5521.99781,0.46035
5520.06907,0.46073
5518.14032,0.46177
5516.21158,0.46323
5514.28283,0.46408
5512.35409,0.46405
5510.42534,0.46409
5508.49660,0.46513
5506.56785,0.46658
5504.63911,0.46725
5502.71036,0.46730
5500.78162,0.46733
5498.85287,0.46703
5496.92413,0.46663
5494.99538,0.46707
5493.06664,0.46796
5491.13789,0.46853
5489.20914,0.46925
5487.28040,0.47006
5485.35165,0.47045
5483.42291,0.47064
5481.49416,0.47087
5479.56542,0.47113
5477.63667,0.47151
5475.70793,0.47235
5473.77918,0.47376
5471.85044,0.47490
5469.92169,0.47506
5467.99295,0.47449
5466.06420,0.47408
5464.13546,0.47453
5462.20671,0.47583
5460.27796,0.47762
5458.34922,0.47929
5456.42047,0.48008
5454.49173,0.47971
5452.56298,0.47953
5450.63424,0.48016
5448.70549,0.48028
5446.77675,0.48020
5444.84800,0.48121
5442.91926,0.48242
5440.99051,0.48308
5439.06177,0.48395
5437.13302,0.48492
5435.20428,0.48548
5433.27553,0.48613
5431.34679,0.48724
5429.41804,0.48829
5427.48929,0.48903
5425.56055,0.48985
5423.63180,0.49078
5421.70306,0.49154
5419.77431,0.49162
5417.84557,0.49094
5415.91682,0.49065
5413.98808,0.49161
5412.05933,0.49291
5410.13059,0.49325
5408.20184,0.49306
5406.27310,0.49365
5404.34435,0.49480
5402.41561,0.49558
5400.48686,0.49601
5398.55811,0.49638
5396.62937,0.49641
5394.70062,0.49606
5392.77188,0.49595
5390.84313,0.49627
5388.91439,0.49620
5386.98564,0.49550
5385.05690,0.49529
5383.12815,0.49580
5381.19941,0.49588
5379.27066,0.49532
5377.34192,0.49460
5375.41317,0.49417
5373.48443,0.49439
5371.55568,0.49479
5369.62694,0.49435
5367.69819,0.49310
5365.76944,0.49240
5363.84070,0.49263
5361.91195,0.49280
5359.98321,0.49242
5358.05446,0.49163
5356.12572,0.49063
5354.19697,0.48974
5352.26823,0.48952
5350.33948,0.48973
5348.41074,0.48931
5346.48199,0.48819
5344.55325,0.48744
5342.62450,0.48708
5340.69576,0.48621
5338.76701,0.48486
5336.83827,0.48347
5334.90952,0.48225
5332.98077,0.48104
5331.05203,0.47929
5329.12328,0.47711
5327.19454,0.47521
5325.26579,0.47345
5323.33705,0.47134
5321.40830,0.46943
5319.47956,0.46765
5317.55081,0.46507
5315.62207,0.46189
5313.69332,0.45899
5311.76458,0.45649
5309.83583,0.45404
5307.90709,0.45125
5305.97834,0.44794
5304.04959,0.44454
5302.12085,0.44131
5300.19210,0.43760
5298.26336,0.43305
5296.33461,0.42812
5294.40587,0.42337
5292.47712,0.41860
5290.54838,0.41296
5288.61963,0.40682
5286.69089,0.40099
5284.76214,0.39554
5282.83340,0.39036
5280.90465,0.38472
5278.97591,0.37830
5277.04716,0.37201
5275.11842,0.36610
5273.18967,0.36000
5271.26092,0.35352
5269.33218,0.34702
5267.40343,0.34109
5265.47469,0.33588
5263.54594,0.33100
5261.61720,0.32582
5259.68845,0.32055
5257.75971,0.31622
5255.83096,0.31236
5253.90222,0.30778
5251.97347,0.30289
5250.04473,0.29876
5248.11598,0.29573
5246.18724,0.29308
5244.25849,0.29005
5242.32975,0.28704
5240.40100,0.28468
5238.47225,0.28291
5236.54351,0.28091
5234.61476,0.27839
5232.68602,0.27612
5230.75727,0.27451
5228.82853,0.27310
5226.89978,0.27164
5224.97104,0.27049
5223.04229,0.27031
5221.11355,0.27081
5219.18480,0.27089
5217.25606,0.26997
5215.32731,0.26827
5213.39857,0.26692
5211.46982,0.26706
5209.54107,0.26800
5207.61233,0.26814
5205.68358,0.26766
5203.75484,0.26748
5201.82609,0.26741
5199.89735,0.26743
5197.96860,0.26801
5196.03986,0.26889
5194.11111,0.26964
5192.18237,0.27033
5190.25362,0.27119
5188.32488,0.27226
5186.39613,0.27333
5184.46739,0.27419
5182.53864,0.27497
5180.60990,0.27554
5178.68115,0.27579
5176.75240,0.27674
5174.82366,0.27900
5172.89491,0.28087
5170.96617,0.28116
5169.03742,0.28127
5167.10868,0.28248
5165.17993,0.28419
5163.25119,0.28562
5161.32244,0.28680
5159.39370,0.28776
5157.46495,0.28847
5155.53621,0.28932
5153.60746,0.29043
5151.67872,0.29156
5149.74997,0.29298
5147.82123,0.29468
5145.89248,0.29610
5143.96373,0.29734
5142.03499,0.29887
5140.10624,0.30041
5138.17750,0.30143
5136.24875,0.30232
5134.32001,0.30362
5132.39126,0.30529
5130.46252,0.30713
5128.53377,0.30903
5126.60503,0.31080
5124.67628,0.31211
5122.74754,0.31330
5120.81879,0.31461
5118.89005,0.31571
5116.96130,0.31693
5115.03255,0.31855
5113.10381,0.31976
5111.17506,0.32062
5109.24632,0.32248
5107.31757,0.32530
5105.38883,0.32765
5103.46008,0.32900
5101.53134,0.33024
5099.60259,0.33190
5097.67385,0.33355
5095.74510,0.33513
5093.81636,0.33662
5091.88761,0.33780
5089.95887,0.33897
5088.03012,0.34036
5086.10138,0.34199
5084.17263,0.34379
5082.24388,0.34532
5080.31514,0.34664
5078.38639,0.34811
5076.45765,0.34984
5074.52890,0.35150
5072.60016,0.35255
5070.67141,0.35325
5068.74267,0.35429
5066.81392,0.35563
5064.88518,0.35707
5062.95643,0.35843
5061.02769,0.35945
5059.09894,0.36048
5057.17020,0.36182
5055.24145,0.36301
5053.31270,0.36364
5051.38396,0.36405
5049.45521,0.36495
5047.52647,0.36653
5045.59772,0.36803
5043.66898,0.36866
5041.74023,0.36888
5039.81149,0.36976
5037.88274,0.37135
5035.95400,0.37291
5034.02525,0.37417
5032.09651,0.37510
5030.16776,0.37576
5028.23902,0.37612
5026.31027,0.37629
5024.38153,0.37681
5022.45278,0.37763
5020.52403,0.37844
5018.59529,0.37935
5016.66654,0.37997
5014.73780,0.37992
5012.80905,0.37988
5010.88031,0.38034
5008.95156,0.38098
5007.02282,0.38125
5005.09407,0.38116
5003.16533,0.38126
5001.23658,0.38172
4999.30784,0.38194
4997.37909,0.38153
4995.45035,0.38058
4993.52160,0.37969
4991.59286,0.37966
4989.66411,0.38012
4987.73536,0.37978
4985.80662,0.37858
4983.87787,0.37757
4981.94913,0.37718
4980.02038,0.37677
4978.09164,0.37574
4976.16289,0.37448
4974.23415,0.37402
4972.30540,0.37397
4970.37666,0.37294
4968.44791,0.37118
4966.51917,0.36980
4964.59042,0.36870
4962.66168,0.36747
4960.73293,0.36610
4958.80418,0.36457
4956.87544,0.36301
4954.94669,0.36160
4953.01795,0.36007
4951.08920,0.35809
4949.16046,0.35602
4947.23171,0.35401
4945.30297,0.35178
4943.37422,0.34981
4941.44548,0.34847
4939.51673,0.34724
4937.58799,0.34570
4935.65924,0.34377
4933.73050,0.34149
4931.80175,0.33884
4929.87301,0.33621
4927.94426,0.33445
4926.01551,0.33338
4924.08677,0.33208
4922.15802,0.33045
4920.22928,0.32866
4918.30053,0.32660
4916.37179,0.32448
4914.44304,0.32283
4912.51430,0.32160
4910.58555,0.32023
4908.65681,0.31861
4906.72806,0.31682
4904.79932,0.31504
4902.87057,0.31364
4900.94183,0.31221
4899.01308,0.31041
4897.08434,0.30892
4895.15559,0.30793
4893.22684,0.30678
4891.29810,0.30516
4889.36935,0.30347
4887.44061,0.30224
4885.51186,0.30136
4883.58312,0.30012
4881.65437,0.29821
4879.72563,0.29631
4877.79688,0.29519
4875.86814,0.29464
4873.93939,0.29406
4872.01065,0.29307
4870.08190,0.29189
4868.15316,0.29101
4866.22441,0.29004
4864.29566,0.28880
4862.36692,0.28797
4860.43817,0.28743
4858.50943,0.28636
4856.58068,0.28511
4854.65194,0.28431
4852.72319,0.28329
4850.79445,0.28192
4848.86570,0.28085
4846.93696,0.28002
4845.00821,0.27929
4843.07947,0.27865
4841.15072,0.27756
4839.22198,0.27620
4837.29323,0.27548
4835.36449,0.27508
4833.43574,0.27398
4831.50699,0.27244
4829.57825,0.27113
4827.64950,0.26983
4825.72076,0.26851
4823.79201,0.26774
4821.86327,0.26754
4819.93452,0.26746
4818.00578,0.26738
4816.07703,0.26685
4814.14829,0.26560
4812.21954,0.26434
4810.29080,0.26364
4808.36205,0.26316
4806.43331,0.26242
4804.50456,0.26171
4802.57582,0.26168
4800.64707,0.26188
4798.71832,0.26146
4796.78958,0.26072
4794.86083,0.26026
4792.93209,0.26008
4791.00334,0.25972
4789.07460,0.25880
4787.14585,0.25789
4785.21711,0.25782
4783.28836,0.25806
4781.35962,0.25776
4779.43087,0.25735
4777.50213,0.25743
4775.57338,0.25744
4773.64464,0.25697
4771.71589,0.25614
4769.78714,0.25522
4767.85840,0.25467
4765.92965,0.25453
4764.00091,0.25433
4762.07216,0.25362
4760.14342,0.25261
4758.21467,0.25173
4756.28593,0.25073
4754.35718,0.24969
4752.42844,0.24914
4750.49969,0.24850
4748.57095,0.24717
4746.64220,0.24569
4744.71346,0.24430
4742.78471,0.24306
4740.85597,0.24240
4738.92722,0.24205
4736.99847,0.24151
4735.06973,0.24092
4733.14098,0.24053
4731.21224,0.24030
4729.28349,0.24010
4727.35475,0.23991
4725.42600,0.23976
4723.49726,0.23964
4721.56851,0.23946
4719.63977,0.23914
4717.71102,0.23877
4715.78228,0.23857
4713.85353,0.23830
4711.92479,0.23751
4709.99604,0.23638
4708.06729,0.23527
4706.13855,0.23451
4704.20980,0.23402
4702.28106,0.23324
4700.35231,0.23203
4698.42357,0.23081
4696.49482,0.22975
4694.56608,0.22869
4692.63733,0.22736
4690.70859,0.22557
4688.77984,0.22372
4686.85110,0.22221
4684.92235,0.22080
4682.99361,0.21985
4681.06486,0.21974
4679.13612,0.21959
4677.20737,0.21897
4675.27862,0.21881
4673.34988,0.21934
4671.42113,0.21996
4669.49239,0.22085
4667.56364,0.22234
4665.63490,0.22393
4663.70615,0.22536
4661.77741,0.22719
4659.84866,0.22936
4657.91992,0.23126
4655.99117,0.23309
4654.06243,0.23515
4652.13368,0.23708
4650.20494,0.23841
4648.27619,0.23921
4646.34745,0.23992
4644.41870,0.24052
4642.48995,0.24078
4640.56121,0.24070
4638.63246,0.24031
4636.70372,0.23977
4634.77497,0.23902
4632.84623,0.23808
4630.91748,0.23701
4628.98874,0.23602
4627.05999,0.23551
4625.13125,0.23552
4623.20250,0.23599
4621.27376,0.23710
4619.34501,0.23883
4617.41627,0.24098
4615.48752,0.24327
4613.55877,0.24572
4611.63003,0.24870
4609.70128,0.25183
4607.77254,0.25440
4605.84379,0.25664
4603.91505,0.25914
4601.98630,0.26211
4600.05756,0.26507
4598.12881,0.26721
4596.20007,0.26871
4594.27132,0.27012
4592.34258,0.27140
4590.41383,0.27262
4588.48509,0.27376
4586.55634,0.27442
4584.62760,0.27451
4582.69885,0.27445
4580.77010,0.27448
4578.84136,0.27436
4576.91261,0.27409
4574.98387,0.27391
4573.05512,0.27364
4571.12638,0.27350
4569.19763,0.27385
4567.26889,0.27453
4565.34014,0.27554
4563.41140,0.27669
4561.48265,0.27717
4559.55391,0.27719
4557.62516,0.27795
4555.69642,0.27937
4553.76767,0.28052
4551.83893,0.28143
4549.91018,0.28250
4547.98143,0.28344
4546.05269,0.28400
4544.12394,0.28428
4542.19520,0.28420
4540.26645,0.28378
4538.33771,0.28330
4536.40896,0.28291
4534.48022,0.28267
4532.55147,0.28234
4530.62273,0.28149
4528.69398,0.28022
4526.76524,0.27912
4524.83649,0.27850
4522.90775,0.27820
4520.97900,0.27780
4519.05025,0.27697
4517.12151,0.27561
4515.19276,0.27385
4513.26402,0.27202
4511.33527,0.27026
4509.40653,0.26837
4507.47778,0.26638
4505.54904,0.26440
4503.62029,0.26206
4501.69155,0.25938
4499.76280,0.25704
4497.83406,0.25526
4495.90531,0.25349
4493.97657,0.25117
4492.04782,0.24844
4490.11908,0.24571
4488.19033,0.24298
4486.26158,0.24039
4484.33284,0.23797
4482.40409,0.23541
4480.47535,0.23239
4478.54660,0.22876
4476.61786,0.22489
4474.68911,0.22121
4472.76037,0.21749
4470.83162,0.21319
4468.90288,0.20837
4466.97413,0.20341
4465.04539,0.19825
4463.11664,0.19290
4461.18790,0.18760
4459.25915,0.18226
4457.33041,0.17674
4455.40166,0.17100
4453.47291,0.16536
4451.54417,0.16023
4449.61542,0.15537
4447.68668,0.15034
4445.75793,0.14524
4443.82919,0.14038
4441.90044,0.13594
4439.97170,0.13187
4438.04295,0.12790
4436.11421,0.12426
4434.18546,0.12140
4432.25672,0.11899
4430.32797,0.11675
4428.39923,0.11487
4426.47048,0.11342
4424.54173,0.11223
4422.61299,0.11089
4420.68424,0.10930
4418.75550,0.10823
4416.82675,0.10796
4414.89801,0.10770
4412.96926,0.10722
4411.04052,0.10703
4409.11177,0.10716
4407.18303,0.10745
4405.25428,0.10782
4403.32554,0.10825
4401.39679,0.10895
4399.46805,0.10956
4397.53930,0.10952
4395.61056,0.10921
4393.68181,0.10920
4391.75306,0.10938
4389.82432,0.10936
4387.89557,0.10890
4385.96683,0.10830
4384.03808,0.10815
4382.10934,0.10811
4380.18059,0.10729
4378.25185,0.10578
4376.32310,0.10439
4374.39436,0.10339
4372.46561,0.10264
4370.53687,0.10215
4368.60812,0.10188
4366.67938,0.10149
4364.75063,0.10081
4362.82189,0.10010
4360.89314,0.09954
4358.96439,0.09921
4357.03565,0.09907
4355.10690,0.09897
4353.17816,0.09897
4351.24941,0.09901
4349.32067,0.09911
4347.39192,0.09952
4345.46318,0.10014
4343.53443,0.10060
4341.60569,0.10075
4339.67694,0.10074
4337.74820,0.10074
4335.81945,0.10082
4333.89071,0.10109
4331.96196,0.10146
4330.03321,0.10173
4328.10447,0.10199
4326.17572,0.10225
4324.24698,0.10237
4322.31823,0.10258
4320.38949,0.10309
4318.46074,0.10378
4316.53200,0.10469
4314.60325,0.10570
4312.67451,0.10631
4310.74576,0.10651
4308.81702,0.10690
4306.88827,0.10773
4304.95953,0.10841
4303.03078,0.10846
4301.10204,0.10826
4299.17329,0.10825
4297.24454,0.10842
4295.31580,0.10860
4293.38705,0.10863
4291.45831,0.10872
4289.52956,0.10912
4287.60082,0.10950
4285.67207,0.10953
4283.74333,0.10959
4281.81458,0.10979
4279.88584,0.10972
4277.95709,0.10932
4276.02835,0.10916
4274.09960,0.10945
4272.17086,0.10966
4270.24211,0.10988
4268.31336,0.11048
4266.38462,0.11120
4264.45587,0.11154
4262.52713,0.11152
4260.59838,0.11173
4258.66964,0.11223
4256.74089,0.11254
4254.81215,0.11262
4252.88340,0.11279
4250.95466,0.11313
4249.02591,0.11357
4247.09717,0.11393
4245.16842,0.11429
4243.23968,0.11483
4241.31093,0.11519
4239.38219,0.11502
4237.45344,0.11476
4235.52469,0.11491
4233.59595,0.11537
4231.66720,0.11595
4229.73846,0.11657
4227.80971,0.11718
4225.88097,0.11764
4223.95222,0.11777
4222.02348,0.11777
4220.09473,0.11806
4218.16599,0.11862
4216.23724,0.11909
4214.30850,0.11941
4212.37975,0.11980
4210.45101,0.12030
4208.52226,0.12074
4206.59352,0.12099
4204.66477,0.12106
4202.73602,0.12118
4200.80728,0.12154
4198.87853,0.12186
4196.94979,0.12205
4195.02104,0.12229
4193.09230,0.12248
4191.16355,0.12246
4189.23481,0.12228
4187.30606,0.12210
4185.37732,0.12210
4183.44857,0.12207
4181.51983,0.12180
4179.59108,0.12153
4177.66234,0.12138
4175.73359,0.12131
4173.80484,0.12117
4171.87610,0.12083
4169.94735,0.12055
4168.01861,0.12061
4166.08986,0.12080
4164.16112,0.12071
4162.23237,0.12056
4160.30363,0.12081
4158.37488,0.12121
4156.44614,0.12115
4154.51739,0.12071
4152.58865,0.12032
4150.65990,0.12009
4148.73116,0.12006
4146.80241,0.12013
4144.87367,0.11993
4142.94492,0.11947
4141.01617,0.11913
4139.08743,0.11892
4137.15868,0.11864
4135.22994,0.11831
4133.30119,0.11827
4131.37245,0.11879
4129.44370,0.11926
4127.51496,0.11902
4125.58621,0.11852
4123.65747,0.11827
4121.72872,0.11804
4119.79998,0.11774
4117.87123,0.11750
4115.94249,0.11706
4114.01374,0.11638
4112.08500,0.11577
4110.15625,0.11513
4108.22750,0.11437
4106.29876,0.11363
4104.37001,0.11288
4102.44127,0.11213
4100.51252,0.11143
4098.58378,0.11073
4096.65503,0.11006
4094.72629,0.10924
4092.79754,0.10806
4090.86880,0.10668
4088.94005,0.10537
4087.01131,0.10420
4085.08256,0.10310
4083.15382,0.10196
4081.22507,0.10096
4079.29632,0.09999
4077.36758,0.09861
4075.43883,0.09713
4073.51009,0.09613
4071.58134,0.09543
4069.65260,0.09464
4067.72385,0.09375
4065.79511,0.09300
4063.86636,0.09260
4061.93762,0.09233
4060.00887,0.09195
4058.08013,0.09181
4056.15138,0.09200
4054.22264,0.09224
4052.29389,0.09251
4050.36515,0.09297
4048.43640,0.09335
4046.50765,0.09348
4044.57891,0.09371
4042.65016,0.09409
4040.72142,0.09428
4038.79267,0.09421
4036.86393,0.09433
4034.93518,0.09471
4033.00644,0.09477
4031.07769,0.09427
4029.14895,0.09373
4027.22020,0.09341
4025.29146,0.09330
4023.36271,0.09355
4021.43397,0.09411
4019.50522,0.09461
4017.57648,0.09499
4015.64773,0.09527
4013.71898,0.09522
4011.79024,0.09498
4009.86149,0.09499
4007.93275,0.09519
4006.00400,0.09542
4004.07526,0.09584
4002.14651,0.09634
4000.21777,0.09673
3998.28902,0.09700
3996.36028,0.09726
3994.43153,0.09762
3992.50279,0.09814
3990.57404,0.09868
3988.64530,0.09881
3986.71655,0.09857
3984.78780,0.09860
3982.85906,0.09926
3980.93031,0.10019
3979.00157,0.10085
3977.07282,0.10124
3975.14408,0.10180
3973.21533,0.10262
3971.28659,0.10340
3969.35784,0.10425
3967.42910,0.10541
3965.50035,0.10644
3963.57161,0.10696
3961.64286,0.10745
3959.71412,0.10829
3957.78537,0.10929
3955.85663,0.11023
3953.92788,0.11095
3951.99913,0.11147
3950.07039,0.11204
3948.14164,0.11268
3946.21290,0.11329
3944.28415,0.11388
3942.35541,0.11444
3940.42666,0.11507
3938.49792,0.11577
3936.56917,0.11636
3934.64043,0.11673
3932.71168,0.11691
3930.78294,0.11706
3928.85419,0.11754
3926.92545,0.11825
3924.99670,0.11884
3923.06795,0.11948
3921.13921,0.12026
3919.21046,0.12105
3917.28172,0.12187
3915.35297,0.12262
3913.42423,0.12320
3911.49548,0.12372
3909.56674,0.12419
3907.63799,0.12470
3905.70925,0.12550
3903.78050,0.12659
3901.85176,0.12746
3899.92301,0.12797
3897.99427,0.12830
3896.06552,0.12849
3894.13678,0.12878
3892.20803,0.12918
3890.27928,0.12945
3888.35054,0.12967
3886.42179,0.12996
3884.49305,0.13030
3882.56430,0.13054
3880.63556,0.13055
3878.70681,0.13084
3876.77807,0.13168
3874.84932,0.13262
3872.92058,0.13338
3870.99183,0.13407
3869.06309,0.13470
3867.13434,0.13524
3865.20560,0.13598
3863.27685,0.13704
3861.34811,0.13816
3859.41936,0.13913
3857.49061,0.13987
3855.56187,0.14053
3853.63312,0.14142
3851.70438,0.14241
3849.77563,0.14309
3847.84689,0.14346
3845.91814,0.14363
3843.98940,0.14378
3842.06065,0.14428
3840.13191,0.14516
3838.20316,0.14580
3836.27442,0.14600
3834.34567,0.14609
3832.41693,0.14612
3830.48818,0.14611
3828.55943,0.14631
3826.63069,0.14668
3824.70194,0.14697
3822.77320,0.14721
3820.84445,0.14743
3818.91571,0.14755
3816.98696,0.14764
3815.05822,0.14769
3813.12947,0.14751
3811.20073,0.14724
3809.27198,0.14735
3807.34324,0.14764
3805.41449,0.14751
3803.48575,0.14727
3801.55700,0.14760
3799.62826,0.14824
3797.69951,0.14842
3795.77076,0.14812
3793.84202,0.14775
3791.91327,0.14768
3789.98453,0.14774
3788.05578,0.14751
3786.12704,0.14705
3784.19829,0.14673
3782.26955,0.14649
3780.34080,0.14605
3778.41206,0.14542
3776.48331,0.14489
3774.55457,0.14473
3772.62582,0.14474
3770.69708,0.14448
3768.76833,0.14404
3766.83959,0.14360
3764.91084,0.14298
3762.98209,0.14221
3761.05335,0.14137
3759.12460,0.14071
3757.19586,0.14049
3755.26711,0.14064
3753.33837,0.14091
3751.40962,0.14082
3749.48088,0.14024
3747.55213,0.13977
3745.62339,0.13927
3743.69464,0.13847
3741.76590,0.13770
3739.83715,0.13720
3737.90841,0.13694
3735.97966,0.13648
3734.05091,0.13534
3732.12217,0.13388
3730.19342,0.13259
3728.26468,0.13145
3726.33593,0.13048
3724.40719,0.12954
3722.47844,0.12813
3720.54970,0.12637
3718.62095,0.12477
3716.69221,0.12336
3714.76346,0.12191
3712.83472,0.12011
3710.90597,0.11786
3708.97723,0.11560
3707.04848,0.11359
3705.11974,0.11133
3703.19099,0.10847
3701.26224,0.10523
3699.33350,0.10205
3697.40475,0.09912
3695.47601,0.09635
3693.54726,0.09351
3691.61852,0.09023
3689.68977,0.08626
3687.76103,0.08205
3685.83228,0.07861
3683.90354,0.07584
3681.97479,0.07288
3680.04605,0.06949
3678.11730,0.06638
3676.18856,0.06420
3674.25981,0.06317
3672.33107,0.06258
3670.40232,0.06147
3668.47357,0.05998
3666.54483,0.05881
3664.61608,0.05798
3662.68734,0.05724
3660.75859,0.05653
3658.82985,0.05598
3656.90110,0.05557
3654.97236,0.05523
3653.04361,0.05511
3651.11487,0.05507
3649.18612,0.05493
3647.25738,0.05477
3645.32863,0.05465
3643.39989,0.05462
3641.47114,0.05468
3639.54239,0.05472
3637.61365,0.05461
3635.68490,0.05438
3633.75616,0.05410
3631.82741,0.05382
3629.89867,0.05359
3627.96992,0.05340
3626.04118,0.05348
3624.11243,0.05382
3622.18369,0.05399
3620.25494,0.05383
3618.32620,0.05357
3616.39745,0.05333
3614.46871,0.05325
3612.53996,0.05340
3610.61122,0.05361
3608.68247,0.05382
3606.75372,0.05398
3604.82498,0.05387
3602.89623,0.05346
3600.96749,0.05307
3599.03874,0.05293
3597.11000,0.05287
3595.18125,0.05283
3593.25251,0.05294
3591.32376,0.05306
3589.39502,0.05302
3587.46627,0.05308
3585.53753,0.05333
3583.60878,0.05342
3581.68004,0.05324
3579.75129,0.05293
3577.82254,0.05255
3575.89380,0.05240
3573.96505,0.05278
3572.03631,0.05328
3570.10756,0.05334
3568.17882,0.05301
3566.25007,0.05270
3564.32133,0.05253
3562.39258,0.05230
3560.46384,0.05205
3558.53509,0.05205
3556.60635,0.05231
3554.67760,0.05259
3552.74886,0.05270
3550.82011,0.05257
3548.89137,0.05248
3546.96262,0.05252
3545.03387,0.05247
3543.10513,0.05243
3541.17638,0.05261
3539.24764,0.05282
3537.31889,0.05275
3535.39015,0.05248
3533.46140,0.05236
3531.53266,0.05247
3529.60391,0.05251
3527.67517,0.05252
3525.74642,0.05265
3523.81768,0.05274
3521.88893,0.05255
3519.96019,0.05206
3518.03144,0.05168
3516.10270,0.05165
3514.17395,0.05169
3512.24520,0.05163
3510.31646,0.05161
3508.38771,0.05162
3506.45897,0.05157
3504.53022,0.05170
3502.60148,0.05208
3500.67273,0.05233
3498.74399,0.05235
3496.81524,0.05237
3494.88650,0.05242
3492.95775,0.05246
3491.02901,0.05253
3489.10026,0.05257
3487.17152,0.05257
3485.24277,0.05246
3483.31402,0.05224
3481.38528,0.05217
3479.45653,0.05237
3477.52779,0.05252
3475.59904,0.05240
3473.67030,0.05237
3471.74155,0.05263
3469.81281,0.05284
3467.88406,0.05287
3465.95532,0.05281
3464.02657,0.05272
3462.09783,0.05267
3460.16908,0.05263
3458.24034,0.05249
3456.31159,0.05226
3454.38285,0.05205
3452.45410,0.05202
3450.52535,0.05234
3448.59661,0.05269
3446.66786,0.05283
3444.73912,0.05295
3442.81037,0.05317
3440.88163,0.05324
3438.95288,0.05292
3437.02414,0.05258
3435.09539,0.05249
3433.16665,0.05233
3431.23790,0.05223
3429.30916,0.05254
3427.38041,0.05288
3425.45167,0.05291
3423.52292,0.05271
3421.59418,0.05247
3419.66543,0.05239
3417.73668,0.05251
3415.80794,0.05276
3413.87919,0.05305
3411.95045,0.05310
3410.02170,0.05271
3408.09296,0.05241
3406.16421,0.05256
3404.23547,0.05286
3402.30672,0.05309
3400.37798,0.05323
3398.44923,0.05319
3396.52049,0.05302
3394.59174,0.05285
3392.66300,0.05264
3390.73425,0.05254
3388.80550,0.05274
3386.87676,0.05303
3384.94801,0.05325
3383.01927,0.05336
3381.09052,0.05326
3379.16178,0.05317
3377.23303,0.05313
3375.30429,0.05302
3373.37554,0.05287
3371.44680,0.05271
3369.51805,0.05262
3367.58931,0.05267
3365.66056,0.05286
3363.73182,0.05315
3361.80307,0.05334
3359.87433,0.05347
3357.94558,0.05352
3356.01683,0.05336
3354.08809,0.05328
3352.15934,0.05350
3350.23060,0.05373
3348.30185,0.05361
3346.37311,0.05334
3344.44436,0.05328
3342.51562,0.05323
3340.58687,0.05292
3338.65813,0.05275
3336.72938,0.05300
3334.80064,0.05322
3332.87189,0.05311
3330.94315,0.05303
3329.01440,0.05316
3327.08566,0.05327
3325.15691,0.05328
3323.22816,0.05329
3321.29942,0.05332
3319.37067,0.05323
3317.44193,0.05298
3315.51318,0.05282
3313.58444,0.05297
3311.65569,0.05339
3309.72695,0.05375
3307.79820,0.05370
3305.86946,0.05345
3303.94071,0.05338
3302.01197,0.05342
3300.08322,0.05348
3298.15448,0.05366
3296.22573,0.05393
3294.29698,0.05405
3292.36824,0.05390
3290.43949,0.05371
3288.51075,0.05367
3286.58200,0.05375
3284.65326,0.05379
3282.72451,0.05366
3280.79577,0.05355
3278.86702,0.05370
3276.93828,0.05397
3275.00953,0.05411
3273.08079,0.05415
3271.15204,0.05423
3269.22330,0.05427
3267.29455,0.05411
3265.36581,0.05394
3263.43706,0.05395
3261.50831,0.05401
3259.57957,0.05398
3257.65082,0.05390
3255.72208,0.05373
3253.79333,0.05343
3251.86459,0.05333
3249.93584,0.05355
3248.00710,0.05378
3246.07835,0.05378
3244.14961,0.05365
3242.22086,0.05365
3240.29212,0.05386
3238.36337,0.05399
3236.43463,0.05388
3234.50588,0.05393
3232.57713,0.05429
3230.64839,0.05456
3228.71964,0.05452
3226.79090,0.05433
3224.86215,0.05420
3222.93341,0.05405
3221.00466,0.05377
3219.07592,0.05342
3217.14717,0.05315
3215.21843,0.05324
3213.28968,0.05358
3211.36094,0.05374
3209.43219,0.05366
3207.50345,0.05354
3205.57470,0.05354
3203.64596,0.05369
3201.71721,0.05382
3199.78846,0.05386
3197.85972,0.05394
3195.93097,0.05410
3194.00223,0.05416
3192.07348,0.05395
3190.14474,0.05351
3188.21599,0.05331
3186.28725,0.05369
3184.35850,0.05415
3182.42976,0.05410
3180.50101,0.05381
3178.57227,0.05370
3176.64352,0.05375
3174.71478,0.05383
3172.78603,0.05380
3170.85729,0.05363
3168.92854,0.05352
3166.99979,0.05356
3165.07105,0.05357
3163.14230,0.05346
3161.21356,0.05349
3159.28481,0.05381
3157.35607,0.05400
3155.42732,0.05380
3153.49858,0.05351
3151.56983,0.05337
3149.64109,0.05336
3147.71234,0.05347
3145.78360,0.05362
3143.85485,0.05375
3141.92611,0.05377
3139.99736,0.05361
3138.06861,0.05345
3136.13987,0.05339
3134.21112,0.05338
3132.28238,0.05365
3130.35363,0.05420
3128.42489,0.05438
3126.49614,0.05404
3124.56740,0.05385
3122.63865,0.05399
3120.70991,0.05401
3118.78116,0.05383
3116.85242,0.05361
3114.92367,0.05344
3112.99493,0.05344
3111.06618,0.05364
3109.13744,0.05382
3107.20869,0.05372
3105.27994,0.05349
3103.35120,0.05328
3101.42245,0.05318
3099.49371,0.05324
3097.56496,0.05328
3095.63622,0.05327
3093.70747,0.05345
3091.77873,0.05370
3089.84998,0.05361
3087.92124,0.05335
3085.99249,0.05337
3084.06375,0.05353
3082.13500,0.05358
3080.20626,0.05357
3078.27751,0.05350
3076.34877,0.05341
3074.42002,0.05347
3072.49127,0.05352
3070.56253,0.05338
3068.63378,0.05325
3066.70504,0.05318
3064.77629,0.05309
3062.84755,0.05307
3060.91880,0.05322
3058.99006,0.05329
3057.06131,0.05305
3055.13257,0.05279
3053.20382,0.05271
3051.27508,0.05270
3049.34633,0.05276
3047.41759,0.05287
3045.48884,0.05295
3043.56009,0.05305
3041.63135,0.05310
3039.70260,0.05297
3037.77386,0.05291
3035.84511,0.05294
3033.91637,0.05279
3031.98762,0.05259
3030.05888,0.05249
3028.13013,0.05243
3026.20139,0.05244
3024.27264,0.05248
3022.34390,0.05248
3020.41515,0.05244
3018.48641,0.05239
3016.55766,0.05229
3014.62892,0.05219
3012.70017,0.05212
3010.77142,0.05194
3008.84268,0.05169
3006.91393,0.05149
3004.98519,0.05128
3003.05644,0.05112
3001.12770,0.05109
2999.19895,0.05102
2997.27021,0.05091
2995.34146,0.05078
2993.41272,0.05053
2991.48397,0.05038
2989.55523,0.05047
2987.62648,0.05053
2985.69774,0.05047
2983.76899,0.05053
2981.84025,0.05067
2979.91150,0.05069
2977.98275,0.05046
2976.05401,0.05014
2974.12526,0.05001
2972.19652,0.05023
2970.26777,0.05064
2968.33903,0.05087
2966.41028,0.05082
2964.48154,0.05081
2962.55279,0.05098
2960.62405,0.05107
2958.69530,0.05102
2956.76656,0.05105
2954.83781,0.05124
2952.90907,0.05157
2950.98032,0.05191
2949.05157,0.05205
2947.12283,0.05206
2945.19408,0.05217
2943.26534,0.05237
2941.33659,0.05249
2939.40785,0.05265
2937.47910,0.05314
2935.55036,0.05375
2933.62161,0.05432
2931.69287,0.05496
2929.76412,0.05546
2927.83538,0.05581
2925.90663,0.05635
2923.97789,0.05705
2922.04914,0.05767
2920.12040,0.05820
2918.19165,0.05853
2916.26290,0.05858
2914.33416,0.05852
2912.40541,0.05833
2910.47667,0.05783
2908.54792,0.05717
2906.61918,0.05668
2904.69043,0.05638
2902.76169,0.05614
2900.83294,0.05611
2898.90420,0.05632
2896.97545,0.05649
2895.04671,0.05634
2893.11796,0.05596
2891.18922,0.05558
2889.26047,0.05533
2887.33172,0.05532
2885.40298,0.05564
2883.47423,0.05599
2881.54549,0.05582
2879.61674,0.05533
2877.68800,0.05526
2875.75925,0.05564
2873.83051,0.05583
2871.90176,0.05562
2869.97302,0.05548
2868.04427,0.05567
2866.11553,0.05593
2864.18678,0.05607
2862.25804,0.05621
2860.32929,0.05649
2858.40055,0.05686
2856.47180,0.05727
2854.54305,0.05775
2852.61431,0.05837
2850.68556,0.05903
2848.75682,0.05954
2846.82807,0.05972
2844.89933,0.05935
2842.97058,0.05851
2841.04184,0.05772
2839.11309,0.05737
2837.18435,0.05740
2835.25560,0.05755
2833.32686,0.05741
2831.39811,0.05697
2829.46937,0.05677
2827.54062,0.05690
2825.61188,0.05696
2823.68313,0.05695
2821.75438,0.05691
2819.82564,0.05659
2817.89689,0.05614
2815.96815,0.05611
2814.03940,0.05648
2812.11066,0.05671
2810.18191,0.05651
2808.25317,0.05607
2806.32442,0.05576
2804.39568,0.05568
2802.46693,0.05560
2800.53819,0.05551
2798.60944,0.05556
2796.68070,0.05565
2794.75195,0.05563
2792.82320,0.05566
2790.89446,0.05587
2788.96571,0.05607
2787.03697,0.05612
2785.10822,0.05602
2783.17948,0.05598
2781.25073,0.05614
2779.32199,0.05631
2777.39324,0.05629
2775.46450,0.05616
2773.53575,0.05596
2771.60701,0.05575
2769.67826,0.05566
2767.74952,0.05555
2765.82077,0.05542
2763.89203,0.05563
2761.96328,0.05611
2760.03453,0.05645
2758.10579,0.05649
2756.17704,0.05641
2754.24830,0.05632
2752.31955,0.05621
2750.39081,0.05610
2748.46206,0.05607
2746.53332,0.05608
2744.60457,0.05606
2742.67583,0.05607
2740.74708,0.05611
2738.81834,0.05604
2736.88959,0.05590
2734.96085,0.05583
2733.03210,0.05583
2731.10336,0.05580
2729.17461,0.05579
2727.24586,0.05586
2725.31712,0.05596
2723.38837,0.05606
2721.45963,0.05622
2719.53088,0.05642
2717.60214,0.05659
2715.67339,0.05666
2713.74465,0.05670
2711.81590,0.05682
2709.88716,0.05700
2707.95841,0.05720
2706.02967,0.05733
2704.10092,0.05732
2702.17218,0.05726
2700.24343,0.05725
2698.31468,0.05731
2696.38594,0.05743
2694.45719,0.05749
2692.52845,0.05741
2690.59970,0.05733
2688.67096,0.05738
2686.74221,0.05745
2684.81347,0.05752
2682.88472,0.05750
2680.95598,0.05735
2679.02723,0.05743
2677.09849,0.05787
2675.16974,0.05823
2673.24100,0.05833
2671.31225,0.05841
2669.38351,0.05853
2667.45476,0.05840
2665.52601,0.05804
2663.59727,0.05789
2661.66852,0.05809
2659.73978,0.05840
2657.81103,0.05870
2655.88229,0.05895
2653.95354,0.05908
2652.02480,0.05905
2650.09605,0.05899
2648.16731,0.05902
2646.23856,0.05917
2644.30982,0.05939
2642.38107,0.05957
2640.45233,0.05962
2638.52358,0.05963
2636.59484,0.05970
2634.66609,0.05979
2632.73734,0.05980
2630.80860,0.05971
2628.87985,0.05969
2626.95111,0.05985
2625.02236,0.06013
2623.09362,0.06036
2621.16487,0.06032
2619.23613,0.06009
2617.30738,0.05995
2615.37864,0.06000
2613.44989,0.06014
2611.52115,0.06016
2609.59240,0.06000
2607.66366,0.05987
2605.73491,0.06000
2603.80616,0.06028
2601.87742,0.06032
2599.94867,0.06007
2598.01993,0.05979
2596.09118,0.05971
2594.16244,0.05981
2592.23369,0.05998
2590.30495,0.06026
2588.37620,0.06055
2586.44746,0.06059
2584.51871,0.06037
2582.58997,0.06018
2580.66122,0.06034
2578.73248,0.06076
2576.80373,0.06110
2574.87499,0.06120
2572.94624,0.06114
2571.01749,0.06100
2569.08875,0.06091
2567.16000,0.06095
2565.23126,0.06087
2563.30251,0.06064
2561.37377,0.06061
2559.44502,0.06074
2557.51628,0.06075
2555.58753,0.06069
2553.65879,0.06073
2551.73004,0.06081
2549.80130,0.06086
2547.87255,0.06084
2545.94381,0.06066
2544.01506,0.06052
2542.08631,0.06067
2540.15757,0.06090
2538.22882,0.06095
2536.30008,0.06093
2534.37133,0.06095
2532.44259,0.06109
2530.51384,0.06120
2528.58510,0.06118
2526.65635,0.06129
2524.72761,0.06167
2522.79886,0.06203
2520.87012,0.06212
2518.94137,0.06202
2517.01263,0.06209
2515.08388,0.06251
2513.15514,0.06285
2511.22639,0.06279
2509.29764,0.06262
2507.36890,0.06268
2505.44015,0.06289
2503.51141,0.06310
2501.58266,0.06322
2499.65392,0.06324
2497.72517,0.06325
2495.79643,0.06329
2493.86768,0.06331
2491.93894,0.06337
2490.01019,0.06351
2488.08145,0.06367
2486.15270,0.06378
2484.22396,0.06380
2482.29521,0.06373
2480.36647,0.06366
2478.43772,0.06382
2476.50897,0.06423
2474.58023,0.06462
2472.65148,0.06484
2470.72274,0.06505
2468.79399,0.06531
2466.86525,0.06539
2464.93650,0.06528
2463.00776,0.06536
2461.07901,0.06571
2459.15027,0.06598
2457.22152,0.06597
2455.29278,0.06590
2453.36403,0.06593
2451.43529,0.06604
2449.50654,0.06616
2447.57779,0.06622
2445.64905,0.06615
2443.72030,0.06599
2441.79156,0.06597
2439.86281,0.06612
2437.93407,0.06618
2436.00532,0.06608
2434.07658,0.06599
2432.14783,0.06585
2430.21909,0.06570
2428.29034,0.06580
2426.36160,0.06609
2424.43285,0.06620
2422.50411,0.06613
2420.57536,0.06614
2418.64662,0.06624
2416.71787,0.06644
2414.78912,0.06679
2412.86038,0.06715
2410.93163,0.06730
2409.00289,0.06730
2407.07414,0.06742
2405.14540,0.06770
2403.21665,0.06782
2401.28791,0.06775
2399.35916,0.06771
2397.43042,0.06771
2395.50167,0.06780
2393.57293,0.06802
2391.64418,0.06818
2389.71544,0.06827
2387.78669,0.06833
2385.85795,0.06831
2383.92920,0.06830
2382.00045,0.06833
2380.07171,0.06841
2378.14296,0.06843
2376.21422,0.06828
2374.28547,0.06813
2372.35673,0.06810
2370.42798,0.06823
2368.49924,0.06843
2366.57049,0.06847
2364.64175,0.06840
2362.71300,0.06840
2360.78426,0.06848
2358.85551,0.06858
2356.92677,0.06856
2354.99802,0.06843
2353.06927,0.06841
2351.14053,0.06854
2349.21178,0.06869
2347.28304,0.06873
2345.35429,0.06859
2343.42555,0.06840
2341.49680,0.06828
2339.56806,0.06813
2337.63931,0.06791
2335.71057,0.06786
2333.78182,0.06799
2331.85308,0.06819
2329.92433,0.06845
2327.99559,0.06869
2326.06684,0.06877
2324.13810,0.06884
2322.20935,0.06904
2320.28060,0.06933
2318.35186,0.06964
2316.42311,0.06992
2314.49437,0.07021
2312.56562,0.07047
2310.63688,0.07066
2308.70813,0.07081
2306.77939,0.07090
2304.85064,0.07100
2302.92190,0.07116
2300.99315,0.07128
2299.06441,0.07131
2297.13566,0.07140
2295.20692,0.07165
2293.27817,0.07192
2291.34943,0.07213
2289.42068,0.07230
2287.49193,0.07240
2285.56319,0.07244
2283.63444,0.07250
2281.70570,0.07256
2279.77695,0.07266
2277.84821,0.07279
2275.91946,0.07288
2273.99072,0.07303
2272.06197,0.07323
2270.13323,0.07338
2268.20448,0.07361
2266.27574,0.07395
2264.34699,0.07425
2262.41825,0.07442
2260.48950,0.07444
2258.56075,0.07437
2256.63201,0.07435
2254.70326,0.07438
2252.77452,0.07440
2250.84577,0.07443
2248.91703,0.07453
2246.98828,0.07464
2245.05954,0.07464
2243.13079,0.07453
2241.20205,0.07442
2239.27330,0.07433
2237.34456,0.07434
2235.41581,0.07445
2233.48707,0.07446
2231.55832,0.07431
2229.62958,0.07410
2227.70083,0.07390
2225.77208,0.07388
2223.84334,0.07418
2221.91459,0.07457
2219.98585,0.07479
2218.05710,0.07484
2216.12836,0.07491
2214.19961,0.07509
2212.27087,0.07516
2210.34212,0.07495
2208.41338,0.07468
2206.48463,0.07458
2204.55589,0.07450
2202.62714,0.07444
2200.69840,0.07448
2198.76965,0.07446
2196.84090,0.07428
2194.91216,0.07408
2192.98341,0.07396
2191.05467,0.07380
2189.12592,0.07350
2187.19718,0.07319
2185.26843,0.07292
2183.33969,0.07261
2181.41094,0.07232
2179.48220,0.07217
2177.55345,0.07206
2175.62471,0.07177
2173.69596,0.07129
2171.76722,0.07088
2169.83847,0.07070
2167.90973,0.07058
2165.98098,0.07032
2164.05223,0.06998
2162.12349,0.06966
2160.19474,0.06933
2158.26600,0.06889
2156.33725,0.06839
2154.40851,0.06809
2152.47976,0.06799
2150.55102,0.06774
2148.62227,0.06732
2146.69353,0.06699
2144.76478,0.06670
2142.83604,0.06632
2140.90729,0.06582
2138.97855,0.06531
2137.04980,0.06500
2135.12106,0.06490
2133.19231,0.06486
2131.26356,0.06466
2129.33482,0.06431
2127.40607,0.06408
2125.47733,0.06406
2123.54858,0.06405
2121.61984,0.06392
2119.69109,0.06371
2117.76235,0.06347
2115.83360,0.06326
2113.90486,0.06310
2111.97611,0.06294
2110.04737,0.06274
2108.11862,0.06253
2106.18988,0.06233
2104.26113,0.06218
2102.33238,0.06214
2100.40364,0.06213
2098.47489,0.06198
2096.54615,0.06179
2094.61740,0.06173
2092.68866,0.06169
2090.75991,0.06156
2088.83117,0.06146
2086.90242,0.06142
2084.97368,0.06125
2083.04493,0.06099
2081.11619,0.06085
2079.18744,0.06078
2077.25870,0.06073
2075.32995,0.06075
2073.40121,0.06083
2071.47246,0.06092
2069.54371,0.06099
2067.61497,0.06104
2065.68622,0.06113
2063.75748,0.06126
2061.82873,0.06134
2059.89999,0.06127
2057.97124,0.06116
2056.04250,0.06115
2054.11375,0.06124
2052.18501,0.06135
2050.25626,0.06142
2048.32752,0.06140
2046.39877,0.06130
2044.47003,0.06133
2042.54128,0.06138
2040.61254,0.06117
2038.68379,0.06103
2036.75504,0.06114
2034.82630,0.06116
2032.89755,0.06104
2030.96881,0.06092
2029.04006,0.06077
2027.11132,0.06054
2025.18257,0.06038
2023.25383,0.06043
2021.32508,0.06053
2019.39634,0.06045
2017.46759,0.06027
2015.53885,0.06020
2013.61010,0.06023
2011.68136,0.06018
2009.75261,0.06006
2007.82386,0.06002
2005.89512,0.06007
2003.96637,0.06009
2002.03763,0.05998
2000.10888,0.05981
1998.18014,0.05964
1996.25139,0.05959
1994.32265,0.05968
1992.39390,0.05970
1990.46516,0.05953
1988.53641,0.05932
1986.60767,0.05929
1984.67892,0.05948
1982.75018,0.05969
1980.82143,0.05976
1978.89269,0.05970
1976.96394,0.05958
1975.03519,0.05946
1973.10645,0.05932
1971.17770,0.05912
1969.24896,0.05889
1967.32021,0.05870
1965.39147,0.05862
1963.46272,0.05868
1961.53398,0.05866
1959.60523,0.05848
1957.67649,0.05835
1955.74774,0.05839
1953.81900,0.05853
1951.89025,0.05867
1949.96151,0.05877
1948.03276,0.05884
1946.10402,0.05896
1944.17527,0.05928
1942.24652,0.05965
1940.31778,0.05983
1938.38903,0.05987
1936.46029,0.06002
1934.53154,0.06035
1932.60280,0.06056
1930.67405,0.06052
1928.74531,0.06048
1926.81656,0.06058
1924.88782,0.06066
1922.95907,0.06061
1921.03033,0.06052
1919.10158,0.06036
1917.17284,0.06010
1915.24409,0.05993
1913.31534,0.05988
1911.38660,0.05980
1909.45785,0.05959
1907.52911,0.05937
1905.60036,0.05914
1903.67162,0.05876
1901.74287,0.05830
1899.81413,0.05798
1897.88538,0.05771
1895.95664,0.05744
1894.02789,0.05721
1892.09915,0.05690
1890.17040,0.05651
1888.24166,0.05632
1886.31291,0.05631
1884.38417,0.05628
1882.45542,0.05617
1880.52667,0.05604
1878.59793,0.05597
1876.66918,0.05594
1874.74044,0.05590
1872.81169,0.05582
1870.88295,0.05573
1868.95420,0.05557
1867.02546,0.05532
1865.09671,0.05502
1863.16797,0.05487
1861.23922,0.05492
1859.31048,0.05487
1857.38173,0.05461
1855.45299,0.05442
1853.52424,0.05433
1851.59549,0.05416
1849.66675,0.05396
1847.73800,0.05387
1845.80926,0.05375
1843.88051,0.05347
1841.95177,0.05319
1840.02302,0.05291
1838.09428,0.05252
1836.16553,0.05211
1834.23679,0.05184
1832.30804,0.05161
1830.37930,0.05121
1828.45055,0.05071
1826.52181,0.05027
1824.59306,0.04992
1822.66432,0.04971
1820.73557,0.04952
1818.80682,0.04921
1816.87808,0.04882
1814.94933,0.04844
1813.02059,0.04810
1811.09184,0.04780
1809.16310,0.04736
1807.23435,0.04682
1805.30561,0.04636
1803.37686,0.04606
1801.44812,0.04594
1799.51937,0.04587
1797.59063,0.04561
1795.66188,0.04517
1793.73314,0.04484
1791.80439,0.04469
1789.87565,0.04444
1787.94690,0.04413
1786.01815,0.04396
1784.08941,0.04377
1782.16066,0.04344
1780.23192,0.04303
1778.30317,0.04261
1776.37443,0.04228
1774.44568,0.04208
1772.51694,0.04172
1770.58819,0.04102
1768.65945,0.04028
1766.73070,0.03980
1764.80196,0.03940
1762.87321,0.03877
1760.94447,0.03795
1759.01572,0.03715
1757.08697,0.03628
1755.15823,0.03537
1753.22948,0.03457
1751.30074,0.03376
1749.37199,0.03298
1747.44325,0.03261
1745.51450,0.03282
1743.58576,0.03366
1741.65701,0.03529
1739.72827,0.03787
1737.79952,0.04093
1735.87078,0.04425
1733.94203,0.04843
1732.01329,0.05289
1730.08454,0.05671
1728.15580,0.06005
1726.22705,0.06298
1724.29830,0.06545
1722.36956,0.06740
1720.44081,0.06881
1718.51207,0.06963
1716.58332,0.06962
1714.65458,0.06890
1712.72583,0.06816
1710.79709,0.06767
1708.86834,0.06712
1706.93960,0.06631
1705.01085,0.06546
1703.08211,0.06483
1701.15336,0.06402
1699.22462,0.06286
1697.29587,0.06197
1695.36713,0.06144
1693.43838,0.06104
1691.50963,0.06059
1689.58089,0.06012
1687.65214,0.05986
1685.72340,0.05967
1683.79465,0.05928
1681.86591,0.05887
1679.93716,0.05854
1678.00842,0.05829
1676.07967,0.05825
1674.15093,0.05832
1672.22218,0.05828
1670.29344,0.05800
1668.36469,0.05755
1666.43595,0.05725
1664.50720,0.05721
1662.57845,0.05723
1660.64971,0.05713
1658.72096,0.05705
1656.79222,0.05729
1654.86347,0.05778
1652.93473,0.05781
1651.00598,0.05734
1649.07724,0.05706
1647.14849,0.05685
1645.21975,0.05648
1643.29100,0.05613
1641.36226,0.05590
1639.43351,0.05587
1637.50477,0.05594
1635.57602,0.05590
1633.64728,0.05587
1631.71853,0.05595
1629.78978,0.05584
1627.86104,0.05547
1625.93229,0.05514
1624.00355,0.05492
1622.07480,0.05469
1620.14606,0.05460
1618.21731,0.05469
1616.28857,0.05469
1614.35982,0.05459
1612.43108,0.05462
1610.50233,0.05483
1608.57359,0.05506
1606.64484,0.05520
1604.71610,0.05524
1602.78735,0.05526
1600.85861,0.05529
1598.92986,0.05532
1597.00111,0.05536
1595.07237,0.05545
1593.14362,0.05538
1591.21488,0.05501
1589.28613,0.05455
1587.35739,0.05432
1585.42864,0.05430
1583.49990,0.05427
1581.57115,0.05424
1579.64241,0.05433
1577.71366,0.05433
1575.78492,0.05401
1573.85617,0.05361
1571.92743,0.05352
1569.99868,0.05357
1568.06993,0.05344
1566.14119,0.05323
1564.21244,0.05313
1562.28370,0.05306
1560.35495,0.05289
1558.42621,0.05260
1556.49746,0.05248
1554.56872,0.05256
1552.63997,0.05261
1550.71123,0.05262
1548.78248,0.05265
1546.85374,0.05266
1544.92499,0.05265
1542.99625,0.05265
1541.06750,0.05262
1539.13876,0.05240
1537.21001,0.05222
1535.28126,0.05219
1533.35252,0.05212
1531.42377,0.05196
1529.49503,0.05180
1527.56628,0.05166
1525.63754,0.05137
1523.70879,0.05089
1521.78005,0.05038
1519.85130,0.04990
1517.92256,0.04949
1515.99381,0.04923
1514.06507,0.04926
1512.13632,0.04961
1510.20758,0.05035
1508.27883,0.05132
1506.35008,0.05192
1504.42134,0.05196
1502.49259,0.05189
1500.56385,0.05179
1498.63510,0.05159
1496.70636,0.05131
1494.77761,0.05097
1492.84887,0.05058
1490.92012,0.05009
1488.99138,0.04950
1487.06263,0.04898
1485.13389,0.04862
1483.20514,0.04827
1481.27640,0.04794
1479.34765,0.04771
1477.41891,0.04748
1475.49016,0.04727
1473.56141,0.04708
1471.63267,0.04692
1469.70392,0.04695
1467.77518,0.04718
1465.84643,0.04749
1463.91769,0.04783
1461.98894,0.04814
1460.06020,0.04842
1458.13145,0.04868
1456.20271,0.04887
1454.27396,0.04898
1452.34522,0.04915
1450.41647,0.04945
1448.48773,0.04975
1446.55898,0.04992
1444.63024,0.05006
1442.70149,0.05025
1440.77274,0.05044
1438.84400,0.05060
1436.91525,0.05060
1434.98651,0.05036
1433.05776,0.05009
1431.12902,0.04998
1429.20027,0.04996
1427.27153,0.04988
1425.34278,0.04964
1423.41404,0.04930
1421.48529,0.04896
1419.55655,0.04851
1417.62780,0.04810
1415.69906,0.04800
1413.77031,0.04809
1411.84156,0.04814
1409.91282,0.04822
1407.98407,0.04848
1406.05533,0.04875
1404.12658,0.04873
1402.19784,0.04855
1400.26909,0.04840
1398.34035,0.04823
1396.41160,0.04807
1394.48286,0.04801
1392.55411,0.04806
1390.62537,0.04810
1388.69662,0.04804
1386.76788,0.04803
1384.83913,0.04825
1382.91039,0.04852
1380.98164,0.04863
1379.05289,0.04865
1377.12415,0.04872
1375.19540,0.04887
1373.26666,0.04894
1371.33791,0.04890
1369.40917,0.04888
1367.48042,0.04885
1365.55168,0.04865
1363.62293,0.04830
1361.69419,0.04805
1359.76544,0.04809
1357.83670,0.04817
1355.90795,0.04809
1353.97921,0.04797
1352.05046,0.04781
1350.12172,0.04758
1348.19297,0.04741
1346.26422,0.04737
1344.33548,0.04724
1342.40673,0.04687
1340.47799,0.04639
1338.54924,0.04601
1336.62050,0.04582
1334.69175,0.04575
1332.76301,0.04560
1330.83426,0.04537
1328.90552,0.04524
1326.97677,0.04524
1325.04803,0.04516
1323.11928,0.04493
1321.19054,0.04467
1319.26179,0.04438
1317.33304,0.04406
1315.40430,0.04380
1313.47555,0.04354
1311.54681,0.04320
1309.61806,0.04288
1307.68932,0.04268
1305.76057,0.04259
1303.83183,0.04252
1301.90308,0.04242
1299.97434,0.04242
1298.04559,0.04262
1296.11685,0.04284
1294.18810,0.04293
1292.25936,0.04292
1290.33061,0.04280
1288.40187,0.04270
1286.47312,0.04263
1284.54437,0.04237
1282.61563,0.04202
1280.68688,0.04184
1278.75814,0.04178
1276.82939,0.04172
1274.90065,0.04176
1272.97190,0.04203
1271.04316,0.04241
1269.11441,0.04264
1267.18567,0.04264
1265.25692,0.04265
1263.32818,0.04286
1261.39943,0.04317
1259.47069,0.04344
1257.54194,0.04375
1255.61320,0.04406
1253.68445,0.04428
1251.75570,0.04461
1249.82696,0.04510
1247.89821,0.04561
1245.96947,0.04609
1244.04072,0.04646
1242.11198,0.04664
1240.18323,0.04677
1238.25449,0.04693
1236.32574,0.04718
1234.39700,0.04768
1232.46825,0.04821
1230.53951,0.04829
1228.61076,0.04795
1226.68202,0.04767
1224.75327,0.04764
1222.82452,0.04766
1220.89578,0.04767
1218.96703,0.04772
1217.03829,0.04777
1215.10954,0.04772
1213.18080,0.04758
1211.25205,0.04743
1209.32331,0.04754
1207.39456,0.04785
1205.46582,0.04783
1203.53707,0.04749
1201.60833,0.04757
1199.67958,0.04836
1197.75084,0.04920
1195.82209,0.04952
1193.89335,0.04972
1191.96460,0.05033
1190.03585,0.05112
1188.10711,0.05158
1186.17836,0.05187
1184.24962,0.05250
1182.32087,0.05356
1180.39213,0.05452
1178.46338,0.05501
1176.53464,0.05517
1174.60589,0.05536
1172.67715,0.05588
1170.74840,0.05675
1168.81966,0.05779
1166.89091,0.05895
1164.96217,0.06027
1163.03342,0.06152
1161.10467,0.06250
1159.17593,0.06335
1157.24718,0.06433
1155.31844,0.06532
1153.38969,0.06602
1151.46095,0.06638
1149.53220,0.06654
1147.60346,0.06651
1145.67471,0.06629
1143.74597,0.06618
1141.81722,0.06616
1139.88848,0.06599
1137.95973,0.06576
1136.03099,0.06565
1134.10224,0.06548
1132.17350,0.06521
1130.24475,0.06504
1128.31600,0.06499
1126.38726,0.06497
1124.45851,0.06517
1122.52977,0.06558
1120.60102,0.06611
1118.67228,0.06686
1116.74353,0.06777
1114.81479,0.06860
1112.88604,0.06949
1110.95730,0.07046
1109.02855,0.07108
1107.09981,0.07156
1105.17106,0.07241
1103.24232,0.07343
1101.31357,0.07423
1099.38483,0.07471
1097.45608,0.07509
1095.52733,0.07561
1093.59859,0.07605
1091.66984,0.07628
1089.74110,0.07628
1087.81235,0.07624
1085.88361,0.07648
1083.95486,0.07693
1082.02612,0.07749
1080.09737,0.07816
1078.16863,0.07876
1076.23988,0.07937
1074.31114,0.08004
1072.38239,0.08044
1070.45365,0.08058
1068.52490,0.08080
1066.59615,0.08118
1064.66741,0.08151
1062.73866,0.08170
1060.80992,0.08176
1058.88117,0.08172
1056.95243,0.08168
1055.02368,0.08166
1053.09494,0.08158
1051.16619,0.08147
1049.23745,0.08137
1047.30870,0.08147
1045.37996,0.08190
1043.45121,0.08225
1041.52247,0.08230
1039.59372,0.08221
1037.66498,0.08191
1035.73623,0.08133
1033.80748,0.08094
1031.87874,0.08097
1029.94999,0.08105
1028.02125,0.08095
1026.09250,0.08082
1024.16376,0.08070
1022.23501,0.08032
1020.30627,0.07968
1018.37752,0.07907
1016.44878,0.07868
1014.52003,0.07860
1012.59129,0.07870
1010.66254,0.07853
1008.73380,0.07789
1006.80505,0.07725
1004.87631,0.07685
1002.94756,0.07634
1001.01881,0.07567
999.09007,0.07512
997.16132,0.07479
995.23258,0.07458
993.30383,0.07434
991.37509,0.07418
989.44634,0.07425
987.51760,0.07433
985.58885,0.07438
983.66011,0.07444
981.73136,0.07429
979.80262,0.07398
977.87387,0.07400
975.94513,0.07435
974.01638,0.07471
972.08763,0.07493
970.15889,0.07489
968.23014,0.07470
966.30140,0.07449
964.37265,0.07414
962.44391,0.07371
960.51516,0.07346
958.58642,0.07328
956.65767,0.07314
954.72893,0.07321
952.80018,0.07338
950.87144,0.07336
948.94269,0.07315
947.01395,0.07297
945.08520,0.07289
943.15646,0.07269
941.22771,0.07223
939.29896,0.07182
937.37022,0.07176
935.44147,0.07197
933.51273,0.07229
931.58398,0.07236
929.65524,0.07194
927.72649,0.07155
925.79775,0.07169
923.86900,0.07210
921.94026,0.07208
920.01151,0.07150
918.08277,0.07100
916.15402,0.07096
914.22528,0.07106
912.29653,0.07108
910.36779,0.07106
908.43904,0.07095
906.51029,0.07077
904.58155,0.07049
902.65280,0.07017
900.72406,0.07004
898.79531,0.07008
896.86657,0.06989
894.93782,0.06955
893.00908,0.06936
891.08033,0.06940
889.15159,0.06976
887.22284,0.07030
885.29410,0.07065
883.36535,0.07060
881.43661,0.07030
879.50786,0.06999
877.57911,0.06979
875.65037,0.06968
873.72162,0.06941
871.79288,0.06893
869.86413,0.06868
867.93539,0.06900
866.00664,0.06946
864.07790,0.06946
862.14915,0.06901
860.22041,0.06845
858.29166,0.06809
856.36292,0.06800
854.43417,0.06786
852.50543,0.06759
850.57668,0.06736
848.64794,0.06719
846.71919,0.06697
844.79044,0.06662
842.86170,0.06628
840.93295,0.06612
839.00421,0.06595
837.07546,0.06571
835.14672,0.06560
833.21797,0.06586
831.28923,0.06631
829.36048,0.06660
827.43174,0.06687
825.50299,0.06717
823.57425,0.06725
821.64550,0.06711
819.71676,0.06700
817.78801,0.06671
815.85926,0.06607
813.93052,0.06573
812.00177,0.06618
810.07303,0.06711
808.14428,0.06799
806.21554,0.06841
804.28679,0.06827
802.35805,0.06808
800.42930,0.06824
798.50056,0.06860
796.57181,0.06892
794.64307,0.06911
792.71432,0.06905
790.78558,0.06885
788.85683,0.06859
786.92809,0.06828
784.99934,0.06817
783.07059,0.06845
781.14185,0.06894
779.21310,0.06935
777.28436,0.06952
775.35561,0.06951
773.42687,0.06940
771.49812,0.06922
769.56938,0.06899
767.64063,0.06886
765.71189,0.06902
763.78314,0.06933
761.85440,0.06924
759.92565,0.06868
757.99691,0.06834
756.06816,0.06843
754.13942,0.06821
752.21067,0.06741
750.28192,0.06683
748.35318,0.06695
746.42443,0.06711
744.49569,0.06702
742.56694,0.06716
740.63820,0.06751
738.70945,0.06771
736.78071,0.06777
734.85196,0.06788
732.92322,0.06832
730.99447,0.06896
729.06573,0.06932
727.13698,0.06950
725.20824,0.06983
723.27949,0.07028
721.35074,0.07045
719.42200,0.07009
717.49325,0.06942
715.56451,0.06894
713.63576,0.06873
711.70702,0.06839
709.77827,0.06785
707.84953,0.06745
705.92078,0.06745
703.99204,0.06758
702.06329,0.06764
700.13455,0.06789
698.20580,0.06859
696.27706,0.06947
694.34831,0.07007
692.41957,0.07052
690.49082,0.07131
688.56207,0.07211
686.63333,0.07229
684.70458,0.07243
682.77584,0.07316
680.84709,0.07387
678.91835,0.07417
676.98960,0.07438
675.06086,0.07426
673.13211,0.07360
671.20337,0.07305
669.27462,0.07314
667.34588,0.07325
665.41713,0.07276
663.48839,0.07230
661.55964,0.07202
659.63090,0.07116
657.70215,0.06987
655.77340,0.06894
653.84466,0.06861
651.91591,0.06873
649.98717,0.06896
648.05842,0.06933
646.12968,0.06989
644.20093,0.06999
642.27219,0.06918
640.34344,0.06828
638.41470,0.06806
636.48595,0.06738
634.55721,0.06570
632.62846,0.06472
630.69972,0.06489
628.77097,0.06505
626.84222,0.06449
624.91348,0.06343
622.98473,0.06319
621.05599,0.06427
619.12724,0.06546
617.19850,0.06600
615.26975,0.06615
613.34101,0.06646
611.41226,0.06718
609.48352,0.06762
607.55477,0.06731
605.62603,0.06657
603.69728,0.06560
601.76854,0.06464
599.83979,0.06430
