7497.03301,0.77893
7495.10426,0.78208
7493.17552,0.78520
7491.24677,0.78953
7489.31803,0.79081
7487.38928,0.78433
7485.46054,0.77387
7483.53179,0.76751
7481.60305,0.76674
7479.67430,0.76634
7477.74556,0.76533
7475.81681,0.76612
7473.88807,0.76832
7471.95932,0.77119
7470.03057,0.77297
7468.10183,0.77168
7466.17308,0.76889
7464.24434,0.76678
7462.31559,0.76563
7460.38685,0.76438
7458.45810,0.76095
7456.52936,0.75628
7454.60061,0.75394
7452.67187,0.75276
7450.74312,0.75125
7448.81438,0.75323
7446.88563,0.75728
7444.95689,0.75578
7443.02814,0.74949
7441.09940,0.74472
7439.17065,0.74121
7437.24190,0.73864
7435.31316,0.74027
7433.38441,0.74326
7431.45567,0.74293
7429.52692,0.74170
7427.59818,0.74273
7425.66943,0.74324
7423.74069,0.73989
7421.81194,0.73583
7419.88320,0.73425
7417.95445,0.73346
7416.02571,0.73136
7414.09696,0.72756
7412.16822,0.72380
7410.23947,0.71973
7408.31073,0.71554
7406.38198,0.71511
7404.45323,0.71627
7402.52449,0.71510
7400.59574,0.71215
7398.66700,0.71006
7396.73825,0.71298
7394.80951,0.71763
7392.88076,0.71845
7390.95202,0.71731
7389.02327,0.71440
7387.09453,0.71105
7385.16578,0.71228
7383.23704,0.71470
7381.30829,0.71297
7379.37955,0.71098
7377.45080,0.71103
7375.52205,0.71030
7373.59331,0.70865
7371.66456,0.70646
7369.73582,0.70384
7367.80707,0.70267
7365.87833,0.70323
7363.94958,0.70373
7362.02084,0.70319
7360.09209,0.70158
7358.16335,0.70004
7356.23460,0.69823
7354.30586,0.69460
7352.37711,0.69409
7350.44837,0.70031
7348.51962,0.70490
7346.59088,0.70099
7344.66213,0.69436
7342.73338,0.69354
7340.80464,0.69694
7338.87589,0.69648
7336.94715,0.69204
7335.01840,0.68735
7333.08966,0.68197
7331.16091,0.67651
7329.23217,0.67423
7327.30342,0.67445
7325.37468,0.67316
7323.44593,0.67131
7321.51719,0.67290
7319.58844,0.67716
7317.65970,0.67977
7315.73095,0.67986
7313.80221,0.67933
7311.87346,0.67881
7309.94471,0.67930
7308.01597,0.67990
7306.08722,0.67941
7304.15848,0.67876
7302.22973,0.67478
7300.30099,0.66691
7298.37224,0.66277
7296.44350,0.66403
7294.51475,0.66422
7292.58601,0.66113
7290.65726,0.65793
7288.72852,0.65600
7286.79977,0.65526
7284.87103,0.65649
7282.94228,0.65770
7281.01353,0.65630
7279.08479,0.65503
7277.15604,0.65699
7275.22730,0.66081
7273.29855,0.66328
7271.36981,0.66208
7269.44106,0.65752
7267.51232,0.65301
7265.58357,0.65239
7263.65483,0.65520
7261.72608,0.65896
7259.79734,0.66157
7257.86859,0.65841
7255.93985,0.65117
7254.01110,0.64760
7252.08236,0.64812
7250.15361,0.65087
7248.22486,0.65555
7246.29612,0.65775
7244.36737,0.65385
7242.43863,0.64725
7240.50988,0.64389
7238.58114,0.64331
7236.65239,0.64304
7234.72365,0.64559
7232.79490,0.65211
7230.86616,0.65702
7228.93741,0.65534
7227.00867,0.65055
7225.07992,0.64675
7223.15118,0.64278
7221.22243,0.63980
7219.29369,0.63969
7217.36494,0.64035
7215.43619,0.64054
7213.50745,0.64022
7211.57870,0.63925
7209.64996,0.63796
7207.72121,0.63625
7205.79247,0.63482
7203.86372,0.63421
7201.93498,0.63406
7200.00623,0.63567
7198.07749,0.63898
7196.14874,0.63899
7194.22000,0.63375
7192.29125,0.62801
7190.36251,0.62400
7188.43376,0.61649
7186.50501,0.60358
7184.57627,0.59639
7182.64752,0.60381
7180.71878,0.61773
7178.79003,0.62576
7176.86129,0.62604
7174.93254,0.62402
7173.00380,0.62352
7171.07505,0.62402
7169.14631,0.62343
7167.21756,0.62130
7165.28882,0.61938
7163.36007,0.61810
7161.43133,0.61615
7159.50258,0.61372
7157.57384,0.61332
7155.64509,0.61583
7153.71634,0.61582
7151.78760,0.60932
7149.85885,0.60272
7147.93011,0.60138
7146.00136,0.60104
7144.07262,0.59828
7142.14387,0.59587
7140.21513,0.59447
7138.28638,0.59138
7136.35764,0.58812
7134.42889,0.58842
7132.50015,0.59159
7130.57140,0.59277
7128.64266,0.58889
7126.71391,0.58349
7124.78516,0.58125
7122.85642,0.58114
7120.92767,0.57932
7118.99893,0.57502
7117.07018,0.57129
7115.14144,0.56996
7113.21269,0.56983
7111.28395,0.56947
7109.35520,0.56799
7107.42646,0.56554
7105.49771,0.56330
7103.56897,0.56170
7101.64022,0.56017
7099.71148,0.55881
7097.78273,0.55832
7095.85399,0.55698
7093.92524,0.55209
7091.99649,0.54538
7090.06775,0.53981
7088.13900,0.53629
7086.21026,0.53566
7084.28151,0.53480
7082.35277,0.53138
7080.42402,0.53061
7078.49528,0.53362
7076.56653,0.53436
7074.63779,0.53096
7072.70904,0.52659
7070.78030,0.52394
7068.85155,0.52235
7066.92281,0.51898
7064.99406,0.51364
7063.06532,0.50959
7061.13657,0.50821
7059.20782,0.50676
7057.27908,0.50361
7055.35033,0.50138
7053.42159,0.50164
7051.49284,0.50245
7049.56410,0.50199
7047.63535,0.50038
7045.70661,0.49899
7043.77786,0.49721
7041.84912,0.49354
7039.92037,0.49056
7037.99163,0.48963
7036.06288,0.48774
7034.13414,0.48520
7032.20539,0.48409
7030.27664,0.48186
7028.34790,0.47796
7026.41915,0.47560
7024.49041,0.47436
7022.56166,0.47294
7020.63292,0.47160
7018.70417,0.46958
7016.77543,0.46804
7014.84668,0.46799
7012.91794,0.46704
7010.98919,0.46500
7009.06045,0.46441
7007.13170,0.46467
7005.20296,0.46338
7003.27421,0.46130
7001.34547,0.46115
6999.41672,0.46218
6997.48797,0.46182
6995.55923,0.46145
6993.63048,0.46265
6991.70174,0.46200
6989.77299,0.45888
6987.84425,0.45789
6985.91550,0.45781
6983.98676,0.45523
6982.05801,0.45380
6980.12927,0.45475
6978.20052,0.45377
6976.27178,0.45088
6974.34303,0.44958
6972.41429,0.44990
6970.48554,0.45020
6968.55680,0.45098
6966.62805,0.45281
6964.69930,0.45447
6962.77056,0.45362
6960.84181,0.45048
6958.91307,0.44822
6956.98432,0.44737
6955.05558,0.44667
6953.12683,0.44642
6951.19809,0.44742
6949.26934,0.44886
6947.34060,0.44850
6945.41185,0.44564
6943.48311,0.44341
6941.55436,0.44497
6939.62562,0.44774
6937.69687,0.44878
6935.76812,0.44943
6933.83938,0.44955
6931.91063,0.44834
6929.98189,0.44769
6928.05314,0.44801
6926.12440,0.44701
6924.19565,0.44490
6922.26691,0.44462
6920.33816,0.44708
6918.40942,0.45019
6916.48067,0.45096
6914.55193,0.44983
6912.62318,0.44953
6910.69444,0.44944
6908.76569,0.44861
6906.83695,0.44811
6904.90820,0.44772
6902.97945,0.44668
6901.05071,0.44562
6899.12196,0.44640
6897.19322,0.44953
6895.26447,0.45136
6893.33573,0.44888
6891.40698,0.44576
6889.47824,0.44632
6887.54949,0.44942
6885.62075,0.45205
6883.69200,0.45291
6881.76326,0.45199
6879.83451,0.45007
6877.90577,0.44952
6875.97702,0.45233
6874.04828,0.45621
6872.11953,0.45784
6870.19078,0.45724
6868.26204,0.45510
6866.33329,0.45295
6864.40455,0.45356
6862.47580,0.45626
6860.54706,0.45860
6858.61831,0.45929
6856.68957,0.45741
6854.76082,0.45530
6852.83208,0.45603
6850.90333,0.45767
6848.97459,0.45790
6847.04584,0.45814
6845.11710,0.45937
6843.18835,0.46040
6841.25960,0.45964
6839.33086,0.45764
6837.40211,0.45728
6835.47337,0.45898
6833.54462,0.45949
6831.61588,0.45846
6829.68713,0.45920
6827.75839,0.46072
6825.82964,0.46016
6823.90090,0.45984
6821.97215,0.46137
6820.04341,0.46219
6818.11466,0.46150
6816.18592,0.46147
6814.25717,0.46204
6812.32843,0.46117
6810.39968,0.45990
6808.47093,0.46024
6806.54219,0.46187
6804.61344,0.46366
6802.68470,0.46389
6800.75595,0.46236
6798.82721,0.46143
6796.89846,0.46106
6794.96972,0.46034
6793.04097,0.46194
6791.11223,0.46454
6789.18348,0.46344
6787.25474,0.46080
6785.32599,0.46090
6783.39725,0.46300
6781.46850,0.46467
6779.53975,0.46532
6777.61101,0.46594
6775.68226,0.46703
6773.75352,0.46740
6771.82477,0.46675
6769.89603,0.46701
6767.96728,0.46798
6766.03854,0.46855
6764.10979,0.46941
6762.18105,0.46958
6760.25230,0.46848
6758.32356,0.46858
6756.39481,0.47078
6754.46607,0.47231
6752.53732,0.47229
6750.60858,0.47273
6748.67983,0.47284
6746.75108,0.47149
6744.82234,0.47059
6742.89359,0.47139
6740.96485,0.47343
6739.03610,0.47579
6737.10736,0.47803
6735.17861,0.47962
6733.24987,0.47999
6731.32112,0.48108
6729.39238,0.48378
6727.46363,0.48489
6725.53489,0.48268
6723.60614,0.47945
6721.67740,0.47892
6719.74865,0.48156
6717.81991,0.48288
6715.89116,0.48124
6713.96241,0.47932
6712.03367,0.47766
6710.10492,0.47661
6708.17618,0.47824
6706.24743,0.48220
6704.31869,0.48499
6702.38994,0.48463
6700.46120,0.48297
6698.53245,0.48237
6696.60371,0.48280
6694.67496,0.48408
6692.74622,0.48739
6690.81747,0.49149
6688.88873,0.49254
6686.95998,0.49085
6685.03123,0.49045
6683.10249,0.49131
6681.17374,0.49019
6679.24500,0.48806
6677.31625,0.48885
6675.38751,0.49264
6673.45876,0.49611
6671.53002,0.49704
6669.60127,0.49607
6667.67253,0.49546
6665.74378,0.49552
6663.81504,0.49520
6661.88629,0.49562
6659.95755,0.49779
6658.02880,0.49990
6656.10006,0.50024
6654.17131,0.50012
6652.24256,0.50034
6650.31382,0.49979
6648.38507,0.49975
6646.45633,0.50089
6644.52758,0.50143
6642.59884,0.50210
6640.67009,0.50401
6638.74135,0.50548
6636.81260,0.50553
6634.88386,0.50580
6632.95511,0.50721
6631.02637,0.50832
6629.09762,0.50781
6627.16888,0.50708
6625.24013,0.50821
6623.31139,0.50980
6621.38264,0.51034
6619.45389,0.51094
6617.52515,0.51113
6615.59640,0.50932
6613.66766,0.50657
6611.73891,0.50567
6609.81017,0.50808
6607.88142,0.51198
6605.95268,0.51444
6604.02393,0.51461
6602.09519,0.51320
6600.16644,0.51220
6598.23770,0.51357
6596.30895,0.51611
6594.38021,0.51802
6592.45146,0.51898
6590.52271,0.51901
6588.59397,0.51855
6586.66522,0.51722
6584.73648,0.51473
6582.80773,0.51281
6580.87899,0.51408
6578.95024,0.51853
6577.02150,0.52298
6575.09275,0.52512
6573.16401,0.52495
6571.23526,0.52319
6569.30652,0.52072
6567.37777,0.51868
6565.44903,0.51793
6563.52028,0.51893
6561.59154,0.52071
6559.66279,0.52155
6557.73404,0.52255
6555.80530,0.52449
6553.87655,0.52550
6551.94781,0.52550
6550.01906,0.52614
6548.09032,0.52752
6546.16157,0.52818
6544.23283,0.52704
6542.30408,0.52434
6540.37534,0.52233
6538.44659,0.52321
6536.51785,0.52563
6534.58910,0.52749
6532.66036,0.52882
6530.73161,0.53021
6528.80287,0.53090
6526.87412,0.53048
6524.94537,0.53091
6523.01663,0.53171
6521.08788,0.53010
6519.15914,0.52872
6517.23039,0.53142
6515.30165,0.53394
6513.37290,0.53136
6511.44416,0.52778
6509.51541,0.52816
6507.58667,0.53058
6505.65792,0.53147
6503.72918,0.53049
6501.80043,0.52968
6499.87169,0.52999
6497.94294,0.53051
6496.01419,0.53091
6494.08545,0.53037
6492.15670,0.52832
6490.22796,0.52673
6488.29921,0.52758
6486.37047,0.53081
6484.44172,0.53428
6482.51298,0.53537
6480.58423,0.53404
6478.65549,0.53226
6476.72674,0.53121
6474.79800,0.53118
6472.86925,0.53238
6470.94051,0.53347
6469.01176,0.53210
6467.08302,0.52924
6465.15427,0.52834
6463.22552,0.53016
6461.29678,0.53177
6459.36803,0.53052
6457.43929,0.52812
6455.51054,0.52795
6453.58180,0.52991
6451.65305,0.53161
6449.72431,0.53239
6447.79556,0.53284
6445.86682,0.53276
6443.93807,0.53147
6442.00933,0.52988
6440.08058,0.53001
6438.15184,0.53113
6436.22309,0.53168
6434.29434,0.53252
6432.36560,0.53367
6430.43685,0.53380
6428.50811,0.53345
6426.57936,0.53297
6424.65062,0.53173
6422.72187,0.53095
6420.79313,0.53121
6418.86438,0.53135
6416.93564,0.53199
6415.00689,0.53429
6413.07815,0.53698
6411.14940,0.53784
6409.22066,0.53742
6407.29191,0.53738
6405.36317,0.53719
6403.43442,0.53679
6401.50567,0.53724
6399.57693,0.53807
6397.64818,0.53791
6395.71944,0.53640
6393.79069,0.53532
6391.86195,0.53653
6389.93320,0.53909
6388.00446,0.54056
6386.07571,0.54099
6384.14697,0.54181
6382.21822,0.54190
6380.28948,0.54080
6378.36073,0.54006
6376.43199,0.54043
6374.50324,0.54190
6372.57450,0.54296
6370.64575,0.54217
6368.71700,0.54088
6366.78826,0.54138
6364.85951,0.54315
6362.93077,0.54309
6361.00202,0.54159
6359.07328,0.54153
6357.14453,0.54304
6355.21579,0.54517
6353.28704,0.54672
6351.35830,0.54613
6349.42955,0.54406
6347.50081,0.54351
6345.57206,0.54505
6343.64332,0.54566
6341.71457,0.54480
6339.78582,0.54474
6337.85708,0.54541
6335.92833,0.54568
6333.99959,0.54560
6332.07084,0.54523
6330.14210,0.54532
6328.21335,0.54624
6326.28461,0.54706
6324.35586,0.54827
6322.42712,0.54975
6320.49837,0.54967
6318.56963,0.54834
6316.64088,0.54641
6314.71214,0.54460
6312.78339,0.54504
6310.85465,0.54670
6308.92590,0.54688
6306.99715,0.54641
6305.06841,0.54669
6303.13966,0.54790
6301.21092,0.55011
6299.28217,0.55202
6297.35343,0.55180
6295.42468,0.54978
6293.49594,0.54855
6291.56719,0.54973
6289.63845,0.55195
6287.70970,0.55259
6285.78096,0.55071
6283.85221,0.54919
6281.92347,0.55066
6279.99472,0.55302
6278.06598,0.55415
6276.13723,0.55419
6274.20848,0.55372
6272.27974,0.55424
6270.35099,0.55535
6268.42225,0.55525
6266.49350,0.55446
6264.56476,0.55376
6262.63601,0.55425
6260.70727,0.55666
6258.77852,0.55844
6256.84978,0.55803
6254.92103,0.55754
6252.99229,0.55785
6251.06354,0.55784
6249.13480,0.55816
6247.20605,0.55957
6245.27730,0.56090
6243.34856,0.56210
6241.41981,0.56332
6239.49107,0.56382
6237.56232,0.56454
6235.63358,0.56593
6233.70483,0.56616
6231.77609,0.56517
6229.84734,0.56446
6227.91860,0.56369
6225.98985,0.56330
6224.06111,0.56468
6222.13236,0.56686
6220.20362,0.56817
6218.27487,0.56821
6216.34613,0.56788
6214.41738,0.56735
6212.48863,0.56613
6210.55989,0.56550
6208.63114,0.56561
6206.70240,0.56497
6204.77365,0.56450
6202.84491,0.56540
6200.91616,0.56676
6198.98742,0.56779
6197.05867,0.56790
6195.12993,0.56674
6193.20118,0.56523
6191.27244,0.56386
6189.34369,0.56229
6187.41495,0.56061
6185.48620,0.55941
6183.55746,0.55910
6181.62871,0.55914
6179.69996,0.55811
6177.77122,0.55518
6175.84247,0.55207
6173.91373,0.55104
6171.98498,0.55149
6170.05624,0.55251
6168.12749,0.55414
6166.19875,0.55445
6164.27000,0.55181
6162.34126,0.54875
6160.41251,0.54881
6158.48377,0.55127
6156.55502,0.55322
6154.62628,0.55429
6152.69753,0.55503
6150.76878,0.55530
6148.84004,0.55618
6146.91129,0.55839
6144.98255,0.56027
6143.05380,0.56090
6141.12506,0.56163
6139.19631,0.56268
6137.26757,0.56292
6135.33882,0.56299
6133.41008,0.56345
6131.48133,0.56375
6129.55259,0.56449
6127.62384,0.56545
6125.69510,0.56524
6123.76635,0.56419
6121.83761,0.56398
6119.90886,0.56501
6117.98011,0.56586
6116.05137,0.56548
6114.12262,0.56430
6112.19388,0.56325
6110.26513,0.56269
6108.33639,0.56187
6106.40764,0.56099
6104.47890,0.56113
6102.55015,0.56176
6100.62141,0.56183
6098.69266,0.56101
6096.76392,0.55936
6094.83517,0.55756
6092.90643,0.55609
6090.97768,0.55453
6089.04893,0.55285
6087.12019,0.55246
6085.19144,0.55323
6083.26270,0.55214
6081.33395,0.54894
6079.40521,0.54614
6077.47646,0.54375
6075.54772,0.54159
6073.61897,0.54067
6071.69023,0.53991
6069.76148,0.53716
6067.83274,0.53299
6065.90399,0.52998
6063.97525,0.52865
6062.04650,0.52758
6060.11776,0.52597
6058.18901,0.52349
6056.26026,0.52006
6054.33152,0.51624
6052.40277,0.51326
6050.47403,0.51104
6048.54528,0.50746
6046.61654,0.50322
6044.68779,0.50085
6042.75905,0.49805
6040.83030,0.49255
6038.90156,0.48797
6036.97281,0.48535
6035.04407,0.48161
6033.11532,0.47745
6031.18658,0.47461
6029.25783,0.47191
6027.32909,0.46829
6025.40034,0.46396
6023.47159,0.45950
6021.54285,0.45538
6019.61410,0.45201
6017.68536,0.44902
6015.75661,0.44546
6013.82787,0.44184
6011.89912,0.43913
6009.97038,0.43746
6008.04163,0.43584
6006.11289,0.43276
6004.18414,0.42887
6002.25540,0.42558
6000.32665,0.42248
5998.39791,0.41914
5996.46916,0.41631
5994.54041,0.41464
5992.61167,0.41348
5990.68292,0.41220
5988.75418,0.41098
5986.82543,0.40945
5984.89669,0.40825
5982.96794,0.40766
5981.03920,0.40559
5979.11045,0.40253
5977.18171,0.40158
5975.25296,0.40244
5973.32422,0.40265
5971.39547,0.40228
5969.46673,0.40204
5967.53798,0.40160
5965.60924,0.40169
5963.68049,0.40215
5961.75174,0.40148
5959.82300,0.40054
5957.89425,0.40041
5955.96551,0.40041
5954.03676,0.40020
5952.10802,0.39979
5950.17927,0.39895
5948.25053,0.39778
5946.32178,0.39684
5944.39304,0.39638
5942.46429,0.39640
5940.53555,0.39690
5938.60680,0.39691
5936.67806,0.39588
5934.74931,0.39518
5932.82057,0.39554
5930.89182,0.39613
5928.96307,0.39664
5927.03433,0.39734
5925.10558,0.39691
5923.17684,0.39394
5921.24809,0.39064
5919.31935,0.39009
5917.39060,0.39124
5915.46186,0.39164
5913.53311,0.39099
5911.60437,0.38997
5909.67562,0.38953
5907.74688,0.39046
5905.81813,0.39186
5903.88939,0.39201
5901.96064,0.39096
5900.03189,0.38983
5898.10315,0.38919
5896.17440,0.38920
5894.24566,0.38925
5892.31691,0.38860
5890.38817,0.38816
5888.45942,0.38858
5886.53068,0.38900
5884.60193,0.38939
5882.67319,0.38988
5880.74444,0.38952
5878.81570,0.38866
5876.88695,0.38813
5874.95821,0.38729
5873.02946,0.38614
5871.10072,0.38542
5869.17197,0.38509
5867.24322,0.38506
5865.31448,0.38506
5863.38573,0.38508
5861.45699,0.38553
5859.52824,0.38598
5857.59950,0.38598
5855.67075,0.38552
5853.74201,0.38453
5851.81326,0.38370
5849.88452,0.38361
5847.95577,0.38411
5846.02703,0.38482
5844.09828,0.38487
5842.16954,0.38402
5840.24079,0.38251
5838.31205,0.38065
5836.38330,0.37946
5834.45455,0.37871
5832.52581,0.37764
5830.59706,0.37718
5828.66832,0.37731
5826.73957,0.37607
5824.81083,0.37301
5822.88208,0.37032
5820.95334,0.36926
5819.02459,0.36870
5817.09585,0.36788
5815.16710,0.36706
5813.23836,0.36653
5811.30961,0.36605
5809.38087,0.36558
5807.45212,0.36562
5805.52337,0.36600
5803.59463,0.36612
5801.66588,0.36602
5799.73714,0.36652
5797.80839,0.36825
5795.87965,0.37009
5793.95090,0.37071
5792.02216,0.37040
5790.09341,0.37009
5788.16467,0.37027
5786.23592,0.37081
5784.30718,0.37106
5782.37843,0.37067
5780.44969,0.37092
5778.52094,0.37298
5776.59220,0.37546
5774.66345,0.37661
5772.73470,0.37675
5770.80596,0.37725
5768.87721,0.37946
5766.94847,0.38291
5765.01972,0.38526
5763.09098,0.38596
5761.16223,0.38671
5759.23349,0.38840
5757.30474,0.39034
5755.37600,0.39132
5753.44725,0.39096
5751.51851,0.39067
5749.58976,0.39171
5747.66102,0.39373
5745.73227,0.39609
5743.80352,0.39828
5741.87478,0.40000
5739.94603,0.40174
5738.01729,0.40341
5736.08854,0.40425
5734.15980,0.40470
5732.23105,0.40519
5730.30231,0.40575
5728.37356,0.40706
5726.44482,0.40919
5724.51607,0.41089
5722.58733,0.41128
5720.65858,0.41134
5718.72984,0.41217
5716.80109,0.41319
5714.87235,0.41419
5712.94360,0.41554
5711.01485,0.41676
5709.08611,0.41762
5707.15736,0.41882
5705.22862,0.42069
5703.29987,0.42271
5701.37113,0.42454
5699.44238,0.42581
5697.51364,0.42539
5695.58489,0.42403
5693.65615,0.42397
5691.72740,0.42490
5689.79866,0.42537
5687.86991,0.42581
5685.94117,0.42669
5684.01242,0.42769
5682.08368,0.42842
5680.15493,0.42823
5678.22618,0.42708
5676.29744,0.42631
5674.36869,0.42672
5672.43995,0.42715
5670.51120,0.42724
5668.58246,0.42812
5666.65371,0.42936
5664.72497,0.43018
5662.79622,0.43110
5660.86748,0.43196
5658.93873,0.43205
5657.00999,0.43202
5655.08124,0.43302
5653.15250,0.43471
5651.22375,0.43618
5649.29500,0.43752
5647.36626,0.43843
5645.43751,0.43835
5643.50877,0.43828
5641.58002,0.43949
5639.65128,0.44110
5637.72253,0.44173
5635.79379,0.44156
5633.86504,0.44119
5631.93630,0.44094
5630.00755,0.44145
5628.07881,0.44307
5626.15006,0.44469
5624.22132,0.44465
5622.29257,0.44370
5620.36383,0.44407
5618.43508,0.44567
5616.50633,0.44667
5614.57759,0.44679
5612.64884,0.44740
5610.72010,0.44833
5608.79135,0.44822
5606.86261,0.44753
5604.93386,0.44734
5603.00512,0.44748
5601.07637,0.44775
5599.14763,0.44790
5597.21888,0.44758
5595.29014,0.44749
5593.36139,0.44817
5591.43265,0.44900
5589.50390,0.44947
5587.57516,0.44961
5585.64641,0.44957
5583.71766,0.44973
5581.78892,0.45061
5579.86017,0.45186
5577.93143,0.45222
5576.00268,0.45169
5574.07394,0.45193
5572.14519,0.45305
5570.21645,0.45370
5568.28770,0.45366
5566.35896,0.45393
5564.43021,0.45470
5562.50147,0.45484
5560.57272,0.45435
5558.64398,0.45470
5556.71523,0.45583
5554.78648,0.45654
5552.85774,0.45644
5550.92899,0.45633
5549.00025,0.45705
5547.07150,0.45783
5545.14276,0.45810
5543.21401,0.45911
5541.28527,0.46071
5539.35652,0.46111
5537.42778,0.46067
5535.49903,0.46098
5533.57029,0.46149
5531.64154,0.46105
5529.71280,0.46046
5527.78405,0.46077
5525.85531,0.46166
5523.92656,0.46293
5521.99781,0.46435
5520.06907,0.46514
5518.14032,0.46518
5516.21158,0.46511
5514.28283,0.46562
5512.35409,0.46634
5510.42534,0.46657
5508.49660,0.46655
5506.56785,0.46683
5504.63911,0.46771
5502.71036,0.46861
5500.78162,0.46895
5498.85287,0.46951
5496.92413,0.47057
5494.99538,0.47141
5493.06664,0.47175
5491.13789,0.47188
5489.20914,0.47196
5487.28040,0.47188
5485.35165,0.47201
5483.42291,0.47260
5481.49416,0.47328
5479.56542,0.47372
5477.63667,0.47372
5475.70793,0.47387
5473.77918,0.47465
5471.85044,0.47512
5469.92169,0.47539
5467.99295,0.47675
5466.06420,0.47850
5464.13546,0.47932
5462.20671,0.47925
5460.27796,0.47902
5458.34922,0.47921
5456.42047,0.47959
5454.49173,0.47977
5452.56298,0.48006
5450.63424,0.48107
5448.70549,0.48250
5446.77675,0.48332
5444.84800,0.48354
5442.91926,0.48368
5440.99051,0.48423
5439.06177,0.48545
5437.13302,0.48672
5435.20428,0.48807
5433.27553,0.48954
5431.34679,0.49004
5429.41804,0.48930
5427.48929,0.48835
5425.56055,0.48859
5423.63180,0.49024
5421.70306,0.49218
5419.77431,0.49391
5417.84557,0.49569
5415.91682,0.49688
5413.98808,0.49645
5412.05933,0.49528
5410.13059,0.49538
5408.20184,0.49658
5406.27310,0.49715
5404.34435,0.49660
5402.41561,0.49580
5400.48686,0.49607
5398.55811,0.49778
5396.62937,0.49918
5394.70062,0.49912
5392.77188,0.49856
5390.84313,0.49805
5388.91439,0.49790
5386.98564,0.49848
5385.05690,0.49917
5383.12815,0.49960
5381.19941,0.49972
5379.27066,0.49939
5377.34192,0.49888
5375.41317,0.49814
5373.48443,0.49712
5371.55568,0.49636
5369.62694,0.49613
5367.69819,0.49629
5365.76944,0.49667
5363.84070,0.49674
5361.91195,0.49591
5359.98321,0.49458
5358.05446,0.49376
5356.12572,0.49371
5354.19697,0.49399
5352.26823,0.49381
5350.33948,0.49291
5348.41074,0.49188
5346.48199,0.49136
5344.55325,0.49135
5342.62450,0.49075
5340.69576,0.48905
5338.76701,0.48739
5336.83827,0.48650
5334.90952,0.48582
5332.98077,0.48455
5331.05203,0.48244
5329.12328,0.48023
5327.19454,0.47869
5325.26579,0.47730
5323.33705,0.47488
5321.40830,0.47138
5319.47956,0.46803
5317.55081,0.46590
5315.62207,0.46468
5313.69332,0.46288
5311.76458,0.45980
5309.83583,0.45604
5307.90709,0.45211
5305.97834,0.44813
5304.04959,0.44441
5302.12085,0.44107
5300.19210,0.43761
5298.26336,0.43350
5296.33461,0.42881
5294.40587,0.42376
5292.47712,0.41879
5290.54838,0.41420
5288.61963,0.40904
5286.69089,0.40262
5284.76214,0.39613
5282.83340,0.39072
5280.90465,0.38577
5278.97591,0.38011
5277.04716,0.37356
5275.11842,0.36704
5273.18967,0.36081
5271.26092,0.35451
5269.33218,0.34852
5267.40343,0.34308
5265.47469,0.33743
5263.54594,0.33111
5261.61720,0.32480
5259.68845,0.31957
5257.75971,0.31554
5255.83096,0.31173
5253.90222,0.30725
5251.97347,0.30252
5250.04473,0.29843
5248.11598,0.29533
5246.18724,0.29290
5244.25849,0.29036
5242.32975,0.28745
5240.40100,0.28465
5238.47225,0.28195
5236.54351,0.27912
5234.61476,0.27683
5232.68602,0.27570
5230.75727,0.27509
5228.82853,0.27397
5226.89978,0.27233
5224.97104,0.27096
5223.04229,0.27063
5221.11355,0.27077
5219.18480,0.27017
5217.25606,0.26901
5215.32731,0.26798
5213.39857,0.26715
5211.46982,0.26691
5209.54107,0.26725
5207.61233,0.26725
5205.68358,0.26672
5203.75484,0.26658
5201.82609,0.26728
5199.89735,0.26804
5197.96860,0.26805
5196.03986,0.26771
5194.11111,0.26772
5192.18237,0.26816
5190.25362,0.26953
5188.32488,0.27164
5186.39613,0.27292
5184.46739,0.27321
5182.53864,0.27392
5180.60990,0.27498
5178.68115,0.27595
5176.75240,0.27734
5174.82366,0.27876
5172.89491,0.27967
5170.96617,0.28052
5169.03742,0.28131
5167.10868,0.28198
5165.17993,0.28312
5163.25119,0.28453
5161.32244,0.28573
5159.39370,0.28691
5157.46495,0.28837
5155.53621,0.29005
5153.60746,0.29133
5151.67872,0.29204
5149.74997,0.29344
5147.82123,0.29577
5145.89248,0.29750
5143.96373,0.29862
5142.03499,0.30015
5140.10624,0.30189
5138.17750,0.30357
5136.24875,0.30523
5134.32001,0.30646
5132.39126,0.30725
5130.46252,0.30820
5128.53377,0.30965
5126.60503,0.31121
5124.67628,0.31243
5122.74754,0.31352
5120.81879,0.31489
5118.89005,0.31660
5116.96130,0.31844
5115.03255,0.32028
5113.10381,0.32190
5111.17506,0.32327
5109.24632,0.32484
5107.31757,0.32666
5105.38883,0.32818
5103.46008,0.32932
5101.53134,0.33054
5099.60259,0.33230
5097.67385,0.33437
5095.74510,0.33591
5093.81636,0.33691
5091.88761,0.33791
5089.95887,0.33916
5088.03012,0.34072
5086.10138,0.34235
5084.17263,0.34404
5082.24388,0.34584
5080.31514,0.34710
5078.38639,0.34809
5076.45765,0.34966
5074.52890,0.35125
5072.60016,0.35230
5070.67141,0.35324
5068.74267,0.35433
5066.81392,0.35585
5064.88518,0.35756
5062.95643,0.35860
5061.02769,0.35944
5059.09894,0.36078
5057.17020,0.36221
5055.24145,0.36367
5053.31270,0.36524
5051.38396,0.36628
5049.45521,0.36691
5047.52647,0.36827
5045.59772,0.37006
5043.66898,0.37090
5041.74023,0.37096
5039.81149,0.37118
5037.88274,0.37206
5035.95400,0.37372
5034.02525,0.37530
5032.09651,0.37606
5030.16776,0.37635
5028.23902,0.37681
5026.31027,0.37763
5024.38153,0.37859
5022.45278,0.37927
5020.52403,0.37956
5018.59529,0.37998
5016.66654,0.38048
5014.73780,0.38064
5012.80905,0.38122
5010.88031,0.38261
5008.95156,0.38350
5007.02282,0.38326
5005.09407,0.38311
5003.16533,0.38361
5001.23658,0.38386
4999.30784,0.38365
4997.37909,0.38351
4995.45035,0.38332
4993.52160,0.38281
4991.59286,0.38199
4989.66411,0.38109
4987.73536,0.38041
4985.80662,0.38014
4983.87787,0.38007
4981.94913,0.37973
4980.02038,0.37876
4978.09164,0.37748
4976.16289,0.37650
4974.23415,0.37587
4972.30540,0.37518
4970.37666,0.37419
4968.44791,0.37292
4966.51917,0.37155
4964.59042,0.37017
4962.66168,0.36873
4960.73293,0.36725
4958.80418,0.36595
4956.87544,0.36503
4954.94669,0.36419
4953.01795,0.36284
4951.08920,0.36063
4949.16046,0.35787
4947.23171,0.35560
4945.30297,0.35419
4943.37422,0.35292
4941.44548,0.35117
4939.51673,0.34905
4937.58799,0.34689
4935.65924,0.34510
4933.73050,0.34374
4931.80175,0.34236
4929.87301,0.34047
4927.94426,0.33797
4926.01551,0.33513
4924.08677,0.33254
4922.15802,0.33083
4920.22928,0.32978
4918.30053,0.32850
4916.37179,0.32656
4914.44304,0.32440
4912.51430,0.32269
4910.58555,0.32152
4908.65681,0.32026
4906.72806,0.31830
4904.79932,0.31618
4902.87057,0.31492
4900.94183,0.31430
4899.01308,0.31340
4897.08434,0.31209
4895.15559,0.31041
4893.22684,0.30824
4891.29810,0.30611
4889.36935,0.30467
4887.44061,0.30360
4885.51186,0.30243
4883.58312,0.30152
4881.65437,0.30108
4879.72563,0.30045
4877.79688,0.29919
4875.86814,0.29774
4873.93939,0.29660
4872.01065,0.29551
4870.08190,0.29415
4868.15316,0.29306
4866.22441,0.29240
4864.29566,0.29160
4862.36692,0.29058
4860.43817,0.28932
4858.50943,0.28796
4856.58068,0.28718
4854.65194,0.28651
4852.72319,0.28501
4850.79445,0.28334
4848.86570,0.28215
4846.93696,0.28110
4845.00821,0.28019
4843.07947,0.27954
4841.15072,0.27880
4839.22198,0.27779
4837.29323,0.27691
4835.36449,0.27622
4833.43574,0.27526
4831.50699,0.27418
4829.57825,0.27318
4827.64950,0.27216
4825.72076,0.27125
4823.79201,0.27040
4821.86327,0.26950
4819.93452,0.26865
4818.00578,0.26790
4816.07703,0.26706
4814.14829,0.26621
4812.21954,0.26570
4810.29080,0.26525
4808.36205,0.26459
4806.43331,0.26393
4804.50456,0.26325
4802.57582,0.26261
4800.64707,0.26235
4798.71832,0.26239
4796.78958,0.26228
4794.86083,0.26165
4792.93209,0.26064
4791.00334,0.25989
4789.07460,0.25962
4787.14585,0.25952
4785.21711,0.25945
4783.28836,0.25923
4781.35962,0.25875
4779.43087,0.25848
4777.50213,0.25874
4775.57338,0.25885
4773.64464,0.25827
4771.71589,0.25732
4769.78714,0.25651
4767.85840,0.25604
4765.92965,0.25567
4764.00091,0.25489
4762.07216,0.25368
4760.14342,0.25271
4758.21467,0.25226
4756.28593,0.25190
4754.35718,0.25146
4752.42844,0.25077
4750.49969,0.24970
4748.57095,0.24874
4746.64220,0.24788
4744.71346,0.24668
4742.78471,0.24525
4740.85597,0.24406
4738.92722,0.24328
4736.99847,0.24278
4735.06973,0.24224
4733.14098,0.24180
4731.21224,0.24191
4729.28349,0.24206
4727.35475,0.24166
4725.42600,0.24117
4723.49726,0.24094
4721.56851,0.24049
4719.63977,0.23955
4717.71102,0.23863
4715.78228,0.23826
4713.85353,0.23825
4711.92479,0.23805
4709.99604,0.23750
4708.06729,0.23680
4706.13855,0.23611
4704.20980,0.23545
4702.28106,0.23463
4700.35231,0.23345
4698.42357,0.23193
4696.49482,0.23023
4694.56608,0.22869
4692.63733,0.22737
4690.70859,0.22612
4688.77984,0.22494
4686.85110,0.22362
4684.92235,0.22220
4682.99361,0.22111
4681.06486,0.22012
4679.13612,0.21938
4677.20737,0.21943
4675.27862,0.21970
4673.34988,0.21986
4671.42113,0.22042
4669.49239,0.22142
4667.56364,0.22277
4665.63490,0.22437
4663.70615,0.22589
4661.77741,0.22731
4659.84866,0.22910
4657.91992,0.23134
4655.99117,0.23358
4654.06243,0.23562
4652.13368,0.23737
4650.20494,0.23881
4648.27619,0.24012
4646.34745,0.24122
4644.41870,0.24188
4642.48995,0.24202
4640.56121,0.24171
4638.63246,0.24129
4636.70372,0.24073
4634.77497,0.23977
4632.84623,0.23881
4630.91748,0.23805
4628.98874,0.23726
4627.05999,0.23676
4625.13125,0.23678
4623.20250,0.23718
4621.27376,0.23807
4619.34501,0.23953
4617.41627,0.24143
4615.48752,0.24365
4613.55877,0.24603
4611.63003,0.24869
4609.70128,0.25194
4607.77254,0.25558
4605.84379,0.25889
4603.91505,0.26161
4601.98630,0.26405
4600.05756,0.26623
4598.12881,0.26804
4596.20007,0.26957
4594.27132,0.27094
4592.34258,0.27231
4590.41383,0.27362
4588.48509,0.27473
4586.55634,0.27541
4584.62760,0.27537
4582.69885,0.27535
4580.77010,0.27594
4578.84136,0.27646
4576.91261,0.27638
4574.98387,0.27579
4573.05512,0.27515
4571.12638,0.27505
4569.19763,0.27540
4567.26889,0.27600
4565.34014,0.27710
4563.41140,0.27823
4561.48265,0.27866
4559.55391,0.27895
4557.62516,0.27993
4555.69642,0.28117
4553.76767,0.28204
4551.83893,0.28275
4549.91018,0.28370
4547.98143,0.28476
4546.05269,0.28566
4544.12394,0.28615
4542.19520,0.28602
4540.26645,0.28573
4538.33771,0.28584
4536.40896,0.28579
4534.48022,0.28505
4532.55147,0.28401
4530.62273,0.28307
4528.69398,0.28232
4526.76524,0.28155
4524.83649,0.28065
4522.90775,0.27989
4520.97900,0.27911
4519.05025,0.27778
4517.12151,0.27610
4515.19276,0.27462
4513.26402,0.27319
4511.33527,0.27129
4509.40653,0.26900
4507.47778,0.26678
4505.54904,0.26482
4503.62029,0.26286
4501.69155,0.26067
4499.76280,0.25829
4497.83406,0.25591
4495.90531,0.25360
4493.97657,0.25124
4492.04782,0.24890
4490.11908,0.24671
4488.19033,0.24435
4486.26158,0.24140
4484.33284,0.23804
4482.40409,0.23496
4480.47535,0.23229
4478.54660,0.22934
4476.61786,0.22592
4474.68911,0.22245
4472.76037,0.21886
4470.83162,0.21479
4468.90288,0.21015
4466.97413,0.20511
4465.04539,0.19992
4463.11664,0.19464
4461.18790,0.18912
4459.25915,0.18328
4457.33041,0.17729
4455.40166,0.17153
4453.47291,0.16638
4451.54417,0.16160
4449.61542,0.15641
4447.68668,0.15078
4445.75793,0.14563
4443.82919,0.14125
4441.90044,0.13685
4439.97170,0.13213
4438.04295,0.12788
4436.11421,0.12467
4434.18546,0.12212
4432.25672,0.11963
4430.32797,0.11718
4428.39923,0.11494
4426.47048,0.11283
4424.54173,0.11104
4422.61299,0.10993
4420.68424,0.10942
4418.75550,0.10907
4416.82675,0.10858
4414.89801,0.10793
4412.96926,0.10749
4411.04052,0.10767
4409.11177,0.10820
4407.18303,0.10826
4405.25428,0.10792
4403.32554,0.10797
4401.39679,0.10839
4399.46805,0.10895
4397.53930,0.10975
4395.61056,0.11033
4393.68181,0.11027
4391.75306,0.11004
4389.82432,0.11008
4387.89557,0.10991
4385.96683,0.10901
4384.03808,0.10800
4382.10934,0.10734
4380.18059,0.10675
4378.25185,0.10601
4376.32310,0.10514
4374.39436,0.10423
4372.46561,0.10349
4370.53687,0.10304
4368.60812,0.10266
4366.67938,0.10205
4364.75063,0.10131
4362.82189,0.10056
4360.89314,0.09980
4358.96439,0.09916
4357.03565,0.09907
4355.10690,0.09960
4353.17816,0.10020
4351.24941,0.10034
4349.32067,0.10015
4347.39192,0.10014
4345.46318,0.10022
4343.53443,0.10008
4341.60569,0.09998
4339.67694,0.10023
4337.74820,0.10081
4335.81945,0.10135
4333.89071,0.10153
4331.96196,0.10171
4330.03321,0.10231
4328.10447,0.10300
4326.17572,0.10336
4324.24698,0.10341
4322.31823,0.10345
4320.38949,0.10375
4318.46074,0.10432
4316.53200,0.10497
4314.60325,0.10565
4312.67451,0.10638
4310.74576,0.10723
4308.81702,0.10810
4306.88827,0.10872
4304.95953,0.10919
4303.03078,0.10961
4301.10204,0.10972
4299.17329,0.10967
4297.24454,0.10995
4295.31580,0.11025
4293.38705,0.11019
4291.45831,0.11013
4289.52956,0.11008
4287.60082,0.10968
4285.67207,0.10948
4283.74333,0.10988
4281.81458,0.11026
4279.88584,0.11033
4277.95709,0.11022
4276.02835,0.11006
4274.09960,0.11015
4272.17086,0.11048
4270.24211,0.11072
4268.31336,0.11099
4266.38462,0.11138
4264.45587,0.11147
4262.52713,0.11125
4260.59838,0.11118
4258.66964,0.11144
4256.74089,0.11200
4254.81215,0.11266
4252.88340,0.11319
4250.95466,0.11355
4249.02591,0.11382
4247.09717,0.11417
4245.16842,0.11455
4243.23968,0.11487
4241.31093,0.11530
4239.38219,0.11592
4237.45344,0.11643
4235.52469,0.11653
4233.59595,0.11632
4231.66720,0.11626
4229.73846,0.11664
4227.80971,0.11745
4225.88097,0.11844
4223.95222,0.11919
4222.02348,0.11943
4220.09473,0.11936
4218.16599,0.11940
4216.23724,0.11956
4214.30850,0.11992
4212.37975,0.12065
4210.45101,0.12141
4208.52226,0.12180
4206.59352,0.12197
4204.66477,0.12206
4202.73602,0.12199
4200.80728,0.12189
4198.87853,0.12205
4196.94979,0.12234
4195.02104,0.12245
4193.09230,0.12238
4191.16355,0.12234
4189.23481,0.12244
4187.30606,0.12261
4185.37732,0.12270
4183.44857,0.12264
4181.51983,0.12262
4179.59108,0.12247
4177.66234,0.12195
4175.73359,0.12159
4173.80484,0.12161
4171.87610,0.12146
4169.94735,0.12122
4168.01861,0.12132
4166.08986,0.12143
4164.16112,0.12106
4162.23237,0.12045
4160.30363,0.12037
4158.37488,0.12090
4156.44614,0.12127
4154.51739,0.12115
4152.58865,0.12075
4150.65990,0.12016
4148.73116,0.11957
4146.80241,0.11935
4144.87367,0.11961
4142.94492,0.11991
4141.01617,0.11979
4139.08743,0.11952
4137.15868,0.11934
4135.22994,0.11914
4133.30119,0.11910
4131.37245,0.11932
4129.44370,0.11927
4127.51496,0.11897
4125.58621,0.11891
4123.65747,0.11893
4121.72872,0.11861
4119.79998,0.11801
4117.87123,0.11749
4115.94249,0.11713
4114.01374,0.11675
4112.08500,0.11627
4110.15625,0.11571
4108.22750,0.11496
4106.29876,0.11411
4104.37001,0.11340
4102.44127,0.11283
4100.51252,0.11223
4098.58378,0.11161
4096.65503,0.11089
4094.72629,0.10980
4092.79754,0.10835
4090.86880,0.10685
4088.94005,0.10550
4087.01131,0.10435
4085.08256,0.10337
4083.15382,0.10239
4081.22507,0.10110
4079.29632,0.09972
4077.36758,0.09860
4075.43883,0.09750
4073.51009,0.09650
4071.58134,0.09581
4069.65260,0.09512
4067.72385,0.09425
4065.79511,0.09350
4063.86636,0.09311
4061.93762,0.09302
4060.00887,0.09303
4058.08013,0.09300
4056.15138,0.09290
4054.22264,0.09290
4052.29389,0.09300
4050.36515,0.09309
4048.43640,0.09314
4046.50765,0.09318
4044.57891,0.09342
4042.65016,0.09378
4040.72142,0.09387
4038.79267,0.09393
4036.86393,0.09434
4034.93518,0.09463
4033.00644,0.09452
4031.07769,0.09438
4029.14895,0.09452
4027.22020,0.09485
4025.29146,0.09500
4023.36271,0.09499
4021.43397,0.09511
4019.50522,0.09543
4017.57648,0.09568
4015.64773,0.09558
4013.71898,0.09531
4011.79024,0.09535
4009.86149,0.09567
4007.93275,0.09601
4006.00400,0.09630
4004.07526,0.09653
4002.14651,0.09659
4000.21777,0.09653
3998.28902,0.09679
3996.36028,0.09751
3994.43153,0.09829
3992.50279,0.09875
3990.57404,0.09887
3988.64530,0.09881
3986.71655,0.09892
3984.78780,0.09940
3982.85906,0.10010
3980.93031,0.10076
3979.00157,0.10134
3977.07282,0.10181
3975.14408,0.10218
3973.21533,0.10281
3971.28659,0.10390
3969.35784,0.10499
3967.42910,0.10566
3965.50035,0.10628
3963.57161,0.10722
3961.64286,0.10814
3959.71412,0.10881
3957.78537,0.10942
3955.85663,0.11001
3953.92788,0.11069
3951.99913,0.11146
3950.07039,0.11206
3948.14164,0.11250
3946.21290,0.11312
3944.28415,0.11397
3942.35541,0.11475
3940.42666,0.11542
3938.49792,0.11610
3936.56917,0.11652
3934.64043,0.11679
3932.71168,0.11739
3930.78294,0.11821
3928.85419,0.11886
3926.92545,0.11934
3924.99670,0.11980
3923.06795,0.12035
3921.13921,0.12104
3919.21046,0.12193
3917.28172,0.12291
3915.35297,0.12367
3913.42423,0.12428
3911.49548,0.12481
3909.56674,0.12523
3907.63799,0.12573
3905.70925,0.12642
3903.78050,0.12710
3901.85176,0.12749
3899.92301,0.12770
3897.99427,0.12806
3896.06552,0.12856
3894.13678,0.12900
3892.20803,0.12942
3890.27928,0.12984
3888.35054,0.13023
3886.42179,0.13050
3884.49305,0.13050
3882.56430,0.13051
3880.63556,0.13089
3878.70681,0.13164
3876.77807,0.13249
3874.84932,0.13324
3872.92058,0.13390
3870.99183,0.13470
3869.06309,0.13567
3867.13434,0.13654
3865.20560,0.13708
3863.27685,0.13765
3861.34811,0.13859
3859.41936,0.13948
3857.49061,0.14003
3855.56187,0.14075
3853.63312,0.14192
3851.70438,0.14277
3849.77563,0.14302
3847.84689,0.14328
3845.91814,0.14383
3843.98940,0.14462
3842.06065,0.14544
3840.13191,0.14597
3838.20316,0.14611
3836.27442,0.14597
3834.34567,0.14590
3832.41693,0.14610
3830.48818,0.14634
3828.55943,0.14657
3826.63069,0.14694
3824.70194,0.14753
3822.77320,0.14811
3820.84445,0.14827
3818.91571,0.14787
3816.98696,0.14730
3815.05822,0.14706
3813.12947,0.14722
3811.20073,0.14763
3809.27198,0.14814
3807.34324,0.14834
3805.41449,0.14828
3803.48575,0.14843
3801.55700,0.14869
3799.62826,0.14880
3797.69951,0.14877
3795.77076,0.14854
3793.84202,0.14821
3791.91327,0.14795
3789.98453,0.14773
3788.05578,0.14764
3786.12704,0.14765
3784.19829,0.14764
3782.26955,0.14760
3780.34080,0.14740
3778.41206,0.14695
3776.48331,0.14649
3774.55457,0.14617
3772.62582,0.14569
3770.69708,0.14476
3768.76833,0.14369
3766.83959,0.14319
3764.91084,0.14304
3762.98209,0.14263
3761.05335,0.14216
3759.12460,0.14195
3757.19586,0.14185
3755.26711,0.14169
3753.33837,0.14156
3751.40962,0.14130
3749.48088,0.14077
3747.55213,0.14028
3745.62339,0.13970
3743.69464,0.13884
3741.76590,0.13801
3739.83715,0.13727
3737.90841,0.13640
3735.97966,0.13547
3734.05091,0.13471
3732.12217,0.13400
3730.19342,0.13299
3728.26468,0.13156
3726.33593,0.12996
3724.40719,0.12855
3722.47844,0.12725
3720.54970,0.12580
3718.62095,0.12437
3716.69221,0.12307
3714.76346,0.12158
3712.83472,0.11968
3710.90597,0.11758
3708.97723,0.11549
3707.04848,0.11331
3705.11974,0.11104
3703.19099,0.10866
3701.26224,0.10592
3699.33350,0.10282
3697.40475,0.09955
3695.47601,0.09622
3693.54726,0.09296
3691.61852,0.08980
3689.68977,0.08635
3687.76103,0.08248
3685.83228,0.07879
3683.90354,0.07550
3681.97479,0.07244
3680.04605,0.06946
3678.11730,0.06663
3676.18856,0.06427
3674.25981,0.06272
3672.33107,0.06181
3670.40232,0.06085
3668.47357,0.05950
3666.54483,0.05827
3664.61608,0.05748
3662.68734,0.05687
3660.75859,0.05636
3658.82985,0.05590
3656.90110,0.05561
3654.97236,0.05565
3653.04361,0.05573
3651.11487,0.05548
3649.18612,0.05505
3647.25738,0.05478
3645.32863,0.05457
3643.39989,0.05442
3641.47114,0.05442
3639.54239,0.05442
3637.61365,0.05436
3635.68490,0.05442
3633.75616,0.05463
3631.82741,0.05479
3629.89867,0.05460
3627.96992,0.05394
3626.04118,0.05350
3624.11243,0.05368
3622.18369,0.05417
3620.25494,0.05437
3618.32620,0.05406
3616.39745,0.05380
3614.46871,0.05394
3612.53996,0.05415
3610.61122,0.05418
3608.68247,0.05417
3606.75372,0.05405
3604.82498,0.05367
3602.89623,0.05336
3600.96749,0.05330
3599.03874,0.05319
3597.11000,0.05302
3595.18125,0.05312
3593.25251,0.05344
3591.32376,0.05353
3589.39502,0.05327
3587.46627,0.05288
3585.53753,0.05280
3583.60878,0.05302
3581.68004,0.05316
3579.75129,0.05316
3577.82254,0.05315
3575.89380,0.05295
3573.96505,0.05267
3572.03631,0.05271
3570.10756,0.05284
3568.17882,0.05263
3566.25007,0.05215
3564.32133,0.05186
3562.39258,0.05204
3560.46384,0.05232
3558.53509,0.05240
3556.60635,0.05233
3554.67760,0.05231
3552.74886,0.05248
3550.82011,0.05275
3548.89137,0.05289
3546.96262,0.05279
3545.03387,0.05263
3543.10513,0.05257
3541.17638,0.05251
3539.24764,0.05251
3537.31889,0.05260
3535.39015,0.05272
3533.46140,0.05271
3531.53266,0.05257
3529.60391,0.05261
3527.67517,0.05273
3525.74642,0.05270
3523.81768,0.05256
3521.88893,0.05245
3519.96019,0.05254
3518.03144,0.05273
3516.10270,0.05279
3514.17395,0.05266
3512.24520,0.05246
3510.31646,0.05238
3508.38771,0.05250
3506.45897,0.05271
3504.53022,0.05287
3502.60148,0.05283
3500.67273,0.05266
3498.74399,0.05257
3496.81524,0.05249
3494.88650,0.05228
3492.95775,0.05214
3491.02901,0.05220
3489.10026,0.05239
3487.17152,0.05258
3485.24277,0.05267
3483.31402,0.05277
3481.38528,0.05294
3479.45653,0.05293
3477.52779,0.05264
3475.59904,0.05218
3473.67030,0.05193
3471.74155,0.05221
3469.81281,0.05261
3467.88406,0.05273
3465.95532,0.05266
3464.02657,0.05264
3462.09783,0.05283
3460.16908,0.05315
3458.24034,0.05316
3456.31159,0.05285
3454.38285,0.05281
3452.45410,0.05297
3450.52535,0.05276
3448.59661,0.05243
3446.66786,0.05236
3444.73912,0.05231
3442.81037,0.05226
3440.88163,0.05249
3438.95288,0.05291
3437.02414,0.05311
3435.09539,0.05299
3433.16665,0.05275
3431.23790,0.05253
3429.30916,0.05234
3427.38041,0.05228
3425.45167,0.05248
3423.52292,0.05269
3421.59418,0.05279
3419.66543,0.05284
3417.73668,0.05287
3415.80794,0.05283
3413.87919,0.05263
3411.95045,0.05247
3410.02170,0.05261
3408.09296,0.05305
3406.16421,0.05357
3404.23547,0.05366
3402.30672,0.05335
3400.37798,0.05333
3398.44923,0.05348
3396.52049,0.05327
3394.59174,0.05301
3392.66300,0.05279
3390.73425,0.05245
3388.80550,0.05239
3386.87676,0.05284
3384.94801,0.05327
3383.01927,0.05325
3381.09052,0.05302
3379.16178,0.05302
3377.23303,0.05331
3375.30429,0.05367
3373.37554,0.05379
3371.44680,0.05362
3369.51805,0.05344
3367.58931,0.05341
3365.66056,0.05333
3363.73182,0.05329
3361.80307,0.05351
3359.87433,0.05376
3357.94558,0.05366
3356.01683,0.05334
3354.08809,0.05310
3352.15934,0.05297
3350.23060,0.05296
3348.30185,0.05305
3346.37311,0.05316
3344.44436,0.05330
3342.51562,0.05353
3340.58687,0.05362
3338.65813,0.05338
3336.72938,0.05305
3334.80064,0.05286
3332.87189,0.05295
3330.94315,0.05320
3329.01440,0.05324
3327.08566,0.05319
3325.15691,0.05331
3323.22816,0.05351
3321.29942,0.05376
3319.37067,0.05387
3317.44193,0.05351
3315.51318,0.05303
3313.58444,0.05300
3311.65569,0.05340
3309.72695,0.05387
3307.79820,0.05408
3305.86946,0.05378
3303.94071,0.05334
3302.01197,0.05340
3300.08322,0.05382
3298.15448,0.05397
3296.22573,0.05374
3294.29698,0.05355
3292.36824,0.05350
3290.43949,0.05335
3288.51075,0.05317
3286.58200,0.05326
3284.65326,0.05351
3282.72451,0.05359
3280.79577,0.05361
3278.86702,0.05368
3276.93828,0.05360
3275.00953,0.05344
3273.08079,0.05346
3271.15204,0.05384
3269.22330,0.05435
3267.29455,0.05444
3265.36581,0.05423
3263.43706,0.05423
3261.50831,0.05427
3259.57957,0.05387
3257.65082,0.05335
3255.72208,0.05345
3253.79333,0.05409
3251.86459,0.05455
3249.93584,0.05441
3248.00710,0.05395
3246.07835,0.05368
3244.14961,0.05354
3242.22086,0.05332
3240.29212,0.05320
3238.36337,0.05314
3236.43463,0.05302
3234.50588,0.05325
3232.57713,0.05399
3230.64839,0.05460
3228.71964,0.05455
3226.79090,0.05397
3224.86215,0.05352
3222.93341,0.05359
3221.00466,0.05398
3219.07592,0.05439
3217.14717,0.05465
3215.21843,0.05461
3213.28968,0.05428
3211.36094,0.05404
3209.43219,0.05411
3207.50345,0.05419
3205.57470,0.05407
3203.64596,0.05395
3201.71721,0.05403
3199.78846,0.05408
3197.85972,0.05384
3195.93097,0.05355
3194.00223,0.05352
3192.07348,0.05371
3190.14474,0.05389
3188.21599,0.05387
3186.28725,0.05376
3184.35850,0.05376
3182.42976,0.05389
3180.50101,0.05408
3178.57227,0.05423
3176.64352,0.05418
3174.71478,0.05399
3172.78603,0.05388
3170.85729,0.05398
3168.92854,0.05432
3166.99979,0.05468
3165.07105,0.05475
3163.14230,0.05462
3161.21356,0.05452
3159.28481,0.05455
3157.35607,0.05464
3155.42732,0.05456
3153.49858,0.05434
3151.56983,0.05401
3149.64109,0.05361
3147.71234,0.05347
3145.78360,0.05370
3143.85485,0.05396
3141.92611,0.05414
3139.99736,0.05428
3138.06861,0.05423
3136.13987,0.05405
3134.21112,0.05399
3132.28238,0.05412
3130.35363,0.05422
3128.42489,0.05415
3126.49614,0.05412
3124.56740,0.05424
3122.63865,0.05419
3120.70991,0.05379
3118.78116,0.05348
3116.85242,0.05359
3114.92367,0.05385
3112.99493,0.05405
3111.06618,0.05417
3109.13744,0.05408
3107.20869,0.05387
3105.27994,0.05371
3103.35120,0.05351
3101.42245,0.05321
3099.49371,0.05305
3097.56496,0.05311
3095.63622,0.05323
3093.70747,0.05338
3091.77873,0.05346
3089.84998,0.05341
3087.92124,0.05339
3085.99249,0.05345
3084.06375,0.05344
3082.13500,0.05340
3080.20626,0.05345
3078.27751,0.05351
3076.34877,0.05347
3074.42002,0.05337
3072.49127,0.05325
3070.56253,0.05320
3068.63378,0.05331
3066.70504,0.05342
3064.77629,0.05325
3062.84755,0.05285
3060.91880,0.05260
3058.99006,0.05269
3057.06131,0.05283
3055.13257,0.05291
3053.20382,0.05308
3051.27508,0.05320
3049.34633,0.05309
3047.41759,0.05296
3045.48884,0.05301
3043.56009,0.05299
3041.63135,0.05286
3039.70260,0.05287
3037.77386,0.05293
3035.84511,0.05287
3033.91637,0.05272
3031.98762,0.05261
3030.05888,0.05275
3028.13013,0.05296
3026.20139,0.05291
3024.27264,0.05288
3022.34390,0.05311
3020.41515,0.05329
3018.48641,0.05317
3016.55766,0.05290
3014.62892,0.05273
3012.70017,0.05266
3010.77142,0.05248
3008.84268,0.05214
3006.91393,0.05181
3004.98519,0.05173
3003.05644,0.05181
3001.12770,0.05169
2999.19895,0.05139
2997.27021,0.05129
2995.34146,0.05128
2993.41272,0.05115
2991.48397,0.05096
2989.55523,0.05075
2987.62648,0.05054
2985.69774,0.05035
2983.76899,0.05023
2981.84025,0.05039
2979.91150,0.05069
2977.98275,0.05069
2976.05401,0.05040
2974.12526,0.05020
2972.19652,0.05017
2970.26777,0.05031
2968.33903,0.05071
2966.41028,0.05100
2964.48154,0.05096
2962.55279,0.05090
2960.62405,0.05107
2958.69530,0.05140
2956.76656,0.05175
2954.83781,0.05194
2952.90907,0.05185
2950.98032,0.05169
2949.05157,0.05171
2947.12283,0.05196
2945.19408,0.05225
2943.26534,0.05246
2941.33659,0.05276
2939.40785,0.05327
2937.47910,0.05397
2935.55036,0.05468
2933.62161,0.05510
2931.69287,0.05534
2929.76412,0.05582
2927.83538,0.05658
2925.90663,0.05736
2923.97789,0.05790
2922.04914,0.05815
2920.12040,0.05838
2918.19165,0.05873
2916.26290,0.05897
2914.33416,0.05881
2912.40541,0.05833
2910.47667,0.05788
2908.54792,0.05760
2906.61918,0.05739
2904.69043,0.05718
2902.76169,0.05681
2900.83294,0.05630
2898.90420,0.05603
2896.97545,0.05603
2895.04671,0.05602
2893.11796,0.05594
2891.18922,0.05591
2889.26047,0.05590
2887.33172,0.05590
2885.40298,0.05597
2883.47423,0.05606
2881.54549,0.05600
2879.61674,0.05575
2877.68800,0.05555
2875.75925,0.05561
2873.83051,0.05590
2871.90176,0.05623
2869.97302,0.05637
2868.04427,0.05629
2866.11553,0.05632
2864.18678,0.05664
2862.25804,0.05689
2860.32929,0.05686
2858.40055,0.05693
2856.47180,0.05730
2854.54305,0.05785
2852.61431,0.05843
2850.68556,0.05898
2848.75682,0.05948
2846.82807,0.05974
2844.89933,0.05959
2842.97058,0.05914
2841.04184,0.05862
2839.11309,0.05808
2837.18435,0.05753
2835.25560,0.05716
2833.32686,0.05707
2831.39811,0.05704
2829.46937,0.05686
2827.54062,0.05667
2825.61188,0.05671
2823.68313,0.05690
2821.75438,0.05697
2819.82564,0.05690
2817.89689,0.05693
2815.96815,0.05699
2814.03940,0.05692
2812.11066,0.05680
2810.18191,0.05671
2808.25317,0.05663
2806.32442,0.05656
2804.39568,0.05642
2802.46693,0.05622
2800.53819,0.05616
2798.60944,0.05629
2796.68070,0.05640
2794.75195,0.05637
2792.82320,0.05636
2790.89446,0.05647
2788.96571,0.05647
2787.03697,0.05645
2785.10822,0.05658
2783.17948,0.05659
2781.25073,0.05641
2779.32199,0.05643
2777.39324,0.05665
2775.46450,0.05663
2773.53575,0.05638
2771.60701,0.05631
2769.67826,0.05637
2767.74952,0.05623
2765.82077,0.05605
2763.89203,0.05606
2761.96328,0.05608
2760.03453,0.05605
2758.10579,0.05603
2756.17704,0.05591
2754.24830,0.05574
2752.31955,0.05578
2750.39081,0.05605
2748.46206,0.05636
2746.53332,0.05655
2744.60457,0.05661
2742.67583,0.05655
2740.74708,0.05645
2738.81834,0.05638
2736.88959,0.05634
2734.96085,0.05629
2733.03210,0.05621
2731.10336,0.05620
2729.17461,0.05636
2727.24586,0.05645
2725.31712,0.05629
2723.38837,0.05622
2721.45963,0.05641
2719.53088,0.05665
2717.60214,0.05675
2715.67339,0.05669
2713.74465,0.05655
2711.81590,0.05648
2709.88716,0.05670
2707.95841,0.05710
2706.02967,0.05729
2704.10092,0.05731
2702.17218,0.05728
2700.24343,0.05716
2698.31468,0.05710
2696.38594,0.05722
2694.45719,0.05743
2692.52845,0.05758
2690.59970,0.05771
2688.67096,0.05795
2686.74221,0.05816
2684.81347,0.05819
2682.88472,0.05808
2680.95598,0.05788
2679.02723,0.05771
2677.09849,0.05772
2675.16974,0.05796
2673.24100,0.05833
2671.31225,0.05863
2669.38351,0.05876
2667.45476,0.05883
2665.52601,0.05892
2663.59727,0.05900
2661.66852,0.05899
2659.73978,0.05898
2657.81103,0.05902
2655.88229,0.05899
2653.95354,0.05902
2652.02480,0.05909
2650.09605,0.05909
2648.16731,0.05921
2646.23856,0.05942
2644.30982,0.05953
2642.38107,0.05960
2640.45233,0.05974
2638.52358,0.05996
2636.59484,0.06017
2634.66609,0.06020
2632.73734,0.06001
2630.80860,0.05991
2628.87985,0.06003
2626.95111,0.06015
2625.02236,0.06017
2623.09362,0.06021
2621.16487,0.06031
2619.23613,0.06028
2617.30738,0.06024
2615.37864,0.06038
2613.44989,0.06046
2611.52115,0.06029
2609.59240,0.06011
2607.66366,0.06020
2605.73491,0.06035
2603.80616,0.06038
2601.87742,0.06041
2599.94867,0.06054
2598.01993,0.06070
2596.09118,0.06071
2594.16244,0.06055
2592.23369,0.06043
2590.30495,0.06029
2588.37620,0.06017
2586.44746,0.06024
2584.51871,0.06037
2582.58997,0.06043
2580.66122,0.06042
2578.73248,0.06034
2576.80373,0.06042
2574.87499,0.06075
2572.94624,0.06094
2571.01749,0.06093
2569.08875,0.06099
2567.16000,0.06111
2565.23126,0.06110
2563.30251,0.06098
2561.37377,0.06087
2559.44502,0.06083
2557.51628,0.06081
2555.58753,0.06076
2553.65879,0.06072
2551.73004,0.06080
2549.80130,0.06103
2547.87255,0.06127
2545.94381,0.06128
2544.01506,0.06111
2542.08631,0.06106
2540.15757,0.06114
2538.22882,0.06120
2536.30008,0.06125
2534.37133,0.06123
2532.44259,0.06121
2530.51384,0.06136
2528.58510,0.06159
2526.65635,0.06175
2524.72761,0.06186
2522.79886,0.06194
2520.87012,0.06208
2518.94137,0.06241
2517.01263,0.06273
2515.08388,0.06281
2513.15514,0.06282
2511.22639,0.06301
2509.29764,0.06324
2507.36890,0.06332
2505.44015,0.06329
2503.51141,0.06328
2501.58266,0.06329
2499.65392,0.06335
2497.72517,0.06343
2495.79643,0.06342
2493.86768,0.06337
2491.93894,0.06339
2490.01019,0.06342
2488.08145,0.06348
2486.15270,0.06369
2484.22396,0.06402
2482.29521,0.06426
2480.36647,0.06433
2478.43772,0.06439
2476.50897,0.06450
2474.58023,0.06459
2472.65148,0.06467
2470.72274,0.06485
2468.79399,0.06510
2466.86525,0.06532
2464.93650,0.06549
2463.00776,0.06560
2461.07901,0.06571
2459.15027,0.06590
2457.22152,0.06620
2455.29278,0.06637
2453.36403,0.06628
2451.43529,0.06617
2449.50654,0.06615
2447.57779,0.06606
2445.64905,0.06593
2443.72030,0.06598
2441.79156,0.06616
2439.86281,0.06628
2437.93407,0.06626
2436.00532,0.06621
2434.07658,0.06618
2432.14783,0.06618
2430.21909,0.06617
2428.29034,0.06619
2426.36160,0.06629
2424.43285,0.06636
2422.50411,0.06637
2420.57536,0.06646
2418.64662,0.06656
2416.71787,0.06657
2414.78912,0.06669
2412.86038,0.06705
2410.93163,0.06749
2409.00289,0.06784
2407.07414,0.06804
2405.14540,0.06805
2403.21665,0.06796
2401.28791,0.06784
2399.35916,0.06778
2397.43042,0.06794
2395.50167,0.06817
2393.57293,0.06820
2391.64418,0.06823
2389.71544,0.06847
2387.78669,0.06872
2385.85795,0.06877
2383.92920,0.06867
2382.00045,0.06862
2380.07171,0.06867
2378.14296,0.06865
2376.21422,0.06855
2374.28547,0.06844
2372.35673,0.06839
2370.42798,0.06860
2368.49924,0.06895
2366.57049,0.06902
2364.64175,0.06876
2362.71300,0.06858
2360.78426,0.06861
2358.85551,0.06872
2356.92677,0.06883
2354.99802,0.06884
2353.06927,0.06877
2351.14053,0.06871
2349.21178,0.06861
2347.28304,0.06852
2345.35429,0.06855
2343.42555,0.06864
2341.49680,0.06876
2339.56806,0.06887
2337.63931,0.06878
2335.71057,0.06859
2333.78182,0.06850
2331.85308,0.06857
2329.92433,0.06864
2327.99559,0.06868
2326.06684,0.06883
2324.13810,0.06905
2322.20935,0.06929
2320.28060,0.06959
2318.35186,0.06984
2316.42311,0.07007
2314.49437,0.07038
2312.56562,0.07073
2310.63688,0.07095
2308.70813,0.07098
2306.77939,0.07103
2304.85064,0.07118
2302.92190,0.07131
2300.99315,0.07136
2299.06441,0.07144
2297.13566,0.07160
2295.20692,0.07180
2293.27817,0.07196
2291.34943,0.07219
2289.42068,0.07256
2287.49193,0.07288
2285.56319,0.07299
2283.63444,0.07300
2281.70570,0.07307
2279.77695,0.07312
2277.84821,0.07311
2275.91946,0.07324
2273.99072,0.07346
2272.06197,0.07358
2270.13323,0.07355
2268.20448,0.07354
2266.27574,0.07375
2264.34699,0.07408
2262.41825,0.07430
2260.48950,0.07437
2258.56075,0.07435
2256.63201,0.07436
2254.70326,0.07445
2252.77452,0.07455
2250.84577,0.07466
2248.91703,0.07478
2246.98828,0.07480
2245.05954,0.07475
2243.13079,0.07474
2241.20205,0.07468
2239.27330,0.07464
2237.34456,0.07473
2235.41581,0.07478
2233.48707,0.07475
2231.55832,0.07486
2229.62958,0.07507
2227.70083,0.07508
2225.77208,0.07486
2223.84334,0.07472
2221.91459,0.07479
2219.98585,0.07496
2218.05710,0.07514
2216.12836,0.07526
2214.19961,0.07526
2212.27087,0.07517
2210.34212,0.07509
2208.41338,0.07508
2206.48463,0.07516
2204.55589,0.07516
2202.62714,0.07500
2200.69840,0.07475
2198.76965,0.07452
2196.84090,0.07435
2194.91216,0.07426
2192.98341,0.07414
2191.05467,0.07395
2189.12592,0.07375
2187.19718,0.07356
2185.26843,0.07336
2183.33969,0.07319
2181.41094,0.07310
2179.48220,0.07296
2177.55345,0.07265
2175.62471,0.07225
2173.69596,0.07187
2171.76722,0.07149
2169.83847,0.07122
2167.90973,0.07101
2165.98098,0.07074
2164.05223,0.07040
2162.12349,0.06991
2160.19474,0.06928
2158.26600,0.06873
2156.33725,0.06852
2154.40851,0.06848
2152.47976,0.06825
2150.55102,0.06783
2148.62227,0.06736
2146.69353,0.06693
2144.76478,0.06664
2142.83604,0.06638
2140.90729,0.06600
2138.97855,0.06555
2137.04980,0.06521
2135.12106,0.06507
2133.19231,0.06507
2131.26356,0.06507
2129.33482,0.06501
2127.40607,0.06483
2125.47733,0.06454
2123.54858,0.06423
2121.61984,0.06400
2119.69109,0.06382
2117.76235,0.06364
2115.83360,0.06351
2113.90486,0.06340
2111.97611,0.06314
2110.04737,0.06287
2108.11862,0.06277
2106.18988,0.06269
2104.26113,0.06254
2102.33238,0.06233
2100.40364,0.06216
2098.47489,0.06208
2096.54615,0.06199
2094.61740,0.06179
2092.68866,0.06162
2090.75991,0.06159
2088.83117,0.06157
2086.90242,0.06150
2084.97368,0.06143
2083.04493,0.06133
2081.11619,0.06117
2079.18744,0.06101
2077.25870,0.06099
2075.32995,0.06112
2073.40121,0.06118
2071.47246,0.06096
2069.54371,0.06069
2067.61497,0.06075
2065.68622,0.06098
2063.75748,0.06108
2061.82873,0.06115
2059.89999,0.06130
2057.97124,0.06143
2056.04250,0.06144
2054.11375,0.06145
2052.18501,0.06156
2050.25626,0.06170
2048.32752,0.06194
2046.39877,0.06220
2044.47003,0.06215
2042.54128,0.06179
2040.61254,0.06151
2038.68379,0.06146
2036.75504,0.06150
2034.82630,0.06149
2032.89755,0.06131
2030.96881,0.06101
2029.04006,0.06079
2027.11132,0.06067
2025.18257,0.06056
2023.25383,0.06045
2021.32508,0.06038
2019.39634,0.06035
2017.46759,0.06041
2015.53885,0.06063
2013.61010,0.06080
2011.68136,0.06074
2009.75261,0.06052
2007.82386,0.06033
2005.89512,0.06022
2003.96637,0.06013
2002.03763,0.06004
2000.10888,0.05998
1998.18014,0.05983
1996.25139,0.05967
1994.32265,0.05959
1992.39390,0.05946
1990.46516,0.05937
1988.53641,0.05954
1986.60767,0.05974
1984.67892,0.05978
1982.75018,0.05969
1980.82143,0.05963
1978.89269,0.05970
1976.96394,0.05982
1975.03519,0.05981
1973.10645,0.05973
1971.17770,0.05965
1969.24896,0.05949
1967.32021,0.05924
1965.39147,0.05907
1963.46272,0.05904
1961.53398,0.05898
1959.60523,0.05885
1957.67649,0.05877
1955.74774,0.05866
1953.81900,0.05856
1951.89025,0.05868
1949.96151,0.05892
1948.03276,0.05915
1946.10402,0.05945
1944.17527,0.05982
1942.24652,0.06006
1940.31778,0.06023
1938.38903,0.06043
1936.46029,0.06060
1934.53154,0.06068
1932.60280,0.06065
1930.67405,0.06061
1928.74531,0.06071
1926.81656,0.06088
1924.88782,0.06096
1922.95907,0.06083
1921.03033,0.06059
1919.10158,0.06046
1917.17284,0.06045
1915.24409,0.06046
1913.31534,0.06049
1911.38660,0.06038
1909.45785,0.05996
1907.52911,0.05945
1905.60036,0.05909
1903.67162,0.05881
1901.74287,0.05849
1899.81413,0.05814
1897.88538,0.05776
1895.95664,0.05740
1894.02789,0.05723
1892.09915,0.05718
1890.17040,0.05702
1888.24166,0.05680
1886.31291,0.05660
1884.38417,0.05645
1882.45542,0.05648
1880.52667,0.05658
1878.59793,0.05654
1876.66918,0.05646
1874.74044,0.05638
1872.81169,0.05617
1870.88295,0.05596
1868.95420,0.05587
1867.02546,0.05572
1865.09671,0.05542
1863.16797,0.05512
1861.23922,0.05506
1859.31048,0.05516
1857.38173,0.05508
1855.45299,0.05485
1853.52424,0.05459
1851.59549,0.05430
1849.66675,0.05408
1847.73800,0.05393
1845.80926,0.05366
1843.88051,0.05328
1841.95177,0.05301
1840.02302,0.05288
1838.09428,0.05267
1836.16553,0.05224
1834.23679,0.05177
1832.30804,0.05145
1830.37930,0.05113
1828.45055,0.05069
1826.52181,0.05021
1824.59306,0.04977
1822.66432,0.04946
1820.73557,0.04923
1818.80682,0.04888
1816.87808,0.04846
1814.94933,0.04816
1813.02059,0.04792
1811.09184,0.04758
1809.16310,0.04728
1807.23435,0.04706
1805.30561,0.04665
1803.37686,0.04610
1801.44812,0.04580
1799.51937,0.04577
1797.59063,0.04560
1795.66188,0.04521
1793.73314,0.04489
1791.80439,0.04478
1789.87565,0.04474
1787.94690,0.04461
1786.01815,0.04444
1784.08941,0.04427
1782.16066,0.04397
1780.23192,0.04355
1778.30317,0.04322
1776.37443,0.04291
1774.44568,0.04243
1772.51694,0.04179
1770.58819,0.04119
1768.65945,0.04075
1766.73070,0.04035
1764.80196,0.03983
1762.87321,0.03912
1760.94447,0.03830
1759.01572,0.03750
1757.08697,0.03662
1755.15823,0.03563
1753.22948,0.03466
1751.30074,0.03388
1749.37199,0.03329
1747.44325,0.03285
1745.51450,0.03285
1743.58576,0.03366
1741.65701,0.03534
1739.72827,0.03789
1737.79952,0.04108
1735.87078,0.04479
1733.94203,0.04909
1732.01329,0.05315
1730.08454,0.05660
1728.15580,0.05989
1726.22705,0.06295
1724.29830,0.06559
1722.36956,0.06759
1720.44081,0.06892
1718.51207,0.06981
1716.58332,0.07004
1714.65458,0.06949
1712.72583,0.06869
1710.79709,0.06792
1708.86834,0.06718
1706.93960,0.06643
1705.01085,0.06564
1703.08211,0.06492
1701.15336,0.06399
1699.22462,0.06274
1697.29587,0.06182
1695.36713,0.06129
1693.43838,0.06091
1691.50963,0.06056
1689.58089,0.06024
1687.65214,0.06010
1685.72340,0.05999
1683.79465,0.05953
1681.86591,0.05900
1679.93716,0.05884
1678.00842,0.05890
1676.07967,0.05884
1674.15093,0.05869
1672.22218,0.05855
1670.29344,0.05824
1668.36469,0.05781
1666.43595,0.05761
1664.50720,0.05758
1662.57845,0.05753
1660.64971,0.05746
1658.72096,0.05743
1656.79222,0.05755
1654.86347,0.05770
1652.93473,0.05750
1651.00598,0.05721
1649.07724,0.05722
1647.14849,0.05721
1645.21975,0.05694
1643.29100,0.05659
1641.36226,0.05636
1639.43351,0.05621
1637.50477,0.05600
1635.57602,0.05585
1633.64728,0.05596
1631.71853,0.05615
1629.78978,0.05608
1627.86104,0.05581
1625.93229,0.05564
1624.00355,0.05555
1622.07480,0.05545
1620.14606,0.05541
1618.21731,0.05540
1616.28857,0.05534
1614.35982,0.05523
1612.43108,0.05515
1610.50233,0.05522
1608.57359,0.05542
1606.64484,0.05555
1604.71610,0.05553
1602.78735,0.05551
1600.85861,0.05547
1598.92986,0.05534
1597.00111,0.05513
1595.07237,0.05499
1593.14362,0.05493
1591.21488,0.05482
1589.28613,0.05463
1587.35739,0.05445
1585.42864,0.05442
1583.49990,0.05455
1581.57115,0.05459
1579.64241,0.05453
1577.71366,0.05440
1575.78492,0.05402
1573.85617,0.05363
1571.92743,0.05350
1569.99868,0.05345
1568.06993,0.05335
1566.14119,0.05327
1564.21244,0.05328
1562.28370,0.05339
1560.35495,0.05338
1558.42621,0.05319
1556.49746,0.05309
1554.56872,0.05304
1552.63997,0.05288
1550.71123,0.05271
1548.78248,0.05263
1546.85374,0.05256
1544.92499,0.05246
1542.99625,0.05244
1541.06750,0.05254
1539.13876,0.05252
1537.21001,0.05238
1535.28126,0.05218
1533.35252,0.05182
1531.42377,0.05149
1529.49503,0.05137
1527.56628,0.05130
1525.63754,0.05117
1523.70879,0.05098
1521.78005,0.05056
1519.85130,0.05002
1517.92256,0.04981
1515.99381,0.04972
1514.06507,0.04952
1512.13632,0.04956
1510.20758,0.05004
1508.27883,0.05071
1506.35008,0.05130
1504.42134,0.05170
1502.49259,0.05187
1500.56385,0.05187
1498.63510,0.05173
1496.70636,0.05138
1494.77761,0.05093
1492.84887,0.05060
1490.92012,0.05036
1488.99138,0.05002
1487.06263,0.04954
1485.13389,0.04899
1483.20514,0.04838
1481.27640,0.04778
1479.34765,0.04745
1477.41891,0.04736
1475.49016,0.04724
1473.56141,0.04720
1471.63267,0.04739
1469.70392,0.04757
1467.77518,0.04765
1465.84643,0.04782
1463.91769,0.04806
1461.98894,0.04826
1460.06020,0.04844
1458.13145,0.04861
1456.20271,0.04878
1454.27396,0.04894
1452.34522,0.04912
1450.41647,0.04943
1448.48773,0.04980
1446.55898,0.05010
1444.63024,0.05027
1442.70149,0.05027
1440.77274,0.05033
1438.84400,0.05047
1436.91525,0.05053
1434.98651,0.05057
1433.05776,0.05062
1431.12902,0.05051
1429.20027,0.05027
1427.27153,0.05004
1425.34278,0.04974
1423.41404,0.04938
1421.48529,0.04902
1419.55655,0.04865
1417.62780,0.04824
1415.69906,0.04795
1413.77031,0.04791
1411.84156,0.04811
1409.91282,0.04848
1407.98407,0.04881
1406.05533,0.04894
1404.12658,0.04897
1402.19784,0.04898
1400.26909,0.04889
1398.34035,0.04872
1396.41160,0.04869
1394.48286,0.04873
1392.55411,0.04864
1390.62537,0.04853
1388.69662,0.04861
1386.76788,0.04871
1384.83913,0.04861
1382.91039,0.04858
1380.98164,0.04878
1379.05289,0.04892
1377.12415,0.04886
1375.19540,0.04878
1373.26666,0.04877
1371.33791,0.04873
1369.40917,0.04863
1367.48042,0.04858
1365.55168,0.04862
1363.62293,0.04861
1361.69419,0.04850
1359.76544,0.04843
1357.83670,0.04840
1355.90795,0.04830
1353.97921,0.04811
1352.05046,0.04787
1350.12172,0.04756
1348.19297,0.04729
1346.26422,0.04717
1344.33548,0.04705
1342.40673,0.04690
1340.47799,0.04681
1338.54924,0.04662
1336.62050,0.04624
1334.69175,0.04588
1332.76301,0.04568
1330.83426,0.04556
1328.90552,0.04540
1326.97677,0.04516
1325.04803,0.04498
1323.11928,0.04488
1321.19054,0.04469
1319.26179,0.04440
1317.33304,0.04407
1315.40430,0.04373
1313.47555,0.04348
1311.54681,0.04334
1309.61806,0.04328
1307.68932,0.04313
1305.76057,0.04281
1303.83183,0.04253
1301.90308,0.04240
1299.97434,0.04239
1298.04559,0.04258
1296.11685,0.04288
1294.18810,0.04307
1292.25936,0.04306
1290.33061,0.04288
1288.40187,0.04267
1286.47312,0.04241
1284.54437,0.04217
1282.61563,0.04204
1280.68688,0.04193
1278.75814,0.04185
1276.82939,0.04193
1274.90065,0.04202
1272.97190,0.04205
1271.04316,0.04218
1269.11441,0.04234
1267.18567,0.04251
1265.25692,0.04276
1263.32818,0.04302
1261.39943,0.04324
1259.47069,0.04349
1257.54194,0.04371
1255.61320,0.04390
1253.68445,0.04421
1251.75570,0.04478
1249.82696,0.04538
1247.89821,0.04571
1245.96947,0.04599
1244.04072,0.04639
1242.11198,0.04672
1240.18323,0.04694
1238.25449,0.04709
1236.32574,0.04724
1234.39700,0.04746
1232.46825,0.04770
1230.53951,0.04781
1228.61076,0.04786
1226.68202,0.04798
1224.75327,0.04813
1222.82452,0.04826
1220.89578,0.04832
1218.96703,0.04827
1217.03829,0.04807
1215.10954,0.04770
1213.18080,0.04744
1211.25205,0.04741
1209.32331,0.04745
1207.39456,0.04756
1205.46582,0.04771
1203.53707,0.04779
1201.60833,0.04801
1199.67958,0.04850
1197.75084,0.04902
1195.82209,0.04937
1193.89335,0.04964
1191.96460,0.05001
1190.03585,0.05060
1188.10711,0.05129
1186.17836,0.05194
1184.24962,0.05268
1182.32087,0.05358
1180.39213,0.05441
1178.46338,0.05493
1176.53464,0.05522
1174.60589,0.05568
1172.67715,0.05635
1170.74840,0.05720
1168.81966,0.05838
1166.89091,0.05971
1164.96217,0.06084
1163.03342,0.06188
1161.10467,0.06299
1159.17593,0.06401
1157.24718,0.06473
1155.31844,0.06526
1153.38969,0.06589
1151.46095,0.06656
1149.53220,0.06691
1147.60346,0.06697
1145.67471,0.06695
1143.74597,0.06685
1141.81722,0.06654
1139.88848,0.06604
1137.95973,0.06555
1136.03099,0.06517
1134.10224,0.06497
1132.17350,0.06505
1130.24475,0.06521
1128.31600,0.06525
1126.38726,0.06539
1124.45851,0.06581
1122.52977,0.06649
1120.60102,0.06731
1118.67228,0.06806
1116.74353,0.06865
1114.81479,0.06913
1112.88604,0.06969
1110.95730,0.07039
1109.02855,0.07108
1107.09981,0.07175
1105.17106,0.07256
1103.24232,0.07342
1101.31357,0.07404
1099.38483,0.07440
1097.45608,0.07467
1095.52733,0.07508
1093.59859,0.07571
1091.66984,0.07638
1089.74110,0.07678
1087.81235,0.07691
1085.88361,0.07714
1083.95486,0.07761
1082.02612,0.07805
1080.09737,0.07839
1078.16863,0.07883
1076.23988,0.07938
1074.31114,0.07978
1072.38239,0.08008
1070.45365,0.08051
1068.52490,0.08088
1066.59615,0.08110
1064.66741,0.08149
1062.73866,0.08184
1060.80992,0.08184
1058.88117,0.08199
1056.95243,0.08234
1055.02368,0.08219
1053.09494,0.08167
1051.16619,0.08140
1049.23745,0.08147
1047.30870,0.08166
1045.37996,0.08188
1043.45121,0.08211
1041.52247,0.08218
1039.59372,0.08190
1037.66498,0.08156
1035.73623,0.08154
1033.80748,0.08159
1031.87874,0.08136
1029.94999,0.08105
1028.02125,0.08086
1026.09250,0.08070
1024.16376,0.08065
1022.23501,0.08071
1020.30627,0.08045
1018.37752,0.07966
1016.44878,0.07890
1014.52003,0.07864
1012.59129,0.07859
1010.66254,0.07846
1008.73380,0.07830
1006.80505,0.07804
1004.87631,0.07750
1002.94756,0.07673
1001.01881,0.07594
999.09007,0.07541
997.16132,0.07512
995.23258,0.07498
993.30383,0.07498
991.37509,0.07501
989.44634,0.07493
987.51760,0.07476
985.58885,0.07469
983.66011,0.07491
981.73136,0.07509
979.80262,0.07508
977.87387,0.07505
975.94513,0.07493
974.01638,0.07472
972.08763,0.07467
970.15889,0.07473
968.23014,0.07468
966.30140,0.07450
964.37265,0.07427
962.44391,0.07414
960.51516,0.07427
958.58642,0.07447
956.65767,0.07446
954.72893,0.07425
952.80018,0.07403
950.87144,0.07385
948.94269,0.07361
947.01395,0.07329
945.08520,0.07319
943.15646,0.07326
941.22771,0.07318
939.29896,0.07301
937.37022,0.07283
935.44147,0.07256
933.51273,0.07226
931.58398,0.07214
929.65524,0.07228
927.72649,0.07254
925.79775,0.07247
923.86900,0.07184
921.94026,0.07112
920.01151,0.07097
918.08277,0.07127
916.15402,0.07124
914.22528,0.07079
912.29653,0.07059
910.36779,0.07076
908.43904,0.07088
906.51029,0.07089
904.58155,0.07084
902.65280,0.07071
900.72406,0.07063
898.79531,0.07056
896.86657,0.07034
894.93782,0.07033
893.00908,0.07069
891.08033,0.07076
889.15159,0.07039
887.22284,0.07018
885.29410,0.07033
883.36535,0.07041
881.43661,0.07012
879.50786,0.06973
877.57911,0.06952
875.65037,0.06960
873.72162,0.06974
871.79288,0.06963
869.86413,0.06937
867.93539,0.06914
866.00664,0.06879
864.07790,0.06837
862.14915,0.06818
860.22041,0.06829
858.29166,0.06842
856.36292,0.06838
854.43417,0.06825
852.50543,0.06806
850.57668,0.06772
848.64794,0.06726
846.71919,0.06677
844.79044,0.06630
842.86170,0.06597
840.93295,0.06567
839.00421,0.06543
837.07546,0.06554
835.14672,0.06593
833.21797,0.06633
831.28923,0.06665
829.36048,0.06691
827.43174,0.06696
825.50299,0.06659
823.57425,0.06608
821.64550,0.06581
819.71676,0.06583
817.78801,0.06605
815.85926,0.06620
813.93052,0.06623
812.00177,0.06646
810.07303,0.06699
808.14428,0.06763
806.21554,0.06812
804.28679,0.06857
802.35805,0.06921
800.42930,0.06958
798.50056,0.06920
796.57181,0.06868
794.64307,0.06848
792.71432,0.06840
790.78558,0.06836
788.85683,0.06830
786.92809,0.06819
784.99934,0.06817
783.07059,0.06821
781.14185,0.06835
779.21310,0.06870
777.28436,0.06896
775.35561,0.06897
773.42687,0.06891
771.49812,0.06870
769.56938,0.06824
767.64063,0.06790
765.71189,0.06793
763.78314,0.06810
761.85440,0.06826
759.92565,0.06835
757.99691,0.06827
756.06816,0.06806
754.13942,0.06771
752.21067,0.06734
750.28192,0.06728
748.35318,0.06747
746.42443,0.06768
744.49569,0.06780
742.56694,0.06757
740.63820,0.06713
738.70945,0.06697
736.78071,0.06736
734.85196,0.06789
732.92322,0.06814
730.99447,0.06857
729.06573,0.06925
727.13698,0.06949
725.20824,0.06952
723.27949,0.06998
721.35074,0.07048
719.42200,0.07038
717.49325,0.06985
715.56451,0.06926
713.63576,0.06875
711.70702,0.06841
709.77827,0.06824
707.84953,0.06792
705.92078,0.06718
703.99204,0.06657
702.06329,0.06682
700.13455,0.06755
698.20580,0.06792
696.27706,0.06789
694.34831,0.06799
692.41957,0.06859
690.49082,0.06965
688.56207,0.07098
686.63333,0.07238
684.70458,0.07343
682.77584,0.07374
680.84709,0.07370
678.91835,0.07369
676.98960,0.07362
675.06086,0.07368
673.13211,0.07395
671.20337,0.07381
669.27462,0.07288
667.34588,0.07181
665.41713,0.07146
663.48839,0.07149
661.55964,0.07123
659.63090,0.07076
657.70215,0.07008
655.77340,0.06887
653.84466,0.06768
651.91591,0.06743
649.98717,0.06792
648.05842,0.06837
646.12968,0.06846
644.20093,0.06810
642.27219,0.06783
640.34344,0.06785
638.41470,0.06732
636.48595,0.06607
634.55721,0.06484
632.62846,0.06419
630.69972,0.06440
628.77097,0.06501
626.84222,0.06490
624.91348,0.06460
622.98473,0.06521
621.05599,0.06567
619.12724,0.06499
617.19850,0.06393
615.26975,0.06324
613.34101,0.06328
611.41226,0.06382
609.48352,0.06458
607.55477,0.06566
605.62603,0.06612
603.69728,0.06538
601.76854,0.06480
599.83979,0.06513
