7497.03301,0.51880
7495.10426,0.51981
7493.17552,0.51896
7491.24677,0.51918
7489.31803,0.51792
7487.38928,0.51181
7485.46054,0.50326
7483.53179,0.50043
7481.60305,0.50734
7479.67430,0.51521
7477.74556,0.51394
7475.81681,0.50710
7473.88807,0.50391
7471.95932,0.50646
7470.03057,0.51071
7468.10183,0.51176
7466.17308,0.50950
7464.24434,0.50661
7462.31559,0.50216
7460.38685,0.49887
7458.45810,0.50246
7456.52936,0.50882
7454.60061,0.51048
7452.67187,0.51001
7450.74312,0.51198
7448.81438,0.51461
7446.88563,0.51496
7444.95689,0.51103
7443.02814,0.50433
7441.09940,0.50244
7439.17065,0.50699
7437.24190,0.50866
7435.31316,0.50493
7433.38441,0.50499
7431.45567,0.50964
7429.52692,0.51154
7427.59818,0.51189
7425.66943,0.51589
7423.74069,0.51965
7421.81194,0.51652
7419.88320,0.50991
7417.95445,0.50460
7416.02571,0.49880
7414.09696,0.49512
7412.16822,0.49909
7410.23947,0.50740
7408.31073,0.51324
7406.38198,0.51463
7404.45323,0.51144
7402.52449,0.50562
7400.59574,0.50172
7398.66700,0.50152
7396.73825,0.50379
7394.80951,0.50583
7392.88076,0.50475
7390.95202,0.50172
7389.02327,0.50141
7387.09453,0.50292
7385.16578,0.50292
7383.23704,0.50561
7381.30829,0.51212
7379.37955,0.51676
7377.45080,0.51638
7375.52205,0.51009
7373.59331,0.50263
7371.66456,0.50188
7369.73582,0.50731
7367.80707,0.51067
7365.87833,0.50783
7363.94958,0.50511
7362.02084,0.50690
7360.09209,0.50866
7358.16335,0.50763
7356.23460,0.50640
7354.30586,0.50588
7352.37711,0.50567
7350.44837,0.50612
7348.51962,0.50647
7346.59088,0.50630
7344.66213,0.50510
7342.73338,0.50246
7340.80464,0.50143
7338.87589,0.50386
7336.94715,0.50619
7335.01840,0.50614
7333.08966,0.50541
7331.16091,0.50659
7329.23217,0.51038
7327.30342,0.51278
7325.37468,0.51091
7323.44593,0.50701
7321.51719,0.50355
7319.58844,0.50192
7317.65970,0.50133
7315.73095,0.50090
7313.80221,0.50276
7311.87346,0.50766
7309.94471,0.51017
7308.01597,0.50635
7306.08722,0.50280
7304.15848,0.50368
7302.22973,0.50462
7300.30099,0.50510
7298.37224,0.50599
7296.44350,0.50593
7294.51475,0.50585
7292.58601,0.50582
7290.65726,0.50394
7288.72852,0.50131
7286.79977,0.50061
7284.87103,0.50021
7282.94228,0.49860
7281.01353,0.49947
7279.08479,0.50476
7277.15604,0.50958
7275.22730,0.50905
7273.29855,0.50640
7271.36981,0.50602
7269.44106,0.50634
7267.51232,0.50647
7265.58357,0.50578
7263.65483,0.50183
7261.72608,0.49826
7259.79734,0.50025
7257.86859,0.50414
7255.93985,0.50476
7254.01110,0.50238
7252.08236,0.49787
7250.15361,0.49366
7248.22486,0.49497
7246.29612,0.50035
7244.36737,0.50292
7242.43863,0.50125
7240.50988,0.49914
7238.58114,0.49911
7236.65239,0.49960
7234.72365,0.50007
7232.79490,0.50365
7230.86616,0.50849
7228.93741,0.51025
7227.00867,0.50977
7225.07992,0.50789
7223.15118,0.50451
7221.22243,0.50153
7219.29369,0.49997
7217.36494,0.49900
7215.43619,0.49803
7213.50745,0.49630
7211.57870,0.49389
7209.64996,0.49377
7207.72121,0.49755
7205.79247,0.50297
7203.86372,0.50692
7201.93498,0.50711
7200.00623,0.50438
7198.07749,0.50171
7196.14874,0.50132
7194.22000,0.50433
7192.29125,0.50717
7190.36251,0.50449
7188.43376,0.49801
7186.50501,0.49368
7184.57627,0.49456
7182.64752,0.49866
7180.71878,0.50092
7178.79003,0.49887
7176.86129,0.49491
7174.93254,0.49263
7173.00380,0.49228
7171.07505,0.49221
7169.14631,0.49257
7167.21756,0.49314
7165.28882,0.49243
7163.36007,0.49130
7161.43133,0.49322
7159.50258,0.49830
7157.57384,0.50174
7155.64509,0.50140
7153.71634,0.50036
7151.78760,0.50089
7149.85885,0.50040
7147.93011,0.49705
7146.00136,0.49373
7144.07262,0.49266
7142.14387,0.49244
7140.21513,0.49116
7138.28638,0.49157
7136.35764,0.49558
7134.42889,0.49665
7132.50015,0.49383
7130.57140,0.49410
7128.64266,0.49579
7126.71391,0.49314
7124.78516,0.48849
7122.85642,0.48663
7120.92767,0.48720
7118.99893,0.48927
7117.07018,0.49339
7115.14144,0.49609
7113.21269,0.49461
7111.28395,0.49230
7109.35520,0.49256
7107.42646,0.49402
7105.49771,0.49319
7103.56897,0.49009
7101.64022,0.48782
7099.71148,0.48740
7097.78273,0.48717
7095.85399,0.48640
7093.92524,0.48548
7091.99649,0.48402
7090.06775,0.48276
7088.13900,0.48445
7086.21026,0.48994
7084.28151,0.49512
7082.35277,0.49648
7080.42402,0.49493
7078.49528,0.49158
7076.56653,0.48790
7074.63779,0.48571
7072.70904,0.48480
7070.78030,0.48490
7068.85155,0.48566
7066.92281,0.48528
7064.99406,0.48369
7063.06532,0.48350
7061.13657,0.48530
7059.20782,0.48747
7057.27908,0.48935
7055.35033,0.49044
7053.42159,0.49002
7051.49284,0.48780
7049.56410,0.48571
7047.63535,0.48661
7045.70661,0.48818
7043.77786,0.48694
7041.84912,0.48558
7039.92037,0.48641
7037.99163,0.48684
7036.06288,0.48595
7034.13414,0.48583
7032.20539,0.48686
7030.27664,0.48778
7028.34790,0.48712
7026.41915,0.48411
7024.49041,0.48095
7022.56166,0.48129
7020.63292,0.48507
7018.70417,0.48880
7016.77543,0.48967
7014.84668,0.48749
7012.91794,0.48547
7010.98919,0.48686
7009.06045,0.48876
7007.13170,0.48600
7005.20296,0.48091
7003.27421,0.47937
7001.34547,0.48128
6999.41672,0.48235
6997.48797,0.48066
6995.55923,0.47928
6993.63048,0.48164
6991.70174,0.48613
6989.77299,0.48865
6987.84425,0.48748
6985.91550,0.48467
6983.98676,0.48295
6982.05801,0.48223
6980.12927,0.48215
6978.20052,0.48303
6976.27178,0.48369
6974.34303,0.48332
6972.41429,0.48263
6970.48554,0.48238
6968.55680,0.48336
6966.62805,0.48481
6964.69930,0.48442
6962.77056,0.48218
6960.84181,0.48015
6958.91307,0.47911
6956.98432,0.47877
6955.05558,0.47815
6953.12683,0.47718
6951.19809,0.47942
6949.26934,0.48496
6947.34060,0.48887
6945.41185,0.49031
6943.48311,0.49043
6941.55436,0.48928
6939.62562,0.48747
6937.69687,0.48370
6935.76812,0.47938
6933.83938,0.47893
6931.91063,0.48146
6929.98189,0.48306
6928.05314,0.48467
6926.12440,0.48855
6924.19565,0.49124
6922.26691,0.48933
6920.33816,0.48447
6918.40942,0.47952
6916.48067,0.47698
6914.55193,0.47723
6912.62318,0.47869
6910.69444,0.48011
6908.76569,0.48042
6906.83695,0.48098
6904.90820,0.48214
6902.97945,0.48048
6901.05071,0.47717
6899.12196,0.47722
6897.19322,0.48098
6895.26447,0.48484
6893.33573,0.48582
6891.40698,0.48469
6889.47824,0.48428
6887.54949,0.48491
6885.62075,0.48563
6883.69200,0.48565
6881.76326,0.48426
6879.83451,0.48289
6877.90577,0.48484
6875.97702,0.48925
6874.04828,0.49003
6872.11953,0.48600
6870.19078,0.48372
6868.26204,0.48655
6866.33329,0.49019
6864.40455,0.49093
6862.47580,0.49043
6860.54706,0.48916
6858.61831,0.48575
6856.68957,0.48258
6854.76082,0.48229
6852.83208,0.48289
6850.90333,0.48233
6848.97459,0.48134
6847.04584,0.47991
6845.11710,0.47870
6843.18835,0.47930
6841.25960,0.48135
6839.33086,0.48464
6837.40211,0.48843
6835.47337,0.49028
6833.54462,0.48931
6831.61588,0.48711
6829.68713,0.48602
6827.75839,0.48617
6825.82964,0.48561
6823.90090,0.48386
6821.97215,0.48188
6820.04341,0.48134
6818.11466,0.48340
6816.18592,0.48578
6814.25717,0.48533
6812.32843,0.48333
6810.39968,0.48303
6808.47093,0.48392
6806.54219,0.48382
6804.61344,0.48337
6802.68470,0.48253
6800.75595,0.48005
6798.82721,0.47758
6796.89846,0.47781
6794.96972,0.48143
6793.04097,0.48619
6791.11223,0.48872
6789.18348,0.48853
6787.25474,0.48727
6785.32599,0.48590
6783.39725,0.48515
6781.46850,0.48588
6779.53975,0.48690
6777.61101,0.48647
6775.68226,0.48471
6773.75352,0.48290
6771.82477,0.48289
6769.89603,0.48531
6767.96728,0.48868
6766.03854,0.49084
6764.10979,0.49034
6762.18105,0.48752
6760.25230,0.48389
6758.32356,0.48219
6756.39481,0.48336
6754.46607,0.48392
6752.53732,0.48242
6750.60858,0.48108
6748.67983,0.47991
6746.75108,0.47850
6744.82234,0.47797
6742.89359,0.47844
6740.96485,0.48007
6739.03610,0.48253
6737.10736,0.48360
6735.17861,0.48253
6733.24987,0.48088
6731.32112,0.47992
6729.39238,0.47999
6727.46363,0.48114
6725.53489,0.48307
6723.60614,0.48556
6721.67740,0.48820
6719.74865,0.48887
6717.81991,0.48694
6715.89116,0.48591
6713.96241,0.48692
6712.03367,0.48673
6710.10492,0.48467
6708.17618,0.48289
6706.24743,0.48232
6704.31869,0.48398
6702.38994,0.48774
6700.46120,0.49012
6698.53245,0.49041
6696.60371,0.49040
6694.67496,0.48736
6692.74622,0.48228
6690.81747,0.48215
6688.88873,0.48550
6686.95998,0.48590
6685.03123,0.48514
6683.10249,0.48694
6681.17374,0.48812
6679.24500,0.48587
6677.31625,0.48343
6675.38751,0.48365
6673.45876,0.48554
6671.53002,0.48755
6669.60127,0.48796
6667.67253,0.48591
6665.74378,0.48486
6663.81504,0.48760
6661.88629,0.49119
6659.95755,0.49258
6658.02880,0.49121
6656.10006,0.48847
6654.17131,0.48758
6652.24256,0.48883
6650.31382,0.49058
6648.38507,0.49223
6646.45633,0.49248
6644.52758,0.49166
6642.59884,0.49166
6640.67009,0.49144
6638.74135,0.49034
6636.81260,0.49031
6634.88386,0.49114
6632.95511,0.49108
6631.02637,0.48985
6629.09762,0.48818
6627.16888,0.48649
6625.24013,0.48440
6623.31139,0.48256
6621.38264,0.48246
6619.45389,0.48391
6617.52515,0.48566
6615.59640,0.48729
6613.66766,0.48891
6611.73891,0.48948
6609.81017,0.48774
6607.88142,0.48450
6605.95268,0.48239
6604.02393,0.48338
6602.09519,0.48644
6600.16644,0.48851
6598.23770,0.48856
6596.30895,0.48808
6594.38021,0.48845
6592.45146,0.48977
6590.52271,0.49084
6588.59397,0.49064
6586.66522,0.48937
6584.73648,0.48834
6582.80773,0.48828
6580.87899,0.48868
6578.95024,0.49038
6577.02150,0.49296
6575.09275,0.49348
6573.16401,0.49188
6571.23526,0.49044
6569.30652,0.48974
6567.37777,0.48958
6565.44903,0.49041
6563.52028,0.49055
6561.59154,0.48796
6559.66279,0.48542
6557.73404,0.48540
6555.80530,0.48642
6553.87655,0.48737
6551.94781,0.48855
6550.01906,0.48968
6548.09032,0.48917
6546.16157,0.48720
6544.23283,0.48630
6542.30408,0.48743
6540.37534,0.49054
6538.44659,0.49341
6536.51785,0.49273
6534.58910,0.49003
6532.66036,0.48803
6530.73161,0.48775
6528.80287,0.48970
6526.87412,0.49144
6524.94537,0.49093
6523.01663,0.48942
6521.08788,0.48838
6519.15914,0.48824
6517.23039,0.48912
6515.30165,0.49092
6513.37290,0.49255
6511.44416,0.49353
6509.51541,0.49358
6507.58667,0.49174
6505.65792,0.48909
6503.72918,0.48813
6501.80043,0.48913
6499.87169,0.48996
6497.94294,0.49001
6496.01419,0.49068
6494.08545,0.49071
6492.15670,0.48862
6490.22796,0.48673
6488.29921,0.48678
6486.37047,0.48766
6484.44172,0.48810
6482.51298,0.48743
6480.58423,0.48614
6478.65549,0.48488
6476.72674,0.48427
6474.79800,0.48570
6472.86925,0.48800
6470.94051,0.48883
6469.01176,0.48887
6467.08302,0.48822
6465.15427,0.48634
6463.22552,0.48533
6461.29678,0.48650
6459.36803,0.48789
6457.43929,0.48788
6455.51054,0.48703
6453.58180,0.48697
6451.65305,0.48830
6449.72431,0.48960
6447.79556,0.49012
6445.86682,0.49053
6443.93807,0.49063
6442.00933,0.49039
6440.08058,0.49017
6438.15184,0.48911
6436.22309,0.48811
6434.29434,0.49006
6432.36560,0.49321
6430.43685,0.49270
6428.50811,0.48905
6426.57936,0.48766
6424.65062,0.49044
6422.72187,0.49285
6420.79313,0.49213
6418.86438,0.49053
6416.93564,0.48860
6415.00689,0.48621
6413.07815,0.48561
6411.14940,0.48720
6409.22066,0.48876
6407.29191,0.48927
6405.36317,0.48889
6403.43442,0.48725
6401.50567,0.48505
6399.57693,0.48403
6397.64818,0.48441
6395.71944,0.48534
6393.79069,0.48639
6391.86195,0.48762
6389.93320,0.48921
6388.00446,0.49020
6386.07571,0.48956
6384.14697,0.48959
6382.21822,0.49192
6380.28948,0.49349
6378.36073,0.49225
6376.43199,0.48928
6374.50324,0.48621
6372.57450,0.48484
6370.64575,0.48517
6368.71700,0.48575
6366.78826,0.48708
6364.85951,0.49007
6362.93077,0.49273
6361.00202,0.49289
6359.07328,0.49146
6357.14453,0.48981
6355.21579,0.48854
6353.28704,0.48840
6351.35830,0.48937
6349.42955,0.49078
6347.50081,0.49268
6345.57206,0.49460
6343.64332,0.49383
6341.71457,0.48982
6339.78582,0.48735
6337.85708,0.48911
6335.92833,0.49135
6333.99959,0.49092
6332.07084,0.48934
6330.14210,0.48901
6328.21335,0.48959
6326.28461,0.48947
6324.35586,0.48933
6322.42712,0.48945
6320.49837,0.48839
6318.56963,0.48808
6316.64088,0.48958
6314.71214,0.48980
6312.78339,0.48900
6310.85465,0.48993
6308.92590,0.49239
6306.99715,0.49442
6305.06841,0.49466
6303.13966,0.49354
6301.21092,0.49215
6299.28217,0.49121
6297.35343,0.49132
6295.42468,0.49137
6293.49594,0.49091
6291.56719,0.49113
6289.63845,0.49134
6287.70970,0.49025
6285.78096,0.48842
6283.85221,0.48783
6281.92347,0.48846
6279.99472,0.48806
6278.06598,0.48789
6276.13723,0.48958
6274.20848,0.48998
6272.27974,0.48849
6270.35099,0.48865
6268.42225,0.49010
6266.49350,0.49048
6264.56476,0.49018
6262.63601,0.48929
6260.70727,0.48849
6258.77852,0.48998
6256.84978,0.49310
6254.92103,0.49534
6252.99229,0.49517
6251.06354,0.49317
6249.13480,0.49189
6247.20605,0.49281
6245.27730,0.49461
6243.34856,0.49522
6241.41981,0.49430
6239.49107,0.49322
6237.56232,0.49287
6235.63358,0.49228
6233.70483,0.49070
6231.77609,0.48905
6229.84734,0.48829
6227.91860,0.48948
6225.98985,0.49156
6224.06111,0.49157
6222.13236,0.48985
6220.20362,0.48868
6218.27487,0.48949
6216.34613,0.49173
6214.41738,0.49237
6212.48863,0.49148
6210.55989,0.49203
6208.63114,0.49320
6206.70240,0.49282
6204.77365,0.49186
6202.84491,0.49184
6200.91616,0.49189
6198.98742,0.49108
6197.05867,0.49049
6195.12993,0.49095
6193.20118,0.49214
6191.27244,0.49329
6189.34369,0.49367
6187.41495,0.49341
6185.48620,0.49286
6183.55746,0.49197
6181.62871,0.49057
6179.69996,0.48941
6177.77122,0.48985
6175.84247,0.49165
6173.91373,0.49358
6171.98498,0.49496
6170.05624,0.49537
6168.12749,0.49483
6166.19875,0.49405
6164.27000,0.49336
6162.34126,0.49265
6160.41251,0.49278
6158.48377,0.49322
6156.55502,0.49145
6154.62628,0.48884
6152.69753,0.48891
6150.76878,0.49057
6148.84004,0.49157
6146.91129,0.49186
6144.98255,0.49185
6143.05380,0.49228
6141.12506,0.49310
6139.19631,0.49397
6137.26757,0.49475
6135.33882,0.49459
6133.41008,0.49362
6131.48133,0.49329
6129.55259,0.49383
6127.62384,0.49345
6125.69510,0.49251
6123.76635,0.49380
6121.83761,0.49555
6119.90886,0.49411
6117.98011,0.49166
6116.05137,0.49113
6114.12262,0.49096
6112.19388,0.49023
6110.26513,0.49041
6108.33639,0.49092
6106.40764,0.49046
6104.47890,0.49035
6102.55015,0.49231
6100.62141,0.49462
6098.69266,0.49513
6096.76392,0.49546
6094.83517,0.49637
6092.90643,0.49639
6090.97768,0.49600
6089.04893,0.49584
6087.12019,0.49566
6085.19144,0.49539
6083.26270,0.49478
6081.33395,0.49376
6079.40521,0.49265
6077.47646,0.49216
6075.54772,0.49233
6073.61897,0.49251
6071.69023,0.49243
6069.76148,0.49249
6067.83274,0.49364
6065.90399,0.49499
6063.97525,0.49467
6062.04650,0.49324
6060.11776,0.49212
6058.18901,0.49204
6056.26026,0.49258
6054.33152,0.49323
6052.40277,0.49453
6050.47403,0.49608
6048.54528,0.49719
6046.61654,0.49690
6044.68779,0.49449
6042.75905,0.49234
6040.83030,0.49211
6038.90156,0.49220
6036.97281,0.49217
6035.04407,0.49340
6033.11532,0.49483
6031.18658,0.49392
6029.25783,0.49196
6027.32909,0.49164
6025.40034,0.49212
6023.47159,0.49191
6021.54285,0.49179
6019.61410,0.49241
6017.68536,0.49333
6015.75661,0.49431
6013.82787,0.49545
6011.89912,0.49601
6009.97038,0.49526
6008.04163,0.49399
6006.11289,0.49313
6004.18414,0.49290
6002.25540,0.49306
6000.32665,0.49305
5998.39791,0.49355
5996.46916,0.49420
5994.54041,0.49320
5992.61167,0.49210
5990.68292,0.49274
5988.75418,0.49291
5986.82543,0.49174
5984.89669,0.49144
5982.96794,0.49224
5981.03920,0.49258
5979.11045,0.49258
5977.18171,0.49289
5975.25296,0.49312
5973.32422,0.49302
5971.39547,0.49298
5969.46673,0.49342
5967.53798,0.49384
5965.60924,0.49330
5963.68049,0.49224
5961.75174,0.49180
5959.82300,0.49190
5957.89425,0.49203
5955.96551,0.49239
5954.03676,0.49281
5952.10802,0.49224
5950.17927,0.49113
5948.25053,0.49102
5946.32178,0.49119
5944.39304,0.49052
5942.46429,0.49014
5940.53555,0.49067
5938.60680,0.49110
5936.67806,0.49075
5934.74931,0.48995
5932.82057,0.49020
5930.89182,0.49168
5928.96307,0.49225
5927.03433,0.49150
5925.10558,0.49065
5923.17684,0.49048
5921.24809,0.49123
5919.31935,0.49156
5917.39060,0.49068
5915.46186,0.48999
5913.53311,0.49027
5911.60437,0.49049
5909.67562,0.48997
5907.74688,0.48951
5905.81813,0.48934
5903.88939,0.48929
5901.96064,0.49013
5900.03189,0.49153
5898.10315,0.49222
5896.17440,0.49183
5894.24566,0.49084
5892.31691,0.49027
5890.38817,0.49036
5888.45942,0.49089
5886.53068,0.49149
5884.60193,0.49073
5882.67319,0.48912
5880.74444,0.48919
5878.81570,0.49072
5876.88695,0.49157
5874.95821,0.49103
5873.02946,0.48988
5871.10072,0.48950
5869.17197,0.49066
5867.24322,0.49209
5865.31448,0.49267
5863.38573,0.49293
5861.45699,0.49282
5859.52824,0.49227
5857.59950,0.49156
5855.67075,0.49076
5853.74201,0.49019
5851.81326,0.48945
5849.88452,0.48839
5847.95577,0.48803
5846.02703,0.48897
5844.09828,0.49032
5842.16954,0.49078
5840.24079,0.49032
5838.31205,0.48943
5836.38330,0.48868
5834.45455,0.48873
5832.52581,0.48935
5830.59706,0.48980
5828.66832,0.49041
5826.73957,0.49148
5824.81083,0.49211
5822.88208,0.49169
5820.95334,0.49068
5819.02459,0.48982
5817.09585,0.48937
5815.16710,0.48883
5813.23836,0.48825
5811.30961,0.48846
5809.38087,0.48918
5807.45212,0.48905
5805.52337,0.48823
5803.59463,0.48833
5801.66588,0.48930
5799.73714,0.48976
5797.80839,0.48996
5795.87965,0.49089
5793.95090,0.49173
5792.02216,0.49110
5790.09341,0.48907
5788.16467,0.48679
5786.23592,0.48598
5784.30718,0.48688
5782.37843,0.48765
5780.44969,0.48775
5778.52094,0.48832
5776.59220,0.48944
5774.66345,0.49036
5772.73470,0.49050
5770.80596,0.48937
5768.87721,0.48779
5766.94847,0.48741
5765.01972,0.48798
5763.09098,0.48816
5761.16223,0.48800
5759.23349,0.48827
5757.30474,0.48865
5755.37600,0.48881
5753.44725,0.48936
5751.51851,0.48990
5749.58976,0.48970
5747.66102,0.48935
5745.73227,0.48935
5743.80352,0.48935
5741.87478,0.48884
5739.94603,0.48817
5738.01729,0.48814
5736.08854,0.48864
5734.15980,0.48925
5732.23105,0.48964
5730.30231,0.48894
5728.37356,0.48766
5726.44482,0.48770
5724.51607,0.48920
5722.58733,0.49033
5720.65858,0.49001
5718.72984,0.48885
5716.80109,0.48870
5714.87235,0.48984
5712.94360,0.49001
5711.01485,0.48858
5709.08611,0.48742
5707.15736,0.48689
5705.22862,0.48660
5703.29987,0.48724
5701.37113,0.48846
5699.44238,0.48879
5697.51364,0.48832
5695.58489,0.48848
5693.65615,0.48917
5691.72740,0.48893
5689.79866,0.48772
5687.86991,0.48660
5685.94117,0.48613
5684.01242,0.48653
5682.08368,0.48735
5680.15493,0.48760
5678.22618,0.48750
5676.29744,0.48745
5674.36869,0.48696
5672.43995,0.48654
5670.51120,0.48699
5668.58246,0.48768
5666.65371,0.48743
5664.72497,0.48623
5662.79622,0.48536
5660.86748,0.48557
5658.93873,0.48647
5657.00999,0.48752
5655.08124,0.48799
5653.15250,0.48774
5651.22375,0.48754
5649.29500,0.48756
5647.36626,0.48749
5645.43751,0.48746
5643.50877,0.48723
5641.58002,0.48645
5639.65128,0.48583
5637.72253,0.48537
5635.79379,0.48457
5633.86504,0.48444
5631.93630,0.48545
5630.00755,0.48645
5628.07881,0.48662
5626.15006,0.48618
5624.22132,0.48611
5622.29257,0.48634
5620.36383,0.48626
5618.43508,0.48642
5616.50633,0.48628
5614.57759,0.48509
5612.64884,0.48467
5610.72010,0.48585
5608.79135,0.48685
5606.86261,0.48692
5604.93386,0.48643
5603.00512,0.48578
5601.07637,0.48546
5599.14763,0.48523
5597.21888,0.48444
5595.29014,0.48378
5593.36139,0.48480
5591.43265,0.48673
5589.50390,0.48747
5587.57516,0.48692
5585.64641,0.48642
5583.71766,0.48710
5581.78892,0.48856
5579.86017,0.48895
5577.93143,0.48775
5576.00268,0.48652
5574.07394,0.48639
5572.14519,0.48664
5570.21645,0.48626
5568.28770,0.48566
5566.35896,0.48551
5564.43021,0.48570
5562.50147,0.48595
5560.57272,0.48628
5558.64398,0.48675
5556.71523,0.48657
5554.78648,0.48546
5552.85774,0.48447
5550.92899,0.48430
5549.00025,0.48469
5547.07150,0.48554
5545.14276,0.48660
5543.21401,0.48679
5541.28527,0.48547
5539.35652,0.48381
5537.42778,0.48385
5535.49903,0.48550
5533.57029,0.48609
5531.64154,0.48482
5529.71280,0.48351
5527.78405,0.48377
5525.85531,0.48506
5523.92656,0.48544
5521.99781,0.48499
5520.06907,0.48456
5518.14032,0.48363
5516.21158,0.48270
5514.28283,0.48298
5512.35409,0.48362
5510.42534,0.48352
5508.49660,0.48399
5506.56785,0.48567
5504.63911,0.48659
5502.71036,0.48598
5500.78162,0.48469
5498.85287,0.48327
5496.92413,0.48280
5494.99538,0.48368
5493.06664,0.48478
5491.13789,0.48541
5489.20914,0.48571
5487.28040,0.48584
5485.35165,0.48609
5483.42291,0.48627
5481.49416,0.48575
5479.56542,0.48452
5477.63667,0.48357
5475.70793,0.48360
5473.77918,0.48360
5471.85044,0.48312
5469.92169,0.48336
5467.99295,0.48446
5466.06420,0.48492
5464.13546,0.48438
5462.20671,0.48406
5460.27796,0.48439
5458.34922,0.48491
5456.42047,0.48535
5454.49173,0.48538
5452.56298,0.48473
5450.63424,0.48378
5448.70549,0.48332
5446.77675,0.48347
5444.84800,0.48341
5442.91926,0.48280
5440.99051,0.48216
5439.06177,0.48165
5437.13302,0.48142
5435.20428,0.48214
5433.27553,0.48322
5431.34679,0.48353
5429.41804,0.48336
5427.48929,0.48324
5425.56055,0.48296
5423.63180,0.48268
5421.70306,0.48293
5419.77431,0.48300
5417.84557,0.48229
5415.91682,0.48223
5413.98808,0.48326
5412.05933,0.48379
5410.13059,0.48335
5408.20184,0.48249
5406.27310,0.48182
5404.34435,0.48199
5402.41561,0.48274
5400.48686,0.48325
5398.55811,0.48340
5396.62937,0.48336
5394.70062,0.48299
5392.77188,0.48234
5390.84313,0.48212
5388.91439,0.48278
5386.98564,0.48350
5385.05690,0.48316
5383.12815,0.48204
5381.19941,0.48124
5379.27066,0.48095
5377.34192,0.48077
5375.41317,0.48104
5373.48443,0.48223
5371.55568,0.48316
5369.62694,0.48258
5367.69819,0.48152
5365.76944,0.48098
5363.84070,0.48057
5361.91195,0.48045
5359.98321,0.48077
5358.05446,0.48087
5356.12572,0.48071
5354.19697,0.48090
5352.26823,0.48097
5350.33948,0.48016
5348.41074,0.47940
5346.48199,0.47950
5344.55325,0.47972
5342.62450,0.47946
5340.69576,0.47917
5338.76701,0.47932
5336.83827,0.47955
5334.90952,0.47941
5332.98077,0.47923
5331.05203,0.47898
5329.12328,0.47813
5327.19454,0.47700
5325.26579,0.47650
5323.33705,0.47615
5321.40830,0.47480
5319.47956,0.47315
5317.55081,0.47243
5315.62207,0.47233
5313.69332,0.47237
5311.76458,0.47280
5309.83583,0.47336
5307.90709,0.47347
5305.97834,0.47323
5304.04959,0.47262
5302.12085,0.47140
5300.19210,0.46996
5298.26336,0.46890
5296.33461,0.46833
5294.40587,0.46795
5292.47712,0.46733
5290.54838,0.46611
5288.61963,0.46444
5286.69089,0.46315
5284.76214,0.46239
5282.83340,0.46119
5280.90465,0.45946
5278.97591,0.45816
5277.04716,0.45752
5275.11842,0.45679
5273.18967,0.45526
5271.26092,0.45329
5269.33218,0.45186
5267.40343,0.45138
5265.47469,0.45112
5263.54594,0.45005
5261.61720,0.44828
5259.68845,0.44662
5257.75971,0.44526
5255.83096,0.44385
5253.90222,0.44229
5251.97347,0.44083
5250.04473,0.43954
5248.11598,0.43805
5246.18724,0.43638
5244.25849,0.43481
5242.32975,0.43337
5240.40100,0.43240
5238.47225,0.43161
5236.54351,0.43015
5234.61476,0.42807
5232.68602,0.42603
5230.75727,0.42440
5228.82853,0.42287
5226.89978,0.42088
5224.97104,0.41890
5223.04229,0.41802
5221.11355,0.41777
5219.18480,0.41668
5217.25606,0.41508
5215.32731,0.41404
5213.39857,0.41304
5211.46982,0.41152
5209.54107,0.41014
5207.61233,0.40970
5205.68358,0.41000
5203.75484,0.41022
5201.82609,0.40999
5199.89735,0.40951
5197.96860,0.40895
5196.03986,0.40828
5194.11111,0.40771
5192.18237,0.40756
5190.25362,0.40751
5188.32488,0.40710
5186.39613,0.40658
5184.46739,0.40653
5182.53864,0.40672
5180.60990,0.40689
5178.68115,0.40770
5176.75240,0.40916
5174.82366,0.41038
5172.89491,0.41098
5170.96617,0.41104
5169.03742,0.41051
5167.10868,0.40963
5165.17993,0.40931
5163.25119,0.41017
5161.32244,0.41153
5159.39370,0.41296
5157.46495,0.41458
5155.53621,0.41578
5153.60746,0.41613
5151.67872,0.41605
5149.74997,0.41590
5147.82123,0.41610
5145.89248,0.41723
5143.96373,0.41835
5142.03499,0.41846
5140.10624,0.41847
5138.17750,0.41910
5136.24875,0.42006
5134.32001,0.42099
5132.39126,0.42121
5130.46252,0.42079
5128.53377,0.42100
5126.60503,0.42216
5124.67628,0.42326
5122.74754,0.42386
5120.81879,0.42449
5118.89005,0.42520
5116.96130,0.42551
5115.03255,0.42589
5113.10381,0.42688
5111.17506,0.42721
5109.24632,0.42647
5107.31757,0.42634
5105.38883,0.42732
5103.46008,0.42826
5101.53134,0.42867
5099.60259,0.42923
5097.67385,0.43007
5095.74510,0.43039
5093.81636,0.42994
5091.88761,0.42967
5089.95887,0.43061
5088.03012,0.43248
5086.10138,0.43380
5084.17263,0.43406
5082.24388,0.43425
5080.31514,0.43462
5078.38639,0.43472
5076.45765,0.43479
5074.52890,0.43497
5072.60016,0.43509
5070.67141,0.43521
5068.74267,0.43527
5066.81392,0.43559
5064.88518,0.43663
5062.95643,0.43775
5061.02769,0.43831
5059.09894,0.43867
5057.17020,0.43886
5055.24145,0.43874
5053.31270,0.43877
5051.38396,0.43918
5049.45521,0.43979
5047.52647,0.44023
5045.59772,0.44016
5043.66898,0.43981
5041.74023,0.43994
5039.81149,0.44088
5037.88274,0.44190
5035.95400,0.44238
5034.02525,0.44285
5032.09651,0.44358
5030.16776,0.44389
5028.23902,0.44356
5026.31027,0.44323
5024.38153,0.44335
5022.45278,0.44361
5020.52403,0.44350
5018.59529,0.44343
5016.66654,0.44398
5014.73780,0.44449
5012.80905,0.44406
5010.88031,0.44347
5008.95156,0.44393
5007.02282,0.44472
5005.09407,0.44495
5003.16533,0.44518
5001.23658,0.44590
4999.30784,0.44668
4997.37909,0.44689
4995.45035,0.44677
4993.52160,0.44698
4991.59286,0.44727
4989.66411,0.44720
4987.73536,0.44708
4985.80662,0.44741
4983.87787,0.44789
4981.94913,0.44799
4980.02038,0.44776
4978.09164,0.44783
4976.16289,0.44850
4974.23415,0.44920
4972.30540,0.44912
4970.37666,0.44838
4968.44791,0.44790
4966.51917,0.44817
4964.59042,0.44887
4962.66168,0.44945
4960.73293,0.44946
4958.80418,0.44906
4956.87544,0.44885
4954.94669,0.44862
4953.01795,0.44810
4951.08920,0.44818
4949.16046,0.44913
4947.23171,0.44957
4945.30297,0.44902
4943.37422,0.44849
4941.44548,0.44862
4939.51673,0.44912
4937.58799,0.44934
4935.65924,0.44920
4933.73050,0.44923
4931.80175,0.44945
4929.87301,0.44936
4927.94426,0.44905
4926.01551,0.44902
4924.08677,0.44924
4922.15802,0.44906
4920.22928,0.44831
4918.30053,0.44802
4916.37179,0.44846
4914.44304,0.44851
4912.51430,0.44787
4910.58555,0.44732
4908.65681,0.44729
4906.72806,0.44758
4904.79932,0.44753
4902.87057,0.44702
4900.94183,0.44670
4899.01308,0.44680
4897.08434,0.44686
4895.15559,0.44627
4893.22684,0.44509
4891.29810,0.44419
4889.36935,0.44420
4887.44061,0.44492
4885.51186,0.44555
4883.58312,0.44552
4881.65437,0.44532
4879.72563,0.44531
4877.79688,0.44522
4875.86814,0.44499
4873.93939,0.44448
4872.01065,0.44369
4870.08190,0.44308
4868.15316,0.44289
4866.22441,0.44282
4864.29566,0.44248
4862.36692,0.44205
4860.43817,0.44205
4858.50943,0.44237
4856.58068,0.44233
4854.65194,0.44171
4852.72319,0.44113
4850.79445,0.44076
4848.86570,0.44014
4846.93696,0.43940
4845.00821,0.43910
4843.07947,0.43936
4841.15072,0.43947
4839.22198,0.43891
4837.29323,0.43863
4835.36449,0.43904
4833.43574,0.43903
4831.50699,0.43837
4829.57825,0.43793
4827.64950,0.43793
4825.72076,0.43806
4823.79201,0.43796
4821.86327,0.43758
4819.93452,0.43738
4818.00578,0.43740
4816.07703,0.43714
4814.14829,0.43664
4812.21954,0.43607
4810.29080,0.43538
4808.36205,0.43479
4806.43331,0.43462
4804.50456,0.43492
4802.57582,0.43514
4800.64707,0.43487
4798.71832,0.43442
4796.78958,0.43407
4794.86083,0.43401
4792.93209,0.43452
4791.00334,0.43509
4789.07460,0.43497
4787.14585,0.43427
4785.21711,0.43355
4783.28836,0.43314
4781.35962,0.43339
4779.43087,0.43429
4777.50213,0.43500
4775.57338,0.43495
4773.64464,0.43448
4771.71589,0.43429
4769.78714,0.43458
4767.85840,0.43470
4765.92965,0.43430
4764.00091,0.43356
4762.07216,0.43296
4760.14342,0.43286
4758.21467,0.43295
4756.28593,0.43291
4754.35718,0.43292
4752.42844,0.43280
4750.49969,0.43239
4748.57095,0.43217
4746.64220,0.43240
4744.71346,0.43288
4742.78471,0.43342
4740.85597,0.43364
4738.92722,0.43334
4736.99847,0.43302
4735.06973,0.43338
4733.14098,0.43409
4731.21224,0.43417
4729.28349,0.43366
4727.35475,0.43351
4725.42600,0.43399
4723.49726,0.43453
4721.56851,0.43483
4719.63977,0.43495
4717.71102,0.43482
4715.78228,0.43451
4713.85353,0.43440
4711.92479,0.43459
4709.99604,0.43472
4708.06729,0.43491
4706.13855,0.43526
4704.20980,0.43544
4702.28106,0.43574
4700.35231,0.43631
4698.42357,0.43666
4696.49482,0.43675
4694.56608,0.43689
4692.63733,0.43700
4690.70859,0.43683
4688.77984,0.43669
4686.85110,0.43685
4684.92235,0.43705
4682.99361,0.43708
4681.06486,0.43707
4679.13612,0.43717
4677.20737,0.43751
4675.27862,0.43798
4673.34988,0.43829
4671.42113,0.43857
4669.49239,0.43889
4667.56364,0.43872
4665.63490,0.43810
4663.70615,0.43772
4661.77741,0.43770
4659.84866,0.43773
4657.91992,0.43795
4655.99117,0.43860
4654.06243,0.43933
4652.13368,0.43947
4650.20494,0.43888
4648.27619,0.43809
4646.34745,0.43800
4644.41870,0.43883
4642.48995,0.43949
4640.56121,0.43904
4638.63246,0.43851
4636.70372,0.43902
4634.77497,0.43979
4632.84623,0.43974
4630.91748,0.43918
4628.98874,0.43893
4627.05999,0.43913
4625.13125,0.43931
4623.20250,0.43919
4621.27376,0.43909
4619.34501,0.43944
4617.41627,0.43990
4615.48752,0.43991
4613.55877,0.43974
4611.63003,0.43939
4609.70128,0.43865
4607.77254,0.43808
4605.84379,0.43812
4603.91505,0.43849
4601.98630,0.43890
4600.05756,0.43904
4598.12881,0.43873
4596.20007,0.43855
4594.27132,0.43880
4592.34258,0.43887
4590.41383,0.43855
4588.48509,0.43829
4586.55634,0.43836
4584.62760,0.43864
4582.69885,0.43877
4580.77010,0.43866
4578.84136,0.43841
4576.91261,0.43828
4574.98387,0.43858
4573.05512,0.43914
4571.12638,0.43926
4569.19763,0.43874
4567.26889,0.43820
4565.34014,0.43806
4563.41140,0.43809
4561.48265,0.43794
4559.55391,0.43742
4557.62516,0.43678
4555.69642,0.43650
4553.76767,0.43652
4551.83893,0.43651
4549.91018,0.43644
4547.98143,0.43623
4546.05269,0.43600
4544.12394,0.43591
4542.19520,0.43571
4540.26645,0.43532
4538.33771,0.43497
4536.40896,0.43479
4534.48022,0.43476
4532.55147,0.43465
4530.62273,0.43434
4528.69398,0.43390
4526.76524,0.43364
4524.83649,0.43380
4522.90775,0.43407
4520.97900,0.43387
4519.05025,0.43336
4517.12151,0.43326
4515.19276,0.43359
4513.26402,0.43385
4511.33527,0.43395
4509.40653,0.43387
4507.47778,0.43329
4505.54904,0.43225
4503.62029,0.43135
4501.69155,0.43109
4499.76280,0.43134
4497.83406,0.43172
4495.90531,0.43195
4493.97657,0.43179
4492.04782,0.43131
4490.11908,0.43079
4488.19033,0.43039
4486.26158,0.43019
4484.33284,0.43017
4482.40409,0.43008
4480.47535,0.42963
4478.54660,0.42901
4476.61786,0.42856
4474.68911,0.42818
4472.76037,0.42785
4470.83162,0.42767
4468.90288,0.42730
4466.97413,0.42674
4465.04539,0.42630
4463.11664,0.42592
4461.18790,0.42551
4459.25915,0.42495
4457.33041,0.42424
4455.40166,0.42366
4453.47291,0.42329
4451.54417,0.42289
4449.61542,0.42236
4447.68668,0.42161
4445.75793,0.42089
4443.82919,0.42059
4441.90044,0.42025
4439.97170,0.41945
4438.04295,0.41865
4436.11421,0.41805
4434.18546,0.41740
4432.25672,0.41673
4430.32797,0.41629
4428.39923,0.41606
4426.47048,0.41580
4424.54173,0.41550
4422.61299,0.41507
4420.68424,0.41451
4418.75550,0.41421
4416.82675,0.41399
4414.89801,0.41350
4412.96926,0.41286
4411.04052,0.41205
4409.11177,0.41113
4407.18303,0.41040
4405.25428,0.40992
4403.32554,0.40976
4401.39679,0.40987
4399.46805,0.40986
4397.53930,0.40971
4395.61056,0.40979
4393.68181,0.40997
4391.75306,0.40994
4389.82432,0.41006
4387.89557,0.41042
4385.96683,0.41052
4384.03808,0.41053
4382.10934,0.41089
4380.18059,0.41151
4378.25185,0.41211
4376.32310,0.41235
4374.39436,0.41234
4372.46561,0.41245
4370.53687,0.41257
4368.60812,0.41262
4366.67938,0.41294
4364.75063,0.41328
4362.82189,0.41297
4360.89314,0.41236
4358.96439,0.41214
4357.03565,0.41208
4355.10690,0.41200
4353.17816,0.41188
4351.24941,0.41164
4349.32067,0.41151
4347.39192,0.41143
4345.46318,0.41118
4343.53443,0.41084
4341.60569,0.41058
4339.67694,0.41042
4337.74820,0.41029
4335.81945,0.41008
4333.89071,0.40974
4331.96196,0.40937
4330.03321,0.40917
4328.10447,0.40899
4326.17572,0.40861
4324.24698,0.40830
4322.31823,0.40815
4320.38949,0.40771
4318.46074,0.40695
4316.53200,0.40640
4314.60325,0.40623
4312.67451,0.40606
4310.74576,0.40587
4308.81702,0.40580
4306.88827,0.40558
4304.95953,0.40500
4303.03078,0.40433
4301.10204,0.40409
4299.17329,0.40429
4297.24454,0.40417
4295.31580,0.40359
4293.38705,0.40307
4291.45831,0.40258
4289.52956,0.40188
4287.60082,0.40109
4285.67207,0.40052
4283.74333,0.40030
4281.81458,0.40020
4279.88584,0.39983
4277.95709,0.39915
4276.02835,0.39862
4274.09960,0.39842
4272.17086,0.39834
4270.24211,0.39826
4268.31336,0.39832
4266.38462,0.39830
4264.45587,0.39786
4262.52713,0.39725
4260.59838,0.39690
4258.66964,0.39681
4256.74089,0.39670
4254.81215,0.39647
4252.88340,0.39614
4250.95466,0.39584
4249.02591,0.39582
4247.09717,0.39603
4245.16842,0.39620
4243.23968,0.39604
4241.31093,0.39542
4239.38219,0.39484
4237.45344,0.39474
4235.52469,0.39476
4233.59595,0.39435
4231.66720,0.39378
4229.73846,0.39356
4227.80971,0.39347
4225.88097,0.39309
4223.95222,0.39257
4222.02348,0.39237
4220.09473,0.39231
4218.16599,0.39212
4216.23724,0.39185
4214.30850,0.39154
4212.37975,0.39146
4210.45101,0.39159
4208.52226,0.39158
4206.59352,0.39138
4204.66477,0.39101
4202.73602,0.39059
4200.80728,0.39052
4198.87853,0.39073
4196.94979,0.39078
4195.02104,0.39046
4193.09230,0.38988
4191.16355,0.38932
4189.23481,0.38894
4187.30606,0.38849
4185.37732,0.38794
4183.44857,0.38759
4181.51983,0.38749
4179.59108,0.38730
4177.66234,0.38684
4175.73359,0.38640
4173.80484,0.38624
4171.87610,0.38617
4169.94735,0.38598
4168.01861,0.38577
4166.08986,0.38549
4164.16112,0.38489
4162.23237,0.38406
4160.30363,0.38347
4158.37488,0.38323
4156.44614,0.38293
4154.51739,0.38246
4152.58865,0.38215
4150.65990,0.38182
4148.73116,0.38113
4146.80241,0.38022
4144.87367,0.37949
4142.94492,0.37916
4141.01617,0.37895
4139.08743,0.37859
4137.15868,0.37814
4135.22994,0.37766
4133.30119,0.37701
4131.37245,0.37626
4129.44370,0.37554
4127.51496,0.37498
4125.58621,0.37463
4123.65747,0.37416
4121.72872,0.37345
4119.79998,0.37277
4117.87123,0.37208
4115.94249,0.37128
4114.01374,0.37054
4112.08500,0.36988
4110.15625,0.36923
4108.22750,0.36859
4106.29876,0.36778
4104.37001,0.36671
4102.44127,0.36573
4100.51252,0.36480
4098.58378,0.36360
4096.65503,0.36244
4094.72629,0.36154
4092.79754,0.36060
4090.86880,0.35956
4088.94005,0.35866
4087.01131,0.35785
4085.08256,0.35698
4083.15382,0.35618
4081.22507,0.35551
4079.29632,0.35479
4077.36758,0.35394
4075.43883,0.35291
4073.51009,0.35155
4071.58134,0.35028
4069.65260,0.34945
4067.72385,0.34874
4065.79511,0.34789
4063.86636,0.34707
4061.93762,0.34636
4060.00887,0.34560
4058.08013,0.34458
4056.15138,0.34335
4054.22264,0.34218
4052.29389,0.34116
4050.36515,0.34010
4048.43640,0.33895
4046.50765,0.33782
4044.57891,0.33686
4042.65016,0.33609
4040.72142,0.33551
4038.79267,0.33515
4036.86393,0.33482
4034.93518,0.33429
4033.00644,0.33360
4031.07769,0.33286
4029.14895,0.33225
4027.22020,0.33182
4025.29146,0.33141
4023.36271,0.33100
4021.43397,0.33087
4019.50522,0.33085
4017.57648,0.33068
4015.64773,0.33069
4013.71898,0.33115
4011.79024,0.33142
4009.86149,0.33109
4007.93275,0.33082
4006.00400,0.33105
4004.07526,0.33133
4002.14651,0.33134
4000.21777,0.33128
3998.28902,0.33125
3996.36028,0.33107
3994.43153,0.33087
3992.50279,0.33120
3990.57404,0.33200
3988.64530,0.33247
3986.71655,0.33237
3984.78780,0.33198
3982.85906,0.33153
3980.93031,0.33132
3979.00157,0.33154
3977.07282,0.33189
3975.14408,0.33201
3973.21533,0.33204
3971.28659,0.33225
3969.35784,0.33254
3967.42910,0.33265
3965.50035,0.33260
3963.57161,0.33251
3961.64286,0.33238
3959.71412,0.33230
3957.78537,0.33235
3955.85663,0.33251
3953.92788,0.33257
3951.99913,0.33240
3950.07039,0.33241
3948.14164,0.33279
3946.21290,0.33305
3944.28415,0.33304
3942.35541,0.33307
3940.42666,0.33297
3938.49792,0.33257
3936.56917,0.33226
3934.64043,0.33246
3932.71168,0.33283
3930.78294,0.33289
3928.85419,0.33296
3926.92545,0.33331
3924.99670,0.33353
3923.06795,0.33345
3921.13921,0.33338
3919.21046,0.33353
3917.28172,0.33384
3915.35297,0.33405
3913.42423,0.33401
3911.49548,0.33377
3909.56674,0.33343
3907.63799,0.33321
3905.70925,0.33322
3903.78050,0.33327
3901.85176,0.33332
3899.92301,0.33348
3897.99427,0.33359
3896.06552,0.33348
3894.13678,0.33320
3892.20803,0.33293
3890.27928,0.33280
3888.35054,0.33273
3886.42179,0.33289
3884.49305,0.33340
3882.56430,0.33380
3880.63556,0.33379
3878.70681,0.33350
3876.77807,0.33313
3874.84932,0.33286
3872.92058,0.33281
3870.99183,0.33302
3869.06309,0.33328
3867.13434,0.33313
3865.20560,0.33260
3863.27685,0.33226
3861.34811,0.33233
3859.41936,0.33269
3857.49061,0.33299
3855.56187,0.33295
3853.63312,0.33279
3851.70438,0.33258
3849.77563,0.33213
3847.84689,0.33172
3845.91814,0.33155
3843.98940,0.33161
3842.06065,0.33162
3840.13191,0.33136
3838.20316,0.33107
3836.27442,0.33080
3834.34567,0.33027
3832.41693,0.32976
3830.48818,0.32945
3828.55943,0.32912
3826.63069,0.32869
3824.70194,0.32821
3822.77320,0.32775
3820.84445,0.32747
3818.91571,0.32715
3816.98696,0.32656
3815.05822,0.32583
3813.12947,0.32523
3811.20073,0.32481
3809.27198,0.32442
3807.34324,0.32392
3805.41449,0.32330
3803.48575,0.32255
3801.55700,0.32168
3799.62826,0.32071
3797.69951,0.31967
3795.77076,0.31894
3793.84202,0.31871
3791.91327,0.31847
3789.98453,0.31791
3788.05578,0.31733
3786.12704,0.31673
3784.19829,0.31593
3782.26955,0.31498
3780.34080,0.31392
3778.41206,0.31305
3776.48331,0.31233
3774.55457,0.31141
3772.62582,0.31034
3770.69708,0.30943
3768.76833,0.30866
3766.83959,0.30764
3764.91084,0.30641
3762.98209,0.30533
3761.05335,0.30431
3759.12460,0.30325
3757.19586,0.30228
3755.26711,0.30120
3753.33837,0.29968
3751.40962,0.29790
3749.48088,0.29635
3747.55213,0.29485
3745.62339,0.29286
3743.69464,0.29089
3741.76590,0.28951
3739.83715,0.28796
3737.90841,0.28584
3735.97966,0.28365
3734.05091,0.28187
3732.12217,0.27997
3730.19342,0.27778
3728.26468,0.27560
3726.33593,0.27345
3724.40719,0.27096
3722.47844,0.26769
3720.54970,0.26397
3718.62095,0.26040
3716.69221,0.25698
3714.76346,0.25342
3712.83472,0.24941
3710.90597,0.24490
3708.97723,0.24028
3707.04848,0.23564
3705.11974,0.23052
3703.19099,0.22440
3701.26224,0.21762
3699.33350,0.21158
3697.40475,0.20662
3695.47601,0.20205
3693.54726,0.19796
3691.61852,0.19468
3689.68977,0.19170
3687.76103,0.18849
3685.83228,0.18499
3683.90354,0.18090
3681.97479,0.17601
3680.04605,0.17095
3678.11730,0.16622
3676.18856,0.16109
3674.25981,0.15585
3672.33107,0.15141
3670.40232,0.14662
3668.47357,0.14165
3666.54483,0.13798
3664.61608,0.13486
3662.68734,0.13147
3660.75859,0.12812
3658.82985,0.12520
3656.90110,0.12257
3654.97236,0.12010
3653.04361,0.11791
3651.11487,0.11570
3649.18612,0.11304
3647.25738,0.11032
3645.32863,0.10801
3643.39989,0.10592
3641.47114,0.10374
3639.54239,0.10151
3637.61365,0.09933
3635.68490,0.09720
3633.75616,0.09533
3631.82741,0.09391
3629.89867,0.09243
3627.96992,0.09050
3626.04118,0.08875
3624.11243,0.08731
3622.18369,0.08609
3620.25494,0.08509
3618.32620,0.08407
3616.39745,0.08279
3614.46871,0.08126
3612.53996,0.07971
3610.61122,0.07828
3608.68247,0.07709
3606.75372,0.07628
3604.82498,0.07558
3602.89623,0.07466
3600.96749,0.07344
3599.03874,0.07221
3597.11000,0.07120
3595.18125,0.07029
3593.25251,0.06957
3591.32376,0.06927
3589.39502,0.06897
3587.46627,0.06805
3585.53753,0.06698
3583.60878,0.06620
3581.68004,0.06526
3579.75129,0.06412
3577.82254,0.06325
3575.89380,0.06277
3573.96505,0.06235
3572.03631,0.06192
3570.10756,0.06168
3568.17882,0.06162
3566.25007,0.06125
3564.32133,0.06034
3562.39258,0.05938
3560.46384,0.05876
3558.53509,0.05837
3556.60635,0.05808
3554.67760,0.05775
3552.74886,0.05702
3550.82011,0.05604
3548.89137,0.05539
3546.96262,0.05516
3545.03387,0.05515
3543.10513,0.05496
3541.17638,0.05439
3539.24764,0.05387
3537.31889,0.05363
3535.39015,0.05338
3533.46140,0.05320
3531.53266,0.05323
3529.60391,0.05307
3527.67517,0.05250
3525.74642,0.05161
3523.81768,0.05073
3521.88893,0.05035
3519.96019,0.05042
3518.03144,0.05034
3516.10270,0.04987
3514.17395,0.04917
3512.24520,0.04851
3510.31646,0.04814
3508.38771,0.04802
3506.45897,0.04781
3504.53022,0.04735
3502.60148,0.04703
3500.67273,0.04715
3498.74399,0.04729
3496.81524,0.04709
3494.88650,0.04664
3492.95775,0.04603
3491.02901,0.04553
3489.10026,0.04535
3487.17152,0.04535
3485.24277,0.04523
3483.31402,0.04500
3481.38528,0.04486
3479.45653,0.04484
3477.52779,0.04485
3475.59904,0.04469
3473.67030,0.04421
3471.74155,0.04365
3469.81281,0.04321
3467.88406,0.04281
3465.95532,0.04259
3464.02657,0.04250
3462.09783,0.04242
3460.16908,0.04260
3458.24034,0.04282
3456.31159,0.04268
3454.38285,0.04238
3452.45410,0.04225
3450.52535,0.04239
3448.59661,0.04265
3446.66786,0.04259
3444.73912,0.04220
3442.81037,0.04192
3440.88163,0.04193
3438.95288,0.04196
3437.02414,0.04175
3435.09539,0.04132
3433.16665,0.04097
3431.23790,0.04110
3429.30916,0.04167
3427.38041,0.04208
3425.45167,0.04191
3423.52292,0.04160
3421.59418,0.04150
3419.66543,0.04142
3417.73668,0.04143
3415.80794,0.04168
3413.87919,0.04177
3411.95045,0.04146
3410.02170,0.04103
3408.09296,0.04079
3406.16421,0.04082
3404.23547,0.04097
3402.30672,0.04090
3400.37798,0.04072
3398.44923,0.04077
3396.52049,0.04084
3394.59174,0.04092
3392.66300,0.04125
3390.73425,0.04158
3388.80550,0.04157
3386.87676,0.04135
3384.94801,0.04127
3383.01927,0.04121
3381.09052,0.04111
3379.16178,0.04109
3377.23303,0.04101
3375.30429,0.04092
3373.37554,0.04103
3371.44680,0.04120
3369.51805,0.04130
3367.58931,0.04146
3365.66056,0.04163
3363.73182,0.04172
3361.80307,0.04190
3359.87433,0.04202
3357.94558,0.04178
3356.01683,0.04164
3354.08809,0.04191
3352.15934,0.04208
3350.23060,0.04199
3348.30185,0.04210
3346.37311,0.04250
3344.44436,0.04278
3342.51562,0.04277
3340.58687,0.04286
3338.65813,0.04327
3336.72938,0.04358
3334.80064,0.04355
3332.87189,0.04353
3330.94315,0.04381
3329.01440,0.04428
3327.08566,0.04476
3325.15691,0.04519
3323.22816,0.04533
3321.29942,0.04517
3319.37067,0.04510
3317.44193,0.04518
3315.51318,0.04532
3313.58444,0.04562
3311.65569,0.04588
3309.72695,0.04589
3307.79820,0.04579
3305.86946,0.04561
3303.94071,0.04556
3302.01197,0.04579
3300.08322,0.04597
3298.15448,0.04601
3296.22573,0.04633
3294.29698,0.04680
3292.36824,0.04697
3290.43949,0.04709
3288.51075,0.04758
3286.58200,0.04816
3284.65326,0.04834
3282.72451,0.04827
3280.79577,0.04826
3278.86702,0.04832
3276.93828,0.04847
3275.00953,0.04867
3273.08079,0.04880
3271.15204,0.04913
3269.22330,0.04986
3267.29455,0.05050
3265.36581,0.05081
3263.43706,0.05115
3261.50831,0.05140
3259.57957,0.05154
3257.65082,0.05185
3255.72208,0.05223
3253.79333,0.05260
3251.86459,0.05296
3249.93584,0.05314
3248.00710,0.05333
3246.07835,0.05376
3244.14961,0.05422
3242.22086,0.05446
3240.29212,0.05477
3238.36337,0.05541
3236.43463,0.05597
3234.50588,0.05610
3232.57713,0.05613
3230.64839,0.05650
3228.71964,0.05701
3226.79090,0.05743
3224.86215,0.05787
3222.93341,0.05807
3221.00466,0.05809
3219.07592,0.05841
3217.14717,0.05888
3215.21843,0.05922
3213.28968,0.05955
3211.36094,0.05988
3209.43219,0.06025
3207.50345,0.06076
3205.57470,0.06134
3203.64596,0.06171
3201.71721,0.06188
3199.78846,0.06214
3197.85972,0.06263
3195.93097,0.06331
3194.00223,0.06380
3192.07348,0.06390
3190.14474,0.06403
3188.21599,0.06456
3186.28725,0.06537
3184.35850,0.06606
3182.42976,0.06626
3180.50101,0.06621
3178.57227,0.06633
3176.64352,0.06670
3174.71478,0.06721
3172.78603,0.06762
3170.85729,0.06787
3168.92854,0.06826
3166.99979,0.06892
3165.07105,0.06966
3163.14230,0.07029
3161.21356,0.07061
3159.28481,0.07066
3157.35607,0.07076
3155.42732,0.07108
3153.49858,0.07156
3151.56983,0.07208
3149.64109,0.07274
3147.71234,0.07352
3145.78360,0.07417
3143.85485,0.07452
3141.92611,0.07455
3139.99736,0.07467
3138.06861,0.07523
3136.13987,0.07592
3134.21112,0.07641
3132.28238,0.07680
3130.35363,0.07705
3128.42489,0.07726
3126.49614,0.07768
3124.56740,0.07830
3122.63865,0.07884
3120.70991,0.07932
3118.78116,0.07999
3116.85242,0.08056
3114.92367,0.08079
3112.99493,0.08106
3111.06618,0.08167
3109.13744,0.08253
3107.20869,0.08327
3105.27994,0.08356
3103.35120,0.08372
3101.42245,0.08417
3099.49371,0.08460
3097.56496,0.08485
3095.63622,0.08530
3093.70747,0.08594
3091.77873,0.08643
3089.84998,0.08662
3087.92124,0.08669
3085.99249,0.08695
3084.06375,0.08752
3082.13500,0.08824
3080.20626,0.08899
3078.27751,0.08954
3076.34877,0.08967
3074.42002,0.08970
3072.49127,0.09017
3070.56253,0.09097
3068.63378,0.09147
3066.70504,0.09151
3064.77629,0.09153
3062.84755,0.09191
3060.91880,0.09264
3058.99006,0.09328
3057.06131,0.09373
3055.13257,0.09424
3053.20382,0.09471
3051.27508,0.09508
3049.34633,0.09548
3047.41759,0.09589
3045.48884,0.09627
3043.56009,0.09665
3041.63135,0.09709
3039.70260,0.09746
3037.77386,0.09757
3035.84511,0.09735
3033.91637,0.09683
3031.98762,0.09642
3030.05888,0.09640
3028.13013,0.09664
3026.20139,0.09704
3024.27264,0.09748
3022.34390,0.09804
3020.41515,0.09884
3018.48641,0.09964
3016.55766,0.10024
3014.62892,0.10059
3012.70017,0.10073
3010.77142,0.10081
3008.84268,0.10099
3006.91393,0.10117
3004.98519,0.10107
3003.05644,0.10063
3001.12770,0.10020
2999.19895,0.10006
2997.27021,0.10016
2995.34146,0.10032
2993.41272,0.10032
2991.48397,0.10000
2989.55523,0.09946
2987.62648,0.09889
2985.69774,0.09822
2983.76899,0.09736
2981.84025,0.09646
2979.91150,0.09562
2977.98275,0.09462
2976.05401,0.09320
2974.12526,0.09149
2972.19652,0.08982
2970.26777,0.08825
2968.33903,0.08673
2966.41028,0.08553
2964.48154,0.08472
2962.55279,0.08414
2960.62405,0.08372
2958.69530,0.08347
2956.76656,0.08323
2954.83781,0.08269
2952.90907,0.08184
2950.98032,0.08095
2949.05157,0.08016
2947.12283,0.07950
2945.19408,0.07911
2943.26534,0.07901
2941.33659,0.07907
2939.40785,0.07909
2937.47910,0.07887
2935.55036,0.07852
2933.62161,0.07826
2931.69287,0.07798
2929.76412,0.07759
2927.83538,0.07723
2925.90663,0.07708
2923.97789,0.07713
2922.04914,0.07730
2920.12040,0.07736
2918.19165,0.07707
2916.26290,0.07656
2914.33416,0.07615
2912.40541,0.07601
2910.47667,0.07608
2908.54792,0.07611
2906.61918,0.07613
2904.69043,0.07618
2902.76169,0.07613
2900.83294,0.07626
2898.90420,0.07697
2896.97545,0.07809
2895.04671,0.07908
2893.11796,0.07986
2891.18922,0.08064
2889.26047,0.08152
2887.33172,0.08237
2885.40298,0.08297
2883.47423,0.08326
2881.54549,0.08345
2879.61674,0.08374
2877.68800,0.08418
2875.75925,0.08477
2873.83051,0.08527
2871.90176,0.08551
2869.97302,0.08579
2868.04427,0.08638
2866.11553,0.08719
2864.18678,0.08798
2862.25804,0.08861
2860.32929,0.08918
2858.40055,0.09003
2856.47180,0.09122
2854.54305,0.09249
2852.61431,0.09371
2850.68556,0.09499
2848.75682,0.09646
2846.82807,0.09822
2844.89933,0.10017
2842.97058,0.10204
2841.04184,0.10389
2839.11309,0.10573
2837.18435,0.10734
2835.25560,0.10868
2833.32686,0.10997
2831.39811,0.11135
2829.46937,0.11288
2827.54062,0.11427
2825.61188,0.11538
2823.68313,0.11645
2821.75438,0.11746
2819.82564,0.11830
2817.89689,0.11921
2815.96815,0.12041
2814.03940,0.12170
2812.11066,0.12290
2810.18191,0.12405
2808.25317,0.12519
2806.32442,0.12629
2804.39568,0.12717
2802.46693,0.12780
2800.53819,0.12841
2798.60944,0.12920
2796.68070,0.13018
2794.75195,0.13104
2792.82320,0.13158
2790.89446,0.13199
2788.96571,0.13233
2787.03697,0.13260
2785.10822,0.13302
2783.17948,0.13365
2781.25073,0.13432
2779.32199,0.13483
2777.39324,0.13509
2775.46450,0.13533
2773.53575,0.13568
2771.60701,0.13613
2769.67826,0.13669
2767.74952,0.13723
2765.82077,0.13755
2763.89203,0.13777
2761.96328,0.13802
2760.03453,0.13828
2758.10579,0.13864
2756.17704,0.13912
2754.24830,0.13960
2752.31955,0.14002
2750.39081,0.14035
2748.46206,0.14052
2746.53332,0.14061
2744.60457,0.14080
2742.67583,0.14114
2740.74708,0.14147
2738.81834,0.14174
2736.88959,0.14204
2734.96085,0.14249
2733.03210,0.14307
2731.10336,0.14359
2729.17461,0.14392
2727.24586,0.14427
2725.31712,0.14484
2723.38837,0.14550
2721.45963,0.14610
2719.53088,0.14655
2717.60214,0.14677
2715.67339,0.14681
2713.74465,0.14698
2711.81590,0.14763
2709.88716,0.14878
2707.95841,0.15003
2706.02967,0.15098
2704.10092,0.15161
2702.17218,0.15221
2700.24343,0.15290
2698.31468,0.15360
2696.38594,0.15425
2694.45719,0.15476
2692.52845,0.15518
2690.59970,0.15574
2688.67096,0.15647
2686.74221,0.15725
2684.81347,0.15797
2682.88472,0.15853
2680.95598,0.15900
2679.02723,0.15970
2677.09849,0.16064
2675.16974,0.16154
2673.24100,0.16225
2671.31225,0.16279
2669.38351,0.16321
2667.45476,0.16356
2665.52601,0.16392
2663.59727,0.16432
2661.66852,0.16471
2659.73978,0.16490
2657.81103,0.16502
2655.88229,0.16538
2653.95354,0.16612
2652.02480,0.16700
2650.09605,0.16763
2648.16731,0.16810
2646.23856,0.16863
2644.30982,0.16923
2642.38107,0.16985
2640.45233,0.17043
2638.52358,0.17098
2636.59484,0.17144
2634.66609,0.17184
2632.73734,0.17232
2630.80860,0.17295
2628.87985,0.17364
2626.95111,0.17424
2625.02236,0.17468
2623.09362,0.17495
2621.16487,0.17523
2619.23613,0.17568
2617.30738,0.17625
2615.37864,0.17676
2613.44989,0.17709
2611.52115,0.17746
2609.59240,0.17792
2607.66366,0.17827
2605.73491,0.17859
2603.80616,0.17892
2601.87742,0.17915
2599.94867,0.17941
2598.01993,0.17991
2596.09118,0.18052
2594.16244,0.18095
2592.23369,0.18117
2590.30495,0.18134
2588.37620,0.18161
2586.44746,0.18197
2584.51871,0.18227
2582.58997,0.18249
2580.66122,0.18273
2578.73248,0.18296
2576.80373,0.18320
2574.87499,0.18341
2572.94624,0.18352
2571.01749,0.18362
2569.08875,0.18381
2567.16000,0.18404
2565.23126,0.18420
2563.30251,0.18426
2561.37377,0.18432
2559.44502,0.18446
2557.51628,0.18461
2555.58753,0.18466
2553.65879,0.18461
2551.73004,0.18449
2549.80130,0.18425
2547.87255,0.18409
2545.94381,0.18433
2544.01506,0.18475
2542.08631,0.18500
2540.15757,0.18507
2538.22882,0.18500
2536.30008,0.18496
2534.37133,0.18517
2532.44259,0.18556
2530.51384,0.18591
2528.58510,0.18617
2526.65635,0.18632
2524.72761,0.18643
2522.79886,0.18656
2520.87012,0.18660
2518.94137,0.18655
2517.01263,0.18655
2515.08388,0.18670
2513.15514,0.18706
2511.22639,0.18761
2509.29764,0.18821
2507.36890,0.18877
2505.44015,0.18933
2503.51141,0.18994
2501.58266,0.19057
2499.65392,0.19117
2497.72517,0.19164
2495.79643,0.19203
2493.86768,0.19250
2491.93894,0.19302
2490.01019,0.19359
2488.08145,0.19426
2486.15270,0.19475
2484.22396,0.19491
2482.29521,0.19509
2480.36647,0.19549
2478.43772,0.19591
2476.50897,0.19631
2474.58023,0.19664
2472.65148,0.19685
2470.72274,0.19712
2468.79399,0.19752
2466.86525,0.19787
2464.93650,0.19809
2463.00776,0.19819
2461.07901,0.19824
2459.15027,0.19834
2457.22152,0.19855
2455.29278,0.19882
2453.36403,0.19906
2451.43529,0.19929
2449.50654,0.19950
2447.57779,0.19977
2445.64905,0.20019
2443.72030,0.20060
2441.79156,0.20086
2439.86281,0.20108
2437.93407,0.20133
2436.00532,0.20157
2434.07658,0.20171
2432.14783,0.20172
2430.21909,0.20183
2428.29034,0.20217
2426.36160,0.20261
2424.43285,0.20307
2422.50411,0.20342
2420.57536,0.20368
2418.64662,0.20387
2416.71787,0.20392
2414.78912,0.20388
2412.86038,0.20387
2410.93163,0.20392
2409.00289,0.20401
2407.07414,0.20405
2405.14540,0.20402
2403.21665,0.20414
2401.28791,0.20446
2399.35916,0.20467
2397.43042,0.20458
2395.50167,0.20452
2393.57293,0.20452
2391.64418,0.20430
2389.71544,0.20413
2387.78669,0.20430
2385.85795,0.20448
2383.92920,0.20437
2382.00045,0.20426
2380.07171,0.20427
2378.14296,0.20431
2376.21422,0.20444
2374.28547,0.20463
2372.35673,0.20469
2370.42798,0.20461
2368.49924,0.20445
2366.57049,0.20426
2364.64175,0.20426
2362.71300,0.20445
2360.78426,0.20451
2358.85551,0.20429
2356.92677,0.20407
2354.99802,0.20401
2353.06927,0.20385
2351.14053,0.20367
2349.21178,0.20376
2347.28304,0.20395
2345.35429,0.20380
2343.42555,0.20331
2341.49680,0.20298
2339.56806,0.20301
2337.63931,0.20321
2335.71057,0.20334
2333.78182,0.20330
2331.85308,0.20315
2329.92433,0.20291
2327.99559,0.20268
2326.06684,0.20258
2324.13810,0.20255
2322.20935,0.20252
2320.28060,0.20261
2318.35186,0.20264
2316.42311,0.20241
2314.49437,0.20212
2312.56562,0.20198
2310.63688,0.20187
2308.70813,0.20177
2306.77939,0.20176
2304.85064,0.20175
2302.92190,0.20159
2300.99315,0.20130
2299.06441,0.20093
2297.13566,0.20043
2295.20692,0.19987
2293.27817,0.19940
2291.34943,0.19907
2289.42068,0.19878
2287.49193,0.19837
2285.56319,0.19797
2283.63444,0.19778
2281.70570,0.19771
2279.77695,0.19745
2277.84821,0.19679
2275.91946,0.19599
2273.99072,0.19545
2272.06197,0.19512
2270.13323,0.19475
2268.20448,0.19427
2266.27574,0.19374
2264.34699,0.19323
2262.41825,0.19274
2260.48950,0.19228
2258.56075,0.19190
2256.63201,0.19143
2254.70326,0.19084
2252.77452,0.19038
2250.84577,0.19000
2248.91703,0.18960
2246.98828,0.18917
2245.05954,0.18875
2243.13079,0.18841
2241.20205,0.18824
2239.27330,0.18815
2237.34456,0.18805
2235.41581,0.18797
2233.48707,0.18791
2231.55832,0.18775
2229.62958,0.18763
2227.70083,0.18767
2225.77208,0.18761
2223.84334,0.18753
2221.91459,0.18782
2219.98585,0.18853
2218.05710,0.18924
2216.12836,0.18976
2214.19961,0.19007
2212.27087,0.19024
2210.34212,0.19044
2208.41338,0.19068
2206.48463,0.19084
2204.55589,0.19098
2202.62714,0.19111
2200.69840,0.19117
2198.76965,0.19122
2196.84090,0.19121
2194.91216,0.19092
2192.98341,0.19042
2191.05467,0.19001
2189.12592,0.18981
2187.19718,0.18973
2185.26843,0.18968
2183.33969,0.18953
2181.41094,0.18911
2179.48220,0.18848
2177.55345,0.18786
2175.62471,0.18733
2173.69596,0.18680
2171.76722,0.18628
2169.83847,0.18574
2167.90973,0.18520
2165.98098,0.18468
2164.05223,0.18418
2162.12349,0.18379
2160.19474,0.18352
2158.26600,0.18324
2156.33725,0.18274
2154.40851,0.18207
2152.47976,0.18147
2150.55102,0.18104
2148.62227,0.18069
2146.69353,0.18028
2144.76478,0.17983
2142.83604,0.17935
2140.90729,0.17877
2138.97855,0.17820
2137.04980,0.17785
2135.12106,0.17786
2133.19231,0.17815
2131.26356,0.17847
2129.33482,0.17877
2127.40607,0.17911
2125.47733,0.17948
2123.54858,0.17988
2121.61984,0.18024
2119.69109,0.18045
2117.76235,0.18053
2115.83360,0.18053
2113.90486,0.18055
2111.97611,0.18070
2110.04737,0.18097
2108.11862,0.18122
2106.18988,0.18129
2104.26113,0.18117
2102.33238,0.18103
2100.40364,0.18098
2098.47489,0.18100
2096.54615,0.18099
2094.61740,0.18101
2092.68866,0.18113
2090.75991,0.18119
2088.83117,0.18109
2086.90242,0.18097
2084.97368,0.18085
2083.04493,0.18058
2081.11619,0.18025
2079.18744,0.17996
2077.25870,0.17970
2075.32995,0.17944
2073.40121,0.17907
2071.47246,0.17858
2069.54371,0.17811
2067.61497,0.17771
2065.68622,0.17742
2063.75748,0.17709
2061.82873,0.17659
2059.89999,0.17608
2057.97124,0.17555
2056.04250,0.17483
2054.11375,0.17406
2052.18501,0.17334
2050.25626,0.17244
2048.32752,0.17118
2046.39877,0.16964
2044.47003,0.16809
2042.54128,0.16666
2040.61254,0.16510
2038.68379,0.16317
2036.75504,0.16113
2034.82630,0.15930
2032.89755,0.15780
2030.96881,0.15662
2029.04006,0.15587
2027.11132,0.15547
2025.18257,0.15515
2023.25383,0.15475
2021.32508,0.15428
2019.39634,0.15361
2017.46759,0.15267
2015.53885,0.15143
2013.61010,0.14987
2011.68136,0.14820
2009.75261,0.14666
2007.82386,0.14529
2005.89512,0.14414
2003.96637,0.14324
2002.03763,0.14253
2000.10888,0.14192
1998.18014,0.14151
1996.25139,0.14136
1994.32265,0.14137
1992.39390,0.14144
1990.46516,0.14160
1988.53641,0.14184
1986.60767,0.14203
1984.67892,0.14215
1982.75018,0.14226
1980.82143,0.14237
1978.89269,0.14240
1976.96394,0.14235
1975.03519,0.14240
1973.10645,0.14270
1971.17770,0.14320
1969.24896,0.14379
1967.32021,0.14448
1965.39147,0.14523
1963.46272,0.14592
1961.53398,0.14651
1959.60523,0.14703
1957.67649,0.14743
1955.74774,0.14764
1953.81900,0.14769
1951.89025,0.14776
1949.96151,0.14784
1948.03276,0.14788
1946.10402,0.14798
1944.17527,0.14818
1942.24652,0.14842
1940.31778,0.14878
1938.38903,0.14930
1936.46029,0.14976
1934.53154,0.15005
1932.60280,0.15026
1930.67405,0.15047
1928.74531,0.15064
1926.81656,0.15072
1924.88782,0.15066
1922.95907,0.15042
1921.03033,0.14995
1919.10158,0.14907
1917.17284,0.14765
1915.24409,0.14591
1913.31534,0.14409
1911.38660,0.14205
1909.45785,0.13970
1907.52911,0.13729
1905.60036,0.13511
1903.67162,0.13306
1901.74287,0.13101
1899.81413,0.12907
1897.88538,0.12733
1895.95664,0.12574
1894.02789,0.12438
1892.09915,0.12325
1890.17040,0.12214
1888.24166,0.12096
1886.31291,0.11991
1884.38417,0.11909
1882.45542,0.11850
1880.52667,0.11807
1878.59793,0.11761
1876.66918,0.11714
1874.74044,0.11682
1872.81169,0.11668
1870.88295,0.11674
1868.95420,0.11692
1867.02546,0.11717
1865.09671,0.11767
1863.16797,0.11859
1861.23922,0.12004
1859.31048,0.12195
1857.38173,0.12431
1855.45299,0.12708
1853.52424,0.13001
1851.59549,0.13280
1849.66675,0.13533
1847.73800,0.13764
1845.80926,0.13983
1843.88051,0.14171
1841.95177,0.14291
1840.02302,0.14375
1838.09428,0.14451
1836.16553,0.14487
1834.23679,0.14474
1832.30804,0.14431
1830.37930,0.14364
1828.45055,0.14277
1826.52181,0.14183
1824.59306,0.14081
1822.66432,0.13958
1820.73557,0.13818
1818.80682,0.13684
1816.87808,0.13557
1814.94933,0.13416
1813.02059,0.13264
1811.09184,0.13116
1809.16310,0.12982
1807.23435,0.12858
1805.30561,0.12737
1803.37686,0.12618
1801.44812,0.12513
1799.51937,0.12426
1797.59063,0.12348
1795.66188,0.12284
1793.73314,0.12240
1791.80439,0.12197
1789.87565,0.12161
1787.94690,0.12161
1786.01815,0.12189
1784.08941,0.12224
1782.16066,0.12257
1780.23192,0.12285
1778.30317,0.12316
1776.37443,0.12361
1774.44568,0.12431
1772.51694,0.12524
1770.58819,0.12613
1768.65945,0.12690
1766.73070,0.12762
1764.80196,0.12818
1762.87321,0.12851
1760.94447,0.12856
1759.01572,0.12823
1757.08697,0.12732
1755.15823,0.12585
1753.22948,0.12390
1751.30074,0.12098
1749.37199,0.11687
1747.44325,0.11207
1745.51450,0.10672
1743.58576,0.10104
1741.65701,0.09544
1739.72827,0.09013
1737.79952,0.08589
1735.87078,0.08280
1733.94203,0.08002
1732.01329,0.07826
1730.08454,0.07795
1728.15580,0.07851
1726.22705,0.07981
1724.29830,0.08190
1722.36956,0.08444
1720.44081,0.08687
1718.51207,0.08923
1716.58332,0.09130
1714.65458,0.09227
1712.72583,0.09235
1710.79709,0.09219
1708.86834,0.09196
1706.93960,0.09145
1705.01085,0.09068
1703.08211,0.09000
1701.15336,0.08910
1699.22462,0.08762
1697.29587,0.08610
1695.36713,0.08451
1693.43838,0.08294
1691.50963,0.08166
1689.58089,0.08039
1687.65214,0.07920
1685.72340,0.07806
1683.79465,0.07648
1681.86591,0.07503
1679.93716,0.07408
1678.00842,0.07312
1676.07967,0.07194
1674.15093,0.07083
1672.22218,0.07007
1670.29344,0.06932
1668.36469,0.06821
1666.43595,0.06706
1664.50720,0.06612
1662.57845,0.06535
1660.64971,0.06453
1658.72096,0.06364
1656.79222,0.06296
1654.86347,0.06240
1652.93473,0.06156
1651.00598,0.06075
1649.07724,0.06016
1647.14849,0.05938
1645.21975,0.05867
1643.29100,0.05836
1641.36226,0.05819
1639.43351,0.05817
1637.50477,0.05822
1635.57602,0.05790
1633.64728,0.05735
1631.71853,0.05710
1629.78978,0.05702
1627.86104,0.05691
1625.93229,0.05683
1624.00355,0.05689
1622.07480,0.05695
1620.14606,0.05678
1618.21731,0.05648
1616.28857,0.05628
1614.35982,0.05632
1612.43108,0.05643
1610.50233,0.05648
1608.57359,0.05645
1606.64484,0.05632
1604.71610,0.05630
1602.78735,0.05646
1600.85861,0.05662
1598.92986,0.05677
1597.00111,0.05708
1595.07237,0.05749
1593.14362,0.05780
1591.21488,0.05808
1589.28613,0.05847
1587.35739,0.05885
1585.42864,0.05915
1583.49990,0.05937
1581.57115,0.05962
1579.64241,0.05997
1577.71366,0.06027
1575.78492,0.06037
1573.85617,0.06042
1571.92743,0.06061
1569.99868,0.06096
1568.06993,0.06141
1566.14119,0.06192
1564.21244,0.06238
1562.28370,0.06269
1560.35495,0.06292
1558.42621,0.06306
1556.49746,0.06299
1554.56872,0.06284
1552.63997,0.06272
1550.71123,0.06265
1548.78248,0.06264
1546.85374,0.06259
1544.92499,0.06234
1542.99625,0.06194
1541.06750,0.06147
1539.13876,0.06084
1537.21001,0.06036
1535.28126,0.06008
1533.35252,0.05967
1531.42377,0.05920
1529.49503,0.05889
1527.56628,0.05859
1525.63754,0.05826
1523.70879,0.05795
1521.78005,0.05742
1519.85130,0.05676
1517.92256,0.05623
1515.99381,0.05568
1514.06507,0.05509
1512.13632,0.05466
1510.20758,0.05438
1508.27883,0.05406
1506.35008,0.05356
1504.42134,0.05313
1502.49259,0.05281
1500.56385,0.05227
1498.63510,0.05127
1496.70636,0.04995
1494.77761,0.04904
1492.84887,0.04881
1490.92012,0.04878
1488.99138,0.04841
1487.06263,0.04762
1485.13389,0.04677
1483.20514,0.04611
1481.27640,0.04559
1479.34765,0.04510
1477.41891,0.04455
1475.49016,0.04409
1473.56141,0.04357
1471.63267,0.04269
1469.70392,0.04185
1467.77518,0.04129
1465.84643,0.04081
1463.91769,0.04037
1461.98894,0.04010
1460.06020,0.03993
1458.13145,0.03955
1456.20271,0.03889
1454.27396,0.03856
1452.34522,0.03856
1450.41647,0.03856
1448.48773,0.03837
1446.55898,0.03800
1444.63024,0.03770
1442.70149,0.03757
1440.77274,0.03747
1438.84400,0.03724
1436.91525,0.03671
1434.98651,0.03616
1433.05776,0.03593
1431.12902,0.03593
1429.20027,0.03606
1427.27153,0.03642
1425.34278,0.03702
1423.41404,0.03779
1421.48529,0.03863
1419.55655,0.03941
1417.62780,0.03979
1415.69906,0.03988
1413.77031,0.04009
1411.84156,0.04038
1409.91282,0.04057
1407.98407,0.04076
1406.05533,0.04085
1404.12658,0.04075
1402.19784,0.04061
1400.26909,0.04059
1398.34035,0.04075
1396.41160,0.04086
1394.48286,0.04063
1392.55411,0.04021
1390.62537,0.03988
1388.69662,0.03955
1386.76788,0.03905
1384.83913,0.03850
1382.91039,0.03807
1380.98164,0.03771
1379.05289,0.03747
1377.12415,0.03757
1375.19540,0.03786
1373.26666,0.03808
1371.33791,0.03837
1369.40917,0.03894
1367.48042,0.03969
1365.55168,0.04037
1363.62293,0.04095
1361.69419,0.04156
1359.76544,0.04208
1357.83670,0.04241
1355.90795,0.04278
1353.97921,0.04337
1352.05046,0.04406
1350.12172,0.04469
1348.19297,0.04510
1346.26422,0.04512
1344.33548,0.04486
1342.40673,0.04453
1340.47799,0.04436
1338.54924,0.04449
1336.62050,0.04458
1334.69175,0.04468
1332.76301,0.04513
1330.83426,0.04576
1328.90552,0.04622
1326.97677,0.04642
1325.04803,0.04626
1323.11928,0.04586
1321.19054,0.04556
1319.26179,0.04560
1317.33304,0.04613
1315.40430,0.04711
1313.47555,0.04828
1311.54681,0.04959
1309.61806,0.05099
1307.68932,0.05227
1305.76057,0.05338
1303.83183,0.05443
1301.90308,0.05541
1299.97434,0.05619
1298.04559,0.05681
1296.11685,0.05718
1294.18810,0.05727
1292.25936,0.05728
1290.33061,0.05715
1288.40187,0.05667
1286.47312,0.05607
1284.54437,0.05571
1282.61563,0.05571
1280.68688,0.05606
1278.75814,0.05679
1276.82939,0.05781
1274.90065,0.05891
1272.97190,0.05990
1271.04316,0.06073
1269.11441,0.06151
1267.18567,0.06242
1265.25692,0.06343
1263.32818,0.06450
1261.39943,0.06573
1259.47069,0.06721
1257.54194,0.06887
1255.61320,0.07066
1253.68445,0.07236
1251.75570,0.07373
1249.82696,0.07499
1247.89821,0.07635
1245.96947,0.07777
1244.04072,0.07947
1242.11198,0.08157
1240.18323,0.08369
1238.25449,0.08566
1236.32574,0.08782
1234.39700,0.09064
1232.46825,0.09418
1230.53951,0.09780
1228.61076,0.10088
1226.68202,0.10340
1224.75327,0.10540
1222.82452,0.10662
1220.89578,0.10683
1218.96703,0.10618
1217.03829,0.10506
1215.10954,0.10358
1213.18080,0.10147
1211.25205,0.09870
1209.32331,0.09576
1207.39456,0.09330
1205.46582,0.09157
1203.53707,0.09032
1201.60833,0.08928
1199.67958,0.08835
1197.75084,0.08767
1195.82209,0.08730
1193.89335,0.08695
1191.96460,0.08655
1190.03585,0.08622
1188.10711,0.08567
1186.17836,0.08483
1184.24962,0.08398
1182.32087,0.08318
1180.39213,0.08247
1178.46338,0.08193
1176.53464,0.08141
1174.60589,0.08085
1172.67715,0.08038
1170.74840,0.08005
1168.81966,0.07971
1166.89091,0.07884
1164.96217,0.07682
1163.03342,0.07357
1161.10467,0.07003
1159.17593,0.06791
1157.24718,0.06865
1155.31844,0.07179
1153.38969,0.07526
1151.46095,0.07786
1149.53220,0.07978
1147.60346,0.08129
1145.67471,0.08236
1143.74597,0.08326
1141.81722,0.08429
1139.88848,0.08519
1137.95973,0.08554
1136.03099,0.08561
1134.10224,0.08593
1132.17350,0.08639
1130.24475,0.08682
1128.31600,0.08739
1126.38726,0.08809
1124.45851,0.08887
1122.52977,0.08986
1120.60102,0.09098
1118.67228,0.09202
1116.74353,0.09294
1114.81479,0.09393
1112.88604,0.09513
1110.95730,0.09628
1109.02855,0.09722
1107.09981,0.09821
1105.17106,0.09934
1103.24232,0.10015
1101.31357,0.10033
1099.38483,0.10029
1097.45608,0.10080
1095.52733,0.10178
1093.59859,0.10242
1091.66984,0.10248
1089.74110,0.10250
1087.81235,0.10290
1085.88361,0.10337
1083.95486,0.10348
1082.02612,0.10348
1080.09737,0.10384
1078.16863,0.10459
1076.23988,0.10517
1074.31114,0.10480
1072.38239,0.10314
1070.45365,0.10061
1068.52490,0.09772
1066.59615,0.09468
1064.66741,0.09181
1062.73866,0.08925
1060.80992,0.08667
1058.88117,0.08374
1056.95243,0.08085
1055.02368,0.07856
1053.09494,0.07662
1051.16619,0.07458
1049.23745,0.07240
1047.30870,0.07037
1045.37996,0.06889
1043.45121,0.06808
1041.52247,0.06781
1039.59372,0.06797
1037.66498,0.06833
1035.73623,0.06861
1033.80748,0.06870
1031.87874,0.06856
1029.94999,0.06831
1028.02125,0.06814
1026.09250,0.06786
1024.16376,0.06721
1022.23501,0.06647
1020.30627,0.06601
1018.37752,0.06582
1016.44878,0.06579
1014.52003,0.06589
1012.59129,0.06611
1010.66254,0.06633
1008.73380,0.06633
1006.80505,0.06614
1004.87631,0.06581
1002.94756,0.06539
1001.01881,0.06514
999.09007,0.06531
997.16132,0.06579
995.23258,0.06632
993.30383,0.06690
991.37509,0.06758
989.44634,0.06814
987.51760,0.06838
985.58885,0.06853
983.66011,0.06904
981.73136,0.07001
979.80262,0.07120
977.87387,0.07229
975.94513,0.07292
974.01638,0.07304
972.08763,0.07294
970.15889,0.07290
968.23014,0.07301
966.30140,0.07307
964.37265,0.07310
962.44391,0.07326
960.51516,0.07351
958.58642,0.07368
956.65767,0.07393
954.72893,0.07437
952.80018,0.07468
950.87144,0.07476
948.94269,0.07460
947.01395,0.07417
945.08520,0.07385
943.15646,0.07389
941.22771,0.07399
939.29896,0.07391
937.37022,0.07378
935.44147,0.07377
933.51273,0.07386
931.58398,0.07397
929.65524,0.07415
927.72649,0.07423
925.79775,0.07403
923.86900,0.07365
921.94026,0.07344
920.01151,0.07349
918.08277,0.07334
916.15402,0.07260
914.22528,0.07153
912.29653,0.07063
910.36779,0.06992
908.43904,0.06909
906.51029,0.06822
904.58155,0.06746
902.65280,0.06663
900.72406,0.06596
898.79531,0.06580
896.86657,0.06605
894.93782,0.06646
893.00908,0.06683
891.08033,0.06715
889.15159,0.06757
887.22284,0.06817
885.29410,0.06870
883.36535,0.06889
881.43661,0.06902
879.50786,0.06934
877.57911,0.06953
875.65037,0.06934
873.72162,0.06902
871.79288,0.06898
869.86413,0.06923
867.93539,0.06936
866.00664,0.06933
864.07790,0.06941
862.14915,0.06960
860.22041,0.06969
858.29166,0.06952
856.36292,0.06915
854.43417,0.06909
852.50543,0.06939
850.57668,0.06934
848.64794,0.06883
846.71919,0.06836
844.79044,0.06789
842.86170,0.06729
840.93295,0.06662
839.00421,0.06604
837.07546,0.06571
835.14672,0.06520
833.21797,0.06400
831.28923,0.06262
829.36048,0.06175
827.43174,0.06105
825.50299,0.06000
823.57425,0.05869
821.64550,0.05748
819.71676,0.05641
817.78801,0.05529
815.85926,0.05435
813.93052,0.05384
812.00177,0.05391
810.07303,0.05513
808.14428,0.05746
806.21554,0.06018
804.28679,0.06282
802.35805,0.06494
800.42930,0.06612
798.50056,0.06649
796.57181,0.06619
794.64307,0.06525
792.71432,0.06447
790.78558,0.06462
788.85683,0.06556
786.92809,0.06690
784.99934,0.06839
783.07059,0.06982
781.14185,0.07084
779.21310,0.07107
777.28436,0.07050
775.35561,0.06925
773.42687,0.06754
771.49812,0.06606
769.56938,0.06524
767.64063,0.06482
765.71189,0.06427
763.78314,0.06344
761.85440,0.06286
759.92565,0.06286
757.99691,0.06272
756.06816,0.06225
754.13942,0.06209
752.21067,0.06233
750.28192,0.06247
748.35318,0.06207
746.42443,0.06123
744.49569,0.06049
742.56694,0.05988
740.63820,0.05922
738.70945,0.05842
736.78071,0.05738
734.85196,0.05643
732.92322,0.05583
730.99447,0.05531
729.06573,0.05444
727.13698,0.05322
725.20824,0.05199
723.27949,0.05100
721.35074,0.05036
719.42200,0.05002
717.49325,0.04939
715.56451,0.04819
713.63576,0.04691
711.70702,0.04594
709.77827,0.04502
707.84953,0.04395
705.92078,0.04293
703.99204,0.04205
702.06329,0.04131
700.13455,0.04106
698.20580,0.04143
696.27706,0.04238
694.34831,0.04370
692.41957,0.04464
690.49082,0.04518
688.56207,0.04593
686.63333,0.04657
684.70458,0.04642
682.77584,0.04586
680.84709,0.04577
678.91835,0.04597
676.98960,0.04554
675.06086,0.04441
673.13211,0.04355
671.20337,0.04376
669.27462,0.04462
667.34588,0.04500
665.41713,0.04464
663.48839,0.04432
661.55964,0.04436
659.63090,0.04477
657.70215,0.04552
655.77340,0.04607
653.84466,0.04561
651.91591,0.04425
649.98717,0.04296
648.05842,0.04252
646.12968,0.04290
644.20093,0.04338
642.27219,0.04330
640.34344,0.04257
638.41470,0.04164
636.48595,0.04100
634.55721,0.04075
632.62846,0.04086
630.69972,0.04095
628.77097,0.04071
626.84222,0.04034
624.91348,0.04057
622.98473,0.04122
621.05599,0.04120
619.12724,0.04051
617.19850,0.03971
615.26975,0.03900
613.34101,0.03882
611.41226,0.03966
609.48352,0.04096
607.55477,0.04163
605.62603,0.04202
603.69728,0.04277
601.76854,0.04358
599.83979,0.04425
