7497.03301,0.51072
7495.10426,0.50824
7493.17552,0.50766
7491.24677,0.50993
7489.31803,0.51205
7487.38928,0.51388
7485.46054,0.51641
7483.53179,0.51697
7481.60305,0.51559
7479.67430,0.51629
7477.74556,0.51887
7475.81681,0.51898
7473.88807,0.51494
7471.95932,0.51013
7470.03057,0.50789
7468.10183,0.50679
7466.17308,0.50494
7464.24434,0.50318
7462.31559,0.50087
7460.38685,0.49863
7458.45810,0.50071
7456.52936,0.50783
7454.60061,0.51510
7452.67187,0.51736
7450.74312,0.51341
7448.81438,0.50751
7446.88563,0.50416
7444.95689,0.50218
7443.02814,0.50055
7441.09940,0.50196
7439.17065,0.50610
7437.24190,0.50893
7435.31316,0.50792
7433.38441,0.50545
7431.45567,0.50452
7429.52692,0.50465
7427.59818,0.50716
7425.66943,0.51078
7423.74069,0.50866
7421.81194,0.50281
7419.88320,0.50301
7417.95445,0.50953
7416.02571,0.51277
7414.09696,0.50974
7412.16822,0.50726
7410.23947,0.50902
7408.31073,0.51178
7406.38198,0.51466
7404.45323,0.51855
7402.52449,0.51754
7400.59574,0.51047
7398.66700,0.50695
7396.73825,0.51039
7394.80951,0.51414
7392.88076,0.51244
7390.95202,0.50940
7389.02327,0.51128
7387.09453,0.51359
7385.16578,0.51033
7383.23704,0.50454
7381.30829,0.50079
7379.37955,0.50043
7377.45080,0.50439
7375.52205,0.51050
7373.59331,0.51241
7371.66456,0.50898
7369.73582,0.50478
7367.80707,0.50287
7365.87833,0.50529
7363.94958,0.51096
7362.02084,0.51283
7360.09209,0.50863
7358.16335,0.50480
7356.23460,0.50419
7354.30586,0.50494
7352.37711,0.50647
7350.44837,0.50723
7348.51962,0.50493
7346.59088,0.50214
7344.66213,0.50441
7342.73338,0.50970
7340.80464,0.51061
7338.87589,0.50955
7336.94715,0.51214
7335.01840,0.51337
7333.08966,0.51105
7331.16091,0.50987
7329.23217,0.50851
7327.30342,0.50594
7325.37468,0.50374
7323.44593,0.50138
7321.51719,0.50147
7319.58844,0.50449
7317.65970,0.50756
7315.73095,0.51082
7313.80221,0.51309
7311.87346,0.51229
7309.94471,0.51148
7308.01597,0.51342
7306.08722,0.51624
7304.15848,0.51817
7302.22973,0.51816
7300.30099,0.51569
7298.37224,0.51135
7296.44350,0.50622
7294.51475,0.50405
7292.58601,0.50498
7290.65726,0.50392
7288.72852,0.50079
7286.79977,0.49864
7284.87103,0.49875
7282.94228,0.50221
7281.01353,0.50748
7279.08479,0.50969
7277.15604,0.50635
7275.22730,0.50009
7273.29855,0.49652
7271.36981,0.49808
7269.44106,0.50159
7267.51232,0.50400
7265.58357,0.50544
7263.65483,0.50667
7261.72608,0.50868
7259.79734,0.51229
7257.86859,0.51239
7255.93985,0.50539
7254.01110,0.49924
7252.08236,0.49813
7250.15361,0.49867
7248.22486,0.50127
7246.29612,0.50436
7244.36737,0.50463
7242.43863,0.50278
7240.50988,0.50240
7238.58114,0.50728
7236.65239,0.51252
7234.72365,0.50982
7232.79490,0.50270
7230.86616,0.49967
7228.93741,0.50029
7227.00867,0.49921
7225.07992,0.49544
7223.15118,0.49524
7221.22243,0.50117
7219.29369,0.50540
7217.36494,0.50434
7215.43619,0.50276
7213.50745,0.50116
7211.57870,0.49797
7209.64996,0.49610
7207.72121,0.49818
7205.79247,0.50202
7203.86372,0.50343
7201.93498,0.50157
7200.00623,0.49933
7198.07749,0.49841
7196.14874,0.49877
7194.22000,0.49953
7192.29125,0.49888
7190.36251,0.49857
7188.43376,0.50160
7186.50501,0.50497
7184.57627,0.50410
7182.64752,0.50063
7180.71878,0.49936
7178.79003,0.50024
7176.86129,0.50105
7174.93254,0.50260
7173.00380,0.50327
7171.07505,0.49867
7169.14631,0.49091
7167.21756,0.48736
7165.28882,0.48861
7163.36007,0.48887
7161.43133,0.48706
7159.50258,0.48687
7157.57384,0.49005
7155.64509,0.49391
7153.71634,0.49517
7151.78760,0.49458
7149.85885,0.49336
7147.93011,0.49144
7146.00136,0.49202
7144.07262,0.49745
7142.14387,0.50188
7140.21513,0.50039
7138.28638,0.49773
7136.35764,0.49631
7134.42889,0.49314
7132.50015,0.49042
7130.57140,0.48994
7128.64266,0.48847
7126.71391,0.48597
7124.78516,0.48656
7122.85642,0.49082
7120.92767,0.49417
7118.99893,0.49449
7117.07018,0.49349
7115.14144,0.49169
7113.21269,0.48978
7111.28395,0.48897
7109.35520,0.49038
7107.42646,0.49452
7105.49771,0.49780
7103.56897,0.49652
7101.64022,0.49321
7099.71148,0.49152
7097.78273,0.49139
7095.85399,0.49148
7093.92524,0.49201
7091.99649,0.49424
7090.06775,0.49659
7088.13900,0.49526
7086.21026,0.49173
7084.28151,0.49112
7082.35277,0.49230
7080.42402,0.49074
7078.49528,0.48702
7076.56653,0.48480
7074.63779,0.48581
7072.70904,0.48877
7070.78030,0.49036
7068.85155,0.48947
7066.92281,0.48842
7064.99406,0.48853
7063.06532,0.48886
7061.13657,0.48786
7059.20782,0.48563
7057.27908,0.48388
7055.35033,0.48336
7053.42159,0.48266
7051.49284,0.48093
7049.56410,0.48108
7047.63535,0.48390
7045.70661,0.48590
7043.77786,0.48627
7041.84912,0.48531
7039.92037,0.48349
7037.99163,0.48255
7036.06288,0.48192
7034.13414,0.48063
7032.20539,0.48068
7030.27664,0.48394
7028.34790,0.48745
7026.41915,0.48779
7024.49041,0.48657
7022.56166,0.48618
7020.63292,0.48714
7018.70417,0.48864
7016.77543,0.48916
7014.84668,0.48824
7012.91794,0.48652
7010.98919,0.48421
7009.06045,0.48151
7007.13170,0.47986
7005.20296,0.47997
7003.27421,0.47990
7001.34547,0.47810
6999.41672,0.47701
6997.48797,0.47912
6995.55923,0.48241
6993.63048,0.48402
6991.70174,0.48327
6989.77299,0.48202
6987.84425,0.48255
6985.91550,0.48330
6983.98676,0.48149
6982.05801,0.47889
6980.12927,0.47915
6978.20052,0.48155
6976.27178,0.48228
6974.34303,0.47947
6972.41429,0.47537
6970.48554,0.47438
6968.55680,0.47759
6966.62805,0.48130
6964.69930,0.48262
6962.77056,0.48345
6960.84181,0.48460
6958.91307,0.48394
6956.98432,0.48262
6955.05558,0.48357
6953.12683,0.48536
6951.19809,0.48407
6949.26934,0.48140
6947.34060,0.48143
6945.41185,0.48264
6943.48311,0.48357
6941.55436,0.48371
6939.62562,0.48115
6937.69687,0.47727
6935.76812,0.47534
6933.83938,0.47629
6931.91063,0.47766
6929.98189,0.47826
6928.05314,0.48026
6926.12440,0.48234
6924.19565,0.48215
6922.26691,0.48296
6920.33816,0.48711
6918.40942,0.48990
6916.48067,0.48747
6914.55193,0.48439
6912.62318,0.48493
6910.69444,0.48469
6908.76569,0.48176
6906.83695,0.48217
6904.90820,0.48592
6902.97945,0.48721
6901.05071,0.48589
6899.12196,0.48425
6897.19322,0.48274
6895.26447,0.48182
6893.33573,0.48177
6891.40698,0.48209
6889.47824,0.48308
6887.54949,0.48522
6885.62075,0.48568
6883.69200,0.48278
6881.76326,0.48110
6879.83451,0.48389
6877.90577,0.48750
6875.97702,0.48697
6874.04828,0.48283
6872.11953,0.47952
6870.19078,0.47903
6868.26204,0.48048
6866.33329,0.48182
6864.40455,0.48085
6862.47580,0.47976
6860.54706,0.48168
6858.61831,0.48305
6856.68957,0.48197
6854.76082,0.48257
6852.83208,0.48416
6850.90333,0.48371
6848.97459,0.48422
6847.04584,0.48710
6845.11710,0.48737
6843.18835,0.48250
6841.25960,0.47699
6839.33086,0.47611
6837.40211,0.47943
6835.47337,0.48267
6833.54462,0.48373
6831.61588,0.48374
6829.68713,0.48381
6827.75839,0.48275
6825.82964,0.48037
6823.90090,0.47913
6821.97215,0.47928
6820.04341,0.48008
6818.11466,0.48187
6816.18592,0.48330
6814.25717,0.48226
6812.32843,0.47972
6810.39968,0.47948
6808.47093,0.48114
6806.54219,0.48091
6804.61344,0.47928
6802.68470,0.47905
6800.75595,0.48114
6798.82721,0.48324
6796.89846,0.48323
6794.96972,0.48385
6793.04097,0.48698
6791.11223,0.48899
6789.18348,0.48731
6787.25474,0.48458
6785.32599,0.48345
6783.39725,0.48385
6781.46850,0.48444
6779.53975,0.48337
6777.61101,0.48178
6775.68226,0.48283
6773.75352,0.48640
6771.82477,0.48957
6769.89603,0.49036
6767.96728,0.48895
6766.03854,0.48657
6764.10979,0.48510
6762.18105,0.48605
6760.25230,0.48746
6758.32356,0.48625
6756.39481,0.48355
6754.46607,0.48256
6752.53732,0.48430
6750.60858,0.48721
6748.67983,0.48836
6746.75108,0.48712
6744.82234,0.48555
6742.89359,0.48518
6740.96485,0.48594
6739.03610,0.48479
6737.10736,0.48033
6735.17861,0.47737
6733.24987,0.47858
6731.32112,0.48027
6729.39238,0.47987
6727.46363,0.47916
6725.53489,0.48059
6723.60614,0.48322
6721.67740,0.48409
6719.74865,0.48326
6717.81991,0.48284
6715.89116,0.48296
6713.96241,0.48228
6712.03367,0.48015
6710.10492,0.47798
6708.17618,0.47838
6706.24743,0.48120
6704.31869,0.48281
6702.38994,0.48211
6700.46120,0.48231
6698.53245,0.48474
6696.60371,0.48635
6694.67496,0.48574
6692.74622,0.48537
6690.81747,0.48571
6688.88873,0.48608
6686.95998,0.48629
6685.03123,0.48452
6683.10249,0.48200
6681.17374,0.48113
6679.24500,0.48147
6677.31625,0.48389
6675.38751,0.48769
6673.45876,0.48904
6671.53002,0.48772
6669.60127,0.48619
6667.67253,0.48453
6665.74378,0.48334
6663.81504,0.48443
6661.88629,0.48650
6659.95755,0.48713
6658.02880,0.48599
6656.10006,0.48429
6654.17131,0.48345
6652.24256,0.48344
6650.31382,0.48421
6648.38507,0.48568
6646.45633,0.48649
6644.52758,0.48606
6642.59884,0.48469
6640.67009,0.48367
6638.74135,0.48510
6636.81260,0.48799
6634.88386,0.48926
6632.95511,0.48773
6631.02637,0.48402
6629.09762,0.48086
6627.16888,0.48070
6625.24013,0.48097
6623.31139,0.47942
6621.38264,0.47920
6619.45389,0.48127
6617.52515,0.48252
6615.59640,0.48244
6613.66766,0.48171
6611.73891,0.48114
6609.81017,0.48262
6607.88142,0.48502
6605.95268,0.48661
6604.02393,0.48800
6602.09519,0.48804
6600.16644,0.48595
6598.23770,0.48499
6596.30895,0.48610
6594.38021,0.48657
6592.45146,0.48742
6590.52271,0.48997
6588.59397,0.49097
6586.66522,0.48850
6584.73648,0.48428
6582.80773,0.48171
6580.87899,0.48248
6578.95024,0.48353
6577.02150,0.48337
6575.09275,0.48469
6573.16401,0.48815
6571.23526,0.49162
6569.30652,0.49231
6567.37777,0.48937
6565.44903,0.48641
6563.52028,0.48588
6561.59154,0.48549
6559.66279,0.48397
6557.73404,0.48267
6555.80530,0.48237
6553.87655,0.48205
6551.94781,0.48112
6550.01906,0.48191
6548.09032,0.48529
6546.16157,0.48791
6544.23283,0.48791
6542.30408,0.48634
6540.37534,0.48456
6538.44659,0.48407
6536.51785,0.48486
6534.58910,0.48644
6532.66036,0.48899
6530.73161,0.49096
6528.80287,0.49083
6526.87412,0.48990
6524.94537,0.49068
6523.01663,0.49237
6521.08788,0.49178
6519.15914,0.48971
6517.23039,0.48813
6515.30165,0.48576
6513.37290,0.48277
6511.44416,0.48197
6509.51541,0.48393
6507.58667,0.48610
6505.65792,0.48666
6503.72918,0.48650
6501.80043,0.48737
6499.87169,0.48832
6497.94294,0.48721
6496.01419,0.48539
6494.08545,0.48523
6492.15670,0.48628
6490.22796,0.48694
6488.29921,0.48612
6486.37047,0.48476
6484.44172,0.48472
6482.51298,0.48528
6480.58423,0.48540
6478.65549,0.48561
6476.72674,0.48543
6474.79800,0.48479
6472.86925,0.48515
6470.94051,0.48635
6469.01176,0.48819
6467.08302,0.49126
6465.15427,0.49240
6463.22552,0.48835
6461.29678,0.48329
6459.36803,0.48316
6457.43929,0.48670
6455.51054,0.48924
6453.58180,0.48958
6451.65305,0.48863
6449.72431,0.48724
6447.79556,0.48696
6445.86682,0.48886
6443.93807,0.49046
6442.00933,0.48916
6440.08058,0.48690
6438.15184,0.48627
6436.22309,0.48694
6434.29434,0.48771
6432.36560,0.48869
6430.43685,0.49014
6428.50811,0.49062
6426.57936,0.48997
6424.65062,0.48968
6422.72187,0.49016
6420.79313,0.49138
6418.86438,0.49257
6416.93564,0.49217
6415.00689,0.49086
6413.07815,0.49093
6411.14940,0.49191
6409.22066,0.49270
6407.29191,0.49450
6405.36317,0.49578
6403.43442,0.49453
6401.50567,0.49275
6399.57693,0.49122
6397.64818,0.48927
6395.71944,0.48784
6393.79069,0.48732
6391.86195,0.48750
6389.93320,0.48882
6388.00446,0.49017
6386.07571,0.48958
6384.14697,0.48873
6382.21822,0.48982
6380.28948,0.49018
6378.36073,0.48763
6376.43199,0.48541
6374.50324,0.48659
6372.57450,0.48966
6370.64575,0.49180
6368.71700,0.49247
6366.78826,0.49170
6364.85951,0.49019
6362.93077,0.49065
6361.00202,0.49220
6359.07328,0.49103
6357.14453,0.48737
6355.21579,0.48429
6353.28704,0.48420
6351.35830,0.48671
6349.42955,0.48905
6347.50081,0.48984
6345.57206,0.48918
6343.64332,0.48731
6341.71457,0.48551
6339.78582,0.48510
6337.85708,0.48512
6335.92833,0.48477
6333.99959,0.48550
6332.07084,0.48782
6330.14210,0.49021
6328.21335,0.49109
6326.28461,0.49132
6324.35586,0.49220
6322.42712,0.49233
6320.49837,0.49140
6318.56963,0.49104
6316.64088,0.49132
6314.71214,0.49150
6312.78339,0.49135
6310.85465,0.49092
6308.92590,0.49026
6306.99715,0.48951
6305.06841,0.48877
6303.13966,0.48826
6301.21092,0.48848
6299.28217,0.48900
6297.35343,0.48888
6295.42468,0.48844
6293.49594,0.48839
6291.56719,0.48867
6289.63845,0.48851
6287.70970,0.48688
6285.78096,0.48470
6283.85221,0.48439
6281.92347,0.48593
6279.99472,0.48786
6278.06598,0.48925
6276.13723,0.48944
6274.20848,0.48966
6272.27974,0.49070
6270.35099,0.49023
6268.42225,0.48799
6266.49350,0.48757
6264.56476,0.49021
6262.63601,0.49177
6260.70727,0.48997
6258.77852,0.48896
6256.84978,0.49044
6254.92103,0.49147
6252.99229,0.49201
6251.06354,0.49324
6249.13480,0.49383
6247.20605,0.49272
6245.27730,0.49070
6243.34856,0.48914
6241.41981,0.48858
6239.49107,0.48833
6237.56232,0.48847
6235.63358,0.48933
6233.70483,0.48897
6231.77609,0.48683
6229.84734,0.48600
6227.91860,0.48732
6225.98985,0.48880
6224.06111,0.48996
6222.13236,0.49069
6220.20362,0.49042
6218.27487,0.49030
6216.34613,0.49059
6214.41738,0.48939
6212.48863,0.48790
6210.55989,0.48842
6208.63114,0.48983
6206.70240,0.49125
6204.77365,0.49336
6202.84491,0.49524
6200.91616,0.49471
6198.98742,0.49139
6197.05867,0.48791
6195.12993,0.48673
6193.20118,0.48740
6191.27244,0.48790
6189.34369,0.48797
6187.41495,0.48881
6185.48620,0.49030
6183.55746,0.49145
6181.62871,0.49209
6179.69996,0.49200
6177.77122,0.49033
6175.84247,0.48848
6173.91373,0.48996
6171.98498,0.49430
6170.05624,0.49683
6168.12749,0.49604
6166.19875,0.49440
6164.27000,0.49327
6162.34126,0.49258
6160.41251,0.49207
6158.48377,0.49130
6156.55502,0.49107
6154.62628,0.49165
6152.69753,0.49152
6150.76878,0.49067
6148.84004,0.49090
6146.91129,0.49253
6144.98255,0.49359
6143.05380,0.49273
6141.12506,0.49068
6139.19631,0.48915
6137.26757,0.48898
6135.33882,0.48943
6133.41008,0.49032
6131.48133,0.49142
6129.55259,0.49142
6127.62384,0.49082
6125.69510,0.49083
6123.76635,0.49137
6121.83761,0.49204
6119.90886,0.49194
6117.98011,0.49063
6116.05137,0.49009
6114.12262,0.49190
6112.19388,0.49404
6110.26513,0.49372
6108.33639,0.49139
6106.40764,0.49004
6104.47890,0.49113
6102.55015,0.49313
6100.62141,0.49376
6098.69266,0.49258
6096.76392,0.49174
6094.83517,0.49222
6092.90643,0.49274
6090.97768,0.49335
6089.04893,0.49416
6087.12019,0.49403
6085.19144,0.49335
6083.26270,0.49293
6081.33395,0.49189
6079.40521,0.49074
6077.47646,0.49121
6075.54772,0.49249
6073.61897,0.49263
6071.69023,0.49142
6069.76148,0.49055
6067.83274,0.49133
6065.90399,0.49265
6063.97525,0.49296
6062.04650,0.49225
6060.11776,0.49196
6058.18901,0.49277
6056.26026,0.49323
6054.33152,0.49292
6052.40277,0.49276
6050.47403,0.49304
6048.54528,0.49396
6046.61654,0.49488
6044.68779,0.49477
6042.75905,0.49463
6040.83030,0.49462
6038.90156,0.49337
6036.97281,0.49204
6035.04407,0.49211
6033.11532,0.49221
6031.18658,0.49184
6029.25783,0.49207
6027.32909,0.49226
6025.40034,0.49129
6023.47159,0.49014
6021.54285,0.49026
6019.61410,0.49101
6017.68536,0.49131
6015.75661,0.49171
6013.82787,0.49183
6011.89912,0.49080
6009.97038,0.48980
6008.04163,0.48971
6006.11289,0.49059
6004.18414,0.49205
6002.25540,0.49291
6000.32665,0.49325
5998.39791,0.49346
5996.46916,0.49303
5994.54041,0.49192
5992.61167,0.49069
5990.68292,0.48949
5988.75418,0.48847
5986.82543,0.48842
5984.89669,0.48904
5982.96794,0.48943
5981.03920,0.49000
5979.11045,0.49055
5977.18171,0.49026
5975.25296,0.49056
5973.32422,0.49168
5971.39547,0.49082
5969.46673,0.48826
5967.53798,0.48719
5965.60924,0.48789
5963.68049,0.48859
5961.75174,0.48889
5959.82300,0.48907
5957.89425,0.48876
5955.96551,0.48876
5954.03676,0.48966
5952.10802,0.48965
5950.17927,0.48859
5948.25053,0.48853
5946.32178,0.48955
5944.39304,0.49024
5942.46429,0.49011
5940.53555,0.48963
5938.60680,0.48954
5936.67806,0.48981
5934.74931,0.48951
5932.82057,0.48852
5930.89182,0.48777
5928.96307,0.48801
5927.03433,0.48856
5925.10558,0.48806
5923.17684,0.48752
5921.24809,0.48862
5919.31935,0.49023
5917.39060,0.49099
5915.46186,0.49109
5913.53311,0.49054
5911.60437,0.48955
5909.67562,0.48875
5907.74688,0.48849
5905.81813,0.48900
5903.88939,0.49014
5901.96064,0.49114
5900.03189,0.49177
5898.10315,0.49220
5896.17440,0.49208
5894.24566,0.49115
5892.31691,0.48994
5890.38817,0.48924
5888.45942,0.48948
5886.53068,0.49038
5884.60193,0.49070
5882.67319,0.48988
5880.74444,0.48913
5878.81570,0.48925
5876.88695,0.48949
5874.95821,0.48940
5873.02946,0.48953
5871.10072,0.49023
5869.17197,0.49022
5867.24322,0.48882
5865.31448,0.48795
5863.38573,0.48862
5861.45699,0.49008
5859.52824,0.49175
5857.59950,0.49285
5855.67075,0.49235
5853.74201,0.49026
5851.81326,0.48880
5849.88452,0.48955
5847.95577,0.49089
5846.02703,0.49134
5844.09828,0.49099
5842.16954,0.48993
5840.24079,0.48867
5838.31205,0.48813
5836.38330,0.48859
5834.45455,0.48911
5832.52581,0.48859
5830.59706,0.48726
5828.66832,0.48650
5826.73957,0.48709
5824.81083,0.48817
5822.88208,0.48821
5820.95334,0.48749
5819.02459,0.48751
5817.09585,0.48788
5815.16710,0.48755
5813.23836,0.48660
5811.30961,0.48549
5809.38087,0.48576
5807.45212,0.48763
5805.52337,0.48882
5803.59463,0.48855
5801.66588,0.48807
5799.73714,0.48834
5797.80839,0.48882
5795.87965,0.48863
5793.95090,0.48812
5792.02216,0.48776
5790.09341,0.48763
5788.16467,0.48779
5786.23592,0.48758
5784.30718,0.48656
5782.37843,0.48602
5780.44969,0.48696
5778.52094,0.48796
5776.59220,0.48736
5774.66345,0.48600
5772.73470,0.48586
5770.80596,0.48698
5768.87721,0.48729
5766.94847,0.48601
5765.01972,0.48493
5763.09098,0.48524
5761.16223,0.48617
5759.23349,0.48724
5757.30474,0.48840
5755.37600,0.48940
5753.44725,0.48973
5751.51851,0.48896
5749.58976,0.48798
5747.66102,0.48740
5745.73227,0.48671
5743.80352,0.48667
5741.87478,0.48731
5739.94603,0.48710
5738.01729,0.48621
5736.08854,0.48572
5734.15980,0.48554
5732.23105,0.48534
5730.30231,0.48512
5728.37356,0.48509
5726.44482,0.48513
5724.51607,0.48490
5722.58733,0.48482
5720.65858,0.48520
5718.72984,0.48516
5716.80109,0.48472
5714.87235,0.48488
5712.94360,0.48529
5711.01485,0.48570
5709.08611,0.48670
5707.15736,0.48723
5705.22862,0.48667
5703.29987,0.48592
5701.37113,0.48491
5699.44238,0.48368
5697.51364,0.48335
5695.58489,0.48410
5693.65615,0.48459
5691.72740,0.48404
5689.79866,0.48354
5687.86991,0.48391
5685.94117,0.48462
5684.01242,0.48542
5682.08368,0.48629
5680.15493,0.48644
5678.22618,0.48554
5676.29744,0.48448
5674.36869,0.48398
5672.43995,0.48414
5670.51120,0.48477
5668.58246,0.48513
5666.65371,0.48462
5664.72497,0.48366
5662.79622,0.48319
5660.86748,0.48381
5658.93873,0.48492
5657.00999,0.48523
5655.08124,0.48460
5653.15250,0.48402
5651.22375,0.48393
5649.29500,0.48392
5647.36626,0.48378
5645.43751,0.48414
5643.50877,0.48501
5641.58002,0.48527
5639.65128,0.48477
5637.72253,0.48388
5635.79379,0.48267
5633.86504,0.48240
5631.93630,0.48370
5630.00755,0.48493
5628.07881,0.48515
5626.15006,0.48524
5624.22132,0.48550
5622.29257,0.48534
5620.36383,0.48465
5618.43508,0.48392
5616.50633,0.48372
5614.57759,0.48371
5612.64884,0.48313
5610.72010,0.48247
5608.79135,0.48269
5606.86261,0.48309
5604.93386,0.48255
5603.00512,0.48198
5601.07637,0.48238
5599.14763,0.48294
5597.21888,0.48325
5595.29014,0.48317
5593.36139,0.48244
5591.43265,0.48172
5589.50390,0.48178
5587.57516,0.48248
5585.64641,0.48296
5583.71766,0.48264
5581.78892,0.48182
5579.86017,0.48148
5577.93143,0.48222
5576.00268,0.48344
5574.07394,0.48430
5572.14519,0.48429
5570.21645,0.48338
5568.28770,0.48221
5566.35896,0.48182
5564.43021,0.48241
5562.50147,0.48292
5560.57272,0.48300
5558.64398,0.48289
5556.71523,0.48227
5554.78648,0.48165
5552.85774,0.48179
5550.92899,0.48217
5549.00025,0.48190
5547.07150,0.48123
5545.14276,0.48134
5543.21401,0.48232
5541.28527,0.48325
5539.35652,0.48368
5537.42778,0.48363
5535.49903,0.48343
5533.57029,0.48356
5531.64154,0.48399
5529.71280,0.48408
5527.78405,0.48351
5525.85531,0.48263
5523.92656,0.48194
5521.99781,0.48183
5520.06907,0.48232
5518.14032,0.48282
5516.21158,0.48267
5514.28283,0.48183
5512.35409,0.48105
5510.42534,0.48103
5508.49660,0.48152
5506.56785,0.48201
5504.63911,0.48232
5502.71036,0.48203
5500.78162,0.48135
5498.85287,0.48094
5496.92413,0.48078
5494.99538,0.48069
5493.06664,0.48072
5491.13789,0.48121
5489.20914,0.48199
5487.28040,0.48212
5485.35165,0.48203
5483.42291,0.48217
5481.49416,0.48172
5479.56542,0.48107
5477.63667,0.48129
5475.70793,0.48152
5473.77918,0.48080
5471.85044,0.48013
5469.92169,0.48031
5467.99295,0.48071
5466.06420,0.48086
5464.13546,0.48101
5462.20671,0.48112
5460.27796,0.48118
5458.34922,0.48168
5456.42047,0.48255
5454.49173,0.48326
5452.56298,0.48325
5450.63424,0.48248
5448.70549,0.48159
5446.77675,0.48101
5444.84800,0.48071
5442.91926,0.48025
5440.99051,0.47947
5439.06177,0.47938
5437.13302,0.47992
5435.20428,0.48036
5433.27553,0.48075
5431.34679,0.48049
5429.41804,0.47956
5427.48929,0.47921
5425.56055,0.47960
5423.63180,0.48005
5421.70306,0.48052
5419.77431,0.48135
5417.84557,0.48240
5415.91682,0.48286
5413.98808,0.48247
5412.05933,0.48220
5410.13059,0.48240
5408.20184,0.48212
5406.27310,0.48119
5404.34435,0.48047
5402.41561,0.48021
5400.48686,0.47987
5398.55811,0.47969
5396.62937,0.48037
5394.70062,0.48120
5392.77188,0.48095
5390.84313,0.48001
5388.91439,0.47954
5386.98564,0.47981
5385.05690,0.48013
5383.12815,0.48017
5381.19941,0.48041
5379.27066,0.48092
5377.34192,0.48111
5375.41317,0.48037
5373.48443,0.47924
5371.55568,0.47879
5369.62694,0.47826
5367.69819,0.47730
5365.76944,0.47730
5363.84070,0.47811
5361.91195,0.47878
5359.98321,0.47940
5358.05446,0.47939
5356.12572,0.47845
5354.19697,0.47762
5352.26823,0.47743
5350.33948,0.47737
5348.41074,0.47725
5346.48199,0.47708
5344.55325,0.47662
5342.62450,0.47588
5340.69576,0.47539
5338.76701,0.47539
5336.83827,0.47544
5334.90952,0.47495
5332.98077,0.47385
5331.05203,0.47287
5329.12328,0.47288
5327.19454,0.47337
5325.26579,0.47310
5323.33705,0.47225
5321.40830,0.47191
5319.47956,0.47201
5317.55081,0.47166
5315.62207,0.47095
5313.69332,0.47057
5311.76458,0.47039
5309.83583,0.46993
5307.90709,0.46928
5305.97834,0.46877
5304.04959,0.46862
5302.12085,0.46842
5300.19210,0.46763
5298.26336,0.46643
5296.33461,0.46502
5294.40587,0.46331
5292.47712,0.46190
5290.54838,0.46137
5288.61963,0.46100
5286.69089,0.46022
5284.76214,0.45944
5282.83340,0.45830
5280.90465,0.45681
5278.97591,0.45577
5277.04716,0.45489
5275.11842,0.45396
5273.18967,0.45317
5271.26092,0.45200
5269.33218,0.45067
5267.40343,0.44991
5265.47469,0.44881
5263.54594,0.44688
5261.61720,0.44566
5259.68845,0.44512
5257.75971,0.44353
5255.83096,0.44102
5253.90222,0.43917
5251.97347,0.43813
5250.04473,0.43670
5248.11598,0.43479
5246.18724,0.43315
5244.25849,0.43159
5242.32975,0.43002
5240.40100,0.42895
5238.47225,0.42800
5236.54351,0.42637
5234.61476,0.42427
5232.68602,0.42225
5230.75727,0.42050
5228.82853,0.41920
5226.89978,0.41824
5224.97104,0.41699
5223.04229,0.41526
5221.11355,0.41404
5219.18480,0.41381
5217.25606,0.41375
5215.32731,0.41322
5213.39857,0.41183
5211.46982,0.40996
5209.54107,0.40878
5207.61233,0.40826
5205.68358,0.40759
5203.75484,0.40694
5201.82609,0.40659
5199.89735,0.40632
5197.96860,0.40607
5196.03986,0.40567
5194.11111,0.40525
5192.18237,0.40569
5190.25362,0.40653
5188.32488,0.40635
5186.39613,0.40532
5184.46739,0.40476
5182.53864,0.40493
5180.60990,0.40496
5178.68115,0.40493
5176.75240,0.40584
5174.82366,0.40707
5172.89491,0.40744
5170.96617,0.40716
5169.03742,0.40711
5167.10868,0.40778
5165.17993,0.40854
5163.25119,0.40877
5161.32244,0.40934
5159.39370,0.41055
5157.46495,0.41139
5155.53621,0.41179
5153.60746,0.41236
5151.67872,0.41308
5149.74997,0.41371
5147.82123,0.41402
5145.89248,0.41399
5143.96373,0.41435
5142.03499,0.41520
5140.10624,0.41598
5138.17750,0.41696
5136.24875,0.41800
5134.32001,0.41833
5132.39126,0.41833
5130.46252,0.41868
5128.53377,0.41905
5126.60503,0.41933
5124.67628,0.42001
5122.74754,0.42079
5120.81879,0.42132
5118.89005,0.42203
5116.96130,0.42320
5115.03255,0.42438
5113.10381,0.42518
5111.17506,0.42574
5109.24632,0.42609
5107.31757,0.42628
5105.38883,0.42661
5103.46008,0.42686
5101.53134,0.42686
5099.60259,0.42671
5097.67385,0.42657
5095.74510,0.42689
5093.81636,0.42770
5091.88761,0.42852
5089.95887,0.42907
5088.03012,0.42943
5086.10138,0.42988
5084.17263,0.43056
5082.24388,0.43125
5080.31514,0.43143
5078.38639,0.43127
5076.45765,0.43139
5074.52890,0.43162
5072.60016,0.43200
5070.67141,0.43264
5068.74267,0.43308
5066.81392,0.43338
5064.88518,0.43352
5062.95643,0.43342
5061.02769,0.43364
5059.09894,0.43439
5057.17020,0.43525
5055.24145,0.43573
5053.31270,0.43576
5051.38396,0.43598
5049.45521,0.43684
5047.52647,0.43779
5045.59772,0.43800
5043.66898,0.43787
5041.74023,0.43822
5039.81149,0.43882
5037.88274,0.43892
5035.95400,0.43872
5034.02525,0.43913
5032.09651,0.43982
5030.16776,0.43978
5028.23902,0.43968
5026.31027,0.44022
5024.38153,0.44065
5022.45278,0.44058
5020.52403,0.44051
5018.59529,0.44082
5016.66654,0.44138
5014.73780,0.44190
5012.80905,0.44230
5010.88031,0.44279
5008.95156,0.44324
5007.02282,0.44324
5005.09407,0.44298
5003.16533,0.44321
5001.23658,0.44401
4999.30784,0.44451
4997.37909,0.44429
4995.45035,0.44398
4993.52160,0.44401
4991.59286,0.44413
4989.66411,0.44444
4987.73536,0.44502
4985.80662,0.44528
4983.87787,0.44515
4981.94913,0.44503
4980.02038,0.44499
4978.09164,0.44519
4976.16289,0.44554
4974.23415,0.44590
4972.30540,0.44646
4970.37666,0.44685
4968.44791,0.44687
4966.51917,0.44701
4964.59042,0.44714
4962.66168,0.44680
4960.73293,0.44647
4958.80418,0.44654
4956.87544,0.44663
4954.94669,0.44677
4953.01795,0.44684
4951.08920,0.44632
4949.16046,0.44572
4947.23171,0.44604
4945.30297,0.44661
4943.37422,0.44651
4941.44548,0.44620
4939.51673,0.44607
4937.58799,0.44584
4935.65924,0.44586
4933.73050,0.44650
4931.80175,0.44692
4929.87301,0.44636
4927.94426,0.44589
4926.01551,0.44643
4924.08677,0.44700
4922.15802,0.44658
4920.22928,0.44555
4918.30053,0.44483
4916.37179,0.44474
4914.44304,0.44486
4912.51430,0.44488
4910.58555,0.44492
4908.65681,0.44478
4906.72806,0.44451
4904.79932,0.44460
4902.87057,0.44503
4900.94183,0.44510
4899.01308,0.44426
4897.08434,0.44323
4895.15559,0.44306
4893.22684,0.44352
4891.29810,0.44392
4889.36935,0.44381
4887.44061,0.44293
4885.51186,0.44203
4883.58312,0.44197
4881.65437,0.44206
4879.72563,0.44125
4877.79688,0.44040
4875.86814,0.44048
4873.93939,0.44071
4872.01065,0.44026
4870.08190,0.43974
4868.15316,0.43963
4866.22441,0.43949
4864.29566,0.43955
4862.36692,0.44000
4860.43817,0.43989
4858.50943,0.43914
4856.58068,0.43846
4854.65194,0.43797
4852.72319,0.43774
4850.79445,0.43769
4848.86570,0.43766
4846.93696,0.43775
4845.00821,0.43778
4843.07947,0.43772
4841.15072,0.43779
4839.22198,0.43791
4837.29323,0.43762
4835.36449,0.43658
4833.43574,0.43525
4831.50699,0.43443
4829.57825,0.43430
4827.64950,0.43435
4825.72076,0.43408
4823.79201,0.43399
4821.86327,0.43427
4819.93452,0.43413
4818.00578,0.43379
4816.07703,0.43376
4814.14829,0.43359
4812.21954,0.43314
4810.29080,0.43289
4808.36205,0.43288
4806.43331,0.43288
4804.50456,0.43295
4802.57582,0.43294
4800.64707,0.43268
4798.71832,0.43243
4796.78958,0.43237
4794.86083,0.43247
4792.93209,0.43256
4791.00334,0.43214
4789.07460,0.43130
4787.14585,0.43084
4785.21711,0.43085
4783.28836,0.43064
4781.35962,0.43009
4779.43087,0.42989
4777.50213,0.43009
4775.57338,0.43030
4773.64464,0.43070
4771.71589,0.43129
4769.78714,0.43144
4767.85840,0.43094
4765.92965,0.43030
4764.00091,0.43010
4762.07216,0.43028
4760.14342,0.43030
4758.21467,0.43007
4756.28593,0.43005
4754.35718,0.43054
4752.42844,0.43106
4750.49969,0.43103
4748.57095,0.43058
4746.64220,0.43030
4744.71346,0.43049
4742.78471,0.43081
4740.85597,0.43127
4738.92722,0.43196
4736.99847,0.43231
4735.06973,0.43197
4733.14098,0.43125
4731.21224,0.43086
4729.28349,0.43119
4727.35475,0.43175
4725.42600,0.43220
4723.49726,0.43253
4721.56851,0.43268
4719.63977,0.43281
4717.71102,0.43308
4715.78228,0.43330
4713.85353,0.43326
4711.92479,0.43298
4709.99604,0.43261
4708.06729,0.43258
4706.13855,0.43304
4704.20980,0.43358
4702.28106,0.43387
4700.35231,0.43387
4698.42357,0.43379
4696.49482,0.43389
4694.56608,0.43431
4692.63733,0.43472
4690.70859,0.43479
4688.77984,0.43483
4686.85110,0.43490
4684.92235,0.43469
4682.99361,0.43439
4681.06486,0.43433
4679.13612,0.43413
4677.20737,0.43371
4675.27862,0.43375
4673.34988,0.43451
4671.42113,0.43544
4669.49239,0.43595
4667.56364,0.43599
4665.63490,0.43586
4663.70615,0.43566
4661.77741,0.43563
4659.84866,0.43592
4657.91992,0.43621
4655.99117,0.43622
4654.06243,0.43600
4652.13368,0.43590
4650.20494,0.43614
4648.27619,0.43662
4646.34745,0.43695
4644.41870,0.43685
4642.48995,0.43671
4640.56121,0.43677
4638.63246,0.43664
4636.70372,0.43650
4634.77497,0.43669
4632.84623,0.43676
4630.91748,0.43646
4628.98874,0.43633
4627.05999,0.43648
4625.13125,0.43667
4623.20250,0.43671
4621.27376,0.43648
4619.34501,0.43623
4617.41627,0.43613
4615.48752,0.43607
4613.55877,0.43620
4611.63003,0.43671
4609.70128,0.43718
4607.77254,0.43735
4605.84379,0.43730
4603.91505,0.43680
4601.98630,0.43591
4600.05756,0.43537
4598.12881,0.43541
4596.20007,0.43570
4594.27132,0.43595
4592.34258,0.43611
4590.41383,0.43626
4588.48509,0.43614
4586.55634,0.43585
4584.62760,0.43602
4582.69885,0.43658
4580.77010,0.43669
4578.84136,0.43606
4576.91261,0.43527
4574.98387,0.43508
4573.05512,0.43568
4571.12638,0.43625
4569.19763,0.43589
4567.26889,0.43510
4565.34014,0.43481
4563.41140,0.43491
4561.48265,0.43488
4559.55391,0.43458
4557.62516,0.43449
4555.69642,0.43459
4553.76767,0.43430
4551.83893,0.43415
4549.91018,0.43445
4547.98143,0.43420
4546.05269,0.43332
4544.12394,0.43273
4542.19520,0.43279
4540.26645,0.43317
4538.33771,0.43341
4536.40896,0.43338
4534.48022,0.43319
4532.55147,0.43275
4530.62273,0.43206
4528.69398,0.43155
4526.76524,0.43147
4524.83649,0.43146
4522.90775,0.43148
4520.97900,0.43172
4519.05025,0.43184
4517.12151,0.43149
4515.19276,0.43083
4513.26402,0.43035
4511.33527,0.43033
4509.40653,0.43051
4507.47778,0.43038
4505.54904,0.42994
4503.62029,0.42987
4501.69155,0.43026
4499.76280,0.43034
4497.83406,0.42987
4495.90531,0.42921
4493.97657,0.42853
4492.04782,0.42797
4490.11908,0.42760
4488.19033,0.42746
4486.26158,0.42746
4484.33284,0.42739
4482.40409,0.42729
4480.47535,0.42698
4478.54660,0.42633
4476.61786,0.42581
4474.68911,0.42546
4472.76037,0.42483
4470.83162,0.42421
4468.90288,0.42407
4466.97413,0.42402
4465.04539,0.42373
4463.11664,0.42358
4461.18790,0.42335
4459.25915,0.42264
4457.33041,0.42196
4455.40166,0.42176
4453.47291,0.42150
4451.54417,0.42058
4449.61542,0.41950
4447.68668,0.41889
4445.75793,0.41835
4443.82919,0.41780
4441.90044,0.41742
4439.97170,0.41683
4438.04295,0.41602
4436.11421,0.41562
4434.18546,0.41563
4432.25672,0.41519
4430.32797,0.41405
4428.39923,0.41303
4426.47048,0.41268
4424.54173,0.41258
4422.61299,0.41225
4420.68424,0.41183
4418.75550,0.41156
4416.82675,0.41113
4414.89801,0.41031
4412.96926,0.40944
4411.04052,0.40885
4409.11177,0.40849
4407.18303,0.40817
4405.25428,0.40799
4403.32554,0.40796
4401.39679,0.40781
4399.46805,0.40752
4397.53930,0.40726
4395.61056,0.40728
4393.68181,0.40762
4391.75306,0.40791
4389.82432,0.40808
4387.89557,0.40822
4385.96683,0.40826
4384.03808,0.40825
4382.10934,0.40836
4380.18059,0.40869
4378.25185,0.40903
4376.32310,0.40937
4374.39436,0.41001
4372.46561,0.41060
4370.53687,0.41056
4368.60812,0.41022
4366.67938,0.41017
4364.75063,0.41033
4362.82189,0.41002
4360.89314,0.40937
4358.96439,0.40916
4357.03565,0.40944
4355.10690,0.40969
4353.17816,0.40947
4351.24941,0.40897
4349.32067,0.40880
4347.39192,0.40876
4345.46318,0.40836
4343.53443,0.40788
4341.60569,0.40766
4339.67694,0.40745
4337.74820,0.40711
4335.81945,0.40688
4333.89071,0.40697
4331.96196,0.40717
4330.03321,0.40693
4328.10447,0.40631
4326.17572,0.40585
4324.24698,0.40531
4322.31823,0.40458
4320.38949,0.40443
4318.46074,0.40457
4316.53200,0.40404
4314.60325,0.40333
4312.67451,0.40301
4310.74576,0.40262
4308.81702,0.40219
4306.88827,0.40204
4304.95953,0.40209
4303.03078,0.40219
4301.10204,0.40198
4299.17329,0.40135
4297.24454,0.40088
4295.31580,0.40078
4293.38705,0.40065
4291.45831,0.40018
4289.52956,0.39946
4287.60082,0.39899
4285.67207,0.39889
4283.74333,0.39875
4281.81458,0.39851
4279.88584,0.39816
4277.95709,0.39777
4276.02835,0.39748
4274.09960,0.39712
4272.17086,0.39654
4270.24211,0.39620
4268.31336,0.39622
4266.38462,0.39603
4264.45587,0.39546
4262.52713,0.39503
4260.59838,0.39492
4258.66964,0.39482
4256.74089,0.39466
4254.81215,0.39454
4252.88340,0.39415
4250.95466,0.39346
4249.02591,0.39298
4247.09717,0.39294
4245.16842,0.39316
4243.23968,0.39319
4241.31093,0.39271
4239.38219,0.39216
4237.45344,0.39215
4235.52469,0.39248
4233.59595,0.39245
4231.66720,0.39199
4229.73846,0.39164
4227.80971,0.39160
4225.88097,0.39152
4223.95222,0.39107
4222.02348,0.39050
4220.09473,0.39016
4218.16599,0.38985
4216.23724,0.38958
4214.30850,0.38959
4212.37975,0.38965
4210.45101,0.38930
4208.52226,0.38862
4206.59352,0.38814
4204.66477,0.38805
4202.73602,0.38800
4200.80728,0.38771
4198.87853,0.38735
4196.94979,0.38720
4195.02104,0.38726
4193.09230,0.38719
4191.16355,0.38680
4189.23481,0.38651
4187.30606,0.38650
4185.37732,0.38632
4183.44857,0.38587
4181.51983,0.38552
4179.59108,0.38527
4177.66234,0.38474
4175.73359,0.38399
4173.80484,0.38351
4171.87610,0.38326
4169.94735,0.38271
4168.01861,0.38204
4166.08986,0.38177
4164.16112,0.38178
4162.23237,0.38165
4160.30363,0.38133
4158.37488,0.38071
4156.44614,0.37984
4154.51739,0.37930
4152.58865,0.37929
4150.65990,0.37922
4148.73116,0.37877
4146.80241,0.37815
4144.87367,0.37750
4142.94492,0.37683
4141.01617,0.37631
4139.08743,0.37599
4137.15868,0.37557
4135.22994,0.37489
4133.30119,0.37416
4131.37245,0.37362
4129.44370,0.37310
4127.51496,0.37235
4125.58621,0.37147
4123.65747,0.37081
4121.72872,0.37047
4119.79998,0.37011
4117.87123,0.36957
4115.94249,0.36896
4114.01374,0.36821
4112.08500,0.36747
4110.15625,0.36690
4108.22750,0.36616
4106.29876,0.36515
4104.37001,0.36431
4102.44127,0.36364
4100.51252,0.36268
4098.58378,0.36142
4096.65503,0.36030
4094.72629,0.35950
4092.79754,0.35873
4090.86880,0.35776
4088.94005,0.35665
4087.01131,0.35569
4085.08256,0.35504
4083.15382,0.35457
4081.22507,0.35379
4079.29632,0.35261
4077.36758,0.35148
4075.43883,0.35052
4073.51009,0.34962
4071.58134,0.34876
4069.65260,0.34785
4067.72385,0.34689
4065.79511,0.34601
4063.86636,0.34504
4061.93762,0.34391
4060.00887,0.34286
4058.08013,0.34186
4056.15138,0.34073
4054.22264,0.33970
4052.29389,0.33892
4050.36515,0.33826
4048.43640,0.33749
4046.50765,0.33659
4044.57891,0.33568
4042.65016,0.33470
4040.72142,0.33363
4038.79267,0.33277
4036.86393,0.33211
4034.93518,0.33130
4033.00644,0.33059
4031.07769,0.33036
4029.14895,0.33028
4027.22020,0.33006
4025.29146,0.32976
4023.36271,0.32942
4021.43397,0.32904
4019.50522,0.32875
4017.57648,0.32867
4015.64773,0.32874
4013.71898,0.32884
4011.79024,0.32893
4009.86149,0.32890
4007.93275,0.32859
4006.00400,0.32834
4004.07526,0.32847
4002.14651,0.32874
4000.21777,0.32897
3998.28902,0.32911
3996.36028,0.32910
3994.43153,0.32920
3992.50279,0.32946
3990.57404,0.32959
3988.64530,0.32962
3986.71655,0.32967
3984.78780,0.32976
3982.85906,0.32979
3980.93031,0.32960
3979.00157,0.32948
3977.07282,0.32975
3975.14408,0.33014
3973.21533,0.33007
3971.28659,0.32982
3969.35784,0.32999
3967.42910,0.33025
3965.50035,0.33020
3963.57161,0.33007
3961.64286,0.33004
3959.71412,0.33007
3957.78537,0.33016
3955.85663,0.33025
3953.92788,0.33015
3951.99913,0.33011
3950.07039,0.33034
3948.14164,0.33045
3946.21290,0.33028
3944.28415,0.33009
3942.35541,0.33013
3940.42666,0.33043
3938.49792,0.33076
3936.56917,0.33105
3934.64043,0.33138
3932.71168,0.33159
3930.78294,0.33145
3928.85419,0.33118
3926.92545,0.33122
3924.99670,0.33157
3923.06795,0.33182
3921.13921,0.33183
3919.21046,0.33194
3917.28172,0.33208
3915.35297,0.33187
3913.42423,0.33160
3911.49548,0.33169
3909.56674,0.33193
3907.63799,0.33201
3905.70925,0.33201
3903.78050,0.33202
3901.85176,0.33183
3899.92301,0.33130
3897.99427,0.33084
3896.06552,0.33077
3894.13678,0.33090
3892.20803,0.33104
3890.27928,0.33133
3888.35054,0.33179
3886.42179,0.33198
3884.49305,0.33158
3882.56430,0.33117
3880.63556,0.33110
3878.70681,0.33107
3876.77807,0.33100
3874.84932,0.33078
3872.92058,0.33048
3870.99183,0.33062
3869.06309,0.33093
3867.13434,0.33075
3865.20560,0.33058
3863.27685,0.33073
3861.34811,0.33069
3859.41936,0.33040
3857.49061,0.33015
3855.56187,0.32997
3853.63312,0.32979
3851.70438,0.32967
3849.77563,0.32981
3847.84689,0.32990
3845.91814,0.32967
3843.98940,0.32944
3842.06065,0.32952
3840.13191,0.32964
3838.20316,0.32949
3836.27442,0.32910
3834.34567,0.32870
3832.41693,0.32829
3830.48818,0.32758
3828.55943,0.32677
3826.63069,0.32637
3824.70194,0.32625
3822.77320,0.32602
3820.84445,0.32551
3818.91571,0.32485
3816.98696,0.32424
3815.05822,0.32366
3813.12947,0.32304
3811.20073,0.32247
3809.27198,0.32204
3807.34324,0.32167
3805.41449,0.32112
3803.48575,0.32030
3801.55700,0.31951
3799.62826,0.31891
3797.69951,0.31827
3795.77076,0.31754
3793.84202,0.31696
3791.91327,0.31656
3789.98453,0.31607
3788.05578,0.31537
3786.12704,0.31457
3784.19829,0.31378
3782.26955,0.31302
3780.34080,0.31219
3778.41206,0.31123
3776.48331,0.31016
3774.55457,0.30917
3772.62582,0.30831
3770.69708,0.30744
3768.76833,0.30656
3766.83959,0.30569
3764.91084,0.30463
3762.98209,0.30345
3761.05335,0.30243
3759.12460,0.30128
3757.19586,0.29981
3755.26711,0.29853
3753.33837,0.29765
3751.40962,0.29686
3749.48088,0.29568
3747.55213,0.29431
3745.62339,0.29278
3743.69464,0.29071
3741.76590,0.28851
3739.83715,0.28644
3737.90841,0.28429
3735.97966,0.28212
3734.05091,0.27999
3732.12217,0.27775
3730.19342,0.27549
3728.26468,0.27317
3726.33593,0.27065
3724.40719,0.26812
3722.47844,0.26557
3720.54970,0.26271
3718.62095,0.25934
3716.69221,0.25583
3714.76346,0.25247
3712.83472,0.24874
3710.90597,0.24423
3708.97723,0.23937
3707.04848,0.23432
3705.11974,0.22889
3703.19099,0.22281
3701.26224,0.21620
3699.33350,0.21008
3697.40475,0.20495
3695.47601,0.20069
3693.54726,0.19725
3691.61852,0.19413
3689.68977,0.19055
3687.76103,0.18671
3685.83228,0.18328
3683.90354,0.17983
3681.97479,0.17561
3680.04605,0.17081
3678.11730,0.16598
3676.18856,0.16060
3674.25981,0.15497
3672.33107,0.15038
3670.40232,0.14592
3668.47357,0.14138
3666.54483,0.13760
3664.61608,0.13406
3662.68734,0.13056
3660.75859,0.12761
3658.82985,0.12510
3656.90110,0.12234
3654.97236,0.11925
3653.04361,0.11645
3651.11487,0.11400
3649.18612,0.11163
3647.25738,0.10928
3645.32863,0.10692
3643.39989,0.10477
3641.47114,0.10288
3639.54239,0.10114
3637.61365,0.09929
3635.68490,0.09716
3633.75616,0.09504
3631.82741,0.09330
3629.89867,0.09167
3627.96992,0.08979
3626.04118,0.08811
3624.11243,0.08667
3622.18369,0.08522
3620.25494,0.08377
3618.32620,0.08245
3616.39745,0.08135
3614.46871,0.08032
3612.53996,0.07940
3610.61122,0.07852
3608.68247,0.07724
3606.75372,0.07573
3604.82498,0.07463
3602.89623,0.07389
3600.96749,0.07308
3599.03874,0.07221
3597.11000,0.07156
3595.18125,0.07108
3593.25251,0.07043
3591.32376,0.06951
3589.39502,0.06851
3587.46627,0.06750
3585.53753,0.06657
3583.60878,0.06580
3581.68004,0.06515
3579.75129,0.06458
3577.82254,0.06410
3575.89380,0.06365
3573.96505,0.06285
3572.03631,0.06185
3570.10756,0.06135
3568.17882,0.06145
3566.25007,0.06142
3564.32133,0.06077
3562.39258,0.05988
3560.46384,0.05904
3558.53509,0.05829
3556.60635,0.05764
3554.67760,0.05711
3552.74886,0.05668
3550.82011,0.05627
3548.89137,0.05585
3546.96262,0.05540
3545.03387,0.05495
3543.10513,0.05454
3541.17638,0.05409
3539.24764,0.05371
3537.31889,0.05349
3535.39015,0.05308
3533.46140,0.05216
3531.53266,0.05128
3529.60391,0.05114
3527.67517,0.05152
3525.74642,0.05176
3523.81768,0.05150
3521.88893,0.05081
3519.96019,0.05008
3518.03144,0.04953
3516.10270,0.04910
3514.17395,0.04884
3512.24520,0.04867
3510.31646,0.04851
3508.38771,0.04838
3506.45897,0.04805
3504.53022,0.04742
3502.60148,0.04690
3500.67273,0.04660
3498.74399,0.04627
3496.81524,0.04600
3494.88650,0.04590
3492.95775,0.04572
3491.02901,0.04548
3489.10026,0.04544
3487.17152,0.04541
3485.24277,0.04512
3483.31402,0.04482
3481.38528,0.04478
3479.45653,0.04482
3477.52779,0.04466
3475.59904,0.04436
3473.67030,0.04409
3471.74155,0.04388
3469.81281,0.04365
3467.88406,0.04319
3465.95532,0.04274
3464.02657,0.04266
3462.09783,0.04258
3460.16908,0.04230
3458.24034,0.04220
3456.31159,0.04233
3454.38285,0.04241
3452.45410,0.04235
3450.52535,0.04218
3448.59661,0.04218
3446.66786,0.04243
3444.73912,0.04241
3442.81037,0.04201
3440.88163,0.04173
3438.95288,0.04161
3437.02414,0.04131
3435.09539,0.04114
3433.16665,0.04141
3431.23790,0.04170
3429.30916,0.04176
3427.38041,0.04161
3425.45167,0.04127
3423.52292,0.04093
3421.59418,0.04086
3419.66543,0.04112
3417.73668,0.04139
3415.80794,0.04155
3413.87919,0.04172
3411.95045,0.04167
3410.02170,0.04126
3408.09296,0.04085
3406.16421,0.04082
3404.23547,0.04092
3402.30672,0.04087
3400.37798,0.04088
3398.44923,0.04105
3396.52049,0.04104
3394.59174,0.04094
3392.66300,0.04102
3390.73425,0.04109
3388.80550,0.04111
3386.87676,0.04136
3384.94801,0.04158
3383.01927,0.04133
3381.09052,0.04102
3379.16178,0.04097
3377.23303,0.04098
3375.30429,0.04112
3373.37554,0.04126
3371.44680,0.04117
3369.51805,0.04109
3367.58931,0.04106
3365.66056,0.04112
3363.73182,0.04138
3361.80307,0.04148
3359.87433,0.04148
3357.94558,0.04187
3356.01683,0.04237
3354.08809,0.04241
3352.15934,0.04200
3350.23060,0.04150
3348.30185,0.04131
3346.37311,0.04168
3344.44436,0.04231
3342.51562,0.04268
3340.58687,0.04279
3338.65813,0.04285
3336.72938,0.04301
3334.80064,0.04341
3332.87189,0.04379
3330.94315,0.04386
3329.01440,0.04400
3327.08566,0.04451
3325.15691,0.04491
3323.22816,0.04492
3321.29942,0.04487
3319.37067,0.04488
3317.44193,0.04493
3315.51318,0.04497
3313.58444,0.04492
3311.65569,0.04505
3309.72695,0.04550
3307.79820,0.04583
3305.86946,0.04587
3303.94071,0.04578
3302.01197,0.04566
3300.08322,0.04572
3298.15448,0.04607
3296.22573,0.04639
3294.29698,0.04649
3292.36824,0.04651
3290.43949,0.04661
3288.51075,0.04685
3286.58200,0.04721
3284.65326,0.04762
3282.72451,0.04780
3280.79577,0.04771
3278.86702,0.04776
3276.93828,0.04820
3275.00953,0.04859
3273.08079,0.04862
3271.15204,0.04869
3269.22330,0.04909
3267.29455,0.04968
3265.36581,0.05047
3263.43706,0.05136
3261.50831,0.05188
3259.57957,0.05207
3257.65082,0.05234
3255.72208,0.05277
3253.79333,0.05310
3251.86459,0.05325
3249.93584,0.05333
3248.00710,0.05352
3246.07835,0.05385
3244.14961,0.05412
3242.22086,0.05428
3240.29212,0.05453
3238.36337,0.05511
3236.43463,0.05583
3234.50588,0.05617
3232.57713,0.05607
3230.64839,0.05606
3228.71964,0.05638
3226.79090,0.05690
3224.86215,0.05732
3222.93341,0.05754
3221.00466,0.05785
3219.07592,0.05832
3217.14717,0.05870
3215.21843,0.05899
3213.28968,0.05926
3211.36094,0.05947
3209.43219,0.05971
3207.50345,0.06007
3205.57470,0.06043
3203.64596,0.06098
3201.71721,0.06174
3199.78846,0.06228
3197.85972,0.06249
3195.93097,0.06264
3194.00223,0.06283
3192.07348,0.06306
3190.14474,0.06338
3188.21599,0.06383
3186.28725,0.06438
3184.35850,0.06496
3182.42976,0.06537
3180.50101,0.06565
3178.57227,0.06605
3176.64352,0.06651
3174.71478,0.06677
3172.78603,0.06696
3170.85729,0.06735
3168.92854,0.06792
3166.99979,0.06855
3165.07105,0.06920
3163.14230,0.06988
3161.21356,0.07038
3159.28481,0.07057
3157.35607,0.07066
3155.42732,0.07097
3153.49858,0.07145
3151.56983,0.07183
3149.64109,0.07208
3147.71234,0.07236
3145.78360,0.07279
3143.85485,0.07337
3141.92611,0.07393
3139.99736,0.07433
3138.06861,0.07478
3136.13987,0.07546
3134.21112,0.07616
3132.28238,0.07667
3130.35363,0.07704
3128.42489,0.07737
3126.49614,0.07775
3124.56740,0.07818
3122.63865,0.07861
3120.70991,0.07906
3118.78116,0.07953
3116.85242,0.07992
3114.92367,0.08012
3112.99493,0.08048
3111.06618,0.08112
3109.13744,0.08148
3107.20869,0.08162
3105.27994,0.08198
3103.35120,0.08253
3101.42245,0.08309
3099.49371,0.08366
3097.56496,0.08421
3095.63622,0.08465
3093.70747,0.08496
3091.77873,0.08521
3089.84998,0.08558
3087.92124,0.08608
3085.99249,0.08656
3084.06375,0.08691
3082.13500,0.08724
3080.20626,0.08766
3078.27751,0.08813
3076.34877,0.08864
3074.42002,0.08917
3072.49127,0.08968
3070.56253,0.09022
3068.63378,0.09064
3066.70504,0.09073
3064.77629,0.09073
3062.84755,0.09095
3060.91880,0.09121
3058.99006,0.09159
3057.06131,0.09237
3055.13257,0.09322
3053.20382,0.09382
3051.27508,0.09421
3049.34633,0.09455
3047.41759,0.09509
3045.48884,0.09577
3043.56009,0.09632
3041.63135,0.09662
3039.70260,0.09675
3037.77386,0.09675
3035.84511,0.09667
3033.91637,0.09648
3031.98762,0.09619
3030.05888,0.09583
3028.13013,0.09553
3026.20139,0.09555
3024.27264,0.09605
3022.34390,0.09698
3020.41515,0.09798
3018.48641,0.09876
3016.55766,0.09953
3014.62892,0.10034
3012.70017,0.10082
3010.77142,0.10060
3008.84268,0.09995
3006.91393,0.09959
3004.98519,0.09980
3003.05644,0.10006
3001.12770,0.10006
2999.19895,0.09992
2997.27021,0.09964
2995.34146,0.09915
2993.41272,0.09867
2991.48397,0.09845
2989.55523,0.09834
2987.62648,0.09802
2985.69774,0.09744
2983.76899,0.09683
2981.84025,0.09619
2979.91150,0.09528
2977.98275,0.09400
2976.05401,0.09249
2974.12526,0.09082
2972.19652,0.08911
2970.26777,0.08764
2968.33903,0.08644
2966.41028,0.08539
2964.48154,0.08461
2962.55279,0.08404
2960.62405,0.08344
2958.69530,0.08285
2956.76656,0.08236
2954.83781,0.08182
2952.90907,0.08111
2950.98032,0.08029
2949.05157,0.07963
2947.12283,0.07924
2945.19408,0.07902
2943.26534,0.07900
2941.33659,0.07894
2939.40785,0.07870
2937.47910,0.07848
2935.55036,0.07837
2933.62161,0.07824
2931.69287,0.07799
2929.76412,0.07766
2927.83538,0.07723
2925.90663,0.07682
2923.97789,0.07654
2922.04914,0.07636
2920.12040,0.07629
2918.19165,0.07641
2916.26290,0.07648
2914.33416,0.07623
2912.40541,0.07587
2910.47667,0.07572
2908.54792,0.07576
2906.61918,0.07575
2904.69043,0.07581
2902.76169,0.07612
2900.83294,0.07669
2898.90420,0.07739
2896.97545,0.07808
2895.04671,0.07877
2893.11796,0.07942
2891.18922,0.07994
2889.26047,0.08054
2887.33172,0.08133
2885.40298,0.08205
2883.47423,0.08252
2881.54549,0.08294
2879.61674,0.08341
2877.68800,0.08379
2875.75925,0.08403
2873.83051,0.08420
2871.90176,0.08456
2869.97302,0.08518
2868.04427,0.08590
2866.11553,0.08665
2864.18678,0.08738
2862.25804,0.08799
2860.32929,0.08863
2858.40055,0.08943
2856.47180,0.09039
2854.54305,0.09163
2852.61431,0.09305
2850.68556,0.09454
2848.75682,0.09628
2846.82807,0.09811
2844.89933,0.09968
2842.97058,0.10111
2841.04184,0.10266
2839.11309,0.10435
2837.18435,0.10610
2835.25560,0.10777
2833.32686,0.10922
2831.39811,0.11049
2829.46937,0.11183
2827.54062,0.11320
2825.61188,0.11433
2823.68313,0.11526
2821.75438,0.11626
2819.82564,0.11747
2817.89689,0.11868
2815.96815,0.11979
2814.03940,0.12100
2812.11066,0.12234
2810.18191,0.12349
2808.25317,0.12436
2806.32442,0.12529
2804.39568,0.12639
2802.46693,0.12725
2800.53819,0.12768
2798.60944,0.12807
2796.68070,0.12872
2794.75195,0.12962
2792.82320,0.13059
2790.89446,0.13130
2788.96571,0.13168
2787.03697,0.13188
2785.10822,0.13211
2783.17948,0.13251
2781.25073,0.13304
2779.32199,0.13358
2777.39324,0.13413
2775.46450,0.13462
2773.53575,0.13511
2771.60701,0.13557
2769.67826,0.13583
2767.74952,0.13601
2765.82077,0.13643
2763.89203,0.13710
2761.96328,0.13765
2760.03453,0.13783
2758.10579,0.13790
2756.17704,0.13824
2754.24830,0.13881
2752.31955,0.13925
2750.39081,0.13945
2748.46206,0.13970
2746.53332,0.13999
2744.60457,0.14019
2742.67583,0.14034
2740.74708,0.14050
2738.81834,0.14071
2736.88959,0.14098
2734.96085,0.14130
2733.03210,0.14176
2731.10336,0.14243
2729.17461,0.14322
2727.24586,0.14386
2725.31712,0.14406
2723.38837,0.14394
2721.45963,0.14408
2719.53088,0.14467
2717.60214,0.14535
2715.67339,0.14594
2713.74465,0.14660
2711.81590,0.14732
2709.88716,0.14801
2707.95841,0.14875
2706.02967,0.14956
2704.10092,0.15037
2702.17218,0.15111
2700.24343,0.15182
2698.31468,0.15248
2696.38594,0.15307
2694.45719,0.15363
2692.52845,0.15429
2690.59970,0.15512
2688.67096,0.15600
2686.74221,0.15665
2684.81347,0.15701
2682.88472,0.15734
2680.95598,0.15787
2679.02723,0.15850
2677.09849,0.15917
2675.16974,0.15990
2673.24100,0.16063
2671.31225,0.16132
2669.38351,0.16197
2667.45476,0.16248
2665.52601,0.16283
2663.59727,0.16317
2661.66852,0.16366
2659.73978,0.16419
2657.81103,0.16466
2655.88229,0.16508
2653.95354,0.16540
2652.02480,0.16582
2650.09605,0.16654
2648.16731,0.16735
2646.23856,0.16796
2644.30982,0.16848
2642.38107,0.16905
2640.45233,0.16956
2638.52358,0.16992
2636.59484,0.17033
2634.66609,0.17087
2632.73734,0.17142
2630.80860,0.17204
2628.87985,0.17259
2626.95111,0.17292
2625.02236,0.17329
2623.09362,0.17381
2621.16487,0.17433
2619.23613,0.17490
2617.30738,0.17549
2615.37864,0.17589
2613.44989,0.17607
2611.52115,0.17622
2609.59240,0.17648
2607.66366,0.17685
2605.73491,0.17721
2603.80616,0.17755
2601.87742,0.17804
2599.94867,0.17865
2598.01993,0.17913
2596.09118,0.17954
2594.16244,0.17992
2592.23369,0.18010
2590.30495,0.18009
2588.37620,0.18028
2586.44746,0.18077
2584.51871,0.18133
2582.58997,0.18187
2580.66122,0.18237
2578.73248,0.18265
2576.80373,0.18263
2574.87499,0.18238
2572.94624,0.18216
2571.01749,0.18228
2569.08875,0.18264
2567.16000,0.18293
2565.23126,0.18315
2563.30251,0.18329
2561.37377,0.18333
2559.44502,0.18333
2557.51628,0.18340
2555.58753,0.18356
2553.65879,0.18351
2551.73004,0.18321
2549.80130,0.18311
2547.87255,0.18324
2545.94381,0.18335
2544.01506,0.18346
2542.08631,0.18354
2540.15757,0.18350
2538.22882,0.18350
2536.30008,0.18360
2534.37133,0.18375
2532.44259,0.18391
2530.51384,0.18416
2528.58510,0.18446
2526.65635,0.18481
2524.72761,0.18524
2522.79886,0.18557
2520.87012,0.18567
2518.94137,0.18578
2517.01263,0.18592
2515.08388,0.18596
2513.15514,0.18601
2511.22639,0.18628
2509.29764,0.18689
2507.36890,0.18765
2505.44015,0.18831
2503.51141,0.18880
2501.58266,0.18925
2499.65392,0.18975
2497.72517,0.19028
2495.79643,0.19086
2493.86768,0.19148
2491.93894,0.19199
2490.01019,0.19229
2488.08145,0.19253
2486.15270,0.19294
2484.22396,0.19340
2482.29521,0.19377
2480.36647,0.19406
2478.43772,0.19434
2476.50897,0.19467
2474.58023,0.19496
2472.65148,0.19516
2470.72274,0.19547
2468.79399,0.19598
2466.86525,0.19641
2464.93650,0.19660
2463.00776,0.19676
2461.07901,0.19698
2459.15027,0.19719
2457.22152,0.19748
2455.29278,0.19785
2453.36403,0.19810
2451.43529,0.19820
2449.50654,0.19837
2447.57779,0.19866
2445.64905,0.19893
2443.72030,0.19915
2441.79156,0.19938
2439.86281,0.19960
2437.93407,0.19982
2436.00532,0.20015
2434.07658,0.20063
2432.14783,0.20099
2430.21909,0.20110
2428.29034,0.20124
2426.36160,0.20162
2424.43285,0.20202
2422.50411,0.20220
2420.57536,0.20218
2418.64662,0.20205
2416.71787,0.20207
2414.78912,0.20243
2412.86038,0.20286
2410.93163,0.20298
2409.00289,0.20291
2407.07414,0.20287
2405.14540,0.20287
2403.21665,0.20290
2401.28791,0.20291
2399.35916,0.20297
2397.43042,0.20307
2395.50167,0.20312
2393.57293,0.20308
2391.64418,0.20300
2389.71544,0.20289
2387.78669,0.20285
2385.85795,0.20293
2383.92920,0.20301
2382.00045,0.20301
2380.07171,0.20308
2378.14296,0.20332
2376.21422,0.20343
2374.28547,0.20334
2372.35673,0.20346
2370.42798,0.20385
2368.49924,0.20402
2366.57049,0.20382
2364.64175,0.20357
2362.71300,0.20345
2360.78426,0.20352
2358.85551,0.20373
2356.92677,0.20373
2354.99802,0.20338
2353.06927,0.20293
2351.14053,0.20263
2349.21178,0.20260
2347.28304,0.20280
2345.35429,0.20299
2343.42555,0.20298
2341.49680,0.20280
2339.56806,0.20264
2337.63931,0.20257
2335.71057,0.20246
2333.78182,0.20234
2331.85308,0.20234
2329.92433,0.20240
2327.99559,0.20238
2326.06684,0.20217
2324.13810,0.20185
2322.20935,0.20163
2320.28060,0.20149
2318.35186,0.20133
2316.42311,0.20117
2314.49437,0.20095
2312.56562,0.20072
2310.63688,0.20056
2308.70813,0.20044
2306.77939,0.20027
2304.85064,0.20001
2302.92190,0.19971
2300.99315,0.19948
2299.06441,0.19929
2297.13566,0.19901
2295.20692,0.19871
2293.27817,0.19843
2291.34943,0.19802
2289.42068,0.19741
2287.49193,0.19679
2285.56319,0.19636
2283.63444,0.19625
2281.70570,0.19623
2279.77695,0.19588
2277.84821,0.19538
2275.91946,0.19497
2273.99072,0.19446
2272.06197,0.19384
2270.13323,0.19334
2268.20448,0.19295
2266.27574,0.19256
2264.34699,0.19216
2262.41825,0.19162
2260.48950,0.19090
2258.56075,0.19024
2256.63201,0.18984
2254.70326,0.18956
2252.77452,0.18918
2250.84577,0.18872
2248.91703,0.18830
2246.98828,0.18795
2245.05954,0.18762
2243.13079,0.18725
2241.20205,0.18682
2239.27330,0.18650
2237.34456,0.18637
2235.41581,0.18625
2233.48707,0.18614
2231.55832,0.18627
2229.62958,0.18656
2227.70083,0.18664
2225.77208,0.18652
2223.84334,0.18657
2221.91459,0.18689
2219.98585,0.18723
2218.05710,0.18751
2216.12836,0.18794
2214.19961,0.18845
2212.27087,0.18873
2210.34212,0.18887
2208.41338,0.18912
2206.48463,0.18932
2204.55589,0.18936
2202.62714,0.18946
2200.69840,0.18957
2198.76965,0.18959
2196.84090,0.18957
2194.91216,0.18936
2192.98341,0.18900
2191.05467,0.18870
2189.12592,0.18846
2187.19718,0.18823
2185.26843,0.18801
2183.33969,0.18767
2181.41094,0.18719
2179.48220,0.18681
2177.55345,0.18652
2175.62471,0.18608
2173.69596,0.18553
2171.76722,0.18501
2169.83847,0.18451
2167.90973,0.18401
2165.98098,0.18360
2164.05223,0.18324
2162.12349,0.18278
2160.19474,0.18229
2158.26600,0.18175
2156.33725,0.18117
2154.40851,0.18070
2152.47976,0.18027
2150.55102,0.17985
2148.62227,0.17941
2146.69353,0.17887
2144.76478,0.17819
2142.83604,0.17757
2140.90729,0.17729
2138.97855,0.17725
2137.04980,0.17714
2135.12106,0.17696
2133.19231,0.17692
2131.26356,0.17705
2129.33482,0.17735
2127.40607,0.17780
2125.47733,0.17818
2123.54858,0.17835
2121.61984,0.17853
2119.69109,0.17886
2117.76235,0.17909
2115.83360,0.17909
2113.90486,0.17905
2111.97611,0.17916
2110.04737,0.17937
2108.11862,0.17951
2106.18988,0.17958
2104.26113,0.17961
2102.33238,0.17962
2100.40364,0.17966
2098.47489,0.17976
2096.54615,0.17987
2094.61740,0.17981
2092.68866,0.17950
2090.75991,0.17934
2088.83117,0.17953
2086.90242,0.17980
2084.97368,0.17989
2083.04493,0.17979
2081.11619,0.17947
2079.18744,0.17901
2077.25870,0.17859
2075.32995,0.17815
2073.40121,0.17763
2071.47246,0.17715
2069.54371,0.17677
2067.61497,0.17638
2065.68622,0.17596
2063.75748,0.17552
2061.82873,0.17504
2059.89999,0.17453
2057.97124,0.17407
2056.04250,0.17359
2054.11375,0.17290
2052.18501,0.17194
2050.25626,0.17087
2048.32752,0.16984
2046.39877,0.16872
2044.47003,0.16724
2042.54128,0.16542
2040.61254,0.16358
2038.68379,0.16177
2036.75504,0.15993
2034.82630,0.15827
2032.89755,0.15696
2030.96881,0.15592
2029.04006,0.15510
2027.11132,0.15451
2025.18257,0.15408
2023.25383,0.15364
2021.32508,0.15303
2019.39634,0.15224
2017.46759,0.15130
2015.53885,0.15014
2013.61010,0.14870
2011.68136,0.14704
2009.75261,0.14533
2007.82386,0.14384
2005.89512,0.14275
2003.96637,0.14197
2002.03763,0.14137
2000.10888,0.14085
1998.18014,0.14048
1996.25139,0.14031
1994.32265,0.14030
1992.39390,0.14048
1990.46516,0.14079
1988.53641,0.14102
1986.60767,0.14113
1984.67892,0.14118
1982.75018,0.14123
1980.82143,0.14131
1978.89269,0.14137
1976.96394,0.14147
1975.03519,0.14164
1973.10645,0.14198
1971.17770,0.14243
1969.24896,0.14288
1967.32021,0.14344
1965.39147,0.14413
1963.46272,0.14482
1961.53398,0.14542
1959.60523,0.14595
1957.67649,0.14635
1955.74774,0.14654
1953.81900,0.14664
1951.89025,0.14673
1949.96151,0.14677
1948.03276,0.14685
1946.10402,0.14707
1944.17527,0.14741
1942.24652,0.14774
1940.31778,0.14797
1938.38903,0.14815
1936.46029,0.14846
1934.53154,0.14894
1932.60280,0.14937
1930.67405,0.14956
1928.74531,0.14957
1926.81656,0.14957
1924.88782,0.14954
1922.95907,0.14927
1921.03033,0.14870
1919.10158,0.14784
1917.17284,0.14658
1915.24409,0.14505
1913.31534,0.14328
1911.38660,0.14116
1909.45785,0.13881
1907.52911,0.13647
1905.60036,0.13422
1903.67162,0.13201
1901.74287,0.12994
1899.81413,0.12818
1897.88538,0.12668
1895.95664,0.12523
1894.02789,0.12374
1892.09915,0.12237
1890.17040,0.12112
1888.24166,0.12004
1886.31291,0.11919
1884.38417,0.11838
1882.45542,0.11761
1880.52667,0.11705
1878.59793,0.11663
1876.66918,0.11628
1874.74044,0.11607
1872.81169,0.11584
1870.88295,0.11567
1868.95420,0.11580
1867.02546,0.11616
1865.09671,0.11677
1863.16797,0.11793
1861.23922,0.11963
1859.31048,0.12163
1857.38173,0.12377
1855.45299,0.12612
1853.52424,0.12873
1851.59549,0.13144
1849.66675,0.13413
1847.73800,0.13665
1845.80926,0.13880
1843.88051,0.14065
1841.95177,0.14215
1840.02302,0.14311
1838.09428,0.14359
1836.16553,0.14389
1834.23679,0.14410
1832.30804,0.14394
1830.37930,0.14324
1828.45055,0.14226
1826.52181,0.14123
1824.59306,0.14003
1822.66432,0.13872
1820.73557,0.13742
1818.80682,0.13599
1816.87808,0.13449
1814.94933,0.13311
1813.02059,0.13179
1811.09184,0.13040
1809.16310,0.12898
1807.23435,0.12763
1805.30561,0.12635
1803.37686,0.12515
1801.44812,0.12405
1799.51937,0.12299
1797.59063,0.12206
1795.66188,0.12150
1793.73314,0.12119
1791.80439,0.12092
1789.87565,0.12083
1787.94690,0.12099
1786.01815,0.12124
1784.08941,0.12147
1782.16066,0.12162
1780.23192,0.12176
1778.30317,0.12213
1776.37443,0.12285
1774.44568,0.12390
1772.51694,0.12507
1770.58819,0.12593
1768.65945,0.12654
1766.73070,0.12709
1764.80196,0.12746
1762.87321,0.12772
1760.94447,0.12781
1759.01572,0.12746
1757.08697,0.12647
1755.15823,0.12500
1753.22948,0.12316
1751.30074,0.12033
1749.37199,0.11624
1747.44325,0.11149
1745.51450,0.10628
1743.58576,0.10075
1741.65701,0.09512
1739.72827,0.08960
1737.79952,0.08521
1735.87078,0.08214
1733.94203,0.07954
1732.01329,0.07801
1730.08454,0.07787
1728.15580,0.07851
1726.22705,0.07981
1724.29830,0.08191
1722.36956,0.08457
1720.44081,0.08729
1718.51207,0.08972
1716.58332,0.09122
1714.65458,0.09171
1712.72583,0.09192
1710.79709,0.09199
1708.86834,0.09177
1706.93960,0.09109
1705.01085,0.09005
1703.08211,0.08900
1701.15336,0.08772
1699.22462,0.08620
1697.29587,0.08500
1695.36713,0.08363
1693.43838,0.08208
1691.50963,0.08074
1689.58089,0.07942
1687.65214,0.07825
1685.72340,0.07716
1683.79465,0.07572
1681.86591,0.07432
1679.93716,0.07323
1678.00842,0.07227
1676.07967,0.07134
1674.15093,0.07036
1672.22218,0.06936
1670.29344,0.06830
1668.36469,0.06727
1666.43595,0.06646
1664.50720,0.06572
1662.57845,0.06478
1660.64971,0.06373
1658.72096,0.06292
1656.79222,0.06247
1654.86347,0.06205
1652.93473,0.06110
1651.00598,0.06020
1649.07724,0.05983
1647.14849,0.05942
1645.21975,0.05882
1643.29100,0.05837
1641.36226,0.05795
1639.43351,0.05757
1637.50477,0.05737
1635.57602,0.05713
1633.64728,0.05673
1631.71853,0.05646
1629.78978,0.05642
1627.86104,0.05646
1625.93229,0.05639
1624.00355,0.05614
1622.07480,0.05590
1620.14606,0.05582
1618.21731,0.05580
1616.28857,0.05577
1614.35982,0.05582
1612.43108,0.05593
1610.50233,0.05603
1608.57359,0.05616
1606.64484,0.05620
1604.71610,0.05599
1602.78735,0.05584
1600.85861,0.05609
1598.92986,0.05665
1597.00111,0.05732
1595.07237,0.05789
1593.14362,0.05818
1591.21488,0.05824
1589.28613,0.05833
1587.35739,0.05848
1585.42864,0.05862
1583.49990,0.05883
1581.57115,0.05923
1579.64241,0.05962
1577.71366,0.05989
1575.78492,0.06008
1573.85617,0.06027
1571.92743,0.06059
1569.99868,0.06108
1568.06993,0.06146
1566.14119,0.06162
1564.21244,0.06183
1562.28370,0.06223
1560.35495,0.06273
1558.42621,0.06293
1556.49746,0.06258
1554.56872,0.06224
1552.63997,0.06215
1550.71123,0.06217
1548.78248,0.06216
1546.85374,0.06218
1544.92499,0.06217
1542.99625,0.06201
1541.06750,0.06160
1539.13876,0.06097
1537.21001,0.06056
1535.28126,0.06026
1533.35252,0.05959
1531.42377,0.05875
1529.49503,0.05832
1527.56628,0.05811
1525.63754,0.05767
1523.70879,0.05717
1521.78005,0.05691
1519.85130,0.05672
1517.92256,0.05624
1515.99381,0.05548
1514.06507,0.05487
1512.13632,0.05457
1510.20758,0.05452
1508.27883,0.05441
1506.35008,0.05369
1504.42134,0.05287
1502.49259,0.05242
1500.56385,0.05190
1498.63510,0.05099
1496.70636,0.04994
1494.77761,0.04927
1492.84887,0.04892
1490.92012,0.04851
1488.99138,0.04795
1487.06263,0.04733
1485.13389,0.04676
1483.20514,0.04620
1481.27640,0.04560
1479.34765,0.04512
1477.41891,0.04471
1475.49016,0.04414
1473.56141,0.04348
1471.63267,0.04282
1469.70392,0.04222
1467.77518,0.04174
1465.84643,0.04126
1463.91769,0.04071
1461.98894,0.04029
1460.06020,0.03997
1458.13145,0.03939
1456.20271,0.03867
1454.27396,0.03839
1452.34522,0.03835
1450.41647,0.03827
1448.48773,0.03815
1446.55898,0.03803
1444.63024,0.03782
1442.70149,0.03747
1440.77274,0.03716
1438.84400,0.03700
1436.91525,0.03674
1434.98651,0.03640
1433.05776,0.03627
1431.12902,0.03635
1429.20027,0.03655
1427.27153,0.03686
1425.34278,0.03730
1423.41404,0.03782
1421.48529,0.03845
1419.55655,0.03920
1417.62780,0.03976
1415.69906,0.03996
1413.77031,0.04008
1411.84156,0.04028
1409.91282,0.04051
1407.98407,0.04058
1406.05533,0.04050
1404.12658,0.04043
1402.19784,0.04044
1400.26909,0.04042
1398.34035,0.04034
1396.41160,0.04028
1394.48286,0.04019
1392.55411,0.04002
1390.62537,0.03975
1388.69662,0.03939
1386.76788,0.03894
1384.83913,0.03847
1382.91039,0.03807
1380.98164,0.03783
1379.05289,0.03778
1377.12415,0.03784
1375.19540,0.03799
1373.26666,0.03822
1371.33791,0.03853
1369.40917,0.03904
1367.48042,0.03967
1365.55168,0.04024
1363.62293,0.04068
1361.69419,0.04115
1359.76544,0.04169
1357.83670,0.04232
1355.90795,0.04298
1353.97921,0.04352
1352.05046,0.04399
1350.12172,0.04450
1348.19297,0.04487
1346.26422,0.04486
1344.33548,0.04466
1342.40673,0.04457
1340.47799,0.04457
1338.54924,0.04450
1336.62050,0.04449
1334.69175,0.04475
1332.76301,0.04521
1330.83426,0.04577
1328.90552,0.04624
1326.97677,0.04633
1325.04803,0.04609
1323.11928,0.04584
1321.19054,0.04585
1319.26179,0.04610
1317.33304,0.04654
1315.40430,0.04717
1313.47555,0.04810
1311.54681,0.04935
1309.61806,0.05069
1307.68932,0.05196
1305.76057,0.05322
1303.83183,0.05451
1301.90308,0.05574
1299.97434,0.05668
1298.04559,0.05717
1296.11685,0.05730
1294.18810,0.05718
1292.25936,0.05690
1290.33061,0.05665
1288.40187,0.05632
1286.47312,0.05580
1284.54437,0.05532
1282.61563,0.05508
1280.68688,0.05527
1278.75814,0.05606
1276.82939,0.05718
1274.90065,0.05824
1272.97190,0.05924
1271.04316,0.06038
1269.11441,0.06155
1267.18567,0.06259
1265.25692,0.06362
1263.32818,0.06470
1261.39943,0.06583
1259.47069,0.06716
1257.54194,0.06874
1255.61320,0.07043
1253.68445,0.07211
1251.75570,0.07358
1249.82696,0.07482
1247.89821,0.07608
1245.96947,0.07767
1244.04072,0.07954
1242.11198,0.08147
1240.18323,0.08350
1238.25449,0.08584
1236.32574,0.08848
1234.39700,0.09129
1232.46825,0.09429
1230.53951,0.09742
1228.61076,0.10048
1226.68202,0.10318
1224.75327,0.10511
1222.82452,0.10612
1220.89578,0.10640
1218.96703,0.10608
1217.03829,0.10509
1215.10954,0.10351
1213.18080,0.10136
1211.25205,0.09862
1209.32331,0.09568
1207.39456,0.09324
1205.46582,0.09148
1203.53707,0.09012
1201.60833,0.08907
1199.67958,0.08823
1197.75084,0.08745
1195.82209,0.08678
1193.89335,0.08637
1191.96460,0.08608
1190.03585,0.08570
1188.10711,0.08516
1186.17836,0.08452
1184.24962,0.08385
1182.32087,0.08311
1180.39213,0.08224
1178.46338,0.08143
1176.53464,0.08085
1174.60589,0.08049
1172.67715,0.08031
1170.74840,0.08023
1168.81966,0.07999
1166.89091,0.07905
1164.96217,0.07683
1163.03342,0.07330
1161.10467,0.06963
1159.17593,0.06779
1157.24718,0.06886
1155.31844,0.07192
1153.38969,0.07514
1151.46095,0.07764
1149.53220,0.07966
1147.60346,0.08144
1145.67471,0.08283
1143.74597,0.08382
1141.81722,0.08448
1139.88848,0.08499
1137.95973,0.08552
1136.03099,0.08587
1134.10224,0.08601
1132.17350,0.08631
1130.24475,0.08674
1128.31600,0.08709
1126.38726,0.08759
1124.45851,0.08844
1122.52977,0.08959
1120.60102,0.09077
1118.67228,0.09175
1116.74353,0.09265
1114.81479,0.09376
1112.88604,0.09501
1110.95730,0.09618
1109.02855,0.09729
1107.09981,0.09816
1105.17106,0.09841
1103.24232,0.09843
1101.31357,0.09892
1099.38483,0.09974
1097.45608,0.10027
1095.52733,0.10044
1093.59859,0.10066
1091.66984,0.10105
1089.74110,0.10161
1087.81235,0.10237
1085.88361,0.10298
1083.95486,0.10312
1082.02612,0.10323
1080.09737,0.10369
1078.16863,0.10421
1076.23988,0.10438
1074.31114,0.10384
1072.38239,0.10238
1070.45365,0.10019
1068.52490,0.09765
1066.59615,0.09502
1064.66741,0.09233
1062.73866,0.08954
1060.80992,0.08672
1058.88117,0.08389
1056.95243,0.08092
1055.02368,0.07795
1053.09494,0.07549
1051.16619,0.07365
1049.23745,0.07203
1047.30870,0.07033
1045.37996,0.06860
1043.45121,0.06734
1041.52247,0.06704
1039.59372,0.06749
1037.66498,0.06815
1035.73623,0.06878
1033.80748,0.06911
1031.87874,0.06892
1029.94999,0.06839
1028.02125,0.06781
1026.09250,0.06731
1024.16376,0.06694
1022.23501,0.06660
1020.30627,0.06632
1018.37752,0.06615
1016.44878,0.06606
1014.52003,0.06603
1012.59129,0.06603
1010.66254,0.06595
1008.73380,0.06571
1006.80505,0.06551
1004.87631,0.06546
1002.94756,0.06540
1001.01881,0.06546
999.09007,0.06585
997.16132,0.06626
995.23258,0.06658
993.30383,0.06700
991.37509,0.06743
989.44634,0.06789
987.51760,0.06863
985.58885,0.06949
983.66011,0.07025
981.73136,0.07092
979.80262,0.07157
977.87387,0.07220
975.94513,0.07262
974.01638,0.07262
972.08763,0.07246
970.15889,0.07253
968.23014,0.07286
966.30140,0.07331
964.37265,0.07371
962.44391,0.07393
960.51516,0.07405
958.58642,0.07412
956.65767,0.07426
954.72893,0.07453
952.80018,0.07470
950.87144,0.07467
948.94269,0.07458
947.01395,0.07445
945.08520,0.07434
943.15646,0.07423
941.22771,0.07416
939.29896,0.07429
937.37022,0.07443
935.44147,0.07429
933.51273,0.07409
931.58398,0.07411
929.65524,0.07412
927.72649,0.07390
925.79775,0.07370
923.86900,0.07368
921.94026,0.07361
920.01151,0.07330
918.08277,0.07256
916.15402,0.07143
914.22528,0.07036
912.29653,0.06967
910.36779,0.06900
908.43904,0.06823
906.51029,0.06775
904.58155,0.06747
902.65280,0.06710
900.72406,0.06668
898.79531,0.06623
896.86657,0.06573
894.93782,0.06552
893.00908,0.06590
891.08033,0.06676
889.15159,0.06767
887.22284,0.06826
885.29410,0.06860
883.36535,0.06896
881.43661,0.06939
879.50786,0.06965
877.57911,0.06949
875.65037,0.06916
873.72162,0.06907
871.79288,0.06920
869.86413,0.06921
867.93539,0.06899
866.00664,0.06893
864.07790,0.06923
862.14915,0.06933
860.22041,0.06921
858.29166,0.06940
856.36292,0.06965
854.43417,0.06961
852.50543,0.06950
850.57668,0.06930
848.64794,0.06876
846.71919,0.06819
844.79044,0.06788
842.86170,0.06765
840.93295,0.06737
839.00421,0.06696
837.07546,0.06602
835.14672,0.06466
833.21797,0.06360
831.28923,0.06284
829.36048,0.06197
827.43174,0.06109
825.50299,0.06020
823.57425,0.05911
821.64550,0.05761
819.71676,0.05586
817.78801,0.05442
815.85926,0.05366
813.93052,0.05371
812.00177,0.05440
810.07303,0.05551
808.14428,0.05733
806.21554,0.06001
804.28679,0.06285
802.35805,0.06498
800.42930,0.06606
798.50056,0.06617
796.57181,0.06546
794.64307,0.06441
792.71432,0.06374
790.78558,0.06408
788.85683,0.06547
786.92809,0.06715
784.99934,0.06844
783.07059,0.06958
781.14185,0.07046
779.21310,0.07027
777.28436,0.06904
775.35561,0.06748
773.42687,0.06596
771.49812,0.06488
769.56938,0.06445
767.64063,0.06421
765.71189,0.06374
763.78314,0.06331
761.85440,0.06306
759.92565,0.06274
757.99691,0.06238
756.06816,0.06218
754.13942,0.06210
752.21067,0.06190
750.28192,0.06151
748.35318,0.06125
746.42443,0.06116
744.49569,0.06084
742.56694,0.06023
740.63820,0.05944
738.70945,0.05840
736.78071,0.05737
734.85196,0.05653
732.92322,0.05561
730.99447,0.05463
729.06573,0.05371
727.13698,0.05287
725.20824,0.05229
723.27949,0.05194
721.35074,0.05141
719.42200,0.05069
717.49325,0.05018
715.56451,0.04970
713.63576,0.04879
711.70702,0.04751
709.77827,0.04630
707.84953,0.04508
705.92078,0.04381
703.99204,0.04297
702.06329,0.04241
700.13455,0.04176
698.20580,0.04172
696.27706,0.04263
694.34831,0.04364
692.41957,0.04423
690.49082,0.04480
688.56207,0.04555
686.63333,0.04612
684.70458,0.04615
682.77584,0.04575
680.84709,0.04543
678.91835,0.04567
676.98960,0.04623
675.06086,0.04630
673.13211,0.04601
671.20337,0.04606
669.27462,0.04639
667.34588,0.04664
665.41713,0.04652
663.48839,0.04586
661.55964,0.04514
659.63090,0.04484
657.70215,0.04461
655.77340,0.04443
653.84466,0.04464
651.91591,0.04487
649.98717,0.04479
648.05842,0.04464
646.12968,0.04433
644.20093,0.04372
642.27219,0.04309
640.34344,0.04250
638.41470,0.04199
636.48595,0.04203
634.55721,0.04260
632.62846,0.04300
630.69972,0.04277
628.77097,0.04209
626.84222,0.04127
624.91348,0.04056
622.98473,0.03988
621.05599,0.03914
619.12724,0.03907
617.19850,0.03965
615.26975,0.03972
613.34101,0.03925
611.41226,0.03957
609.48352,0.04152
607.55477,0.04412
605.62603,0.04546
603.69728,0.04474
601.76854,0.04301
599.83979,0.04222
