7497.03301,0.51089
7495.10426,0.50936
7493.17552,0.50847
7491.24677,0.50611
7489.31803,0.50399
7487.38928,0.50535
7485.46054,0.50929
7483.53179,0.51016
7481.60305,0.50439
7479.67430,0.49851
7477.74556,0.49775
7475.81681,0.49750
7473.88807,0.49707
7471.95932,0.50167
7470.03057,0.51007
7468.10183,0.51664
7466.17308,0.51883
7464.24434,0.51616
7462.31559,0.50979
7460.38685,0.50520
7458.45810,0.50501
7456.52936,0.50471
7454.60061,0.50243
7452.67187,0.50274
7450.74312,0.50691
7448.81438,0.51041
7446.88563,0.51170
7444.95689,0.51219
7443.02814,0.51117
7441.09940,0.50958
7439.17065,0.50953
7437.24190,0.50878
7435.31316,0.50622
7433.38441,0.50575
7431.45567,0.50854
7429.52692,0.51100
7427.59818,0.51105
7425.66943,0.51055
7423.74069,0.51153
7421.81194,0.51384
7419.88320,0.51445
7417.95445,0.51138
7416.02571,0.50970
7414.09696,0.51147
7412.16822,0.51106
7410.23947,0.50911
7408.31073,0.51058
7406.38198,0.51375
7404.45323,0.51407
7402.52449,0.51336
7400.59574,0.51530
7398.66700,0.51616
7396.73825,0.51200
7394.80951,0.50661
7392.88076,0.50336
7390.95202,0.50150
7389.02327,0.50285
7387.09453,0.50840
7385.16578,0.51374
7383.23704,0.51578
7381.30829,0.51450
7379.37955,0.51281
7377.45080,0.51530
7375.52205,0.51997
7373.59331,0.51907
7371.66456,0.51244
7369.73582,0.50951
7367.80707,0.51323
7365.87833,0.51577
7363.94958,0.51276
7362.02084,0.50702
7360.09209,0.50324
7358.16335,0.50265
7356.23460,0.50357
7354.30586,0.50774
7352.37711,0.51478
7350.44837,0.51598
7348.51962,0.50818
7346.59088,0.50081
7344.66213,0.50059
7342.73338,0.50413
7340.80464,0.50528
7338.87589,0.50182
7336.94715,0.49819
7335.01840,0.49833
7333.08966,0.50058
7331.16091,0.50209
7329.23217,0.50243
7327.30342,0.50336
7325.37468,0.50545
7323.44593,0.50598
7321.51719,0.50429
7319.58844,0.50345
7317.65970,0.50417
7315.73095,0.50619
7313.80221,0.50966
7311.87346,0.51094
7309.94471,0.50747
7308.01597,0.50110
7306.08722,0.49636
7304.15848,0.49716
7302.22973,0.50128
7300.30099,0.50592
7298.37224,0.51190
7296.44350,0.51548
7294.51475,0.51244
7292.58601,0.50812
7290.65726,0.50698
7288.72852,0.50594
7286.79977,0.50248
7284.87103,0.49664
7282.94228,0.49383
7281.01353,0.49834
7279.08479,0.50366
7277.15604,0.50514
7275.22730,0.50583
7273.29855,0.50607
7271.36981,0.50533
7269.44106,0.50440
7267.51232,0.50336
7265.58357,0.50340
7263.65483,0.50530
7261.72608,0.50746
7259.79734,0.50720
7257.86859,0.50368
7255.93985,0.50009
7254.01110,0.50042
7252.08236,0.50441
7250.15361,0.50752
7248.22486,0.50815
7246.29612,0.50873
7244.36737,0.50880
7242.43863,0.50710
7240.50988,0.50668
7238.58114,0.50787
7236.65239,0.50582
7234.72365,0.50108
7232.79490,0.49977
7230.86616,0.50153
7228.93741,0.50133
7227.00867,0.50071
7225.07992,0.50271
7223.15118,0.50366
7221.22243,0.50203
7219.29369,0.50103
7217.36494,0.50133
7215.43619,0.50378
7213.50745,0.50761
7211.57870,0.50817
7209.64996,0.50381
7207.72121,0.49816
7205.79247,0.49593
7203.86372,0.49676
7201.93498,0.49792
7200.00623,0.50019
7198.07749,0.50346
7196.14874,0.50663
7194.22000,0.50919
7192.29125,0.50775
7190.36251,0.50085
7188.43376,0.49375
7186.50501,0.49218
7184.57627,0.49585
7182.64752,0.49909
7180.71878,0.49929
7178.79003,0.49979
7176.86129,0.49961
7174.93254,0.49539
7173.00380,0.49237
7171.07505,0.49629
7169.14631,0.50049
7167.21756,0.49750
7165.28882,0.49254
7163.36007,0.49186
7161.43133,0.49467
7159.50258,0.49801
7157.57384,0.49968
7155.64509,0.49833
7153.71634,0.49326
7151.78760,0.48735
7149.85885,0.48518
7147.93011,0.48765
7146.00136,0.49241
7144.07262,0.49670
7142.14387,0.49828
7140.21513,0.49688
7138.28638,0.49540
7136.35764,0.49393
7134.42889,0.48993
7132.50015,0.48689
7130.57140,0.48897
7128.64266,0.49240
7126.71391,0.49176
7124.78516,0.48825
7122.85642,0.48730
7120.92767,0.49164
7118.99893,0.49727
7117.07018,0.49667
7115.14144,0.49049
7113.21269,0.48705
7111.28395,0.48778
7109.35520,0.48870
7107.42646,0.49133
7105.49771,0.49671
7103.56897,0.49985
7101.64022,0.49865
7099.71148,0.49539
7097.78273,0.49297
7095.85399,0.49226
7093.92524,0.49110
7091.99649,0.48851
7090.06775,0.48646
7088.13900,0.48671
7086.21026,0.48799
7084.28151,0.48791
7082.35277,0.48632
7080.42402,0.48632
7078.49528,0.49019
7076.56653,0.49377
7074.63779,0.49250
7072.70904,0.48726
7070.78030,0.48133
7068.85155,0.47781
7066.92281,0.47791
7064.99406,0.48031
7063.06532,0.48222
7061.13657,0.48337
7059.20782,0.48512
7057.27908,0.48537
7055.35033,0.48339
7053.42159,0.48114
7051.49284,0.47944
7049.56410,0.47917
7047.63535,0.48014
7045.70661,0.48106
7043.77786,0.48320
7041.84912,0.48720
7039.92037,0.49037
7037.99163,0.49091
7036.06288,0.48931
7034.13414,0.48737
7032.20539,0.48691
7030.27664,0.48632
7028.34790,0.48379
7026.41915,0.48157
7024.49041,0.48134
7022.56166,0.48229
7020.63292,0.48366
7018.70417,0.48455
7016.77543,0.48465
7014.84668,0.48481
7012.91794,0.48465
7010.98919,0.48301
7009.06045,0.48126
7007.13170,0.48158
7005.20296,0.48259
7003.27421,0.48280
7001.34547,0.48459
6999.41672,0.48801
6997.48797,0.48928
6995.55923,0.48792
6993.63048,0.48623
6991.70174,0.48599
6989.77299,0.48691
6987.84425,0.48674
6985.91550,0.48651
6983.98676,0.48762
6982.05801,0.48736
6980.12927,0.48505
6978.20052,0.48282
6976.27178,0.48176
6974.34303,0.48292
6972.41429,0.48597
6970.48554,0.48833
6968.55680,0.48943
6966.62805,0.48975
6964.69930,0.48700
6962.77056,0.48256
6960.84181,0.48182
6958.91307,0.48421
6956.98432,0.48633
6955.05558,0.48679
6953.12683,0.48385
6951.19809,0.47910
6949.26934,0.47684
6947.34060,0.47790
6945.41185,0.48030
6943.48311,0.48267
6941.55436,0.48435
6939.62562,0.48488
6937.69687,0.48568
6935.76812,0.48803
6933.83938,0.48893
6931.91063,0.48691
6929.98189,0.48518
6928.05314,0.48452
6926.12440,0.48428
6924.19565,0.48535
6922.26691,0.48689
6920.33816,0.48717
6918.40942,0.48607
6916.48067,0.48500
6914.55193,0.48462
6912.62318,0.48435
6910.69444,0.48435
6908.76569,0.48342
6906.83695,0.47997
6904.90820,0.47712
6902.97945,0.47935
6901.05071,0.48475
6899.12196,0.48723
6897.19322,0.48617
6895.26447,0.48500
6893.33573,0.48355
6891.40698,0.48141
6889.47824,0.48087
6887.54949,0.48299
6885.62075,0.48601
6883.69200,0.48605
6881.76326,0.48195
6879.83451,0.47848
6877.90577,0.47919
6875.97702,0.48161
6874.04828,0.48271
6872.11953,0.48290
6870.19078,0.48285
6868.26204,0.48162
6866.33329,0.47981
6864.40455,0.48007
6862.47580,0.48275
6860.54706,0.48434
6858.61831,0.48398
6856.68957,0.48452
6854.76082,0.48538
6852.83208,0.48423
6850.90333,0.48163
6848.97459,0.48008
6847.04584,0.48126
6845.11710,0.48254
6843.18835,0.48081
6841.25960,0.47813
6839.33086,0.47700
6837.40211,0.47686
6835.47337,0.47812
6833.54462,0.48137
6831.61588,0.48455
6829.68713,0.48548
6827.75839,0.48403
6825.82964,0.48308
6823.90090,0.48566
6821.97215,0.48890
6820.04341,0.48915
6818.11466,0.48827
6816.18592,0.48796
6814.25717,0.48715
6812.32843,0.48584
6810.39968,0.48512
6808.47093,0.48517
6806.54219,0.48499
6804.61344,0.48441
6802.68470,0.48421
6800.75595,0.48467
6798.82721,0.48705
6796.89846,0.48972
6794.96972,0.48818
6793.04097,0.48430
6791.11223,0.48261
6789.18348,0.48303
6787.25474,0.48432
6785.32599,0.48594
6783.39725,0.48764
6781.46850,0.48910
6779.53975,0.49036
6777.61101,0.49151
6775.68226,0.49210
6773.75352,0.49188
6771.82477,0.48938
6769.89603,0.48442
6767.96728,0.48016
6766.03854,0.47866
6764.10979,0.47930
6762.18105,0.48080
6760.25230,0.48283
6758.32356,0.48542
6756.39481,0.48760
6754.46607,0.48776
6752.53732,0.48521
6750.60858,0.48243
6748.67983,0.48275
6746.75108,0.48538
6744.82234,0.48737
6742.89359,0.48763
6740.96485,0.48629
6739.03610,0.48447
6737.10736,0.48422
6735.17861,0.48585
6733.24987,0.48776
6731.32112,0.48875
6729.39238,0.48829
6727.46363,0.48658
6725.53489,0.48518
6723.60614,0.48503
6721.67740,0.48493
6719.74865,0.48469
6717.81991,0.48469
6715.89116,0.48357
6713.96241,0.48164
6712.03367,0.48108
6710.10492,0.48235
6708.17618,0.48418
6706.24743,0.48542
6704.31869,0.48557
6702.38994,0.48483
6700.46120,0.48342
6698.53245,0.48214
6696.60371,0.48303
6694.67496,0.48519
6692.74622,0.48530
6690.81747,0.48376
6688.88873,0.48344
6686.95998,0.48447
6685.03123,0.48483
6683.10249,0.48454
6681.17374,0.48570
6679.24500,0.48746
6677.31625,0.48783
6675.38751,0.48702
6673.45876,0.48517
6671.53002,0.48291
6669.60127,0.48205
6667.67253,0.48285
6665.74378,0.48417
6663.81504,0.48474
6661.88629,0.48404
6659.95755,0.48338
6658.02880,0.48463
6656.10006,0.48696
6654.17131,0.48728
6652.24256,0.48533
6650.31382,0.48380
6648.38507,0.48315
6646.45633,0.48309
6644.52758,0.48480
6642.59884,0.48643
6640.67009,0.48584
6638.74135,0.48652
6636.81260,0.48930
6634.88386,0.48942
6632.95511,0.48737
6631.02637,0.48683
6629.09762,0.48714
6627.16888,0.48656
6625.24013,0.48557
6623.31139,0.48613
6621.38264,0.48791
6619.45389,0.48929
6617.52515,0.49087
6615.59640,0.49226
6613.66766,0.49225
6611.73891,0.49186
6609.81017,0.49180
6607.88142,0.49091
6605.95268,0.48883
6604.02393,0.48681
6602.09519,0.48562
6600.16644,0.48494
6598.23770,0.48389
6596.30895,0.48292
6594.38021,0.48371
6592.45146,0.48647
6590.52271,0.48958
6588.59397,0.49046
6586.66522,0.48927
6584.73648,0.48881
6582.80773,0.48931
6580.87899,0.48992
6578.95024,0.48985
6577.02150,0.48775
6575.09275,0.48508
6573.16401,0.48421
6571.23526,0.48518
6569.30652,0.48750
6567.37777,0.49034
6565.44903,0.49220
6563.52028,0.49221
6561.59154,0.49024
6559.66279,0.48774
6557.73404,0.48731
6555.80530,0.48906
6553.87655,0.49052
6551.94781,0.49089
6550.01906,0.49134
6548.09032,0.49079
6546.16157,0.48728
6544.23283,0.48242
6542.30408,0.48099
6540.37534,0.48554
6538.44659,0.49115
6536.51785,0.49305
6534.58910,0.49352
6532.66036,0.49367
6530.73161,0.49167
6528.80287,0.48817
6526.87412,0.48511
6524.94537,0.48300
6523.01663,0.48266
6521.08788,0.48531
6519.15914,0.48827
6517.23039,0.48842
6515.30165,0.48703
6513.37290,0.48645
6511.44416,0.48884
6509.51541,0.49319
6507.58667,0.49497
6505.65792,0.49352
6503.72918,0.49099
6501.80043,0.48859
6499.87169,0.48854
6497.94294,0.49051
6496.01419,0.49090
6494.08545,0.48898
6492.15670,0.48649
6490.22796,0.48524
6488.29921,0.48685
6486.37047,0.48968
6484.44172,0.49084
6482.51298,0.49035
6480.58423,0.48910
6478.65549,0.48779
6476.72674,0.48724
6474.79800,0.48708
6472.86925,0.48650
6470.94051,0.48554
6469.01176,0.48561
6467.08302,0.48757
6465.15427,0.49008
6463.22552,0.49202
6461.29678,0.49261
6459.36803,0.49104
6457.43929,0.48918
6455.51054,0.48834
6453.58180,0.48743
6451.65305,0.48713
6449.72431,0.48809
6447.79556,0.48892
6445.86682,0.48924
6443.93807,0.48951
6442.00933,0.48948
6440.08058,0.48882
6438.15184,0.48744
6436.22309,0.48589
6434.29434,0.48548
6432.36560,0.48625
6430.43685,0.48755
6428.50811,0.48892
6426.57936,0.48908
6424.65062,0.48877
6422.72187,0.48950
6420.79313,0.49016
6418.86438,0.49068
6416.93564,0.49126
6415.00689,0.49090
6413.07815,0.48993
6411.14940,0.48871
6409.22066,0.48775
6407.29191,0.48844
6405.36317,0.48971
6403.43442,0.49019
6401.50567,0.49101
6399.57693,0.49112
6397.64818,0.48958
6395.71944,0.48931
6393.79069,0.49010
6391.86195,0.48953
6389.93320,0.48882
6388.00446,0.48896
6386.07571,0.48920
6384.14697,0.48938
6382.21822,0.48981
6380.28948,0.49028
6378.36073,0.49026
6376.43199,0.49010
6374.50324,0.49067
6372.57450,0.49146
6370.64575,0.49060
6368.71700,0.48833
6366.78826,0.48718
6364.85951,0.48791
6362.93077,0.48882
6361.00202,0.48952
6359.07328,0.49092
6357.14453,0.49195
6355.21579,0.49165
6353.28704,0.49058
6351.35830,0.48936
6349.42955,0.48865
6347.50081,0.48863
6345.57206,0.48936
6343.64332,0.49022
6341.71457,0.49049
6339.78582,0.49061
6337.85708,0.49047
6335.92833,0.49010
6333.99959,0.49069
6332.07084,0.49134
6330.14210,0.48990
6328.21335,0.48832
6326.28461,0.48897
6324.35586,0.48953
6322.42712,0.48840
6320.49837,0.48750
6318.56963,0.48839
6316.64088,0.49005
6314.71214,0.49017
6312.78339,0.48882
6310.85465,0.48839
6308.92590,0.48929
6306.99715,0.48987
6305.06841,0.49015
6303.13966,0.49075
6301.21092,0.49158
6299.28217,0.49322
6297.35343,0.49464
6295.42468,0.49386
6293.49594,0.49209
6291.56719,0.49123
6289.63845,0.49079
6287.70970,0.49013
6285.78096,0.48944
6283.85221,0.48845
6281.92347,0.48734
6279.99472,0.48639
6278.06598,0.48611
6276.13723,0.48757
6274.20848,0.48876
6272.27974,0.48722
6270.35099,0.48546
6268.42225,0.48663
6266.49350,0.48881
6264.56476,0.48914
6262.63601,0.48894
6260.70727,0.48939
6258.77852,0.48948
6256.84978,0.48991
6254.92103,0.49148
6252.99229,0.49199
6251.06354,0.49033
6249.13480,0.48864
6247.20605,0.48797
6245.27730,0.48731
6243.34856,0.48704
6241.41981,0.48917
6239.49107,0.49312
6237.56232,0.49497
6235.63358,0.49437
6233.70483,0.49414
6231.77609,0.49374
6229.84734,0.49214
6227.91860,0.49001
6225.98985,0.48799
6224.06111,0.48790
6222.13236,0.49011
6220.20362,0.49207
6218.27487,0.49273
6216.34613,0.49258
6214.41738,0.49144
6212.48863,0.49067
6210.55989,0.49209
6208.63114,0.49365
6206.70240,0.49360
6204.77365,0.49429
6202.84491,0.49621
6200.91616,0.49635
6198.98742,0.49380
6197.05867,0.49145
6195.12993,0.49090
6193.20118,0.49029
6191.27244,0.48920
6189.34369,0.48939
6187.41495,0.49052
6185.48620,0.49121
6183.55746,0.49210
6181.62871,0.49401
6179.69996,0.49597
6177.77122,0.49658
6175.84247,0.49557
6173.91373,0.49362
6171.98498,0.49201
6170.05624,0.49230
6168.12749,0.49347
6166.19875,0.49271
6164.27000,0.49030
6162.34126,0.48897
6160.41251,0.48954
6158.48377,0.48996
6156.55502,0.48970
6154.62628,0.49064
6152.69753,0.49303
6150.76878,0.49485
6148.84004,0.49344
6146.91129,0.49017
6144.98255,0.48990
6143.05380,0.49216
6141.12506,0.49327
6139.19631,0.49295
6137.26757,0.49206
6135.33882,0.49153
6133.41008,0.49211
6131.48133,0.49231
6129.55259,0.49138
6127.62384,0.49076
6125.69510,0.49132
6123.76635,0.49274
6121.83761,0.49402
6119.90886,0.49434
6117.98011,0.49431
6116.05137,0.49464
6114.12262,0.49446
6112.19388,0.49297
6110.26513,0.49141
6108.33639,0.49137
6106.40764,0.49275
6104.47890,0.49412
6102.55015,0.49364
6100.62141,0.49091
6098.69266,0.48803
6096.76392,0.48774
6094.83517,0.49048
6092.90643,0.49336
6090.97768,0.49386
6089.04893,0.49318
6087.12019,0.49244
6085.19144,0.49146
6083.26270,0.49194
6081.33395,0.49389
6079.40521,0.49487
6077.47646,0.49509
6075.54772,0.49541
6073.61897,0.49514
6071.69023,0.49494
6069.76148,0.49538
6067.83274,0.49466
6065.90399,0.49252
6063.97525,0.49185
6062.04650,0.49358
6060.11776,0.49490
6058.18901,0.49450
6056.26026,0.49394
6054.33152,0.49338
6052.40277,0.49218
6050.47403,0.49155
6048.54528,0.49190
6046.61654,0.49206
6044.68779,0.49172
6042.75905,0.49097
6040.83030,0.49090
6038.90156,0.49267
6036.97281,0.49432
6035.04407,0.49447
6033.11532,0.49376
6031.18658,0.49232
6029.25783,0.49151
6027.32909,0.49198
6025.40034,0.49225
6023.47159,0.49224
6021.54285,0.49275
6019.61410,0.49334
6017.68536,0.49360
6015.75661,0.49374
6013.82787,0.49322
6011.89912,0.49163
6009.97038,0.49035
6008.04163,0.49081
6006.11289,0.49222
6004.18414,0.49222
6002.25540,0.49063
6000.32665,0.48990
5998.39791,0.49069
5996.46916,0.49130
5994.54041,0.49135
5992.61167,0.49191
5990.68292,0.49271
5988.75418,0.49215
5986.82543,0.49047
5984.89669,0.48992
5982.96794,0.49076
5981.03920,0.49107
5979.11045,0.49055
5977.18171,0.49013
5975.25296,0.49011
5973.32422,0.49066
5971.39547,0.49157
5969.46673,0.49199
5967.53798,0.49165
5965.60924,0.49136
5963.68049,0.49127
5961.75174,0.49059
5959.82300,0.48992
5957.89425,0.49001
5955.96551,0.49033
5954.03676,0.49054
5952.10802,0.49063
5950.17927,0.49033
5948.25053,0.48958
5946.32178,0.48891
5944.39304,0.48914
5942.46429,0.49015
5940.53555,0.49123
5938.60680,0.49162
5936.67806,0.49068
5934.74931,0.48929
5932.82057,0.48934
5930.89182,0.49081
5928.96307,0.49129
5927.03433,0.49005
5925.10558,0.48891
5923.17684,0.48846
5921.24809,0.48832
5919.31935,0.48860
5917.39060,0.48898
5915.46186,0.48947
5913.53311,0.49010
5911.60437,0.49012
5909.67562,0.48980
5907.74688,0.48957
5905.81813,0.48906
5903.88939,0.48867
5901.96064,0.48894
5900.03189,0.48983
5898.10315,0.49102
5896.17440,0.49160
5894.24566,0.49116
5892.31691,0.49018
5890.38817,0.48931
5888.45942,0.48890
5886.53068,0.48872
5884.60193,0.48871
5882.67319,0.48941
5880.74444,0.49048
5878.81570,0.49069
5876.88695,0.48963
5874.95821,0.48932
5873.02946,0.49081
5871.10072,0.49131
5869.17197,0.49008
5867.24322,0.48935
5865.31448,0.48982
5863.38573,0.49089
5861.45699,0.49079
5859.52824,0.48893
5857.59950,0.48747
5855.67075,0.48733
5853.74201,0.48769
5851.81326,0.48784
5849.88452,0.48765
5847.95577,0.48761
5846.02703,0.48799
5844.09828,0.48879
5842.16954,0.48938
5840.24079,0.48906
5838.31205,0.48849
5836.38330,0.48845
5834.45455,0.48842
5832.52581,0.48794
5830.59706,0.48788
5828.66832,0.48824
5826.73957,0.48781
5824.81083,0.48717
5822.88208,0.48759
5820.95334,0.48868
5819.02459,0.48940
5817.09585,0.48983
5815.16710,0.49038
5813.23836,0.49064
5811.30961,0.49066
5809.38087,0.49038
5807.45212,0.48909
5805.52337,0.48755
5803.59463,0.48709
5801.66588,0.48740
5799.73714,0.48780
5797.80839,0.48836
5795.87965,0.48909
5793.95090,0.48989
5792.02216,0.49034
5790.09341,0.49001
5788.16467,0.48888
5786.23592,0.48720
5784.30718,0.48638
5782.37843,0.48688
5780.44969,0.48732
5778.52094,0.48742
5776.59220,0.48760
5774.66345,0.48797
5772.73470,0.48831
5770.80596,0.48798
5768.87721,0.48702
5766.94847,0.48636
5765.01972,0.48684
5763.09098,0.48776
5761.16223,0.48764
5759.23349,0.48693
5757.30474,0.48685
5755.37600,0.48683
5753.44725,0.48633
5751.51851,0.48589
5749.58976,0.48551
5747.66102,0.48531
5745.73227,0.48601
5743.80352,0.48710
5741.87478,0.48744
5739.94603,0.48691
5738.01729,0.48629
5736.08854,0.48648
5734.15980,0.48693
5732.23105,0.48645
5730.30231,0.48564
5728.37356,0.48562
5726.44482,0.48643
5724.51607,0.48674
5722.58733,0.48526
5720.65858,0.48366
5718.72984,0.48426
5716.80109,0.48617
5714.87235,0.48740
5712.94360,0.48760
5711.01485,0.48759
5709.08611,0.48782
5707.15736,0.48796
5705.22862,0.48772
5703.29987,0.48672
5701.37113,0.48518
5699.44238,0.48451
5697.51364,0.48504
5695.58489,0.48556
5693.65615,0.48559
5691.72740,0.48528
5689.79866,0.48543
5687.86991,0.48661
5685.94117,0.48719
5684.01242,0.48609
5682.08368,0.48490
5680.15493,0.48512
5678.22618,0.48601
5676.29744,0.48602
5674.36869,0.48521
5672.43995,0.48494
5670.51120,0.48541
5668.58246,0.48562
5666.65371,0.48520
5664.72497,0.48480
5662.79622,0.48513
5660.86748,0.48643
5658.93873,0.48785
5657.00999,0.48790
5655.08124,0.48686
5653.15250,0.48615
5651.22375,0.48563
5649.29500,0.48498
5647.36626,0.48485
5645.43751,0.48549
5643.50877,0.48616
5641.58002,0.48569
5639.65128,0.48421
5637.72253,0.48352
5635.79379,0.48408
5633.86504,0.48444
5631.93630,0.48425
5630.00755,0.48413
5628.07881,0.48436
5626.15006,0.48507
5624.22132,0.48551
5622.29257,0.48525
5620.36383,0.48475
5618.43508,0.48395
5616.50633,0.48296
5614.57759,0.48213
5612.64884,0.48204
5610.72010,0.48305
5608.79135,0.48405
5606.86261,0.48419
5604.93386,0.48408
5603.00512,0.48445
5601.07637,0.48524
5599.14763,0.48561
5597.21888,0.48525
5595.29014,0.48476
5593.36139,0.48426
5591.43265,0.48375
5589.50390,0.48429
5587.57516,0.48539
5585.64641,0.48515
5583.71766,0.48390
5581.78892,0.48314
5579.86017,0.48331
5577.93143,0.48378
5576.00268,0.48357
5574.07394,0.48306
5572.14519,0.48337
5570.21645,0.48417
5568.28770,0.48437
5566.35896,0.48412
5564.43021,0.48424
5562.50147,0.48453
5560.57272,0.48436
5558.64398,0.48368
5556.71523,0.48368
5554.78648,0.48482
5552.85774,0.48540
5550.92899,0.48439
5549.00025,0.48298
5547.07150,0.48237
5545.14276,0.48203
5543.21401,0.48127
5541.28527,0.48137
5539.35652,0.48298
5537.42778,0.48438
5535.49903,0.48459
5533.57029,0.48424
5531.64154,0.48405
5529.71280,0.48406
5527.78405,0.48428
5525.85531,0.48519
5523.92656,0.48608
5521.99781,0.48564
5520.06907,0.48425
5518.14032,0.48334
5516.21158,0.48333
5514.28283,0.48324
5512.35409,0.48270
5510.42534,0.48255
5508.49660,0.48316
5506.56785,0.48382
5504.63911,0.48352
5502.71036,0.48247
5500.78162,0.48204
5498.85287,0.48299
5496.92413,0.48436
5494.99538,0.48468
5493.06664,0.48436
5491.13789,0.48454
5489.20914,0.48470
5487.28040,0.48408
5485.35165,0.48334
5483.42291,0.48307
5481.49416,0.48303
5479.56542,0.48314
5477.63667,0.48350
5475.70793,0.48360
5473.77918,0.48324
5471.85044,0.48300
5469.92169,0.48290
5467.99295,0.48248
5466.06420,0.48204
5464.13546,0.48172
5462.20671,0.48104
5460.27796,0.48081
5458.34922,0.48184
5456.42047,0.48298
5454.49173,0.48330
5452.56298,0.48328
5450.63424,0.48358
5448.70549,0.48414
5446.77675,0.48446
5444.84800,0.48450
5442.91926,0.48449
5440.99051,0.48403
5439.06177,0.48295
5437.13302,0.48207
5435.20428,0.48197
5433.27553,0.48240
5431.34679,0.48283
5429.41804,0.48303
5427.48929,0.48318
5425.56055,0.48342
5423.63180,0.48338
5421.70306,0.48316
5419.77431,0.48287
5417.84557,0.48213
5415.91682,0.48162
5413.98808,0.48196
5412.05933,0.48236
5410.13059,0.48232
5408.20184,0.48194
5406.27310,0.48116
5404.34435,0.48052
5402.41561,0.48058
5400.48686,0.48096
5398.55811,0.48113
5396.62937,0.48151
5394.70062,0.48213
5392.77188,0.48237
5390.84313,0.48269
5388.91439,0.48372
5386.98564,0.48441
5385.05690,0.48373
5383.12815,0.48266
5381.19941,0.48222
5379.27066,0.48197
5377.34192,0.48154
5375.41317,0.48123
5373.48443,0.48147
5371.55568,0.48192
5369.62694,0.48161
5367.69819,0.48078
5365.76944,0.48015
5363.84070,0.47970
5361.91195,0.47971
5359.98321,0.48028
5358.05446,0.48014
5356.12572,0.47865
5354.19697,0.47764
5352.26823,0.47852
5350.33948,0.47961
5348.41074,0.47944
5346.48199,0.47870
5344.55325,0.47820
5342.62450,0.47804
5340.69576,0.47795
5338.76701,0.47755
5336.83827,0.47692
5334.90952,0.47640
5332.98077,0.47601
5331.05203,0.47548
5329.12328,0.47477
5327.19454,0.47408
5325.26579,0.47360
5323.33705,0.47341
5321.40830,0.47312
5319.47956,0.47220
5317.55081,0.47148
5315.62207,0.47206
5313.69332,0.47293
5311.76458,0.47239
5309.83583,0.47080
5307.90709,0.46967
5305.97834,0.46945
5304.04959,0.46932
5302.12085,0.46874
5300.19210,0.46830
5298.26336,0.46786
5296.33461,0.46661
5294.40587,0.46483
5292.47712,0.46339
5290.54838,0.46269
5288.61963,0.46229
5286.69089,0.46152
5284.76214,0.46079
5282.83340,0.46016
5280.90465,0.45876
5278.97591,0.45670
5277.04716,0.45514
5275.11842,0.45435
5273.18967,0.45368
5271.26092,0.45264
5269.33218,0.45123
5267.40343,0.44977
5265.47469,0.44851
5263.54594,0.44742
5261.61720,0.44625
5259.68845,0.44486
5257.75971,0.44337
5255.83096,0.44187
5253.90222,0.44038
5251.97347,0.43882
5250.04473,0.43701
5248.11598,0.43504
5246.18724,0.43344
5244.25849,0.43274
5242.32975,0.43242
5240.40100,0.43119
5238.47225,0.42900
5236.54351,0.42677
5234.61476,0.42477
5232.68602,0.42304
5230.75727,0.42183
5228.82853,0.42062
5226.89978,0.41852
5224.97104,0.41620
5223.04229,0.41510
5221.11355,0.41455
5219.18480,0.41331
5217.25606,0.41199
5215.32731,0.41100
5213.39857,0.40996
5211.46982,0.40903
5209.54107,0.40849
5207.61233,0.40825
5205.68358,0.40771
5203.75484,0.40649
5201.82609,0.40549
5199.89735,0.40506
5197.96860,0.40436
5196.03986,0.40340
5194.11111,0.40328
5192.18237,0.40420
5190.25362,0.40516
5188.32488,0.40551
5186.39613,0.40527
5184.46739,0.40467
5182.53864,0.40418
5180.60990,0.40441
5178.68115,0.40549
5176.75240,0.40626
5174.82366,0.40603
5172.89491,0.40584
5170.96617,0.40602
5169.03742,0.40607
5167.10868,0.40647
5165.17993,0.40752
5163.25119,0.40849
5161.32244,0.40899
5159.39370,0.40953
5157.46495,0.41056
5155.53621,0.41182
5153.60746,0.41262
5151.67872,0.41306
5149.74997,0.41380
5147.82123,0.41496
5145.89248,0.41583
5143.96373,0.41577
5142.03499,0.41542
5140.10624,0.41584
5138.17750,0.41700
5136.24875,0.41831
5134.32001,0.41916
5132.39126,0.41944
5130.46252,0.41983
5128.53377,0.42086
5126.60503,0.42204
5124.67628,0.42233
5122.74754,0.42202
5120.81879,0.42253
5118.89005,0.42377
5116.96130,0.42434
5115.03255,0.42410
5113.10381,0.42396
5111.17506,0.42434
5109.24632,0.42510
5107.31757,0.42559
5105.38883,0.42554
5103.46008,0.42585
5101.53134,0.42669
5099.60259,0.42727
5097.67385,0.42775
5095.74510,0.42836
5093.81636,0.42849
5091.88761,0.42838
5089.95887,0.42903
5088.03012,0.43007
5086.10138,0.43029
5084.17263,0.43000
5082.24388,0.43012
5080.31514,0.43052
5078.38639,0.43084
5076.45765,0.43127
5074.52890,0.43204
5072.60016,0.43310
5070.67141,0.43409
5068.74267,0.43469
5066.81392,0.43477
5064.88518,0.43441
5062.95643,0.43423
5061.02769,0.43453
5059.09894,0.43491
5057.17020,0.43552
5055.24145,0.43650
5053.31270,0.43733
5051.38396,0.43771
5049.45521,0.43773
5047.52647,0.43751
5045.59772,0.43723
5043.66898,0.43716
5041.74023,0.43751
5039.81149,0.43804
5037.88274,0.43824
5035.95400,0.43838
5034.02525,0.43901
5032.09651,0.43964
5030.16776,0.43984
5028.23902,0.44014
5026.31027,0.44075
5024.38153,0.44122
5022.45278,0.44106
5020.52403,0.44052
5018.59529,0.44069
5016.66654,0.44195
5014.73780,0.44316
5012.80905,0.44321
5010.88031,0.44257
5008.95156,0.44225
5007.02282,0.44258
5005.09407,0.44312
5003.16533,0.44355
5001.23658,0.44423
4999.30784,0.44509
4997.37909,0.44529
4995.45035,0.44486
4993.52160,0.44477
4991.59286,0.44502
4989.66411,0.44505
4987.73536,0.44512
4985.80662,0.44552
4983.87787,0.44579
4981.94913,0.44589
4980.02038,0.44640
4978.09164,0.44688
4976.16289,0.44644
4974.23415,0.44568
4972.30540,0.44543
4970.37666,0.44547
4968.44791,0.44535
4966.51917,0.44523
4964.59042,0.44571
4962.66168,0.44651
4960.73293,0.44680
4958.80418,0.44703
4956.87544,0.44777
4954.94669,0.44816
4953.01795,0.44777
4951.08920,0.44732
4949.16046,0.44698
4947.23171,0.44679
4945.30297,0.44706
4943.37422,0.44763
4941.44548,0.44793
4939.51673,0.44750
4937.58799,0.44680
4935.65924,0.44657
4933.73050,0.44660
4931.80175,0.44674
4929.87301,0.44701
4927.94426,0.44677
4926.01551,0.44592
4924.08677,0.44555
4922.15802,0.44612
4920.22928,0.44667
4918.30053,0.44663
4916.37179,0.44627
4914.44304,0.44572
4912.51430,0.44547
4910.58555,0.44563
4908.65681,0.44511
4906.72806,0.44397
4904.79932,0.44360
4902.87057,0.44427
4900.94183,0.44508
4899.01308,0.44540
4897.08434,0.44527
4895.15559,0.44500
4893.22684,0.44474
4891.29810,0.44471
4889.36935,0.44477
4887.44061,0.44457
4885.51186,0.44433
4883.58312,0.44397
4881.65437,0.44288
4879.72563,0.44153
4877.79688,0.44110
4875.86814,0.44173
4873.93939,0.44240
4872.01065,0.44255
4870.08190,0.44265
4868.15316,0.44271
4866.22441,0.44229
4864.29566,0.44142
4862.36692,0.44039
4860.43817,0.43951
4858.50943,0.43921
4856.58068,0.43938
4854.65194,0.43945
4852.72319,0.43921
4850.79445,0.43889
4848.86570,0.43864
4846.93696,0.43851
4845.00821,0.43861
4843.07947,0.43905
4841.15072,0.43918
4839.22198,0.43845
4837.29323,0.43774
4835.36449,0.43775
4833.43574,0.43782
4831.50699,0.43720
4829.57825,0.43613
4827.64950,0.43531
4825.72076,0.43520
4823.79201,0.43557
4821.86327,0.43553
4819.93452,0.43490
4818.00578,0.43423
4816.07703,0.43384
4814.14829,0.43395
4812.21954,0.43427
4810.29080,0.43407
4808.36205,0.43357
4806.43331,0.43363
4804.50456,0.43397
4802.57582,0.43367
4800.64707,0.43303
4798.71832,0.43298
4796.78958,0.43340
4794.86083,0.43344
4792.93209,0.43290
4791.00334,0.43232
4789.07460,0.43205
4787.14585,0.43199
4785.21711,0.43227
4783.28836,0.43291
4781.35962,0.43305
4779.43087,0.43239
4777.50213,0.43218
4775.57338,0.43267
4773.64464,0.43269
4771.71589,0.43205
4769.78714,0.43189
4767.85840,0.43230
4765.92965,0.43242
4764.00091,0.43241
4762.07216,0.43242
4760.14342,0.43187
4758.21467,0.43102
4756.28593,0.43067
4754.35718,0.43103
4752.42844,0.43157
4750.49969,0.43159
4748.57095,0.43130
4746.64220,0.43130
4744.71346,0.43166
4742.78471,0.43200
4740.85597,0.43198
4738.92722,0.43173
4736.99847,0.43169
4735.06973,0.43187
4733.14098,0.43178
4731.21224,0.43152
4729.28349,0.43191
4727.35475,0.43301
4725.42600,0.43357
4723.49726,0.43317
4721.56851,0.43315
4719.63977,0.43384
4717.71102,0.43430
4715.78228,0.43417
4713.85353,0.43345
4711.92479,0.43281
4709.99604,0.43298
4708.06729,0.43355
4706.13855,0.43391
4704.20980,0.43402
4702.28106,0.43417
4700.35231,0.43471
4698.42357,0.43521
4696.49482,0.43500
4694.56608,0.43478
4692.63733,0.43531
4690.70859,0.43598
4688.77984,0.43609
4686.85110,0.43594
4684.92235,0.43599
4682.99361,0.43606
4681.06486,0.43612
4679.13612,0.43638
4677.20737,0.43662
4675.27862,0.43638
4673.34988,0.43590
4671.42113,0.43600
4669.49239,0.43656
4667.56364,0.43669
4665.63490,0.43647
4663.70615,0.43658
4661.77741,0.43695
4659.84866,0.43718
4657.91992,0.43745
4655.99117,0.43785
4654.06243,0.43784
4652.13368,0.43724
4650.20494,0.43668
4648.27619,0.43675
4646.34745,0.43728
4644.41870,0.43770
4642.48995,0.43799
4640.56121,0.43815
4638.63246,0.43806
4636.70372,0.43799
4634.77497,0.43800
4632.84623,0.43790
4630.91748,0.43770
4628.98874,0.43761
4627.05999,0.43752
4625.13125,0.43717
4623.20250,0.43673
4621.27376,0.43667
4619.34501,0.43705
4617.41627,0.43753
4615.48752,0.43773
4613.55877,0.43746
4611.63003,0.43715
4609.70128,0.43721
4607.77254,0.43732
4605.84379,0.43718
4603.91505,0.43685
4601.98630,0.43656
4600.05756,0.43681
4598.12881,0.43747
4596.20007,0.43796
4594.27132,0.43826
4592.34258,0.43838
4590.41383,0.43828
4588.48509,0.43820
4586.55634,0.43826
4584.62760,0.43814
4582.69885,0.43778
4580.77010,0.43723
4578.84136,0.43653
4576.91261,0.43615
4574.98387,0.43624
4573.05512,0.43632
4571.12638,0.43625
4569.19763,0.43618
4567.26889,0.43615
4565.34014,0.43636
4563.41140,0.43676
4561.48265,0.43685
4559.55391,0.43654
4557.62516,0.43614
4555.69642,0.43558
4553.76767,0.43500
4551.83893,0.43479
4549.91018,0.43482
4547.98143,0.43466
4546.05269,0.43439
4544.12394,0.43430
4542.19520,0.43438
4540.26645,0.43423
4538.33771,0.43369
4536.40896,0.43339
4534.48022,0.43338
4532.55147,0.43315
4530.62273,0.43289
4528.69398,0.43283
4526.76524,0.43270
4524.83649,0.43239
4522.90775,0.43219
4520.97900,0.43224
4519.05025,0.43215
4517.12151,0.43187
4515.19276,0.43178
4513.26402,0.43192
4511.33527,0.43200
4509.40653,0.43190
4507.47778,0.43179
4505.54904,0.43175
4503.62029,0.43168
4501.69155,0.43142
4499.76280,0.43077
4497.83406,0.42992
4495.90531,0.42962
4493.97657,0.42989
4492.04782,0.42987
4490.11908,0.42955
4488.19033,0.42937
4486.26158,0.42878
4484.33284,0.42752
4482.40409,0.42669
4480.47535,0.42698
4478.54660,0.42743
4476.61786,0.42721
4474.68911,0.42658
4472.76037,0.42601
4470.83162,0.42574
4468.90288,0.42556
4466.97413,0.42508
4465.04539,0.42425
4463.11664,0.42357
4461.18790,0.42335
4459.25915,0.42331
4457.33041,0.42291
4455.40166,0.42219
4453.47291,0.42161
4451.54417,0.42117
4449.61542,0.42060
4447.68668,0.42012
4445.75793,0.42014
4443.82919,0.42020
4441.90044,0.41945
4439.97170,0.41815
4438.04295,0.41711
4436.11421,0.41654
4434.18546,0.41628
4432.25672,0.41609
4430.32797,0.41588
4428.39923,0.41551
4426.47048,0.41474
4424.54173,0.41377
4422.61299,0.41320
4420.68424,0.41314
4418.75550,0.41300
4416.82675,0.41214
4414.89801,0.41084
4412.96926,0.40999
4411.04052,0.40974
4409.11177,0.40977
4407.18303,0.40983
4405.25428,0.40953
4403.32554,0.40899
4401.39679,0.40869
4399.46805,0.40842
4397.53930,0.40802
4395.61056,0.40789
4393.68181,0.40834
4391.75306,0.40897
4389.82432,0.40923
4387.89557,0.40937
4385.96683,0.40979
4384.03808,0.41028
4382.10934,0.41060
4380.18059,0.41067
4378.25185,0.41062
4376.32310,0.41079
4374.39436,0.41102
4372.46561,0.41094
4370.53687,0.41066
4368.60812,0.41050
4366.67938,0.41068
4364.75063,0.41097
4362.82189,0.41094
4360.89314,0.41066
4358.96439,0.41044
4357.03565,0.41031
4355.10690,0.41003
4353.17816,0.40955
4351.24941,0.40916
4349.32067,0.40913
4347.39192,0.40934
4345.46318,0.40958
4343.53443,0.40970
4341.60569,0.40958
4339.67694,0.40912
4337.74820,0.40862
4335.81945,0.40831
4333.89071,0.40795
4331.96196,0.40749
4330.03321,0.40719
4328.10447,0.40695
4326.17572,0.40660
4324.24698,0.40641
4322.31823,0.40641
4320.38949,0.40610
4318.46074,0.40551
4316.53200,0.40510
4314.60325,0.40477
4312.67451,0.40447
4310.74576,0.40439
4308.81702,0.40424
4306.88827,0.40389
4304.95953,0.40354
4303.03078,0.40303
4301.10204,0.40250
4299.17329,0.40227
4297.24454,0.40228
4295.31580,0.40220
4293.38705,0.40162
4291.45831,0.40062
4289.52956,0.39961
4287.60082,0.39887
4285.67207,0.39865
4283.74333,0.39872
4281.81458,0.39864
4279.88584,0.39843
4277.95709,0.39811
4276.02835,0.39780
4274.09960,0.39781
4272.17086,0.39788
4270.24211,0.39768
4268.31336,0.39734
4266.38462,0.39695
4264.45587,0.39641
4262.52713,0.39584
4260.59838,0.39545
4258.66964,0.39533
4256.74089,0.39524
4254.81215,0.39502
4252.88340,0.39493
4250.95466,0.39485
4249.02591,0.39432
4247.09717,0.39348
4245.16842,0.39299
4243.23968,0.39292
4241.31093,0.39285
4239.38219,0.39288
4237.45344,0.39335
4235.52469,0.39372
4233.59595,0.39342
4231.66720,0.39276
4229.73846,0.39229
4227.80971,0.39215
4225.88097,0.39219
4223.95222,0.39213
4222.02348,0.39178
4220.09473,0.39124
4218.16599,0.39088
4216.23724,0.39073
4214.30850,0.39054
4212.37975,0.39029
4210.45101,0.38998
4208.52226,0.38953
4206.59352,0.38911
4204.66477,0.38893
4202.73602,0.38896
4200.80728,0.38896
4198.87853,0.38876
4196.94979,0.38843
4195.02104,0.38799
4193.09230,0.38756
4191.16355,0.38749
4189.23481,0.38767
4187.30606,0.38772
4185.37732,0.38748
4183.44857,0.38688
4181.51983,0.38606
4179.59108,0.38560
4177.66234,0.38547
4175.73359,0.38505
4173.80484,0.38438
4171.87610,0.38400
4169.94735,0.38383
4168.01861,0.38358
4166.08986,0.38332
4164.16112,0.38310
4162.23237,0.38273
4160.30363,0.38224
4158.37488,0.38179
4156.44614,0.38135
4154.51739,0.38082
4152.58865,0.38019
4150.65990,0.37972
4148.73116,0.37954
4146.80241,0.37923
4144.87367,0.37849
4142.94492,0.37763
4141.01617,0.37713
4139.08743,0.37703
4137.15868,0.37689
4135.22994,0.37657
4133.30119,0.37614
4131.37245,0.37548
4129.44370,0.37457
4127.51496,0.37372
4125.58621,0.37313
4123.65747,0.37272
4121.72872,0.37218
4119.79998,0.37125
4117.87123,0.37002
4115.94249,0.36870
4114.01374,0.36752
4112.08500,0.36683
4110.15625,0.36649
4108.22750,0.36616
4106.29876,0.36581
4104.37001,0.36527
4102.44127,0.36421
4100.51252,0.36304
4098.58378,0.36232
4096.65503,0.36156
4094.72629,0.36040
4092.79754,0.35922
4090.86880,0.35826
4088.94005,0.35746
4087.01131,0.35677
4085.08256,0.35607
4083.15382,0.35508
4081.22507,0.35383
4079.29632,0.35261
4077.36758,0.35172
4075.43883,0.35119
4073.51009,0.35058
4071.58134,0.34959
4069.65260,0.34847
4067.72385,0.34732
4065.79511,0.34603
4063.86636,0.34494
4061.93762,0.34428
4060.00887,0.34366
4058.08013,0.34290
4056.15138,0.34208
4054.22264,0.34106
4052.29389,0.33992
4050.36515,0.33891
4048.43640,0.33807
4046.50765,0.33716
4044.57891,0.33596
4042.65016,0.33466
4040.72142,0.33374
4038.79267,0.33321
4036.86393,0.33259
4034.93518,0.33188
4033.00644,0.33134
4031.07769,0.33094
4029.14895,0.33057
4027.22020,0.33026
4025.29146,0.32998
4023.36271,0.32973
4021.43397,0.32959
4019.50522,0.32952
4017.57648,0.32959
4015.64773,0.32969
4013.71898,0.32966
4011.79024,0.32968
4009.86149,0.32968
4007.93275,0.32940
4006.00400,0.32895
4004.07526,0.32874
4002.14651,0.32885
4000.21777,0.32905
3998.28902,0.32934
3996.36028,0.32975
3994.43153,0.33004
3992.50279,0.33004
3990.57404,0.32986
3988.64530,0.32979
3986.71655,0.33007
3984.78780,0.33060
3982.85906,0.33097
3980.93031,0.33101
3979.00157,0.33100
3977.07282,0.33101
3975.14408,0.33097
3973.21533,0.33099
3971.28659,0.33104
3969.35784,0.33078
3967.42910,0.33033
3965.50035,0.33029
3963.57161,0.33052
3961.64286,0.33051
3959.71412,0.33045
3957.78537,0.33051
3955.85663,0.33068
3953.92788,0.33111
3951.99913,0.33160
3950.07039,0.33166
3948.14164,0.33138
3946.21290,0.33132
3944.28415,0.33159
3942.35541,0.33176
3940.42666,0.33158
3938.49792,0.33142
3936.56917,0.33159
3934.64043,0.33187
3932.71168,0.33196
3930.78294,0.33191
3928.85419,0.33194
3926.92545,0.33193
3924.99670,0.33176
3923.06795,0.33172
3921.13921,0.33198
3919.21046,0.33224
3917.28172,0.33238
3915.35297,0.33258
3913.42423,0.33286
3911.49548,0.33306
3909.56674,0.33299
3907.63799,0.33271
3905.70925,0.33235
3903.78050,0.33204
3901.85176,0.33192
3899.92301,0.33196
3897.99427,0.33211
3896.06552,0.33228
3894.13678,0.33244
3892.20803,0.33252
3890.27928,0.33238
3888.35054,0.33222
3886.42179,0.33235
3884.49305,0.33255
3882.56430,0.33237
3880.63556,0.33195
3878.70681,0.33158
3876.77807,0.33134
3874.84932,0.33129
3872.92058,0.33145
3870.99183,0.33172
3869.06309,0.33190
3867.13434,0.33192
3865.20560,0.33191
3863.27685,0.33180
3861.34811,0.33139
3859.41936,0.33084
3857.49061,0.33051
3855.56187,0.33055
3853.63312,0.33071
3851.70438,0.33065
3849.77563,0.33055
3847.84689,0.33039
3845.91814,0.33010
3843.98940,0.32995
3842.06065,0.33007
3840.13191,0.33000
3838.20316,0.32942
3836.27442,0.32879
3834.34567,0.32846
3832.41693,0.32813
3830.48818,0.32762
3828.55943,0.32713
3826.63069,0.32679
3824.70194,0.32641
3822.77320,0.32603
3820.84445,0.32594
3818.91571,0.32571
3816.98696,0.32499
3815.05822,0.32427
3813.12947,0.32386
3811.20073,0.32340
3809.27198,0.32260
3807.34324,0.32169
3805.41449,0.32103
3803.48575,0.32046
3801.55700,0.31985
3799.62826,0.31949
3797.69951,0.31920
3795.77076,0.31855
3793.84202,0.31763
3791.91327,0.31680
3789.98453,0.31611
3788.05578,0.31543
3786.12704,0.31475
3784.19829,0.31410
3782.26955,0.31333
3780.34080,0.31234
3778.41206,0.31138
3776.48331,0.31065
3774.55457,0.30994
3772.62582,0.30910
3770.69708,0.30812
3768.76833,0.30707
3766.83959,0.30609
3764.91084,0.30525
3762.98209,0.30428
3761.05335,0.30307
3759.12460,0.30177
3757.19586,0.30039
3755.26711,0.29890
3753.33837,0.29759
3751.40962,0.29673
3749.48088,0.29572
3747.55213,0.29405
3745.62339,0.29193
3743.69464,0.28982
3741.76590,0.28815
3739.83715,0.28664
3737.90841,0.28503
3735.97966,0.28294
3734.05091,0.28029
3732.12217,0.27793
3730.19342,0.27608
3728.26468,0.27400
3726.33593,0.27136
3724.40719,0.26849
3722.47844,0.26557
3720.54970,0.26273
3718.62095,0.25987
3716.69221,0.25653
3714.76346,0.25274
3712.83472,0.24860
3710.90597,0.24394
3708.97723,0.23909
3707.04848,0.23419
3705.11974,0.22894
3703.19099,0.22278
3701.26224,0.21583
3699.33350,0.20957
3697.40475,0.20471
3695.47601,0.20087
3693.54726,0.19767
3691.61852,0.19451
3689.68977,0.19086
3687.76103,0.18698
3685.83228,0.18325
3683.90354,0.17944
3681.97479,0.17528
3680.04605,0.17073
3678.11730,0.16607
3676.18856,0.16115
3674.25981,0.15605
3672.33107,0.15138
3670.40232,0.14658
3668.47357,0.14168
3666.54483,0.13754
3664.61608,0.13392
3662.68734,0.13050
3660.75859,0.12729
3658.82985,0.12430
3656.90110,0.12135
3654.97236,0.11856
3653.04361,0.11615
3651.11487,0.11386
3649.18612,0.11164
3647.25738,0.10942
3645.32863,0.10707
3643.39989,0.10499
3641.47114,0.10318
3639.54239,0.10128
3637.61365,0.09924
3635.68490,0.09711
3633.75616,0.09502
3631.82741,0.09317
3629.89867,0.09113
3627.96992,0.08854
3626.04118,0.08661
3624.11243,0.08558
3622.18369,0.08459
3620.25494,0.08313
3618.32620,0.08159
3616.39745,0.08060
3614.46871,0.07990
3612.53996,0.07895
3610.61122,0.07772
3608.68247,0.07638
3606.75372,0.07510
3604.82498,0.07410
3602.89623,0.07320
3600.96749,0.07221
3599.03874,0.07139
3597.11000,0.07069
3595.18125,0.06988
3593.25251,0.06909
3591.32376,0.06843
3589.39502,0.06780
3587.46627,0.06702
3585.53753,0.06611
3583.60878,0.06533
3581.68004,0.06474
3579.75129,0.06414
3577.82254,0.06338
3575.89380,0.06263
3573.96505,0.06207
3572.03631,0.06159
3570.10756,0.06112
3568.17882,0.06060
3566.25007,0.05999
3564.32133,0.05947
3562.39258,0.05910
3560.46384,0.05870
3558.53509,0.05820
3556.60635,0.05757
3554.67760,0.05686
3552.74886,0.05631
3550.82011,0.05603
3548.89137,0.05572
3546.96262,0.05527
3545.03387,0.05485
3543.10513,0.05442
3541.17638,0.05389
3539.24764,0.05340
3537.31889,0.05292
3535.39015,0.05236
3533.46140,0.05189
3531.53266,0.05149
3529.60391,0.05106
3527.67517,0.05062
3525.74642,0.05030
3523.81768,0.05015
3521.88893,0.04990
3519.96019,0.04950
3518.03144,0.04926
3516.10270,0.04917
3514.17395,0.04884
3512.24520,0.04814
3510.31646,0.04758
3508.38771,0.04755
3506.45897,0.04768
3504.53022,0.04741
3502.60148,0.04668
3500.67273,0.04603
3498.74399,0.04573
3496.81524,0.04584
3494.88650,0.04622
3492.95775,0.04632
3491.02901,0.04605
3489.10026,0.04578
3487.17152,0.04549
3485.24277,0.04506
3483.31402,0.04470
3481.38528,0.04448
3479.45653,0.04428
3477.52779,0.04411
3475.59904,0.04389
3473.67030,0.04369
3471.74155,0.04354
3469.81281,0.04331
3467.88406,0.04307
3465.95532,0.04287
3464.02657,0.04271
3462.09783,0.04259
3460.16908,0.04233
3458.24034,0.04207
3456.31159,0.04229
3454.38285,0.04280
3452.45410,0.04281
3450.52535,0.04225
3448.59661,0.04172
3446.66786,0.04158
3444.73912,0.04178
3442.81037,0.04189
3440.88163,0.04160
3438.95288,0.04135
3437.02414,0.04156
3435.09539,0.04174
3433.16665,0.04152
3431.23790,0.04138
3429.30916,0.04155
3427.38041,0.04162
3425.45167,0.04132
3423.52292,0.04093
3421.59418,0.04084
3419.66543,0.04099
3417.73668,0.04111
3415.80794,0.04106
3413.87919,0.04099
3411.95045,0.04099
3410.02170,0.04106
3408.09296,0.04111
3406.16421,0.04101
3404.23547,0.04087
3402.30672,0.04088
3400.37798,0.04110
3398.44923,0.04141
3396.52049,0.04152
3394.59174,0.04128
3392.66300,0.04102
3390.73425,0.04105
3388.80550,0.04102
3386.87676,0.04075
3384.94801,0.04071
3383.01927,0.04087
3381.09052,0.04103
3379.16178,0.04129
3377.23303,0.04153
3375.30429,0.04162
3373.37554,0.04156
3371.44680,0.04132
3369.51805,0.04120
3367.58931,0.04137
3365.66056,0.04147
3363.73182,0.04129
3361.80307,0.04115
3359.87433,0.04128
3357.94558,0.04146
3356.01683,0.04152
3354.08809,0.04136
3352.15934,0.04122
3350.23060,0.04145
3348.30185,0.04182
3346.37311,0.04214
3344.44436,0.04248
3342.51562,0.04263
3340.58687,0.04266
3338.65813,0.04300
3336.72938,0.04344
3334.80064,0.04354
3332.87189,0.04351
3330.94315,0.04377
3329.01440,0.04427
3327.08566,0.04471
3325.15691,0.04480
3323.22816,0.04470
3321.29942,0.04487
3319.37067,0.04503
3317.44193,0.04472
3315.51318,0.04453
3313.58444,0.04498
3311.65569,0.04545
3309.72695,0.04536
3307.79820,0.04507
3305.86946,0.04512
3303.94071,0.04535
3302.01197,0.04559
3300.08322,0.04584
3298.15448,0.04597
3296.22573,0.04593
3294.29698,0.04590
3292.36824,0.04601
3290.43949,0.04626
3288.51075,0.04653
3286.58200,0.04662
3284.65326,0.04673
3282.72451,0.04713
3280.79577,0.04758
3278.86702,0.04779
3276.93828,0.04783
3275.00953,0.04800
3273.08079,0.04852
3271.15204,0.04931
3269.22330,0.04984
3267.29455,0.04994
3265.36581,0.05009
3263.43706,0.05041
3261.50831,0.05058
3259.57957,0.05081
3257.65082,0.05119
3255.72208,0.05141
3253.79333,0.05161
3251.86459,0.05204
3249.93584,0.05244
3248.00710,0.05276
3246.07835,0.05309
3244.14961,0.05345
3242.22086,0.05403
3240.29212,0.05468
3238.36337,0.05504
3236.43463,0.05521
3234.50588,0.05545
3232.57713,0.05573
3230.64839,0.05605
3228.71964,0.05655
3226.79090,0.05685
3224.86215,0.05679
3222.93341,0.05705
3221.00466,0.05774
3219.07592,0.05832
3217.14717,0.05878
3215.21843,0.05916
3213.28968,0.05939
3211.36094,0.05954
3209.43219,0.05963
3207.50345,0.05982
3205.57470,0.06027
3203.64596,0.06068
3201.71721,0.06096
3199.78846,0.06136
3197.85972,0.06184
3195.93097,0.06225
3194.00223,0.06255
3192.07348,0.06268
3190.14474,0.06282
3188.21599,0.06320
3186.28725,0.06381
3184.35850,0.06432
3182.42976,0.06476
3180.50101,0.06547
3178.57227,0.06618
3176.64352,0.06636
3174.71478,0.06620
3172.78603,0.06619
3170.85729,0.06654
3168.92854,0.06718
3166.99979,0.06795
3165.07105,0.06864
3163.14230,0.06906
3161.21356,0.06941
3159.28481,0.06979
3157.35607,0.07011
3155.42732,0.07063
3153.49858,0.07133
3151.56983,0.07185
3149.64109,0.07217
3147.71234,0.07244
3145.78360,0.07273
3143.85485,0.07314
3141.92611,0.07366
3139.99736,0.07404
3138.06861,0.07421
3136.13987,0.07459
3134.21112,0.07536
3132.28238,0.07606
3130.35363,0.07648
3128.42489,0.07680
3126.49614,0.07708
3124.56740,0.07754
3122.63865,0.07828
3120.70991,0.07891
3118.78116,0.07927
3116.85242,0.07964
3114.92367,0.08015
3112.99493,0.08061
3111.06618,0.08094
3109.13744,0.08134
3107.20869,0.08185
3105.27994,0.08228
3103.35120,0.08249
3101.42245,0.08253
3099.49371,0.08269
3097.56496,0.08316
3095.63622,0.08388
3093.70747,0.08458
3091.77873,0.08509
3089.84998,0.08543
3087.92124,0.08562
3085.99249,0.08588
3084.06375,0.08650
3082.13500,0.08740
3080.20626,0.08825
3078.27751,0.08892
3076.34877,0.08929
3074.42002,0.08926
3072.49127,0.08916
3070.56253,0.08943
3068.63378,0.08993
3066.70504,0.09032
3064.77629,0.09056
3062.84755,0.09082
3060.91880,0.09118
3058.99006,0.09160
3057.06131,0.09213
3055.13257,0.09275
3053.20382,0.09331
3051.27508,0.09365
3049.34633,0.09395
3047.41759,0.09456
3045.48884,0.09533
3043.56009,0.09585
3041.63135,0.09608
3039.70260,0.09622
3037.77386,0.09628
3035.84511,0.09620
3033.91637,0.09610
3031.98762,0.09604
3030.05888,0.09585
3028.13013,0.09564
3026.20139,0.09582
3024.27264,0.09640
3022.34390,0.09709
3020.41515,0.09784
3018.48641,0.09871
3016.55766,0.09953
3014.62892,0.10001
3012.70017,0.10006
3010.77142,0.09989
3008.84268,0.09980
3006.91393,0.09981
3004.98519,0.09972
3003.05644,0.09942
3001.12770,0.09909
2999.19895,0.09895
2997.27021,0.09891
2995.34146,0.09889
2993.41272,0.09883
2991.48397,0.09862
2989.55523,0.09822
2987.62648,0.09764
2985.69774,0.09707
2983.76899,0.09661
2981.84025,0.09604
2979.91150,0.09515
2977.98275,0.09386
2976.05401,0.09228
2974.12526,0.09055
2972.19652,0.08880
2970.26777,0.08721
2968.33903,0.08604
2966.41028,0.08531
2964.48154,0.08466
2962.55279,0.08394
2960.62405,0.08341
2958.69530,0.08310
2956.76656,0.08262
2954.83781,0.08185
2952.90907,0.08108
2950.98032,0.08044
2949.05157,0.07982
2947.12283,0.07913
2945.19408,0.07860
2943.26534,0.07855
2941.33659,0.07882
2939.40785,0.07902
2937.47910,0.07897
2935.55036,0.07868
2933.62161,0.07832
2931.69287,0.07795
2929.76412,0.07759
2927.83538,0.07728
2925.90663,0.07709
2923.97789,0.07705
2922.04914,0.07687
2920.12040,0.07653
2918.19165,0.07628
2916.26290,0.07620
2914.33416,0.07615
2912.40541,0.07605
2910.47667,0.07589
2908.54792,0.07580
2906.61918,0.07588
2904.69043,0.07614
2902.76169,0.07647
2900.83294,0.07665
2898.90420,0.07684
2896.97545,0.07745
2895.04671,0.07839
2893.11796,0.07929
2891.18922,0.08003
2889.26047,0.08061
2887.33172,0.08104
2885.40298,0.08149
2883.47423,0.08224
2881.54549,0.08306
2879.61674,0.08352
2877.68800,0.08367
2875.75925,0.08387
2873.83051,0.08429
2871.90176,0.08480
2869.97302,0.08544
2868.04427,0.08626
2866.11553,0.08702
2864.18678,0.08769
2862.25804,0.08843
2860.32929,0.08911
2858.40055,0.08964
2856.47180,0.09043
2854.54305,0.09163
2852.61431,0.09294
2850.68556,0.09440
2848.75682,0.09616
2846.82807,0.09796
2844.89933,0.09959
2842.97058,0.10121
2841.04184,0.10301
2839.11309,0.10482
2837.18435,0.10646
2835.25560,0.10790
2833.32686,0.10907
2831.39811,0.11022
2829.46937,0.11155
2827.54062,0.11284
2825.61188,0.11405
2823.68313,0.11526
2821.75438,0.11652
2819.82564,0.11793
2817.89689,0.11919
2815.96815,0.12010
2814.03940,0.12093
2812.11066,0.12191
2810.18191,0.12299
2808.25317,0.12403
2806.32442,0.12500
2804.39568,0.12591
2802.46693,0.12680
2800.53819,0.12774
2798.60944,0.12859
2796.68070,0.12930
2794.75195,0.13012
2792.82320,0.13101
2790.89446,0.13162
2788.96571,0.13186
2787.03697,0.13203
2785.10822,0.13241
2783.17948,0.13289
2781.25073,0.13325
2779.32199,0.13366
2777.39324,0.13418
2775.46450,0.13469
2773.53575,0.13517
2771.60701,0.13559
2769.67826,0.13596
2767.74952,0.13631
2765.82077,0.13669
2763.89203,0.13709
2761.96328,0.13741
2760.03453,0.13771
2758.10579,0.13808
2756.17704,0.13845
2754.24830,0.13880
2752.31955,0.13919
2750.39081,0.13954
2748.46206,0.13980
2746.53332,0.14005
2744.60457,0.14030
2742.67583,0.14045
2740.74708,0.14062
2738.81834,0.14099
2736.88959,0.14149
2734.96085,0.14194
2733.03210,0.14225
2731.10336,0.14248
2729.17461,0.14278
2727.24586,0.14320
2725.31712,0.14364
2723.38837,0.14406
2721.45963,0.14458
2719.53088,0.14518
2717.60214,0.14574
2715.67339,0.14628
2713.74465,0.14688
2711.81590,0.14752
2709.88716,0.14820
2707.95841,0.14891
2706.02967,0.14967
2704.10092,0.15046
2702.17218,0.15118
2700.24343,0.15183
2698.31468,0.15250
2696.38594,0.15320
2694.45719,0.15387
2692.52845,0.15448
2690.59970,0.15510
2688.67096,0.15570
2686.74221,0.15617
2684.81347,0.15660
2682.88472,0.15721
2680.95598,0.15805
2679.02723,0.15899
2677.09849,0.15987
2675.16974,0.16055
2673.24100,0.16105
2671.31225,0.16147
2669.38351,0.16180
2667.45476,0.16204
2665.52601,0.16242
2663.59727,0.16306
2661.66852,0.16379
2659.73978,0.16428
2657.81103,0.16458
2655.88229,0.16511
2653.95354,0.16590
2652.02480,0.16659
2650.09605,0.16704
2648.16731,0.16740
2646.23856,0.16786
2644.30982,0.16842
2642.38107,0.16894
2640.45233,0.16945
2638.52358,0.17012
2636.59484,0.17089
2634.66609,0.17156
2632.73734,0.17210
2630.80860,0.17251
2628.87985,0.17280
2626.95111,0.17311
2625.02236,0.17358
2623.09362,0.17407
2621.16487,0.17440
2619.23613,0.17469
2617.30738,0.17519
2615.37864,0.17586
2613.44989,0.17645
2611.52115,0.17682
2609.59240,0.17706
2607.66366,0.17727
2605.73491,0.17750
2603.80616,0.17786
2601.87742,0.17842
2599.94867,0.17907
2598.01993,0.17953
2596.09118,0.17974
2594.16244,0.17986
2592.23369,0.18004
2590.30495,0.18034
2588.37620,0.18073
2586.44746,0.18103
2584.51871,0.18118
2582.58997,0.18138
2580.66122,0.18169
2578.73248,0.18199
2576.80373,0.18217
2574.87499,0.18224
2572.94624,0.18232
2571.01749,0.18249
2569.08875,0.18259
2567.16000,0.18256
2565.23126,0.18255
2563.30251,0.18267
2561.37377,0.18285
2559.44502,0.18297
2557.51628,0.18302
2555.58753,0.18321
2553.65879,0.18359
2551.73004,0.18389
2549.80130,0.18393
2547.87255,0.18382
2545.94381,0.18380
2544.01506,0.18383
2542.08631,0.18375
2540.15757,0.18363
2538.22882,0.18370
2536.30008,0.18407
2534.37133,0.18448
2532.44259,0.18462
2530.51384,0.18464
2528.58510,0.18482
2526.65635,0.18511
2524.72761,0.18544
2522.79886,0.18560
2520.87012,0.18551
2518.94137,0.18548
2517.01263,0.18565
2515.08388,0.18585
2513.15514,0.18610
2511.22639,0.18653
2509.29764,0.18716
2507.36890,0.18783
2505.44015,0.18839
2503.51141,0.18882
2501.58266,0.18931
2499.65392,0.18991
2497.72517,0.19050
2495.79643,0.19094
2493.86768,0.19125
2491.93894,0.19162
2490.01019,0.19216
2488.08145,0.19273
2486.15270,0.19316
2484.22396,0.19355
2482.29521,0.19408
2480.36647,0.19464
2478.43772,0.19510
2476.50897,0.19540
2474.58023,0.19562
2472.65148,0.19590
2470.72274,0.19618
2468.79399,0.19637
2466.86525,0.19650
2464.93650,0.19667
2463.00776,0.19686
2461.07901,0.19713
2459.15027,0.19745
2457.22152,0.19766
2455.29278,0.19773
2453.36403,0.19787
2451.43529,0.19816
2449.50654,0.19843
2447.57779,0.19860
2445.64905,0.19885
2443.72030,0.19929
2441.79156,0.19970
2439.86281,0.19993
2437.93407,0.20007
2436.00532,0.20022
2434.07658,0.20044
2432.14783,0.20078
2430.21909,0.20119
2428.29034,0.20155
2426.36160,0.20185
2424.43285,0.20213
2422.50411,0.20223
2420.57536,0.20212
2418.64662,0.20212
2416.71787,0.20238
2414.78912,0.20270
2412.86038,0.20293
2410.93163,0.20316
2409.00289,0.20328
2407.07414,0.20314
2405.14540,0.20293
2403.21665,0.20297
2401.28791,0.20326
2399.35916,0.20357
2397.43042,0.20371
2395.50167,0.20363
2393.57293,0.20345
2391.64418,0.20332
2389.71544,0.20324
2387.78669,0.20313
2385.85795,0.20303
2383.92920,0.20306
2382.00045,0.20318
2380.07171,0.20324
2378.14296,0.20317
2376.21422,0.20306
2374.28547,0.20301
2372.35673,0.20303
2370.42798,0.20320
2368.49924,0.20347
2366.57049,0.20347
2364.64175,0.20313
2362.71300,0.20285
2360.78426,0.20274
2358.85551,0.20252
2356.92677,0.20231
2354.99802,0.20241
2353.06927,0.20274
2351.14053,0.20285
2349.21178,0.20261
2347.28304,0.20230
2345.35429,0.20197
2343.42555,0.20172
2341.49680,0.20174
2339.56806,0.20186
2337.63931,0.20175
2335.71057,0.20138
2333.78182,0.20114
2331.85308,0.20125
2329.92433,0.20139
2327.99559,0.20134
2326.06684,0.20129
2324.13810,0.20126
2322.20935,0.20116
2320.28060,0.20114
2318.35186,0.20115
2316.42311,0.20100
2314.49437,0.20092
2312.56562,0.20108
2310.63688,0.20116
2308.70813,0.20095
2306.77939,0.20059
2304.85064,0.20022
2302.92190,0.19982
2300.99315,0.19944
2299.06441,0.19928
2297.13566,0.19915
2295.20692,0.19870
2293.27817,0.19815
2291.34943,0.19786
2289.42068,0.19772
2287.49193,0.19748
2285.56319,0.19713
2283.63444,0.19674
2281.70570,0.19629
2279.77695,0.19579
2277.84821,0.19522
2275.91946,0.19478
2273.99072,0.19452
2272.06197,0.19410
2270.13323,0.19337
2268.20448,0.19267
2266.27574,0.19220
2264.34699,0.19189
2262.41825,0.19161
2260.48950,0.19124
2258.56075,0.19077
2256.63201,0.19026
2254.70326,0.18979
2252.77452,0.18939
2250.84577,0.18913
2248.91703,0.18883
2246.98828,0.18827
2245.05954,0.18760
2243.13079,0.18700
2241.20205,0.18653
2239.27330,0.18629
2237.34456,0.18621
2235.41581,0.18605
2233.48707,0.18592
2231.55832,0.18605
2229.62958,0.18627
2227.70083,0.18638
2225.77208,0.18646
2223.84334,0.18665
2221.91459,0.18695
2219.98585,0.18734
2218.05710,0.18774
2216.12836,0.18809
2214.19961,0.18843
2212.27087,0.18878
2210.34212,0.18909
2208.41338,0.18925
2206.48463,0.18932
2204.55589,0.18941
2202.62714,0.18949
2200.69840,0.18953
2198.76965,0.18955
2196.84090,0.18956
2194.91216,0.18948
2192.98341,0.18936
2191.05467,0.18926
2189.12592,0.18907
2187.19718,0.18869
2185.26843,0.18823
2183.33969,0.18779
2181.41094,0.18733
2179.48220,0.18679
2177.55345,0.18618
2175.62471,0.18558
2173.69596,0.18505
2171.76722,0.18458
2169.83847,0.18421
2167.90973,0.18384
2165.98098,0.18335
2164.05223,0.18277
2162.12349,0.18223
2160.19474,0.18182
2158.26600,0.18144
2156.33725,0.18103
2154.40851,0.18070
2152.47976,0.18047
2150.55102,0.18010
2148.62227,0.17946
2146.69353,0.17878
2144.76478,0.17828
2142.83604,0.17792
2140.90729,0.17752
2138.97855,0.17708
2137.04980,0.17682
2135.12106,0.17680
2133.19231,0.17682
2131.26356,0.17683
2129.33482,0.17712
2127.40607,0.17765
2125.47733,0.17803
2123.54858,0.17819
2121.61984,0.17842
2119.69109,0.17882
2117.76235,0.17919
2115.83360,0.17934
2113.90486,0.17926
2111.97611,0.17917
2110.04737,0.17928
2108.11862,0.17945
2106.18988,0.17961
2104.26113,0.17980
2102.33238,0.17986
2100.40364,0.17979
2098.47489,0.17987
2096.54615,0.18001
2094.61740,0.17989
2092.68866,0.17952
2090.75991,0.17926
2088.83117,0.17926
2086.90242,0.17930
2084.97368,0.17921
2083.04493,0.17907
2081.11619,0.17894
2079.18744,0.17875
2077.25870,0.17846
2075.32995,0.17808
2073.40121,0.17764
2071.47246,0.17730
2069.54371,0.17708
2067.61497,0.17675
2065.68622,0.17627
2063.75748,0.17578
2061.82873,0.17526
2059.89999,0.17471
2057.97124,0.17420
2056.04250,0.17358
2054.11375,0.17277
2052.18501,0.17198
2050.25626,0.17114
2048.32752,0.17003
2046.39877,0.16869
2044.47003,0.16729
2042.54128,0.16580
2040.61254,0.16405
2038.68379,0.16200
2036.75504,0.15993
2034.82630,0.15816
2032.89755,0.15671
2030.96881,0.15561
2029.04006,0.15490
2027.11132,0.15449
2025.18257,0.15412
2023.25383,0.15365
2021.32508,0.15312
2019.39634,0.15245
2017.46759,0.15150
2015.53885,0.15025
2013.61010,0.14875
2011.68136,0.14711
2009.75261,0.14549
2007.82386,0.14409
2005.89512,0.14294
2003.96637,0.14205
2002.03763,0.14157
2000.10888,0.14134
1998.18014,0.14103
1996.25139,0.14075
1994.32265,0.14067
1992.39390,0.14072
1990.46516,0.14077
1988.53641,0.14086
1986.60767,0.14112
1984.67892,0.14142
1982.75018,0.14158
1980.82143,0.14170
1978.89269,0.14186
1976.96394,0.14187
1975.03519,0.14176
1973.10645,0.14188
1971.17770,0.14242
1969.24896,0.14314
1967.32021,0.14378
1965.39147,0.14441
1963.46272,0.14516
1961.53398,0.14588
1959.60523,0.14639
1957.67649,0.14666
1955.74774,0.14678
1953.81900,0.14684
1951.89025,0.14691
1949.96151,0.14694
1948.03276,0.14699
1946.10402,0.14708
1944.17527,0.14732
1942.24652,0.14772
1940.31778,0.14808
1938.38903,0.14838
1936.46029,0.14872
1934.53154,0.14899
1932.60280,0.14920
1930.67405,0.14952
1928.74531,0.14992
1926.81656,0.15012
1924.88782,0.14998
1922.95907,0.14958
1921.03033,0.14896
1919.10158,0.14800
1917.17284,0.14668
1915.24409,0.14514
1913.31534,0.14334
1911.38660,0.14120
1909.45785,0.13885
1907.52911,0.13653
1905.60036,0.13442
1903.67162,0.13242
1901.74287,0.13045
1899.81413,0.12859
1897.88538,0.12680
1895.95664,0.12507
1894.02789,0.12352
1892.09915,0.12225
1890.17040,0.12118
1888.24166,0.12024
1886.31291,0.11951
1884.38417,0.11890
1882.45542,0.11836
1880.52667,0.11786
1878.59793,0.11726
1876.66918,0.11660
1874.74044,0.11611
1872.81169,0.11578
1870.88295,0.11564
1868.95420,0.11575
1867.02546,0.11610
1865.09671,0.11693
1863.16797,0.11830
1861.23922,0.11996
1859.31048,0.12181
1857.38173,0.12399
1855.45299,0.12651
1853.52424,0.12924
1851.59549,0.13189
1849.66675,0.13434
1847.73800,0.13663
1845.80926,0.13876
1843.88051,0.14075
1841.95177,0.14225
1840.02302,0.14319
1838.09428,0.14384
1836.16553,0.14420
1834.23679,0.14418
1832.30804,0.14382
1830.37930,0.14310
1828.45055,0.14209
1826.52181,0.14097
1824.59306,0.13976
1822.66432,0.13861
1820.73557,0.13754
1818.80682,0.13632
1816.87808,0.13483
1814.94933,0.13325
1813.02059,0.13175
1811.09184,0.13030
1809.16310,0.12892
1807.23435,0.12760
1805.30561,0.12621
1803.37686,0.12491
1801.44812,0.12391
1799.51937,0.12308
1797.59063,0.12228
1795.66188,0.12164
1793.73314,0.12133
1791.80439,0.12131
1789.87565,0.12128
1787.94690,0.12116
1786.01815,0.12105
1784.08941,0.12103
1782.16066,0.12117
1780.23192,0.12150
1778.30317,0.12199
1776.37443,0.12261
1774.44568,0.12338
1772.51694,0.12434
1770.58819,0.12531
1768.65945,0.12620
1766.73070,0.12701
1764.80196,0.12751
1762.87321,0.12757
1760.94447,0.12738
1759.01572,0.12710
1757.08697,0.12645
1755.15823,0.12517
1753.22948,0.12318
1751.30074,0.12019
1749.37199,0.11608
1747.44325,0.11136
1745.51450,0.10618
1743.58576,0.10064
1741.65701,0.09511
1739.72827,0.08994
1737.79952,0.08575
1735.87078,0.08247
1733.94203,0.07952
1732.01329,0.07783
1730.08454,0.07764
1728.15580,0.07819
1726.22705,0.07936
1724.29830,0.08129
1722.36956,0.08379
1720.44081,0.08639
1718.51207,0.08880
1716.58332,0.09054
1714.65458,0.09140
1712.72583,0.09176
1710.79709,0.09172
1708.86834,0.09143
1706.93960,0.09099
1705.01085,0.09020
1703.08211,0.08925
1701.15336,0.08811
1699.22462,0.08663
1697.29587,0.08514
1695.36713,0.08336
1693.43838,0.08153
1691.50963,0.08014
1689.58089,0.07890
1687.65214,0.07774
1685.72340,0.07662
1683.79465,0.07521
1681.86591,0.07389
1679.93716,0.07291
1678.00842,0.07204
1676.07967,0.07111
1674.15093,0.07012
1672.22218,0.06926
1670.29344,0.06829
1668.36469,0.06708
1666.43595,0.06602
1664.50720,0.06507
1662.57845,0.06408
1660.64971,0.06317
1658.72096,0.06246
1656.79222,0.06204
1654.86347,0.06168
1652.93473,0.06083
1651.00598,0.05999
1649.07724,0.05946
1647.14849,0.05876
1645.21975,0.05813
1643.29100,0.05788
1641.36226,0.05771
1639.43351,0.05752
1637.50477,0.05729
1635.57602,0.05687
1633.64728,0.05650
1631.71853,0.05642
1629.78978,0.05633
1627.86104,0.05610
1625.93229,0.05597
1624.00355,0.05597
1622.07480,0.05593
1620.14606,0.05587
1618.21731,0.05582
1616.28857,0.05577
1614.35982,0.05574
1612.43108,0.05579
1610.50233,0.05594
1608.57359,0.05608
1606.64484,0.05593
1604.71610,0.05570
1602.78735,0.05588
1600.85861,0.05642
1598.92986,0.05686
1597.00111,0.05710
1595.07237,0.05741
1593.14362,0.05781
1591.21488,0.05816
1589.28613,0.05847
1587.35739,0.05864
1585.42864,0.05873
1583.49990,0.05885
1581.57115,0.05893
1579.64241,0.05894
1577.71366,0.05910
1575.78492,0.05960
1573.85617,0.06012
1571.92743,0.06041
1569.99868,0.06073
1568.06993,0.06116
1566.14119,0.06155
1564.21244,0.06193
1562.28370,0.06234
1560.35495,0.06266
1558.42621,0.06279
1556.49746,0.06276
1554.56872,0.06259
1552.63997,0.06228
1550.71123,0.06206
1548.78248,0.06196
1546.85374,0.06181
1544.92499,0.06159
1542.99625,0.06133
1541.06750,0.06104
1539.13876,0.06066
1537.21001,0.06027
1535.28126,0.05989
1533.35252,0.05929
1531.42377,0.05862
1529.49503,0.05822
1527.56628,0.05791
1525.63754,0.05755
1523.70879,0.05725
1521.78005,0.05684
1519.85130,0.05639
1517.92256,0.05609
1515.99381,0.05573
1514.06507,0.05524
1512.13632,0.05472
1510.20758,0.05422
1508.27883,0.05381
1506.35008,0.05328
1504.42134,0.05262
1502.49259,0.05220
1500.56385,0.05192
1498.63510,0.05139
1496.70636,0.05039
1494.77761,0.04949
1492.84887,0.04912
1490.92012,0.04887
1488.99138,0.04824
1487.06263,0.04728
1485.13389,0.04631
1483.20514,0.04561
1481.27640,0.04514
1479.34765,0.04473
1477.41891,0.04435
1475.49016,0.04399
1473.56141,0.04351
1471.63267,0.04279
1469.70392,0.04204
1467.77518,0.04143
1465.84643,0.04087
1463.91769,0.04033
1461.98894,0.03993
1460.06020,0.03965
1458.13145,0.03926
1456.20271,0.03872
1454.27396,0.03842
1452.34522,0.03836
1450.41647,0.03827
1448.48773,0.03803
1446.55898,0.03779
1444.63024,0.03774
1442.70149,0.03775
1440.77274,0.03754
1438.84400,0.03719
1436.91525,0.03686
1434.98651,0.03653
1433.05776,0.03628
1431.12902,0.03626
1429.20027,0.03646
1427.27153,0.03685
1425.34278,0.03745
1423.41404,0.03807
1421.48529,0.03850
1419.55655,0.03884
1417.62780,0.03921
1415.69906,0.03965
1413.77031,0.04011
1411.84156,0.04040
1409.91282,0.04037
1407.98407,0.04035
1406.05533,0.04055
1404.12658,0.04063
1402.19784,0.04046
1400.26909,0.04032
1398.34035,0.04033
1396.41160,0.04049
1394.48286,0.04076
1392.55411,0.04081
1390.62537,0.04046
1388.69662,0.03987
1386.76788,0.03927
1384.83913,0.03892
1382.91039,0.03873
1380.98164,0.03838
1379.05289,0.03797
1377.12415,0.03781
1375.19540,0.03788
1373.26666,0.03808
1371.33791,0.03848
1369.40917,0.03904
1367.48042,0.03961
1365.55168,0.04022
1363.62293,0.04086
1361.69419,0.04142
1359.76544,0.04196
1357.83670,0.04251
1355.90795,0.04304
1353.97921,0.04355
1352.05046,0.04400
1350.12172,0.04446
1348.19297,0.04497
1346.26422,0.04524
1344.33548,0.04505
1342.40673,0.04472
1340.47799,0.04456
1338.54924,0.04453
1336.62050,0.04459
1334.69175,0.04474
1332.76301,0.04507
1330.83426,0.04557
1328.90552,0.04600
1326.97677,0.04620
1325.04803,0.04619
1323.11928,0.04609
1321.19054,0.04601
1319.26179,0.04612
1317.33304,0.04651
1315.40430,0.04714
1313.47555,0.04810
1311.54681,0.04936
1309.61806,0.05075
1307.68932,0.05221
1305.76057,0.05369
1303.83183,0.05493
1301.90308,0.05574
1299.97434,0.05623
1298.04559,0.05660
1296.11685,0.05690
1294.18810,0.05702
1292.25936,0.05692
1290.33061,0.05665
1288.40187,0.05627
1286.47312,0.05576
1284.54437,0.05520
1282.61563,0.05495
1280.68688,0.05538
1278.75814,0.05625
1276.82939,0.05727
1274.90065,0.05837
1272.97190,0.05940
1271.04316,0.06031
1269.11441,0.06130
1267.18567,0.06244
1265.25692,0.06363
1263.32818,0.06481
1261.39943,0.06612
1259.47069,0.06763
1257.54194,0.06916
1255.61320,0.07067
1253.68445,0.07227
1251.75570,0.07377
1249.82696,0.07501
1247.89821,0.07632
1245.96947,0.07791
1244.04072,0.07953
1242.11198,0.08128
1240.18323,0.08338
1238.25449,0.08570
1236.32574,0.08819
1234.39700,0.09097
1232.46825,0.09402
1230.53951,0.09728
1228.61076,0.10050
1226.68202,0.10331
1224.75327,0.10545
1222.82452,0.10659
1220.89578,0.10675
1218.96703,0.10616
1217.03829,0.10494
1215.10954,0.10327
1213.18080,0.10123
1211.25205,0.09883
1209.32331,0.09634
1207.39456,0.09408
1205.46582,0.09215
1203.53707,0.09048
1201.60833,0.08912
1199.67958,0.08821
1197.75084,0.08755
1195.82209,0.08697
1193.89335,0.08654
1191.96460,0.08615
1190.03585,0.08579
1188.10711,0.08541
1186.17836,0.08475
1184.24962,0.08381
1182.32087,0.08295
1180.39213,0.08237
1178.46338,0.08176
1176.53464,0.08091
1174.60589,0.08016
1172.67715,0.07991
1170.74840,0.07989
1168.81966,0.07964
1166.89091,0.07896
1164.96217,0.07729
1163.03342,0.07396
1161.10467,0.06995
1159.17593,0.06763
1157.24718,0.06838
1155.31844,0.07145
1153.38969,0.07494
1151.46095,0.07771
1149.53220,0.07985
1147.60346,0.08158
1145.67471,0.08281
1143.74597,0.08370
1141.81722,0.08440
1139.88848,0.08476
1137.95973,0.08491
1136.03099,0.08530
1134.10224,0.08595
1132.17350,0.08647
1130.24475,0.08676
1128.31600,0.08724
1126.38726,0.08814
1124.45851,0.08918
1122.52977,0.09011
1120.60102,0.09077
1118.67228,0.09133
1116.74353,0.09227
1114.81479,0.09363
1112.88604,0.09498
1110.95730,0.09614
1109.02855,0.09726
1107.09981,0.09840
1105.17106,0.09938
1103.24232,0.10007
1101.31357,0.10045
1099.38483,0.10061
1097.45608,0.10092
1095.52733,0.10145
1093.59859,0.10174
1091.66984,0.10160
1089.74110,0.10145
1087.81235,0.10165
1085.88361,0.10216
1083.95486,0.10286
1082.02612,0.10365
1080.09737,0.10442
1078.16863,0.10504
1076.23988,0.10514
1074.31114,0.10440
1072.38239,0.10300
1070.45365,0.10118
1068.52490,0.09867
1066.59615,0.09531
1064.66741,0.09192
1062.73866,0.08904
1060.80992,0.08621
1058.88117,0.08335
1056.95243,0.08093
1055.02368,0.07880
1053.09494,0.07659
1051.16619,0.07443
1049.23745,0.07243
1047.30870,0.07051
1045.37996,0.06887
1043.45121,0.06790
1041.52247,0.06763
1039.59372,0.06765
1037.66498,0.06778
1035.73623,0.06807
1033.80748,0.06849
1031.87874,0.06876
1029.94999,0.06855
1028.02125,0.06797
1026.09250,0.06753
1024.16376,0.06735
1022.23501,0.06709
1020.30627,0.06665
1018.37752,0.06641
1016.44878,0.06656
1014.52003,0.06668
1012.59129,0.06634
1010.66254,0.06578
1008.73380,0.06553
1006.80505,0.06563
1004.87631,0.06556
1002.94756,0.06524
1001.01881,0.06521
999.09007,0.06552
997.16132,0.06590
995.23258,0.06642
993.30383,0.06713
991.37509,0.06768
989.44634,0.06785
987.51760,0.06802
985.58885,0.06868
983.66011,0.06965
981.73136,0.07057
979.80262,0.07142
977.87387,0.07211
975.94513,0.07256
974.01638,0.07277
972.08763,0.07278
970.15889,0.07286
968.23014,0.07310
966.30140,0.07329
964.37265,0.07323
962.44391,0.07315
960.51516,0.07344
958.58642,0.07384
956.65767,0.07397
954.72893,0.07391
952.80018,0.07390
950.87144,0.07397
948.94269,0.07409
947.01395,0.07423
945.08520,0.07432
943.15646,0.07430
941.22771,0.07412
939.29896,0.07395
937.37022,0.07396
935.44147,0.07392
933.51273,0.07369
931.58398,0.07354
929.65524,0.07366
927.72649,0.07389
925.79775,0.07389
923.86900,0.07367
921.94026,0.07343
920.01151,0.07297
918.08277,0.07220
916.15402,0.07138
914.22528,0.07061
912.29653,0.06998
910.36779,0.06962
908.43904,0.06930
906.51029,0.06870
904.58155,0.06785
902.65280,0.06709
900.72406,0.06654
898.79531,0.06603
896.86657,0.06566
894.93782,0.06571
893.00908,0.06616
891.08033,0.06673
889.15159,0.06725
887.22284,0.06775
885.29410,0.06811
883.36535,0.06825
881.43661,0.06856
879.50786,0.06896
877.57911,0.06901
875.65037,0.06889
873.72162,0.06902
871.79288,0.06931
869.86413,0.06949
867.93539,0.06965
866.00664,0.06980
864.07790,0.06973
862.14915,0.06939
860.22041,0.06892
858.29166,0.06879
856.36292,0.06917
854.43417,0.06939
852.50543,0.06902
850.57668,0.06837
848.64794,0.06783
846.71919,0.06754
844.79044,0.06736
842.86170,0.06717
840.93295,0.06691
839.00421,0.06652
837.07546,0.06601
835.14672,0.06507
833.21797,0.06355
831.28923,0.06232
829.36048,0.06181
827.43174,0.06129
825.50299,0.06025
823.57425,0.05876
821.64550,0.05725
819.71676,0.05599
817.78801,0.05482
815.85926,0.05374
813.93052,0.05317
812.00177,0.05349
810.07303,0.05492
808.14428,0.05729
806.21554,0.06014
804.28679,0.06283
802.35805,0.06478
800.42930,0.06578
798.50056,0.06592
796.57181,0.06527
794.64307,0.06412
792.71432,0.06318
790.78558,0.06323
788.85683,0.06449
786.92809,0.06640
784.99934,0.06816
783.07059,0.06946
781.14185,0.07013
779.21310,0.06992
777.28436,0.06889
775.35561,0.06758
773.42687,0.06644
771.49812,0.06550
769.56938,0.06466
767.64063,0.06393
765.71189,0.06359
763.78314,0.06377
761.85440,0.06391
759.92565,0.06357
757.99691,0.06291
756.06816,0.06223
754.13942,0.06162
752.21067,0.06117
750.28192,0.06100
748.35318,0.06084
746.42443,0.06043
744.49569,0.05993
742.56694,0.05936
740.63820,0.05861
738.70945,0.05793
736.78071,0.05751
734.85196,0.05687
732.92322,0.05574
730.99447,0.05453
729.06573,0.05365
727.13698,0.05292
725.20824,0.05208
723.27949,0.05138
721.35074,0.05112
719.42200,0.05081
717.49325,0.05002
715.56451,0.04881
713.63576,0.04749
711.70702,0.04647
709.77827,0.04598
707.84953,0.04538
705.92078,0.04407
703.99204,0.04273
702.06329,0.04192
700.13455,0.04137
698.20580,0.04133
696.27706,0.04209
694.34831,0.04314
692.41957,0.04407
690.49082,0.04462
688.56207,0.04468
686.63333,0.04482
684.70458,0.04522
682.77584,0.04555
680.84709,0.04553
678.91835,0.04476
676.98960,0.04373
675.06086,0.04362
673.13211,0.04455
671.20337,0.04565
669.27462,0.04636
667.34588,0.04641
665.41713,0.04610
663.48839,0.04596
661.55964,0.04582
659.63090,0.04544
657.70215,0.04498
655.77340,0.04479
653.84466,0.04485
651.91591,0.04471
649.98717,0.04434
648.05842,0.04385
646.12968,0.04359
644.20093,0.04364
642.27219,0.04348
640.34344,0.04316
638.41470,0.04269
636.48595,0.04188
634.55721,0.04145
632.62846,0.04164
630.69972,0.04156
628.77097,0.04062
626.84222,0.03916
624.91348,0.03861
622.98473,0.03953
621.05599,0.04035
619.12724,0.04018
617.19850,0.03985
615.26975,0.04012
613.34101,0.04105
611.41226,0.04205
609.48352,0.04219
607.55477,0.04170
605.62603,0.04153
603.69728,0.04165
601.76854,0.04192
599.83979,0.04240
