7497.03301,0.51009
7495.10426,0.51091
7493.17552,0.51421
7491.24677,0.51619
7489.31803,0.51657
7487.38928,0.51506
7485.46054,0.51277
7483.53179,0.51171
7481.60305,0.51211
7479.67430,0.51153
7477.74556,0.50777
7475.81681,0.50565
7473.88807,0.51057
7471.95932,0.51785
7470.03057,0.51819
7468.10183,0.51137
7466.17308,0.50722
7464.24434,0.50928
7462.31559,0.51058
7460.38685,0.50982
7458.45810,0.51149
7456.52936,0.51396
7454.60061,0.51404
7452.67187,0.51214
7450.74312,0.51016
7448.81438,0.51076
7446.88563,0.51318
7444.95689,0.51106
7443.02814,0.50287
7441.09940,0.49650
7439.17065,0.49724
7437.24190,0.50389
7435.31316,0.51092
7433.38441,0.51049
7431.45567,0.50419
7429.52692,0.50014
7427.59818,0.49896
7425.66943,0.49949
7423.74069,0.50268
7421.81194,0.50552
7419.88320,0.50557
7417.95445,0.50482
7416.02571,0.50378
7414.09696,0.50152
7412.16822,0.50039
7410.23947,0.50076
7408.31073,0.49953
7406.38198,0.49985
7404.45323,0.50551
7402.52449,0.50961
7400.59574,0.50668
7398.66700,0.50424
7396.73825,0.50723
7394.80951,0.50924
7392.88076,0.50735
7390.95202,0.50458
7389.02327,0.50223
7387.09453,0.50106
7385.16578,0.50097
7383.23704,0.50237
7381.30829,0.50546
7379.37955,0.50662
7377.45080,0.50647
7375.52205,0.50933
7373.59331,0.51239
7371.66456,0.51187
7369.73582,0.50982
7367.80707,0.50814
7365.87833,0.50601
7363.94958,0.50382
7362.02084,0.50444
7360.09209,0.50480
7358.16335,0.49979
7356.23460,0.49647
7354.30586,0.50217
7352.37711,0.50932
7350.44837,0.50884
7348.51962,0.50229
7346.59088,0.49707
7344.66213,0.49908
7342.73338,0.50480
7340.80464,0.50476
7338.87589,0.50153
7336.94715,0.50355
7335.01840,0.50675
7333.08966,0.50552
7331.16091,0.50181
7329.23217,0.49888
7327.30342,0.49833
7325.37468,0.49765
7323.44593,0.49380
7321.51719,0.49090
7319.58844,0.49425
7317.65970,0.50113
7315.73095,0.50607
7313.80221,0.50942
7311.87346,0.51364
7309.94471,0.51452
7308.01597,0.50908
7306.08722,0.50520
7304.15848,0.50693
7302.22973,0.50824
7300.30099,0.50666
7298.37224,0.50541
7296.44350,0.50601
7294.51475,0.50587
7292.58601,0.50271
7290.65726,0.49903
7288.72852,0.49767
7286.79977,0.49663
7284.87103,0.49393
7282.94228,0.49174
7281.01353,0.49214
7279.08479,0.49556
7277.15604,0.49941
7275.22730,0.50056
7273.29855,0.49992
7271.36981,0.49862
7269.44106,0.49890
7267.51232,0.50235
7265.58357,0.50421
7263.65483,0.50288
7261.72608,0.50343
7259.79734,0.50681
7257.86859,0.50781
7255.93985,0.50401
7254.01110,0.50033
7252.08236,0.50167
7250.15361,0.50472
7248.22486,0.50399
7246.29612,0.49971
7244.36737,0.49591
7242.43863,0.49744
7240.50988,0.50265
7238.58114,0.50388
7236.65239,0.50077
7234.72365,0.49852
7232.79490,0.50030
7230.86616,0.50464
7228.93741,0.50534
7227.00867,0.50102
7225.07992,0.49752
7223.15118,0.49874
7221.22243,0.50356
7219.29369,0.50819
7217.36494,0.50907
7215.43619,0.50653
7213.50745,0.50339
7211.57870,0.50164
7209.64996,0.50073
7207.72121,0.49752
7205.79247,0.49245
7203.86372,0.49099
7201.93498,0.49497
7200.00623,0.50057
7198.07749,0.50365
7196.14874,0.50192
7194.22000,0.49813
7192.29125,0.49864
7190.36251,0.50258
7188.43376,0.50151
7186.50501,0.49390
7184.57627,0.48821
7182.64752,0.49113
7180.71878,0.50021
7178.79003,0.50783
7176.86129,0.51006
7174.93254,0.50828
7173.00380,0.50408
7171.07505,0.49914
7169.14631,0.49631
7167.21756,0.49541
7165.28882,0.49259
7163.36007,0.48872
7161.43133,0.49015
7159.50258,0.49587
7157.57384,0.49777
7155.64509,0.49488
7153.71634,0.49281
7151.78760,0.49387
7149.85885,0.49510
7147.93011,0.49660
7146.00136,0.50039
7144.07262,0.50145
7142.14387,0.49705
7140.21513,0.49239
7138.28638,0.49006
7136.35764,0.48904
7134.42889,0.48879
7132.50015,0.48876
7130.57140,0.48853
7128.64266,0.48926
7126.71391,0.49150
7124.78516,0.49253
7122.85642,0.49004
7120.92767,0.48613
7118.99893,0.48629
7117.07018,0.49154
7115.14144,0.49564
7113.21269,0.49658
7111.28395,0.49687
7109.35520,0.49573
7107.42646,0.49348
7105.49771,0.49189
7103.56897,0.49066
7101.64022,0.48914
7099.71148,0.48662
7097.78273,0.48399
7095.85399,0.48369
7093.92524,0.48470
7091.99649,0.48561
7090.06775,0.48866
7088.13900,0.49335
7086.21026,0.49680
7084.28151,0.49940
7082.35277,0.49944
7080.42402,0.49420
7078.49528,0.48876
7076.56653,0.48722
7074.63779,0.48595
7072.70904,0.48503
7070.78030,0.48814
7068.85155,0.49102
7066.92281,0.48948
7064.99406,0.48907
7063.06532,0.49181
7061.13657,0.49107
7059.20782,0.48696
7057.27908,0.48664
7055.35033,0.48991
7053.42159,0.49066
7051.49284,0.48739
7049.56410,0.48257
7047.63535,0.47910
7045.70661,0.47877
7043.77786,0.48008
7041.84912,0.48115
7039.92037,0.48192
7037.99163,0.48136
7036.06288,0.47961
7034.13414,0.47994
7032.20539,0.48293
7030.27664,0.48390
7028.34790,0.48197
7026.41915,0.48174
7024.49041,0.48356
7022.56166,0.48538
7020.63292,0.48718
7018.70417,0.48740
7016.77543,0.48482
7014.84668,0.48224
7012.91794,0.48313
7010.98919,0.48645
7009.06045,0.48810
7007.13170,0.48643
7005.20296,0.48452
7003.27421,0.48488
7001.34547,0.48514
6999.41672,0.48381
6997.48797,0.48190
6995.55923,0.48035
6993.63048,0.48033
6991.70174,0.48079
6989.77299,0.48025
6987.84425,0.47995
6985.91550,0.48151
6983.98676,0.48381
6982.05801,0.48467
6980.12927,0.48458
6978.20052,0.48422
6976.27178,0.48299
6974.34303,0.48176
6972.41429,0.48070
6970.48554,0.47890
6968.55680,0.47870
6966.62805,0.48134
6964.69930,0.48341
6962.77056,0.48474
6960.84181,0.48673
6958.91307,0.48609
6956.98432,0.48109
6955.05558,0.47514
6953.12683,0.47133
6951.19809,0.47067
6949.26934,0.47279
6947.34060,0.47533
6945.41185,0.47735
6943.48311,0.48039
6941.55436,0.48377
6939.62562,0.48616
6937.69687,0.48716
6935.76812,0.48522
6933.83938,0.48136
6931.91063,0.47988
6929.98189,0.48089
6928.05314,0.48186
6926.12440,0.48336
6924.19565,0.48496
6922.26691,0.48442
6920.33816,0.48284
6918.40942,0.48307
6916.48067,0.48541
6914.55193,0.48669
6912.62318,0.48448
6910.69444,0.48102
6908.76569,0.47992
6906.83695,0.48216
6904.90820,0.48474
6902.97945,0.48358
6901.05071,0.48117
6899.12196,0.48213
6897.19322,0.48429
6895.26447,0.48501
6893.33573,0.48485
6891.40698,0.48317
6889.47824,0.48051
6887.54949,0.47867
6885.62075,0.47725
6883.69200,0.47667
6881.76326,0.47846
6879.83451,0.48173
6877.90577,0.48443
6875.97702,0.48531
6874.04828,0.48463
6872.11953,0.48327
6870.19078,0.48099
6868.26204,0.47853
6866.33329,0.47804
6864.40455,0.48024
6862.47580,0.48312
6860.54706,0.48368
6858.61831,0.48213
6856.68957,0.48192
6854.76082,0.48281
6852.83208,0.48178
6850.90333,0.48084
6848.97459,0.48199
6847.04584,0.48349
6845.11710,0.48565
6843.18835,0.48808
6841.25960,0.48857
6839.33086,0.48687
6837.40211,0.48408
6835.47337,0.48201
6833.54462,0.48133
6831.61588,0.48101
6829.68713,0.47996
6827.75839,0.47876
6825.82964,0.48007
6823.90090,0.48299
6821.97215,0.48443
6820.04341,0.48552
6818.11466,0.48592
6816.18592,0.48318
6814.25717,0.48065
6812.32843,0.48112
6810.39968,0.48209
6808.47093,0.48278
6806.54219,0.48312
6804.61344,0.48257
6802.68470,0.48322
6800.75595,0.48543
6798.82721,0.48627
6796.89846,0.48502
6794.96972,0.48443
6793.04097,0.48584
6791.11223,0.48700
6789.18348,0.48587
6787.25474,0.48331
6785.32599,0.48299
6783.39725,0.48650
6781.46850,0.48888
6779.53975,0.48658
6777.61101,0.48408
6775.68226,0.48488
6773.75352,0.48545
6771.82477,0.48399
6769.89603,0.48362
6767.96728,0.48479
6766.03854,0.48465
6764.10979,0.48260
6762.18105,0.48147
6760.25230,0.48249
6758.32356,0.48268
6756.39481,0.48184
6754.46607,0.48379
6752.53732,0.48746
6750.60858,0.48827
6748.67983,0.48608
6746.75108,0.48377
6744.82234,0.48254
6742.89359,0.48238
6740.96485,0.48322
6739.03610,0.48444
6737.10736,0.48559
6735.17861,0.48695
6733.24987,0.48820
6731.32112,0.48808
6729.39238,0.48608
6727.46363,0.48387
6725.53489,0.48349
6723.60614,0.48416
6721.67740,0.48389
6719.74865,0.48270
6717.81991,0.48200
6715.89116,0.48289
6713.96241,0.48489
6712.03367,0.48699
6710.10492,0.48861
6708.17618,0.48830
6706.24743,0.48612
6704.31869,0.48414
6702.38994,0.48259
6700.46120,0.48182
6698.53245,0.48302
6696.60371,0.48444
6694.67496,0.48463
6692.74622,0.48466
6690.81747,0.48396
6688.88873,0.48246
6686.95998,0.48268
6685.03123,0.48536
6683.10249,0.48756
6681.17374,0.48547
6679.24500,0.48060
6677.31625,0.47953
6675.38751,0.48404
6673.45876,0.48900
6671.53002,0.49027
6669.60127,0.48957
6667.67253,0.48970
6665.74378,0.48922
6663.81504,0.48696
6661.88629,0.48636
6659.95755,0.48929
6658.02880,0.49172
6656.10006,0.48973
6654.17131,0.48464
6652.24256,0.48079
6650.31382,0.48129
6648.38507,0.48514
6646.45633,0.48849
6644.52758,0.48918
6642.59884,0.48885
6640.67009,0.48791
6638.74135,0.48470
6636.81260,0.48167
6634.88386,0.48185
6632.95511,0.48353
6631.02637,0.48505
6629.09762,0.48579
6627.16888,0.48525
6625.24013,0.48596
6623.31139,0.48893
6621.38264,0.49014
6619.45389,0.48874
6617.52515,0.48866
6615.59640,0.48991
6613.66766,0.48919
6611.73891,0.48735
6609.81017,0.48742
6607.88142,0.48828
6605.95268,0.48731
6604.02393,0.48620
6602.09519,0.48700
6600.16644,0.48803
6598.23770,0.48817
6596.30895,0.48806
6594.38021,0.48762
6592.45146,0.48622
6590.52271,0.48444
6588.59397,0.48453
6586.66522,0.48645
6584.73648,0.48744
6582.80773,0.48750
6580.87899,0.48883
6578.95024,0.49036
6577.02150,0.48913
6575.09275,0.48700
6573.16401,0.48765
6571.23526,0.48931
6569.30652,0.48865
6567.37777,0.48761
6565.44903,0.48911
6563.52028,0.48994
6561.59154,0.48764
6559.66279,0.48607
6557.73404,0.48677
6555.80530,0.48764
6553.87655,0.48760
6551.94781,0.48707
6550.01906,0.48786
6548.09032,0.49035
6546.16157,0.49241
6544.23283,0.49314
6542.30408,0.49184
6540.37534,0.48880
6538.44659,0.48903
6536.51785,0.49341
6534.58910,0.49519
6532.66036,0.49273
6530.73161,0.48993
6528.80287,0.48747
6526.87412,0.48490
6524.94537,0.48427
6523.01663,0.48632
6521.08788,0.48780
6519.15914,0.48691
6517.23039,0.48597
6515.30165,0.48693
6513.37290,0.48907
6511.44416,0.49044
6509.51541,0.49073
6507.58667,0.49057
6505.65792,0.48894
6503.72918,0.48613
6501.80043,0.48466
6499.87169,0.48520
6497.94294,0.48629
6496.01419,0.48656
6494.08545,0.48644
6492.15670,0.48736
6490.22796,0.48875
6488.29921,0.48940
6486.37047,0.48937
6484.44172,0.48847
6482.51298,0.48727
6480.58423,0.48696
6478.65549,0.48732
6476.72674,0.48752
6474.79800,0.48691
6472.86925,0.48603
6470.94051,0.48640
6469.01176,0.48709
6467.08302,0.48666
6465.15427,0.48612
6463.22552,0.48654
6461.29678,0.48778
6459.36803,0.48856
6457.43929,0.48834
6455.51054,0.48846
6453.58180,0.48875
6451.65305,0.48805
6449.72431,0.48839
6447.79556,0.49091
6445.86682,0.49262
6443.93807,0.49219
6442.00933,0.49135
6440.08058,0.49131
6438.15184,0.49152
6436.22309,0.49099
6434.29434,0.49082
6432.36560,0.49118
6430.43685,0.49064
6428.50811,0.48955
6426.57936,0.48821
6424.65062,0.48647
6422.72187,0.48505
6420.79313,0.48488
6418.86438,0.48687
6416.93564,0.48943
6415.00689,0.48920
6413.07815,0.48683
6411.14940,0.48587
6409.22066,0.48694
6407.29191,0.48841
6405.36317,0.48875
6403.43442,0.48771
6401.50567,0.48664
6399.57693,0.48617
6397.64818,0.48686
6395.71944,0.48836
6393.79069,0.48870
6391.86195,0.48810
6389.93320,0.48736
6388.00446,0.48686
6386.07571,0.48784
6384.14697,0.48980
6382.21822,0.49051
6380.28948,0.48964
6378.36073,0.48934
6376.43199,0.48996
6374.50324,0.48961
6372.57450,0.48854
6370.64575,0.48789
6368.71700,0.48785
6366.78826,0.48865
6364.85951,0.48982
6362.93077,0.49024
6361.00202,0.48962
6359.07328,0.48861
6357.14453,0.48878
6355.21579,0.49007
6353.28704,0.48953
6351.35830,0.48750
6349.42955,0.48718
6347.50081,0.48859
6345.57206,0.48990
6343.64332,0.49000
6341.71457,0.48928
6339.78582,0.48842
6337.85708,0.48729
6335.92833,0.48672
6333.99959,0.48745
6332.07084,0.48873
6330.14210,0.49001
6328.21335,0.49075
6326.28461,0.49024
6324.35586,0.48944
6322.42712,0.48969
6320.49837,0.49025
6318.56963,0.49034
6316.64088,0.49035
6314.71214,0.49017
6312.78339,0.48976
6310.85465,0.48961
6308.92590,0.48976
6306.99715,0.49059
6305.06841,0.49160
6303.13966,0.49113
6301.21092,0.49049
6299.28217,0.49159
6297.35343,0.49213
6295.42468,0.49004
6293.49594,0.48706
6291.56719,0.48556
6289.63845,0.48585
6287.70970,0.48666
6285.78096,0.48718
6283.85221,0.48809
6281.92347,0.48964
6279.99472,0.49024
6278.06598,0.48915
6276.13723,0.48788
6274.20848,0.48741
6272.27974,0.48718
6270.35099,0.48734
6268.42225,0.48834
6266.49350,0.48886
6264.56476,0.48840
6262.63601,0.48847
6260.70727,0.48888
6258.77852,0.48820
6256.84978,0.48784
6254.92103,0.48836
6252.99229,0.48705
6251.06354,0.48510
6249.13480,0.48656
6247.20605,0.49035
6245.27730,0.49319
6243.34856,0.49444
6241.41981,0.49427
6239.49107,0.49339
6237.56232,0.49312
6235.63358,0.49342
6233.70483,0.49372
6231.77609,0.49370
6229.84734,0.49253
6227.91860,0.49043
6225.98985,0.48905
6224.06111,0.48970
6222.13236,0.49166
6220.20362,0.49250
6218.27487,0.49149
6216.34613,0.49028
6214.41738,0.49003
6212.48863,0.49046
6210.55989,0.49086
6208.63114,0.49039
6206.70240,0.48912
6204.77365,0.48829
6202.84491,0.48845
6200.91616,0.48972
6198.98742,0.49187
6197.05867,0.49378
6195.12993,0.49463
6193.20118,0.49433
6191.27244,0.49359
6189.34369,0.49353
6187.41495,0.49350
6185.48620,0.49240
6183.55746,0.49190
6181.62871,0.49288
6179.69996,0.49301
6177.77122,0.49168
6175.84247,0.49043
6173.91373,0.48977
6171.98498,0.48955
6170.05624,0.48982
6168.12749,0.49075
6166.19875,0.49188
6164.27000,0.49258
6162.34126,0.49286
6160.41251,0.49266
6158.48377,0.49207
6156.55502,0.49142
6154.62628,0.49089
6152.69753,0.49039
6150.76878,0.48983
6148.84004,0.48973
6146.91129,0.49028
6144.98255,0.49036
6143.05380,0.49008
6141.12506,0.49131
6139.19631,0.49330
6137.26757,0.49349
6135.33882,0.49249
6133.41008,0.49211
6131.48133,0.49194
6129.55259,0.49167
6127.62384,0.49230
6125.69510,0.49371
6123.76635,0.49419
6121.83761,0.49309
6119.90886,0.49169
6117.98011,0.49106
6116.05137,0.49045
6114.12262,0.48930
6112.19388,0.48950
6110.26513,0.49160
6108.33639,0.49291
6106.40764,0.49286
6104.47890,0.49293
6102.55015,0.49297
6100.62141,0.49238
6098.69266,0.49127
6096.76392,0.49066
6094.83517,0.49176
6092.90643,0.49318
6090.97768,0.49259
6089.04893,0.49091
6087.12019,0.48996
6085.19144,0.48972
6083.26270,0.49014
6081.33395,0.49109
6079.40521,0.49180
6077.47646,0.49196
6075.54772,0.49209
6073.61897,0.49253
6071.69023,0.49242
6069.76148,0.49163
6067.83274,0.49105
6065.90399,0.49083
6063.97525,0.49128
6062.04650,0.49267
6060.11776,0.49354
6058.18901,0.49228
6056.26026,0.49003
6054.33152,0.49007
6052.40277,0.49280
6050.47403,0.49438
6048.54528,0.49269
6046.61654,0.48997
6044.68779,0.48850
6042.75905,0.48892
6040.83030,0.49064
6038.90156,0.49231
6036.97281,0.49351
6035.04407,0.49401
6033.11532,0.49353
6031.18658,0.49304
6029.25783,0.49292
6027.32909,0.49296
6025.40034,0.49355
6023.47159,0.49386
6021.54285,0.49292
6019.61410,0.49149
6017.68536,0.49079
6015.75661,0.49101
6013.82787,0.49080
6011.89912,0.49047
6009.97038,0.49210
6008.04163,0.49455
6006.11289,0.49530
6004.18414,0.49446
6002.25540,0.49299
6000.32665,0.49177
5998.39791,0.49137
5996.46916,0.49094
5994.54041,0.49023
5992.61167,0.49024
5990.68292,0.49078
5988.75418,0.49118
5986.82543,0.49104
5984.89669,0.48978
5982.96794,0.48853
5981.03920,0.48859
5979.11045,0.48930
5977.18171,0.49016
5975.25296,0.49103
5973.32422,0.49062
5971.39547,0.48877
5969.46673,0.48778
5967.53798,0.48865
5965.60924,0.48988
5963.68049,0.49038
5961.75174,0.49013
5959.82300,0.48961
5957.89425,0.48956
5955.96551,0.49024
5954.03676,0.49103
5952.10802,0.49123
5950.17927,0.49060
5948.25053,0.48949
5946.32178,0.48890
5944.39304,0.48907
5942.46429,0.48980
5940.53555,0.49027
5938.60680,0.48970
5936.67806,0.48963
5934.74931,0.49078
5932.82057,0.49178
5930.89182,0.49212
5928.96307,0.49143
5927.03433,0.48966
5925.10558,0.48845
5923.17684,0.48847
5921.24809,0.48836
5919.31935,0.48792
5917.39060,0.48851
5915.46186,0.49067
5913.53311,0.49291
5911.60437,0.49312
5909.67562,0.49215
5907.74688,0.49189
5905.81813,0.49160
5903.88939,0.49081
5901.96064,0.49029
5900.03189,0.48985
5898.10315,0.48918
5896.17440,0.48843
5894.24566,0.48839
5892.31691,0.48919
5890.38817,0.48944
5888.45942,0.48926
5886.53068,0.48996
5884.60193,0.49136
5882.67319,0.49257
5880.74444,0.49264
5878.81570,0.49139
5876.88695,0.48996
5874.95821,0.48936
5873.02946,0.48950
5871.10072,0.49004
5869.17197,0.49006
5867.24322,0.48833
5865.31448,0.48673
5863.38573,0.48753
5861.45699,0.48902
5859.52824,0.48966
5857.59950,0.49022
5855.67075,0.49085
5853.74201,0.49075
5851.81326,0.48950
5849.88452,0.48780
5847.95577,0.48730
5846.02703,0.48844
5844.09828,0.48961
5842.16954,0.49015
5840.24079,0.49106
5838.31205,0.49176
5836.38330,0.49100
5834.45455,0.48985
5832.52581,0.48930
5830.59706,0.48882
5828.66832,0.48810
5826.73957,0.48724
5824.81083,0.48644
5822.88208,0.48569
5820.95334,0.48524
5819.02459,0.48602
5817.09585,0.48735
5815.16710,0.48768
5813.23836,0.48800
5811.30961,0.48910
5809.38087,0.48932
5807.45212,0.48817
5805.52337,0.48757
5803.59463,0.48828
5801.66588,0.48897
5799.73714,0.48844
5797.80839,0.48726
5795.87965,0.48661
5793.95090,0.48687
5792.02216,0.48720
5790.09341,0.48660
5788.16467,0.48614
5786.23592,0.48752
5784.30718,0.48955
5782.37843,0.48994
5780.44969,0.48904
5778.52094,0.48808
5776.59220,0.48713
5774.66345,0.48626
5772.73470,0.48594
5770.80596,0.48663
5768.87721,0.48731
5766.94847,0.48697
5765.01972,0.48685
5763.09098,0.48696
5761.16223,0.48637
5759.23349,0.48606
5757.30474,0.48672
5755.37600,0.48778
5753.44725,0.48838
5751.51851,0.48783
5749.58976,0.48681
5747.66102,0.48658
5745.73227,0.48728
5743.80352,0.48798
5741.87478,0.48788
5739.94603,0.48722
5738.01729,0.48652
5736.08854,0.48616
5734.15980,0.48668
5732.23105,0.48762
5730.30231,0.48770
5728.37356,0.48711
5726.44482,0.48676
5724.51607,0.48655
5722.58733,0.48643
5720.65858,0.48671
5718.72984,0.48705
5716.80109,0.48697
5714.87235,0.48642
5712.94360,0.48613
5711.01485,0.48652
5709.08611,0.48626
5707.15736,0.48503
5705.22862,0.48463
5703.29987,0.48538
5701.37113,0.48638
5699.44238,0.48722
5697.51364,0.48742
5695.58489,0.48679
5693.65615,0.48614
5691.72740,0.48663
5689.79866,0.48778
5687.86991,0.48799
5685.94117,0.48725
5684.01242,0.48653
5682.08368,0.48570
5680.15493,0.48463
5678.22618,0.48425
5676.29744,0.48447
5674.36869,0.48423
5672.43995,0.48372
5670.51120,0.48364
5668.58246,0.48417
5666.65371,0.48488
5664.72497,0.48501
5662.79622,0.48442
5660.86748,0.48344
5658.93873,0.48270
5657.00999,0.48265
5655.08124,0.48279
5653.15250,0.48295
5651.22375,0.48299
5649.29500,0.48233
5647.36626,0.48222
5645.43751,0.48404
5643.50877,0.48627
5641.58002,0.48744
5639.65128,0.48797
5637.72253,0.48779
5635.79379,0.48623
5633.86504,0.48390
5631.93630,0.48234
5630.00755,0.48239
5628.07881,0.48347
5626.15006,0.48431
5624.22132,0.48446
5622.29257,0.48417
5620.36383,0.48359
5618.43508,0.48327
5616.50633,0.48344
5614.57759,0.48367
5612.64884,0.48436
5610.72010,0.48603
5608.79135,0.48742
5606.86261,0.48734
5604.93386,0.48668
5603.00512,0.48618
5601.07637,0.48550
5599.14763,0.48493
5597.21888,0.48448
5595.29014,0.48332
5593.36139,0.48233
5591.43265,0.48273
5589.50390,0.48332
5587.57516,0.48321
5585.64641,0.48311
5583.71766,0.48287
5581.78892,0.48232
5579.86017,0.48222
5577.93143,0.48302
5576.00268,0.48418
5574.07394,0.48435
5572.14519,0.48324
5570.21645,0.48261
5568.28770,0.48353
5566.35896,0.48500
5564.43021,0.48591
5562.50147,0.48595
5560.57272,0.48528
5558.64398,0.48457
5556.71523,0.48379
5554.78648,0.48247
5552.85774,0.48169
5550.92899,0.48226
5549.00025,0.48302
5547.07150,0.48339
5545.14276,0.48374
5543.21401,0.48348
5541.28527,0.48258
5539.35652,0.48218
5537.42778,0.48212
5535.49903,0.48172
5533.57029,0.48156
5531.64154,0.48219
5529.71280,0.48314
5527.78405,0.48354
5525.85531,0.48344
5523.92656,0.48347
5521.99781,0.48339
5520.06907,0.48310
5518.14032,0.48306
5516.21158,0.48356
5514.28283,0.48444
5512.35409,0.48465
5510.42534,0.48317
5508.49660,0.48088
5506.56785,0.47988
5504.63911,0.48067
5502.71036,0.48163
5500.78162,0.48183
5498.85287,0.48187
5496.92413,0.48190
5494.99538,0.48184
5493.06664,0.48197
5491.13789,0.48214
5489.20914,0.48241
5487.28040,0.48307
5485.35165,0.48368
5483.42291,0.48350
5481.49416,0.48230
5479.56542,0.48069
5477.63667,0.47955
5475.70793,0.47938
5473.77918,0.47991
5471.85044,0.48054
5469.92169,0.48088
5467.99295,0.48102
5466.06420,0.48198
5464.13546,0.48340
5462.20671,0.48267
5460.27796,0.48009
5458.34922,0.47896
5456.42047,0.47988
5454.49173,0.48127
5452.56298,0.48209
5450.63424,0.48196
5448.70549,0.48135
5446.77675,0.48060
5444.84800,0.47979
5442.91926,0.47969
5440.99051,0.48027
5439.06177,0.48063
5437.13302,0.48055
5435.20428,0.48067
5433.27553,0.48139
5431.34679,0.48178
5429.41804,0.48151
5427.48929,0.48150
5425.56055,0.48156
5423.63180,0.48149
5421.70306,0.48161
5419.77431,0.48119
5417.84557,0.48025
5415.91682,0.48013
5413.98808,0.48081
5412.05933,0.48123
5410.13059,0.48136
5408.20184,0.48179
5406.27310,0.48196
5404.34435,0.48129
5402.41561,0.48032
5400.48686,0.47941
5398.55811,0.47883
5396.62937,0.47912
5394.70062,0.48015
5392.77188,0.48105
5390.84313,0.48115
5388.91439,0.48083
5386.98564,0.48089
5385.05690,0.48099
5383.12815,0.48064
5381.19941,0.48034
5379.27066,0.48022
5377.34192,0.48007
5375.41317,0.47989
5373.48443,0.47971
5371.55568,0.47970
5369.62694,0.47952
5367.69819,0.47923
5365.76944,0.47953
5363.84070,0.47985
5361.91195,0.47969
5359.98321,0.47933
5358.05446,0.47871
5356.12572,0.47824
5354.19697,0.47833
5352.26823,0.47858
5350.33948,0.47842
5348.41074,0.47777
5346.48199,0.47704
5344.55325,0.47636
5342.62450,0.47587
5340.69576,0.47585
5338.76701,0.47610
5336.83827,0.47630
5334.90952,0.47614
5332.98077,0.47544
5331.05203,0.47478
5329.12328,0.47466
5327.19454,0.47471
5325.26579,0.47502
5323.33705,0.47519
5321.40830,0.47412
5319.47956,0.47260
5317.55081,0.47194
5315.62207,0.47180
5313.69332,0.47145
5311.76458,0.47055
5309.83583,0.46960
5307.90709,0.46938
5305.97834,0.46942
5304.04959,0.46876
5302.12085,0.46779
5300.19210,0.46721
5298.26336,0.46677
5296.33461,0.46636
5294.40587,0.46596
5292.47712,0.46530
5290.54838,0.46432
5288.61963,0.46317
5286.69089,0.46233
5284.76214,0.46179
5282.83340,0.46067
5280.90465,0.45904
5278.97591,0.45802
5277.04716,0.45771
5275.11842,0.45703
5273.18967,0.45553
5271.26092,0.45386
5269.33218,0.45262
5267.40343,0.45149
5265.47469,0.45005
5263.54594,0.44855
5261.61720,0.44733
5259.68845,0.44604
5257.75971,0.44426
5255.83096,0.44213
5253.90222,0.44030
5251.97347,0.43879
5250.04473,0.43702
5248.11598,0.43534
5246.18724,0.43429
5244.25849,0.43324
5242.32975,0.43154
5240.40100,0.42945
5238.47225,0.42772
5236.54351,0.42638
5234.61476,0.42497
5232.68602,0.42373
5230.75727,0.42286
5228.82853,0.42191
5226.89978,0.42072
5224.97104,0.41957
5223.04229,0.41840
5221.11355,0.41688
5219.18480,0.41517
5217.25606,0.41388
5215.32731,0.41296
5213.39857,0.41192
5211.46982,0.41059
5209.54107,0.40922
5207.61233,0.40829
5205.68358,0.40754
5203.75484,0.40681
5201.82609,0.40667
5199.89735,0.40692
5197.96860,0.40680
5196.03986,0.40640
5194.11111,0.40639
5192.18237,0.40671
5190.25362,0.40673
5188.32488,0.40628
5186.39613,0.40570
5184.46739,0.40557
5182.53864,0.40603
5180.60990,0.40657
5178.68115,0.40696
5176.75240,0.40707
5174.82366,0.40697
5172.89491,0.40760
5170.96617,0.40903
5169.03742,0.40997
5167.10868,0.41012
5165.17993,0.41016
5163.25119,0.41052
5161.32244,0.41135
5159.39370,0.41214
5157.46495,0.41245
5155.53621,0.41267
5153.60746,0.41285
5151.67872,0.41321
5149.74997,0.41423
5147.82123,0.41533
5145.89248,0.41619
5143.96373,0.41700
5142.03499,0.41771
5140.10624,0.41807
5138.17750,0.41798
5136.24875,0.41810
5134.32001,0.41867
5132.39126,0.41904
5130.46252,0.41930
5128.53377,0.42005
5126.60503,0.42126
5124.67628,0.42226
5122.74754,0.42263
5120.81879,0.42269
5118.89005,0.42288
5116.96130,0.42311
5115.03255,0.42348
5113.10381,0.42438
5111.17506,0.42537
5109.24632,0.42587
5107.31757,0.42633
5105.38883,0.42696
5103.46008,0.42729
5101.53134,0.42724
5099.60259,0.42737
5097.67385,0.42820
5095.74510,0.42926
5093.81636,0.43009
5091.88761,0.43058
5089.95887,0.43061
5088.03012,0.43057
5086.10138,0.43084
5084.17263,0.43118
5082.24388,0.43177
5080.31514,0.43254
5078.38639,0.43290
5076.45765,0.43310
5074.52890,0.43361
5072.60016,0.43407
5070.67141,0.43426
5068.74267,0.43460
5066.81392,0.43519
5064.88518,0.43563
5062.95643,0.43580
5061.02769,0.43596
5059.09894,0.43620
5057.17020,0.43640
5055.24145,0.43664
5053.31270,0.43704
5051.38396,0.43752
5049.45521,0.43774
5047.52647,0.43776
5045.59772,0.43806
5043.66898,0.43878
5041.74023,0.43971
5039.81149,0.44029
5037.88274,0.44012
5035.95400,0.43975
5034.02525,0.43995
5032.09651,0.44088
5030.16776,0.44179
5028.23902,0.44193
5026.31027,0.44173
5024.38153,0.44149
5022.45278,0.44125
5020.52403,0.44196
5018.59529,0.44341
5016.66654,0.44418
5014.73780,0.44426
5012.80905,0.44388
5010.88031,0.44292
5008.95156,0.44251
5007.02282,0.44347
5005.09407,0.44485
5003.16533,0.44555
5001.23658,0.44534
4999.30784,0.44475
4997.37909,0.44458
4995.45035,0.44484
4993.52160,0.44490
4991.59286,0.44486
4989.66411,0.44514
4987.73536,0.44552
4985.80662,0.44564
4983.87787,0.44539
4981.94913,0.44528
4980.02038,0.44605
4978.09164,0.44690
4976.16289,0.44666
4974.23415,0.44616
4972.30540,0.44633
4970.37666,0.44689
4968.44791,0.44752
4966.51917,0.44798
4964.59042,0.44813
4962.66168,0.44826
4960.73293,0.44857
4958.80418,0.44855
4956.87544,0.44800
4954.94669,0.44764
4953.01795,0.44748
4951.08920,0.44713
4949.16046,0.44692
4947.23171,0.44693
4945.30297,0.44705
4943.37422,0.44713
4941.44548,0.44676
4939.51673,0.44648
4937.58799,0.44679
4935.65924,0.44715
4933.73050,0.44726
4931.80175,0.44714
4929.87301,0.44692
4927.94426,0.44708
4926.01551,0.44740
4924.08677,0.44706
4922.15802,0.44611
4920.22928,0.44544
4918.30053,0.44553
4916.37179,0.44588
4914.44304,0.44585
4912.51430,0.44573
4910.58555,0.44587
4908.65681,0.44575
4906.72806,0.44527
4904.79932,0.44531
4902.87057,0.44562
4900.94183,0.44525
4899.01308,0.44484
4897.08434,0.44511
4895.15559,0.44530
4893.22684,0.44495
4891.29810,0.44437
4889.36935,0.44364
4887.44061,0.44295
4885.51186,0.44250
4883.58312,0.44222
4881.65437,0.44205
4879.72563,0.44189
4877.79688,0.44189
4875.86814,0.44198
4873.93939,0.44152
4872.01065,0.44089
4870.08190,0.44086
4868.15316,0.44085
4866.22441,0.44036
4864.29566,0.44010
4862.36692,0.44044
4860.43817,0.44083
4858.50943,0.44081
4856.58068,0.44052
4854.65194,0.44010
4852.72319,0.43939
4850.79445,0.43881
4848.86570,0.43884
4846.93696,0.43893
4845.00821,0.43890
4843.07947,0.43913
4841.15072,0.43913
4839.22198,0.43838
4837.29323,0.43728
4835.36449,0.43644
4833.43574,0.43614
4831.50699,0.43630
4829.57825,0.43650
4827.64950,0.43616
4825.72076,0.43543
4823.79201,0.43495
4821.86327,0.43496
4819.93452,0.43502
4818.00578,0.43477
4816.07703,0.43464
4814.14829,0.43493
4812.21954,0.43490
4810.29080,0.43423
4808.36205,0.43373
4806.43331,0.43359
4804.50456,0.43319
4802.57582,0.43224
4800.64707,0.43121
4798.71832,0.43093
4796.78958,0.43171
4794.86083,0.43280
4792.93209,0.43309
4791.00334,0.43262
4789.07460,0.43242
4787.14585,0.43269
4785.21711,0.43285
4783.28836,0.43283
4781.35962,0.43279
4779.43087,0.43266
4777.50213,0.43262
4775.57338,0.43261
4773.64464,0.43202
4771.71589,0.43112
4769.78714,0.43081
4767.85840,0.43101
4765.92965,0.43111
4764.00091,0.43103
4762.07216,0.43084
4760.14342,0.43061
4758.21467,0.43049
4756.28593,0.43046
4754.35718,0.43057
4752.42844,0.43069
4750.49969,0.43060
4748.57095,0.43059
4746.64220,0.43062
4744.71346,0.43045
4742.78471,0.43049
4740.85597,0.43096
4738.92722,0.43160
4736.99847,0.43211
4735.06973,0.43231
4733.14098,0.43241
4731.21224,0.43269
4729.28349,0.43296
4727.35475,0.43313
4725.42600,0.43349
4723.49726,0.43374
4721.56851,0.43333
4719.63977,0.43265
4717.71102,0.43240
4715.78228,0.43255
4713.85353,0.43278
4711.92479,0.43303
4709.99604,0.43346
4708.06729,0.43408
4706.13855,0.43479
4704.20980,0.43525
4702.28106,0.43563
4700.35231,0.43613
4698.42357,0.43595
4696.49482,0.43498
4694.56608,0.43454
4692.63733,0.43506
4690.70859,0.43567
4688.77984,0.43584
4686.85110,0.43567
4684.92235,0.43544
4682.99361,0.43533
4681.06486,0.43556
4679.13612,0.43627
4677.20737,0.43667
4675.27862,0.43618
4673.34988,0.43567
4671.42113,0.43548
4669.49239,0.43515
4667.56364,0.43487
4665.63490,0.43506
4663.70615,0.43563
4661.77741,0.43624
4659.84866,0.43645
4657.91992,0.43627
4655.99117,0.43653
4654.06243,0.43721
4652.13368,0.43728
4650.20494,0.43685
4648.27619,0.43676
4646.34745,0.43717
4644.41870,0.43768
4642.48995,0.43774
4640.56121,0.43738
4638.63246,0.43719
4636.70372,0.43747
4634.77497,0.43780
4632.84623,0.43758
4630.91748,0.43703
4628.98874,0.43696
4627.05999,0.43747
4625.13125,0.43804
4623.20250,0.43827
4621.27376,0.43807
4619.34501,0.43778
4617.41627,0.43768
4615.48752,0.43756
4613.55877,0.43722
4611.63003,0.43702
4609.70128,0.43707
4607.77254,0.43705
4605.84379,0.43699
4603.91505,0.43709
4601.98630,0.43715
4600.05756,0.43695
4598.12881,0.43675
4596.20007,0.43689
4594.27132,0.43717
4592.34258,0.43721
4590.41383,0.43693
4588.48509,0.43668
4586.55634,0.43686
4584.62760,0.43710
4582.69885,0.43693
4580.77010,0.43671
4578.84136,0.43657
4576.91261,0.43640
4574.98387,0.43653
4573.05512,0.43663
4571.12638,0.43625
4569.19763,0.43584
4567.26889,0.43558
4565.34014,0.43524
4563.41140,0.43496
4561.48265,0.43488
4559.55391,0.43502
4557.62516,0.43514
4555.69642,0.43512
4553.76767,0.43508
4551.83893,0.43490
4549.91018,0.43479
4547.98143,0.43516
4546.05269,0.43568
4544.12394,0.43568
4542.19520,0.43493
4540.26645,0.43380
4538.33771,0.43299
4536.40896,0.43280
4534.48022,0.43297
4532.55147,0.43337
4530.62273,0.43365
4528.69398,0.43323
4526.76524,0.43233
4524.83649,0.43192
4522.90775,0.43226
4520.97900,0.43277
4519.05025,0.43290
4517.12151,0.43259
4515.19276,0.43220
4513.26402,0.43183
4511.33527,0.43113
4509.40653,0.43048
4507.47778,0.43062
4505.54904,0.43104
4503.62029,0.43087
4501.69155,0.43038
4499.76280,0.42997
4497.83406,0.42979
4495.90531,0.42992
4493.97657,0.43006
4492.04782,0.42988
4490.11908,0.42957
4488.19033,0.42949
4486.26158,0.42953
4484.33284,0.42936
4482.40409,0.42892
4480.47535,0.42815
4478.54660,0.42719
4476.61786,0.42661
4474.68911,0.42643
4472.76037,0.42609
4470.83162,0.42551
4468.90288,0.42524
4466.97413,0.42525
4465.04539,0.42492
4463.11664,0.42424
4461.18790,0.42361
4459.25915,0.42292
4457.33041,0.42212
4455.40166,0.42163
4453.47291,0.42141
4451.54417,0.42101
4449.61542,0.42034
4447.68668,0.41954
4445.75793,0.41880
4443.82919,0.41837
4441.90044,0.41823
4439.97170,0.41801
4438.04295,0.41739
4436.11421,0.41663
4434.18546,0.41599
4432.25672,0.41545
4430.32797,0.41496
4428.39923,0.41462
4426.47048,0.41435
4424.54173,0.41402
4422.61299,0.41360
4420.68424,0.41312
4418.75550,0.41252
4416.82675,0.41181
4414.89801,0.41111
4412.96926,0.41052
4411.04052,0.41012
4409.11177,0.40992
4407.18303,0.40969
4405.25428,0.40928
4403.32554,0.40890
4401.39679,0.40863
4399.46805,0.40839
4397.53930,0.40838
4395.61056,0.40851
4393.68181,0.40839
4391.75306,0.40828
4389.82432,0.40852
4387.89557,0.40900
4385.96683,0.40945
4384.03808,0.40952
4382.10934,0.40921
4380.18059,0.40929
4378.25185,0.40996
4376.32310,0.41045
4374.39436,0.41040
4372.46561,0.41024
4370.53687,0.41035
4368.60812,0.41063
4366.67938,0.41080
4364.75063,0.41064
4362.82189,0.41042
4360.89314,0.41060
4358.96439,0.41085
4357.03565,0.41061
4355.10690,0.41011
4353.17816,0.40965
4351.24941,0.40921
4349.32067,0.40899
4347.39192,0.40898
4345.46318,0.40881
4343.53443,0.40847
4341.60569,0.40815
4339.67694,0.40785
4337.74820,0.40761
4335.81945,0.40741
4333.89071,0.40739
4331.96196,0.40753
4330.03321,0.40729
4328.10447,0.40660
4326.17572,0.40612
4324.24698,0.40617
4322.31823,0.40626
4320.38949,0.40606
4318.46074,0.40578
4316.53200,0.40561
4314.60325,0.40553
4312.67451,0.40531
4310.74576,0.40468
4308.81702,0.40389
4306.88827,0.40337
4304.95953,0.40318
4303.03078,0.40312
4301.10204,0.40299
4299.17329,0.40276
4297.24454,0.40249
4295.31580,0.40207
4293.38705,0.40161
4291.45831,0.40136
4289.52956,0.40112
4287.60082,0.40051
4285.67207,0.39957
4283.74333,0.39881
4281.81458,0.39839
4279.88584,0.39801
4277.95709,0.39767
4276.02835,0.39737
4274.09960,0.39695
4272.17086,0.39660
4270.24211,0.39658
4268.31336,0.39660
4266.38462,0.39629
4264.45587,0.39612
4262.52713,0.39618
4260.59838,0.39579
4258.66964,0.39524
4256.74089,0.39533
4254.81215,0.39566
4252.88340,0.39542
4250.95466,0.39478
4249.02591,0.39442
4247.09717,0.39424
4245.16842,0.39392
4243.23968,0.39351
4241.31093,0.39306
4239.38219,0.39259
4237.45344,0.39236
4235.52469,0.39238
4233.59595,0.39234
4231.66720,0.39210
4229.73846,0.39172
4227.80971,0.39155
4225.88097,0.39156
4223.95222,0.39146
4222.02348,0.39140
4220.09473,0.39145
4218.16599,0.39137
4216.23724,0.39098
4214.30850,0.39041
4212.37975,0.38994
4210.45101,0.38962
4208.52226,0.38950
4206.59352,0.38960
4204.66477,0.38963
4202.73602,0.38946
4200.80728,0.38902
4198.87853,0.38851
4196.94979,0.38844
4195.02104,0.38866
4193.09230,0.38847
4191.16355,0.38807
4189.23481,0.38787
4187.30606,0.38746
4185.37732,0.38681
4183.44857,0.38639
4181.51983,0.38632
4179.59108,0.38625
4177.66234,0.38585
4175.73359,0.38530
4173.80484,0.38482
4171.87610,0.38435
4169.94735,0.38389
4168.01861,0.38366
4166.08986,0.38350
4164.16112,0.38315
4162.23237,0.38287
4160.30363,0.38259
4158.37488,0.38197
4156.44614,0.38136
4154.51739,0.38100
4152.58865,0.38056
4150.65990,0.37995
4148.73116,0.37934
4146.80241,0.37885
4144.87367,0.37854
4142.94492,0.37835
4141.01617,0.37809
4139.08743,0.37766
4137.15868,0.37707
4135.22994,0.37645
4133.30119,0.37577
4131.37245,0.37513
4129.44370,0.37461
4127.51496,0.37397
4125.58621,0.37310
4123.65747,0.37220
4121.72872,0.37139
4119.79998,0.37071
4117.87123,0.37031
4115.94249,0.36986
4114.01374,0.36895
4112.08500,0.36795
4110.15625,0.36721
4108.22750,0.36663
4106.29876,0.36618
4104.37001,0.36559
4102.44127,0.36477
4100.51252,0.36388
4098.58378,0.36267
4096.65503,0.36129
4094.72629,0.36036
4092.79754,0.35955
4090.86880,0.35833
4088.94005,0.35728
4087.01131,0.35677
4085.08256,0.35616
4083.15382,0.35509
4081.22507,0.35402
4079.29632,0.35323
4077.36758,0.35241
4075.43883,0.35146
4073.51009,0.35065
4071.58134,0.34995
4069.65260,0.34920
4067.72385,0.34830
4065.79511,0.34713
4063.86636,0.34595
4061.93762,0.34494
4060.00887,0.34370
4058.08013,0.34216
4056.15138,0.34100
4054.22264,0.34041
4052.29389,0.33978
4050.36515,0.33884
4048.43640,0.33793
4046.50765,0.33734
4044.57891,0.33663
4042.65016,0.33538
4040.72142,0.33412
4038.79267,0.33346
4036.86393,0.33317
4034.93518,0.33272
4033.00644,0.33202
4031.07769,0.33131
4029.14895,0.33074
4027.22020,0.33036
4025.29146,0.33013
4023.36271,0.32996
4021.43397,0.32997
4019.50522,0.33011
4017.57648,0.33008
4015.64773,0.32994
4013.71898,0.32975
4011.79024,0.32947
4009.86149,0.32939
4007.93275,0.32958
4006.00400,0.32979
4004.07526,0.32996
4002.14651,0.33011
4000.21777,0.33021
3998.28902,0.33025
3996.36028,0.33026
3994.43153,0.33043
3992.50279,0.33080
3990.57404,0.33100
3988.64530,0.33078
3986.71655,0.33040
3984.78780,0.33012
3982.85906,0.33002
3980.93031,0.33005
3979.00157,0.33008
3977.07282,0.33017
3975.14408,0.33045
3973.21533,0.33068
3971.28659,0.33061
3969.35784,0.33049
3967.42910,0.33069
3965.50035,0.33114
3963.57161,0.33144
3961.64286,0.33145
3959.71412,0.33133
3957.78537,0.33138
3955.85663,0.33157
3953.92788,0.33164
3951.99913,0.33164
3950.07039,0.33164
3948.14164,0.33151
3946.21290,0.33126
3944.28415,0.33116
3942.35541,0.33133
3940.42666,0.33167
3938.49792,0.33210
3936.56917,0.33239
3934.64043,0.33246
3932.71168,0.33250
3930.78294,0.33242
3928.85419,0.33223
3926.92545,0.33230
3924.99670,0.33261
3923.06795,0.33274
3921.13921,0.33283
3919.21046,0.33310
3917.28172,0.33323
3915.35297,0.33309
3913.42423,0.33291
3911.49548,0.33285
3909.56674,0.33293
3907.63799,0.33302
3905.70925,0.33279
3903.78050,0.33228
3901.85176,0.33213
3899.92301,0.33230
3897.99427,0.33246
3896.06552,0.33260
3894.13678,0.33260
3892.20803,0.33259
3890.27928,0.33280
3888.35054,0.33291
3886.42179,0.33273
3884.49305,0.33239
3882.56430,0.33208
3880.63556,0.33183
3878.70681,0.33151
3876.77807,0.33119
3874.84932,0.33105
3872.92058,0.33106
3870.99183,0.33106
3869.06309,0.33109
3867.13434,0.33120
3865.20560,0.33131
3863.27685,0.33133
3861.34811,0.33136
3859.41936,0.33157
3857.49061,0.33177
3855.56187,0.33176
3853.63312,0.33152
3851.70438,0.33101
3849.77563,0.33053
3847.84689,0.33040
3845.91814,0.33064
3843.98940,0.33091
3842.06065,0.33077
3840.13191,0.33012
3838.20316,0.32936
3836.27442,0.32889
3834.34567,0.32867
3832.41693,0.32856
3830.48818,0.32852
3828.55943,0.32845
3826.63069,0.32817
3824.70194,0.32753
3822.77320,0.32684
3820.84445,0.32658
3818.91571,0.32647
3816.98696,0.32584
3815.05822,0.32488
3813.12947,0.32395
3811.20073,0.32321
3809.27198,0.32273
3807.34324,0.32221
3805.41449,0.32164
3803.48575,0.32121
3801.55700,0.32065
3799.62826,0.31991
3797.69951,0.31918
3795.77076,0.31848
3793.84202,0.31800
3791.91327,0.31775
3789.98453,0.31745
3788.05578,0.31685
3786.12704,0.31593
3784.19829,0.31503
3782.26955,0.31428
3780.34080,0.31327
3778.41206,0.31203
3776.48331,0.31101
3774.55457,0.31022
3772.62582,0.30951
3770.69708,0.30890
3768.76833,0.30818
3766.83959,0.30717
3764.91084,0.30593
3762.98209,0.30470
3761.05335,0.30368
3759.12460,0.30254
3757.19586,0.30111
3755.26711,0.29966
3753.33837,0.29834
3751.40962,0.29699
3749.48088,0.29521
3747.55213,0.29337
3745.62339,0.29181
3743.69464,0.29028
3741.76590,0.28858
3739.83715,0.28687
3737.90841,0.28534
3735.97966,0.28376
3734.05091,0.28149
3732.12217,0.27875
3730.19342,0.27633
3728.26468,0.27415
3726.33593,0.27187
3724.40719,0.26954
3722.47844,0.26703
3720.54970,0.26402
3718.62095,0.26043
3716.69221,0.25656
3714.76346,0.25282
3712.83472,0.24887
3710.90597,0.24432
3708.97723,0.23982
3707.04848,0.23525
3705.11974,0.22994
3703.19099,0.22368
3701.26224,0.21685
3699.33350,0.21047
3697.40475,0.20520
3695.47601,0.20097
3693.54726,0.19744
3691.61852,0.19427
3689.68977,0.19106
3687.76103,0.18745
3685.83228,0.18366
3683.90354,0.17981
3681.97479,0.17551
3680.04605,0.17091
3678.11730,0.16634
3676.18856,0.16105
3674.25981,0.15538
3672.33107,0.15076
3670.40232,0.14614
3668.47357,0.14130
3666.54483,0.13756
3664.61608,0.13446
3662.68734,0.13133
3660.75859,0.12818
3658.82985,0.12509
3656.90110,0.12207
3654.97236,0.11945
3653.04361,0.11741
3651.11487,0.11526
3649.18612,0.11245
3647.25738,0.10967
3645.32863,0.10755
3643.39989,0.10576
3641.47114,0.10383
3639.54239,0.10171
3637.61365,0.09943
3635.68490,0.09717
3633.75616,0.09541
3631.82741,0.09429
3629.89867,0.09333
3627.96992,0.09159
3626.04118,0.08917
3624.11243,0.08707
3622.18369,0.08560
3620.25494,0.08452
3618.32620,0.08356
3616.39745,0.08250
3614.46871,0.08125
3612.53996,0.08012
3610.61122,0.07907
3608.68247,0.07777
3606.75372,0.07652
3604.82498,0.07554
3602.89623,0.07452
3600.96749,0.07332
3599.03874,0.07235
3597.11000,0.07171
3595.18125,0.07112
3593.25251,0.07040
3591.32376,0.06954
3589.39502,0.06856
3587.46627,0.06771
3585.53753,0.06705
3583.60878,0.06635
3581.68004,0.06569
3579.75129,0.06505
3577.82254,0.06421
3575.89380,0.06340
3573.96505,0.06283
3572.03631,0.06229
3570.10756,0.06169
3568.17882,0.06121
3566.25007,0.06091
3564.32133,0.06051
3562.39258,0.05977
3560.46384,0.05906
3558.53509,0.05881
3556.60635,0.05868
3554.67760,0.05821
3552.74886,0.05744
3550.82011,0.05658
3548.89137,0.05592
3546.96262,0.05541
3545.03387,0.05494
3543.10513,0.05464
3541.17638,0.05444
3539.24764,0.05412
3537.31889,0.05375
3535.39015,0.05331
3533.46140,0.05284
3531.53266,0.05270
3529.60391,0.05280
3527.67517,0.05267
3525.74642,0.05221
3523.81768,0.05151
3521.88893,0.05077
3519.96019,0.05018
3518.03144,0.04979
3516.10270,0.04966
3514.17395,0.04963
3512.24520,0.04955
3510.31646,0.04950
3508.38771,0.04928
3506.45897,0.04859
3504.53022,0.04764
3502.60148,0.04696
3500.67273,0.04670
3498.74399,0.04663
3496.81524,0.04658
3494.88650,0.04644
3492.95775,0.04619
3491.02901,0.04591
3489.10026,0.04568
3487.17152,0.04545
3485.24277,0.04516
3483.31402,0.04487
3481.38528,0.04477
3479.45653,0.04473
3477.52779,0.04436
3475.59904,0.04376
3473.67030,0.04334
3471.74155,0.04320
3469.81281,0.04315
3467.88406,0.04317
3465.95532,0.04326
3464.02657,0.04331
3462.09783,0.04325
3460.16908,0.04308
3458.24034,0.04290
3456.31159,0.04275
3454.38285,0.04266
3452.45410,0.04275
3450.52535,0.04278
3448.59661,0.04256
3446.66786,0.04234
3444.73912,0.04222
3442.81037,0.04196
3440.88163,0.04161
3438.95288,0.04166
3437.02414,0.04204
3435.09539,0.04211
3433.16665,0.04181
3431.23790,0.04161
3429.30916,0.04161
3427.38041,0.04153
3425.45167,0.04121
3423.52292,0.04098
3421.59418,0.04126
3419.66543,0.04173
3417.73668,0.04176
3415.80794,0.04134
3413.87919,0.04103
3411.95045,0.04104
3410.02170,0.04105
3408.09296,0.04112
3406.16421,0.04141
3404.23547,0.04155
3402.30672,0.04132
3400.37798,0.04093
3398.44923,0.04062
3396.52049,0.04065
3394.59174,0.04110
3392.66300,0.04145
3390.73425,0.04138
3388.80550,0.04114
3386.87676,0.04104
3384.94801,0.04124
3383.01927,0.04165
3381.09052,0.04195
3379.16178,0.04186
3377.23303,0.04148
3375.30429,0.04120
3373.37554,0.04116
3371.44680,0.04126
3369.51805,0.04155
3367.58931,0.04187
3365.66056,0.04193
3363.73182,0.04192
3361.80307,0.04215
3359.87433,0.04251
3357.94558,0.04251
3356.01683,0.04210
3354.08809,0.04190
3352.15934,0.04201
3350.23060,0.04209
3348.30185,0.04224
3346.37311,0.04245
3344.44436,0.04259
3342.51562,0.04282
3340.58687,0.04324
3338.65813,0.04369
3336.72938,0.04406
3334.80064,0.04433
3332.87189,0.04450
3330.94315,0.04456
3329.01440,0.04454
3327.08566,0.04464
3325.15691,0.04478
3323.22816,0.04476
3321.29942,0.04479
3319.37067,0.04513
3317.44193,0.04547
3315.51318,0.04547
3313.58444,0.04530
3311.65569,0.04539
3309.72695,0.04572
3307.79820,0.04579
3305.86946,0.04546
3303.94071,0.04538
3302.01197,0.04595
3300.08322,0.04673
3298.15448,0.04722
3296.22573,0.04730
3294.29698,0.04714
3292.36824,0.04693
3290.43949,0.04677
3288.51075,0.04678
3286.58200,0.04692
3284.65326,0.04714
3282.72451,0.04750
3280.79577,0.04779
3278.86702,0.04789
3276.93828,0.04799
3275.00953,0.04820
3273.08079,0.04855
3271.15204,0.04911
3269.22330,0.04970
3267.29455,0.05013
3265.36581,0.05052
3263.43706,0.05095
3261.50831,0.05133
3259.57957,0.05155
3257.65082,0.05161
3255.72208,0.05165
3253.79333,0.05193
3251.86459,0.05266
3249.93584,0.05359
3248.00710,0.05429
3246.07835,0.05460
3244.14961,0.05455
3242.22086,0.05446
3240.29212,0.05479
3238.36337,0.05539
3236.43463,0.05585
3234.50588,0.05617
3232.57713,0.05654
3230.64839,0.05703
3228.71964,0.05739
3226.79090,0.05759
3224.86215,0.05776
3222.93341,0.05777
3221.00466,0.05764
3219.07592,0.05784
3217.14717,0.05850
3215.21843,0.05920
3213.28968,0.05974
3211.36094,0.06021
3209.43219,0.06054
3207.50345,0.06074
3205.57470,0.06094
3203.64596,0.06117
3201.71721,0.06152
3199.78846,0.06198
3197.85972,0.06223
3195.93097,0.06239
3194.00223,0.06294
3192.07348,0.06380
3190.14474,0.06450
3188.21599,0.06475
3186.28725,0.06477
3184.35850,0.06504
3182.42976,0.06552
3180.50101,0.06580
3178.57227,0.06597
3176.64352,0.06646
3174.71478,0.06721
3172.78603,0.06783
3170.85729,0.06817
3168.92854,0.06849
3166.99979,0.06902
3165.07105,0.06972
3163.14230,0.07038
3161.21356,0.07093
3159.28481,0.07127
3157.35607,0.07145
3155.42732,0.07161
3153.49858,0.07171
3151.56983,0.07191
3149.64109,0.07243
3147.71234,0.07309
3145.78360,0.07365
3143.85485,0.07390
3141.92611,0.07396
3139.99736,0.07431
3138.06861,0.07521
3136.13987,0.07636
3134.21112,0.07721
3132.28238,0.07769
3130.35363,0.07804
3128.42489,0.07830
3126.49614,0.07853
3124.56740,0.07896
3122.63865,0.07959
3120.70991,0.08003
3118.78116,0.08022
3116.85242,0.08045
3114.92367,0.08071
3112.99493,0.08096
3111.06618,0.08146
3109.13744,0.08230
3107.20869,0.08305
3105.27994,0.08338
3103.35120,0.08354
3101.42245,0.08379
3099.49371,0.08418
3097.56496,0.08476
3095.63622,0.08530
3093.70747,0.08562
3091.77873,0.08594
3089.84998,0.08623
3087.92124,0.08638
3085.99249,0.08665
3084.06375,0.08725
3082.13500,0.08801
3080.20626,0.08854
3078.27751,0.08888
3076.34877,0.08949
3074.42002,0.09030
3072.49127,0.09085
3070.56253,0.09123
3068.63378,0.09153
3066.70504,0.09159
3064.77629,0.09158
3062.84755,0.09179
3060.91880,0.09208
3058.99006,0.09239
3057.06131,0.09296
3055.13257,0.09383
3053.20382,0.09462
3051.27508,0.09505
3049.34633,0.09541
3047.41759,0.09600
3045.48884,0.09658
3043.56009,0.09694
3041.63135,0.09728
3039.70260,0.09765
3037.77386,0.09773
3035.84511,0.09745
3033.91637,0.09718
3031.98762,0.09707
3030.05888,0.09695
3028.13013,0.09676
3026.20139,0.09678
3024.27264,0.09724
3022.34390,0.09798
3020.41515,0.09881
3018.48641,0.09969
3016.55766,0.10034
3014.62892,0.10061
3012.70017,0.10071
3010.77142,0.10083
3008.84268,0.10089
3006.91393,0.10082
3004.98519,0.10063
3003.05644,0.10035
3001.12770,0.10003
2999.19895,0.09976
2997.27021,0.09957
2995.34146,0.09945
2993.41272,0.09935
2991.48397,0.09904
2989.55523,0.09851
2987.62648,0.09811
2985.69774,0.09792
2983.76899,0.09754
2981.84025,0.09672
2979.91150,0.09556
2977.98275,0.09426
2976.05401,0.09292
2974.12526,0.09153
2972.19652,0.09005
2970.26777,0.08852
2968.33903,0.08707
2966.41028,0.08589
2964.48154,0.08511
2962.55279,0.08468
2960.62405,0.08427
2958.69530,0.08365
2956.76656,0.08286
2954.83781,0.08200
2952.90907,0.08125
2950.98032,0.08064
2949.05157,0.08009
2947.12283,0.07968
2945.19408,0.07949
2943.26534,0.07942
2941.33659,0.07927
2939.40785,0.07898
2937.47910,0.07863
2935.55036,0.07830
2933.62161,0.07797
2931.69287,0.07762
2929.76412,0.07730
2927.83538,0.07714
2925.90663,0.07712
2923.97789,0.07697
2922.04914,0.07667
2920.12040,0.07649
2918.19165,0.07638
2916.26290,0.07623
2914.33416,0.07605
2912.40541,0.07582
2910.47667,0.07569
2908.54792,0.07575
2906.61918,0.07584
2904.69043,0.07596
2902.76169,0.07622
2900.83294,0.07672
2898.90420,0.07738
2896.97545,0.07806
2895.04671,0.07873
2893.11796,0.07933
2891.18922,0.07990
2889.26047,0.08067
2887.33172,0.08158
2885.40298,0.08250
2883.47423,0.08325
2881.54549,0.08384
2879.61674,0.08435
2877.68800,0.08450
2875.75925,0.08424
2873.83051,0.08423
2871.90176,0.08484
2869.97302,0.08561
2868.04427,0.08632
2866.11553,0.08706
2864.18678,0.08782
2862.25804,0.08855
2860.32929,0.08919
2858.40055,0.08978
2856.47180,0.09055
2854.54305,0.09173
2852.61431,0.09330
2850.68556,0.09505
2848.75682,0.09677
2846.82807,0.09836
2844.89933,0.09990
2842.97058,0.10139
2841.04184,0.10289
2839.11309,0.10465
2837.18435,0.10649
2835.25560,0.10813
2833.32686,0.10967
2831.39811,0.11112
2829.46937,0.11241
2827.54062,0.11355
2825.61188,0.11465
2823.68313,0.11598
2821.75438,0.11738
2819.82564,0.11848
2817.89689,0.11944
2815.96815,0.12049
2814.03940,0.12161
2812.11066,0.12270
2810.18191,0.12369
2808.25317,0.12457
2806.32442,0.12543
2804.39568,0.12628
2802.46693,0.12700
2800.53819,0.12777
2798.60944,0.12866
2796.68070,0.12949
2794.75195,0.13018
2792.82320,0.13084
2790.89446,0.13155
2788.96571,0.13219
2787.03697,0.13263
2785.10822,0.13292
2783.17948,0.13327
2781.25073,0.13369
2779.32199,0.13402
2777.39324,0.13431
2775.46450,0.13469
2773.53575,0.13528
2771.60701,0.13606
2769.67826,0.13668
2767.74952,0.13695
2765.82077,0.13706
2763.89203,0.13712
2761.96328,0.13721
2760.03453,0.13752
2758.10579,0.13809
2756.17704,0.13868
2754.24830,0.13915
2752.31955,0.13960
2750.39081,0.14011
2748.46206,0.14039
2746.53332,0.14034
2744.60457,0.14035
2742.67583,0.14064
2740.74708,0.14104
2738.81834,0.14137
2736.88959,0.14165
2734.96085,0.14205
2733.03210,0.14259
2731.10336,0.14303
2729.17461,0.14328
2727.24586,0.14359
2725.31712,0.14407
2723.38837,0.14467
2721.45963,0.14526
2719.53088,0.14567
2717.60214,0.14601
2715.67339,0.14652
2713.74465,0.14715
2711.81590,0.14773
2709.88716,0.14833
2707.95841,0.14919
2706.02967,0.15018
2704.10092,0.15096
2702.17218,0.15159
2700.24343,0.15229
2698.31468,0.15294
2696.38594,0.15344
2694.45719,0.15393
2692.52845,0.15454
2690.59970,0.15532
2688.67096,0.15616
2686.74221,0.15685
2684.81347,0.15733
2682.88472,0.15783
2680.95598,0.15852
2679.02723,0.15924
2677.09849,0.15984
2675.16974,0.16046
2673.24100,0.16108
2671.31225,0.16166
2669.38351,0.16220
2667.45476,0.16267
2665.52601,0.16313
2663.59727,0.16360
2661.66852,0.16410
2659.73978,0.16478
2657.81103,0.16552
2655.88229,0.16601
2653.95354,0.16625
2652.02480,0.16649
2650.09605,0.16697
2648.16731,0.16765
2646.23856,0.16837
2644.30982,0.16912
2642.38107,0.16987
2640.45233,0.17038
2638.52358,0.17069
2636.59484,0.17101
2634.66609,0.17140
2632.73734,0.17187
2630.80860,0.17252
2628.87985,0.17334
2626.95111,0.17411
2625.02236,0.17450
2623.09362,0.17456
2621.16487,0.17479
2619.23613,0.17536
2617.30738,0.17593
2615.37864,0.17643
2613.44989,0.17682
2611.52115,0.17698
2609.59240,0.17709
2607.66366,0.17742
2605.73491,0.17788
2603.80616,0.17825
2601.87742,0.17861
2599.94867,0.17899
2598.01993,0.17938
2596.09118,0.17986
2594.16244,0.18037
2592.23369,0.18069
2590.30495,0.18093
2588.37620,0.18128
2586.44746,0.18163
2584.51871,0.18192
2582.58997,0.18223
2580.66122,0.18243
2578.73248,0.18252
2576.80373,0.18274
2574.87499,0.18308
2572.94624,0.18329
2571.01749,0.18327
2569.08875,0.18312
2567.16000,0.18303
2565.23126,0.18313
2563.30251,0.18342
2561.37377,0.18368
2559.44502,0.18372
2557.51628,0.18370
2555.58753,0.18379
2553.65879,0.18390
2551.73004,0.18390
2549.80130,0.18381
2547.87255,0.18377
2545.94381,0.18394
2544.01506,0.18417
2542.08631,0.18427
2540.15757,0.18425
2538.22882,0.18420
2536.30008,0.18427
2534.37133,0.18449
2532.44259,0.18470
2530.51384,0.18480
2528.58510,0.18495
2526.65635,0.18521
2524.72761,0.18546
2522.79886,0.18563
2520.87012,0.18578
2518.94137,0.18595
2517.01263,0.18612
2515.08388,0.18634
2513.15514,0.18665
2511.22639,0.18707
2509.29764,0.18760
2507.36890,0.18816
2505.44015,0.18866
2503.51141,0.18919
2501.58266,0.18979
2499.65392,0.19047
2497.72517,0.19112
2495.79643,0.19152
2493.86768,0.19167
2491.93894,0.19190
2490.01019,0.19234
2488.08145,0.19274
2486.15270,0.19309
2484.22396,0.19353
2482.29521,0.19404
2480.36647,0.19461
2478.43772,0.19517
2476.50897,0.19563
2474.58023,0.19599
2472.65148,0.19621
2470.72274,0.19637
2468.79399,0.19673
2466.86525,0.19728
2464.93650,0.19765
2463.00776,0.19764
2461.07901,0.19753
2459.15027,0.19758
2457.22152,0.19778
2455.29278,0.19805
2453.36403,0.19841
2451.43529,0.19878
2449.50654,0.19909
2447.57779,0.19938
2445.64905,0.19967
2443.72030,0.20001
2441.79156,0.20036
2439.86281,0.20052
2437.93407,0.20050
2436.00532,0.20061
2434.07658,0.20102
2432.14783,0.20159
2430.21909,0.20195
2428.29034,0.20205
2426.36160,0.20214
2424.43285,0.20233
2422.50411,0.20261
2420.57536,0.20282
2418.64662,0.20289
2416.71787,0.20301
2414.78912,0.20318
2412.86038,0.20320
2410.93163,0.20320
2409.00289,0.20334
2407.07414,0.20355
2405.14540,0.20371
2403.21665,0.20385
2401.28791,0.20401
2399.35916,0.20411
2397.43042,0.20400
2395.50167,0.20376
2393.57293,0.20363
2391.64418,0.20363
2389.71544,0.20356
2387.78669,0.20339
2385.85795,0.20336
2383.92920,0.20348
2382.00045,0.20350
2380.07171,0.20336
2378.14296,0.20336
2376.21422,0.20361
2374.28547,0.20383
2372.35673,0.20386
2370.42798,0.20380
2368.49924,0.20374
2366.57049,0.20372
2364.64175,0.20369
2362.71300,0.20352
2360.78426,0.20333
2358.85551,0.20336
2356.92677,0.20345
2354.99802,0.20340
2353.06927,0.20328
2351.14053,0.20320
2349.21178,0.20313
2347.28304,0.20302
2345.35429,0.20282
2343.42555,0.20256
2341.49680,0.20246
2339.56806,0.20249
2337.63931,0.20236
2335.71057,0.20219
2333.78182,0.20224
2331.85308,0.20237
2329.92433,0.20234
2327.99559,0.20217
2326.06684,0.20196
2324.13810,0.20177
2322.20935,0.20166
2320.28060,0.20168
2318.35186,0.20174
2316.42311,0.20163
2314.49437,0.20139
2312.56562,0.20123
2310.63688,0.20115
2308.70813,0.20104
2306.77939,0.20094
2304.85064,0.20084
2302.92190,0.20058
2300.99315,0.20019
2299.06441,0.19977
2297.13566,0.19935
2295.20692,0.19895
2293.27817,0.19860
2291.34943,0.19836
2289.42068,0.19829
2287.49193,0.19816
2285.56319,0.19772
2283.63444,0.19718
2281.70570,0.19666
2279.77695,0.19613
2277.84821,0.19565
2275.91946,0.19524
2273.99072,0.19483
2272.06197,0.19440
2270.13323,0.19392
2268.20448,0.19348
2266.27574,0.19303
2264.34699,0.19244
2262.41825,0.19184
2260.48950,0.19142
2258.56075,0.19108
2256.63201,0.19058
2254.70326,0.19009
2252.77452,0.18987
2250.84577,0.18976
2248.91703,0.18937
2246.98828,0.18871
2245.05954,0.18814
2243.13079,0.18783
2241.20205,0.18754
2239.27330,0.18712
2237.34456,0.18677
2235.41581,0.18665
2233.48707,0.18668
2231.55832,0.18680
2229.62958,0.18696
2227.70083,0.18703
2225.77208,0.18713
2223.84334,0.18737
2221.91459,0.18769
2219.98585,0.18803
2218.05710,0.18838
2216.12836,0.18872
2214.19961,0.18900
2212.27087,0.18926
2210.34212,0.18963
2208.41338,0.19000
2206.48463,0.19018
2204.55589,0.19027
2202.62714,0.19032
2200.69840,0.19040
2198.76965,0.19052
2196.84090,0.19043
2194.91216,0.19008
2192.98341,0.18980
2191.05467,0.18966
2189.12592,0.18941
2187.19718,0.18894
2185.26843,0.18850
2183.33969,0.18830
2181.41094,0.18821
2179.48220,0.18792
2177.55345,0.18741
2175.62471,0.18673
2173.69596,0.18605
2171.76722,0.18553
2169.83847,0.18514
2167.90973,0.18475
2165.98098,0.18436
2164.05223,0.18390
2162.12349,0.18325
2160.19474,0.18252
2158.26600,0.18192
2156.33725,0.18140
2154.40851,0.18093
2152.47976,0.18057
2150.55102,0.18033
2148.62227,0.18012
2146.69353,0.17982
2144.76478,0.17946
2142.83604,0.17904
2140.90729,0.17849
2138.97855,0.17793
2137.04980,0.17756
2135.12106,0.17752
2133.19231,0.17778
2131.26356,0.17806
2129.33482,0.17823
2127.40607,0.17845
2125.47733,0.17877
2123.54858,0.17909
2121.61984,0.17933
2119.69109,0.17947
2117.76235,0.17962
2115.83360,0.17991
2113.90486,0.18024
2111.97611,0.18040
2110.04737,0.18038
2108.11862,0.18038
2106.18988,0.18048
2104.26113,0.18058
2102.33238,0.18067
2100.40364,0.18082
2098.47489,0.18093
2096.54615,0.18089
2094.61740,0.18075
2092.68866,0.18062
2090.75991,0.18049
2088.83117,0.18029
2086.90242,0.18011
2084.97368,0.18006
2083.04493,0.18010
2081.11619,0.17996
2079.18744,0.17954
2077.25870,0.17904
2075.32995,0.17864
2073.40121,0.17836
2071.47246,0.17809
2069.54371,0.17774
2067.61497,0.17743
2065.68622,0.17714
2063.75748,0.17677
2061.82873,0.17632
2059.89999,0.17580
2057.97124,0.17521
2056.04250,0.17460
2054.11375,0.17401
2052.18501,0.17323
2050.25626,0.17203
2048.32752,0.17066
2046.39877,0.16936
2044.47003,0.16792
2042.54128,0.16620
2040.61254,0.16441
2038.68379,0.16265
2036.75504,0.16084
2034.82630,0.15905
2032.89755,0.15755
2030.96881,0.15645
2029.04006,0.15562
2027.11132,0.15497
2025.18257,0.15454
2023.25383,0.15423
2021.32508,0.15381
2019.39634,0.15308
2017.46759,0.15204
2015.53885,0.15076
2013.61010,0.14922
2011.68136,0.14745
2009.75261,0.14573
2007.82386,0.14435
2005.89512,0.14340
2003.96637,0.14276
2002.03763,0.14213
2000.10888,0.14147
1998.18014,0.14102
1996.25139,0.14087
1994.32265,0.14084
1992.39390,0.14092
1990.46516,0.14116
1988.53641,0.14142
1986.60767,0.14157
1984.67892,0.14170
1982.75018,0.14184
1980.82143,0.14194
1978.89269,0.14201
1976.96394,0.14209
1975.03519,0.14220
1973.10645,0.14242
1971.17770,0.14276
1969.24896,0.14318
1967.32021,0.14374
1965.39147,0.14440
1963.46272,0.14513
1961.53398,0.14590
1959.60523,0.14649
1957.67649,0.14676
1955.74774,0.14681
1953.81900,0.14686
1951.89025,0.14696
1949.96151,0.14706
1948.03276,0.14723
1946.10402,0.14749
1944.17527,0.14775
1942.24652,0.14805
1940.31778,0.14844
1938.38903,0.14883
1936.46029,0.14915
1934.53154,0.14939
1932.60280,0.14962
1930.67405,0.14984
1928.74531,0.14997
1926.81656,0.15005
1924.88782,0.15009
1922.95907,0.14990
1921.03033,0.14938
1919.10158,0.14842
1917.17284,0.14697
1915.24409,0.14527
1913.31534,0.14342
1911.38660,0.14143
1909.45785,0.13942
1907.52911,0.13728
1905.60036,0.13497
1903.67162,0.13268
1901.74287,0.13063
1899.81413,0.12885
1897.88538,0.12727
1895.95664,0.12572
1894.02789,0.12408
1892.09915,0.12266
1890.17040,0.12169
1888.24166,0.12097
1886.31291,0.12011
1884.38417,0.11911
1882.45542,0.11823
1880.52667,0.11768
1878.59793,0.11737
1876.66918,0.11698
1874.74044,0.11649
1872.81169,0.11622
1870.88295,0.11625
1868.95420,0.11651
1867.02546,0.11702
1865.09671,0.11777
1863.16797,0.11879
1861.23922,0.12021
1859.31048,0.12206
1857.38173,0.12427
1855.45299,0.12681
1853.52424,0.12946
1851.59549,0.13201
1849.66675,0.13457
1847.73800,0.13706
1845.80926,0.13923
1843.88051,0.14106
1841.95177,0.14250
1840.02302,0.14348
1838.09428,0.14402
1836.16553,0.14427
1834.23679,0.14435
1832.30804,0.14418
1830.37930,0.14360
1828.45055,0.14262
1826.52181,0.14150
1824.59306,0.14038
1822.66432,0.13926
1820.73557,0.13814
1818.80682,0.13682
1816.87808,0.13534
1814.94933,0.13392
1813.02059,0.13259
1811.09184,0.13110
1809.16310,0.12947
1807.23435,0.12800
1805.30561,0.12675
1803.37686,0.12561
1801.44812,0.12461
1799.51937,0.12371
1797.59063,0.12289
1795.66188,0.12228
1793.73314,0.12187
1791.80439,0.12155
1789.87565,0.12134
1787.94690,0.12128
1786.01815,0.12138
1784.08941,0.12163
1782.16066,0.12195
1780.23192,0.12227
1778.30317,0.12268
1776.37443,0.12321
1774.44568,0.12387
1772.51694,0.12486
1770.58819,0.12608
1768.65945,0.12707
1766.73070,0.12768
1764.80196,0.12801
1762.87321,0.12825
1760.94447,0.12833
1759.01572,0.12795
1757.08697,0.12690
1755.15823,0.12531
1753.22948,0.12332
1751.30074,0.12044
1749.37199,0.11638
1747.44325,0.11161
1745.51450,0.10641
1743.58576,0.10084
1741.65701,0.09520
1739.72827,0.08988
1737.79952,0.08567
1735.87078,0.08269
1733.94203,0.08007
1732.01329,0.07819
1730.08454,0.07768
1728.15580,0.07821
1726.22705,0.07962
1724.29830,0.08183
1722.36956,0.08451
1720.44081,0.08708
1718.51207,0.08946
1716.58332,0.09123
1714.65458,0.09195
1712.72583,0.09207
1710.79709,0.09195
1708.86834,0.09175
1706.93960,0.09145
1705.01085,0.09081
1703.08211,0.08992
1701.15336,0.08879
1699.22462,0.08749
1697.29587,0.08625
1695.36713,0.08465
1693.43838,0.08296
1691.50963,0.08159
1689.58089,0.08022
1687.65214,0.07897
1685.72340,0.07778
1683.79465,0.07621
1681.86591,0.07475
1679.93716,0.07388
1678.00842,0.07327
1676.07967,0.07232
1674.15093,0.07097
1672.22218,0.06991
1670.29344,0.06912
1668.36469,0.06815
1666.43595,0.06723
1664.50720,0.06644
1662.57845,0.06549
1660.64971,0.06443
1658.72096,0.06361
1656.79222,0.06313
1654.86347,0.06271
1652.93473,0.06174
1651.00598,0.06062
1649.07724,0.06009
1647.14849,0.05971
1645.21975,0.05914
1643.29100,0.05860
1641.36226,0.05817
1639.43351,0.05789
1637.50477,0.05781
1635.57602,0.05771
1633.64728,0.05750
1631.71853,0.05726
1629.78978,0.05700
1627.86104,0.05693
1625.93229,0.05699
1624.00355,0.05685
1622.07480,0.05653
1620.14606,0.05634
1618.21731,0.05634
1616.28857,0.05630
1614.35982,0.05606
1612.43108,0.05588
1610.50233,0.05592
1608.57359,0.05611
1606.64484,0.05634
1604.71610,0.05652
1602.78735,0.05666
1600.85861,0.05688
1598.92986,0.05714
1597.00111,0.05741
1595.07237,0.05780
1593.14362,0.05825
1591.21488,0.05843
1589.28613,0.05836
1587.35739,0.05839
1585.42864,0.05866
1583.49990,0.05905
1581.57115,0.05952
1579.64241,0.06004
1577.71366,0.06044
1575.78492,0.06059
1573.85617,0.06077
1571.92743,0.06114
1569.99868,0.06143
1568.06993,0.06148
1566.14119,0.06163
1564.21244,0.06198
1562.28370,0.06231
1560.35495,0.06251
1558.42621,0.06254
1556.49746,0.06250
1554.56872,0.06241
1552.63997,0.06227
1550.71123,0.06211
1548.78248,0.06188
1546.85374,0.06168
1544.92499,0.06166
1542.99625,0.06179
1541.06750,0.06165
1539.13876,0.06094
1537.21001,0.06023
1535.28126,0.05981
1533.35252,0.05957
1531.42377,0.05928
1529.49503,0.05873
1527.56628,0.05803
1525.63754,0.05746
1523.70879,0.05722
1521.78005,0.05707
1519.85130,0.05667
1517.92256,0.05617
1515.99381,0.05568
1514.06507,0.05519
1512.13632,0.05480
1510.20758,0.05459
1508.27883,0.05433
1506.35008,0.05361
1504.42134,0.05288
1502.49259,0.05241
1500.56385,0.05183
1498.63510,0.05103
1496.70636,0.05014
1494.77761,0.04951
1492.84887,0.04926
1490.92012,0.04896
1488.99138,0.04821
1487.06263,0.04725
1485.13389,0.04640
1483.20514,0.04569
1481.27640,0.04520
1479.34765,0.04498
1477.41891,0.04476
1475.49016,0.04430
1473.56141,0.04361
1471.63267,0.04270
1469.70392,0.04189
1467.77518,0.04144
1465.84643,0.04119
1463.91769,0.04084
1461.98894,0.04038
1460.06020,0.03994
1458.13145,0.03944
1456.20271,0.03879
1454.27396,0.03836
1452.34522,0.03830
1450.41647,0.03842
1448.48773,0.03848
1446.55898,0.03825
1444.63024,0.03781
1442.70149,0.03742
1440.77274,0.03720
1438.84400,0.03705
1436.91525,0.03674
1434.98651,0.03637
1433.05776,0.03620
1431.12902,0.03623
1429.20027,0.03640
1427.27153,0.03678
1425.34278,0.03742
1423.41404,0.03814
1421.48529,0.03871
1419.55655,0.03924
1417.62780,0.03980
1415.69906,0.04028
1413.77031,0.04053
1411.84156,0.04048
1409.91282,0.04034
1407.98407,0.04029
1406.05533,0.04033
1404.12658,0.04046
1402.19784,0.04068
1400.26909,0.04090
1398.34035,0.04097
1396.41160,0.04079
1394.48286,0.04051
1392.55411,0.04023
1390.62537,0.03995
1388.69662,0.03973
1386.76788,0.03941
1384.83913,0.03889
1382.91039,0.03840
1380.98164,0.03809
1379.05289,0.03784
1377.12415,0.03764
1375.19540,0.03768
1373.26666,0.03798
1371.33791,0.03841
1369.40917,0.03897
1367.48042,0.03964
1365.55168,0.04027
1363.62293,0.04080
1361.69419,0.04121
1359.76544,0.04172
1357.83670,0.04231
1355.90795,0.04280
1353.97921,0.04331
1352.05046,0.04394
1350.12172,0.04447
1348.19297,0.04475
1346.26422,0.04480
1344.33548,0.04469
1342.40673,0.04457
1340.47799,0.04451
1338.54924,0.04452
1336.62050,0.04465
1334.69175,0.04487
1332.76301,0.04520
1330.83426,0.04565
1328.90552,0.04604
1326.97677,0.04618
1325.04803,0.04614
1323.11928,0.04610
1321.19054,0.04611
1319.26179,0.04620
1317.33304,0.04648
1315.40430,0.04710
1313.47555,0.04825
1311.54681,0.04976
1309.61806,0.05116
1307.68932,0.05230
1305.76057,0.05336
1303.83183,0.05444
1301.90308,0.05542
1299.97434,0.05629
1298.04559,0.05701
1296.11685,0.05740
1294.18810,0.05749
1292.25936,0.05742
1290.33061,0.05713
1288.40187,0.05668
1286.47312,0.05623
1284.54437,0.05573
1282.61563,0.05538
1280.68688,0.05576
1278.75814,0.05676
1276.82939,0.05774
1274.90065,0.05853
1272.97190,0.05931
1271.04316,0.06019
1269.11441,0.06119
1267.18567,0.06228
1265.25692,0.06350
1263.32818,0.06482
1261.39943,0.06618
1259.47069,0.06756
1257.54194,0.06900
1255.61320,0.07051
1253.68445,0.07198
1251.75570,0.07346
1249.82696,0.07503
1247.89821,0.07649
1245.96947,0.07785
1244.04072,0.07948
1242.11198,0.08162
1240.18323,0.08402
1238.25449,0.08626
1236.32574,0.08845
1234.39700,0.09102
1232.46825,0.09417
1230.53951,0.09760
1228.61076,0.10075
1226.68202,0.10335
1224.75327,0.10536
1222.82452,0.10657
1220.89578,0.10680
1218.96703,0.10615
1217.03829,0.10484
1215.10954,0.10307
1213.18080,0.10099
1211.25205,0.09863
1209.32331,0.09615
1207.39456,0.09377
1205.46582,0.09170
1203.53707,0.09012
1201.60833,0.08903
1199.67958,0.08831
1197.75084,0.08779
1195.82209,0.08723
1193.89335,0.08652
1191.96460,0.08589
1190.03585,0.08545
1188.10711,0.08498
1186.17836,0.08444
1184.24962,0.08380
1182.32087,0.08298
1180.39213,0.08223
1178.46338,0.08169
1176.53464,0.08116
1174.60589,0.08073
1172.67715,0.08048
1170.74840,0.08033
1168.81966,0.08001
1166.89091,0.07894
1164.96217,0.07683
1163.03342,0.07386
1161.10467,0.07077
1159.17593,0.06902
1157.24718,0.06966
1155.31844,0.07226
1153.38969,0.07552
1151.46095,0.07827
1149.53220,0.08011
1147.60346,0.08133
1145.67471,0.08226
1143.74597,0.08325
1141.81722,0.08435
1139.88848,0.08523
1137.95973,0.08568
1136.03099,0.08585
1134.10224,0.08614
1132.17350,0.08668
1130.24475,0.08718
1128.31600,0.08758
1126.38726,0.08813
1124.45851,0.08896
1122.52977,0.08992
1120.60102,0.09087
1118.67228,0.09183
1116.74353,0.09293
1114.81479,0.09415
1112.88604,0.09534
1110.95730,0.09638
1109.02855,0.09726
1107.09981,0.09813
1105.17106,0.09909
1103.24232,0.09990
1101.31357,0.10035
1099.38483,0.10057
1097.45608,0.10075
1095.52733,0.10085
1093.59859,0.10091
1091.66984,0.10113
1089.74110,0.10155
1087.81235,0.10203
1085.88361,0.10249
1083.95486,0.10288
1082.02612,0.10323
1080.09737,0.10372
1078.16863,0.10431
1076.23988,0.10481
1074.31114,0.10480
1072.38239,0.10360
1070.45365,0.10121
1068.52490,0.09826
1066.59615,0.09501
1064.66741,0.09192
1062.73866,0.08926
1060.80992,0.08646
1058.88117,0.08340
1056.95243,0.08055
1055.02368,0.07796
1053.09494,0.07561
1051.16619,0.07362
1049.23745,0.07210
1047.30870,0.07096
1045.37996,0.06972
1043.45121,0.06839
1041.52247,0.06743
1039.59372,0.06712
1037.66498,0.06752
1035.73623,0.06825
1033.80748,0.06870
1031.87874,0.06871
1029.94999,0.06840
1028.02125,0.06792
1026.09250,0.06736
1024.16376,0.06689
1022.23501,0.06665
1020.30627,0.06641
1018.37752,0.06611
1016.44878,0.06605
1014.52003,0.06624
1012.59129,0.06634
1010.66254,0.06625
1008.73380,0.06605
1006.80505,0.06584
1004.87631,0.06558
1002.94756,0.06529
1001.01881,0.06527
999.09007,0.06562
997.16132,0.06605
995.23258,0.06640
993.30383,0.06687
991.37509,0.06733
989.44634,0.06760
987.51760,0.06800
985.58885,0.06881
983.66011,0.06985
981.73136,0.07084
979.80262,0.07166
977.87387,0.07224
975.94513,0.07258
974.01638,0.07272
972.08763,0.07276
970.15889,0.07291
968.23014,0.07314
966.30140,0.07328
964.37265,0.07338
962.44391,0.07349
960.51516,0.07350
958.58642,0.07348
956.65767,0.07377
954.72893,0.07423
952.80018,0.07426
950.87144,0.07398
948.94269,0.07388
947.01395,0.07392
945.08520,0.07390
943.15646,0.07394
941.22771,0.07412
939.29896,0.07430
937.37022,0.07426
935.44147,0.07380
933.51273,0.07333
931.58398,0.07338
929.65524,0.07369
927.72649,0.07382
925.79775,0.07375
923.86900,0.07367
921.94026,0.07362
920.01151,0.07336
918.08277,0.07271
916.15402,0.07187
914.22528,0.07119
912.29653,0.07063
910.36779,0.06996
908.43904,0.06921
906.51029,0.06842
904.58155,0.06757
902.65280,0.06679
900.72406,0.06627
898.79531,0.06601
896.86657,0.06590
894.93782,0.06608
893.00908,0.06668
891.08033,0.06736
889.15159,0.06776
887.22284,0.06803
885.29410,0.06850
883.36535,0.06894
881.43661,0.06915
879.50786,0.06930
877.57911,0.06934
875.65037,0.06924
873.72162,0.06925
871.79288,0.06943
869.86413,0.06956
867.93539,0.06953
866.00664,0.06957
864.07790,0.06981
862.14915,0.06993
860.22041,0.06985
858.29166,0.06995
856.36292,0.07025
854.43417,0.07044
852.50543,0.07032
850.57668,0.07001
848.64794,0.06957
846.71919,0.06897
844.79044,0.06832
842.86170,0.06768
840.93295,0.06688
839.00421,0.06590
837.07546,0.06518
835.14672,0.06486
833.21797,0.06444
831.28923,0.06364
829.36048,0.06257
827.43174,0.06125
825.50299,0.05976
823.57425,0.05846
821.64550,0.05745
819.71676,0.05656
817.78801,0.05579
815.85926,0.05509
813.93052,0.05428
812.00177,0.05380
810.07303,0.05459
808.14428,0.05697
806.21554,0.06028
804.28679,0.06337
802.35805,0.06548
800.42930,0.06653
798.50056,0.06653
796.57181,0.06582
794.64307,0.06503
792.71432,0.06435
790.78558,0.06407
788.85683,0.06497
786.92809,0.06703
784.99934,0.06914
783.07059,0.07053
781.14185,0.07117
779.21310,0.07089
777.28436,0.06946
775.35561,0.06742
773.42687,0.06583
771.49812,0.06527
769.56938,0.06522
767.64063,0.06497
765.71189,0.06445
763.78314,0.06393
761.85440,0.06351
759.92565,0.06325
757.99691,0.06317
756.06816,0.06310
754.13942,0.06302
752.21067,0.06301
750.28192,0.06285
748.35318,0.06240
746.42443,0.06157
744.49569,0.06034
742.56694,0.05919
740.63820,0.05861
738.70945,0.05840
736.78071,0.05809
734.85196,0.05755
732.92322,0.05673
730.99447,0.05553
729.06573,0.05426
727.13698,0.05343
725.20824,0.05308
723.27949,0.05283
721.35074,0.05250
719.42200,0.05182
717.49325,0.05054
715.56451,0.04916
713.63576,0.04823
711.70702,0.04746
709.77827,0.04650
707.84953,0.04554
705.92078,0.04469
703.99204,0.04366
702.06329,0.04243
700.13455,0.04176
698.20580,0.04202
696.27706,0.04288
694.34831,0.04382
692.41957,0.04433
690.49082,0.04474
688.56207,0.04564
686.63333,0.04648
684.70458,0.04655
682.77584,0.04611
680.84709,0.04588
678.91835,0.04586
676.98960,0.04550
675.06086,0.04506
673.13211,0.04485
671.20337,0.04483
669.27462,0.04506
667.34588,0.04532
665.41713,0.04549
663.48839,0.04598
661.55964,0.04660
659.63090,0.04678
657.70215,0.04627
655.77340,0.04538
653.84466,0.04519
651.91591,0.04583
649.98717,0.04614
648.05842,0.04567
646.12968,0.04492
644.20093,0.04410
642.27219,0.04344
640.34344,0.04317
638.41470,0.04275
636.48595,0.04202
634.55721,0.04211
632.62846,0.04335
630.69972,0.04438
628.77097,0.04403
626.84222,0.04280
624.91348,0.04235
622.98473,0.04281
621.05599,0.04292
619.12724,0.04227
617.19850,0.04185
615.26975,0.04247
613.34101,0.04276
611.41226,0.04216
609.48352,0.04227
607.55477,0.04266
605.62603,0.04209
603.69728,0.04149
601.76854,0.04179
599.83979,0.04246
