7497.03301,0.51155
7495.10426,0.51051
7493.17552,0.50537
7491.24677,0.50375
7489.31803,0.50752
7487.38928,0.50741
7485.46054,0.50441
7483.53179,0.50707
7481.60305,0.51407
7479.67430,0.51793
7477.74556,0.51691
7475.81681,0.51362
7473.88807,0.51022
7471.95932,0.50968
7470.03057,0.51086
7468.10183,0.51097
7466.17308,0.51240
7464.24434,0.51308
7462.31559,0.50858
7460.38685,0.50586
7458.45810,0.50951
7456.52936,0.51152
7454.60061,0.50933
7452.67187,0.50712
7450.74312,0.50479
7448.81438,0.50321
7446.88563,0.50405
7444.95689,0.50768
7443.02814,0.51362
7441.09940,0.51706
7439.17065,0.51507
7437.24190,0.51230
7435.31316,0.51080
7433.38441,0.50697
7431.45567,0.50316
7429.52692,0.50364
7427.59818,0.50575
7425.66943,0.50761
7423.74069,0.50958
7421.81194,0.51001
7419.88320,0.50782
7417.95445,0.50581
7416.02571,0.50773
7414.09696,0.51107
7412.16822,0.51180
7410.23947,0.50953
7408.31073,0.50466
7406.38198,0.50109
7404.45323,0.50263
7402.52449,0.50403
7400.59574,0.49918
7398.66700,0.49272
7396.73825,0.49238
7394.80951,0.49766
7392.88076,0.50245
7390.95202,0.50217
7389.02327,0.49849
7387.09453,0.49732
7385.16578,0.49925
7383.23704,0.50039
7381.30829,0.50129
7379.37955,0.50407
7377.45080,0.50549
7375.52205,0.50544
7373.59331,0.50916
7371.66456,0.51233
7369.73582,0.50866
7367.80707,0.50400
7365.87833,0.50415
7363.94958,0.50748
7362.02084,0.50900
7360.09209,0.50408
7358.16335,0.49763
7356.23460,0.49993
7354.30586,0.50901
7352.37711,0.51337
7350.44837,0.51116
7348.51962,0.50930
7346.59088,0.50991
7344.66213,0.50844
7342.73338,0.50202
7340.80464,0.49586
7338.87589,0.49594
7336.94715,0.49911
7335.01840,0.50109
7333.08966,0.50431
7331.16091,0.50916
7329.23217,0.51128
7327.30342,0.50779
7325.37468,0.49940
7323.44593,0.49295
7321.51719,0.49429
7319.58844,0.49794
7317.65970,0.49662
7315.73095,0.49317
7313.80221,0.49388
7311.87346,0.49822
7309.94471,0.50003
7308.01597,0.49665
7306.08722,0.49391
7304.15848,0.49702
7302.22973,0.50199
7300.30099,0.50534
7298.37224,0.50833
7296.44350,0.50802
7294.51475,0.50200
7292.58601,0.49641
7290.65726,0.49445
7288.72852,0.49183
7286.79977,0.48946
7284.87103,0.49203
7282.94228,0.49694
7281.01353,0.49944
7279.08479,0.50101
7277.15604,0.50422
7275.22730,0.50786
7273.29855,0.50971
7271.36981,0.50943
7269.44106,0.50814
7267.51232,0.50653
7265.58357,0.50471
7263.65483,0.50274
7261.72608,0.50156
7259.79734,0.50245
7257.86859,0.50507
7255.93985,0.50756
7254.01110,0.50818
7252.08236,0.50530
7250.15361,0.49944
7248.22486,0.49651
7246.29612,0.49884
7244.36737,0.50142
7242.43863,0.50303
7240.50988,0.50566
7238.58114,0.50805
7236.65239,0.50891
7234.72365,0.50943
7232.79490,0.50921
7230.86616,0.50432
7228.93741,0.49762
7227.00867,0.49597
7225.07992,0.49725
7223.15118,0.49731
7221.22243,0.49936
7219.29369,0.50526
7217.36494,0.51097
7215.43619,0.51273
7213.50745,0.50906
7211.57870,0.50313
7209.64996,0.49963
7207.72121,0.49734
7205.79247,0.49618
7203.86372,0.49768
7201.93498,0.49878
7200.00623,0.49916
7198.07749,0.49931
7196.14874,0.49752
7194.22000,0.49575
7192.29125,0.49402
7190.36251,0.49262
7188.43376,0.49448
7186.50501,0.49557
7184.57627,0.49324
7182.64752,0.49271
7180.71878,0.49596
7178.79003,0.49863
7176.86129,0.49783
7174.93254,0.49742
7173.00380,0.49961
7171.07505,0.49941
7169.14631,0.49521
7167.21756,0.49144
7165.28882,0.49018
7163.36007,0.48867
7161.43133,0.48585
7159.50258,0.48493
7157.57384,0.48672
7155.64509,0.48966
7153.71634,0.49318
7151.78760,0.49553
7149.85885,0.49594
7147.93011,0.49628
7146.00136,0.49727
7144.07262,0.49721
7142.14387,0.49529
7140.21513,0.49333
7138.28638,0.49173
7136.35764,0.48922
7134.42889,0.48782
7132.50015,0.48815
7130.57140,0.48686
7128.64266,0.48457
7126.71391,0.48534
7124.78516,0.48842
7122.85642,0.48847
7120.92767,0.48474
7118.99893,0.48353
7117.07018,0.48748
7115.14144,0.49148
7113.21269,0.49291
7111.28395,0.49315
7109.35520,0.49035
7107.42646,0.48372
7105.49771,0.47946
7103.56897,0.48239
7101.64022,0.48839
7099.71148,0.49147
7097.78273,0.49129
7095.85399,0.48901
7093.92524,0.48606
7091.99649,0.48484
7090.06775,0.48389
7088.13900,0.48233
7086.21026,0.48269
7084.28151,0.48448
7082.35277,0.48685
7080.42402,0.48924
7078.49528,0.48868
7076.56653,0.48636
7074.63779,0.48574
7072.70904,0.48641
7070.78030,0.48826
7068.85155,0.49061
7066.92281,0.49101
7064.99406,0.49026
7063.06532,0.48906
7061.13657,0.48615
7059.20782,0.48412
7057.27908,0.48554
7055.35033,0.48717
7053.42159,0.48581
7051.49284,0.48329
7049.56410,0.48312
7047.63535,0.48460
7045.70661,0.48324
7043.77786,0.47956
7041.84912,0.47978
7039.92037,0.48500
7037.99163,0.48938
7036.06288,0.48801
7034.13414,0.48348
7032.20539,0.48215
7030.27664,0.48326
7028.34790,0.48338
7026.41915,0.48372
7024.49041,0.48280
7022.56166,0.47920
7020.63292,0.47632
7018.70417,0.47552
7016.77543,0.47761
7014.84668,0.48231
7012.91794,0.48512
7010.98919,0.48374
7009.06045,0.48048
7007.13170,0.47947
7005.20296,0.48096
7003.27421,0.48105
7001.34547,0.48099
6999.41672,0.48264
6997.48797,0.48178
6995.55923,0.47850
6993.63048,0.47843
6991.70174,0.48196
6989.77299,0.48479
6987.84425,0.48524
6985.91550,0.48348
6983.98676,0.47915
6982.05801,0.47496
6980.12927,0.47476
6978.20052,0.47725
6976.27178,0.48040
6974.34303,0.48437
6972.41429,0.48690
6970.48554,0.48647
6968.55680,0.48410
6966.62805,0.48111
6964.69930,0.48003
6962.77056,0.48068
6960.84181,0.48052
6958.91307,0.48027
6956.98432,0.47986
6955.05558,0.47765
6953.12683,0.47564
6951.19809,0.47667
6949.26934,0.48060
6947.34060,0.48371
6945.41185,0.48348
6943.48311,0.48330
6941.55436,0.48502
6939.62562,0.48579
6937.69687,0.48411
6935.76812,0.48350
6933.83938,0.48685
6931.91063,0.48886
6929.98189,0.48681
6928.05314,0.48476
6926.12440,0.48236
6924.19565,0.47907
6922.26691,0.47721
6920.33816,0.47712
6918.40942,0.47773
6916.48067,0.47811
6914.55193,0.47939
6912.62318,0.48075
6910.69444,0.47963
6908.76569,0.47846
6906.83695,0.47993
6904.90820,0.48206
6902.97945,0.48272
6901.05071,0.48193
6899.12196,0.48046
6897.19322,0.47960
6895.26447,0.48061
6893.33573,0.48206
6891.40698,0.48135
6889.47824,0.47969
6887.54949,0.47992
6885.62075,0.48196
6883.69200,0.48475
6881.76326,0.48653
6879.83451,0.48539
6877.90577,0.48357
6875.97702,0.48317
6874.04828,0.48360
6872.11953,0.48479
6870.19078,0.48390
6868.26204,0.47946
6866.33329,0.47669
6864.40455,0.47829
6862.47580,0.48129
6860.54706,0.48276
6858.61831,0.48217
6856.68957,0.48009
6854.76082,0.47763
6852.83208,0.47846
6850.90333,0.48362
6848.97459,0.48738
6847.04584,0.48599
6845.11710,0.48106
6843.18835,0.47513
6841.25960,0.47203
6839.33086,0.47428
6837.40211,0.47798
6835.47337,0.47848
6833.54462,0.47719
6831.61588,0.47720
6829.68713,0.47785
6827.75839,0.47752
6825.82964,0.47799
6823.90090,0.48016
6821.97215,0.48159
6820.04341,0.48166
6818.11466,0.48097
6816.18592,0.48078
6814.25717,0.48215
6812.32843,0.48242
6810.39968,0.48054
6808.47093,0.48038
6806.54219,0.48291
6804.61344,0.48458
6802.68470,0.48470
6800.75595,0.48531
6798.82721,0.48512
6796.89846,0.48308
6794.96972,0.48091
6793.04097,0.47922
6791.11223,0.47812
6789.18348,0.47744
6787.25474,0.47656
6785.32599,0.47735
6783.39725,0.48075
6781.46850,0.48311
6779.53975,0.48142
6777.61101,0.47682
6775.68226,0.47318
6773.75352,0.47282
6771.82477,0.47398
6769.89603,0.47562
6767.96728,0.47860
6766.03854,0.48182
6764.10979,0.48310
6762.18105,0.48166
6760.25230,0.47926
6758.32356,0.47939
6756.39481,0.48233
6754.46607,0.48414
6752.53732,0.48301
6750.60858,0.48119
6748.67983,0.48072
6746.75108,0.48162
6744.82234,0.48250
6742.89359,0.48328
6740.96485,0.48481
6739.03610,0.48548
6737.10736,0.48435
6735.17861,0.48362
6733.24987,0.48472
6731.32112,0.48663
6729.39238,0.48582
6727.46363,0.48076
6725.53489,0.47664
6723.60614,0.47779
6721.67740,0.48151
6719.74865,0.48433
6717.81991,0.48593
6715.89116,0.48660
6713.96241,0.48672
6712.03367,0.48764
6710.10492,0.48839
6708.17618,0.48606
6706.24743,0.48258
6704.31869,0.48250
6702.38994,0.48559
6700.46120,0.48822
6698.53245,0.48798
6696.60371,0.48623
6694.67496,0.48555
6692.74622,0.48575
6690.81747,0.48595
6688.88873,0.48617
6686.95998,0.48675
6685.03123,0.48814
6683.10249,0.48930
6681.17374,0.48856
6679.24500,0.48546
6677.31625,0.48209
6675.38751,0.48136
6673.45876,0.48203
6671.53002,0.48185
6669.60127,0.48212
6667.67253,0.48311
6665.74378,0.48296
6663.81504,0.48253
6661.88629,0.48421
6659.95755,0.48636
6658.02880,0.48635
6656.10006,0.48546
6654.17131,0.48450
6652.24256,0.48240
6650.31382,0.48072
6648.38507,0.48091
6646.45633,0.48113
6644.52758,0.48143
6642.59884,0.48277
6640.67009,0.48275
6638.74135,0.48196
6636.81260,0.48308
6634.88386,0.48415
6632.95511,0.48376
6631.02637,0.48293
6629.09762,0.48161
6627.16888,0.48028
6625.24013,0.48022
6623.31139,0.48127
6621.38264,0.48200
6619.45389,0.48265
6617.52515,0.48377
6615.59640,0.48370
6613.66766,0.48274
6611.73891,0.48279
6609.81017,0.48348
6607.88142,0.48395
6605.95268,0.48385
6604.02393,0.48394
6602.09519,0.48517
6600.16644,0.48624
6598.23770,0.48624
6596.30895,0.48583
6594.38021,0.48666
6592.45146,0.48902
6590.52271,0.48886
6588.59397,0.48625
6586.66522,0.48559
6584.73648,0.48568
6582.80773,0.48402
6580.87899,0.48239
6578.95024,0.48304
6577.02150,0.48522
6575.09275,0.48687
6573.16401,0.48777
6571.23526,0.48757
6569.30652,0.48608
6567.37777,0.48514
6565.44903,0.48588
6563.52028,0.48724
6561.59154,0.48722
6559.66279,0.48521
6557.73404,0.48276
6555.80530,0.48151
6553.87655,0.48180
6551.94781,0.48340
6550.01906,0.48612
6548.09032,0.48883
6546.16157,0.48881
6544.23283,0.48579
6542.30408,0.48386
6540.37534,0.48467
6538.44659,0.48618
6536.51785,0.48804
6534.58910,0.49064
6532.66036,0.49106
6530.73161,0.48749
6528.80287,0.48476
6526.87412,0.48592
6524.94537,0.48634
6523.01663,0.48469
6521.08788,0.48432
6519.15914,0.48503
6517.23039,0.48659
6515.30165,0.48890
6513.37290,0.48908
6511.44416,0.48768
6509.51541,0.48745
6507.58667,0.48782
6505.65792,0.48820
6503.72918,0.48969
6501.80043,0.49131
6499.87169,0.49018
6497.94294,0.48680
6496.01419,0.48508
6494.08545,0.48594
6492.15670,0.48655
6490.22796,0.48582
6488.29921,0.48484
6486.37047,0.48357
6484.44172,0.48247
6482.51298,0.48311
6480.58423,0.48496
6478.65549,0.48657
6476.72674,0.48817
6474.79800,0.48920
6472.86925,0.48931
6470.94051,0.48941
6469.01176,0.48911
6467.08302,0.48804
6465.15427,0.48660
6463.22552,0.48527
6461.29678,0.48426
6459.36803,0.48312
6457.43929,0.48327
6455.51054,0.48584
6453.58180,0.48869
6451.65305,0.48965
6449.72431,0.48909
6447.79556,0.48815
6445.86682,0.48656
6443.93807,0.48471
6442.00933,0.48450
6440.08058,0.48660
6438.15184,0.48898
6436.22309,0.48895
6434.29434,0.48715
6432.36560,0.48606
6430.43685,0.48566
6428.50811,0.48516
6426.57936,0.48594
6424.65062,0.48824
6422.72187,0.49030
6420.79313,0.49175
6418.86438,0.49195
6416.93564,0.49060
6415.00689,0.49040
6413.07815,0.49154
6411.14940,0.49113
6409.22066,0.48977
6407.29191,0.48950
6405.36317,0.49052
6403.43442,0.49129
6401.50567,0.49026
6399.57693,0.48937
6397.64818,0.48927
6395.71944,0.48759
6393.79069,0.48585
6391.86195,0.48668
6389.93320,0.48909
6388.00446,0.49012
6386.07571,0.48872
6384.14697,0.48731
6382.21822,0.48720
6380.28948,0.48714
6378.36073,0.48717
6376.43199,0.48798
6374.50324,0.48821
6372.57450,0.48817
6370.64575,0.48882
6368.71700,0.48814
6366.78826,0.48656
6364.85951,0.48612
6362.93077,0.48560
6361.00202,0.48489
6359.07328,0.48548
6357.14453,0.48684
6355.21579,0.48764
6353.28704,0.48766
6351.35830,0.48742
6349.42955,0.48728
6347.50081,0.48725
6345.57206,0.48691
6343.64332,0.48587
6341.71457,0.48531
6339.78582,0.48647
6337.85708,0.48828
6335.92833,0.48928
6333.99959,0.48836
6332.07084,0.48590
6330.14210,0.48444
6328.21335,0.48504
6326.28461,0.48694
6324.35586,0.48925
6322.42712,0.49047
6320.49837,0.48998
6318.56963,0.48931
6316.64088,0.48900
6314.71214,0.48804
6312.78339,0.48716
6310.85465,0.48705
6308.92590,0.48746
6306.99715,0.48858
6305.06841,0.48982
6303.13966,0.48988
6301.21092,0.48866
6299.28217,0.48802
6297.35343,0.48872
6295.42468,0.48879
6293.49594,0.48840
6291.56719,0.49000
6289.63845,0.49197
6287.70970,0.49070
6285.78096,0.48748
6283.85221,0.48552
6281.92347,0.48527
6279.99472,0.48533
6278.06598,0.48426
6276.13723,0.48365
6274.20848,0.48577
6272.27974,0.48850
6270.35099,0.48908
6268.42225,0.48878
6266.49350,0.48951
6264.56476,0.49066
6262.63601,0.49120
6260.70727,0.49098
6258.77852,0.49060
6256.84978,0.49080
6254.92103,0.49021
6252.99229,0.48769
6251.06354,0.48567
6249.13480,0.48633
6247.20605,0.48840
6245.27730,0.48979
6243.34856,0.48962
6241.41981,0.48893
6239.49107,0.48949
6237.56232,0.49048
6235.63358,0.49021
6233.70483,0.48931
6231.77609,0.48915
6229.84734,0.48985
6227.91860,0.48959
6225.98985,0.48786
6224.06111,0.48698
6222.13236,0.48757
6220.20362,0.48835
6218.27487,0.48873
6216.34613,0.48847
6214.41738,0.48847
6212.48863,0.48958
6210.55989,0.49070
6208.63114,0.49029
6206.70240,0.48869
6204.77365,0.48823
6202.84491,0.48953
6200.91616,0.49059
6198.98742,0.49066
6197.05867,0.49019
6195.12993,0.48994
6193.20118,0.49062
6191.27244,0.49108
6189.34369,0.49007
6187.41495,0.48858
6185.48620,0.48873
6183.55746,0.49032
6181.62871,0.49057
6179.69996,0.48938
6177.77122,0.48871
6175.84247,0.48851
6173.91373,0.48889
6171.98498,0.48983
6170.05624,0.48993
6168.12749,0.48914
6166.19875,0.48882
6164.27000,0.48985
6162.34126,0.49117
6160.41251,0.49049
6158.48377,0.48846
6156.55502,0.48819
6154.62628,0.49013
6152.69753,0.49210
6150.76878,0.49263
6148.84004,0.49138
6146.91129,0.48895
6144.98255,0.48760
6143.05380,0.48825
6141.12506,0.48886
6139.19631,0.48848
6137.26757,0.48809
6135.33882,0.48862
6133.41008,0.49009
6131.48133,0.49097
6129.55259,0.49102
6127.62384,0.49118
6125.69510,0.49101
6123.76635,0.49093
6121.83761,0.49167
6119.90886,0.49188
6117.98011,0.49132
6116.05137,0.49085
6114.12262,0.49033
6112.19388,0.49033
6110.26513,0.49103
6108.33639,0.49101
6106.40764,0.49011
6104.47890,0.48944
6102.55015,0.48960
6100.62141,0.49045
6098.69266,0.49121
6096.76392,0.49147
6094.83517,0.49207
6092.90643,0.49222
6090.97768,0.49016
6089.04893,0.48790
6087.12019,0.48868
6085.19144,0.49155
6083.26270,0.49249
6081.33395,0.49096
6079.40521,0.49101
6077.47646,0.49310
6075.54772,0.49359
6073.61897,0.49203
6071.69023,0.49054
6069.76148,0.49014
6067.83274,0.49102
6065.90399,0.49213
6063.97525,0.49171
6062.04650,0.49057
6060.11776,0.49058
6058.18901,0.49032
6056.26026,0.48905
6054.33152,0.48919
6052.40277,0.49055
6050.47403,0.49143
6048.54528,0.49213
6046.61654,0.49227
6044.68779,0.49192
6042.75905,0.49202
6040.83030,0.49231
6038.90156,0.49248
6036.97281,0.49226
6035.04407,0.49180
6033.11532,0.49111
6031.18658,0.49005
6029.25783,0.49041
6027.32909,0.49148
6025.40034,0.49040
6023.47159,0.48893
6021.54285,0.48941
6019.61410,0.48993
6017.68536,0.48959
6015.75661,0.49056
6013.82787,0.49310
6011.89912,0.49558
6009.97038,0.49681
6008.04163,0.49530
6006.11289,0.49217
6004.18414,0.49074
6002.25540,0.49085
6000.32665,0.49042
5998.39791,0.48959
5996.46916,0.48964
5994.54041,0.49038
5992.61167,0.49072
5990.68292,0.49102
5988.75418,0.49183
5986.82543,0.49198
5984.89669,0.49136
5982.96794,0.49119
5981.03920,0.49067
5979.11045,0.48901
5977.18171,0.48794
5975.25296,0.48820
5973.32422,0.48827
5971.39547,0.48750
5969.46673,0.48704
5967.53798,0.48785
5965.60924,0.48979
5963.68049,0.49182
5961.75174,0.49235
5959.82300,0.49091
5957.89425,0.48917
5955.96551,0.48906
5954.03676,0.48983
5952.10802,0.48936
5950.17927,0.48783
5948.25053,0.48658
5946.32178,0.48604
5944.39304,0.48668
5942.46429,0.48861
5940.53555,0.49026
5938.60680,0.49047
5936.67806,0.48978
5934.74931,0.48890
5932.82057,0.48856
5930.89182,0.48882
5928.96307,0.48869
5927.03433,0.48858
5925.10558,0.48921
5923.17684,0.48929
5921.24809,0.48787
5919.31935,0.48600
5917.39060,0.48553
5915.46186,0.48720
5913.53311,0.48932
5911.60437,0.48993
5909.67562,0.48954
5907.74688,0.48904
5905.81813,0.48833
5903.88939,0.48792
5901.96064,0.48858
5900.03189,0.48945
5898.10315,0.48906
5896.17440,0.48838
5894.24566,0.48861
5892.31691,0.48840
5890.38817,0.48786
5888.45942,0.48889
5886.53068,0.49043
5884.60193,0.49003
5882.67319,0.48841
5880.74444,0.48760
5878.81570,0.48766
5876.88695,0.48833
5874.95821,0.48916
5873.02946,0.48896
5871.10072,0.48828
5869.17197,0.48842
5867.24322,0.48845
5865.31448,0.48772
5863.38573,0.48752
5861.45699,0.48739
5859.52824,0.48590
5857.59950,0.48490
5855.67075,0.48546
5853.74201,0.48583
5851.81326,0.48595
5849.88452,0.48642
5847.95577,0.48684
5846.02703,0.48716
5844.09828,0.48703
5842.16954,0.48612
5840.24079,0.48563
5838.31205,0.48647
5836.38330,0.48694
5834.45455,0.48628
5832.52581,0.48613
5830.59706,0.48675
5828.66832,0.48773
5826.73957,0.48851
5824.81083,0.48809
5822.88208,0.48691
5820.95334,0.48588
5819.02459,0.48528
5817.09585,0.48526
5815.16710,0.48528
5813.23836,0.48497
5811.30961,0.48546
5809.38087,0.48665
5807.45212,0.48685
5805.52337,0.48635
5803.59463,0.48594
5801.66588,0.48543
5799.73714,0.48506
5797.80839,0.48467
5795.87965,0.48451
5793.95090,0.48564
5792.02216,0.48745
5790.09341,0.48804
5788.16467,0.48697
5786.23592,0.48524
5784.30718,0.48426
5782.37843,0.48476
5780.44969,0.48544
5778.52094,0.48491
5776.59220,0.48432
5774.66345,0.48498
5772.73470,0.48587
5770.80596,0.48622
5768.87721,0.48698
5766.94847,0.48806
5765.01972,0.48834
5763.09098,0.48740
5761.16223,0.48620
5759.23349,0.48658
5757.30474,0.48801
5755.37600,0.48866
5753.44725,0.48810
5751.51851,0.48656
5749.58976,0.48561
5747.66102,0.48597
5745.73227,0.48599
5743.80352,0.48551
5741.87478,0.48556
5739.94603,0.48555
5738.01729,0.48454
5736.08854,0.48367
5734.15980,0.48435
5732.23105,0.48577
5730.30231,0.48629
5728.37356,0.48558
5726.44482,0.48460
5724.51607,0.48411
5722.58733,0.48389
5720.65858,0.48404
5718.72984,0.48484
5716.80109,0.48570
5714.87235,0.48615
5712.94360,0.48682
5711.01485,0.48750
5709.08611,0.48735
5707.15736,0.48639
5705.22862,0.48541
5703.29987,0.48534
5701.37113,0.48531
5699.44238,0.48465
5697.51364,0.48474
5695.58489,0.48528
5693.65615,0.48490
5691.72740,0.48408
5689.79866,0.48345
5687.86991,0.48272
5685.94117,0.48239
5684.01242,0.48282
5682.08368,0.48302
5680.15493,0.48291
5678.22618,0.48278
5676.29744,0.48249
5674.36869,0.48303
5672.43995,0.48430
5670.51120,0.48461
5668.58246,0.48404
5666.65371,0.48401
5664.72497,0.48446
5662.79622,0.48461
5660.86748,0.48456
5658.93873,0.48408
5657.00999,0.48358
5655.08124,0.48433
5653.15250,0.48550
5651.22375,0.48511
5649.29500,0.48333
5647.36626,0.48210
5645.43751,0.48246
5643.50877,0.48355
5641.58002,0.48401
5639.65128,0.48361
5637.72253,0.48380
5635.79379,0.48486
5633.86504,0.48499
5631.93630,0.48433
5630.00755,0.48421
5628.07881,0.48474
5626.15006,0.48553
5624.22132,0.48606
5622.29257,0.48596
5620.36383,0.48463
5618.43508,0.48266
5616.50633,0.48194
5614.57759,0.48241
5612.64884,0.48278
5610.72010,0.48301
5608.79135,0.48313
5606.86261,0.48230
5604.93386,0.48075
5603.00512,0.47974
5601.07637,0.47995
5599.14763,0.48120
5597.21888,0.48229
5595.29014,0.48242
5593.36139,0.48234
5591.43265,0.48264
5589.50390,0.48273
5587.57516,0.48217
5585.64641,0.48162
5583.71766,0.48142
5581.78892,0.48122
5579.86017,0.48114
5577.93143,0.48123
5576.00268,0.48142
5574.07394,0.48194
5572.14519,0.48231
5570.21645,0.48207
5568.28770,0.48192
5566.35896,0.48247
5564.43021,0.48315
5562.50147,0.48309
5560.57272,0.48196
5558.64398,0.48063
5556.71523,0.48037
5554.78648,0.48107
5552.85774,0.48217
5550.92899,0.48309
5549.00025,0.48298
5547.07150,0.48253
5545.14276,0.48263
5543.21401,0.48268
5541.28527,0.48261
5539.35652,0.48276
5537.42778,0.48274
5535.49903,0.48227
5533.57029,0.48189
5531.64154,0.48183
5529.71280,0.48171
5527.78405,0.48155
5525.85531,0.48155
5523.92656,0.48170
5521.99781,0.48169
5520.06907,0.48159
5518.14032,0.48173
5516.21158,0.48159
5514.28283,0.48088
5512.35409,0.48025
5510.42534,0.48009
5508.49660,0.48030
5506.56785,0.48058
5504.63911,0.48036
5502.71036,0.47998
5500.78162,0.48023
5498.85287,0.48068
5496.92413,0.48106
5494.99538,0.48135
5493.06664,0.48108
5491.13789,0.48083
5489.20914,0.48107
5487.28040,0.48111
5485.35165,0.48098
5483.42291,0.48128
5481.49416,0.48187
5479.56542,0.48212
5477.63667,0.48189
5475.70793,0.48146
5473.77918,0.48090
5471.85044,0.48062
5469.92169,0.48102
5467.99295,0.48142
5466.06420,0.48167
5464.13546,0.48216
5462.20671,0.48199
5460.27796,0.48083
5458.34922,0.47980
5456.42047,0.47987
5454.49173,0.48076
5452.56298,0.48157
5450.63424,0.48191
5448.70549,0.48143
5446.77675,0.48049
5444.84800,0.48014
5442.91926,0.48000
5440.99051,0.48007
5439.06177,0.48099
5437.13302,0.48179
5435.20428,0.48210
5433.27553,0.48255
5431.34679,0.48260
5429.41804,0.48165
5427.48929,0.48016
5425.56055,0.47901
5423.63180,0.47922
5421.70306,0.48071
5419.77431,0.48169
5417.84557,0.48116
5415.91682,0.47993
5413.98808,0.47881
5412.05933,0.47839
5410.13059,0.47898
5408.20184,0.47986
5406.27310,0.48027
5404.34435,0.48002
5402.41561,0.47914
5400.48686,0.47831
5398.55811,0.47848
5396.62937,0.47923
5394.70062,0.47950
5392.77188,0.47929
5390.84313,0.47903
5388.91439,0.47870
5386.98564,0.47800
5385.05690,0.47741
5383.12815,0.47796
5381.19941,0.47918
5379.27066,0.47940
5377.34192,0.47839
5375.41317,0.47747
5373.48443,0.47717
5371.55568,0.47726
5369.62694,0.47775
5367.69819,0.47826
5365.76944,0.47827
5363.84070,0.47816
5361.91195,0.47823
5359.98321,0.47820
5358.05446,0.47824
5356.12572,0.47815
5354.19697,0.47766
5352.26823,0.47716
5350.33948,0.47650
5348.41074,0.47559
5346.48199,0.47508
5344.55325,0.47530
5342.62450,0.47536
5340.69576,0.47452
5338.76701,0.47383
5336.83827,0.47379
5334.90952,0.47334
5332.98077,0.47247
5331.05203,0.47196
5329.12328,0.47183
5327.19454,0.47207
5325.26579,0.47244
5323.33705,0.47230
5321.40830,0.47165
5319.47956,0.47095
5317.55081,0.47030
5315.62207,0.46971
5313.69332,0.46936
5311.76458,0.46929
5309.83583,0.46877
5307.90709,0.46748
5305.97834,0.46630
5304.04959,0.46540
5302.12085,0.46451
5300.19210,0.46392
5298.26336,0.46371
5296.33461,0.46368
5294.40587,0.46360
5292.47712,0.46304
5290.54838,0.46213
5288.61963,0.46125
5286.69089,0.46007
5284.76214,0.45880
5282.83340,0.45829
5280.90465,0.45786
5278.97591,0.45655
5277.04716,0.45487
5275.11842,0.45340
5273.18967,0.45237
5271.26092,0.45149
5269.33218,0.44987
5267.40343,0.44739
5265.47469,0.44497
5263.54594,0.44372
5261.61720,0.44347
5259.68845,0.44299
5257.75971,0.44159
5255.83096,0.43933
5253.90222,0.43710
5251.97347,0.43539
5250.04473,0.43333
5248.11598,0.43087
5246.18724,0.42932
5244.25849,0.42882
5242.32975,0.42779
5240.40100,0.42588
5238.47225,0.42423
5236.54351,0.42301
5234.61476,0.42132
5232.68602,0.41915
5230.75727,0.41758
5228.82853,0.41677
5226.89978,0.41573
5224.97104,0.41413
5223.04229,0.41231
5221.11355,0.41075
5219.18480,0.40986
5217.25606,0.40930
5215.32731,0.40852
5213.39857,0.40773
5211.46982,0.40699
5209.54107,0.40587
5207.61233,0.40454
5205.68358,0.40350
5203.75484,0.40298
5201.82609,0.40282
5199.89735,0.40231
5197.96860,0.40136
5196.03986,0.40073
5194.11111,0.40042
5192.18237,0.40021
5190.25362,0.40042
5188.32488,0.40072
5186.39613,0.40039
5184.46739,0.40021
5182.53864,0.40088
5180.60990,0.40152
5178.68115,0.40191
5176.75240,0.40241
5174.82366,0.40272
5172.89491,0.40272
5170.96617,0.40286
5169.03742,0.40315
5167.10868,0.40334
5165.17993,0.40410
5163.25119,0.40565
5161.32244,0.40689
5159.39370,0.40757
5157.46495,0.40845
5155.53621,0.40967
5153.60746,0.41069
5151.67872,0.41109
5149.74997,0.41095
5147.82123,0.41070
5145.89248,0.41065
5143.96373,0.41088
5142.03499,0.41140
5140.10624,0.41198
5138.17750,0.41241
5136.24875,0.41293
5134.32001,0.41396
5132.39126,0.41522
5130.46252,0.41592
5128.53377,0.41626
5126.60503,0.41695
5124.67628,0.41755
5122.74754,0.41783
5120.81879,0.41852
5118.89005,0.41935
5116.96130,0.41976
5115.03255,0.42032
5113.10381,0.42116
5111.17506,0.42181
5109.24632,0.42225
5107.31757,0.42276
5105.38883,0.42343
5103.46008,0.42363
5101.53134,0.42328
5099.60259,0.42350
5097.67385,0.42449
5095.74510,0.42537
5093.81636,0.42572
5091.88761,0.42537
5089.95887,0.42499
5088.03012,0.42569
5086.10138,0.42695
5084.17263,0.42779
5082.24388,0.42845
5080.31514,0.42951
5078.38639,0.43019
5076.45765,0.42958
5074.52890,0.42893
5072.60016,0.42914
5070.67141,0.42941
5068.74267,0.42980
5066.81392,0.43058
5064.88518,0.43119
5062.95643,0.43160
5061.02769,0.43232
5059.09894,0.43330
5057.17020,0.43417
5055.24145,0.43448
5053.31270,0.43422
5051.38396,0.43412
5049.45521,0.43418
5047.52647,0.43397
5045.59772,0.43388
5043.66898,0.43447
5041.74023,0.43564
5039.81149,0.43647
5037.88274,0.43633
5035.95400,0.43613
5034.02525,0.43681
5032.09651,0.43776
5030.16776,0.43813
5028.23902,0.43830
5026.31027,0.43880
5024.38153,0.43920
5022.45278,0.43940
5020.52403,0.43970
5018.59529,0.43986
5016.66654,0.43982
5014.73780,0.43997
5012.80905,0.44049
5010.88031,0.44126
5008.95156,0.44192
5007.02282,0.44204
5005.09407,0.44168
5003.16533,0.44142
5001.23658,0.44176
4999.30784,0.44232
4997.37909,0.44230
4995.45035,0.44163
4993.52160,0.44126
4991.59286,0.44152
4989.66411,0.44172
4987.73536,0.44199
4985.80662,0.44275
4983.87787,0.44317
4981.94913,0.44284
4980.02038,0.44275
4978.09164,0.44310
4976.16289,0.44337
4974.23415,0.44402
4972.30540,0.44513
4970.37666,0.44575
4968.44791,0.44570
4966.51917,0.44558
4964.59042,0.44551
4962.66168,0.44547
4960.73293,0.44555
4958.80418,0.44540
4956.87544,0.44484
4954.94669,0.44422
4953.01795,0.44369
4951.08920,0.44343
4949.16046,0.44365
4947.23171,0.44437
4945.30297,0.44562
4943.37422,0.44667
4941.44548,0.44638
4939.51673,0.44502
4937.58799,0.44406
4935.65924,0.44419
4933.73050,0.44517
4931.80175,0.44631
4929.87301,0.44677
4927.94426,0.44646
4926.01551,0.44614
4924.08677,0.44572
4922.15802,0.44468
4920.22928,0.44368
4918.30053,0.44340
4916.37179,0.44359
4914.44304,0.44396
4912.51430,0.44420
4910.58555,0.44423
4908.65681,0.44423
4906.72806,0.44415
4904.79932,0.44396
4902.87057,0.44365
4900.94183,0.44300
4899.01308,0.44227
4897.08434,0.44192
4895.15559,0.44206
4893.22684,0.44265
4891.29810,0.44309
4889.36935,0.44282
4887.44061,0.44199
4885.51186,0.44127
4883.58312,0.44139
4881.65437,0.44199
4879.72563,0.44209
4877.79688,0.44180
4875.86814,0.44169
4873.93939,0.44149
4872.01065,0.44062
4870.08190,0.43943
4868.15316,0.43882
4866.22441,0.43878
4864.29566,0.43860
4862.36692,0.43805
4860.43817,0.43770
4858.50943,0.43786
4856.58068,0.43779
4854.65194,0.43715
4852.72319,0.43673
4850.79445,0.43677
4848.86570,0.43661
4846.93696,0.43606
4845.00821,0.43557
4843.07947,0.43567
4841.15072,0.43616
4839.22198,0.43639
4837.29323,0.43607
4835.36449,0.43557
4833.43574,0.43543
4831.50699,0.43559
4829.57825,0.43566
4827.64950,0.43536
4825.72076,0.43457
4823.79201,0.43399
4821.86327,0.43412
4819.93452,0.43435
4818.00578,0.43441
4816.07703,0.43462
4814.14829,0.43463
4812.21954,0.43395
4810.29080,0.43279
4808.36205,0.43192
4806.43331,0.43200
4804.50456,0.43250
4802.57582,0.43240
4800.64707,0.43172
4798.71832,0.43121
4796.78958,0.43109
4794.86083,0.43108
4792.93209,0.43122
4791.00334,0.43155
4789.07460,0.43150
4787.14585,0.43099
4785.21711,0.43068
4783.28836,0.43060
4781.35962,0.43021
4779.43087,0.42965
4777.50213,0.42938
4775.57338,0.42949
4773.64464,0.42966
4771.71589,0.42963
4769.78714,0.42959
4767.85840,0.42962
4765.92965,0.42961
4764.00091,0.42964
4762.07216,0.42982
4760.14342,0.43002
4758.21467,0.43022
4756.28593,0.43044
4754.35718,0.43017
4752.42844,0.42964
4750.49969,0.42952
4748.57095,0.42942
4746.64220,0.42914
4744.71346,0.42894
4742.78471,0.42880
4740.85597,0.42897
4738.92722,0.42953
4736.99847,0.42992
4735.06973,0.42997
4733.14098,0.43027
4731.21224,0.43082
4729.28349,0.43068
4727.35475,0.42990
4725.42600,0.42972
4723.49726,0.43076
4721.56851,0.43196
4719.63977,0.43210
4717.71102,0.43155
4715.78228,0.43125
4713.85353,0.43165
4711.92479,0.43245
4709.99604,0.43276
4708.06729,0.43244
4706.13855,0.43231
4704.20980,0.43260
4702.28106,0.43268
4700.35231,0.43243
4698.42357,0.43237
4696.49482,0.43273
4694.56608,0.43348
4692.63733,0.43426
4690.70859,0.43442
4688.77984,0.43394
4686.85110,0.43351
4684.92235,0.43364
4682.99361,0.43430
4681.06486,0.43482
4679.13612,0.43473
4677.20737,0.43444
4675.27862,0.43429
4673.34988,0.43408
4671.42113,0.43385
4669.49239,0.43391
4667.56364,0.43404
4665.63490,0.43389
4663.70615,0.43385
4661.77741,0.43438
4659.84866,0.43522
4657.91992,0.43575
4655.99117,0.43569
4654.06243,0.43549
4652.13368,0.43563
4650.20494,0.43580
4648.27619,0.43571
4646.34745,0.43574
4644.41870,0.43618
4642.48995,0.43651
4640.56121,0.43631
4638.63246,0.43601
4636.70372,0.43582
4634.77497,0.43548
4632.84623,0.43530
4630.91748,0.43555
4628.98874,0.43588
4627.05999,0.43607
4625.13125,0.43606
4623.20250,0.43592
4621.27376,0.43598
4619.34501,0.43618
4617.41627,0.43596
4615.48752,0.43553
4613.55877,0.43559
4611.63003,0.43597
4609.70128,0.43589
4607.77254,0.43534
4605.84379,0.43498
4603.91505,0.43508
4601.98630,0.43529
4600.05756,0.43525
4598.12881,0.43505
4596.20007,0.43518
4594.27132,0.43571
4592.34258,0.43598
4590.41383,0.43574
4588.48509,0.43552
4586.55634,0.43561
4584.62760,0.43597
4582.69885,0.43617
4580.77010,0.43567
4578.84136,0.43491
4576.91261,0.43479
4574.98387,0.43510
4573.05512,0.43500
4571.12638,0.43457
4569.19763,0.43442
4567.26889,0.43445
4565.34014,0.43440
4563.41140,0.43440
4561.48265,0.43448
4559.55391,0.43453
4557.62516,0.43476
4555.69642,0.43518
4553.76767,0.43544
4551.83893,0.43537
4549.91018,0.43495
4547.98143,0.43422
4546.05269,0.43360
4544.12394,0.43336
4542.19520,0.43333
4540.26645,0.43319
4538.33771,0.43273
4536.40896,0.43221
4534.48022,0.43195
4532.55147,0.43174
4530.62273,0.43148
4528.69398,0.43130
4526.76524,0.43122
4524.83649,0.43108
4522.90775,0.43096
4520.97900,0.43100
4519.05025,0.43098
4517.12151,0.43074
4515.19276,0.43058
4513.26402,0.43057
4511.33527,0.43040
4509.40653,0.43018
4507.47778,0.43010
4505.54904,0.42994
4503.62029,0.42983
4501.69155,0.42985
4499.76280,0.42958
4497.83406,0.42910
4495.90531,0.42876
4493.97657,0.42832
4492.04782,0.42777
4490.11908,0.42759
4488.19033,0.42760
4486.26158,0.42741
4484.33284,0.42731
4482.40409,0.42719
4480.47535,0.42676
4478.54660,0.42624
4476.61786,0.42578
4474.68911,0.42548
4472.76037,0.42531
4470.83162,0.42487
4468.90288,0.42421
4466.97413,0.42359
4465.04539,0.42292
4463.11664,0.42241
4461.18790,0.42235
4459.25915,0.42252
4457.33041,0.42239
4455.40166,0.42171
4453.47291,0.42084
4451.54417,0.42015
4449.61542,0.41970
4447.68668,0.41919
4445.75793,0.41825
4443.82919,0.41718
4441.90044,0.41645
4439.97170,0.41607
4438.04295,0.41598
4436.11421,0.41588
4434.18546,0.41529
4432.25672,0.41439
4430.32797,0.41378
4428.39923,0.41338
4426.47048,0.41280
4424.54173,0.41198
4422.61299,0.41120
4420.68424,0.41072
4418.75550,0.41043
4416.82675,0.41024
4414.89801,0.41028
4412.96926,0.41026
4411.04052,0.40966
4409.11177,0.40862
4407.18303,0.40788
4405.25428,0.40776
4403.32554,0.40776
4401.39679,0.40757
4399.46805,0.40735
4397.53930,0.40707
4395.61056,0.40700
4393.68181,0.40730
4391.75306,0.40764
4389.82432,0.40788
4387.89557,0.40806
4385.96683,0.40828
4384.03808,0.40841
4382.10934,0.40821
4380.18059,0.40782
4378.25185,0.40766
4376.32310,0.40819
4374.39436,0.40905
4372.46561,0.40937
4370.53687,0.40958
4368.60812,0.41025
4366.67938,0.41065
4364.75063,0.41011
4362.82189,0.40926
4360.89314,0.40886
4358.96439,0.40884
4357.03565,0.40894
4355.10690,0.40898
4353.17816,0.40864
4351.24941,0.40799
4349.32067,0.40743
4347.39192,0.40712
4345.46318,0.40700
4343.53443,0.40696
4341.60569,0.40685
4339.67694,0.40667
4337.74820,0.40651
4335.81945,0.40632
4333.89071,0.40597
4331.96196,0.40562
4330.03321,0.40548
4328.10447,0.40555
4326.17572,0.40562
4324.24698,0.40533
4322.31823,0.40464
4320.38949,0.40402
4318.46074,0.40368
4316.53200,0.40345
4314.60325,0.40332
4312.67451,0.40312
4310.74576,0.40261
4308.81702,0.40195
4306.88827,0.40137
4304.95953,0.40105
4303.03078,0.40102
4301.10204,0.40101
4299.17329,0.40075
4297.24454,0.40027
4295.31580,0.39969
4293.38705,0.39925
4291.45831,0.39907
4289.52956,0.39883
4287.60082,0.39825
4285.67207,0.39738
4283.74333,0.39663
4281.81458,0.39619
4279.88584,0.39582
4277.95709,0.39560
4276.02835,0.39572
4274.09960,0.39587
4272.17086,0.39563
4270.24211,0.39511
4268.31336,0.39472
4266.38462,0.39451
4264.45587,0.39437
4262.52713,0.39425
4260.59838,0.39399
4258.66964,0.39367
4256.74089,0.39341
4254.81215,0.39299
4252.88340,0.39255
4250.95466,0.39243
4249.02591,0.39253
4247.09717,0.39243
4245.16842,0.39204
4243.23968,0.39181
4241.31093,0.39188
4239.38219,0.39192
4237.45344,0.39162
4235.52469,0.39094
4233.59595,0.39049
4231.66720,0.39071
4229.73846,0.39111
4227.80971,0.39111
4225.88097,0.39062
4223.95222,0.38996
4222.02348,0.38960
4220.09473,0.38956
4218.16599,0.38935
4216.23724,0.38880
4214.30850,0.38827
4212.37975,0.38800
4210.45101,0.38797
4208.52226,0.38800
4206.59352,0.38790
4204.66477,0.38779
4202.73602,0.38778
4200.80728,0.38754
4198.87853,0.38728
4196.94979,0.38732
4195.02104,0.38717
4193.09230,0.38656
4191.16355,0.38595
4189.23481,0.38555
4187.30606,0.38522
4185.37732,0.38500
4183.44857,0.38483
4181.51983,0.38443
4179.59108,0.38385
4177.66234,0.38337
4175.73359,0.38308
4173.80484,0.38298
4171.87610,0.38303
4169.94735,0.38291
4168.01861,0.38234
4166.08986,0.38164
4164.16112,0.38115
4162.23237,0.38067
4160.30363,0.38006
4158.37488,0.37956
4156.44614,0.37921
4154.51739,0.37870
4152.58865,0.37816
4150.65990,0.37771
4148.73116,0.37727
4146.80241,0.37697
4144.87367,0.37688
4142.94492,0.37677
4141.01617,0.37629
4139.08743,0.37548
4137.15868,0.37470
4135.22994,0.37423
4133.30119,0.37410
4131.37245,0.37398
4129.44370,0.37333
4127.51496,0.37224
4125.58621,0.37122
4123.65747,0.37029
4121.72872,0.36946
4119.79998,0.36892
4117.87123,0.36857
4115.94249,0.36815
4114.01374,0.36732
4112.08500,0.36609
4110.15625,0.36486
4108.22750,0.36372
4106.29876,0.36275
4104.37001,0.36223
4102.44127,0.36185
4100.51252,0.36114
4098.58378,0.36031
4096.65503,0.35954
4094.72629,0.35862
4092.79754,0.35759
4090.86880,0.35666
4088.94005,0.35577
4087.01131,0.35481
4085.08256,0.35387
4083.15382,0.35311
4081.22507,0.35245
4079.29632,0.35158
4077.36758,0.35044
4075.43883,0.34925
4073.51009,0.34816
4071.58134,0.34714
4069.65260,0.34619
4067.72385,0.34545
4065.79511,0.34477
4063.86636,0.34369
4061.93762,0.34232
4060.00887,0.34122
4058.08013,0.34049
4056.15138,0.33974
4054.22264,0.33880
4052.29389,0.33771
4050.36515,0.33671
4048.43640,0.33596
4046.50765,0.33529
4044.57891,0.33461
4042.65016,0.33386
4040.72142,0.33297
4038.79267,0.33212
4036.86393,0.33140
4034.93518,0.33071
4033.00644,0.33014
4031.07769,0.32959
4029.14895,0.32886
4027.22020,0.32814
4025.29146,0.32762
4023.36271,0.32736
4021.43397,0.32740
4019.50522,0.32762
4017.57648,0.32786
4015.64773,0.32781
4013.71898,0.32760
4011.79024,0.32768
4009.86149,0.32788
4007.93275,0.32778
4006.00400,0.32747
4004.07526,0.32720
4002.14651,0.32721
4000.21777,0.32747
3998.28902,0.32754
3996.36028,0.32735
3994.43153,0.32724
3992.50279,0.32742
3990.57404,0.32783
3988.64530,0.32824
3986.71655,0.32833
3984.78780,0.32817
3982.85906,0.32817
3980.93031,0.32839
3979.00157,0.32848
3977.07282,0.32833
3975.14408,0.32817
3973.21533,0.32823
3971.28659,0.32842
3969.35784,0.32834
3967.42910,0.32801
3965.50035,0.32792
3963.57161,0.32816
3961.64286,0.32838
3959.71412,0.32851
3957.78537,0.32868
3955.85663,0.32885
3953.92788,0.32893
3951.99913,0.32886
3950.07039,0.32869
3948.14164,0.32856
3946.21290,0.32862
3944.28415,0.32887
3942.35541,0.32918
3940.42666,0.32929
3938.49792,0.32925
3936.56917,0.32924
3934.64043,0.32895
3932.71168,0.32826
3930.78294,0.32799
3928.85419,0.32841
3926.92545,0.32883
3924.99670,0.32891
3923.06795,0.32903
3921.13921,0.32921
3919.21046,0.32927
3917.28172,0.32949
3915.35297,0.32991
3913.42423,0.33011
3911.49548,0.33005
3909.56674,0.32970
3907.63799,0.32912
3905.70925,0.32867
3903.78050,0.32858
3901.85176,0.32858
3899.92301,0.32864
3897.99427,0.32900
3896.06552,0.32920
3894.13678,0.32890
3892.20803,0.32865
3890.27928,0.32893
3888.35054,0.32923
3886.42179,0.32917
3884.49305,0.32897
3882.56430,0.32873
3880.63556,0.32871
3878.70681,0.32890
3876.77807,0.32864
3874.84932,0.32796
3872.92058,0.32730
3870.99183,0.32686
3869.06309,0.32680
3867.13434,0.32689
3865.20560,0.32700
3863.27685,0.32740
3861.34811,0.32776
3859.41936,0.32769
3857.49061,0.32718
3855.56187,0.32620
3853.63312,0.32533
3851.70438,0.32582
3849.77563,0.32672
3847.84689,0.32715
3845.91814,0.32722
3843.98940,0.32682
3842.06065,0.32587
3840.13191,0.32492
3838.20316,0.32466
3836.27442,0.32510
3834.34567,0.32525
3832.41693,0.32499
3830.48818,0.32482
3828.55943,0.32460
3826.63069,0.32400
3824.70194,0.32299
3822.77320,0.32170
3820.84445,0.32102
3818.91571,0.32122
3816.98696,0.32123
3815.05822,0.32104
3813.12947,0.32101
3811.20073,0.32061
3809.27198,0.31953
3807.34324,0.31829
3805.41449,0.31762
3803.48575,0.31719
3801.55700,0.31673
3799.62826,0.31649
3797.69951,0.31615
3795.77076,0.31551
3793.84202,0.31480
3791.91327,0.31412
3789.98453,0.31345
3788.05578,0.31279
3786.12704,0.31204
3784.19829,0.31127
3782.26955,0.31050
3780.34080,0.30963
3778.41206,0.30865
3776.48331,0.30781
3774.55457,0.30712
3772.62582,0.30627
3770.69708,0.30540
3768.76833,0.30469
3766.83959,0.30361
3764.91084,0.30220
3762.98209,0.30098
3761.05335,0.29980
3759.12460,0.29851
3757.19586,0.29723
3755.26711,0.29572
3753.33837,0.29370
3751.40962,0.29137
3749.48088,0.28961
3747.55213,0.28841
3745.62339,0.28692
3743.69464,0.28546
3741.76590,0.28435
3739.83715,0.28280
3737.90841,0.28068
3735.97966,0.27835
3734.05091,0.27623
3732.12217,0.27457
3730.19342,0.27295
3728.26468,0.27082
3726.33593,0.26839
3724.40719,0.26596
3722.47844,0.26314
3720.54970,0.26003
3718.62095,0.25686
3716.69221,0.25339
3714.76346,0.24944
3712.83472,0.24492
3710.90597,0.24028
3708.97723,0.23594
3707.04848,0.23132
3705.11974,0.22615
3703.19099,0.22040
3701.26224,0.21403
3699.33350,0.20783
3697.40475,0.20245
3695.47601,0.19801
3693.54726,0.19449
3691.61852,0.19127
3689.68977,0.18768
3687.76103,0.18405
3685.83228,0.18070
3683.90354,0.17721
3681.97479,0.17308
3680.04605,0.16813
3678.11730,0.16258
3676.18856,0.15656
3674.25981,0.15123
3672.33107,0.14700
3670.40232,0.14233
3668.47357,0.13786
3666.54483,0.13481
3664.61608,0.13202
3662.68734,0.12878
3660.75859,0.12548
3658.82985,0.12241
3656.90110,0.11934
3654.97236,0.11628
3653.04361,0.11358
3651.11487,0.11106
3649.18612,0.10852
3647.25738,0.10638
3645.32863,0.10451
3643.39989,0.10240
3641.47114,0.10016
3639.54239,0.09819
3637.61365,0.09643
3635.68490,0.09459
3633.75616,0.09264
3631.82741,0.09064
3629.89867,0.08842
3627.96992,0.08653
3626.04118,0.08556
3624.11243,0.08453
3622.18369,0.08300
3620.25494,0.08121
3618.32620,0.07945
3616.39745,0.07813
3614.46871,0.07722
3612.53996,0.07645
3610.61122,0.07552
3608.68247,0.07434
3606.75372,0.07328
3604.82498,0.07253
3602.89623,0.07166
3600.96749,0.07053
3599.03874,0.06950
3597.11000,0.06877
3595.18125,0.06821
3593.25251,0.06761
3591.32376,0.06685
3589.39502,0.06592
3587.46627,0.06482
3585.53753,0.06391
3583.60878,0.06344
3581.68004,0.06298
3579.75129,0.06219
3577.82254,0.06142
3575.89380,0.06087
3573.96505,0.06031
3572.03631,0.05974
3570.10756,0.05923
3568.17882,0.05877
3566.25007,0.05842
3564.32133,0.05796
3562.39258,0.05734
3560.46384,0.05698
3558.53509,0.05696
3556.60635,0.05673
3554.67760,0.05618
3552.74886,0.05551
3550.82011,0.05480
3548.89137,0.05425
3546.96262,0.05399
3545.03387,0.05376
3543.10513,0.05327
3541.17638,0.05282
3539.24764,0.05255
3537.31889,0.05198
3535.39015,0.05127
3533.46140,0.05105
3531.53266,0.05098
3529.60391,0.05069
3527.67517,0.05042
3525.74642,0.05007
3523.81768,0.04951
3521.88893,0.04908
3519.96019,0.04894
3518.03144,0.04897
3516.10270,0.04896
3514.17395,0.04875
3512.24520,0.04835
3510.31646,0.04787
3508.38771,0.04737
3506.45897,0.04679
3504.53022,0.04622
3502.60148,0.04601
3500.67273,0.04615
3498.74399,0.04604
3496.81524,0.04548
3494.88650,0.04500
3492.95775,0.04489
3491.02901,0.04497
3489.10026,0.04499
3487.17152,0.04495
3485.24277,0.04485
3483.31402,0.04459
3481.38528,0.04426
3479.45653,0.04396
3477.52779,0.04373
3475.59904,0.04370
3473.67030,0.04368
3471.74155,0.04335
3469.81281,0.04288
3467.88406,0.04265
3465.95532,0.04266
3464.02657,0.04255
3462.09783,0.04227
3460.16908,0.04208
3458.24034,0.04210
3456.31159,0.04225
3454.38285,0.04215
3452.45410,0.04172
3450.52535,0.04150
3448.59661,0.04153
3446.66786,0.04153
3444.73912,0.04165
3442.81037,0.04177
3440.88163,0.04149
3438.95288,0.04104
3437.02414,0.04068
3435.09539,0.04042
3433.16665,0.04034
3431.23790,0.04040
3429.30916,0.04046
3427.38041,0.04055
3425.45167,0.04061
3423.52292,0.04049
3421.59418,0.04040
3419.66543,0.04054
3417.73668,0.04069
3415.80794,0.04067
3413.87919,0.04064
3411.95045,0.04071
3410.02170,0.04069
3408.09296,0.04056
3406.16421,0.04060
3404.23547,0.04074
3402.30672,0.04066
3400.37798,0.04062
3398.44923,0.04081
3396.52049,0.04085
3394.59174,0.04061
3392.66300,0.04046
3390.73425,0.04052
3388.80550,0.04054
3386.87676,0.04061
3384.94801,0.04071
3383.01927,0.04042
3381.09052,0.04003
3379.16178,0.04008
3377.23303,0.04030
3375.30429,0.04043
3373.37554,0.04063
3371.44680,0.04090
3369.51805,0.04098
3367.58931,0.04075
3365.66056,0.04051
3363.73182,0.04059
3361.80307,0.04088
3359.87433,0.04103
3357.94558,0.04097
3356.01683,0.04106
3354.08809,0.04140
3352.15934,0.04183
3350.23060,0.04219
3348.30185,0.04228
3346.37311,0.04218
3344.44436,0.04226
3342.51562,0.04246
3340.58687,0.04266
3338.65813,0.04283
3336.72938,0.04286
3334.80064,0.04282
3332.87189,0.04290
3330.94315,0.04324
3329.01440,0.04381
3327.08566,0.04420
3325.15691,0.04433
3323.22816,0.04450
3321.29942,0.04457
3319.37067,0.04452
3317.44193,0.04479
3315.51318,0.04531
3313.58444,0.04549
3311.65569,0.04520
3309.72695,0.04477
3307.79820,0.04459
3305.86946,0.04489
3303.94071,0.04531
3302.01197,0.04520
3300.08322,0.04472
3298.15448,0.04473
3296.22573,0.04523
3294.29698,0.04559
3292.36824,0.04599
3290.43949,0.04670
3288.51075,0.04718
3286.58200,0.04702
3284.65326,0.04670
3282.72451,0.04668
3280.79577,0.04691
3278.86702,0.04742
3276.93828,0.04801
3275.00953,0.04815
3273.08079,0.04798
3271.15204,0.04816
3269.22330,0.04880
3267.29455,0.04946
3265.36581,0.04989
3263.43706,0.05008
3261.50831,0.05009
3259.57957,0.05019
3257.65082,0.05044
3255.72208,0.05069
3253.79333,0.05100
3251.86459,0.05136
3249.93584,0.05157
3248.00710,0.05162
3246.07835,0.05173
3244.14961,0.05206
3242.22086,0.05262
3240.29212,0.05346
3238.36337,0.05433
3236.43463,0.05463
3234.50588,0.05433
3232.57713,0.05409
3230.64839,0.05432
3228.71964,0.05480
3226.79090,0.05546
3224.86215,0.05618
3222.93341,0.05665
3221.00466,0.05693
3219.07592,0.05727
3217.14717,0.05776
3215.21843,0.05825
3213.28968,0.05848
3211.36094,0.05834
3209.43219,0.05814
3207.50345,0.05828
3205.57470,0.05875
3203.64596,0.05924
3201.71721,0.05964
3199.78846,0.06006
3197.85972,0.06052
3195.93097,0.06090
3194.00223,0.06128
3192.07348,0.06188
3190.14474,0.06249
3188.21599,0.06282
3186.28725,0.06303
3184.35850,0.06323
3182.42976,0.06338
3180.50101,0.06376
3178.57227,0.06433
3176.64352,0.06471
3174.71478,0.06486
3172.78603,0.06514
3170.85729,0.06588
3168.92854,0.06686
3166.99979,0.06764
3165.07105,0.06803
3163.14230,0.06808
3161.21356,0.06815
3159.28481,0.06836
3157.35607,0.06874
3155.42732,0.06943
3153.49858,0.07018
3151.56983,0.07057
3149.64109,0.07074
3147.71234,0.07107
3145.78360,0.07164
3143.85485,0.07208
3141.92611,0.07206
3139.99736,0.07192
3138.06861,0.07207
3136.13987,0.07256
3134.21112,0.07325
3132.28238,0.07400
3130.35363,0.07472
3128.42489,0.07519
3126.49614,0.07536
3124.56740,0.07557
3122.63865,0.07607
3120.70991,0.07680
3118.78116,0.07738
3116.85242,0.07757
3114.92367,0.07762
3112.99493,0.07790
3111.06618,0.07834
3109.13744,0.07886
3107.20869,0.07954
3105.27994,0.08035
3103.35120,0.08110
3101.42245,0.08161
3099.49371,0.08184
3097.56496,0.08196
3095.63622,0.08226
3093.70747,0.08294
3091.77873,0.08370
3089.84998,0.08389
3087.92124,0.08379
3085.99249,0.08400
3084.06375,0.08433
3082.13500,0.08458
3080.20626,0.08501
3078.27751,0.08573
3076.34877,0.08650
3074.42002,0.08720
3072.49127,0.08777
3070.56253,0.08824
3068.63378,0.08872
3066.70504,0.08906
3064.77629,0.08918
3062.84755,0.08927
3060.91880,0.08935
3058.99006,0.08956
3057.06131,0.09010
3055.13257,0.09084
3053.20382,0.09163
3051.27508,0.09229
3049.34633,0.09267
3047.41759,0.09287
3045.48884,0.09318
3043.56009,0.09364
3041.63135,0.09397
3039.70260,0.09402
3037.77386,0.09405
3035.84511,0.09420
3033.91637,0.09415
3031.98762,0.09383
3030.05888,0.09350
3028.13013,0.09346
3026.20139,0.09372
3024.27264,0.09427
3022.34390,0.09512
3020.41515,0.09610
3018.48641,0.09701
3016.55766,0.09780
3014.62892,0.09827
3012.70017,0.09847
3010.77142,0.09857
3008.84268,0.09860
3006.91393,0.09855
3004.98519,0.09831
3003.05644,0.09799
3001.12770,0.09783
2999.19895,0.09779
2997.27021,0.09776
2995.34146,0.09775
2993.41272,0.09763
2991.48397,0.09722
2989.55523,0.09666
2987.62648,0.09621
2985.69774,0.09586
2983.76899,0.09544
2981.84025,0.09482
2979.91150,0.09387
2977.98275,0.09270
2976.05401,0.09141
2974.12526,0.08996
2972.19652,0.08837
2970.26777,0.08676
2968.33903,0.08533
2966.41028,0.08429
2964.48154,0.08361
2962.55279,0.08305
2960.62405,0.08254
2958.69530,0.08224
2956.76656,0.08202
2954.83781,0.08148
2952.90907,0.08064
2950.98032,0.07979
2949.05157,0.07908
2947.12283,0.07866
2945.19408,0.07832
2943.26534,0.07790
2941.33659,0.07778
2939.40785,0.07803
2937.47910,0.07814
2935.55036,0.07792
2933.62161,0.07759
2931.69287,0.07739
2929.76412,0.07729
2927.83538,0.07699
2925.90663,0.07648
2923.97789,0.07619
2922.04914,0.07616
2920.12040,0.07605
2918.19165,0.07579
2916.26290,0.07547
2914.33416,0.07525
2912.40541,0.07512
2910.47667,0.07489
2908.54792,0.07466
2906.61918,0.07468
2904.69043,0.07497
2902.76169,0.07547
2900.83294,0.07611
2898.90420,0.07684
2896.97545,0.07760
2895.04671,0.07839
2893.11796,0.07914
2891.18922,0.07966
2889.26047,0.08010
2887.33172,0.08070
2885.40298,0.08129
2883.47423,0.08184
2881.54549,0.08250
2879.61674,0.08308
2877.68800,0.08343
2875.75925,0.08376
2873.83051,0.08417
2871.90176,0.08469
2869.97302,0.08539
2868.04427,0.08604
2866.11553,0.08644
2864.18678,0.08677
2862.25804,0.08728
2860.32929,0.08798
2858.40055,0.08885
2856.47180,0.09000
2854.54305,0.09134
2852.61431,0.09271
2850.68556,0.09398
2848.75682,0.09529
2846.82807,0.09694
2844.89933,0.09877
2842.97058,0.10043
2841.04184,0.10212
2839.11309,0.10386
2837.18435,0.10544
2835.25560,0.10687
2833.32686,0.10828
2831.39811,0.10958
2829.46937,0.11061
2827.54062,0.11162
2825.61188,0.11288
2823.68313,0.11424
2821.75438,0.11540
2819.82564,0.11638
2817.89689,0.11742
2815.96815,0.11855
2814.03940,0.11982
2812.11066,0.12124
2810.18191,0.12242
2808.25317,0.12312
2806.32442,0.12366
2804.39568,0.12441
2802.46693,0.12534
2800.53819,0.12626
2798.60944,0.12716
2796.68070,0.12808
2794.75195,0.12890
2792.82320,0.12953
2790.89446,0.12999
2788.96571,0.13045
2787.03697,0.13093
2785.10822,0.13127
2783.17948,0.13148
2781.25073,0.13177
2779.32199,0.13222
2777.39324,0.13281
2775.46450,0.13339
2773.53575,0.13390
2771.60701,0.13437
2769.67826,0.13480
2767.74952,0.13528
2765.82077,0.13569
2763.89203,0.13598
2761.96328,0.13630
2760.03453,0.13667
2758.10579,0.13705
2756.17704,0.13738
2754.24830,0.13758
2752.31955,0.13776
2750.39081,0.13806
2748.46206,0.13830
2746.53332,0.13840
2744.60457,0.13871
2742.67583,0.13931
2740.74708,0.13982
2738.81834,0.14007
2736.88959,0.14028
2734.96085,0.14065
2733.03210,0.14104
2731.10336,0.14135
2729.17461,0.14165
2727.24586,0.14204
2725.31712,0.14256
2723.38837,0.14309
2721.45963,0.14352
2719.53088,0.14391
2717.60214,0.14442
2715.67339,0.14502
2713.74465,0.14551
2711.81590,0.14588
2709.88716,0.14634
2707.95841,0.14697
2706.02967,0.14771
2704.10092,0.14862
2702.17218,0.14969
2700.24343,0.15063
2698.31468,0.15118
2696.38594,0.15154
2694.45719,0.15212
2692.52845,0.15288
2690.59970,0.15355
2688.67096,0.15418
2686.74221,0.15500
2684.81347,0.15590
2682.88472,0.15665
2680.95598,0.15725
2679.02723,0.15787
2677.09849,0.15859
2675.16974,0.15925
2673.24100,0.15962
2671.31225,0.15982
2669.38351,0.16016
2667.45476,0.16079
2665.52601,0.16162
2663.59727,0.16236
2661.66852,0.16284
2659.73978,0.16309
2657.81103,0.16323
2655.88229,0.16355
2653.95354,0.16418
2652.02480,0.16489
2650.09605,0.16551
2648.16731,0.16612
2646.23856,0.16679
2644.30982,0.16744
2642.38107,0.16794
2640.45233,0.16833
2638.52358,0.16883
2636.59484,0.16946
2634.66609,0.17003
2632.73734,0.17052
2630.80860,0.17102
2628.87985,0.17147
2626.95111,0.17188
2625.02236,0.17238
2623.09362,0.17290
2621.16487,0.17335
2619.23613,0.17378
2617.30738,0.17426
2615.37864,0.17479
2613.44989,0.17515
2611.52115,0.17535
2609.59240,0.17564
2607.66366,0.17602
2605.73491,0.17641
2603.80616,0.17682
2601.87742,0.17724
2599.94867,0.17772
2598.01993,0.17819
2596.09118,0.17857
2594.16244,0.17897
2592.23369,0.17944
2590.30495,0.17982
2588.37620,0.18002
2586.44746,0.18011
2584.51871,0.18022
2582.58997,0.18037
2580.66122,0.18054
2578.73248,0.18076
2576.80373,0.18105
2574.87499,0.18134
2572.94624,0.18165
2571.01749,0.18189
2569.08875,0.18182
2567.16000,0.18164
2565.23126,0.18160
2563.30251,0.18160
2561.37377,0.18161
2559.44502,0.18162
2557.51628,0.18162
2555.58753,0.18171
2553.65879,0.18186
2551.73004,0.18201
2549.80130,0.18215
2547.87255,0.18216
2545.94381,0.18208
2544.01506,0.18206
2542.08631,0.18203
2540.15757,0.18203
2538.22882,0.18228
2536.30008,0.18266
2534.37133,0.18288
2532.44259,0.18299
2530.51384,0.18316
2528.58510,0.18347
2526.65635,0.18383
2524.72761,0.18398
2522.79886,0.18394
2520.87012,0.18397
2518.94137,0.18416
2517.01263,0.18443
2515.08388,0.18470
2513.15514,0.18493
2511.22639,0.18529
2509.29764,0.18580
2507.36890,0.18620
2505.44015,0.18661
2503.51141,0.18729
2501.58266,0.18801
2499.65392,0.18853
2497.72517,0.18896
2495.79643,0.18948
2493.86768,0.19012
2491.93894,0.19087
2490.01019,0.19153
2488.08145,0.19187
2486.15270,0.19202
2484.22396,0.19226
2482.29521,0.19259
2480.36647,0.19293
2478.43772,0.19328
2476.50897,0.19365
2474.58023,0.19399
2472.65148,0.19439
2470.72274,0.19489
2468.79399,0.19533
2466.86525,0.19565
2464.93650,0.19587
2463.00776,0.19606
2461.07901,0.19632
2459.15027,0.19652
2457.22152,0.19652
2455.29278,0.19655
2453.36403,0.19684
2451.43529,0.19716
2449.50654,0.19723
2447.57779,0.19720
2445.64905,0.19733
2443.72030,0.19775
2441.79156,0.19843
2439.86281,0.19902
2437.93407,0.19922
2436.00532,0.19923
2434.07658,0.19931
2432.14783,0.19949
2430.21909,0.19988
2428.29034,0.20027
2426.36160,0.20042
2424.43285,0.20048
2422.50411,0.20063
2420.57536,0.20080
2418.64662,0.20096
2416.71787,0.20113
2414.78912,0.20135
2412.86038,0.20148
2410.93163,0.20142
2409.00289,0.20142
2407.07414,0.20160
2405.14540,0.20174
2403.21665,0.20180
2401.28791,0.20188
2399.35916,0.20191
2397.43042,0.20196
2395.50167,0.20212
2393.57293,0.20223
2391.64418,0.20212
2389.71544,0.20184
2387.78669,0.20153
2385.85795,0.20128
2383.92920,0.20122
2382.00045,0.20133
2380.07171,0.20136
2378.14296,0.20126
2376.21422,0.20108
2374.28547,0.20088
2372.35673,0.20076
2370.42798,0.20067
2368.49924,0.20054
2366.57049,0.20039
2364.64175,0.20017
2362.71300,0.19999
2360.78426,0.20002
2358.85551,0.20016
2356.92677,0.20023
2354.99802,0.20019
2353.06927,0.20013
2351.14053,0.20018
2349.21178,0.20026
2347.28304,0.20014
2345.35429,0.19979
2343.42555,0.19944
2341.49680,0.19919
2339.56806,0.19890
2337.63931,0.19859
2335.71057,0.19849
2333.78182,0.19862
2331.85308,0.19876
2329.92433,0.19880
2327.99559,0.19883
2326.06684,0.19889
2324.13810,0.19893
2322.20935,0.19885
2320.28060,0.19867
2318.35186,0.19862
2316.42311,0.19867
2314.49437,0.19862
2312.56562,0.19853
2310.63688,0.19846
2308.70813,0.19828
2306.77939,0.19805
2304.85064,0.19801
2302.92190,0.19801
2300.99315,0.19778
2299.06441,0.19741
2297.13566,0.19715
2295.20692,0.19695
2293.27817,0.19661
2291.34943,0.19620
2289.42068,0.19584
2287.49193,0.19542
2285.56319,0.19497
2283.63444,0.19460
2281.70570,0.19424
2279.77695,0.19383
2277.84821,0.19349
2275.91946,0.19334
2273.99072,0.19314
2272.06197,0.19265
2270.13323,0.19195
2268.20448,0.19120
2266.27574,0.19051
2264.34699,0.18997
2262.41825,0.18961
2260.48950,0.18927
2258.56075,0.18872
2256.63201,0.18807
2254.70326,0.18756
2252.77452,0.18715
2250.84577,0.18674
2248.91703,0.18636
2246.98828,0.18609
2245.05954,0.18589
2243.13079,0.18556
2241.20205,0.18503
2239.27330,0.18456
2237.34456,0.18444
2235.41581,0.18454
2233.48707,0.18460
2231.55832,0.18455
2229.62958,0.18446
2227.70083,0.18443
2225.77208,0.18454
2223.84334,0.18477
2221.91459,0.18498
2219.98585,0.18528
2218.05710,0.18574
2216.12836,0.18610
2214.19961,0.18636
2212.27087,0.18671
2210.34212,0.18699
2208.41338,0.18710
2206.48463,0.18720
2204.55589,0.18741
2202.62714,0.18764
2200.69840,0.18768
2198.76965,0.18755
2196.84090,0.18732
2194.91216,0.18699
2192.98341,0.18675
2191.05467,0.18678
2189.12592,0.18679
2187.19718,0.18645
2185.26843,0.18586
2183.33969,0.18535
2181.41094,0.18506
2179.48220,0.18478
2177.55345,0.18431
2175.62471,0.18375
2173.69596,0.18315
2171.76722,0.18262
2169.83847,0.18215
2167.90973,0.18164
2165.98098,0.18115
2164.05223,0.18078
2162.12349,0.18037
2160.19474,0.17984
2158.26600,0.17932
2156.33725,0.17888
2154.40851,0.17849
2152.47976,0.17817
2150.55102,0.17777
2148.62227,0.17716
2146.69353,0.17657
2144.76478,0.17618
2142.83604,0.17588
2140.90729,0.17555
2138.97855,0.17525
2137.04980,0.17500
2135.12106,0.17472
2133.19231,0.17449
2131.26356,0.17456
2129.33482,0.17501
2127.40607,0.17571
2125.47733,0.17643
2123.54858,0.17680
2121.61984,0.17678
2119.69109,0.17687
2117.76235,0.17708
2115.83360,0.17704
2113.90486,0.17690
2111.97611,0.17698
2110.04737,0.17710
2108.11862,0.17713
2106.18988,0.17724
2104.26113,0.17744
2102.33238,0.17752
2100.40364,0.17750
2098.47489,0.17754
2096.54615,0.17758
2094.61740,0.17752
2092.68866,0.17745
2090.75991,0.17739
2088.83117,0.17730
2086.90242,0.17729
2084.97368,0.17733
2083.04493,0.17726
2081.11619,0.17701
2079.18744,0.17658
2077.25870,0.17613
2075.32995,0.17586
2073.40121,0.17573
2071.47246,0.17552
2069.54371,0.17507
2067.61497,0.17450
2065.68622,0.17405
2063.75748,0.17372
2061.82873,0.17338
2059.89999,0.17302
2057.97124,0.17252
2056.04250,0.17180
2054.11375,0.17106
2052.18501,0.17028
2050.25626,0.16928
2048.32752,0.16814
2046.39877,0.16698
2044.47003,0.16572
2042.54128,0.16422
2040.61254,0.16236
2038.68379,0.16024
2036.75504,0.15829
2034.82630,0.15673
2032.89755,0.15546
2030.96881,0.15447
2029.04006,0.15369
2027.11132,0.15306
2025.18257,0.15260
2023.25383,0.15223
2021.32508,0.15183
2019.39634,0.15123
2017.46759,0.15024
2015.53885,0.14898
2013.61010,0.14753
2011.68136,0.14590
2009.75261,0.14431
2007.82386,0.14303
2005.89512,0.14204
2003.96637,0.14116
2002.03763,0.14042
2000.10888,0.13992
1998.18014,0.13964
1996.25139,0.13945
1994.32265,0.13924
1992.39390,0.13922
1990.46516,0.13958
1988.53641,0.14006
1986.60767,0.14028
1984.67892,0.14022
1982.75018,0.14014
1980.82143,0.14023
1978.89269,0.14052
1976.96394,0.14079
1975.03519,0.14090
1973.10645,0.14096
1971.17770,0.14116
1969.24896,0.14173
1967.32021,0.14256
1965.39147,0.14332
1963.46272,0.14409
1961.53398,0.14488
1959.60523,0.14539
1957.67649,0.14555
1955.74774,0.14568
1953.81900,0.14585
1951.89025,0.14594
1949.96151,0.14593
1948.03276,0.14592
1946.10402,0.14607
1944.17527,0.14637
1942.24652,0.14663
1940.31778,0.14686
1938.38903,0.14723
1936.46029,0.14772
1934.53154,0.14808
1932.60280,0.14827
1930.67405,0.14846
1928.74531,0.14872
1926.81656,0.14893
1924.88782,0.14894
1922.95907,0.14863
1921.03033,0.14793
1919.10158,0.14678
1917.17284,0.14531
1915.24409,0.14381
1913.31534,0.14213
1911.38660,0.14011
1909.45785,0.13794
1907.52911,0.13579
1905.60036,0.13368
1903.67162,0.13167
1901.74287,0.12973
1899.81413,0.12777
1897.88538,0.12597
1895.95664,0.12445
1894.02789,0.12311
1892.09915,0.12193
1890.17040,0.12084
1888.24166,0.11976
1886.31291,0.11876
1884.38417,0.11792
1882.45542,0.11722
1880.52667,0.11661
1878.59793,0.11618
1876.66918,0.11592
1874.74044,0.11571
1872.81169,0.11550
1870.88295,0.11539
1868.95420,0.11541
1867.02546,0.11565
1865.09671,0.11634
1863.16797,0.11749
1861.23922,0.11900
1859.31048,0.12085
1857.38173,0.12313
1855.45299,0.12580
1853.52424,0.12866
1851.59549,0.13138
1849.66675,0.13376
1847.73800,0.13581
1845.80926,0.13767
1843.88051,0.13948
1841.95177,0.14101
1840.02302,0.14204
1838.09428,0.14257
1836.16553,0.14275
1834.23679,0.14279
1832.30804,0.14249
1830.37930,0.14164
1828.45055,0.14063
1826.52181,0.13975
1824.59306,0.13884
1822.66432,0.13786
1820.73557,0.13680
1818.80682,0.13551
1816.87808,0.13404
1814.94933,0.13257
1813.02059,0.13106
1811.09184,0.12944
1809.16310,0.12798
1807.23435,0.12682
1805.30561,0.12572
1803.37686,0.12453
1801.44812,0.12327
1799.51937,0.12214
1797.59063,0.12129
1795.66188,0.12070
1793.73314,0.12026
1791.80439,0.11991
1789.87565,0.11976
1787.94690,0.11981
1786.01815,0.11995
1784.08941,0.12012
1782.16066,0.12033
1780.23192,0.12051
1778.30317,0.12080
1776.37443,0.12134
1774.44568,0.12203
1772.51694,0.12292
1770.58819,0.12396
1768.65945,0.12487
1766.73070,0.12576
1764.80196,0.12652
1762.87321,0.12672
1760.94447,0.12636
1759.01572,0.12579
1757.08697,0.12488
1755.15823,0.12345
1753.22948,0.12136
1751.30074,0.11819
1749.37199,0.11415
1747.44325,0.10979
1745.51450,0.10500
1743.58576,0.09981
1741.65701,0.09450
1739.72827,0.08939
1737.79952,0.08533
1735.87078,0.08230
1733.94203,0.07945
1732.01329,0.07751
1730.08454,0.07700
1728.15580,0.07744
1726.22705,0.07866
1724.29830,0.08047
1722.36956,0.08269
1720.44081,0.08500
1718.51207,0.08709
1716.58332,0.08850
1714.65458,0.08925
1712.72583,0.08968
1710.79709,0.08963
1708.86834,0.08910
1706.93960,0.08842
1705.01085,0.08782
1703.08211,0.08722
1701.15336,0.08609
1699.22462,0.08444
1697.29587,0.08293
1695.36713,0.08140
1693.43838,0.08001
1691.50963,0.07883
1689.58089,0.07759
1687.65214,0.07637
1685.72340,0.07497
1683.79465,0.07322
1681.86591,0.07185
1679.93716,0.07088
1678.00842,0.06989
1676.07967,0.06884
1674.15093,0.06795
1672.22218,0.06728
1670.29344,0.06642
1668.36469,0.06530
1666.43595,0.06427
1664.50720,0.06334
1662.57845,0.06239
1660.64971,0.06151
1658.72096,0.06074
1656.79222,0.06011
1654.86347,0.05938
1652.93473,0.05838
1651.00598,0.05791
1649.07724,0.05791
1647.14849,0.05762
1645.21975,0.05692
1643.29100,0.05634
1641.36226,0.05605
1639.43351,0.05583
1637.50477,0.05545
1635.57602,0.05509
1633.64728,0.05508
1631.71853,0.05517
1629.78978,0.05514
1627.86104,0.05511
1625.93229,0.05520
1624.00355,0.05525
1622.07480,0.05516
1620.14606,0.05511
1618.21731,0.05511
1616.28857,0.05508
1614.35982,0.05513
1612.43108,0.05523
1610.50233,0.05531
1608.57359,0.05539
1606.64484,0.05551
1604.71610,0.05561
1602.78735,0.05566
1600.85861,0.05561
1598.92986,0.05567
1597.00111,0.05615
1595.07237,0.05688
1593.14362,0.05732
1591.21488,0.05751
1589.28613,0.05774
1587.35739,0.05790
1585.42864,0.05801
1583.49990,0.05833
1581.57115,0.05883
1579.64241,0.05927
1577.71366,0.05947
1575.78492,0.05955
1573.85617,0.05978
1571.92743,0.06003
1569.99868,0.06015
1568.06993,0.06029
1566.14119,0.06065
1564.21244,0.06108
1562.28370,0.06132
1560.35495,0.06126
1558.42621,0.06117
1556.49746,0.06140
1554.56872,0.06158
1552.63997,0.06164
1550.71123,0.06178
1548.78248,0.06189
1546.85374,0.06172
1544.92499,0.06126
1542.99625,0.06078
1541.06750,0.06049
1539.13876,0.06023
1537.21001,0.05989
1535.28126,0.05948
1533.35252,0.05896
1531.42377,0.05853
1529.49503,0.05815
1527.56628,0.05759
1525.63754,0.05700
1523.70879,0.05664
1521.78005,0.05625
1519.85130,0.05573
1517.92256,0.05531
1515.99381,0.05499
1514.06507,0.05467
1512.13632,0.05431
1510.20758,0.05399
1508.27883,0.05343
1506.35008,0.05245
1504.42134,0.05197
1502.49259,0.05194
1500.56385,0.05172
1498.63510,0.05095
1496.70636,0.04969
1494.77761,0.04863
1492.84887,0.04815
1490.92012,0.04783
1488.99138,0.04738
1487.06263,0.04688
1485.13389,0.04634
1483.20514,0.04572
1481.27640,0.04517
1479.34765,0.04483
1477.41891,0.04450
1475.49016,0.04393
1473.56141,0.04316
1471.63267,0.04236
1469.70392,0.04180
1467.77518,0.04152
1465.84643,0.04131
1463.91769,0.04096
1461.98894,0.04054
1460.06020,0.04021
1458.13145,0.03976
1456.20271,0.03893
1454.27396,0.03827
1452.34522,0.03810
1450.41647,0.03822
1448.48773,0.03832
1446.55898,0.03819
1444.63024,0.03793
1442.70149,0.03768
1440.77274,0.03743
1438.84400,0.03714
1436.91525,0.03675
1434.98651,0.03633
1433.05776,0.03606
1431.12902,0.03601
1429.20027,0.03626
1427.27153,0.03682
1425.34278,0.03743
1423.41404,0.03792
1421.48529,0.03831
1419.55655,0.03870
1417.62780,0.03913
1415.69906,0.03964
1413.77031,0.04013
1411.84156,0.04049
1409.91282,0.04068
1407.98407,0.04065
1406.05533,0.04054
1404.12658,0.04059
1402.19784,0.04078
1400.26909,0.04092
1398.34035,0.04096
1396.41160,0.04087
1394.48286,0.04069
1392.55411,0.04062
1390.62537,0.04046
1388.69662,0.03989
1386.76788,0.03902
1384.83913,0.03825
1382.91039,0.03763
1380.98164,0.03719
1379.05289,0.03710
1377.12415,0.03737
1375.19540,0.03769
1373.26666,0.03791
1371.33791,0.03819
1369.40917,0.03864
1367.48042,0.03916
1365.55168,0.03971
1363.62293,0.04028
1361.69419,0.04096
1359.76544,0.04168
1357.83670,0.04221
1355.90795,0.04260
1353.97921,0.04320
1352.05046,0.04402
1350.12172,0.04469
1348.19297,0.04491
1346.26422,0.04483
1344.33548,0.04473
1342.40673,0.04471
1340.47799,0.04473
1338.54924,0.04483
1336.62050,0.04495
1334.69175,0.04501
1332.76301,0.04518
1330.83426,0.04559
1328.90552,0.04597
1326.97677,0.04613
1325.04803,0.04612
1323.11928,0.04601
1321.19054,0.04595
1319.26179,0.04604
1317.33304,0.04633
1315.40430,0.04695
1313.47555,0.04798
1311.54681,0.04931
1309.61806,0.05078
1307.68932,0.05225
1305.76057,0.05347
1303.83183,0.05444
1301.90308,0.05539
1299.97434,0.05627
1298.04559,0.05695
1296.11685,0.05737
1294.18810,0.05751
1292.25936,0.05744
1290.33061,0.05717
1288.40187,0.05665
1286.47312,0.05606
1284.54437,0.05554
1282.61563,0.05528
1280.68688,0.05560
1278.75814,0.05652
1276.82939,0.05767
1274.90065,0.05875
1272.97190,0.05968
1271.04316,0.06047
1269.11441,0.06135
1267.18567,0.06247
1265.25692,0.06370
1263.32818,0.06486
1261.39943,0.06602
1259.47069,0.06743
1257.54194,0.06912
1255.61320,0.07074
1253.68445,0.07206
1251.75570,0.07327
1249.82696,0.07458
1247.89821,0.07585
1245.96947,0.07717
1244.04072,0.07911
1242.11198,0.08156
1240.18323,0.08381
1238.25449,0.08588
1236.32574,0.08820
1234.39700,0.09082
1232.46825,0.09377
1230.53951,0.09711
1228.61076,0.10046
1226.68202,0.10322
1224.75327,0.10513
1222.82452,0.10627
1220.89578,0.10677
1218.96703,0.10653
1217.03829,0.10533
1215.10954,0.10328
1213.18080,0.10084
1211.25205,0.09825
1209.32331,0.09569
1207.39456,0.09351
1205.46582,0.09173
1203.53707,0.09011
1201.60833,0.08869
1199.67958,0.08770
1197.75084,0.08709
1195.82209,0.08669
1193.89335,0.08640
1191.96460,0.08606
1190.03585,0.08556
1188.10711,0.08500
1186.17836,0.08440
1184.24962,0.08375
1182.32087,0.08309
1180.39213,0.08239
1178.46338,0.08165
1176.53464,0.08104
1174.60589,0.08071
1172.67715,0.08061
1170.74840,0.08053
1168.81966,0.08026
1166.89091,0.07943
1164.96217,0.07739
1163.03342,0.07389
1161.10467,0.07002
1159.17593,0.06785
1157.24718,0.06876
1155.31844,0.07193
1153.38969,0.07557
1151.46095,0.07862
1149.53220,0.08081
1147.60346,0.08235
1145.67471,0.08371
1143.74597,0.08517
1141.81722,0.08657
1139.88848,0.08781
1137.95973,0.08871
1136.03099,0.08897
1134.10224,0.08876
1132.17350,0.08854
1130.24475,0.08850
1128.31600,0.08879
1126.38726,0.08944
1124.45851,0.09026
1122.52977,0.09108
1120.60102,0.09187
1118.67228,0.09269
1116.74353,0.09356
1114.81479,0.09452
1112.88604,0.09557
1110.95730,0.09657
1109.02855,0.09747
1107.09981,0.09813
1105.17106,0.09859
1103.24232,0.09917
1101.31357,0.09975
1099.38483,0.10013
1097.45608,0.10041
1095.52733,0.10057
1093.59859,0.10068
1091.66984,0.10105
1089.74110,0.10159
1087.81235,0.10221
1085.88361,0.10297
1083.95486,0.10357
1082.02612,0.10383
1080.09737,0.10413
1078.16863,0.10462
1076.23988,0.10473
1074.31114,0.10406
1072.38239,0.10267
1070.45365,0.10068
1068.52490,0.09820
1066.59615,0.09526
1064.66741,0.09197
1062.73866,0.08889
1060.80992,0.08623
1058.88117,0.08357
1056.95243,0.08092
1055.02368,0.07858
1053.09494,0.07635
1051.16619,0.07416
1049.23745,0.07225
1047.30870,0.07059
1045.37996,0.06915
1043.45121,0.06800
1041.52247,0.06733
1039.59372,0.06734
1037.66498,0.06794
1035.73623,0.06861
1033.80748,0.06895
1031.87874,0.06898
1029.94999,0.06861
1028.02125,0.06788
1026.09250,0.06730
1024.16376,0.06717
1022.23501,0.06706
1020.30627,0.06660
1018.37752,0.06598
1016.44878,0.06549
1014.52003,0.06529
1012.59129,0.06547
1010.66254,0.06571
1008.73380,0.06563
1006.80505,0.06527
1004.87631,0.06485
1002.94756,0.06456
1001.01881,0.06459
999.09007,0.06490
997.16132,0.06524
995.23258,0.06545
993.30383,0.06584
991.37509,0.06658
989.44634,0.06736
987.51760,0.06814
985.58885,0.06905
983.66011,0.07003
981.73136,0.07090
979.80262,0.07157
977.87387,0.07224
975.94513,0.07286
974.01638,0.07311
972.08763,0.07301
970.15889,0.07280
968.23014,0.07267
966.30140,0.07283
964.37265,0.07321
962.44391,0.07351
960.51516,0.07365
958.58642,0.07362
956.65767,0.07358
954.72893,0.07370
952.80018,0.07399
950.87144,0.07427
948.94269,0.07447
947.01395,0.07441
945.08520,0.07415
943.15646,0.07403
941.22771,0.07411
939.29896,0.07411
937.37022,0.07390
935.44147,0.07369
933.51273,0.07379
931.58398,0.07400
929.65524,0.07389
927.72649,0.07348
925.79775,0.07322
923.86900,0.07333
921.94026,0.07339
920.01151,0.07301
918.08277,0.07224
916.15402,0.07137
914.22528,0.07065
912.29653,0.06997
910.36779,0.06921
908.43904,0.06849
906.51029,0.06781
904.58155,0.06704
902.65280,0.06636
900.72406,0.06594
898.79531,0.06571
896.86657,0.06562
894.93782,0.06595
893.00908,0.06675
891.08033,0.06756
889.15159,0.06806
887.22284,0.06844
885.29410,0.06862
883.36535,0.06840
881.43661,0.06806
879.50786,0.06786
877.57911,0.06790
875.65037,0.06814
873.72162,0.06831
871.79288,0.06829
869.86413,0.06817
867.93539,0.06835
866.00664,0.06888
864.07790,0.06930
862.14915,0.06933
860.22041,0.06914
858.29166,0.06896
856.36292,0.06887
854.43417,0.06876
852.50543,0.06846
850.57668,0.06798
848.64794,0.06753
846.71919,0.06714
844.79044,0.06675
842.86170,0.06641
840.93295,0.06611
839.00421,0.06552
837.07546,0.06438
835.14672,0.06315
833.21797,0.06242
831.28923,0.06180
829.36048,0.06079
827.43174,0.05981
825.50299,0.05910
823.57425,0.05811
821.64550,0.05670
819.71676,0.05539
817.78801,0.05439
815.85926,0.05359
813.93052,0.05286
812.00177,0.05261
810.07303,0.05369
808.14428,0.05630
806.21554,0.05952
804.28679,0.06231
802.35805,0.06431
800.42930,0.06543
798.50056,0.06559
796.57181,0.06485
794.64307,0.06375
792.71432,0.06292
790.78558,0.06283
788.85683,0.06383
786.92809,0.06572
784.99934,0.06759
783.07059,0.06879
781.14185,0.06946
779.21310,0.06967
777.28436,0.06901
775.35561,0.06751
773.42687,0.06596
771.49812,0.06506
769.56938,0.06466
767.64063,0.06426
765.71189,0.06373
763.78314,0.06306
761.85440,0.06215
759.92565,0.06148
757.99691,0.06136
756.06816,0.06134
754.13942,0.06127
752.21067,0.06121
750.28192,0.06082
748.35318,0.06001
746.42443,0.05919
744.49569,0.05868
742.56694,0.05838
740.63820,0.05790
738.70945,0.05719
736.78071,0.05628
734.85196,0.05533
732.92322,0.05462
730.99447,0.05391
729.06573,0.05299
727.13698,0.05188
725.20824,0.05094
723.27949,0.05062
721.35074,0.05051
719.42200,0.05012
717.49325,0.04959
715.56451,0.04883
713.63576,0.04758
711.70702,0.04625
709.77827,0.04536
707.84953,0.04471
705.92078,0.04384
703.99204,0.04272
702.06329,0.04174
700.13455,0.04126
698.20580,0.04162
696.27706,0.04275
694.34831,0.04373
692.41957,0.04428
690.49082,0.04501
688.56207,0.04560
686.63333,0.04560
684.70458,0.04537
682.77584,0.04508
680.84709,0.04472
678.91835,0.04443
676.98960,0.04419
675.06086,0.04409
673.13211,0.04433
671.20337,0.04493
669.27462,0.04555
667.34588,0.04566
665.41713,0.04533
663.48839,0.04535
661.55964,0.04578
659.63090,0.04560
657.70215,0.04479
655.77340,0.04457
653.84466,0.04501
651.91591,0.04538
649.98717,0.04563
648.05842,0.04544
646.12968,0.04474
644.20093,0.04412
642.27219,0.04341
640.34344,0.04236
638.41470,0.04163
636.48595,0.04156
634.55721,0.04152
632.62846,0.04081
630.69972,0.04025
628.77097,0.04079
626.84222,0.04135
624.91348,0.04130
622.98473,0.04140
621.05599,0.04155
619.12724,0.04131
617.19850,0.04104
615.26975,0.04105
613.34101,0.04123
611.41226,0.04152
609.48352,0.04140
607.55477,0.04092
605.62603,0.04171
603.69728,0.04375
601.76854,0.04424
599.83979,0.04232
