7497.03301,0.81930
7495.10426,0.81765
7493.17552,0.82296
7491.24677,0.82660
7489.31803,0.82687
7487.38928,0.82535
7485.46054,0.82467
7483.53179,0.82649
7481.60305,0.82687
7479.67430,0.82472
7477.74556,0.82408
7475.81681,0.82601
7473.88807,0.82781
7471.95932,0.82609
7470.03057,0.82043
7468.10183,0.81295
7466.17308,0.80754
7464.24434,0.80884
7462.31559,0.81346
7460.38685,0.81523
7458.45810,0.81534
7456.52936,0.81469
7454.60061,0.81231
7452.67187,0.80939
7450.74312,0.80577
7448.81438,0.80100
7446.88563,0.79694
7444.95689,0.79416
7443.02814,0.79343
7441.09940,0.79855
7439.17065,0.80650
7437.24190,0.80788
7435.31316,0.80151
7433.38441,0.79464
7431.45567,0.79187
7429.52692,0.79243
7427.59818,0.79593
7425.66943,0.79978
7423.74069,0.79854
7421.81194,0.79492
7419.88320,0.79438
7417.95445,0.79641
7416.02571,0.79906
7414.09696,0.80031
7412.16822,0.79816
7410.23947,0.79424
7408.31073,0.79342
7406.38198,0.79498
7404.45323,0.79277
7402.52449,0.78893
7400.59574,0.79189
7398.66700,0.79964
7396.73825,0.80300
7394.80951,0.80263
7392.88076,0.80376
7390.95202,0.80679
7389.02327,0.81058
7387.09453,0.81283
7385.16578,0.81209
7383.23704,0.80939
7381.30829,0.80562
7379.37955,0.80266
7377.45080,0.80414
7375.52205,0.81080
7373.59331,0.81619
7371.66456,0.81404
7369.73582,0.80676
7367.80707,0.80175
7365.87833,0.80363
7363.94958,0.80877
7362.02084,0.81133
7360.09209,0.81356
7358.16335,0.81875
7356.23460,0.82137
7354.30586,0.81558
7352.37711,0.80564
7350.44837,0.79950
7348.51962,0.79868
7346.59088,0.80069
7344.66213,0.80408
7342.73338,0.80778
7340.80464,0.81032
7338.87589,0.80883
7336.94715,0.80397
7335.01840,0.79961
7333.08966,0.79509
7331.16091,0.79005
7329.23217,0.78697
7327.30342,0.78545
7325.37468,0.78354
7323.44593,0.78255
7321.51719,0.78563
7319.58844,0.78832
7317.65970,0.78409
7315.73095,0.77791
7313.80221,0.77636
7311.87346,0.77704
7309.94471,0.77616
7308.01597,0.77518
7306.08722,0.77520
7304.15848,0.77386
7302.22973,0.77262
7300.30099,0.77365
7298.37224,0.77326
7296.44350,0.76890
7294.51475,0.76298
7292.58601,0.75889
7290.65726,0.75776
7288.72852,0.75796
7286.79977,0.75846
7284.87103,0.75872
7282.94228,0.75658
7281.01353,0.75205
7279.08479,0.74934
7277.15604,0.74908
7275.22730,0.74748
7273.29855,0.74536
7271.36981,0.74544
7269.44106,0.74617
7267.51232,0.74630
7265.58357,0.74352
7263.65483,0.73586
7261.72608,0.73202
7259.79734,0.73837
7257.86859,0.74550
7255.93985,0.74649
7254.01110,0.74437
7252.08236,0.74067
7250.15361,0.73736
7248.22486,0.73645
7246.29612,0.73470
7244.36737,0.73125
7242.43863,0.73077
7240.50988,0.73382
7238.58114,0.73469
7236.65239,0.73085
7234.72365,0.72625
7232.79490,0.72341
7230.86616,0.72086
7228.93741,0.71898
7227.00867,0.71930
7225.07992,0.72052
7223.15118,0.72069
7221.22243,0.72045
7219.29369,0.71959
7217.36494,0.71673
7215.43619,0.71357
7213.50745,0.71280
7211.57870,0.71370
7209.64996,0.71236
7207.72121,0.70874
7205.79247,0.70676
7203.86372,0.70626
7201.93498,0.70669
7200.00623,0.70919
7198.07749,0.70994
7196.14874,0.70670
7194.22000,0.70370
7192.29125,0.70173
7190.36251,0.69916
7188.43376,0.69732
7186.50501,0.69493
7184.57627,0.69142
7182.64752,0.68992
7180.71878,0.69036
7178.79003,0.69184
7176.86129,0.69523
7174.93254,0.69781
7173.00380,0.69588
7171.07505,0.69259
7169.14631,0.69188
7167.21756,0.69205
7165.28882,0.69335
7163.36007,0.69654
7161.43133,0.69815
7159.50258,0.69726
7157.57384,0.69651
7155.64509,0.69694
7153.71634,0.69736
7151.78760,0.69646
7149.85885,0.69570
7147.93011,0.69711
7146.00136,0.69883
7144.07262,0.69830
7142.14387,0.69718
7140.21513,0.69768
7138.28638,0.69812
7136.35764,0.69661
7134.42889,0.69457
7132.50015,0.69350
7130.57140,0.69200
7128.64266,0.68909
7126.71391,0.68654
7124.78516,0.68509
7122.85642,0.68483
7120.92767,0.68723
7118.99893,0.68890
7117.07018,0.68572
7115.14144,0.68280
7113.21269,0.68460
7111.28395,0.68717
7109.35520,0.68670
7107.42646,0.68383
7105.49771,0.68208
7103.56897,0.68447
7101.64022,0.68695
7099.71148,0.68320
7097.78273,0.67695
7095.85399,0.67444
7093.92524,0.67312
7091.99649,0.67073
7090.06775,0.67067
7088.13900,0.67317
7086.21026,0.67564
7084.28151,0.67763
7082.35277,0.67855
7080.42402,0.67674
7078.49528,0.67324
7076.56653,0.67107
7074.63779,0.67065
7072.70904,0.67047
7070.78030,0.66927
7068.85155,0.66676
7066.92281,0.66583
7064.99406,0.66921
7063.06532,0.67344
7061.13657,0.67408
7059.20782,0.67358
7057.27908,0.67432
7055.35033,0.67400
7053.42159,0.67408
7051.49284,0.67689
7049.56410,0.67987
7047.63535,0.68088
7045.70661,0.68121
7043.77786,0.68317
7041.84912,0.68573
7039.92037,0.68679
7037.99163,0.68589
7036.06288,0.68219
7034.13414,0.67869
7032.20539,0.68004
7030.27664,0.68364
7028.34790,0.68533
7026.41915,0.68679
7024.49041,0.68861
7022.56166,0.68745
7020.63292,0.68466
7018.70417,0.68365
7016.77543,0.68397
7014.84668,0.68528
7012.91794,0.68647
7010.98919,0.68529
7009.06045,0.68252
7007.13170,0.68058
7005.20296,0.68098
7003.27421,0.68247
7001.34547,0.68337
6999.41672,0.68538
6997.48797,0.68826
6995.55923,0.68887
6993.63048,0.68755
6991.70174,0.68643
6989.77299,0.68725
6987.84425,0.69042
6985.91550,0.69248
6983.98676,0.69124
6982.05801,0.68892
6980.12927,0.68700
6978.20052,0.68463
6976.27178,0.68178
6974.34303,0.67957
6972.41429,0.67776
6970.48554,0.67776
6968.55680,0.68161
6966.62805,0.68660
6964.69930,0.68881
6962.77056,0.68722
6960.84181,0.68516
6958.91307,0.68594
6956.98432,0.68676
6955.05558,0.68641
6953.12683,0.68735
6951.19809,0.68915
6949.26934,0.69069
6947.34060,0.69142
6945.41185,0.69081
6943.48311,0.69079
6941.55436,0.69412
6939.62562,0.69896
6937.69687,0.70084
6935.76812,0.69983
6933.83938,0.69803
6931.91063,0.69693
6929.98189,0.69917
6928.05314,0.70348
6926.12440,0.70380
6924.19565,0.69971
6922.26691,0.69685
6920.33816,0.69628
6918.40942,0.69666
6916.48067,0.69838
6914.55193,0.70014
6912.62318,0.70216
6910.69444,0.70345
6908.76569,0.70035
6906.83695,0.69711
6904.90820,0.69948
6902.97945,0.70365
6901.05071,0.70552
6899.12196,0.70704
6897.19322,0.70955
6895.26447,0.71246
6893.33573,0.71471
6891.40698,0.71409
6889.47824,0.71135
6887.54949,0.71015
6885.62075,0.71140
6883.69200,0.71332
6881.76326,0.71438
6879.83451,0.71391
6877.90577,0.71186
6875.97702,0.71029
6874.04828,0.71101
6872.11953,0.71308
6870.19078,0.71591
6868.26204,0.71979
6866.33329,0.72404
6864.40455,0.72645
6862.47580,0.72558
6860.54706,0.72336
6858.61831,0.72388
6856.68957,0.72837
6854.76082,0.73200
6852.83208,0.73138
6850.90333,0.72954
6848.97459,0.72877
6847.04584,0.72810
6845.11710,0.72701
6843.18835,0.72622
6841.25960,0.72714
6839.33086,0.72932
6837.40211,0.72898
6835.47337,0.72585
6833.54462,0.72451
6831.61588,0.72583
6829.68713,0.72807
6827.75839,0.73102
6825.82964,0.73366
6823.90090,0.73514
6821.97215,0.73475
6820.04341,0.73153
6818.11466,0.72778
6816.18592,0.72682
6814.25717,0.72826
6812.32843,0.72893
6810.39968,0.72795
6808.47093,0.72862
6806.54219,0.73192
6804.61344,0.73447
6802.68470,0.73365
6800.75595,0.73133
6798.82721,0.73207
6796.89846,0.73491
6794.96972,0.73540
6793.04097,0.73382
6791.11223,0.73298
6789.18348,0.73481
6787.25474,0.73804
6785.32599,0.73856
6783.39725,0.73650
6781.46850,0.73704
6779.53975,0.74058
6777.61101,0.74160
6775.68226,0.74042
6773.75352,0.74015
6771.82477,0.73920
6769.89603,0.73884
6767.96728,0.74179
6766.03854,0.74524
6764.10979,0.74543
6762.18105,0.74272
6760.25230,0.74201
6758.32356,0.74494
6756.39481,0.74516
6754.46607,0.74105
6752.53732,0.73900
6750.60858,0.74097
6748.67983,0.74293
6746.75108,0.74296
6744.82234,0.74252
6742.89359,0.74220
6740.96485,0.74236
6739.03610,0.74358
6737.10736,0.74494
6735.17861,0.74495
6733.24987,0.74284
6731.32112,0.74017
6729.39238,0.73893
6727.46363,0.73994
6725.53489,0.74281
6723.60614,0.74412
6721.67740,0.74312
6719.74865,0.74329
6717.81991,0.74550
6715.89116,0.74776
6713.96241,0.74934
6712.03367,0.75045
6710.10492,0.75018
6708.17618,0.74926
6706.24743,0.74898
6704.31869,0.74804
6702.38994,0.74651
6700.46120,0.74650
6698.53245,0.74847
6696.60371,0.75032
6694.67496,0.75041
6692.74622,0.75048
6690.81747,0.75149
6688.88873,0.75149
6686.95998,0.74972
6685.03123,0.74798
6683.10249,0.74837
6681.17374,0.75014
6679.24500,0.75159
6677.31625,0.75392
6675.38751,0.75759
6673.45876,0.76105
6671.53002,0.76363
6669.60127,0.76474
6667.67253,0.76450
6665.74378,0.76392
6663.81504,0.76320
6661.88629,0.76303
6659.95755,0.76329
6658.02880,0.76246
6656.10006,0.76139
6654.17131,0.76286
6652.24256,0.76651
6650.31382,0.76864
6648.38507,0.76869
6646.45633,0.76863
6644.52758,0.76775
6642.59884,0.76623
6640.67009,0.76509
6638.74135,0.76425
6636.81260,0.76533
6634.88386,0.76743
6632.95511,0.76713
6631.02637,0.76466
6629.09762,0.76324
6627.16888,0.76429
6625.24013,0.76649
6623.31139,0.76918
6621.38264,0.77106
6619.45389,0.77036
6617.52515,0.77032
6615.59640,0.77387
6613.66766,0.77751
6611.73891,0.77622
6609.81017,0.77016
6607.88142,0.76529
6605.95268,0.76558
6604.02393,0.76835
6602.09519,0.76955
6600.16644,0.76855
6598.23770,0.76787
6596.30895,0.76983
6594.38021,0.77294
6592.45146,0.77431
6590.52271,0.77424
6588.59397,0.77496
6586.66522,0.77642
6584.73648,0.77597
6582.80773,0.77409
6580.87899,0.77438
6578.95024,0.77565
6577.02150,0.77525
6575.09275,0.77533
6573.16401,0.77672
6571.23526,0.77713
6569.30652,0.77724
6567.37777,0.77842
6565.44903,0.77885
6563.52028,0.77851
6561.59154,0.77978
6559.66279,0.78090
6557.73404,0.77909
6555.80530,0.77679
6553.87655,0.77582
6551.94781,0.77507
6550.01906,0.77498
6548.09032,0.77571
6546.16157,0.77571
6544.23283,0.77577
6542.30408,0.77752
6540.37534,0.77829
6538.44659,0.77612
6536.51785,0.77524
6534.58910,0.77809
6532.66036,0.78128
6530.73161,0.78251
6528.80287,0.78197
6526.87412,0.77992
6524.94537,0.77850
6523.01663,0.77943
6521.08788,0.78165
6519.15914,0.78465
6517.23039,0.78742
6515.30165,0.78799
6513.37290,0.78750
6511.44416,0.78826
6509.51541,0.78994
6507.58667,0.79113
6505.65792,0.79092
6503.72918,0.79037
6501.80043,0.79202
6499.87169,0.79451
6497.94294,0.79487
6496.01419,0.79448
6494.08545,0.79437
6492.15670,0.79301
6490.22796,0.79063
6488.29921,0.78925
6486.37047,0.79013
6484.44172,0.79298
6482.51298,0.79595
6480.58423,0.79702
6478.65549,0.79664
6476.72674,0.79588
6474.79800,0.79455
6472.86925,0.79379
6470.94051,0.79478
6469.01176,0.79613
6467.08302,0.79703
6465.15427,0.79852
6463.22552,0.79975
6461.29678,0.80006
6459.36803,0.80174
6457.43929,0.80446
6455.51054,0.80501
6453.58180,0.80272
6451.65305,0.79971
6449.72431,0.79786
6447.79556,0.79725
6445.86682,0.79725
6443.93807,0.79706
6442.00933,0.79656
6440.08058,0.79756
6438.15184,0.80050
6436.22309,0.80265
6434.29434,0.80260
6432.36560,0.80160
6430.43685,0.80033
6428.50811,0.79906
6426.57936,0.79846
6424.65062,0.79937
6422.72187,0.80191
6420.79313,0.80389
6418.86438,0.80362
6416.93564,0.80216
6415.00689,0.80023
6413.07815,0.79900
6411.14940,0.80023
6409.22066,0.80138
6407.29191,0.79918
6405.36317,0.79583
6403.43442,0.79418
6401.50567,0.79415
6399.57693,0.79488
6397.64818,0.79563
6395.71944,0.79618
6393.79069,0.79616
6391.86195,0.79565
6389.93320,0.79592
6388.00446,0.79615
6386.07571,0.79440
6384.14697,0.79275
6382.21822,0.79343
6380.28948,0.79397
6378.36073,0.79281
6376.43199,0.79133
6374.50324,0.78967
6372.57450,0.78791
6370.64575,0.78668
6368.71700,0.78537
6366.78826,0.78431
6364.85951,0.78417
6362.93077,0.78355
6361.00202,0.78222
6359.07328,0.78167
6357.14453,0.78210
6355.21579,0.78311
6353.28704,0.78409
6351.35830,0.78501
6349.42955,0.78588
6347.50081,0.78540
6345.57206,0.78401
6343.64332,0.78294
6341.71457,0.78221
6339.78582,0.78214
6337.85708,0.78260
6335.92833,0.78328
6333.99959,0.78340
6332.07084,0.78182
6330.14210,0.77992
6328.21335,0.77894
6326.28461,0.77822
6324.35586,0.77819
6322.42712,0.77875
6320.49837,0.77845
6318.56963,0.77750
6316.64088,0.77693
6314.71214,0.77702
6312.78339,0.77715
6310.85465,0.77579
6308.92590,0.77339
6306.99715,0.77187
6305.06841,0.77028
6303.13966,0.76821
6301.21092,0.76728
6299.28217,0.76744
6297.35343,0.76725
6295.42468,0.76530
6293.49594,0.76286
6291.56719,0.76278
6289.63845,0.76385
6287.70970,0.76371
6285.78096,0.76315
6283.85221,0.76358
6281.92347,0.76459
6279.99472,0.76479
6278.06598,0.76421
6276.13723,0.76310
6274.20848,0.76142
6272.27974,0.76052
6270.35099,0.76051
6268.42225,0.75971
6266.49350,0.75792
6264.56476,0.75577
6262.63601,0.75399
6260.70727,0.75278
6258.77852,0.75089
6256.84978,0.74826
6254.92103,0.74664
6252.99229,0.74590
6251.06354,0.74444
6249.13480,0.74208
6247.20605,0.73945
6245.27730,0.73660
6243.34856,0.73390
6241.41981,0.73287
6239.49107,0.73345
6237.56232,0.73331
6235.63358,0.73193
6233.70483,0.73003
6231.77609,0.72771
6229.84734,0.72581
6227.91860,0.72425
6225.98985,0.72225
6224.06111,0.71994
6222.13236,0.71756
6220.20362,0.71501
6218.27487,0.71235
6216.34613,0.71076
6214.41738,0.71017
6212.48863,0.70894
6210.55989,0.70717
6208.63114,0.70508
6206.70240,0.70227
6204.77365,0.69881
6202.84491,0.69520
6200.91616,0.69271
6198.98742,0.69162
6197.05867,0.68886
6195.12993,0.68189
6193.20118,0.67445
6191.27244,0.67043
6189.34369,0.66739
6187.41495,0.66305
6185.48620,0.65915
6183.55746,0.65691
6181.62871,0.65483
6179.69996,0.65033
6177.77122,0.64321
6175.84247,0.63655
6173.91373,0.63151
6171.98498,0.62609
6170.05624,0.61947
6168.12749,0.61194
6166.19875,0.60411
6164.27000,0.59673
6162.34126,0.58928
6160.41251,0.58145
6158.48377,0.57371
6156.55502,0.56652
6154.62628,0.56017
6152.69753,0.55348
6150.76878,0.54465
6148.84004,0.53414
6146.91129,0.52422
6144.98255,0.51641
6143.05380,0.51036
6141.12506,0.50500
6139.19631,0.50088
6137.26757,0.49808
6135.33882,0.49435
6133.41008,0.48904
6131.48133,0.48405
6129.55259,0.48036
6127.62384,0.47717
6125.69510,0.47268
6123.76635,0.46540
6121.83761,0.45692
6119.90886,0.45049
6117.98011,0.44535
6116.05137,0.43924
6114.12262,0.43342
6112.19388,0.43046
6110.26513,0.43053
6108.33639,0.43126
6106.40764,0.43120
6104.47890,0.43126
6102.55015,0.43257
6100.62141,0.43535
6098.69266,0.43854
6096.76392,0.44037
6094.83517,0.44038
6092.90643,0.43954
6090.97768,0.43771
6089.04893,0.43486
6087.12019,0.43261
6085.19144,0.43081
6083.26270,0.42834
6081.33395,0.42571
6079.40521,0.42308
6077.47646,0.42073
6075.54772,0.42020
6073.61897,0.42202
6071.69023,0.42512
6069.76148,0.42898
6067.83274,0.43378
6065.90399,0.44000
6063.97525,0.44809
6062.04650,0.45646
6060.11776,0.46283
6058.18901,0.46738
6056.26026,0.47113
6054.33152,0.47373
6052.40277,0.47492
6050.47403,0.47506
6048.54528,0.47342
6046.61654,0.46933
6044.68779,0.46413
6042.75905,0.45852
6040.83030,0.45152
6038.90156,0.44350
6036.97281,0.43569
6035.04407,0.42771
6033.11532,0.41849
6031.18658,0.40805
6029.25783,0.39808
6027.32909,0.38947
6025.40034,0.38012
6023.47159,0.36956
6021.54285,0.35982
6019.61410,0.35027
6017.68536,0.34011
6015.75661,0.33077
6013.82787,0.32214
6011.89912,0.31359
6009.97038,0.30542
6008.04163,0.29758
6006.11289,0.28975
6004.18414,0.28167
6002.25540,0.27367
6000.32665,0.26689
5998.39791,0.26148
5996.46916,0.25615
5994.54041,0.25032
5992.61167,0.24478
5990.68292,0.24004
5988.75418,0.23604
5986.82543,0.23219
5984.89669,0.22728
5982.96794,0.22102
5981.03920,0.21469
5979.11045,0.20957
5977.18171,0.20549
5975.25296,0.20220
5973.32422,0.20024
5971.39547,0.19860
5969.46673,0.19627
5967.53798,0.19464
5965.60924,0.19423
5963.68049,0.19398
5961.75174,0.19364
5959.82300,0.19348
5957.89425,0.19356
5955.96551,0.19347
5954.03676,0.19270
5952.10802,0.19155
5950.17927,0.19064
5948.25053,0.19012
5946.32178,0.19024
5944.39304,0.19134
5942.46429,0.19301
5940.53555,0.19410
5938.60680,0.19385
5936.67806,0.19335
5934.74931,0.19432
5932.82057,0.19712
5930.89182,0.20090
5928.96307,0.20350
5927.03433,0.20375
5925.10558,0.20385
5923.17684,0.20544
5921.24809,0.20749
5919.31935,0.20943
5917.39060,0.21116
5915.46186,0.21188
5913.53311,0.21174
5911.60437,0.21189
5909.67562,0.21283
5907.74688,0.21430
5905.81813,0.21608
5903.88939,0.21811
5901.96064,0.21976
5900.03189,0.22105
5898.10315,0.22295
5896.17440,0.22537
5894.24566,0.22777
5892.31691,0.22999
5890.38817,0.23248
5888.45942,0.23642
5886.53068,0.24140
5884.60193,0.24598
5882.67319,0.25013
5880.74444,0.25472
5878.81570,0.26018
5876.88695,0.26557
5874.95821,0.26977
5873.02946,0.27331
5871.10072,0.27722
5869.17197,0.28107
5867.24322,0.28346
5865.31448,0.28470
5863.38573,0.28669
5861.45699,0.28905
5859.52824,0.29042
5857.59950,0.29151
5855.67075,0.29263
5853.74201,0.29324
5851.81326,0.29352
5849.88452,0.29311
5847.95577,0.29216
5846.02703,0.29200
5844.09828,0.29259
5842.16954,0.29348
5840.24079,0.29450
5838.31205,0.29492
5836.38330,0.29569
5834.45455,0.29753
5832.52581,0.29843
5830.59706,0.29794
5828.66832,0.29800
5826.73957,0.29903
5824.81083,0.29995
5822.88208,0.30039
5820.95334,0.30048
5819.02459,0.29998
5817.09585,0.29923
5815.16710,0.29886
5813.23836,0.29851
5811.30961,0.29818
5809.38087,0.29788
5807.45212,0.29691
5805.52337,0.29581
5803.59463,0.29558
5801.66588,0.29568
5799.73714,0.29565
5797.80839,0.29637
5795.87965,0.29786
5793.95090,0.29851
5792.02216,0.29859
5790.09341,0.29971
5788.16467,0.30109
5786.23592,0.30211
5784.30718,0.30381
5782.37843,0.30649
5780.44969,0.31008
5778.52094,0.31477
5776.59220,0.32000
5774.66345,0.32479
5772.73470,0.32909
5770.80596,0.33388
5768.87721,0.33908
5766.94847,0.34365
5765.01972,0.34827
5763.09098,0.35417
5761.16223,0.36057
5759.23349,0.36607
5757.30474,0.37089
5755.37600,0.37585
5753.44725,0.38064
5751.51851,0.38448
5749.58976,0.38741
5747.66102,0.39016
5745.73227,0.39310
5743.80352,0.39625
5741.87478,0.39943
5739.94603,0.40175
5738.01729,0.40258
5736.08854,0.40235
5734.15980,0.40100
5732.23105,0.39814
5730.30231,0.39504
5728.37356,0.39329
5726.44482,0.39173
5724.51607,0.38809
5722.58733,0.38245
5720.65858,0.37668
5718.72984,0.37166
5716.80109,0.36705
5714.87235,0.36295
5712.94360,0.35951
5711.01485,0.35579
5709.08611,0.35140
5707.15736,0.34764
5705.22862,0.34535
5703.29987,0.34368
5701.37113,0.34148
5699.44238,0.33877
5697.51364,0.33671
5695.58489,0.33624
5693.65615,0.33664
5691.72740,0.33649
5689.79866,0.33540
5687.86991,0.33380
5685.94117,0.33212
5684.01242,0.33054
5682.08368,0.32878
5680.15493,0.32654
5678.22618,0.32386
5676.29744,0.32088
5674.36869,0.31850
5672.43995,0.31762
5670.51120,0.31762
5668.58246,0.31742
5666.65371,0.31713
5664.72497,0.31745
5662.79622,0.31813
5660.86748,0.31895
5658.93873,0.32110
5657.00999,0.32519
5655.08124,0.32939
5653.15250,0.33231
5651.22375,0.33552
5649.29500,0.33962
5647.36626,0.34307
5645.43751,0.34583
5643.50877,0.34859
5641.58002,0.35192
5639.65128,0.35581
5637.72253,0.35894
5635.79379,0.36110
5633.86504,0.36357
5631.93630,0.36654
5630.00755,0.36928
5628.07881,0.37179
5626.15006,0.37439
5624.22132,0.37690
5622.29257,0.37902
5620.36383,0.38062
5618.43508,0.38150
5616.50633,0.38162
5614.57759,0.38163
5612.64884,0.38201
5610.72010,0.38229
5608.79135,0.38208
5606.86261,0.38207
5604.93386,0.38251
5603.00512,0.38204
5601.07637,0.38052
5599.14763,0.37930
5597.21888,0.37881
5595.29014,0.37847
5593.36139,0.37754
5591.43265,0.37620
5589.50390,0.37496
5587.57516,0.37385
5585.64641,0.37371
5583.71766,0.37497
5581.78892,0.37653
5579.86017,0.37797
5577.93143,0.37984
5576.00268,0.38175
5574.07394,0.38289
5572.14519,0.38378
5570.21645,0.38492
5568.28770,0.38580
5566.35896,0.38625
5564.43021,0.38671
5562.50147,0.38703
5560.57272,0.38677
5558.64398,0.38646
5556.71523,0.38709
5554.78648,0.38827
5552.85774,0.38896
5550.92899,0.38926
5549.00025,0.38936
5547.07150,0.38850
5545.14276,0.38707
5543.21401,0.38639
5541.28527,0.38676
5539.35652,0.38719
5537.42778,0.38716
5535.49903,0.38716
5533.57029,0.38710
5531.64154,0.38680
5529.71280,0.38728
5527.78405,0.38882
5525.85531,0.38999
5523.92656,0.39006
5521.99781,0.39024
5520.06907,0.39072
5518.14032,0.39096
5516.21158,0.39160
5514.28283,0.39231
5512.35409,0.39226
5510.42534,0.39202
5508.49660,0.39184
5506.56785,0.39203
5504.63911,0.39328
5502.71036,0.39485
5500.78162,0.39587
5498.85287,0.39677
5496.92413,0.39783
5494.99538,0.39891
5493.06664,0.40040
5491.13789,0.40272
5489.20914,0.40541
5487.28040,0.40738
5485.35165,0.40812
5483.42291,0.40845
5481.49416,0.40943
5479.56542,0.41127
5477.63667,0.41262
5475.70793,0.41232
5473.77918,0.41206
5471.85044,0.41291
5469.92169,0.41336
5467.99295,0.41296
5466.06420,0.41280
5464.13546,0.41322
5462.20671,0.41379
5460.27796,0.41450
5458.34922,0.41481
5456.42047,0.41395
5454.49173,0.41299
5452.56298,0.41296
5450.63424,0.41362
5448.70549,0.41461
5446.77675,0.41506
5444.84800,0.41462
5442.91926,0.41413
5440.99051,0.41381
5439.06177,0.41305
5437.13302,0.41198
5435.20428,0.41123
5433.27553,0.41108
5431.34679,0.41154
5429.41804,0.41219
5427.48929,0.41218
5425.56055,0.41143
5423.63180,0.41090
5421.70306,0.41110
5419.77431,0.41125
5417.84557,0.41075
5415.91682,0.40998
5413.98808,0.40939
5412.05933,0.40931
5410.13059,0.40975
5408.20184,0.40973
5406.27310,0.40883
5404.34435,0.40797
5402.41561,0.40707
5400.48686,0.40577
5398.55811,0.40490
5396.62937,0.40499
5394.70062,0.40549
5392.77188,0.40538
5390.84313,0.40460
5388.91439,0.40416
5386.98564,0.40412
5385.05690,0.40357
5383.12815,0.40238
5381.19941,0.40137
5379.27066,0.40112
5377.34192,0.40129
5375.41317,0.40138
5373.48443,0.40144
5371.55568,0.40188
5369.62694,0.40305
5367.69819,0.40464
5365.76944,0.40585
5363.84070,0.40647
5361.91195,0.40677
5359.98321,0.40704
5358.05446,0.40775
5356.12572,0.40917
5354.19697,0.41085
5352.26823,0.41234
5350.33948,0.41380
5348.41074,0.41510
5346.48199,0.41608
5344.55325,0.41735
5342.62450,0.41920
5340.69576,0.42125
5338.76701,0.42302
5336.83827,0.42419
5334.90952,0.42513
5332.98077,0.42621
5331.05203,0.42664
5329.12328,0.42673
5327.19454,0.42799
5325.26579,0.42943
5323.33705,0.42982
5321.40830,0.43028
5319.47956,0.43129
5317.55081,0.43216
5315.62207,0.43286
5313.69332,0.43368
5311.76458,0.43441
5309.83583,0.43453
5307.90709,0.43400
5305.97834,0.43370
5304.04959,0.43412
5302.12085,0.43446
5300.19210,0.43443
5298.26336,0.43462
5296.33461,0.43495
5294.40587,0.43504
5292.47712,0.43534
5290.54838,0.43613
5288.61963,0.43682
5286.69089,0.43729
5284.76214,0.43772
5282.83340,0.43783
5280.90465,0.43733
5278.97591,0.43650
5277.04716,0.43599
5275.11842,0.43615
5273.18967,0.43665
5271.26092,0.43668
5269.33218,0.43644
5267.40343,0.43664
5265.47469,0.43681
5263.54594,0.43648
5261.61720,0.43610
5259.68845,0.43622
5257.75971,0.43661
5255.83096,0.43651
5253.90222,0.43598
5251.97347,0.43575
5250.04473,0.43640
5248.11598,0.43779
5246.18724,0.43866
5244.25849,0.43837
5242.32975,0.43757
5240.40100,0.43643
5238.47225,0.43507
5236.54351,0.43446
5234.61476,0.43501
5232.68602,0.43572
5230.75727,0.43586
5228.82853,0.43584
5226.89978,0.43601
5224.97104,0.43645
5223.04229,0.43752
5221.11355,0.43896
5219.18480,0.43993
5217.25606,0.44072
5215.32731,0.44207
5213.39857,0.44338
5211.46982,0.44381
5209.54107,0.44363
5207.61233,0.44367
5205.68358,0.44431
5203.75484,0.44472
5201.82609,0.44471
5199.89735,0.44538
5197.96860,0.44668
5196.03986,0.44759
5194.11111,0.44783
5192.18237,0.44800
5190.25362,0.44888
5188.32488,0.45016
5186.39613,0.45066
5184.46739,0.45026
5182.53864,0.44994
5180.60990,0.44981
5178.68115,0.44945
5176.75240,0.44923
5174.82366,0.44974
5172.89491,0.45041
5170.96617,0.45047
5169.03742,0.45076
5167.10868,0.45191
5165.17993,0.45248
5163.25119,0.45209
5161.32244,0.45204
5159.39370,0.45270
5157.46495,0.45347
5155.53621,0.45377
5153.60746,0.45316
5151.67872,0.45204
5149.74997,0.45147
5147.82123,0.45120
5145.89248,0.45021
5143.96373,0.44892
5142.03499,0.44836
5140.10624,0.44862
5138.17750,0.44888
5136.24875,0.44839
5134.32001,0.44739
5132.39126,0.44681
5130.46252,0.44681
5128.53377,0.44678
5126.60503,0.44665
5124.67628,0.44643
5122.74754,0.44606
5120.81879,0.44603
5118.89005,0.44643
5116.96130,0.44704
5115.03255,0.44786
5113.10381,0.44848
5111.17506,0.44889
5109.24632,0.44973
5107.31757,0.45092
5105.38883,0.45143
5103.46008,0.45133
5101.53134,0.45152
5099.60259,0.45190
5097.67385,0.45200
5095.74510,0.45196
5093.81636,0.45206
5091.88761,0.45245
5089.95887,0.45292
5088.03012,0.45291
5086.10138,0.45245
5084.17263,0.45245
5082.24388,0.45311
5080.31514,0.45372
5078.38639,0.45392
5076.45765,0.45388
5074.52890,0.45383
5072.60016,0.45398
5070.67141,0.45438
5068.74267,0.45472
5066.81392,0.45478
5064.88518,0.45458
5062.95643,0.45418
5061.02769,0.45380
5059.09894,0.45359
5057.17020,0.45365
5055.24145,0.45412
5053.31270,0.45425
5051.38396,0.45327
5049.45521,0.45204
5047.52647,0.45156
5045.59772,0.45154
5043.66898,0.45154
5041.74023,0.45183
5039.81149,0.45242
5037.88274,0.45221
5035.95400,0.45103
5034.02525,0.45039
5032.09651,0.45089
5030.16776,0.45198
5028.23902,0.45311
5026.31027,0.45379
5024.38153,0.45407
5022.45278,0.45458
5020.52403,0.45536
5018.59529,0.45555
5016.66654,0.45480
5014.73780,0.45440
5012.80905,0.45515
5010.88031,0.45586
5008.95156,0.45572
5007.02282,0.45530
5005.09407,0.45469
5003.16533,0.45337
5001.23658,0.45178
4999.30784,0.45087
4997.37909,0.45063
4995.45035,0.45017
4993.52160,0.44894
4991.59286,0.44737
4989.66411,0.44603
4987.73536,0.44491
4985.80662,0.44411
4983.87787,0.44380
4981.94913,0.44403
4980.02038,0.44426
4978.09164,0.44379
4976.16289,0.44298
4974.23415,0.44257
4972.30540,0.44272
4970.37666,0.44347
4968.44791,0.44439
4966.51917,0.44473
4964.59042,0.44472
4962.66168,0.44510
4960.73293,0.44570
4958.80418,0.44594
4956.87544,0.44591
4954.94669,0.44580
4953.01795,0.44539
4951.08920,0.44471
4949.16046,0.44415
4947.23171,0.44395
4945.30297,0.44396
4943.37422,0.44377
4941.44548,0.44322
4939.51673,0.44268
4937.58799,0.44260
4935.65924,0.44269
4933.73050,0.44254
4931.80175,0.44251
4929.87301,0.44294
4927.94426,0.44372
4926.01551,0.44457
4924.08677,0.44498
4922.15802,0.44480
4920.22928,0.44435
4918.30053,0.44402
4916.37179,0.44407
4914.44304,0.44411
4912.51430,0.44341
4910.58555,0.44228
4908.65681,0.44167
4906.72806,0.44183
4904.79932,0.44244
4902.87057,0.44294
4900.94183,0.44278
4899.01308,0.44204
4897.08434,0.44123
4895.15559,0.44053
4893.22684,0.43983
4891.29810,0.43912
4889.36935,0.43823
4887.44061,0.43682
4885.51186,0.43516
4883.58312,0.43397
4881.65437,0.43338
4879.72563,0.43278
4877.79688,0.43170
4875.86814,0.43017
4873.93939,0.42892
4872.01065,0.42851
4870.08190,0.42849
4868.15316,0.42818
4866.22441,0.42760
4864.29566,0.42722
4862.36692,0.42750
4860.43817,0.42804
4858.50943,0.42771
4856.58068,0.42650
4854.65194,0.42547
4852.72319,0.42494
4850.79445,0.42425
4848.86570,0.42282
4846.93696,0.42085
4845.00821,0.41907
4843.07947,0.41791
4841.15072,0.41674
4839.22198,0.41493
4837.29323,0.41331
4835.36449,0.41246
4833.43574,0.41198
4831.50699,0.41187
4829.57825,0.41198
4827.64950,0.41173
4825.72076,0.41149
4823.79201,0.41223
4821.86327,0.41379
4819.93452,0.41482
4818.00578,0.41480
4816.07703,0.41460
4814.14829,0.41457
4812.21954,0.41474
4810.29080,0.41554
4808.36205,0.41665
4806.43331,0.41721
4804.50456,0.41697
4802.57582,0.41637
4800.64707,0.41592
4798.71832,0.41530
4796.78958,0.41433
4794.86083,0.41319
4792.93209,0.41177
4791.00334,0.41028
4789.07460,0.40911
4787.14585,0.40802
4785.21711,0.40664
4783.28836,0.40487
4781.35962,0.40288
4779.43087,0.40047
4777.50213,0.39718
4775.57338,0.39332
4773.64464,0.38962
4771.71589,0.38601
4769.78714,0.38212
4767.85840,0.37807
4765.92965,0.37454
4764.00091,0.37219
4762.07216,0.37076
4760.14342,0.36967
4758.21467,0.36899
4756.28593,0.36920
4754.35718,0.37015
4752.42844,0.37068
4750.49969,0.36991
4748.57095,0.36835
4746.64220,0.36700
4744.71346,0.36606
4742.78471,0.36496
4740.85597,0.36324
4738.92722,0.36092
4736.99847,0.35809
4735.06973,0.35487
4733.14098,0.35150
4731.21224,0.34796
4729.28349,0.34384
4727.35475,0.33893
4725.42600,0.33368
4723.49726,0.32844
4721.56851,0.32268
4719.63977,0.31619
4717.71102,0.30940
4715.78228,0.30281
4713.85353,0.29674
4711.92479,0.29140
4709.99604,0.28707
4708.06729,0.28379
4706.13855,0.28136
4704.20980,0.27956
4702.28106,0.27791
4700.35231,0.27557
4698.42357,0.27197
4696.49482,0.26749
4694.56608,0.26241
4692.63733,0.25642
4690.70859,0.24934
4688.77984,0.24115
4686.85110,0.23157
4684.92235,0.22026
4682.99361,0.20774
4681.06486,0.19522
4679.13612,0.18298
4677.20737,0.17056
4675.27862,0.15874
4673.34988,0.14881
4671.42113,0.14088
4669.49239,0.13467
4667.56364,0.13047
4665.63490,0.12805
4663.70615,0.12705
4661.77741,0.12762
4659.84866,0.12959
4657.91992,0.13251
4655.99117,0.13627
4654.06243,0.14080
4652.13368,0.14587
4650.20494,0.15083
4648.27619,0.15493
4646.34745,0.15773
4644.41870,0.15907
4642.48995,0.15887
4640.56121,0.15717
4638.63246,0.15425
4636.70372,0.15065
4634.77497,0.14676
4632.84623,0.14277
4630.91748,0.13895
4628.98874,0.13572
4627.05999,0.13324
4625.13125,0.13136
4623.20250,0.12994
4621.27376,0.12901
4619.34501,0.12881
4617.41627,0.12913
4615.48752,0.12917
4613.55877,0.12833
4611.63003,0.12698
4609.70128,0.12591
4607.77254,0.12545
4605.84379,0.12592
4603.91505,0.12786
4601.98630,0.13117
4600.05756,0.13573
4598.12881,0.14142
4596.20007,0.14748
4594.27132,0.15338
4592.34258,0.15873
4590.41383,0.16287
4588.48509,0.16591
4586.55634,0.16834
4584.62760,0.16961
4582.69885,0.16877
4580.77010,0.16558
4578.84136,0.16044
4576.91261,0.15422
4574.98387,0.14837
4573.05512,0.14441
4571.12638,0.14309
4569.19763,0.14455
4567.26889,0.14880
4565.34014,0.15572
4563.41140,0.16446
4561.48265,0.17325
4559.55391,0.18074
4557.62516,0.18721
4555.69642,0.19301
4553.76767,0.19801
4551.83893,0.20315
4549.91018,0.20923
4547.98143,0.21546
4546.05269,0.22106
4544.12394,0.22597
4542.19520,0.22997
4540.26645,0.23234
4538.33771,0.23283
4536.40896,0.23247
4534.48022,0.23238
4532.55147,0.23278
4530.62273,0.23372
4528.69398,0.23538
4526.76524,0.23715
4524.83649,0.23809
4522.90775,0.23791
4520.97900,0.23696
4519.05025,0.23584
4517.12151,0.23508
4515.19276,0.23476
4513.26402,0.23442
4511.33527,0.23369
4509.40653,0.23264
4507.47778,0.23152
4505.54904,0.23046
4503.62029,0.22984
4501.69155,0.23053
4499.76280,0.23315
4497.83406,0.23716
4495.90531,0.24113
4493.97657,0.24402
4492.04782,0.24565
4490.11908,0.24640
4488.19033,0.24660
4486.26158,0.24622
4484.33284,0.24556
4482.40409,0.24532
4480.47535,0.24583
4478.54660,0.24692
4476.61786,0.24851
4474.68911,0.25057
4472.76037,0.25286
4470.83162,0.25524
4468.90288,0.25776
4466.97413,0.26016
4465.04539,0.26225
4463.11664,0.26394
4461.18790,0.26494
4459.25915,0.26530
4457.33041,0.26516
4455.40166,0.26426
4453.47291,0.26244
4451.54417,0.25971
4449.61542,0.25620
4447.68668,0.25233
4445.75793,0.24837
4443.82919,0.24454
4441.90044,0.24126
4439.97170,0.23915
4438.04295,0.23855
4436.11421,0.23900
4434.18546,0.23984
4432.25672,0.24064
4430.32797,0.24071
4428.39923,0.23974
4426.47048,0.23812
4424.54173,0.23624
4422.61299,0.23403
4420.68424,0.23156
4418.75550,0.22900
4416.82675,0.22645
4414.89801,0.22396
4412.96926,0.22123
4411.04052,0.21820
4409.11177,0.21543
4407.18303,0.21286
4405.25428,0.21011
4403.32554,0.20741
4401.39679,0.20489
4399.46805,0.20209
4397.53930,0.19866
4395.61056,0.19504
4393.68181,0.19159
4391.75306,0.18818
4389.82432,0.18473
4387.89557,0.18149
4385.96683,0.17867
4384.03808,0.17592
4382.10934,0.17291
4380.18059,0.16984
4378.25185,0.16696
4376.32310,0.16404
4374.39436,0.16092
4372.46561,0.15782
4370.53687,0.15485
4368.60812,0.15185
4366.67938,0.14890
4364.75063,0.14603
4362.82189,0.14300
4360.89314,0.13985
4358.96439,0.13696
4357.03565,0.13466
4355.10690,0.13297
4353.17816,0.13144
4351.24941,0.12960
4349.32067,0.12778
4347.39192,0.12639
4345.46318,0.12518
4343.53443,0.12377
4341.60569,0.12225
4339.67694,0.12111
4337.74820,0.12042
4335.81945,0.11974
4333.89071,0.11893
4331.96196,0.11836
4330.03321,0.11829
4328.10447,0.11848
4326.17572,0.11901
4324.24698,0.12013
4322.31823,0.12173
4320.38949,0.12358
4318.46074,0.12582
4316.53200,0.12851
4314.60325,0.13102
4312.67451,0.13285
4310.74576,0.13417
4308.81702,0.13527
4306.88827,0.13631
4304.95953,0.13711
4303.03078,0.13722
4301.10204,0.13672
4299.17329,0.13615
4297.24454,0.13545
4295.31580,0.13449
4293.38705,0.13355
4291.45831,0.13283
4289.52956,0.13201
4287.60082,0.13074
4285.67207,0.12916
4283.74333,0.12752
4281.81458,0.12591
4279.88584,0.12446
4277.95709,0.12292
4276.02835,0.12101
4274.09960,0.11887
4272.17086,0.11674
4270.24211,0.11492
4268.31336,0.11355
4266.38462,0.11213
4264.45587,0.11028
4262.52713,0.10827
4260.59838,0.10648
4258.66964,0.10524
4256.74089,0.10460
4254.81215,0.10409
4252.88340,0.10345
4250.95466,0.10314
4249.02591,0.10335
4247.09717,0.10359
4245.16842,0.10386
4243.23968,0.10422
4241.31093,0.10429
4239.38219,0.10433
4237.45344,0.10483
4235.52469,0.10558
4233.59595,0.10627
4231.66720,0.10672
4229.73846,0.10685
4227.80971,0.10703
4225.88097,0.10748
4223.95222,0.10773
4222.02348,0.10769
4220.09473,0.10773
4218.16599,0.10790
4216.23724,0.10802
4214.30850,0.10786
4212.37975,0.10745
4210.45101,0.10703
4208.52226,0.10674
4206.59352,0.10687
4204.66477,0.10765
4202.73602,0.10862
4200.80728,0.10936
4198.87853,0.11000
4196.94979,0.11082
4195.02104,0.11196
4193.09230,0.11321
4191.16355,0.11427
4189.23481,0.11510
4187.30606,0.11569
4185.37732,0.11626
4183.44857,0.11697
4181.51983,0.11746
4179.59108,0.11765
4177.66234,0.11813
4175.73359,0.11906
4173.80484,0.11993
4171.87610,0.12067
4169.94735,0.12162
4168.01861,0.12261
4166.08986,0.12309
4164.16112,0.12297
4162.23237,0.12263
4160.30363,0.12255
4158.37488,0.12286
4156.44614,0.12318
4154.51739,0.12318
4152.58865,0.12308
4150.65990,0.12317
4148.73116,0.12322
4146.80241,0.12298
4144.87367,0.12264
4142.94492,0.12234
4141.01617,0.12207
4139.08743,0.12169
4137.15868,0.12093
4135.22994,0.11991
4133.30119,0.11894
4131.37245,0.11801
4129.44370,0.11733
4127.51496,0.11694
4125.58621,0.11619
4123.65747,0.11508
4121.72872,0.11430
4119.79998,0.11391
4117.87123,0.11355
4115.94249,0.11302
4114.01374,0.11218
4112.08500,0.11099
4110.15625,0.10972
4108.22750,0.10891
4106.29876,0.10873
4104.37001,0.10861
4102.44127,0.10808
4100.51252,0.10733
4098.58378,0.10680
4096.65503,0.10644
4094.72629,0.10582
4092.79754,0.10489
4090.86880,0.10378
4088.94005,0.10249
4087.01131,0.10103
4085.08256,0.09966
4083.15382,0.09846
4081.22507,0.09715
4079.29632,0.09570
4077.36758,0.09411
4075.43883,0.09244
4073.51009,0.09080
4071.58134,0.08904
4069.65260,0.08726
4067.72385,0.08583
4065.79511,0.08472
4063.86636,0.08367
4061.93762,0.08282
4060.00887,0.08240
4058.08013,0.08213
4056.15138,0.08169
4054.22264,0.08114
4052.29389,0.08084
4050.36515,0.08110
4048.43640,0.08174
4046.50765,0.08222
4044.57891,0.08232
4042.65016,0.08216
4040.72142,0.08169
4038.79267,0.08080
4036.86393,0.08009
4034.93518,0.08037
4033.00644,0.08146
4031.07769,0.08274
4029.14895,0.08397
4027.22020,0.08531
4025.29146,0.08692
4023.36271,0.08873
4021.43397,0.09096
4019.50522,0.09397
4017.57648,0.09738
4015.64773,0.10049
4013.71898,0.10301
4011.79024,0.10489
4009.86149,0.10619
4007.93275,0.10696
4006.00400,0.10717
4004.07526,0.10704
4002.14651,0.10705
4000.21777,0.10743
3998.28902,0.10832
3996.36028,0.11000
3994.43153,0.11235
3992.50279,0.11468
3990.57404,0.11647
3988.64530,0.11783
3986.71655,0.11888
3984.78780,0.11947
3982.85906,0.11947
3980.93031,0.11911
3979.00157,0.11876
3977.07282,0.11869
3975.14408,0.11889
3973.21533,0.11927
3971.28659,0.11979
3969.35784,0.12037
3967.42910,0.12089
3965.50035,0.12124
3963.57161,0.12133
3961.64286,0.12131
3959.71412,0.12158
3957.78537,0.12218
3955.85663,0.12277
3953.92788,0.12323
3951.99913,0.12355
3950.07039,0.12363
3948.14164,0.12340
3946.21290,0.12299
3944.28415,0.12240
3942.35541,0.12155
3940.42666,0.12084
3938.49792,0.12058
3936.56917,0.12047
3934.64043,0.12025
3932.71168,0.12027
3930.78294,0.12078
3928.85419,0.12138
3926.92545,0.12177
3924.99670,0.12207
3923.06795,0.12231
3921.13921,0.12267
3919.21046,0.12325
3917.28172,0.12381
3915.35297,0.12434
3913.42423,0.12486
3911.49548,0.12517
3909.56674,0.12522
3907.63799,0.12516
3905.70925,0.12534
3903.78050,0.12572
3901.85176,0.12592
3899.92301,0.12593
3897.99427,0.12607
3896.06552,0.12639
3894.13678,0.12677
3892.20803,0.12722
3890.27928,0.12763
3888.35054,0.12807
3886.42179,0.12853
3884.49305,0.12882
3882.56430,0.12905
3880.63556,0.12926
3878.70681,0.12915
3876.77807,0.12895
3874.84932,0.12897
3872.92058,0.12910
3870.99183,0.12901
3869.06309,0.12865
3867.13434,0.12838
3865.20560,0.12841
3863.27685,0.12853
3861.34811,0.12849
3859.41936,0.12836
3857.49061,0.12841
3855.56187,0.12878
3853.63312,0.12906
3851.70438,0.12884
3849.77563,0.12840
3847.84689,0.12797
3845.91814,0.12752
3843.98940,0.12698
3842.06065,0.12634
3840.13191,0.12571
3838.20316,0.12524
3836.27442,0.12481
3834.34567,0.12424
3832.41693,0.12350
3830.48818,0.12277
3828.55943,0.12229
3826.63069,0.12206
3824.70194,0.12164
3822.77320,0.12088
3820.84445,0.12021
3818.91571,0.11993
3816.98696,0.11981
3815.05822,0.11964
3813.12947,0.11961
3811.20073,0.11994
3809.27198,0.12048
3807.34324,0.12059
3805.41449,0.12025
3803.48575,0.12019
3801.55700,0.12043
3799.62826,0.12067
3797.69951,0.12103
3795.77076,0.12174
3793.84202,0.12275
3791.91327,0.12391
3789.98453,0.12517
3788.05578,0.12632
3786.12704,0.12724
3784.19829,0.12808
3782.26955,0.12872
3780.34080,0.12889
3778.41206,0.12877
3776.48331,0.12881
3774.55457,0.12902
3772.62582,0.12905
3770.69708,0.12876
3768.76833,0.12824
3766.83959,0.12768
3764.91084,0.12737
3762.98209,0.12753
3761.05335,0.12804
3759.12460,0.12866
3757.19586,0.12941
3755.26711,0.13026
3753.33837,0.13112
3751.40962,0.13193
3749.48088,0.13269
3747.55213,0.13329
3745.62339,0.13352
3743.69464,0.13340
3741.76590,0.13328
3739.83715,0.13322
3737.90841,0.13305
3735.97966,0.13264
3734.05091,0.13194
3732.12217,0.13108
3730.19342,0.13007
3728.26468,0.12868
3726.33593,0.12689
3724.40719,0.12526
3722.47844,0.12417
3720.54970,0.12371
3718.62095,0.12408
3716.69221,0.12521
3714.76346,0.12653
3712.83472,0.12746
3710.90597,0.12742
3708.97723,0.12630
3707.04848,0.12454
3705.11974,0.12257
3703.19099,0.12050
3701.26224,0.11862
3699.33350,0.11766
3697.40475,0.11792
3695.47601,0.11884
3693.54726,0.11998
3691.61852,0.12110
3689.68977,0.12161
3687.76103,0.12115
3685.83228,0.12026
3683.90354,0.11928
3681.97479,0.11821
3680.04605,0.11724
3678.11730,0.11654
3676.18856,0.11621
3674.25981,0.11600
3672.33107,0.11563
3670.40232,0.11538
3668.47357,0.11554
3666.54483,0.11568
3664.61608,0.11522
3662.68734,0.11403
3660.75859,0.11211
3658.82985,0.10966
3656.90110,0.10699
3654.97236,0.10439
3653.04361,0.10205
3651.11487,0.09986
3649.18612,0.09801
3647.25738,0.09700
3645.32863,0.09714
3643.39989,0.09887
3641.47114,0.10220
3639.54239,0.10627
3637.61365,0.11017
3635.68490,0.11350
3633.75616,0.11610
3631.82741,0.11774
3629.89867,0.11809
3627.96992,0.11703
3626.04118,0.11496
3624.11243,0.11233
3622.18369,0.10998
3620.25494,0.10920
3618.32620,0.11075
3616.39745,0.11429
3614.46871,0.11886
3612.53996,0.12355
3610.61122,0.12775
3608.68247,0.13129
3606.75372,0.13408
3604.82498,0.13598
3602.89623,0.13712
3600.96749,0.13768
3599.03874,0.13774
3597.11000,0.13761
3595.18125,0.13772
3593.25251,0.13799
3591.32376,0.13808
3589.39502,0.13793
3587.46627,0.13776
3585.53753,0.13795
3583.60878,0.13869
3581.68004,0.13992
3579.75129,0.14143
3577.82254,0.14300
3575.89380,0.14463
3573.96505,0.14626
3572.03631,0.14778
3570.10756,0.14910
3568.17882,0.15016
3566.25007,0.15074
3564.32133,0.15066
3562.39258,0.15038
3560.46384,0.15033
3558.53509,0.15046
3556.60635,0.15066
3554.67760,0.15073
3552.74886,0.15055
3550.82011,0.15031
3548.89137,0.15030
3546.96262,0.15032
3545.03387,0.14979
3543.10513,0.14882
3541.17638,0.14815
3539.24764,0.14800
3537.31889,0.14790
3535.39015,0.14754
3533.46140,0.14701
3531.53266,0.14638
3529.60391,0.14577
3527.67517,0.14540
3525.74642,0.14532
3523.81768,0.14524
3521.88893,0.14487
3519.96019,0.14434
3518.03144,0.14392
3516.10270,0.14357
3514.17395,0.14308
3512.24520,0.14254
3510.31646,0.14227
3508.38771,0.14215
3506.45897,0.14190
3504.53022,0.14140
3502.60148,0.14066
3500.67273,0.13984
3498.74399,0.13915
3496.81524,0.13854
3494.88650,0.13780
3492.95775,0.13691
3491.02901,0.13594
3489.10026,0.13489
3487.17152,0.13393
3485.24277,0.13330
3483.31402,0.13297
3481.38528,0.13278
3479.45653,0.13247
3477.52779,0.13176
3475.59904,0.13089
3473.67030,0.13023
3471.74155,0.12964
3469.81281,0.12896
3467.88406,0.12833
3465.95532,0.12804
3464.02657,0.12808
3462.09783,0.12808
3460.16908,0.12797
3458.24034,0.12774
3456.31159,0.12721
3454.38285,0.12653
3452.45410,0.12597
3450.52535,0.12549
3448.59661,0.12483
3446.66786,0.12390
3444.73912,0.12294
3442.81037,0.12213
3440.88163,0.12168
3438.95288,0.12180
3437.02414,0.12244
3435.09539,0.12360
3433.16665,0.12526
3431.23790,0.12696
3429.30916,0.12840
3427.38041,0.12950
3425.45167,0.13025
3423.52292,0.13115
3421.59418,0.13250
3419.66543,0.13386
3417.73668,0.13477
3415.80794,0.13534
3413.87919,0.13586
3411.95045,0.13614
3410.02170,0.13593
3408.09296,0.13560
3406.16421,0.13542
3404.23547,0.13532
3402.30672,0.13549
3400.37798,0.13585
3398.44923,0.13607
3396.52049,0.13644
3394.59174,0.13697
3392.66300,0.13709
3390.73425,0.13669
3388.80550,0.13618
3386.87676,0.13594
3384.94801,0.13608
3383.01927,0.13640
3381.09052,0.13687
3379.16178,0.13754
3377.23303,0.13827
3375.30429,0.13916
3373.37554,0.14022
3371.44680,0.14117
3369.51805,0.14192
3367.58931,0.14223
3365.66056,0.14204
3363.73182,0.14177
3361.80307,0.14179
3359.87433,0.14209
3357.94558,0.14232
3356.01683,0.14215
3354.08809,0.14159
3352.15934,0.14107
3350.23060,0.14067
3348.30185,0.14005
3346.37311,0.13919
3344.44436,0.13846
3342.51562,0.13808
3340.58687,0.13786
3338.65813,0.13755
3336.72938,0.13712
3334.80064,0.13658
3332.87189,0.13598
3330.94315,0.13526
3329.01440,0.13447
3327.08566,0.13369
3325.15691,0.13287
3323.22816,0.13216
3321.29942,0.13160
3319.37067,0.13089
3317.44193,0.12965
3315.51318,0.12792
3313.58444,0.12586
3311.65569,0.12318
3309.72695,0.11995
3307.79820,0.11640
3305.86946,0.11256
3303.94071,0.10896
3302.01197,0.10650
3300.08322,0.10552
3298.15448,0.10585
3296.22573,0.10702
3294.29698,0.10876
3292.36824,0.11084
3290.43949,0.11291
3288.51075,0.11483
3286.58200,0.11651
3284.65326,0.11781
3282.72451,0.11892
3280.79577,0.11989
3278.86702,0.12052
3276.93828,0.12080
3275.00953,0.12080
3273.08079,0.12079
3271.15204,0.12113
3269.22330,0.12159
3267.29455,0.12149
3265.36581,0.12072
3263.43706,0.11980
3261.50831,0.11934
3259.57957,0.11931
3257.65082,0.11923
3255.72208,0.11895
3253.79333,0.11878
3251.86459,0.11869
3249.93584,0.11824
3248.00710,0.11763
3246.07835,0.11738
3244.14961,0.11717
3242.22086,0.11672
3240.29212,0.11636
3238.36337,0.11613
3236.43463,0.11568
3234.50588,0.11496
3232.57713,0.11426
3230.64839,0.11364
3228.71964,0.11296
3226.79090,0.11245
3224.86215,0.11196
3222.93341,0.11093
3221.00466,0.10973
3219.07592,0.10888
3217.14717,0.10817
3215.21843,0.10758
3213.28968,0.10704
3211.36094,0.10602
3209.43219,0.10437
3207.50345,0.10275
3205.57470,0.10155
3203.64596,0.10043
3201.71721,0.09932
3199.78846,0.09869
3197.85972,0.09842
3195.93097,0.09792
3194.00223,0.09738
3192.07348,0.09725
3190.14474,0.09715
3188.21599,0.09656
3186.28725,0.09573
3184.35850,0.09515
3182.42976,0.09489
3180.50101,0.09464
3178.57227,0.09426
3176.64352,0.09368
3174.71478,0.09262
3172.78603,0.09099
3170.85729,0.08908
3168.92854,0.08691
3166.99979,0.08448
3165.07105,0.08237
3163.14230,0.08107
3161.21356,0.08073
3159.28481,0.08133
3157.35607,0.08252
3155.42732,0.08377
3153.49858,0.08478
3151.56983,0.08537
3149.64109,0.08542
3147.71234,0.08513
3145.78360,0.08479
3143.85485,0.08453
3141.92611,0.08407
3139.99736,0.08322
3138.06861,0.08246
3136.13987,0.08191
3134.21112,0.08125
3132.28238,0.08054
3130.35363,0.07992
3128.42489,0.07900
3126.49614,0.07766
3124.56740,0.07648
3122.63865,0.07577
3120.70991,0.07496
3118.78116,0.07346
3116.85242,0.07159
3114.92367,0.07027
3112.99493,0.06953
3111.06618,0.06856
3109.13744,0.06741
3107.20869,0.06678
3105.27994,0.06673
3103.35120,0.06675
3101.42245,0.06663
3099.49371,0.06656
3097.56496,0.06655
3095.63622,0.06636
3093.70747,0.06596
3091.77873,0.06550
3089.84998,0.06501
3087.92124,0.06457
3085.99249,0.06445
3084.06375,0.06470
3082.13500,0.06493
3080.20626,0.06506
3078.27751,0.06529
3076.34877,0.06547
3074.42002,0.06535
3072.49127,0.06515
3070.56253,0.06501
3068.63378,0.06470
3066.70504,0.06442
3064.77629,0.06442
3062.84755,0.06464
3060.91880,0.06498
3058.99006,0.06529
3057.06131,0.06543
3055.13257,0.06547
3053.20382,0.06559
3051.27508,0.06571
3049.34633,0.06575
3047.41759,0.06580
3045.48884,0.06566
3043.56009,0.06530
3041.63135,0.06492
3039.70260,0.06462
3037.77386,0.06445
3035.84511,0.06445
3033.91637,0.06448
3031.98762,0.06427
3030.05888,0.06402
3028.13013,0.06431
3026.20139,0.06517
3024.27264,0.06617
3022.34390,0.06711
3020.41515,0.06776
3018.48641,0.06795
3016.55766,0.06802
3014.62892,0.06809
3012.70017,0.06794
3010.77142,0.06770
3008.84268,0.06763
3006.91393,0.06759
3004.98519,0.06732
3003.05644,0.06688
3001.12770,0.06661
2999.19895,0.06676
2997.27021,0.06710
2995.34146,0.06721
2993.41272,0.06722
2991.48397,0.06736
2989.55523,0.06756
2987.62648,0.06766
2985.69774,0.06751
2983.76899,0.06713
2981.84025,0.06683
2979.91150,0.06667
2977.98275,0.06648
2976.05401,0.06633
2974.12526,0.06641
2972.19652,0.06648
2970.26777,0.06630
2968.33903,0.06596
2966.41028,0.06579
2964.48154,0.06585
2962.55279,0.06584
2960.62405,0.06558
2958.69530,0.06528
2956.76656,0.06494
2954.83781,0.06449
2952.90907,0.06413
2950.98032,0.06385
2949.05157,0.06367
2947.12283,0.06384
2945.19408,0.06408
2943.26534,0.06384
2941.33659,0.06336
2939.40785,0.06322
2937.47910,0.06337
2935.55036,0.06350
2933.62161,0.06365
2931.69287,0.06402
2929.76412,0.06458
2927.83538,0.06514
2925.90663,0.06572
2923.97789,0.06633
2922.04914,0.06697
2920.12040,0.06763
2918.19165,0.06825
2916.26290,0.06873
2914.33416,0.06910
2912.40541,0.06942
2910.47667,0.06957
2908.54792,0.06932
2906.61918,0.06896
2904.69043,0.06887
2902.76169,0.06901
2900.83294,0.06924
2898.90420,0.06952
2896.97545,0.06953
2895.04671,0.06910
2893.11796,0.06872
2891.18922,0.06867
2889.26047,0.06872
2887.33172,0.06871
2885.40298,0.06857
2883.47423,0.06836
2881.54549,0.06826
2879.61674,0.06827
2877.68800,0.06822
2875.75925,0.06810
2873.83051,0.06803
2871.90176,0.06806
2869.97302,0.06808
2868.04427,0.06805
2866.11553,0.06803
2864.18678,0.06802
2862.25804,0.06808
2860.32929,0.06815
2858.40055,0.06806
2856.47180,0.06790
2854.54305,0.06788
2852.61431,0.06805
2850.68556,0.06822
2848.75682,0.06837
2846.82807,0.06872
2844.89933,0.06913
2842.97058,0.06919
2841.04184,0.06905
2839.11309,0.06902
2837.18435,0.06901
2835.25560,0.06910
2833.32686,0.06934
2831.39811,0.06949
2829.46937,0.06946
2827.54062,0.06946
2825.61188,0.06964
2823.68313,0.06989
2821.75438,0.07024
2819.82564,0.07080
2817.89689,0.07107
2815.96815,0.07087
2814.03940,0.07075
2812.11066,0.07099
2810.18191,0.07121
2808.25317,0.07124
2806.32442,0.07127
2804.39568,0.07139
2802.46693,0.07145
2800.53819,0.07152
2798.60944,0.07174
2796.68070,0.07197
2794.75195,0.07200
2792.82320,0.07201
2790.89446,0.07224
2788.96571,0.07262
2787.03697,0.07289
2785.10822,0.07291
2783.17948,0.07280
2781.25073,0.07288
2779.32199,0.07314
2777.39324,0.07336
2775.46450,0.07354
2773.53575,0.07381
2771.60701,0.07422
2769.67826,0.07468
2767.74952,0.07501
2765.82077,0.07520
2763.89203,0.07541
2761.96328,0.07561
2760.03453,0.07579
2758.10579,0.07599
2756.17704,0.07604
2754.24830,0.07597
2752.31955,0.07607
2750.39081,0.07630
2748.46206,0.07644
2746.53332,0.07648
2744.60457,0.07642
2742.67583,0.07627
2740.74708,0.07619
2738.81834,0.07618
2736.88959,0.07600
2734.96085,0.07557
2733.03210,0.07510
2731.10336,0.07473
2729.17461,0.07462
2727.24586,0.07487
2725.31712,0.07513
2723.38837,0.07503
2721.45963,0.07459
2719.53088,0.07419
2717.60214,0.07418
2715.67339,0.07448
2713.74465,0.07477
2711.81590,0.07500
2709.88716,0.07521
2707.95841,0.07531
2706.02967,0.07529
2704.10092,0.07530
2702.17218,0.07528
2700.24343,0.07516
2698.31468,0.07506
2696.38594,0.07510
2694.45719,0.07519
2692.52845,0.07521
2690.59970,0.07505
2688.67096,0.07472
2686.74221,0.07452
2684.81347,0.07455
2682.88472,0.07454
2680.95598,0.07445
2679.02723,0.07447
2677.09849,0.07447
2675.16974,0.07431
2673.24100,0.07420
2671.31225,0.07435
2669.38351,0.07453
2667.45476,0.07459
2665.52601,0.07462
2663.59727,0.07467
2661.66852,0.07463
2659.73978,0.07454
2657.81103,0.07459
2655.88229,0.07479
2653.95354,0.07480
2652.02480,0.07455
2650.09605,0.07433
2648.16731,0.07420
2646.23856,0.07413
2644.30982,0.07427
2642.38107,0.07447
2640.45233,0.07437
2638.52358,0.07389
2636.59484,0.07337
2634.66609,0.07300
2632.73734,0.07283
2630.80860,0.07290
2628.87985,0.07320
2626.95111,0.07365
2625.02236,0.07417
2623.09362,0.07459
2621.16487,0.07481
2619.23613,0.07497
2617.30738,0.07522
2615.37864,0.07541
2613.44989,0.07530
2611.52115,0.07490
2609.59240,0.07436
2607.66366,0.07381
2605.73491,0.07342
2603.80616,0.07327
2601.87742,0.07329
2599.94867,0.07348
2598.01993,0.07392
2596.09118,0.07453
2594.16244,0.07503
2592.23369,0.07531
2590.30495,0.07540
2588.37620,0.07535
2586.44746,0.07516
2584.51871,0.07484
2582.58997,0.07452
2580.66122,0.07438
2578.73248,0.07454
2576.80373,0.07509
2574.87499,0.07587
2572.94624,0.07634
2571.01749,0.07630
2569.08875,0.07603
2567.16000,0.07589
2565.23126,0.07588
2563.30251,0.07585
2561.37377,0.07570
2559.44502,0.07551
2557.51628,0.07553
2555.58753,0.07579
2553.65879,0.07605
2551.73004,0.07612
2549.80130,0.07587
2547.87255,0.07556
2545.94381,0.07554
2544.01506,0.07571
2542.08631,0.07586
2540.15757,0.07606
2538.22882,0.07626
2536.30008,0.07635
2534.37133,0.07639
2532.44259,0.07628
2530.51384,0.07609
2528.58510,0.07604
2526.65635,0.07602
2524.72761,0.07584
2522.79886,0.07563
2520.87012,0.07558
2518.94137,0.07553
2517.01263,0.07537
2515.08388,0.07520
2513.15514,0.07514
2511.22639,0.07522
2509.29764,0.07525
2507.36890,0.07520
2505.44015,0.07533
2503.51141,0.07566
2501.58266,0.07593
2499.65392,0.07599
2497.72517,0.07603
2495.79643,0.07622
2493.86768,0.07639
2491.93894,0.07651
2490.01019,0.07667
2488.08145,0.07690
2486.15270,0.07710
2484.22396,0.07729
2482.29521,0.07755
2480.36647,0.07783
2478.43772,0.07802
2476.50897,0.07825
2474.58023,0.07856
2472.65148,0.07890
2470.72274,0.07932
2468.79399,0.07968
2466.86525,0.07984
2464.93650,0.08006
2463.00776,0.08051
2461.07901,0.08086
2459.15027,0.08084
2457.22152,0.08065
2455.29278,0.08051
2453.36403,0.08041
2451.43529,0.08045
2449.50654,0.08062
2447.57779,0.08074
2445.64905,0.08074
2443.72030,0.08069
2441.79156,0.08072
2439.86281,0.08087
2437.93407,0.08098
2436.00532,0.08103
2434.07658,0.08110
2432.14783,0.08123
2430.21909,0.08158
2428.29034,0.08199
2426.36160,0.08215
2424.43285,0.08227
2422.50411,0.08243
2420.57536,0.08240
2418.64662,0.08223
2416.71787,0.08206
2414.78912,0.08182
2412.86038,0.08152
2410.93163,0.08123
2409.00289,0.08097
2407.07414,0.08069
2405.14540,0.08032
2403.21665,0.07993
2401.28791,0.07968
2399.35916,0.07962
2397.43042,0.07967
2395.50167,0.07971
2393.57293,0.07963
2391.64418,0.07940
2389.71544,0.07913
2387.78669,0.07898
2385.85795,0.07890
2383.92920,0.07881
2382.00045,0.07881
2380.07171,0.07884
2378.14296,0.07876
2376.21422,0.07848
2374.28547,0.07820
2372.35673,0.07805
2370.42798,0.07778
2368.49924,0.07726
2366.57049,0.07674
2364.64175,0.07635
2362.71300,0.07606
2360.78426,0.07586
2358.85551,0.07582
2356.92677,0.07582
2354.99802,0.07586
2353.06927,0.07593
2351.14053,0.07579
2349.21178,0.07546
2347.28304,0.07505
2345.35429,0.07438
2343.42555,0.07342
2341.49680,0.07239
2339.56806,0.07157
2337.63931,0.07123
2335.71057,0.07150
2333.78182,0.07222
2331.85308,0.07318
2329.92433,0.07426
2327.99559,0.07531
2326.06684,0.07617
2324.13810,0.07663
2322.20935,0.07664
2320.28060,0.07624
2318.35186,0.07554
2316.42311,0.07473
2314.49437,0.07395
2312.56562,0.07341
2310.63688,0.07327
2308.70813,0.07355
2306.77939,0.07431
2304.85064,0.07537
2302.92190,0.07641
2300.99315,0.07722
2299.06441,0.07763
2297.13566,0.07762
2295.20692,0.07746
2293.27817,0.07744
2291.34943,0.07760
2289.42068,0.07782
2287.49193,0.07809
2285.56319,0.07849
2283.63444,0.07911
2281.70570,0.07979
2279.77695,0.08021
2277.84821,0.08021
2275.91946,0.07997
2273.99072,0.07970
2272.06197,0.07942
2270.13323,0.07915
2268.20448,0.07900
2266.27574,0.07891
2264.34699,0.07859
2262.41825,0.07800
2260.48950,0.07753
2258.56075,0.07730
2256.63201,0.07713
2254.70326,0.07695
2252.77452,0.07696
2250.84577,0.07722
2248.91703,0.07759
2246.98828,0.07798
2245.05954,0.07840
2243.13079,0.07888
2241.20205,0.07943
2239.27330,0.07994
2237.34456,0.08030
2235.41581,0.08042
2233.48707,0.08042
2231.55832,0.08050
2229.62958,0.08061
2227.70083,0.08059
2225.77208,0.08062
2223.84334,0.08085
2221.91459,0.08111
2219.98585,0.08129
2218.05710,0.08134
2216.12836,0.08127
2214.19961,0.08118
2212.27087,0.08102
2210.34212,0.08084
2208.41338,0.08095
2206.48463,0.08134
2204.55589,0.08173
2202.62714,0.08201
2200.69840,0.08216
2198.76965,0.08215
2196.84090,0.08203
2194.91216,0.08191
2192.98341,0.08169
2191.05467,0.08120
2189.12592,0.08054
2187.19718,0.08009
2185.26843,0.08018
2183.33969,0.08065
2181.41094,0.08110
2179.48220,0.08146
2177.55345,0.08195
2175.62471,0.08256
2173.69596,0.08306
2171.76722,0.08342
2169.83847,0.08371
2167.90973,0.08399
2165.98098,0.08422
2164.05223,0.08427
2162.12349,0.08421
2160.19474,0.08424
2158.26600,0.08434
2156.33725,0.08436
2154.40851,0.08437
2152.47976,0.08429
2150.55102,0.08407
2148.62227,0.08402
2146.69353,0.08419
2144.76478,0.08430
2142.83604,0.08446
2140.90729,0.08477
2138.97855,0.08510
2137.04980,0.08542
2135.12106,0.08575
2133.19231,0.08596
2131.26356,0.08594
2129.33482,0.08595
2127.40607,0.08620
2125.47733,0.08651
2123.54858,0.08662
2121.61984,0.08643
2119.69109,0.08617
2117.76235,0.08608
2115.83360,0.08620
2113.90486,0.08643
2111.97611,0.08666
2110.04737,0.08677
2108.11862,0.08687
2106.18988,0.08697
2104.26113,0.08713
2102.33238,0.08739
2100.40364,0.08758
2098.47489,0.08771
2096.54615,0.08790
2094.61740,0.08803
2092.68866,0.08813
2090.75991,0.08834
2088.83117,0.08851
2086.90242,0.08855
2084.97368,0.08856
2083.04493,0.08855
2081.11619,0.08826
2079.18744,0.08767
2077.25870,0.08718
2075.32995,0.08699
2073.40121,0.08689
2071.47246,0.08676
2069.54371,0.08664
2067.61497,0.08645
2065.68622,0.08615
2063.75748,0.08592
2061.82873,0.08586
2059.89999,0.08578
2057.97124,0.08564
2056.04250,0.08560
2054.11375,0.08564
2052.18501,0.08550
2050.25626,0.08521
2048.32752,0.08494
2046.39877,0.08484
2044.47003,0.08489
2042.54128,0.08484
2040.61254,0.08445
2038.68379,0.08382
2036.75504,0.08318
2034.82630,0.08263
2032.89755,0.08216
2030.96881,0.08182
2029.04006,0.08177
2027.11132,0.08195
2025.18257,0.08202
2023.25383,0.08182
2021.32508,0.08151
2019.39634,0.08131
2017.46759,0.08112
2015.53885,0.08072
2013.61010,0.08009
2011.68136,0.07944
2009.75261,0.07888
2007.82386,0.07840
2005.89512,0.07800
2003.96637,0.07762
2002.03763,0.07722
2000.10888,0.07680
1998.18014,0.07622
1996.25139,0.07544
1994.32265,0.07459
1992.39390,0.07367
1990.46516,0.07271
1988.53641,0.07174
1986.60767,0.07091
1984.67892,0.07051
1982.75018,0.07054
1980.82143,0.07056
1978.89269,0.07045
1976.96394,0.07024
1975.03519,0.06984
1973.10645,0.06926
1971.17770,0.06862
1969.24896,0.06803
1967.32021,0.06751
1965.39147,0.06704
1963.46272,0.06670
1961.53398,0.06653
1959.60523,0.06645
1957.67649,0.06636
1955.74774,0.06631
1953.81900,0.06634
1951.89025,0.06643
1949.96151,0.06647
1948.03276,0.06645
1946.10402,0.06634
1944.17527,0.06619
1942.24652,0.06614
1940.31778,0.06627
1938.38903,0.06649
1936.46029,0.06668
1934.53154,0.06687
1932.60280,0.06718
1930.67405,0.06752
1928.74531,0.06783
1926.81656,0.06809
1924.88782,0.06827
1922.95907,0.06851
1921.03033,0.06891
1919.10158,0.06939
1917.17284,0.06978
1915.24409,0.07000
1913.31534,0.07021
1911.38660,0.07049
1909.45785,0.07058
1907.52911,0.07029
1905.60036,0.06980
1903.67162,0.06928
1901.74287,0.06867
1899.81413,0.06810
1897.88538,0.06773
1895.95664,0.06742
1894.02789,0.06704
1892.09915,0.06673
1890.17040,0.06663
1888.24166,0.06662
1886.31291,0.06654
1884.38417,0.06649
1882.45542,0.06649
1880.52667,0.06640
1878.59793,0.06621
1876.66918,0.06615
1874.74044,0.06619
1872.81169,0.06616
1870.88295,0.06611
1868.95420,0.06613
1867.02546,0.06632
1865.09671,0.06664
1863.16797,0.06683
1861.23922,0.06683
1859.31048,0.06694
1857.38173,0.06721
1855.45299,0.06756
1853.52424,0.06801
1851.59549,0.06850
1849.66675,0.06898
1847.73800,0.06948
1845.80926,0.06990
1843.88051,0.07010
1841.95177,0.07005
1840.02302,0.06983
1838.09428,0.06949
1836.16553,0.06912
1834.23679,0.06877
1832.30804,0.06839
1830.37930,0.06793
1828.45055,0.06748
1826.52181,0.06710
1824.59306,0.06677
1822.66432,0.06649
1820.73557,0.06641
1818.80682,0.06648
1816.87808,0.06636
1814.94933,0.06599
1813.02059,0.06578
1811.09184,0.06589
1809.16310,0.06597
1807.23435,0.06576
1805.30561,0.06546
1803.37686,0.06541
1801.44812,0.06562
1799.51937,0.06577
1797.59063,0.06575
1795.66188,0.06574
1793.73314,0.06590
1791.80439,0.06625
1789.87565,0.06667
1787.94690,0.06708
1786.01815,0.06744
1784.08941,0.06760
1782.16066,0.06756
1780.23192,0.06742
1778.30317,0.06722
1776.37443,0.06709
1774.44568,0.06714
1772.51694,0.06726
1770.58819,0.06728
1768.65945,0.06724
1766.73070,0.06710
1764.80196,0.06688
1762.87321,0.06666
1760.94447,0.06644
1759.01572,0.06622
1757.08697,0.06595
1755.15823,0.06571
1753.22948,0.06563
1751.30074,0.06559
1749.37199,0.06550
1747.44325,0.06545
1745.51450,0.06548
1743.58576,0.06553
1741.65701,0.06561
1739.72827,0.06582
1737.79952,0.06613
1735.87078,0.06631
1733.94203,0.06624
1732.01329,0.06615
1730.08454,0.06624
1728.15580,0.06650
1726.22705,0.06689
1724.29830,0.06724
1722.36956,0.06741
1720.44081,0.06749
1718.51207,0.06762
1716.58332,0.06763
1714.65458,0.06742
1712.72583,0.06717
1710.79709,0.06700
1708.86834,0.06694
1706.93960,0.06690
1705.01085,0.06686
1703.08211,0.06693
1701.15336,0.06701
1699.22462,0.06697
1697.29587,0.06684
1695.36713,0.06652
1693.43838,0.06619
1691.50963,0.06619
1689.58089,0.06625
1687.65214,0.06605
1685.72340,0.06569
1683.79465,0.06543
1681.86591,0.06545
1679.93716,0.06557
1678.00842,0.06552
1676.07967,0.06532
1674.15093,0.06515
1672.22218,0.06507
1670.29344,0.06507
1668.36469,0.06518
1666.43595,0.06536
1664.50720,0.06541
1662.57845,0.06522
1660.64971,0.06510
1658.72096,0.06526
1656.79222,0.06551
1654.86347,0.06564
1652.93473,0.06564
1651.00598,0.06570
1649.07724,0.06583
1647.14849,0.06589
1645.21975,0.06584
1643.29100,0.06570
1641.36226,0.06545
1639.43351,0.06521
1637.50477,0.06514
1635.57602,0.06532
1633.64728,0.06572
1631.71853,0.06590
1629.78978,0.06553
1627.86104,0.06501
1625.93229,0.06489
1624.00355,0.06496
1622.07480,0.06488
1620.14606,0.06478
1618.21731,0.06476
1616.28857,0.06455
1614.35982,0.06417
1612.43108,0.06385
1610.50233,0.06349
1608.57359,0.06305
1606.64484,0.06283
1604.71610,0.06305
1602.78735,0.06371
1600.85861,0.06465
1598.92986,0.06548
1597.00111,0.06595
1595.07237,0.06608
1593.14362,0.06594
1591.21488,0.06569
1589.28613,0.06557
1587.35739,0.06554
1585.42864,0.06545
1583.49990,0.06543
1581.57115,0.06563
1579.64241,0.06601
1577.71366,0.06636
1575.78492,0.06640
1573.85617,0.06618
1571.92743,0.06595
1569.99868,0.06576
1568.06993,0.06566
1566.14119,0.06562
1564.21244,0.06559
1562.28370,0.06570
1560.35495,0.06583
1558.42621,0.06559
1556.49746,0.06521
1554.56872,0.06492
1552.63997,0.06463
1550.71123,0.06450
1548.78248,0.06456
1546.85374,0.06451
1544.92499,0.06437
1542.99625,0.06444
1541.06750,0.06469
1539.13876,0.06467
1537.21001,0.06447
1535.28126,0.06440
1533.35252,0.06441
1531.42377,0.06443
1529.49503,0.06446
1527.56628,0.06440
1525.63754,0.06424
1523.70879,0.06411
1521.78005,0.06404
1519.85130,0.06393
1517.92256,0.06382
1515.99381,0.06367
1514.06507,0.06337
1512.13632,0.06299
1510.20758,0.06264
1508.27883,0.06223
1506.35008,0.06156
1504.42134,0.06090
1502.49259,0.06046
1500.56385,0.05991
1498.63510,0.05911
1496.70636,0.05892
1494.77761,0.06082
1492.84887,0.06458
1490.92012,0.06806
1488.99138,0.06935
1487.06263,0.06876
1485.13389,0.06773
1483.20514,0.06695
1481.27640,0.06635
1479.34765,0.06581
1477.41891,0.06535
1475.49016,0.06502
1473.56141,0.06465
1471.63267,0.06420
1469.70392,0.06387
1467.77518,0.06366
1465.84643,0.06323
1463.91769,0.06243
1461.98894,0.06153
1460.06020,0.06069
1458.13145,0.05975
1456.20271,0.05933
1454.27396,0.06102
1452.34522,0.06454
1450.41647,0.06776
1448.48773,0.06923
1446.55898,0.06939
1444.63024,0.06922
1442.70149,0.06907
1440.77274,0.06896
1438.84400,0.06878
1436.91525,0.06854
1434.98651,0.06835
1433.05776,0.06813
1431.12902,0.06780
1429.20027,0.06746
1427.27153,0.06716
1425.34278,0.06694
1423.41404,0.06683
1421.48529,0.06674
1419.55655,0.06656
1417.62780,0.06628
1415.69906,0.06613
1413.77031,0.06618
1411.84156,0.06622
1409.91282,0.06618
1407.98407,0.06617
1406.05533,0.06608
1404.12658,0.06587
1402.19784,0.06571
1400.26909,0.06559
1398.34035,0.06549
1396.41160,0.06547
1394.48286,0.06548
1392.55411,0.06537
1390.62537,0.06516
1388.69662,0.06496
1386.76788,0.06473
1384.83913,0.06458
1382.91039,0.06456
1380.98164,0.06452
1379.05289,0.06452
1377.12415,0.06473
1375.19540,0.06499
1373.26666,0.06508
1371.33791,0.06506
1369.40917,0.06505
1367.48042,0.06511
1365.55168,0.06522
1363.62293,0.06525
1361.69419,0.06527
1359.76544,0.06543
1357.83670,0.06557
1355.90795,0.06542
1353.97921,0.06526
1352.05046,0.06541
1350.12172,0.06559
1348.19297,0.06554
1346.26422,0.06544
1344.33548,0.06544
1342.40673,0.06543
1340.47799,0.06533
1338.54924,0.06519
1336.62050,0.06509
1334.69175,0.06504
1332.76301,0.06495
1330.83426,0.06485
1328.90552,0.06479
1326.97677,0.06476
1325.04803,0.06481
1323.11928,0.06490
1321.19054,0.06489
1319.26179,0.06481
1317.33304,0.06489
1315.40430,0.06505
1313.47555,0.06508
1311.54681,0.06499
1309.61806,0.06490
1307.68932,0.06502
1305.76057,0.06534
1303.83183,0.06556
1301.90308,0.06549
1299.97434,0.06524
1298.04559,0.06507
1296.11685,0.06514
1294.18810,0.06530
1292.25936,0.06534
1290.33061,0.06525
1288.40187,0.06522
1286.47312,0.06535
1284.54437,0.06551
1282.61563,0.06550
1280.68688,0.06537
1278.75814,0.06528
1276.82939,0.06530
1274.90065,0.06533
1272.97190,0.06524
1271.04316,0.06512
1269.11441,0.06508
1267.18567,0.06528
1265.25692,0.06563
1263.32818,0.06587
1261.39943,0.06593
1259.47069,0.06582
1257.54194,0.06565
1255.61320,0.06559
1253.68445,0.06556
1251.75570,0.06544
1249.82696,0.06535
1247.89821,0.06538
1245.96947,0.06532
1244.04072,0.06522
1242.11198,0.06522
1240.18323,0.06522
1238.25449,0.06516
1236.32574,0.06508
1234.39700,0.06503
1232.46825,0.06507
1230.53951,0.06512
1228.61076,0.06500
1226.68202,0.06467
1224.75327,0.06434
1222.82452,0.06425
1220.89578,0.06437
1218.96703,0.06452
1217.03829,0.06451
1215.10954,0.06441
1213.18080,0.06441
1211.25205,0.06447
1209.32331,0.06450
1207.39456,0.06449
1205.46582,0.06441
1203.53707,0.06439
1201.60833,0.06449
1199.67958,0.06441
1197.75084,0.06404
1195.82209,0.06376
1193.89335,0.06391
1191.96460,0.06426
1190.03585,0.06440
1188.10711,0.06425
1186.17836,0.06404
1184.24962,0.06403
1182.32087,0.06418
1180.39213,0.06442
1178.46338,0.06467
1176.53464,0.06481
1174.60589,0.06494
1172.67715,0.06509
1170.74840,0.06511
1168.81966,0.06498
1166.89091,0.06481
1164.96217,0.06463
1163.03342,0.06453
1161.10467,0.06458
1159.17593,0.06459
1157.24718,0.06454
1155.31844,0.06468
1153.38969,0.06515
1151.46095,0.06583
1149.53220,0.06628
1147.60346,0.06633
1145.67471,0.06624
1143.74597,0.06623
1141.81722,0.06623
1139.88848,0.06617
1137.95973,0.06613
1136.03099,0.06606
1134.10224,0.06576
1132.17350,0.06559
1130.24475,0.06577
1128.31600,0.06591
1126.38726,0.06590
1124.45851,0.06581
1122.52977,0.06558
1120.60102,0.06539
1118.67228,0.06520
1116.74353,0.06479
1114.81479,0.06439
1112.88604,0.06418
1110.95730,0.06421
1109.02855,0.06436
1107.09981,0.06436
1105.17106,0.06426
1103.24232,0.06416
1101.31357,0.06403
1099.38483,0.06394
1097.45608,0.06393
1095.52733,0.06399
1093.59859,0.06384
1091.66984,0.06346
1089.74110,0.06344
1087.81235,0.06371
1085.88361,0.06352
1083.95486,0.06278
1082.02612,0.06219
1080.09737,0.06230
1078.16863,0.06275
1076.23988,0.06289
1074.31114,0.06273
1072.38239,0.06268
1070.45365,0.06287
1068.52490,0.06330
1066.59615,0.06387
1064.66741,0.06421
1062.73866,0.06420
1060.80992,0.06414
1058.88117,0.06417
1056.95243,0.06421
1055.02368,0.06412
1053.09494,0.06388
1051.16619,0.06373
1049.23745,0.06381
1047.30870,0.06400
1045.37996,0.06404
1043.45121,0.06379
1041.52247,0.06348
1039.59372,0.06323
1037.66498,0.06297
1035.73623,0.06281
1033.80748,0.06297
1031.87874,0.06366
1029.94999,0.06477
1028.02125,0.06589
1026.09250,0.06681
1024.16376,0.06731
1022.23501,0.06730
1020.30627,0.06708
1018.37752,0.06695
1016.44878,0.06693
1014.52003,0.06676
1012.59129,0.06628
1010.66254,0.06577
1008.73380,0.06541
1006.80505,0.06499
1004.87631,0.06462
1002.94756,0.06454
1001.01881,0.06459
999.09007,0.06457
997.16132,0.06441
995.23258,0.06423
993.30383,0.06429
991.37509,0.06440
989.44634,0.06437
987.51760,0.06425
985.58885,0.06402
983.66011,0.06382
981.73136,0.06380
979.80262,0.06379
977.87387,0.06361
975.94513,0.06335
974.01638,0.06324
972.08763,0.06329
970.15889,0.06337
968.23014,0.06346
966.30140,0.06337
964.37265,0.06321
962.44391,0.06339
960.51516,0.06380
958.58642,0.06399
956.65767,0.06387
954.72893,0.06369
952.80018,0.06352
950.87144,0.06330
948.94269,0.06318
947.01395,0.06317
945.08520,0.06323
943.15646,0.06358
941.22771,0.06404
939.29896,0.06430
937.37022,0.06436
935.44147,0.06418
933.51273,0.06380
931.58398,0.06342
929.65524,0.06307
927.72649,0.06272
925.79775,0.06262
923.86900,0.06278
921.94026,0.06285
920.01151,0.06265
918.08277,0.06239
916.15402,0.06233
914.22528,0.06240
912.29653,0.06238
910.36779,0.06221
908.43904,0.06214
906.51029,0.06235
904.58155,0.06275
902.65280,0.06317
900.72406,0.06348
898.79531,0.06348
896.86657,0.06310
894.93782,0.06267
893.00908,0.06248
891.08033,0.06250
889.15159,0.06270
887.22284,0.06288
885.29410,0.06284
883.36535,0.06280
881.43661,0.06277
879.50786,0.06237
877.57911,0.06188
875.65037,0.06202
873.72162,0.06260
871.79288,0.06294
869.86413,0.06294
867.93539,0.06272
866.00664,0.06224
864.07790,0.06175
862.14915,0.06155
860.22041,0.06153
858.29166,0.06134
856.36292,0.06081
854.43417,0.06039
852.50543,0.06049
850.57668,0.06073
848.64794,0.06059
846.71919,0.06038
844.79044,0.06073
842.86170,0.06118
840.93295,0.06087
839.00421,0.06045
837.07546,0.06071
835.14672,0.06118
833.21797,0.06150
831.28923,0.06164
829.36048,0.06135
827.43174,0.06084
825.50299,0.06061
823.57425,0.06050
821.64550,0.06009
819.71676,0.05946
817.78801,0.05901
815.85926,0.05906
813.93052,0.05942
812.00177,0.05955
810.07303,0.05935
808.14428,0.05909
806.21554,0.05902
804.28679,0.05913
802.35805,0.05908
800.42930,0.05867
798.50056,0.05822
796.57181,0.05804
794.64307,0.05789
792.71432,0.05757
790.78558,0.05699
788.85683,0.05606
786.92809,0.05503
784.99934,0.05450
783.07059,0.05443
781.14185,0.05400
779.21310,0.05303
777.28436,0.05203
775.35561,0.05131
773.42687,0.05129
771.49812,0.05184
769.56938,0.05216
767.64063,0.05241
765.71189,0.05311
763.78314,0.05417
761.85440,0.05557
759.92565,0.05733
757.99691,0.05920
756.06816,0.06097
754.13942,0.06245
752.21067,0.06352
750.28192,0.06438
748.35318,0.06547
746.42443,0.06680
744.49569,0.06760
742.56694,0.06728
740.63820,0.06655
738.70945,0.06596
736.78071,0.06484
734.85196,0.06302
732.92322,0.06155
730.99447,0.06083
729.06573,0.06005
727.13698,0.05868
725.20824,0.05707
723.27949,0.05559
721.35074,0.05429
719.42200,0.05276
717.49325,0.05093
715.56451,0.04920
713.63576,0.04727
711.70702,0.04455
709.77827,0.04135
707.84953,0.03910
705.92078,0.04039
703.99204,0.04867
702.06329,0.06641
700.13455,0.09132
698.20580,0.11487
696.27706,0.12698
694.34831,0.12422
692.41957,0.11264
690.49082,0.10087
688.56207,0.09268
686.63333,0.08756
684.70458,0.08424
682.77584,0.08182
680.84709,0.07967
678.91835,0.07790
676.98960,0.07673
675.06086,0.07579
673.13211,0.07500
671.20337,0.07462
669.27462,0.07461
667.34588,0.07446
665.41713,0.07368
663.48839,0.07240
661.55964,0.07159
659.63090,0.07187
657.70215,0.07243
655.77340,0.07236
653.84466,0.07150
651.91591,0.07035
649.98717,0.06958
648.05842,0.06910
646.12968,0.06887
644.20093,0.06895
642.27219,0.06897
640.34344,0.06905
638.41470,0.06938
636.48595,0.06943
634.55721,0.06926
632.62846,0.06899
630.69972,0.06793
628.77097,0.06661
626.84222,0.06610
624.91348,0.06600
622.98473,0.06587
621.05599,0.06582
619.12724,0.06569
617.19850,0.06543
615.26975,0.06544
613.34101,0.06616
611.41226,0.06682
609.48352,0.06644
607.55477,0.06570
605.62603,0.06523
603.69728,0.06536
601.76854,0.06663
599.83979,0.06778
