5996.40973,0.02384
5994.48101,0.02158
5992.55228,0.01777
5990.62356,0.01792
5988.69483,0.02317
5986.76610,0.02681
5984.83738,0.02320
5982.90865,0.01785
5980.97992,0.01573
5979.05120,0.01474
5977.12247,0.01401
5975.19375,0.01441
5973.26502,0.01684
5971.33629,0.01923
5969.40757,0.01800
5967.47884,0.01666
5965.55011,0.01771
5963.62139,0.01863
5961.69266,0.01988
5959.76394,0.02160
5957.83521,0.02259
5955.90648,0.02309
5953.97776,0.02362
5952.04903,0.02450
5950.12031,0.02446
5948.19158,0.02184
5946.26285,0.01836
5944.33413,0.01704
5942.40540,0.01739
5940.47667,0.01854
5938.54795,0.02089
5936.61922,0.02200
5934.69050,0.02079
5932.76177,0.02017
5930.83304,0.02246
5928.90432,0.02622
5926.97559,0.02720
5925.04686,0.02385
5923.11814,0.01830
5921.18941,0.01357
5919.26069,0.01247
5917.33196,0.01465
5915.40323,0.01786
5913.47451,0.02111
5911.54578,0.02239
5909.61706,0.02094
5907.68833,0.01966
5905.75960,0.01882
5903.83088,0.01757
5901.90215,0.01785
5899.97342,0.02014
5898.04470,0.02280
5896.11597,0.02502
5894.18725,0.02626
5892.25852,0.02476
5890.32979,0.02159
5888.40107,0.02037
5886.47234,0.02028
5884.54361,0.01937
5882.61489,0.01946
5880.68616,0.02232
5878.75744,0.02519
5876.82871,0.02324
5874.89998,0.01812
5872.97126,0.01601
5871.04253,0.01780
5869.11381,0.01943
5867.18508,0.01773
5865.25635,0.01378
5863.32763,0.01123
5861.39890,0.01152
5859.47017,0.01376
5857.54145,0.01686
5855.61272,0.01915
5853.68400,0.02005
5851.75527,0.02059
5849.82654,0.02039
5847.89782,0.01861
5845.96909,0.01645
5844.04036,0.01502
5842.11164,0.01355
5840.18291,0.01234
5838.25419,0.01271
5836.32546,0.01472
5834.39673,0.01805
5832.46801,0.02205
5830.53928,0.02481
5828.61056,0.02424
5826.68183,0.02115
5824.75310,0.01890
5822.82438,0.01816
5820.89565,0.01811
5818.96692,0.01897
5817.03820,0.01965
5815.10947,0.02043
5813.18075,0.02338
5811.25202,0.02641
5809.32329,0.02533
5807.39457,0.02026
5805.46584,0.01579
5803.53711,0.01579
5801.60839,0.01803
5799.67966,0.01775
5797.75094,0.01591
5795.82221,0.01648
5793.89348,0.01874
5791.96476,0.01918
5790.03603,0.01787
5788.10731,0.01667
5786.17858,0.01651
5784.24985,0.01870
5782.32113,0.02341
5780.39240,0.02620
5778.46367,0.02471
5776.53495,0.02259
5774.60622,0.02153
5772.67750,0.02018
5770.74877,0.01949
5768.82004,0.02066
5766.89132,0.02202
5764.96259,0.02166
5763.03386,0.01967
5761.10514,0.01710
5759.17641,0.01522
5757.24769,0.01491
5755.31896,0.01574
5753.39023,0.01662
5751.46151,0.01720
5749.53278,0.01743
5747.60406,0.01734
5745.67533,0.01732
5743.74660,0.01649
5741.81788,0.01347
5739.88915,0.01057
5737.96042,0.01161
5736.03170,0.01684
5734.10297,0.02255
5732.17425,0.02518
5730.24552,0.02556
5728.31679,0.02456
5726.38807,0.02031
5724.45934,0.01581
5722.53061,0.01717
5720.60189,0.02258
5718.67316,0.02499
5716.74444,0.02330
5714.81571,0.02137
5712.88698,0.02087
5710.95826,0.02101
5709.02953,0.02011
5707.10081,0.01747
5705.17208,0.01607
5703.24335,0.01730
5701.31463,0.01758
5699.38590,0.01599
5697.45717,0.01536
5695.52845,0.01545
5693.59972,0.01424
5691.67100,0.01236
5689.74227,0.01123
5687.81354,0.01139
5685.88482,0.01365
5683.95609,0.01821
5682.02736,0.02317
5680.09864,0.02488
5678.16991,0.02149
5676.24119,0.01692
5674.31246,0.01615
5672.38373,0.01825
5670.45501,0.02004
5668.52628,0.02022
5666.59756,0.01859
5664.66883,0.01742
5662.74010,0.01831
5660.81138,0.01841
5658.88265,0.01697
5656.95392,0.01694
5655.02520,0.01808
5653.09647,0.01831
5651.16775,0.01821
5649.23902,0.01772
5647.31029,0.01623
5645.38157,0.01633
5643.45284,0.01924
5641.52411,0.02181
5639.59539,0.02254
5637.66666,0.02202
5635.73794,0.01929
5633.80921,0.01630
5631.88048,0.01713
5629.95176,0.02050
5628.02303,0.02198
5626.09430,0.02139
5624.16558,0.02043
5622.23685,0.01913
5620.30813,0.01887
5618.37940,0.02086
5616.45067,0.02220
5614.52195,0.02064
5612.59322,0.01832
5610.66450,0.01731
5608.73577,0.01703
5606.80704,0.01691
5604.87832,0.01740
5602.94959,0.01900
5601.02086,0.02068
5599.09214,0.02035
5597.16341,0.01914
5595.23469,0.01918
5593.30596,0.01960
5591.37723,0.01906
5589.44851,0.01740
5587.51978,0.01570
5585.59105,0.01557
5583.66233,0.01726
5581.73360,0.01974
5579.80488,0.02113
5577.87615,0.01988
5575.94742,0.01721
5574.01870,0.01573
5572.08997,0.01596
5570.16125,0.01681
5568.23252,0.01712
5566.30379,0.01663
5564.37507,0.01587
5562.44634,0.01496
5560.51761,0.01506
5558.58889,0.01689
5556.66016,0.01781
5554.73144,0.01606
5552.80271,0.01454
5550.87398,0.01502
5548.94526,0.01511
5547.01653,0.01362
5545.08780,0.01238
5543.15908,0.01379
5541.23035,0.01771
5539.30163,0.02001
5537.37290,0.01951
5535.44417,0.01879
5533.51545,0.01899
5531.58672,0.01868
5529.65800,0.01660
5527.72927,0.01490
5525.80054,0.01571
5523.87182,0.01682
5521.94309,0.01633
5520.01436,0.01546
5518.08564,0.01496
5516.15691,0.01530
5514.22819,0.01689
5512.29946,0.01832
5510.37073,0.01808
5508.44201,0.01758
5506.51328,0.01843
5504.58455,0.01932
5502.65583,0.01965
5500.72710,0.02035
5498.79838,0.02136
5496.86965,0.02224
5494.94092,0.02222
5493.01220,0.02130
5491.08347,0.02037
5489.15475,0.01912
5487.22602,0.01800
5485.29729,0.01853
5483.36857,0.01858
5481.43984,0.01688
5479.51111,0.01732
5477.58239,0.01925
5475.65366,0.01832
5473.72494,0.01654
5471.79621,0.01524
5469.86748,0.01330
5467.93876,0.01272
5466.01003,0.01419
5464.08130,0.01518
5462.15258,0.01550
5460.22385,0.01642
5458.29513,0.01588
5456.36640,0.01415
5454.43767,0.01475
5452.50895,0.01772
5450.58022,0.01992
5448.65150,0.02045
5446.72277,0.02052
5444.79404,0.01971
5442.86532,0.01782
5440.93659,0.01642
5439.00786,0.01599
5437.07914,0.01643
5435.15041,0.01715
5433.22169,0.01617
5431.29296,0.01420
5429.36423,0.01447
5427.43551,0.01744
5425.50678,0.01983
5423.57805,0.01868
5421.64933,0.01632
5419.72060,0.01585
5417.79188,0.01701
5415.86315,0.01823
5413.93442,0.01790
5412.00570,0.01610
5410.07697,0.01538
5408.14825,0.01580
5406.21952,0.01493
5404.29079,0.01293
5402.36207,0.01218
5400.43334,0.01360
5398.50461,0.01550
5396.57589,0.01736
5394.64716,0.01942
5392.71844,0.01951
5390.78971,0.01728
5388.86098,0.01705
5386.93226,0.01980
5385.00353,0.02180
5383.07480,0.02000
5381.14608,0.01662
5379.21735,0.01469
5377.28863,0.01486
5375.35990,0.01421
5373.43117,0.01216
5371.50245,0.01164
5369.57372,0.01294
5367.64500,0.01433
5365.71627,0.01432
5363.78754,0.01351
5361.85882,0.01394
5359.93009,0.01569
5358.00136,0.01760
5356.07264,0.01797
5354.14391,0.01575
5352.21519,0.01363
5350.28646,0.01435
5348.35773,0.01670
5346.42901,0.01775
5344.50028,0.01754
5342.57155,0.01808
5340.64283,0.01981
5338.71410,0.02134
5336.78538,0.02019
5334.85665,0.01713
5332.92792,0.01636
5330.99920,0.01912
5329.07047,0.02123
5327.14175,0.02014
5325.21302,0.01848
5323.28429,0.01759
5321.35557,0.01567
5319.42684,0.01353
5317.49811,0.01411
5315.56939,0.01766
5313.64066,0.02151
5311.71194,0.02211
5309.78321,0.01918
5307.85448,0.01627
5305.92576,0.01419
5303.99703,0.01316
5302.06830,0.01425
5300.13958,0.01553
5298.21085,0.01563
5296.28213,0.01568
5294.35340,0.01618
5292.42467,0.01677
5290.49595,0.01654
5288.56722,0.01562
5286.63849,0.01511
5284.70977,0.01456
5282.78104,0.01386
5280.85232,0.01479
5278.92359,0.01740
5276.99486,0.01911
5275.06614,0.01834
5273.13741,0.01708
5271.20869,0.01666
5269.27996,0.01607
5267.35123,0.01547
5265.42251,0.01520
5263.49378,0.01520
5261.56505,0.01538
5259.63633,0.01500
5257.70760,0.01451
5255.77888,0.01445
5253.85015,0.01434
5251.92142,0.01429
5249.99270,0.01438
5248.06397,0.01504
5246.13524,0.01617
5244.20652,0.01661
5242.27779,0.01630
5240.34907,0.01589
5238.42034,0.01571
5236.49161,0.01550
5234.56289,0.01412
5232.63416,0.01209
5230.70544,0.01174
5228.77671,0.01250
5226.84798,0.01283
5224.91926,0.01417
5222.99053,0.01634
5221.06180,0.01726
5219.13308,0.01636
5217.20435,0.01400
5215.27563,0.01246
5213.34690,0.01330
5211.41817,0.01509
5209.48945,0.01696
5207.56072,0.01865
5205.63199,0.01918
5203.70327,0.01830
5201.77454,0.01737
5199.84582,0.01773
5197.91709,0.01812
5195.98836,0.01678
5194.05964,0.01521
5192.13091,0.01510
5190.20219,0.01524
5188.27346,0.01526
5186.34473,0.01677
5184.41601,0.01934
5182.48728,0.02030
5180.55855,0.01860
5178.62983,0.01650
5176.70110,0.01532
5174.77238,0.01392
5172.84365,0.01339
5170.91492,0.01510
5168.98620,0.01615
5167.05747,0.01465
5165.12874,0.01345
5163.20002,0.01416
5161.27129,0.01504
5159.34257,0.01530
5157.41384,0.01561
5155.48511,0.01663
5153.55639,0.01799
5151.62766,0.01798
5149.69894,0.01695
5147.77021,0.01686
5145.84148,0.01710
5143.91276,0.01581
5141.98403,0.01444
5140.05530,0.01584
5138.12658,0.01822
5136.19785,0.01835
5134.26913,0.01711
5132.34040,0.01588
5130.41167,0.01489
5128.48295,0.01477
5126.55422,0.01499
5124.62549,0.01492
5122.69677,0.01528
5120.76804,0.01636
5118.83932,0.01742
5116.91059,0.01768
5114.98186,0.01717
5113.05314,0.01673
5111.12441,0.01674
5109.19569,0.01715
5107.26696,0.01781
5105.33823,0.01780
5103.40951,0.01670
5101.48078,0.01569
5099.55205,0.01561
5097.62333,0.01586
5095.69460,0.01641
5093.76588,0.01774
5091.83715,0.01891
5089.90842,0.01894
5087.97970,0.01857
5086.05097,0.01817
5084.12224,0.01660
5082.19352,0.01421
5080.26479,0.01298
5078.33607,0.01335
5076.40734,0.01485
5074.47861,0.01700
5072.54989,0.01800
5070.62116,0.01731
5068.69244,0.01665
5066.76371,0.01652
5064.83498,0.01647
5062.90626,0.01702
5060.97753,0.01848
5059.04880,0.01926
5057.12008,0.01782
5055.19135,0.01509
5053.26263,0.01297
5051.33390,0.01286
5049.40517,0.01440
5047.47645,0.01521
5045.54772,0.01500
5043.61899,0.01583
5041.69027,0.01720
5039.76154,0.01671
5037.83282,0.01519
5035.90409,0.01463
5033.97536,0.01443
5032.04664,0.01433
5030.11791,0.01508
5028.18919,0.01560
5026.26046,0.01527
5024.33173,0.01573
5022.40301,0.01697
5020.47428,0.01701
5018.54555,0.01577
5016.61683,0.01504
5014.68810,0.01618
5012.75938,0.01852
5010.83065,0.02027
5008.90192,0.02040
5006.97320,0.01897
5005.04447,0.01728
5003.11574,0.01681
5001.18702,0.01746
4999.25829,0.01821
4997.32957,0.01859
4995.40084,0.01857
4993.47211,0.01768
4991.54339,0.01624
4989.61466,0.01526
4987.68594,0.01482
4985.75721,0.01428
4983.82848,0.01417
4981.89976,0.01490
4979.97103,0.01547
4978.04230,0.01574
4976.11358,0.01606
4974.18485,0.01615
4972.25613,0.01615
4970.32740,0.01631
4968.39867,0.01623
4966.46995,0.01578
4964.54122,0.01564
4962.61249,0.01620
4960.68377,0.01717
4958.75504,0.01805
4956.82632,0.01832
4954.89759,0.01780
4952.96886,0.01625
4951.04014,0.01405
4949.11141,0.01314
4947.18269,0.01400
4945.25396,0.01456
4943.32523,0.01393
4941.39651,0.01337
4939.46778,0.01369
4937.53905,0.01496
4935.61033,0.01673
4933.68160,0.01767
4931.75288,0.01759
4929.82415,0.01727
4927.89542,0.01654
4925.96670,0.01566
4924.03797,0.01618
4922.10924,0.01726
4920.18052,0.01620
4918.25179,0.01429
4916.32307,0.01431
4914.39434,0.01529
4912.46561,0.01563
4910.53689,0.01543
4908.60816,0.01523
4906.67943,0.01578
4904.75071,0.01639
4902.82198,0.01565
4900.89326,0.01483
4898.96453,0.01485
4897.03580,0.01469
4895.10708,0.01489
4893.17835,0.01565
4891.24963,0.01586
4889.32090,0.01567
4887.39217,0.01533
4885.46345,0.01450
4883.53472,0.01387
4881.60599,0.01424
4879.67727,0.01501
4877.74854,0.01547
4875.81982,0.01555
4873.89109,0.01610
4871.96236,0.01749
4870.03364,0.01791
4868.10491,0.01689
4866.17618,0.01604
4864.24746,0.01534
4862.31873,0.01445
4860.39001,0.01416
4858.46128,0.01396
4856.53255,0.01337
4854.60383,0.01401
4852.67510,0.01592
4850.74638,0.01681
4848.81765,0.01654
4846.88892,0.01677
4844.96020,0.01746
4843.03147,0.01754
4841.10274,0.01725
4839.17402,0.01695
4837.24529,0.01661
4835.31657,0.01707
4833.38784,0.01818
4831.45911,0.01798
4829.53039,0.01609
4827.60166,0.01475
4825.67293,0.01508
4823.74421,0.01589
4821.81548,0.01602
4819.88676,0.01531
4817.95803,0.01426
4816.02930,0.01360
4814.10058,0.01351
4812.17185,0.01399
4810.24313,0.01497
4808.31440,0.01579
4806.38567,0.01606
4804.45695,0.01571
4802.52822,0.01477
4800.59949,0.01431
4798.67077,0.01483
4796.74204,0.01500
4794.81332,0.01469
4792.88459,0.01460
4790.95586,0.01427
4789.02714,0.01410
4787.09841,0.01516
4785.16968,0.01636
4783.24096,0.01607
4781.31223,0.01505
4779.38351,0.01451
4777.45478,0.01436
4775.52605,0.01461
4773.59733,0.01506
4771.66860,0.01542
4769.73988,0.01620
4767.81115,0.01718
4765.88242,0.01756
4763.95370,0.01754
4762.02497,0.01736
4760.09624,0.01685
4758.16752,0.01610
4756.23879,0.01543
4754.31007,0.01505
4752.38134,0.01457
4750.45261,0.01384
4748.52389,0.01353
4746.59516,0.01419
4744.66643,0.01544
4742.73771,0.01605
4740.80898,0.01582
4738.88026,0.01552
4736.95153,0.01526
4735.02280,0.01477
4733.09408,0.01463
4731.16535,0.01501
4729.23663,0.01485
4727.30790,0.01412
4725.37917,0.01390
4723.45045,0.01436
4721.52172,0.01503
4719.59299,0.01581
4717.66427,0.01656
4715.73554,0.01667
4713.80682,0.01597
4711.87809,0.01547
4709.94936,0.01584
4708.02064,0.01651
4706.09191,0.01693
4704.16318,0.01732
4702.23446,0.01733
4700.30573,0.01613
4698.37701,0.01503
4696.44828,0.01563
4694.51955,0.01667
4692.59083,0.01686
4690.66210,0.01667
4688.73338,0.01634
4686.80465,0.01562
4684.87592,0.01484
4682.94720,0.01502
4681.01847,0.01588
4679.08974,0.01623
4677.16102,0.01618
4675.23229,0.01591
4673.30357,0.01559
4671.37484,0.01610
4669.44611,0.01698
4667.51739,0.01688
4665.58866,0.01564
4663.65993,0.01430
4661.73121,0.01404
4659.80248,0.01473
4657.87376,0.01500
4655.94503,0.01458
4654.01630,0.01450
4652.08758,0.01502
4650.15885,0.01544
4648.23013,0.01570
4646.30140,0.01604
4644.37267,0.01587
4642.44395,0.01537
4640.51522,0.01576
4638.58649,0.01662
4636.65777,0.01647
4634.72904,0.01544
4632.80032,0.01485
4630.87159,0.01493
4628.94286,0.01512
4627.01414,0.01532
4625.08541,0.01543
4623.15668,0.01546
4621.22796,0.01551
4619.29923,0.01517
4617.37051,0.01435
4615.44178,0.01387
4613.51305,0.01430
4611.58433,0.01524
4609.65560,0.01588
4607.72688,0.01580
4605.79815,0.01513
4603.86942,0.01435
4601.94070,0.01420
4600.01197,0.01496
4598.08324,0.01580
4596.15452,0.01620
4594.22579,0.01608
4592.29707,0.01511
4590.36834,0.01412
4588.43961,0.01379
4586.51089,0.01416
4584.58216,0.01425
4582.65343,0.01422
4580.72471,0.01443
4578.79598,0.01439
4576.86726,0.01397
4574.93853,0.01373
4573.00980,0.01399
4571.08108,0.01471
4569.15235,0.01539
4567.22363,0.01528
4565.29490,0.01441
4563.36617,0.01382
4561.43745,0.01417
4559.50872,0.01490
4557.57999,0.01539
4555.65127,0.01603
4553.72254,0.01662
4551.79382,0.01632
4549.86509,0.01569
4547.93636,0.01544
4546.00764,0.01501
4544.07891,0.01438
4542.15018,0.01415
4540.22146,0.01416
4538.29273,0.01424
4536.36401,0.01451
4534.43528,0.01481
4532.50655,0.01512
4530.57783,0.01524
4528.64910,0.01464
4526.72037,0.01383
4524.79165,0.01374
4522.86292,0.01399
4520.93420,0.01398
4519.00547,0.01400
4517.07674,0.01410
4515.14802,0.01405
4513.21929,0.01396
4511.29057,0.01349
4509.36184,0.01286
4507.43311,0.01285
4505.50439,0.01321
4503.57566,0.01362
4501.64693,0.01425
4499.71821,0.01464
4497.78948,0.01471
4495.86076,0.01494
4493.93203,0.01530
4492.00330,0.01521
4490.07458,0.01462
4488.14585,0.01412
4486.21712,0.01406
4484.28840,0.01443
4482.35967,0.01509
4480.43095,0.01570
4478.50222,0.01595
4476.57349,0.01575
4474.64477,0.01523
4472.71604,0.01481
4470.78732,0.01483
4468.85859,0.01509
4466.92986,0.01557
4465.00114,0.01634
4463.07241,0.01630
4461.14368,0.01484
4459.21496,0.01330
4457.28623,0.01283
4455.35751,0.01326
4453.42878,0.01431
4451.50005,0.01576
4449.57133,0.01679
4447.64260,0.01651
4445.71387,0.01541
4443.78515,0.01449
4441.85642,0.01425
4439.92770,0.01468
4437.99897,0.01520
4436.07024,0.01530
4434.14152,0.01507
4432.21279,0.01465
4430.28407,0.01434
4428.35534,0.01433
4426.42661,0.01443
4424.49789,0.01476
4422.56916,0.01544
4420.64043,0.01577
4418.71171,0.01537
4416.78298,0.01461
4414.85426,0.01380
4412.92553,0.01334
4410.99680,0.01331
4409.06808,0.01316
4407.13935,0.01274
4405.21062,0.01251
4403.28190,0.01264
4401.35317,0.01279
4399.42445,0.01293
4397.49572,0.01335
4395.56699,0.01380
4393.63827,0.01399
4391.70954,0.01450
4389.78082,0.01519
4387.85209,0.01510
4385.92336,0.01465
4383.99464,0.01482
4382.06591,0.01507
4380.13718,0.01489
4378.20846,0.01500
4376.27973,0.01517
4374.35101,0.01488
4372.42228,0.01484
4370.49355,0.01535
4368.56483,0.01542
4366.63610,0.01492
4364.70737,0.01477
4362.77865,0.01442
4360.84992,0.01343
4358.92120,0.01328
4356.99247,0.01417
4355.06374,0.01473
4353.13502,0.01478
4351.20629,0.01497
4349.27757,0.01515
4347.34884,0.01500
4345.42011,0.01489
4343.49139,0.01492
4341.56266,0.01478
4339.63393,0.01441
4337.70521,0.01402
4335.77648,0.01415
4333.84776,0.01445
4331.91903,0.01407
4329.99030,0.01355
4328.06158,0.01390
4326.13285,0.01466
4324.20412,0.01506
4322.27540,0.01506
4320.34667,0.01485
4318.41795,0.01467
4316.48922,0.01475
4314.56049,0.01495
4312.63177,0.01483
4310.70304,0.01448
4308.77432,0.01433
4306.84559,0.01439
4304.91686,0.01434
4302.98814,0.01437
4301.05941,0.01464
4299.13068,0.01482
4297.20196,0.01499
4295.27323,0.01534
4293.34451,0.01568
4291.41578,0.01597
4289.48705,0.01600
4287.55833,0.01541
4285.62960,0.01439
4283.70087,0.01349
4281.77215,0.01322
4279.84342,0.01384
4277.91470,0.01465
4275.98597,0.01456
4274.05724,0.01371
4272.12852,0.01318
4270.19979,0.01352
4268.27107,0.01413
4266.34234,0.01420
4264.41361,0.01386
4262.48489,0.01404
4260.55616,0.01502
4258.62743,0.01562
4256.69871,0.01524
4254.76998,0.01461
4252.84126,0.01404
4250.91253,0.01358
4248.98380,0.01359
4247.05508,0.01403
4245.12635,0.01453
4243.19762,0.01495
4241.26890,0.01535
4239.34017,0.01554
4237.41145,0.01548
4235.48272,0.01539
4233.55399,0.01533
4231.62527,0.01517
4229.69654,0.01477
4227.76782,0.01425
4225.83909,0.01386
4223.91036,0.01374
4221.98164,0.01408
4220.05291,0.01497
4218.12418,0.01583
4216.19546,0.01591
4214.26673,0.01528
4212.33801,0.01447
4210.40928,0.01380
4208.48055,0.01343
4206.55183,0.01339
4204.62310,0.01379
4202.69437,0.01442
4200.76565,0.01463
4198.83692,0.01432
4196.90820,0.01391
4194.97947,0.01366
4193.05074,0.01385
4191.12202,0.01446
4189.19329,0.01521
4187.26456,0.01554
4185.33584,0.01507
4183.40711,0.01401
4181.47839,0.01345
4179.54966,0.01390
4177.62093,0.01442
4175.69221,0.01444
4173.76348,0.01445
4171.83476,0.01469
4169.90603,0.01495
4167.97730,0.01526
4166.04858,0.01549
4164.11985,0.01508
4162.19112,0.01430
4160.26240,0.01423
4158.33367,0.01487
4156.40495,0.01524
4154.47622,0.01509
4152.54749,0.01491
4150.61877,0.01478
4148.69004,0.01463
4146.76131,0.01444
4144.83259,0.01411
4142.90386,0.01375
4140.97514,0.01342
4139.04641,0.01303
4137.11768,0.01292
4135.18896,0.01331
4133.26023,0.01378
4131.33151,0.01399
4129.40278,0.01411
4127.47405,0.01437
4125.54533,0.01465
4123.61660,0.01466
4121.68787,0.01425
4119.75915,0.01364
4117.83042,0.01325
4115.90170,0.01334
4113.97297,0.01397
4112.04424,0.01467
4110.11552,0.01452
4108.18679,0.01349
4106.25806,0.01288
4104.32934,0.01343
4102.40061,0.01419
4100.47189,0.01431
4098.54316,0.01407
4096.61443,0.01399
4094.68571,0.01433
4092.75698,0.01479
4090.82826,0.01468
4088.89953,0.01405
4086.97080,0.01353
4085.04208,0.01329
4083.11335,0.01341
4081.18462,0.01389
4079.25590,0.01426
4077.32717,0.01446
4075.39845,0.01455
4073.46972,0.01419
4071.54099,0.01383
4069.61227,0.01402
4067.68354,0.01433
4065.75481,0.01432
4063.82609,0.01421
4061.89736,0.01425
4059.96864,0.01433
4058.03991,0.01450
4056.11118,0.01483
4054.18246,0.01490
4052.25373,0.01428
4050.32501,0.01330
4048.39628,0.01270
4046.46755,0.01292
4044.53883,0.01374
4042.61010,0.01458
4040.68137,0.01510
4038.75265,0.01518
4036.82392,0.01487
4034.89520,0.01459
4032.96647,0.01463
4031.03774,0.01492
4029.10902,0.01520
4027.18029,0.01492
4025.25156,0.01406
4023.32284,0.01352
4021.39411,0.01346
4019.46539,0.01366
4017.53666,0.01444
4015.60793,0.01524
4013.67921,0.01543
4011.75048,0.01525
4009.82176,0.01496
4007.89303,0.01490
4005.96430,0.01481
4004.03558,0.01434
4002.10685,0.01420
4000.17812,0.01462
3998.24940,0.01482
3996.32067,0.01445
3994.39195,0.01439
3992.46322,0.01473
3990.53449,0.01444
3988.60577,0.01409
3986.67704,0.01487
3984.74831,0.01580
3982.81959,0.01552
3980.89086,0.01471
3978.96214,0.01466
3977.03341,0.01485
3975.10468,0.01451
3973.17596,0.01420
3971.24723,0.01438
3969.31851,0.01483
3967.38978,0.01544
3965.46105,0.01594
3963.53233,0.01556
3961.60360,0.01511
3959.67487,0.01556
3957.74615,0.01632
3955.81742,0.01714
3953.88870,0.01714
3951.95997,0.01513
3950.03124,0.01287
3948.10252,0.01189
3946.17379,0.01174
3944.24506,0.01241
3942.31634,0.01465
3940.38761,0.01807
3938.45889,0.01995
3936.53016,0.01927
3934.60143,0.01814
3932.67271,0.01718
3930.74398,0.01690
3928.81526,0.01746
3926.88653,0.01655
3924.95780,0.01310
3923.02908,0.01102
3921.10035,0.01146
3919.17162,0.01268
3917.24290,0.01425
3915.31417,0.01536
3913.38545,0.01408
3911.45672,0.01308
3909.52799,0.01490
3907.59927,0.01772
3905.67054,0.01793
3903.74181,0.01581
3901.81309,0.01436
3899.88436,0.01481
3897.95564,0.01593
3896.02691,0.01494
3894.09818,0.01305
3892.16946,0.01320
3890.24073,0.01687
3888.31201,0.02168
3886.38328,0.01848
3884.45455,0.01290
3882.52583,0.01112
3880.59710,0.01300
3878.66837,0.01620
3876.73965,0.01683
3874.81092,0.01352
3872.88220,0.01025
3870.95347,0.01130
3869.02474,0.01443
3867.09602,0.01622
3865.16729,0.01546
3863.23856,0.01345
3861.30984,0.01156
3859.38111,0.01044
3857.45239,0.01157
3855.52366,0.01480
3853.59493,0.01644
3851.66621,0.01633
3849.73748,0.01495
3847.80876,0.01303
3845.88003,0.01226
3843.95130,0.01273
3842.02258,0.01257
3840.09385,0.01135
3838.16512,0.01211
3836.23640,0.01424
3834.30767,0.01584
3832.37895,0.01790
3830.45022,0.01812
3828.52149,0.01477
3826.59277,0.01102
3824.66404,0.00902
3822.73531,0.00803
3820.80659,0.00768
3818.87786,0.00870
3816.94914,0.01031
3815.02041,0.01206
3813.09168,0.01409
3811.16296,0.01490
3809.23423,0.01462
3807.30550,0.01477
3805.37678,0.01558
3803.44805,0.01621
3801.51933,0.01622
3799.59060,0.01527
3797.66187,0.01460
3795.73315,0.01629
3793.80442,0.01892
3791.87570,0.01858
3789.94697,0.01610
3788.01824,0.01582
3786.08952,0.01999
3784.16079,0.02432
3782.23206,0.02477
3780.30334,0.02466
3778.37461,0.02180
3776.44589,0.01722
3774.51716,0.01549
3772.58843,0.01541
3770.65971,0.01417
3768.73098,0.01112
3766.80225,0.01004
3764.87353,0.01002
3762.94480,0.00935
3761.01608,0.00952
3759.08735,0.01106
3757.15862,0.01105
3755.22990,0.00833
3753.30117,0.00598
3751.37245,0.00624
3749.44372,0.00859
3747.51499,0.01202
3745.58627,0.01546
3743.65754,0.01560
3741.72881,0.01300
3739.80009,0.01157
3737.87136,0.01219
3735.94264,0.01368
3734.01391,0.01315
3732.08518,0.01022
3730.15646,0.00774
3728.22773,0.00799
3726.29900,0.01179
3724.37028,0.01797
3722.44155,0.02035
3720.51283,0.01578
3718.58410,0.01263
3716.65537,0.01281
3714.72665,0.01427
3712.79792,0.01610
3710.86920,0.01800
3708.94047,0.01760
3707.01174,0.01468
3705.08302,0.01503
3703.15429,0.01775
3701.22556,0.01711
3699.29684,0.01412
3697.36811,0.01120
3695.43939,0.00818
3693.51066,0.00662
3691.58193,0.00794
3689.65321,0.00958
3687.72448,0.00986
3685.79575,0.01342
3683.86703,0.02368
3681.93830,0.03258
3680.00958,0.02609
3678.08085,0.01795
3676.15212,0.01374
3674.22340,0.01158
3672.29467,0.01074
3670.36595,0.00983
3668.43722,0.00779
3666.50849,0.00691
3664.57977,0.01053
3662.65104,0.01891
3660.72231,0.02288
3658.79359,0.01869
3656.86486,0.01564
3654.93614,0.01552
3653.00741,0.01662
3651.07868,0.01644
3649.14996,0.01398
3647.22123,0.01098
3645.29250,0.01057
3643.36378,0.01361
3641.43505,0.01605
3639.50633,0.01448
3637.57760,0.01161
3635.64887,0.01108
3633.72015,0.01229
3631.79142,0.01272
3629.86270,0.01237
3627.93397,0.01172
3626.00524,0.01090
3624.07652,0.01192
3622.14779,0.01492
3620.21906,0.01649
3618.29034,0.01469
3616.36161,0.01286
3614.43289,0.01167
3612.50416,0.01069
3610.57543,0.01083
3608.64671,0.01163
3606.71798,0.01125
3604.78925,0.01071
3602.86053,0.01267
3600.93180,0.01694
3599.00308,0.01872
3597.07435,0.01596
3595.14562,0.01383
3593.21690,0.01368
3591.28817,0.01376
3589.35945,0.01313
3587.43072,0.01151
3585.50199,0.00930
3583.57327,0.00855
3581.64454,0.01038
3579.71581,0.01324
3577.78709,0.01488
3575.85836,0.01453
3573.92964,0.01339
3572.00091,0.01236
3570.07218,0.01209
3568.14346,0.01281
3566.21473,0.01324
3564.28600,0.01290
3562.35728,0.01311
3560.42855,0.01405
3558.49983,0.01475
3556.57110,0.01499
3554.64237,0.01459
3552.71365,0.01393
3550.78492,0.01341
3548.85620,0.01285
3546.92747,0.01225
3544.99874,0.01210
3543.07002,0.01228
3541.14129,0.01250
3539.21256,0.01295
3537.28384,0.01376
3535.35511,0.01464
3533.42639,0.01482
3531.49766,0.01403
3529.56893,0.01324
3527.64021,0.01313
3525.71148,0.01323
3523.78275,0.01297
3521.85403,0.01266
3519.92530,0.01273
3517.99658,0.01303
3516.06785,0.01309
3514.13912,0.01294
3512.21040,0.01300
3510.28167,0.01326
3508.35295,0.01329
3506.42422,0.01291
3504.49549,0.01249
3502.56677,0.01239
3500.63804,0.01243
3498.70931,0.01250
3496.78059,0.01280
3494.85186,0.01328
3492.92314,0.01360
3490.99441,0.01352
3489.06568,0.01299
3487.13696,0.01248
3485.20823,0.01261
3483.27950,0.01308
3481.35078,0.01337
3479.42205,0.01356
3477.49333,0.01373
3475.56460,0.01378
3473.63587,0.01365
3471.70715,0.01339
3469.77842,0.01333
3467.84970,0.01327
3465.92097,0.01268
3463.99224,0.01220
3462.06352,0.01244
3460.13479,0.01277
3458.20606,0.01305
3456.27734,0.01358
3454.34861,0.01400
3452.41989,0.01400
3450.49116,0.01363
3448.56243,0.01320
3446.63371,0.01307
3444.70498,0.01308
3442.77625,0.01292
3440.84753,0.01253
3438.91880,0.01214
3436.99008,0.01224
3435.06135,0.01289
3433.13262,0.01331
3431.20390,0.01311
3429.27517,0.01291
3427.34644,0.01315
3425.41772,0.01347
3423.48899,0.01343
3421.56027,0.01300
3419.63154,0.01264
3417.70281,0.01269
3415.77409,0.01283
3413.84536,0.01273
3411.91664,0.01255
3409.98791,0.01257
3408.05918,0.01275
3406.13046,0.01290
3404.20173,0.01317
3402.27300,0.01368
3400.34428,0.01428
3398.41555,0.01456
3396.48683,0.01412
3394.55810,0.01327
3392.62937,0.01277
3390.70065,0.01277
3388.77192,0.01285
3386.84319,0.01272
3384.91447,0.01259
3382.98574,0.01254
3381.05702,0.01249
3379.12829,0.01253
3377.19956,0.01285
3375.27084,0.01318
3373.34211,0.01296
3371.41339,0.01244
3369.48466,0.01246
3367.55593,0.01282
3365.62721,0.01292
3363.69848,0.01282
3361.76975,0.01268
3359.84103,0.01258
3357.91230,0.01266
3355.98358,0.01271
3354.05485,0.01248
3352.12612,0.01231
3350.19740,0.01267
3348.26867,0.01312
3346.33994,0.01293
3344.41122,0.01239
3342.48249,0.01233
3340.55377,0.01280
3338.62504,0.01317
3336.69631,0.01316
3334.76759,0.01290
3332.83886,0.01286
3330.91014,0.01329
3328.98141,0.01352
3327.05268,0.01317
3325.12396,0.01283
3323.19523,0.01267
3321.26650,0.01229
3319.33778,0.01186
3317.40905,0.01171
3315.48033,0.01185
3313.55160,0.01231
3311.62287,0.01286
3309.69415,0.01305
3307.76542,0.01301
3305.83669,0.01298
3303.90797,0.01285
3301.97924,0.01284
3300.05052,0.01303
3298.12179,0.01296
3296.19306,0.01263
3294.26434,0.01252
3292.33561,0.01259
3290.40689,0.01236
3288.47816,0.01201
3286.54943,0.01204
3284.62071,0.01222
3282.69198,0.01219
3280.76325,0.01229
3278.83453,0.01268
3276.90580,0.01301
3274.97708,0.01309
3273.04835,0.01301
3271.11962,0.01291
3269.19090,0.01288
3267.26217,0.01290
3265.33344,0.01283
3263.40472,0.01291
3261.47599,0.01323
3259.54727,0.01343
3257.61854,0.01333
3255.68981,0.01297
3253.76109,0.01251
3251.83236,0.01222
3249.90364,0.01217
3247.97491,0.01233
3246.04618,0.01248
3244.11746,0.01252
3242.18873,0.01265
3240.26000,0.01279
3238.33128,0.01260
3236.40255,0.01232
3234.47383,0.01248
3232.54510,0.01273
3230.61637,0.01263
3228.68765,0.01269
3226.75892,0.01312
3224.83019,0.01332
3222.90147,0.01322
3220.97274,0.01316
3219.04402,0.01337
3217.11529,0.01381
3215.18656,0.01397
3213.25784,0.01365
3211.32911,0.01324
3209.40039,0.01306
3207.47166,0.01302
3205.54293,0.01291
3203.61421,0.01273
3201.68548,0.01252
3199.75675,0.01240
3197.82803,0.01265
3195.89930,0.01289
3193.97058,0.01271
3192.04185,0.01262
3190.11312,0.01293
3188.18440,0.01334
3186.25567,0.01352
3184.32694,0.01342
3182.39822,0.01340
3180.46949,0.01354
3178.54077,0.01344
3176.61204,0.01305
3174.68331,0.01286
3172.75459,0.01311
3170.82586,0.01351
3168.89714,0.01345
3166.96841,0.01295
3165.03968,0.01279
3163.11096,0.01294
3161.18223,0.01272
3159.25350,0.01242
3157.32478,0.01244
3155.39605,0.01255
3153.46733,0.01297
3151.53860,0.01364
3149.60987,0.01377
3147.68115,0.01319
3145.75242,0.01273
3143.82369,0.01297
3141.89497,0.01362
3139.96624,0.01387
3138.03752,0.01338
3136.10879,0.01285
3134.18006,0.01297
3132.25134,0.01350
3130.32261,0.01374
3128.39389,0.01362
3126.46516,0.01345
3124.53643,0.01319
3122.60771,0.01292
3120.67898,0.01281
3118.75025,0.01269
3116.82153,0.01253
3114.89280,0.01251
3112.96408,0.01280
3111.03535,0.01319
3109.10662,0.01321
3107.17790,0.01299
3105.24917,0.01297
3103.32044,0.01296
3101.39172,0.01280
3099.46299,0.01267
3097.53427,0.01261
3095.60554,0.01264
3093.67681,0.01289
3091.74809,0.01319
3089.81936,0.01328
3087.89063,0.01326
3085.96191,0.01321
3084.03318,0.01306
3082.10446,0.01278
3080.17573,0.01253
3078.24700,0.01253
3076.31828,0.01262
3074.38955,0.01251
3072.46083,0.01223
3070.53210,0.01195
3068.60337,0.01192
3066.67465,0.01233
3064.74592,0.01280
3062.81719,0.01281
3060.88847,0.01232
3058.95974,0.01178
3057.03102,0.01133
3055.10229,0.01078
3053.17356,0.01016
3051.24484,0.00952
3049.31611,0.00878
3047.38738,0.00812
3045.45866,0.00783
3043.52993,0.00773
3041.60121,0.00773
3039.67248,0.00797
3037.74375,0.00816
3035.81503,0.00797
3033.88630,0.00705
3031.95758,0.00530
3030.02885,0.00417
3028.10012,0.00491
3026.17140,0.00639
3024.24267,0.00707
3022.31394,0.00692
3020.38522,0.00651
3018.45649,0.00634
3016.52777,0.00659
3014.59904,0.00681
3012.67031,0.00650
3010.74159,0.00591
3008.81286,0.00565
3006.88413,0.00585
3004.95541,0.00621
3003.02668,0.00655
3001.09796,0.00705
2999.16923,0.00789
2997.24050,0.00864
2995.31178,0.00855
2993.38305,0.00726
2991.45433,0.00510
2989.52560,0.00356
2987.59687,0.00404
2985.66815,0.00619
2983.73942,0.00826
2981.81069,0.00903
2979.88197,0.00860
2977.95324,0.00782
2976.02452,0.00739
2974.09579,0.00731
2972.16706,0.00718
2970.23834,0.00699
2968.30961,0.00710
2966.38088,0.00761
2964.45216,0.00839
2962.52343,0.00928
2960.59471,0.00991
2958.66598,0.01014
2956.73725,0.01036
2954.80853,0.01069
2952.87980,0.01097
2950.95108,0.01137
2949.02235,0.01189
2947.09362,0.01227
2945.16490,0.01240
2943.23617,0.01234
2941.30744,0.01220
2939.37872,0.01201
2937.44999,0.01195
2935.52127,0.01222
2933.59254,0.01258
2931.66381,0.01264
2929.73509,0.01246
2927.80636,0.01235
2925.87763,0.01245
2923.94891,0.01280
2922.02018,0.01299
2920.09146,0.01269
2918.16273,0.01241
2916.23400,0.01256
2914.30528,0.01282
2912.37655,0.01301
2910.44783,0.01311
2908.51910,0.01286
2906.59037,0.01246
2904.66165,0.01247
2902.73292,0.01281
2900.80419,0.01304
2898.87547,0.01304
2896.94674,0.01295
2895.01802,0.01288
2893.08929,0.01280
2891.16056,0.01267
2889.23184,0.01255
2887.30311,0.01259
2885.37438,0.01268
2883.44566,0.01270
2881.51693,0.01276
2879.58821,0.01288
2877.65948,0.01296
2875.73075,0.01285
2873.80203,0.01252
2871.87330,0.01213
2869.94458,0.01185
2868.01585,0.01189
2866.08712,0.01221
2864.15840,0.01232
2862.22967,0.01205
2860.30094,0.01203
2858.37222,0.01241
2856.44349,0.01267
2854.51477,0.01269
2852.58604,0.01277
2850.65731,0.01287
2848.72859,0.01294
2846.79986,0.01316
2844.87113,0.01330
2842.94241,0.01307
2841.01368,0.01273
2839.08496,0.01255
2837.15623,0.01257
2835.22750,0.01272
2833.29878,0.01285
2831.37005,0.01297
2829.44133,0.01327
2827.51260,0.01362
2825.58387,0.01364
2823.65515,0.01313
2821.72642,0.01256
2819.79769,0.01258
2817.86897,0.01293
2815.94024,0.01288
2814.01152,0.01267
2812.08279,0.01279
2810.15406,0.01285
2808.22534,0.01247
2806.29661,0.01222
2804.36788,0.01239
2802.43916,0.01256
2800.51043,0.01263
2798.58171,0.01284
2796.65298,0.01300
2794.72425,0.01297
2792.79553,0.01309
2790.86680,0.01325
2788.93808,0.01301
2787.00935,0.01264
2785.08062,0.01266
2783.15190,0.01300
2781.22317,0.01323
2779.29444,0.01306
2777.36572,0.01281
2775.43699,0.01277
2773.50827,0.01277
2771.57954,0.01275
2769.65081,0.01286
2767.72209,0.01296
2765.79336,0.01294
2763.86463,0.01289
2761.93591,0.01282
2760.00718,0.01269
2758.07846,0.01264
2756.14973,0.01273
2754.22100,0.01295
2752.29228,0.01317
2750.36355,0.01316
2748.43483,0.01302
2746.50610,0.01293
2744.57737,0.01278
2742.64865,0.01262
2740.71992,0.01260
2738.79119,0.01282
2736.86247,0.01317
2734.93374,0.01335
2733.00502,0.01317
2731.07629,0.01284
2729.14756,0.01263
2727.21884,0.01251
2725.29011,0.01250
2723.36138,0.01266
2721.43266,0.01285
2719.50393,0.01286
2717.57521,0.01275
2715.64648,0.01260
2713.71775,0.01251
2711.78903,0.01244
2709.86030,0.01221
2707.93157,0.01199
2706.00285,0.01206
2704.07412,0.01228
2702.14540,0.01235
2700.21667,0.01222
2698.28794,0.01219
2696.35922,0.01246
2694.43049,0.01277
2692.50177,0.01290
2690.57304,0.01293
2688.64431,0.01282
2686.71559,0.01260
2684.78686,0.01267
2682.85813,0.01299
2680.92941,0.01315
2679.00068,0.01313
2677.07196,0.01321
2675.14323,0.01335
2673.21450,0.01326
2671.28578,0.01293
2669.35705,0.01277
2667.42832,0.01294
2665.49960,0.01315
2663.57087,0.01317
2661.64215,0.01312
2659.71342,0.01321
2657.78469,0.01328
2655.85597,0.01306
2653.92724,0.01279
2651.99852,0.01291
2650.06979,0.01332
2648.14106,0.01352
2646.21234,0.01342
2644.28361,0.01327
2642.35488,0.01320
2640.42616,0.01320
2638.49743,0.01325
2636.56871,0.01320
2634.63998,0.01295
2632.71125,0.01274
2630.78253,0.01284
2628.85380,0.01318
2626.92507,0.01336
2624.99635,0.01318
2623.06762,0.01300
2621.13890,0.01325
2619.21017,0.01368
2617.28144,0.01377
2615.35272,0.01363
2613.42399,0.01355
2611.49527,0.01335
2609.56654,0.01298
2607.63781,0.01275
2605.70909,0.01283
2603.78036,0.01302
2601.85163,0.01319
2599.92291,0.01319
2597.99418,0.01298
2596.06546,0.01284
2594.13673,0.01284
2592.20800,0.01284
2590.27928,0.01273
2588.35055,0.01284
2586.42182,0.01328
2584.49310,0.01372
2582.56437,0.01389
2580.63565,0.01385
2578.70692,0.01361
2576.77819,0.01327
2574.84947,0.01316
2572.92074,0.01341
2570.99202,0.01369
2569.06329,0.01362
2567.13456,0.01331
2565.20584,0.01316
2563.27711,0.01315
2561.34838,0.01305
2559.41966,0.01300
2557.49093,0.01309
2555.56221,0.01305
2553.63348,0.01295
2551.70475,0.01299
2549.77603,0.01304
2547.84730,0.01291
2545.91857,0.01266
2543.98985,0.01265
2542.06112,0.01290
2540.13240,0.01296
2538.20367,0.01267
2536.27494,0.01252
2534.34622,0.01283
2532.41749,0.01321
2530.48877,0.01318
2528.56004,0.01296
2526.63131,0.01291
2524.70259,0.01287
2522.77386,0.01291
2520.84513,0.01332
2518.91641,0.01381
2516.98768,0.01387
2515.05896,0.01348
2513.13023,0.01308
2511.20150,0.01301
2509.27278,0.01317
2507.34405,0.01329
2505.41532,0.01341
2503.48660,0.01345
2501.55787,0.01320
2499.62915,0.01283
2497.70042,0.01256
2495.77169,0.01253
2493.84297,0.01277
2491.91424,0.01306
2489.98552,0.01318
2488.05679,0.01315
2486.12806,0.01301
2484.19934,0.01289
2482.27061,0.01295
2480.34188,0.01316
2478.41316,0.01339
2476.48443,0.01345
2474.55571,0.01331
2472.62698,0.01317
2470.69825,0.01314
2468.76953,0.01318
2466.84080,0.01310
2464.91207,0.01294
2462.98335,0.01279
2461.05462,0.01267
2459.12590,0.01267
2457.19717,0.01280
2455.26844,0.01278
2453.33972,0.01263
2451.41099,0.01262
2449.48227,0.01281
2447.55354,0.01314
2445.62481,0.01344
2443.69609,0.01344
2441.76736,0.01330
2439.83863,0.01331
2437.90991,0.01344
2435.98118,0.01364
2434.05246,0.01382
2432.12373,0.01385
2430.19500,0.01379
2428.26628,0.01369
2426.33755,0.01352
2424.40882,0.01330
2422.48010,0.01305
2420.55137,0.01299
2418.62265,0.01332
2416.69392,0.01375
2414.76519,0.01385
2412.83647,0.01356
2410.90774,0.01328
2408.97902,0.01345
2407.05029,0.01406
2405.12156,0.01498
2403.19284,0.01655
2401.26411,0.01934
2399.33538,0.02334
2397.40666,0.02765
2395.47793,0.03123
2393.54921,0.03362
2391.62048,0.03472
2389.69175,0.03407
2387.76303,0.03182
2385.83430,0.02902
2383.90557,0.02605
2381.97685,0.02308
2380.04812,0.01994
2378.11940,0.01533
2376.19067,0.01013
2374.26194,0.00630
2372.33322,0.00435
2370.40449,0.00422
2368.47576,0.00580
2366.54704,0.00894
2364.61831,0.01311
2362.68959,0.01775
2360.76086,0.02096
2358.83213,0.01950
2356.90341,0.01479
2354.97468,0.01167
2353.04596,0.01131
2351.11723,0.01156
2349.18850,0.01090
2347.25978,0.00977
2345.33105,0.00916
2343.40232,0.00896
2341.47360,0.00851
2339.54487,0.00793
2337.61615,0.00768
2335.68742,0.00764
2333.75869,0.00756
2331.82997,0.00755
2329.90124,0.00766
2327.97251,0.00771
2326.04379,0.00771
2324.11506,0.00791
2322.18634,0.00849
2320.25761,0.00922
2318.32888,0.00973
2316.40016,0.00990
2314.47143,0.01004
2312.54271,0.01035
2310.61398,0.01067
2308.68525,0.01085
2306.75653,0.01100
2304.82780,0.01128
2302.89907,0.01167
2300.97035,0.01199
2299.04162,0.01226
2297.11290,0.01253
2295.18417,0.01263
2293.25544,0.01253
2291.32672,0.01230
2289.39799,0.01204
2287.46926,0.01198
2285.54054,0.01218
2283.61181,0.01230
2281.68309,0.01228
2279.75436,0.01239
2277.82563,0.01262
2275.89691,0.01254
2273.96818,0.01213
2272.03946,0.01187
2270.11073,0.01200
2268.18200,0.01231
2266.25328,0.01248
2264.32455,0.01241
2262.39582,0.01235
2260.46710,0.01248
2258.53837,0.01265
2256.60965,0.01262
2254.68092,0.01249
2252.75219,0.01249
2250.82347,0.01260
2248.89474,0.01275
2246.96601,0.01285
2245.03729,0.01272
2243.10856,0.01258
2241.17984,0.01276
2239.25111,0.01296
2237.32238,0.01294
2235.39366,0.01299
2233.46493,0.01330
2231.53621,0.01354
2229.60748,0.01335
2227.67875,0.01287
2225.75003,0.01259
2223.82130,0.01272
2221.89257,0.01287
2219.96385,0.01277
2218.03512,0.01256
2216.10640,0.01253
2214.17767,0.01265
2212.24894,0.01257
2210.32022,0.01221
2208.39149,0.01194
2206.46276,0.01204
2204.53404,0.01240
2202.60531,0.01271
2200.67659,0.01277
2198.74786,0.01267
2196.81913,0.01258
2194.89041,0.01252
2192.96168,0.01244
2191.03296,0.01232
2189.10423,0.01216
2187.17550,0.01202
2185.24678,0.01196
2183.31805,0.01188
2181.38932,0.01181
2179.46060,0.01191
2177.53187,0.01209
2175.60315,0.01211
2173.67442,0.01188
2171.74569,0.01159
2169.81697,0.01151
2167.88824,0.01169
2165.95951,0.01202
2164.03079,0.01231
2162.10206,0.01241
2160.17334,0.01238
2158.24461,0.01239
2156.31588,0.01248
2154.38716,0.01265
2152.45843,0.01286
2150.52971,0.01302
2148.60098,0.01295
2146.67225,0.01260
2144.74353,0.01216
2142.81480,0.01189
2140.88607,0.01182
2138.95735,0.01185
2137.02862,0.01193
2135.09990,0.01202
2133.17117,0.01211
2131.24244,0.01209
2129.31372,0.01200
2127.38499,0.01193
2125.45626,0.01191
2123.52754,0.01190
2121.59881,0.01190
2119.67009,0.01197
2117.74136,0.01211
2115.81263,0.01224
2113.88391,0.01226
2111.95518,0.01222
2110.02646,0.01235
2108.09773,0.01255
2106.16900,0.01251
2104.24028,0.01228
2102.31155,0.01212
2100.38282,0.01205
2098.45410,0.01187
2096.52537,0.01159
2094.59665,0.01148
2092.66792,0.01150
2090.73919,0.01144
2088.81047,0.01147
2086.88174,0.01190
2084.95301,0.01262
2083.02429,0.01304
2081.09556,0.01289
2079.16684,0.01257
2077.23811,0.01242
2075.30938,0.01235
2073.38066,0.01225
2071.45193,0.01211
2069.52321,0.01200
2067.59448,0.01201
2065.66575,0.01204
2063.73703,0.01215
2061.80830,0.01248
2059.87957,0.01277
2057.95085,0.01276
2056.02212,0.01259
2054.09340,0.01230
2052.16467,0.01206
2050.23594,0.01225
2048.30722,0.01267
2046.37849,0.01290
2044.44976,0.01294
2042.52104,0.01301
2040.59231,0.01322
2038.66359,0.01349
2036.73486,0.01359
2034.80613,0.01348
2032.87741,0.01330
2030.94868,0.01295
2029.01996,0.01245
2027.09123,0.01223
2025.16250,0.01257
2023.23378,0.01300
2021.30505,0.01282
2019.37632,0.01217
2017.44760,0.01178
2015.51887,0.01197
2013.59015,0.01240
2011.66142,0.01266
2009.73269,0.01262
2007.80397,0.01243
2005.87524,0.01221
2003.94651,0.01184
2002.01779,0.01152
2000.08906,0.01153
1998.16034,0.01166
1996.23161,0.01185
1994.30288,0.01214
1992.37416,0.01231
1990.44543,0.01244
1988.51670,0.01275
1986.58798,0.01308
1984.65925,0.01323
1982.73053,0.01313
1980.80180,0.01284
1978.87307,0.01233
1976.94435,0.01191
1975.01562,0.01209
1973.08690,0.01259
1971.15817,0.01287
1969.22944,0.01288
1967.30072,0.01283
1965.37199,0.01292
1963.44326,0.01330
1961.51454,0.01387
1959.58581,0.01402
1957.65709,0.01342
1955.72836,0.01260
1953.79963,0.01193
1951.87091,0.01181
1949.94218,0.01241
1948.01345,0.01302
1946.08473,0.01305
1944.15600,0.01293
1942.22728,0.01321
1940.29855,0.01356
1938.36982,0.01372
1936.44110,0.01385
1934.51237,0.01305
1932.58365,0.01167
1930.65492,0.01127
1928.72619,0.01157
1926.79747,0.01185
1924.86874,0.01209
1922.94001,0.01207
1921.01129,0.01178
1919.08256,0.01161
1917.15384,0.01184
1915.22511,0.01252
1913.29638,0.01319
1911.36766,0.01332
1909.43893,0.01330
1907.51020,0.01349
1905.58148,0.01326
1903.65275,0.01269
1901.72403,0.01219
1899.79530,0.01160
1897.86657,0.01138
1895.93785,0.01184
1894.00912,0.01244
1892.08040,0.01281
1890.15167,0.01329
1888.22294,0.01463
1886.29422,0.01633
1884.36549,0.01602
1882.43676,0.01371
1880.50804,0.01106
1878.57931,0.00917
1876.65059,0.00930
1874.72186,0.01095
1872.79313,0.01207
1870.86441,0.01217
1868.93568,0.01203
1867.00695,0.01215
1865.07823,0.01288
1863.14950,0.01447
1861.22078,0.01570
1859.29205,0.01465
1857.36332,0.01263
1855.43460,0.01098
1853.50587,0.01016
1851.57715,0.01082
1849.64842,0.01268
1847.71969,0.01466
1845.79097,0.01534
1843.86224,0.01468
1841.93351,0.01320
1840.00479,0.01123
1838.07606,0.01019
1836.14734,0.01006
1834.21861,0.01001
1832.28988,0.01046
1830.36116,0.01161
1828.43243,0.01273
1826.50370,0.01328
1824.57498,0.01288
1822.64625,0.01182
1820.71753,0.01106
1818.78880,0.01149
1816.86007,0.01277
1814.93135,0.01346
1813.00262,0.01307
1811.07390,0.01257
1809.14517,0.01283
1807.21644,0.01266
1805.28772,0.01099
1803.35899,0.00922
1801.43026,0.00861
1799.50154,0.00983
1797.57281,0.01189
1795.64409,0.01276
1793.71536,0.01229
1791.78663,0.01256
1789.85791,0.01489
1787.92918,0.01724
1786.00045,0.01571
1784.07173,0.01185
1782.14300,0.00880
1780.21428,0.00809
1778.28555,0.00944
1776.35682,0.01082
1774.42810,0.01125
1772.49937,0.01098
1770.57065,0.01047
1768.64192,0.01132
1766.71319,0.01323
1764.78447,0.01355
1762.85574,0.01218
1760.92701,0.01061
1758.99829,0.00944
1757.06956,0.00925
1755.14084,0.00942
1753.21211,0.00954
1751.28338,0.01076
1749.35466,0.01248
1747.42593,0.01185
1745.49720,0.00977
1743.56848,0.00730
1741.63975,0.00618
1739.71103,0.00744
1737.78230,0.00988
1735.85357,0.01354
1733.92485,0.01953
1731.99612,0.02198
1730.06740,0.01617
1728.13867,0.00994
1726.20994,0.00650
1724.28122,0.00647
1722.35249,0.00983
1720.42376,0.01430
1718.49504,0.01741
1716.56631,0.01969
1714.63759,0.01973
1712.70886,0.01699
1710.78013,0.01203
1708.85141,0.00731
1706.92268,0.00571
1704.99395,0.00664
1703.06523,0.00998
1701.13650,0.01684
1699.20778,0.02139
1697.27905,0.01609
1695.35032,0.01048
1693.42160,0.00744
1691.49287,0.00726
1689.56415,0.00980
1687.63542,0.01266
1685.70669,0.01406
1683.77797,0.01188
1681.84924,0.00918
1679.92051,0.00854
1677.99179,0.00876
1676.06306,0.00908
1674.13434,0.00950
1672.20561,0.01039
1670.27688,0.01454
1668.34816,0.02256
1666.41943,0.02096
1664.49070,0.01487
1662.56198,0.00955
1660.63325,0.00683
1658.70453,0.00720
1656.77580,0.00713
1654.84707,0.00711
1652.91835,0.01030
1650.98962,0.01555
1649.06090,0.01432
1647.13217,0.01030
1645.20344,0.00788
1643.27472,0.00764
1641.34599,0.01005
1639.41726,0.01290
1637.48854,0.01263
1635.55981,0.01090
1633.63109,0.01070
1631.70236,0.01111
1629.77363,0.01077
1627.84491,0.00986
1625.91618,0.00860
1623.98745,0.00862
1622.05873,0.01043
1620.13000,0.01159
1618.20128,0.01135
1616.27255,0.01096
1614.34382,0.01100
1612.41510,0.01108
1610.48637,0.01128
1608.55764,0.01165
1606.62892,0.01183
1604.70019,0.01151
1602.77147,0.01102
1600.84274,0.01090
1598.91401,0.01108
1596.98529,0.01142
1595.05656,0.01234
1593.12784,0.01449
1591.19911,0.01739
1589.27038,0.01688
1587.34166,0.01317
1585.41293,0.01054
1583.48420,0.00994
1581.55548,0.01051
1579.62675,0.01048
1577.69803,0.01083
1575.76930,0.01487
1573.84057,0.02513
1571.91185,0.02792
1569.98312,0.01654
1568.05439,0.00858
1566.12567,0.00539
1564.19694,0.00591
1562.26822,0.00797
1560.33949,0.01054
1558.41076,0.01486
1556.48204,0.02218
1554.55331,0.02526
1552.62459,0.01485
1550.69586,0.00702
1548.76713,0.00474
1546.83841,0.00585
1544.90968,0.00836
1542.98095,0.00964
1541.05223,0.01045
1539.12350,0.01284
1537.19478,0.01602
1535.26605,0.01662
1533.33732,0.01397
1531.40860,0.01059
1529.47987,0.00799
1527.55114,0.00755
1525.62242,0.00870
1523.69369,0.01222
1521.76497,0.02021
1519.83624,0.02095
1517.90751,0.01130
1515.97879,0.00599
1514.05006,0.00546
1512.12134,0.00892
1510.19261,0.01200
1508.26388,0.01081
1506.33516,0.00951
1504.40643,0.01077
1502.47770,0.01310
1500.54898,0.01206
1498.62025,0.00915
1496.69153,0.00760
1494.76280,0.00813
1492.83407,0.01000
1490.90535,0.01254
1488.97662,0.01575
1487.04789,0.01805
1485.11917,0.01481
1483.19044,0.00946
1481.26172,0.00683
1479.33299,0.00710
1477.40426,0.00919
1475.47554,0.01054
1473.54681,0.01194
1471.61809,0.01594
1469.68936,0.01722
1467.76063,0.01105
1465.83191,0.00617
1463.90318,0.00519
1461.97445,0.00718
1460.04573,0.00915
1458.11700,0.00924
1456.18828,0.00866
1454.25955,0.00874
1452.33082,0.00986
1450.40210,0.01100
1448.47337,0.00999
1446.54464,0.00759
1444.61592,0.00567
1442.68719,0.00485
1440.75847,0.00465
1438.82974,0.00417
1436.90101,0.00358
1434.97229,0.00349
1433.04356,0.00373
1431.11484,0.00350
1429.18611,0.00278
1427.25738,0.00226
1425.32866,0.00222
1423.39993,0.00236
1421.47120,0.00215
1419.54248,0.00178
1417.61375,0.00186
1415.68503,0.00234
1413.75630,0.00283
1411.82757,0.00317
1409.89885,0.00331
1407.97012,0.00307
1406.04139,0.00246
1404.11267,0.00197
1402.18394,0.00211
1400.25522,0.00319
1398.32649,0.00454
1396.39776,0.00501
1394.46904,0.00497
1392.54031,0.00530
1390.61159,0.00636
1388.68286,0.00750
1386.75413,0.00783
1384.82541,0.00705
1382.89668,0.00589
1380.96795,0.00496
1379.03923,0.00462
1377.11050,0.00504
1375.18178,0.00580
1373.25305,0.00601
1371.32432,0.00539
1369.39560,0.00471
1367.46687,0.00479
1365.53814,0.00546
1363.60942,0.00603
1361.68069,0.00656
1359.75197,0.00731
1357.82324,0.00796
1355.89451,0.00851
1353.96579,0.00964
1352.03706,0.01108
1350.10834,0.01102
1348.17961,0.00938
1346.25088,0.00812
1344.32216,0.00834
1342.39343,0.00945
1340.46470,0.01005
1338.53598,0.00984
1336.60725,0.00961
1334.67853,0.00969
1332.74980,0.01001
1330.82107,0.01035
1328.89235,0.01020
1326.96362,0.00937
1325.03489,0.00843
1323.10617,0.00811
1321.17744,0.00848
1319.24872,0.00910
1317.31999,0.00972
1315.39126,0.01001
1313.46254,0.00995
1311.53381,0.00990
1309.60509,0.00995
1307.67636,0.01012
1305.74763,0.01041
1303.81891,0.01057
1301.89018,0.01058
1299.96145,0.01066
1298.03273,0.01060
1296.10400,0.01027
1294.17528,0.01024
1292.24655,0.01057
1290.31782,0.01073
1288.38910,0.01080
1286.46037,0.01091
1284.53164,0.01098
1282.60292,0.01127
1280.67419,0.01160
1278.74547,0.01161
1276.81674,0.01166
1274.88801,0.01191
1272.95929,0.01204
1271.03056,0.01200
1269.10183,0.01189
1267.17311,0.01174
1265.24438,0.01169
1263.31566,0.01180
1261.38693,0.01178
1259.45820,0.01165
1257.52948,0.01193
1255.60075,0.01248
1253.67203,0.01279
1251.74330,0.01274
1249.81457,0.01234
1247.88585,0.01188
1245.95712,0.01197
1244.02839,0.01256
1242.09967,0.01296
1240.17094,0.01279
1238.24222,0.01230
1236.31349,0.01174
1234.38476,0.01133
1232.45604,0.01118
1230.52731,0.01131
1228.59858,0.01165
1226.66986,0.01198
1224.74113,0.01220
1222.81241,0.01234
1220.88368,0.01235
1218.95495,0.01210
1217.02623,0.01177
1215.09750,0.01174
1213.16878,0.01183
1211.24005,0.01169
1209.31132,0.01129
1207.38260,0.01065
1205.45387,0.01026
1203.52514,0.01074
1201.59642,0.01141
1199.66769,0.01142
1197.73897,0.01105
1195.81024,0.01068
1193.88151,0.01013
1191.95279,0.00965
1190.02406,0.00955
1188.09533,0.00920
1186.16661,0.00846
1184.23788,0.00802
1182.30916,0.00779
1180.38043,0.00704
1178.45170,0.00582
1176.52298,0.00488
1174.59425,0.00452
1172.66553,0.00430
1170.73680,0.00422
1168.80807,0.00446
1166.87935,0.00458
1164.95062,0.00435
1163.02189,0.00384
1161.09317,0.00337
1159.16444,0.00306
1157.23572,0.00217
1155.30699,0.00059
1153.37826,0.00001
1151.44954,0.00001
1149.52081,0.00001
1147.59208,0.00014
1145.66336,0.00022
1143.73463,0.00001
1141.80591,0.00001
1139.87718,0.00001
1137.94845,0.00034
1136.01973,0.00039
1134.09100,0.00016
1132.16228,0.00001
1130.23355,0.00001
1128.30482,0.00001
1126.37610,0.00091
1124.44737,0.00180
1122.51864,0.00188
1120.58992,0.00264
1118.66119,0.00411
1116.73247,0.00535
1114.80374,0.00592
1112.87501,0.00618
1110.94629,0.00652
1109.01756,0.00701
1107.08883,0.00741
1105.16011,0.00760
1103.23138,0.00800
1101.30266,0.00861
1099.37393,0.00891
1097.44520,0.00898
1095.51648,0.00906
1093.58775,0.00907
1091.65903,0.00894
1089.73030,0.00883
1087.80157,0.00904
1085.87285,0.00953
1083.94412,0.00971
1082.01539,0.00933
1080.08667,0.00926
1078.15794,0.01012
1076.22922,0.01141
1074.30049,0.01198
1072.37176,0.01133
1070.44304,0.01074
1068.51431,0.01111
1066.58558,0.01162
1064.65686,0.01182
1062.72813,0.01209
1060.79941,0.01231
1058.87068,0.01228
1056.94195,0.01221
1055.01323,0.01191
1053.08450,0.01122
1051.15578,0.01062
1049.22705,0.01052
1047.29832,0.01087
1045.36960,0.01131
1043.44087,0.01161
1041.51214,0.01184
1039.58342,0.01172
1037.65469,0.01129
1035.72597,0.01118
1033.79724,0.01140
1031.86851,0.01154
1029.93979,0.01164
1028.01106,0.01170
1026.08233,0.01186
1024.15361,0.01227
1022.22488,0.01244
1020.29616,0.01226
1018.36743,0.01236
1016.43870,0.01283
1014.50998,0.01318
1012.58125,0.01329
1010.65253,0.01318
1008.72380,0.01279
1006.79507,0.01250
1004.86635,0.01267
1002.93762,0.01307
1001.00889,0.01333
999.08017,0.01307
997.15144,0.01240
995.22272,0.01179
993.29399,0.01201
991.36526,0.01248
989.43654,0.01225
987.50781,0.01178
985.57908,0.01180
983.65036,0.01172
981.72163,0.01087
979.79291,0.00969
977.86418,0.00846
975.93545,0.00720
974.00673,0.00623
972.07800,0.00551
970.14928,0.00493
968.22055,0.00447
966.29182,0.00384
964.36310,0.00340
962.43437,0.00348
960.50564,0.00336
958.57692,0.00304
956.64819,0.00333
954.71947,0.00370
952.79074,0.00316
950.86201,0.00223
948.93329,0.00177
947.00456,0.00179
945.07583,0.00213
943.14711,0.00245
941.21838,0.00240
939.28966,0.00212
937.36093,0.00182
935.43220,0.00165
933.50348,0.00170
931.57475,0.00217
929.64603,0.00320
927.71730,0.00418
925.78857,0.00439
923.85985,0.00430
921.93112,0.00486
920.00239,0.00580
918.07367,0.00634
916.14494,0.00665
914.21622,0.00735
912.28749,0.00852
910.35876,0.00961
908.43004,0.01006
906.50131,0.01024
904.57258,0.01078
902.64386,0.01120
900.71513,0.01083
898.78641,0.00985
896.85768,0.00882
894.92895,0.00850
893.00023,0.00905
891.07150,0.00969
889.14277,0.00986
887.21405,0.00973
885.28532,0.00959
883.35660,0.00951
881.42787,0.00977
879.49914,0.01040
877.57042,0.01078
875.64169,0.01036
873.71297,0.00943
871.78424,0.00899
869.85551,0.00907
867.92679,0.00875
865.99806,0.00852
864.06933,0.00919
862.14061,0.01008
860.21188,0.01046
858.28316,0.01032
856.35443,0.00994
854.42570,0.00995
852.49698,0.01007
850.56825,0.00935
848.63952,0.00863
846.71080,0.00920
844.78207,0.01029
842.85335,0.01054
840.92462,0.01014
838.99589,0.00998
837.06717,0.01042
835.13844,0.01104
833.20972,0.01101
831.28099,0.01032
829.35226,0.00970
827.42354,0.00925
825.49481,0.00911
823.56608,0.00972
821.63736,0.01045
819.70863,0.01055
817.77991,0.01035
815.85118,0.01017
813.92245,0.01008
811.99373,0.01048
810.06500,0.01126
808.13627,0.01167
806.20755,0.01168
804.27882,0.01175
802.35010,0.01180
800.42137,0.01149
798.49264,0.01082
796.56392,0.01012
794.63519,0.00961
792.70647,0.00974
790.77774,0.01074
788.84901,0.01142
786.92029,0.01096
784.99156,0.01014
783.06283,0.00981
781.13411,0.01039
779.20538,0.01176
777.27666,0.01309
775.34793,0.01366
773.41920,0.01316
771.49048,0.01225
769.56175,0.01173
767.63302,0.01133
765.70430,0.01084
763.77557,0.01082
761.84685,0.01094
759.91812,0.01008
757.98939,0.00902
756.06067,0.00914
754.13194,0.01005
752.20322,0.01109
750.27449,0.01194
748.34576,0.01201
746.41704,0.01143
744.48831,0.01076
742.55958,0.00990
740.63086,0.00945
738.70213,0.01041
736.77341,0.01177
734.84468,0.01169
732.91595,0.01065
730.98723,0.01021
729.05850,0.01016
727.12977,0.00963
725.20105,0.00909
723.27232,0.00893
721.34360,0.00889
719.41487,0.00896
717.48614,0.00892
715.55742,0.00868
713.62869,0.00851
711.69997,0.00825
709.77124,0.00809
707.84251,0.00874
705.91379,0.01005
703.98506,0.01115
702.05633,0.01171
700.12761,0.01231
698.19888,0.01291
696.27016,0.01263
694.34143,0.01197
692.41270,0.01198
690.48398,0.01222
688.55525,0.01174
686.62652,0.01019
684.69780,0.00856
682.76907,0.00800
680.84035,0.00835
678.91162,0.00966
676.98289,0.01301
675.05417,0.01601
673.12544,0.01149
671.19672,0.00734
669.26799,0.00815
667.33926,0.01007
665.41054,0.01104
663.48181,0.01180
661.55308,0.01174
659.62436,0.01033
657.69563,0.00929
655.76691,0.00911
653.83818,0.00859
651.90945,0.00857
649.98073,0.00981
648.05200,0.01090
646.12327,0.01151
644.19455,0.01202
642.26582,0.01176
640.33710,0.01091
638.40837,0.01036
636.47964,0.00997
634.55092,0.00980
632.62219,0.01035
630.69347,0.01130
628.76474,0.01218
626.83601,0.01271
624.90729,0.01219
622.97856,0.01062
621.04983,0.00901
619.12111,0.00822
617.19238,0.00841
615.26366,0.00892
613.33493,0.00928
611.40620,0.00904
609.47748,0.00816
607.54875,0.00788
605.62002,0.00881
603.69130,0.00977
601.76257,0.00998
599.83385,0.01036
597.90512,0.01133
595.97639,0.01199
594.04767,0.01111
592.11894,0.00947
590.19022,0.00784
588.26149,0.00654
586.33276,0.00690
584.40404,0.00979
582.47531,0.01319
580.54658,0.01376
578.61786,0.01178
576.68913,0.01003
574.76041,0.00900
572.83168,0.00796
570.90295,0.00739
568.97423,0.00739
567.04550,0.00675
565.11677,0.00598
563.18805,0.00624
561.25932,0.00691
559.33060,0.00738
557.40187,0.00731
555.47314,0.00656
553.54442,0.00677
551.61569,0.00930
549.68697,0.01124
547.75824,0.01014
545.82951,0.00874
543.90079,0.00916
541.97206,0.01037
540.04333,0.01101
538.11461,0.01127
536.18588,0.01171
534.25716,0.01091
532.32843,0.00862
530.39970,0.00749
528.47098,0.00843
526.54225,0.00991
524.61352,0.01067
522.68480,0.01028
520.75607,0.00923
518.82735,0.00933
516.89862,0.01188
514.96989,0.01453
513.04117,0.01375
511.11244,0.01003
509.18371,0.00633
507.25499,0.00488
505.32626,0.00610
503.39754,0.00761
501.46881,0.00887
499.54008,0.01169
497.61136,0.01393
495.68263,0.01203
493.75391,0.00759
491.82518,0.00222
489.89645,0.00001
487.96773,0.00001
486.03900,0.00001
484.11027,0.00503
482.18155,0.00988
480.25282,0.00685
478.32410,0.00261
476.39537,0.00066
474.46664,0.00127
472.53792,0.00425
470.60919,0.00701
468.68046,0.00661
466.75174,0.00487
464.82301,0.00471
462.89429,0.00275
460.96556,0.00001
459.03683,0.00105
457.10811,0.00488
455.17938,0.00570
453.25066,0.00401
451.32193,0.00433
449.39320,0.01095
447.46448,0.01727
445.53575,0.01455
443.60702,0.01146
441.67830,0.01230
439.74957,0.01070
437.82085,0.00819
435.89212,0.00961
433.96339,0.01064
432.03467,0.00798
430.10594,0.00597
428.17721,0.00568
426.24849,0.00541
424.31976,0.00946
422.39104,0.01802
420.46231,0.01993
418.53358,0.01792
416.60486,0.01533
414.67613,0.01104
412.74741,0.00645
410.81868,0.00598
408.88995,0.01316
406.96123,0.02468
405.03250,0.03285
403.10377,0.01839
401.17505,0.02273
399.24632,0.00658
