5996.40973,0.48936
5994.48101,0.48730
5992.55228,0.48758
5990.62356,0.48638
5988.69483,0.48337
5986.76610,0.48139
5984.83738,0.47951
5982.90865,0.47495
5980.97992,0.46898
5979.05120,0.46427
5977.12247,0.45994
5975.19375,0.45492
5973.26502,0.45216
5971.33629,0.45197
5969.40757,0.44852
5967.47884,0.44167
5965.55011,0.43641
5963.62139,0.43114
5961.69266,0.42371
5959.76394,0.41691
5957.83521,0.41009
5955.90648,0.40286
5953.97776,0.40013
5952.04903,0.40024
5950.12031,0.39623
5948.19158,0.39040
5946.26285,0.38909
5944.33413,0.39190
5942.40540,0.39394
5940.47667,0.39172
5938.54795,0.38741
5936.61922,0.38683
5934.69050,0.39006
5932.76177,0.39170
5930.83304,0.39094
5928.90432,0.39081
5926.97559,0.39113
5925.04686,0.39056
5923.11814,0.39092
5921.18941,0.39192
5919.26069,0.38945
5917.33196,0.38555
5915.40323,0.38412
5913.47451,0.38176
5911.54578,0.37694
5909.61706,0.37403
5907.68833,0.37365
5905.75960,0.37299
5903.83088,0.37110
5901.90215,0.36676
5899.97342,0.36131
5898.04470,0.36032
5896.11597,0.36511
5894.18725,0.36975
5892.25852,0.37047
5890.32979,0.37329
5888.40107,0.38265
5886.47234,0.39272
5884.54361,0.39740
5882.61489,0.39636
5880.68616,0.39290
5878.75744,0.39117
5876.82871,0.39208
5874.89998,0.39453
5872.97126,0.39728
5871.04253,0.39792
5869.11381,0.39706
5867.18508,0.39814
5865.25635,0.39993
5863.32763,0.39996
5861.39890,0.39974
5859.47017,0.40080
5857.54145,0.40246
5855.61272,0.40307
5853.68400,0.40178
5851.75527,0.40024
5849.82654,0.40087
5847.89782,0.40225
5845.96909,0.40166
5844.04036,0.39990
5842.11164,0.39863
5840.18291,0.39709
5838.25419,0.39347
5836.32546,0.38935
5834.39673,0.38697
5832.46801,0.38533
5830.53928,0.38528
5828.61056,0.38662
5826.68183,0.38709
5824.75310,0.38827
5822.82438,0.38954
5820.89565,0.38775
5818.96692,0.38440
5817.03820,0.38113
5815.10947,0.37853
5813.18075,0.37800
5811.25202,0.37809
5809.32329,0.37563
5807.39457,0.37155
5805.46584,0.37149
5803.53711,0.37583
5801.60839,0.37775
5799.67966,0.37481
5797.75094,0.37000
5795.82221,0.36699
5793.89348,0.36811
5791.96476,0.37008
5790.03603,0.36891
5788.10731,0.36643
5786.17858,0.36531
5784.24985,0.36482
5782.32113,0.36290
5780.39240,0.35906
5778.46367,0.35575
5776.53495,0.35442
5774.60622,0.35308
5772.67750,0.35191
5770.74877,0.35145
5768.82004,0.35040
5766.89132,0.35183
5764.96259,0.35687
5763.03386,0.36023
5761.10514,0.35968
5759.17641,0.35803
5757.24769,0.35897
5755.31896,0.36326
5753.39023,0.36785
5751.46151,0.37041
5749.53278,0.37113
5747.60406,0.37161
5745.67533,0.37299
5743.74660,0.37453
5741.81788,0.37572
5739.88915,0.37775
5737.96042,0.38000
5736.03170,0.38056
5734.10297,0.38137
5732.17425,0.38575
5730.24552,0.39181
5728.31679,0.39473
5726.38807,0.39493
5724.45934,0.39592
5722.53061,0.39784
5720.60189,0.40011
5718.67316,0.40187
5716.74444,0.40208
5714.81571,0.40222
5712.88698,0.40334
5710.95826,0.40467
5709.02953,0.40628
5707.10081,0.40836
5705.17208,0.40981
5703.24335,0.41058
5701.31463,0.41106
5699.38590,0.41088
5697.45717,0.41129
5695.52845,0.41179
5693.59972,0.41074
5691.67100,0.40982
5689.74227,0.41012
5687.81354,0.41170
5685.88482,0.41416
5683.95609,0.41463
5682.02736,0.41209
5680.09864,0.40993
5678.16991,0.41133
5676.24119,0.41466
5674.31246,0.41609
5672.38373,0.41572
5670.45501,0.41508
5668.52628,0.41328
5666.59756,0.41110
5664.66883,0.40989
5662.74010,0.40867
5660.81138,0.40737
5658.88265,0.40708
5656.95392,0.40856
5655.02520,0.41014
5653.09647,0.41024
5651.16775,0.41131
5649.23902,0.41460
5647.31029,0.41856
5645.38157,0.42096
5643.45284,0.41990
5641.52411,0.41752
5639.59539,0.41739
5637.66666,0.41991
5635.73794,0.42388
5633.80921,0.42778
5631.88048,0.42986
5629.95176,0.43084
5628.02303,0.43334
5626.09430,0.43658
5624.16558,0.43792
5622.23685,0.43761
5620.30813,0.43592
5618.37940,0.43280
5616.45067,0.43245
5614.52195,0.43556
5612.59322,0.43633
5610.66450,0.43427
5608.73577,0.43329
5606.80704,0.43462
5604.87832,0.43655
5602.94959,0.43561
5601.02086,0.43292
5599.09214,0.43258
5597.16341,0.43341
5595.23469,0.43430
5593.30596,0.43659
5591.37723,0.43980
5589.44851,0.44141
5587.51978,0.44047
5585.59105,0.43804
5583.66233,0.43617
5581.73360,0.43586
5579.80488,0.43522
5577.87615,0.43313
5575.94742,0.43216
5574.01870,0.43496
5572.08997,0.44060
5570.16125,0.44418
5568.23252,0.44230
5566.30379,0.43792
5564.37507,0.43484
5562.44634,0.43398
5560.51761,0.43561
5558.58889,0.43829
5556.66016,0.43971
5554.73144,0.43949
5552.80271,0.43767
5550.87398,0.43493
5548.94526,0.43302
5547.01653,0.43223
5545.08780,0.43219
5543.15908,0.43393
5541.23035,0.43825
5539.30163,0.44316
5537.37290,0.44469
5535.44417,0.44174
5533.51545,0.43690
5531.58672,0.43240
5529.65800,0.42976
5527.72927,0.42961
5525.80054,0.43108
5523.87182,0.43353
5521.94309,0.43685
5520.01436,0.44083
5518.08564,0.44410
5516.15691,0.44388
5514.22819,0.43982
5512.29946,0.43545
5510.37073,0.43370
5508.44201,0.43459
5506.51328,0.43637
5504.58455,0.43743
5502.65583,0.43854
5500.72710,0.44073
5498.79838,0.44276
5496.86965,0.44152
5494.94092,0.43596
5493.01220,0.43203
5491.08347,0.43501
5489.15475,0.44013
5487.22602,0.44143
5485.29729,0.44051
5483.36857,0.44170
5481.43984,0.44544
5479.51111,0.44895
5477.58239,0.44923
5475.65366,0.44638
5473.72494,0.44463
5471.79621,0.44551
5469.86748,0.44590
5467.93876,0.44413
5466.01003,0.44233
5464.08130,0.44213
5462.15258,0.44276
5460.22385,0.44429
5458.29513,0.44661
5456.36640,0.44834
5454.43767,0.44999
5452.50895,0.45266
5450.58022,0.45483
5448.65150,0.45365
5446.72277,0.44997
5444.79404,0.44898
5442.86532,0.45155
5440.93659,0.45380
5439.00786,0.45418
5437.07914,0.45275
5435.15041,0.45172
5433.22169,0.45362
5431.29296,0.45531
5429.36423,0.45378
5427.43551,0.45233
5425.50678,0.45429
5423.57805,0.45906
5421.64933,0.46362
5419.72060,0.46419
5417.79188,0.46037
5415.86315,0.45585
5413.93442,0.45493
5412.00570,0.45861
5410.07697,0.46398
5408.14825,0.46776
5406.21952,0.46848
5404.29079,0.46722
5402.36207,0.46618
5400.43334,0.46676
5398.50461,0.46888
5396.57589,0.47069
5394.64716,0.47187
5392.71844,0.47458
5390.78971,0.47782
5388.86098,0.47864
5386.93226,0.47734
5385.00353,0.47657
5383.07480,0.47799
5381.14608,0.47925
5379.21735,0.47751
5377.28863,0.47530
5375.35990,0.47665
5373.43117,0.47972
5371.50245,0.48139
5369.57372,0.48200
5367.64500,0.48271
5365.71627,0.48292
5363.78754,0.48296
5361.85882,0.48464
5359.93009,0.48641
5358.00136,0.48448
5356.07264,0.47769
5354.14391,0.47050
5352.21519,0.46949
5350.28646,0.47360
5348.35773,0.47627
5346.42901,0.47515
5344.50028,0.47440
5342.57155,0.47661
5340.64283,0.47706
5338.71410,0.47498
5336.78538,0.47479
5334.85665,0.47569
5332.92792,0.47514
5330.99920,0.47535
5329.07047,0.47849
5327.14175,0.48391
5325.21302,0.48825
5323.28429,0.48723
5321.35557,0.48209
5319.42684,0.47763
5317.49811,0.47596
5315.56939,0.47667
5313.64066,0.47790
5311.71194,0.47767
5309.78321,0.47638
5307.85448,0.47675
5305.92576,0.47944
5303.99703,0.48043
5302.06830,0.47752
5300.13958,0.47369
5298.21085,0.47144
5296.28213,0.47020
5294.35340,0.46883
5292.42467,0.46635
5290.49595,0.46384
5288.56722,0.46391
5286.63849,0.46422
5284.70977,0.46168
5282.78104,0.45840
5280.85232,0.45722
5278.92359,0.45780
5276.99486,0.45788
5275.06614,0.45696
5273.13741,0.45563
5271.20869,0.45307
5269.27996,0.44980
5267.35123,0.44747
5265.42251,0.44476
5263.49378,0.44133
5261.56505,0.44032
5259.63633,0.44260
5257.70760,0.44531
5255.77888,0.44641
5253.85015,0.44621
5251.92142,0.44320
5249.99270,0.43671
5248.06397,0.43222
5246.13524,0.43310
5244.20652,0.43520
5242.27779,0.43542
5240.34907,0.43509
5238.42034,0.43572
5236.49161,0.43581
5234.56289,0.43291
5232.63416,0.42795
5230.70544,0.42431
5228.77671,0.42337
5226.84798,0.42311
5224.91926,0.42287
5222.99053,0.42372
5221.06180,0.42513
5219.13308,0.42621
5217.20435,0.42626
5215.27563,0.42450
5213.34690,0.42202
5211.41817,0.42135
5209.48945,0.42270
5207.56072,0.42336
5205.63199,0.42174
5203.70327,0.41977
5201.77454,0.41944
5199.84582,0.42033
5197.91709,0.42085
5195.98836,0.42089
5194.05964,0.42139
5192.13091,0.42322
5190.20219,0.42601
5188.27346,0.42678
5186.34473,0.42489
5184.41601,0.42414
5182.48728,0.42505
5180.55855,0.42571
5178.62983,0.42773
5176.70110,0.43086
5174.77238,0.43211
5172.84365,0.43195
5170.91492,0.43295
5168.98620,0.43507
5167.05747,0.43645
5165.12874,0.43684
5163.20002,0.43713
5161.27129,0.43669
5159.34257,0.43457
5157.41384,0.43254
5155.48511,0.43290
5153.55639,0.43458
5151.62766,0.43575
5149.69894,0.43776
5147.77021,0.44096
5145.84148,0.44196
5143.91276,0.43918
5141.98403,0.43548
5140.05530,0.43430
5138.12658,0.43629
5136.19785,0.43920
5134.26913,0.44064
5132.34040,0.44109
5130.41167,0.44250
5128.48295,0.44468
5126.55422,0.44624
5124.62549,0.44682
5122.69677,0.44616
5120.76804,0.44382
5118.83932,0.44134
5116.91059,0.44097
5114.98186,0.44261
5113.05314,0.44468
5111.12441,0.44621
5109.19569,0.44712
5107.26696,0.44722
5105.33823,0.44649
5103.40951,0.44514
5101.48078,0.44346
5099.55205,0.44195
5097.62333,0.44059
5095.69460,0.44001
5093.76588,0.44101
5091.83715,0.44263
5089.90842,0.44414
5087.97970,0.44557
5086.05097,0.44626
5084.12224,0.44546
5082.19352,0.44341
5080.26479,0.44169
5078.33607,0.44227
5076.40734,0.44510
5074.47861,0.44750
5072.54989,0.44770
5070.62116,0.44627
5068.69244,0.44458
5066.76371,0.44422
5064.83498,0.44489
5062.90626,0.44472
5060.97753,0.44312
5059.04880,0.44065
5057.12008,0.43862
5055.19135,0.43871
5053.26263,0.44111
5051.33390,0.44340
5049.40517,0.44323
5047.47645,0.44154
5045.54772,0.44057
5043.61899,0.44022
5041.69027,0.43921
5039.76154,0.43836
5037.83282,0.43912
5035.90409,0.43957
5033.97536,0.43771
5032.04664,0.43585
5030.11791,0.43594
5028.18919,0.43677
5026.26046,0.43739
5024.33173,0.43746
5022.40301,0.43581
5020.47428,0.43285
5018.54555,0.43097
5016.61683,0.43029
5014.68810,0.42923
5012.75938,0.42839
5010.83065,0.42893
5008.90192,0.43043
5006.97320,0.43148
5005.04447,0.43069
5003.11574,0.42803
5001.18702,0.42404
4999.25829,0.41978
4997.32957,0.41716
4995.40084,0.41754
4993.47211,0.41845
4991.54339,0.41794
4989.61466,0.41696
4987.68594,0.41663
4985.75721,0.41632
4983.82848,0.41435
4981.89976,0.41109
4979.97103,0.40876
4978.04230,0.40760
4976.11358,0.40613
4974.18485,0.40401
4972.25613,0.40218
4970.32740,0.40143
4968.39867,0.40070
4966.46995,0.39904
4964.54122,0.39737
4962.61249,0.39491
4960.68377,0.39141
4958.75504,0.38988
4956.82632,0.39018
4954.89759,0.38890
4952.96886,0.38628
4951.04014,0.38511
4949.11141,0.38565
4947.18269,0.38558
4945.25396,0.38376
4943.32523,0.38162
4941.39651,0.38002
4939.46778,0.37821
4937.53905,0.37642
4935.61033,0.37490
4933.68160,0.37225
4931.75288,0.36922
4929.82415,0.36867
4927.89542,0.37083
4925.96670,0.37304
4924.03797,0.37246
4922.10924,0.36876
4920.18052,0.36436
4918.25179,0.36139
4916.32307,0.36044
4914.39434,0.36054
4912.46561,0.36004
4910.53689,0.35857
4908.60816,0.35721
4906.67943,0.35726
4904.75071,0.35770
4902.82198,0.35627
4900.89326,0.35373
4898.96453,0.35212
4897.03580,0.35140
4895.10708,0.35090
4893.17835,0.35083
4891.24963,0.35093
4889.32090,0.35060
4887.39217,0.34983
4885.46345,0.34863
4883.53472,0.34759
4881.60599,0.34674
4879.67727,0.34509
4877.74854,0.34359
4875.81982,0.34366
4873.89109,0.34398
4871.96236,0.34285
4870.03364,0.34120
4868.10491,0.34078
4866.17618,0.34086
4864.24746,0.33944
4862.31873,0.33747
4860.39001,0.33720
4858.46128,0.33797
4856.53255,0.33812
4854.60383,0.33762
4852.67510,0.33698
4850.74638,0.33649
4848.81765,0.33654
4846.88892,0.33704
4844.96020,0.33693
4843.03147,0.33573
4841.10274,0.33493
4839.17402,0.33497
4837.24529,0.33498
4835.31657,0.33541
4833.38784,0.33624
4831.45911,0.33698
4829.53039,0.33862
4827.60166,0.34049
4825.67293,0.34088
4823.74421,0.34094
4821.81548,0.34204
4819.88676,0.34389
4817.95803,0.34619
4816.02930,0.34850
4814.10058,0.35029
4812.17185,0.35124
4810.24313,0.35159
4808.31440,0.35227
4806.38567,0.35364
4804.45695,0.35497
4802.52822,0.35559
4800.59949,0.35639
4798.67077,0.35857
4796.74204,0.36164
4794.81332,0.36411
4792.88459,0.36504
4790.95586,0.36529
4789.02714,0.36632
4787.09841,0.36823
4785.16968,0.37043
4783.24096,0.37199
4781.31223,0.37232
4779.38351,0.37212
4777.45478,0.37202
4775.52605,0.37214
4773.59733,0.37239
4771.66860,0.37232
4769.73988,0.37276
4767.81115,0.37498
4765.88242,0.37762
4763.95370,0.37847
4762.02497,0.37724
4760.09624,0.37612
4758.16752,0.37731
4756.23879,0.37937
4754.31007,0.38031
4752.38134,0.38080
4750.45261,0.38124
4748.52389,0.38104
4746.59516,0.38053
4744.66643,0.38057
4742.73771,0.38167
4740.80898,0.38317
4738.88026,0.38362
4736.95153,0.38314
4735.02280,0.38272
4733.09408,0.38218
4731.16535,0.38149
4729.23663,0.38164
4727.30790,0.38242
4725.37917,0.38192
4723.45045,0.38032
4721.52172,0.37952
4719.59299,0.37897
4717.66427,0.37806
4715.73554,0.37838
4713.80682,0.37964
4711.87809,0.37961
4709.94936,0.37826
4708.02064,0.37733
4706.09191,0.37735
4704.16318,0.37758
4702.23446,0.37711
4700.30573,0.37586
4698.37701,0.37510
4696.44828,0.37608
4694.51955,0.37785
4692.59083,0.37836
4690.66210,0.37702
4688.73338,0.37442
4686.80465,0.37202
4684.87592,0.37066
4682.94720,0.36968
4681.01847,0.36924
4679.08974,0.36935
4677.16102,0.36863
4675.23229,0.36657
4673.30357,0.36456
4671.37484,0.36331
4669.44611,0.36181
4667.51739,0.36048
4665.58866,0.36014
4663.65993,0.35943
4661.73121,0.35795
4659.80248,0.35691
4657.87376,0.35631
4655.94503,0.35550
4654.01630,0.35472
4652.08758,0.35415
4650.15885,0.35353
4648.23013,0.35268
4646.30140,0.35150
4644.37267,0.35027
4642.44395,0.34979
4640.51522,0.34962
4638.58649,0.34849
4636.65777,0.34719
4634.72904,0.34715
4632.80032,0.34788
4630.87159,0.34816
4628.94286,0.34763
4627.01414,0.34702
4625.08541,0.34678
4623.15668,0.34664
4621.22796,0.34652
4619.29923,0.34629
4617.37051,0.34580
4615.44178,0.34569
4613.51305,0.34647
4611.58433,0.34720
4609.65560,0.34679
4607.72688,0.34581
4605.79815,0.34561
4603.86942,0.34653
4601.94070,0.34758
4600.01197,0.34781
4598.08324,0.34723
4596.15452,0.34660
4594.22579,0.34658
4592.29707,0.34679
4590.36834,0.34628
4588.43961,0.34490
4586.51089,0.34337
4584.58216,0.34236
4582.65343,0.34255
4580.72471,0.34407
4578.79598,0.34486
4576.86726,0.34327
4574.93853,0.34128
4573.00980,0.34078
4571.08108,0.34082
4569.15235,0.34038
4567.22363,0.33963
4565.29490,0.33931
4563.36617,0.33922
4561.43745,0.33793
4559.50872,0.33605
4557.57999,0.33541
4555.65127,0.33584
4553.72254,0.33650
4551.79382,0.33715
4549.86509,0.33733
4547.93636,0.33679
4546.00764,0.33619
4544.07891,0.33591
4542.15018,0.33561
4540.22146,0.33518
4538.29273,0.33477
4536.36401,0.33451
4534.43528,0.33440
4532.50655,0.33410
4530.57783,0.33319
4528.64910,0.33167
4526.72037,0.33039
4524.79165,0.33059
4522.86292,0.33176
4520.93420,0.33189
4519.00547,0.33073
4517.07674,0.32971
4515.14802,0.32921
4513.21929,0.32875
4511.29057,0.32850
4509.36184,0.32888
4507.43311,0.32899
4505.50439,0.32799
4503.57566,0.32709
4501.64693,0.32766
4499.71821,0.32860
4497.78948,0.32786
4495.86076,0.32575
4493.93203,0.32394
4492.00330,0.32267
4490.07458,0.32143
4488.14585,0.32009
4486.21712,0.31834
4484.28840,0.31633
4482.35967,0.31477
4480.43095,0.31389
4478.50222,0.31305
4476.57349,0.31166
4474.64477,0.30979
4472.71604,0.30750
4470.78732,0.30465
4468.85859,0.30161
4466.92986,0.29844
4465.00114,0.29483
4463.07241,0.29090
4461.14368,0.28672
4459.21496,0.28197
4457.28623,0.27702
4455.35751,0.27292
4453.42878,0.26934
4451.50005,0.26464
4449.57133,0.25846
4447.64260,0.25190
4445.71387,0.24553
4443.78515,0.23885
4441.85642,0.23202
4439.92770,0.22589
4437.99897,0.22012
4436.07024,0.21408
4434.14152,0.20805
4432.21279,0.20228
4430.28407,0.19652
4428.35534,0.19072
4426.42661,0.18533
4424.49789,0.18086
4422.56916,0.17710
4420.64043,0.17363
4418.71171,0.17028
4416.78298,0.16709
4414.85426,0.16485
4412.92553,0.16411
4410.99680,0.16414
4409.06808,0.16418
4407.13935,0.16466
4405.21062,0.16620
4403.28190,0.16858
4401.35317,0.17110
4399.42445,0.17331
4397.49572,0.17504
4395.56699,0.17615
4393.63827,0.17672
4391.70954,0.17686
4389.78082,0.17660
4387.85209,0.17620
4385.92336,0.17559
4383.99464,0.17410
4382.06591,0.17188
4380.13718,0.16960
4378.20846,0.16700
4376.27973,0.16411
4374.35101,0.16201
4372.42228,0.16062
4370.49355,0.15889
4368.56483,0.15643
4366.63610,0.15307
4364.70737,0.14874
4362.77865,0.14423
4360.84992,0.14059
4358.92120,0.13781
4356.99247,0.13553
4355.06374,0.13421
4353.13502,0.13333
4351.20629,0.13156
4349.27757,0.12900
4347.34884,0.12610
4345.42011,0.12296
4343.49139,0.12070
4341.56266,0.12023
4339.63393,0.12061
4337.70521,0.12050
4335.77648,0.12007
4333.84776,0.12010
4331.91903,0.12061
4329.99030,0.12126
4328.06158,0.12170
4326.13285,0.12171
4324.20412,0.12166
4322.27540,0.12191
4320.34667,0.12299
4318.41795,0.12511
4316.48922,0.12745
4314.56049,0.12990
4312.63177,0.13305
4310.70304,0.13627
4308.77432,0.13875
4306.84559,0.14105
4304.91686,0.14380
4302.98814,0.14679
4301.05941,0.14965
4299.13068,0.15225
4297.20196,0.15445
4295.27323,0.15602
4293.34451,0.15714
4291.41578,0.15871
4289.48705,0.16099
4287.55833,0.16307
4285.62960,0.16397
4283.70087,0.16369
4281.77215,0.16304
4279.84342,0.16264
4277.91470,0.16227
4275.98597,0.16183
4274.05724,0.16177
4272.12852,0.16239
4270.19979,0.16354
4268.27107,0.16460
4266.34234,0.16525
4264.41361,0.16608
4262.48489,0.16762
4260.55616,0.16945
4258.62743,0.17075
4256.69871,0.17136
4254.76998,0.17192
4252.84126,0.17296
4250.91253,0.17414
4248.98380,0.17493
4247.05508,0.17563
4245.12635,0.17661
4243.19762,0.17694
4241.26890,0.17601
4239.34017,0.17542
4237.41145,0.17662
4235.48272,0.17842
4233.55399,0.17929
4231.62527,0.17967
4229.69654,0.18026
4227.76782,0.18078
4225.83909,0.18144
4223.91036,0.18244
4221.98164,0.18334
4220.05291,0.18433
4218.12418,0.18597
4216.19546,0.18818
4214.26673,0.19053
4212.33801,0.19261
4210.40928,0.19440
4208.48055,0.19584
4206.55183,0.19681
4204.62310,0.19770
4202.69437,0.19900
4200.76565,0.20034
4198.83692,0.20121
4196.90820,0.20177
4194.97947,0.20188
4193.05074,0.20112
4191.12202,0.19986
4189.19329,0.19914
4187.26456,0.19927
4185.33584,0.19963
4183.40711,0.19959
4181.47839,0.19895
4179.54966,0.19809
4177.62093,0.19754
4175.69221,0.19732
4173.76348,0.19668
4171.83476,0.19539
4169.90603,0.19443
4167.97730,0.19418
4166.04858,0.19398
4164.11985,0.19347
4162.19112,0.19242
4160.26240,0.19062
4158.33367,0.18872
4156.40495,0.18763
4154.47622,0.18716
4152.54749,0.18683
4150.61877,0.18654
4148.69004,0.18631
4146.76131,0.18615
4144.83259,0.18558
4142.90386,0.18450
4140.97514,0.18368
4139.04641,0.18338
4137.11768,0.18334
4135.18896,0.18341
4133.26023,0.18332
4131.33151,0.18288
4129.40278,0.18225
4127.47405,0.18180
4125.54533,0.18191
4123.61660,0.18214
4121.68787,0.18176
4119.75915,0.18077
4117.83042,0.18002
4115.90170,0.17984
4113.97297,0.17922
4112.04424,0.17754
4110.11552,0.17547
4108.18679,0.17371
4106.25806,0.17270
4104.32934,0.17250
4102.40061,0.17240
4100.47189,0.17166
4098.54316,0.17024
4096.61443,0.16874
4094.68571,0.16734
4092.75698,0.16567
4090.82826,0.16377
4088.89953,0.16210
4086.97080,0.16089
4085.04208,0.15978
4083.11335,0.15810
4081.18462,0.15605
4079.25590,0.15466
4077.32717,0.15419
4075.39845,0.15385
4073.46972,0.15309
4071.54099,0.15209
4069.61227,0.15082
4067.68354,0.14896
4065.75481,0.14708
4063.82609,0.14619
4061.89736,0.14602
4059.96864,0.14553
4058.03991,0.14434
4056.11118,0.14288
4054.18246,0.14188
4052.25373,0.14162
4050.32501,0.14156
4048.39628,0.14123
4046.46755,0.14060
4044.53883,0.13996
4042.61010,0.13964
4040.68137,0.13966
4038.75265,0.13968
4036.82392,0.13930
4034.89520,0.13844
4032.96647,0.13771
4031.03774,0.13767
4029.10902,0.13813
4027.18029,0.13852
4025.25156,0.13851
4023.32284,0.13833
4021.39411,0.13829
4019.46539,0.13838
4017.53666,0.13852
4015.60793,0.13872
4013.67921,0.13913
4011.75048,0.14000
4009.82176,0.14102
4007.89303,0.14159
4005.96430,0.14171
4004.03558,0.14159
4002.10685,0.14145
4000.17812,0.14171
3998.24940,0.14227
3996.32067,0.14296
3994.39195,0.14355
3992.46322,0.14389
3990.53449,0.14419
3988.60577,0.14478
3986.67704,0.14568
3984.74831,0.14682
3982.81959,0.14822
3980.89086,0.14980
3978.96214,0.15146
3977.03341,0.15305
3975.10468,0.15440
3973.17596,0.15525
3971.24723,0.15576
3969.31851,0.15677
3967.38978,0.15862
3965.46105,0.16045
3963.53233,0.16154
3961.60360,0.16217
3959.67487,0.16277
3957.74615,0.16380
3955.81742,0.16584
3953.88870,0.16849
3951.95997,0.17070
3950.03124,0.17216
3948.10252,0.17354
3946.17379,0.17542
3944.24506,0.17773
3942.31634,0.18035
3940.38761,0.18281
3938.45889,0.18463
3936.53016,0.18615
3934.60143,0.18806
3932.67271,0.19085
3930.74398,0.19405
3928.81526,0.19649
3926.88653,0.19786
3924.95780,0.19889
3923.02908,0.20046
3921.10035,0.20235
3919.17162,0.20406
3917.24290,0.20564
3915.31417,0.20703
3913.38545,0.20781
3911.45672,0.20830
3909.52799,0.20934
3907.59927,0.21078
3905.67054,0.21192
3903.74181,0.21253
3901.81309,0.21278
3899.88436,0.21303
3897.95564,0.21377
3896.02691,0.21461
3894.09818,0.21505
3892.16946,0.21543
3890.24073,0.21624
3888.31201,0.21678
3886.38328,0.21712
3884.45455,0.21839
3882.52583,0.21922
3880.59710,0.21883
3878.66837,0.21875
3876.73965,0.21890
3874.81092,0.21923
3872.88220,0.21974
3870.95347,0.21933
3869.02474,0.21883
3867.09602,0.21861
3865.16729,0.21804
3863.23856,0.21826
3861.30984,0.21926
3859.38111,0.21984
3857.45239,0.21944
3855.52366,0.21830
3853.59493,0.21792
3851.66621,0.21916
3849.73748,0.21987
3847.80876,0.21955
3845.88003,0.21917
3843.95130,0.21962
3842.02258,0.22092
3840.09385,0.22187
3838.16512,0.22259
3836.23640,0.22411
3834.30767,0.22583
3832.37895,0.22718
3830.45022,0.22828
3828.52149,0.22874
3826.59277,0.22875
3824.66404,0.22875
3822.73531,0.22844
3820.80659,0.22907
3818.87786,0.23072
3816.94914,0.23125
3815.02041,0.23142
3813.09168,0.23153
3811.16296,0.23101
3809.23423,0.23016
3807.30550,0.22934
3805.37678,0.22903
3803.44805,0.22850
3801.51933,0.22859
3799.59060,0.22998
3797.66187,0.23023
3795.73315,0.22985
3793.80442,0.23037
3791.87570,0.23115
3789.94697,0.23162
3788.01824,0.23183
3786.08952,0.23234
3784.16079,0.23376
3782.23206,0.23539
3780.30334,0.23626
3778.37461,0.23709
3776.44589,0.23829
3774.51716,0.23947
3772.58843,0.24065
3770.65971,0.24240
3768.73098,0.24494
3766.80225,0.24695
3764.87353,0.24816
3762.94480,0.24912
3761.01608,0.24982
3759.08735,0.25118
3757.15862,0.25339
3755.22990,0.25493
3753.30117,0.25503
3751.37245,0.25526
3749.44372,0.25719
3747.51499,0.25851
3745.58627,0.25783
3743.65754,0.25881
3741.72881,0.26179
3739.80009,0.26356
3737.87136,0.26380
3735.94264,0.26380
3734.01391,0.26415
3732.08518,0.26441
3730.15646,0.26469
3728.22773,0.26468
3726.29900,0.26448
3724.37028,0.26461
3722.44155,0.26511
3720.51283,0.26612
3718.58410,0.26730
3716.65537,0.26821
3714.72665,0.26828
3712.79792,0.26750
3710.86920,0.26666
3708.94047,0.26561
3707.01174,0.26374
3705.08302,0.26086
3703.15429,0.25722
3701.22556,0.25387
3699.29684,0.25121
3697.36811,0.24795
3695.43939,0.24356
3693.51066,0.23818
3691.58193,0.23153
3689.65321,0.22396
3687.72448,0.21754
3685.79575,0.21313
3683.86703,0.20970
3681.93830,0.20692
3680.00958,0.20478
3678.08085,0.20239
3676.15212,0.19889
3674.22340,0.19537
3672.29467,0.19144
3670.36595,0.18606
3668.43722,0.18123
3666.50849,0.17782
3664.57977,0.17468
3662.65104,0.17137
3660.72231,0.16794
3658.79359,0.16426
3656.86486,0.16042
3654.93614,0.15706
3653.00741,0.15384
3651.07868,0.14987
3649.14996,0.14559
3647.22123,0.14189
3645.29250,0.13902
3643.36378,0.13641
3641.43505,0.13369
3639.50633,0.13098
3637.57760,0.12859
3635.64887,0.12678
3633.72015,0.12537
3631.79142,0.12353
3629.86270,0.12056
3627.93397,0.11729
3626.00524,0.11468
3624.07652,0.11243
3622.14779,0.11020
3620.21906,0.10790
3618.29034,0.10587
3616.36161,0.10425
3614.43289,0.10274
3612.50416,0.10138
3610.57543,0.09985
3608.64671,0.09765
3606.71798,0.09521
3604.78925,0.09312
3602.86053,0.09124
3600.93180,0.08955
3599.00308,0.08835
3597.07435,0.08741
3595.14562,0.08628
3593.21690,0.08516
3591.28817,0.08455
3589.35945,0.08423
3587.43072,0.08358
3585.50199,0.08257
3583.57327,0.08153
3581.64454,0.08060
3579.71581,0.07982
3577.78709,0.07903
3575.85836,0.07823
3573.92964,0.07795
3572.00091,0.07847
3570.07218,0.07908
3568.14346,0.07917
3566.21473,0.07895
3564.28600,0.07855
3562.35728,0.07764
3560.42855,0.07645
3558.49983,0.07555
3556.57110,0.07507
3554.64237,0.07481
3552.71365,0.07473
3550.78492,0.07470
3548.85620,0.07415
3546.92747,0.07298
3544.99874,0.07179
3543.07002,0.07077
3541.14129,0.06984
3539.21256,0.06907
3537.28384,0.06836
3535.35511,0.06744
3533.42639,0.06648
3531.49766,0.06567
3529.56893,0.06508
3527.64021,0.06490
3525.71148,0.06492
3523.78275,0.06461
3521.85403,0.06403
3519.92530,0.06342
3517.99658,0.06271
3516.06785,0.06200
3514.13912,0.06166
3512.21040,0.06169
3510.28167,0.06178
3508.35295,0.06169
3506.42422,0.06152
3504.49549,0.06170
3502.56677,0.06219
3500.63804,0.06244
3498.70931,0.06244
3496.78059,0.06250
3494.85186,0.06257
3492.92314,0.06248
3490.99441,0.06234
3489.06568,0.06244
3487.13696,0.06275
3485.20823,0.06287
3483.27950,0.06268
3481.35078,0.06237
3479.42205,0.06199
3477.49333,0.06167
3475.56460,0.06151
3473.63587,0.06126
3471.70715,0.06056
3469.77842,0.05942
3467.84970,0.05808
3465.92097,0.05671
3463.99224,0.05555
3462.06352,0.05474
3460.13479,0.05403
3458.20606,0.05329
3456.27734,0.05273
3454.34861,0.05254
3452.41989,0.05261
3450.49116,0.05259
3448.56243,0.05242
3446.63371,0.05235
3444.70498,0.05235
3442.77625,0.05231
3440.84753,0.05209
3438.91880,0.05152
3436.99008,0.05091
3435.06135,0.05058
3433.13262,0.05030
3431.20390,0.04978
3429.27517,0.04872
3427.34644,0.04704
3425.41772,0.04543
3423.48899,0.04420
3421.56027,0.04272
3419.63154,0.04103
3417.70281,0.03981
3415.77409,0.03911
3413.84536,0.03857
3411.91664,0.03794
3409.98791,0.03706
3408.05918,0.03588
3406.13046,0.03464
3404.20173,0.03351
3402.27300,0.03224
3400.34428,0.03088
3398.41555,0.02978
3396.48683,0.02883
3394.55810,0.02771
3392.62937,0.02667
3390.70065,0.02589
3388.77192,0.02512
3386.84319,0.02421
3384.91447,0.02338
3382.98574,0.02280
3381.05702,0.02237
3379.12829,0.02194
3377.19956,0.02143
3375.27084,0.02077
3373.34211,0.02014
3371.41339,0.01990
3369.48466,0.01990
3367.55593,0.01972
3365.62721,0.01936
3363.69848,0.01901
3361.76975,0.01861
3359.84103,0.01826
3357.91230,0.01822
3355.98358,0.01835
3354.05485,0.01823
3352.12612,0.01787
3350.19740,0.01759
3348.26867,0.01742
3346.33994,0.01720
3344.41122,0.01689
3342.48249,0.01629
3340.55377,0.01559
3338.62504,0.01555
3336.69631,0.01613
3334.76759,0.01652
3332.83886,0.01658
3330.91014,0.01671
3328.98141,0.01671
3327.05268,0.01630
3325.12396,0.01613
3323.19523,0.01640
3321.26650,0.01618
3319.33778,0.01533
3317.40905,0.01480
3315.48033,0.01492
3313.55160,0.01499
3311.62287,0.01452
3309.69415,0.01400
3307.76542,0.01408
3305.83669,0.01456
3303.90797,0.01497
3301.97924,0.01518
3300.05052,0.01509
3298.12179,0.01472
3296.19306,0.01445
3294.26434,0.01454
3292.33561,0.01482
3290.40689,0.01492
3288.47816,0.01466
3286.54943,0.01445
3284.62071,0.01461
3282.69198,0.01496
3280.76325,0.01506
3278.83453,0.01492
3276.90580,0.01497
3274.97708,0.01523
3273.04835,0.01538
3271.11962,0.01520
3269.19090,0.01496
3267.26217,0.01518
3265.33344,0.01570
3263.40472,0.01603
3261.47599,0.01620
3259.54727,0.01646
3257.61854,0.01685
3255.68981,0.01710
3253.76109,0.01694
3251.83236,0.01662
3249.90364,0.01664
3247.97491,0.01696
3246.04618,0.01737
3244.11746,0.01799
3242.18873,0.01872
3240.26000,0.01915
3238.33128,0.01924
3236.40255,0.01938
3234.47383,0.01960
3232.54510,0.01977
3230.61637,0.02013
3228.68765,0.02061
3226.75892,0.02061
3224.83019,0.02015
3222.90147,0.01992
3220.97274,0.02018
3219.04402,0.02052
3217.11529,0.02062
3215.18656,0.02064
3213.25784,0.02095
3211.32911,0.02156
3209.40039,0.02218
3207.47166,0.02269
3205.54293,0.02326
3203.61421,0.02371
3201.68548,0.02366
3199.75675,0.02338
3197.82803,0.02345
3195.89930,0.02405
3193.97058,0.02491
3192.04185,0.02543
3190.11312,0.02525
3188.18440,0.02480
3186.25567,0.02476
3184.32694,0.02517
3182.39822,0.02564
3180.46949,0.02608
3178.54077,0.02657
3176.61204,0.02704
3174.68331,0.02758
3172.75459,0.02832
3170.82586,0.02902
3168.89714,0.02937
3166.96841,0.02944
3165.03968,0.02956
3163.11096,0.02978
3161.18223,0.03009
3159.25350,0.03049
3157.32478,0.03069
3155.39605,0.03062
3153.46733,0.03071
3151.53860,0.03101
3149.60987,0.03135
3147.68115,0.03164
3145.75242,0.03170
3143.82369,0.03163
3141.89497,0.03166
3139.96624,0.03181
3138.03752,0.03194
3136.10879,0.03197
3134.18006,0.03207
3132.25134,0.03224
3130.32261,0.03233
3128.39389,0.03246
3126.46516,0.03269
3124.53643,0.03297
3122.60771,0.03327
3120.67898,0.03348
3118.75025,0.03351
3116.82153,0.03344
3114.89280,0.03340
3112.96408,0.03359
3111.03535,0.03400
3109.10662,0.03415
3107.17790,0.03399
3105.24917,0.03395
3103.32044,0.03398
3101.39172,0.03386
3099.46299,0.03368
3097.53427,0.03355
3095.60554,0.03349
3093.67681,0.03346
3091.74809,0.03332
3089.81936,0.03304
3087.89063,0.03273
3085.96191,0.03249
3084.03318,0.03234
3082.10446,0.03217
3080.17573,0.03186
3078.24700,0.03151
3076.31828,0.03132
3074.38955,0.03134
3072.46083,0.03157
3070.53210,0.03175
3068.60337,0.03182
3066.67465,0.03202
3064.74592,0.03213
3062.81719,0.03197
3060.88847,0.03201
3058.95974,0.03233
3057.03102,0.03251
3055.10229,0.03250
3053.17356,0.03234
3051.24484,0.03195
3049.31611,0.03155
3047.38738,0.03153
3045.45866,0.03183
3043.52993,0.03188
3041.60121,0.03163
3039.67248,0.03148
3037.74375,0.03135
3035.81503,0.03094
3033.88630,0.03058
3031.95758,0.03034
3030.02885,0.02994
3028.10012,0.02977
3026.17140,0.03003
3024.24267,0.03010
3022.31394,0.02976
3020.38522,0.02939
3018.45649,0.02909
3016.52777,0.02866
3014.59904,0.02808
3012.67031,0.02744
3010.74159,0.02665
3008.81286,0.02543
3006.88413,0.02387
3004.95541,0.02238
3003.02668,0.02121
3001.09796,0.02022
2999.16923,0.01913
2997.24050,0.01795
2995.31178,0.01689
2993.38305,0.01597
2991.45433,0.01518
2989.52560,0.01462
2987.59687,0.01429
2985.66815,0.01404
2983.73942,0.01370
2981.81069,0.01329
2979.88197,0.01294
2977.95324,0.01259
2976.02452,0.01232
2974.09579,0.01236
2972.16706,0.01261
2970.23834,0.01288
2968.30961,0.01305
2966.38088,0.01313
2964.45216,0.01337
2962.52343,0.01375
2960.59471,0.01407
2958.66598,0.01440
2956.73725,0.01462
2954.80853,0.01473
2952.87980,0.01507
2950.95108,0.01538
2949.02235,0.01531
2947.09362,0.01507
2945.16490,0.01475
2943.23617,0.01416
2941.30744,0.01357
2939.37872,0.01347
2937.44999,0.01354
2935.52127,0.01322
2933.59254,0.01281
2931.66381,0.01276
2929.73509,0.01303
2927.80636,0.01341
2925.87763,0.01378
2923.94891,0.01392
2922.02018,0.01378
2920.09146,0.01360
2918.16273,0.01330
2916.23400,0.01280
2914.30528,0.01252
2912.37655,0.01279
2910.44783,0.01327
2908.51910,0.01355
2906.59037,0.01366
2904.66165,0.01371
2902.73292,0.01353
2900.80419,0.01299
2898.87547,0.01246
2896.94674,0.01234
2895.01802,0.01262
2893.08929,0.01297
2891.16056,0.01329
2889.23184,0.01361
2887.30311,0.01376
2885.37438,0.01367
2883.44566,0.01359
2881.51693,0.01351
2879.58821,0.01335
2877.65948,0.01345
2875.73075,0.01387
2873.80203,0.01417
2871.87330,0.01420
2869.94458,0.01423
2868.01585,0.01426
2866.08712,0.01421
2864.15840,0.01426
2862.22967,0.01473
2860.30094,0.01548
2858.37222,0.01586
2856.44349,0.01575
2854.51477,0.01566
2852.58604,0.01583
2850.65731,0.01607
2848.72859,0.01644
2846.79986,0.01730
2844.87113,0.01821
2842.94241,0.01844
2841.01368,0.01841
2839.08496,0.01900
2837.15623,0.02005
2835.22750,0.02097
2833.29878,0.02174
2831.37005,0.02252
2829.44133,0.02323
2827.51260,0.02387
2825.58387,0.02465
2823.65515,0.02544
2821.72642,0.02605
2819.79769,0.02640
2817.86897,0.02657
2815.94024,0.02676
2814.01152,0.02705
2812.08279,0.02735
2810.15406,0.02770
2808.22534,0.02805
2806.29661,0.02818
2804.36788,0.02827
2802.43916,0.02866
2800.51043,0.02912
2798.58171,0.02938
2796.65298,0.02952
2794.72425,0.02960
2792.79553,0.02964
2790.86680,0.02979
2788.93808,0.03009
2787.00935,0.03051
2785.08062,0.03098
2783.15190,0.03159
2781.22317,0.03240
2779.29444,0.03302
2777.36572,0.03329
2775.43699,0.03357
2773.50827,0.03411
2771.57954,0.03471
2769.65081,0.03508
2767.72209,0.03539
2765.79336,0.03584
2763.86463,0.03641
2761.93591,0.03702
2760.00718,0.03749
2758.07846,0.03800
2756.14973,0.03875
2754.22100,0.03954
2752.29228,0.04015
2750.36355,0.04052
2748.43483,0.04078
2746.50610,0.04117
2744.57737,0.04181
2742.64865,0.04251
2740.71992,0.04312
2738.79119,0.04376
2736.86247,0.04443
2734.93374,0.04490
2733.00502,0.04530
2731.07629,0.04601
2729.14756,0.04697
2727.21884,0.04800
2725.29011,0.04917
2723.36138,0.05052
2721.43266,0.05193
2719.50393,0.05319
2717.57521,0.05431
2715.64648,0.05553
2713.71775,0.05689
2711.78903,0.05806
2709.86030,0.05906
2707.93157,0.06012
2706.00285,0.06125
2704.07412,0.06231
2702.14540,0.06332
2700.21667,0.06431
2698.28794,0.06539
2696.35922,0.06661
2694.43049,0.06769
2692.50177,0.06868
2690.57304,0.06989
2688.64431,0.07105
2686.71559,0.07189
2684.78686,0.07264
2682.85813,0.07323
2680.92941,0.07351
2679.00068,0.07385
2677.07196,0.07436
2675.14323,0.07476
2673.21450,0.07510
2671.28578,0.07544
2669.35705,0.07585
2667.42832,0.07657
2665.49960,0.07749
2663.57087,0.07841
2661.64215,0.07936
2659.71342,0.08036
2657.78469,0.08130
2655.85597,0.08207
2653.92724,0.08283
2651.99852,0.08374
2650.06979,0.08455
2648.14106,0.08494
2646.21234,0.08522
2644.28361,0.08587
2642.35488,0.08671
2640.42616,0.08737
2638.49743,0.08801
2636.56871,0.08902
2634.63998,0.09035
2632.71125,0.09183
2630.78253,0.09343
2628.85380,0.09506
2626.92507,0.09655
2624.99635,0.09783
2623.06762,0.09899
2621.13890,0.10012
2619.21017,0.10114
2617.28144,0.10203
2615.35272,0.10270
2613.42399,0.10298
2611.49527,0.10286
2609.56654,0.10262
2607.63781,0.10251
2605.70909,0.10239
2603.78036,0.10215
2601.85163,0.10193
2599.92291,0.10175
2597.99418,0.10164
2596.06546,0.10168
2594.13673,0.10186
2592.20800,0.10202
2590.27928,0.10216
2588.35055,0.10258
2586.42182,0.10339
2584.49310,0.10445
2582.56437,0.10577
2580.63565,0.10738
2578.70692,0.10930
2576.77819,0.11162
2574.84947,0.11441
2572.92074,0.11751
2570.99202,0.12063
2569.06329,0.12370
2567.13456,0.12674
2565.20584,0.12956
2563.27711,0.13202
2561.34838,0.13416
2559.41966,0.13599
2557.49093,0.13762
2555.56221,0.13902
2553.63348,0.14009
2551.70475,0.14107
2549.77603,0.14226
2547.84730,0.14360
2545.91857,0.14472
2543.98985,0.14558
2542.06112,0.14635
2540.13240,0.14699
2538.20367,0.14745
2536.27494,0.14788
2534.34622,0.14845
2532.41749,0.14924
2530.48877,0.15011
2528.56004,0.15085
2526.63131,0.15141
2524.70259,0.15207
2522.77386,0.15291
2520.84513,0.15347
2518.91641,0.15362
2516.98768,0.15377
2515.05896,0.15396
2513.13023,0.15400
2511.20150,0.15402
2509.27278,0.15423
2507.34405,0.15437
2505.41532,0.15411
2503.48660,0.15364
2501.55787,0.15323
2499.62915,0.15294
2497.70042,0.15281
2495.77169,0.15282
2493.84297,0.15300
2491.91424,0.15332
2489.98552,0.15350
2488.05679,0.15344
2486.12806,0.15338
2484.19934,0.15334
2482.27061,0.15311
2480.34188,0.15290
2478.41316,0.15300
2476.48443,0.15317
2474.55571,0.15316
2472.62698,0.15311
2470.69825,0.15316
2468.76953,0.15351
2466.84080,0.15418
2464.91207,0.15478
2462.98335,0.15520
2461.05462,0.15565
2459.12590,0.15608
2457.19717,0.15649
2455.26844,0.15700
2453.33972,0.15768
2451.41099,0.15851
2449.48227,0.15938
2447.55354,0.16026
2445.62481,0.16127
2443.69609,0.16242
2441.76736,0.16350
2439.83863,0.16448
2437.90991,0.16553
2435.98118,0.16658
2434.05246,0.16758
2432.12373,0.16854
2430.19500,0.16924
2428.26628,0.16966
2426.33755,0.17008
2424.40882,0.17042
2422.48010,0.17046
2420.55137,0.17039
2418.62265,0.17041
2416.69392,0.17038
2414.76519,0.17018
2412.83647,0.16993
2410.90774,0.16965
2408.97902,0.16932
2407.05029,0.16886
2405.12156,0.16813
2403.19284,0.16734
2401.26411,0.16686
2399.33538,0.16643
2397.40666,0.16575
2395.47793,0.16495
2393.54921,0.16422
2391.62048,0.16346
2389.69175,0.16276
2387.76303,0.16233
2385.83430,0.16207
2383.90557,0.16158
2381.97685,0.16077
2380.04812,0.15999
2378.11940,0.15934
2376.19067,0.15844
2374.26194,0.15749
2372.33322,0.15718
2370.40449,0.15748
2368.47576,0.15797
2366.54704,0.15867
2364.61831,0.15970
2362.68959,0.16090
2360.76086,0.16087
2358.83213,0.15777
2356.90341,0.15281
2354.97468,0.15038
2353.04596,0.15338
2351.11723,0.15929
2349.18850,0.16249
2347.25978,0.16024
2345.33105,0.15561
2343.40232,0.15318
2341.47360,0.15372
2339.54487,0.15448
2337.61615,0.15370
2335.68742,0.15203
2333.75869,0.15060
2331.82997,0.14950
2329.90124,0.14840
2327.97251,0.14719
2326.04379,0.14579
2324.11506,0.14400
2322.18634,0.14179
2320.25761,0.13959
2318.32888,0.13750
2316.40016,0.13510
2314.47143,0.13231
2312.54271,0.12944
2310.61398,0.12660
2308.68525,0.12366
2306.75653,0.12050
2304.82780,0.11717
2302.89907,0.11387
2300.97035,0.11069
2299.04162,0.10743
2297.11290,0.10367
2295.18417,0.09941
2293.25544,0.09516
2291.32672,0.09120
2289.39799,0.08719
2287.46926,0.08300
2285.54054,0.07907
2283.61181,0.07571
2281.68309,0.07281
2279.75436,0.07021
2277.82563,0.06806
2275.89691,0.06660
2273.96818,0.06603
2272.03946,0.06650
2270.11073,0.06783
2268.18200,0.06979
2266.25328,0.07244
2264.32455,0.07577
2262.39582,0.07946
2260.46710,0.08314
2258.53837,0.08681
2256.60965,0.09051
2254.68092,0.09412
2252.75219,0.09732
2250.82347,0.10003
2248.89474,0.10244
2246.96601,0.10455
2245.03729,0.10631
2243.10856,0.10787
2241.17984,0.10932
2239.25111,0.11054
2237.32238,0.11146
2235.39366,0.11241
2233.46493,0.11365
2231.53621,0.11479
2229.60748,0.11547
2227.67875,0.11601
2225.75003,0.11666
2223.82130,0.11732
2221.89257,0.11793
2219.96385,0.11853
2218.03512,0.11900
2216.10640,0.11925
2214.17767,0.11955
2212.24894,0.12012
2210.32022,0.12084
2208.39149,0.12151
2206.46276,0.12194
2204.53404,0.12223
2202.60531,0.12252
2200.67659,0.12296
2198.74786,0.12358
2196.81913,0.12409
2194.89041,0.12431
2192.96168,0.12446
2191.03296,0.12469
2189.10423,0.12493
2187.17550,0.12515
2185.24678,0.12547
2183.31805,0.12590
2181.38932,0.12617
2179.46060,0.12617
2177.53187,0.12618
2175.60315,0.12644
2173.67442,0.12669
2171.74569,0.12671
2169.81697,0.12668
2167.88824,0.12667
2165.95951,0.12670
2164.03079,0.12690
2162.10206,0.12727
2160.17334,0.12773
2158.24461,0.12815
2156.31588,0.12856
2154.38716,0.12892
2152.45843,0.12925
2150.52971,0.12969
2148.60098,0.13014
2146.67225,0.13055
2144.74353,0.13088
2142.81480,0.13114
2140.88607,0.13152
2138.95735,0.13195
2137.02862,0.13221
2135.09990,0.13234
2133.17117,0.13242
2131.24244,0.13255
2129.31372,0.13283
2127.38499,0.13305
2125.45626,0.13309
2123.52754,0.13326
2121.59881,0.13363
2119.67009,0.13384
2117.74136,0.13386
2115.81263,0.13389
2113.88391,0.13391
2111.95518,0.13392
2110.02646,0.13391
2108.09773,0.13381
2106.16900,0.13361
2104.24028,0.13331
2102.31155,0.13294
2100.38282,0.13246
2098.45410,0.13183
2096.52537,0.13118
2094.59665,0.13067
2092.66792,0.13022
2090.73919,0.12978
2088.81047,0.12940
2086.88174,0.12902
2084.95301,0.12853
2083.02429,0.12789
2081.09556,0.12723
2079.16684,0.12675
2077.23811,0.12639
2075.30938,0.12598
2073.38066,0.12553
2071.45193,0.12517
2069.52321,0.12485
2067.59448,0.12451
2065.66575,0.12410
2063.73703,0.12368
2061.80830,0.12329
2059.87957,0.12284
2057.95085,0.12231
2056.02212,0.12172
2054.09340,0.12101
2052.16467,0.12027
2050.23594,0.11968
2048.30722,0.11912
2046.37849,0.11836
2044.44976,0.11738
2042.52104,0.11639
2040.59231,0.11550
2038.66359,0.11457
2036.73486,0.11343
2034.80613,0.11217
2032.87741,0.11103
2030.94868,0.11014
2029.01996,0.10943
2027.09123,0.10871
2025.16250,0.10796
2023.23378,0.10739
2021.30505,0.10705
2019.37632,0.10685
2017.44760,0.10679
2015.51887,0.10679
2013.59015,0.10666
2011.66142,0.10650
2009.73269,0.10657
2007.80397,0.10681
2005.87524,0.10695
2003.94651,0.10702
2002.01779,0.10732
2000.08906,0.10783
1998.16034,0.10828
1996.23161,0.10868
1994.30288,0.10909
1992.37416,0.10954
1990.44543,0.11009
1988.51670,0.11046
1986.58798,0.11048
1984.65925,0.11052
1982.73053,0.11076
1980.80180,0.11093
1978.87307,0.11089
1976.94435,0.11090
1975.01562,0.11118
1973.08690,0.11152
1971.15817,0.11170
1969.22944,0.11174
1967.30072,0.11176
1965.37199,0.11177
1963.44326,0.11175
1961.51454,0.11170
1959.58581,0.11171
1957.65709,0.11183
1955.72836,0.11203
1953.79963,0.11225
1951.87091,0.11251
1949.94218,0.11274
1948.01345,0.11284
1946.08473,0.11302
1944.15600,0.11330
1942.22728,0.11330
1940.29855,0.11291
1938.36982,0.11254
1936.44110,0.11246
1934.51237,0.11235
1932.58365,0.11194
1930.65492,0.11145
1928.72619,0.11114
1926.79747,0.11110
1924.86874,0.11130
1922.94001,0.11158
1921.01129,0.11188
1919.08256,0.11208
1917.15384,0.11215
1915.22511,0.11210
1913.29638,0.11219
1911.36766,0.11267
1909.43893,0.11316
1907.51020,0.11335
1905.58148,0.11347
1903.65275,0.11370
1901.72403,0.11393
1899.79530,0.11412
1897.86657,0.11434
1895.93785,0.11455
1894.00912,0.11482
1892.08040,0.11511
1890.15167,0.11519
1888.22294,0.11511
1886.29422,0.11503
1884.36549,0.11503
1882.43676,0.11513
1880.50804,0.11528
1878.57931,0.11549
1876.65059,0.11567
1874.72186,0.11587
1872.79313,0.11638
1870.86441,0.11731
1868.93568,0.11824
1867.00695,0.11847
1865.07823,0.11790
1863.14950,0.11715
1861.22078,0.11660
1859.29205,0.11614
1857.36332,0.11569
1855.43460,0.11527
1853.50587,0.11485
1851.57715,0.11440
1849.64842,0.11411
1847.71969,0.11418
1845.79097,0.11419
1843.86224,0.11357
1841.93351,0.11243
1840.00479,0.11119
1838.07606,0.11007
1836.14734,0.10916
1834.21861,0.10855
1832.28988,0.10820
1830.36116,0.10769
1828.43243,0.10663
1826.50370,0.10496
1824.57498,0.10299
1822.64625,0.10113
1820.71753,0.09949
1818.78880,0.09799
1816.86007,0.09666
1814.93135,0.09550
1813.00262,0.09433
1811.07390,0.09293
1809.14517,0.09116
1807.21644,0.08923
1805.28772,0.08757
1803.35899,0.08634
1801.43026,0.08511
1799.50154,0.08353
1797.57281,0.08190
1795.64409,0.08062
1793.71536,0.07944
1791.78663,0.07765
1789.85791,0.07523
1787.92918,0.07283
1786.00045,0.07073
1784.07173,0.06889
1782.14300,0.06722
1780.21428,0.06563
1778.28555,0.06414
1776.35682,0.06296
1774.42810,0.06195
1772.49937,0.06037
1770.57065,0.05784
1768.64192,0.05492
1766.71319,0.05226
1764.78447,0.04984
1762.85574,0.04691
1760.92701,0.04324
1758.99829,0.03937
1757.06956,0.03529
1755.14084,0.03121
1753.21211,0.02764
1751.28338,0.02447
1749.35466,0.02136
1747.42593,0.01854
1745.49720,0.01642
1743.56848,0.01511
1741.63975,0.01449
1739.71103,0.01418
1737.78230,0.01385
1735.85357,0.01352
1733.92485,0.01328
1731.99612,0.01298
1730.06740,0.01251
1728.13867,0.01217
1726.20994,0.01228
1724.28122,0.01275
1722.35249,0.01328
1720.42376,0.01377
1718.49504,0.01434
1716.56631,0.01455
1714.63759,0.01412
1712.70886,0.01374
1710.78013,0.01376
1708.85141,0.01394
1706.92268,0.01395
1704.99395,0.01377
1703.06523,0.01371
1701.13650,0.01407
1699.20778,0.01454
1697.27905,0.01443
1695.35032,0.01395
1693.42160,0.01378
1691.49287,0.01398
1689.56415,0.01429
1687.63542,0.01461
1685.70669,0.01486
1683.77797,0.01472
1681.84924,0.01418
1679.92051,0.01378
1677.99179,0.01357
1676.06306,0.01337
1674.13434,0.01330
1672.20561,0.01341
1670.27688,0.01348
1668.34816,0.01333
1666.41943,0.01306
1664.49070,0.01279
1662.56198,0.01258
1660.63325,0.01246
1658.70453,0.01234
1656.77580,0.01217
1654.84707,0.01204
1652.91835,0.01216
1650.98962,0.01256
1649.06090,0.01291
1647.13217,0.01284
1645.20344,0.01235
1643.27472,0.01202
1641.34599,0.01210
1639.41726,0.01262
1637.48854,0.01353
1635.55981,0.01423
1633.63109,0.01401
1631.70236,0.01356
1629.77363,0.01347
1627.84491,0.01358
1625.91618,0.01361
1623.98745,0.01359
1622.05873,0.01356
1620.13000,0.01351
1618.20128,0.01329
1616.27255,0.01271
1614.34382,0.01206
1612.41510,0.01190
1610.48637,0.01223
1608.55764,0.01253
1606.62892,0.01236
1604.70019,0.01201
1602.77147,0.01188
1600.84274,0.01203
1598.91401,0.01219
1596.98529,0.01218
1595.05656,0.01230
1593.12784,0.01269
1591.19911,0.01307
1589.27038,0.01314
1587.34166,0.01299
1585.41293,0.01287
1583.48420,0.01287
1581.55548,0.01287
1579.62675,0.01282
1577.69803,0.01277
1575.76930,0.01274
1573.84057,0.01258
1571.91185,0.01214
1569.98312,0.01156
1568.05439,0.01128
1566.12567,0.01135
1564.19694,0.01165
1562.26822,0.01241
1560.33949,0.01352
1558.41076,0.01376
1556.48204,0.01258
1554.55331,0.01161
1552.62459,0.01141
1550.69586,0.01145
1548.76713,0.01137
1546.83841,0.01132
1544.90968,0.01176
1542.98095,0.01305
1541.05223,0.01437
1539.12350,0.01412
1537.19478,0.01314
1535.26605,0.01267
1533.33732,0.01264
1531.40860,0.01275
1529.47987,0.01300
1527.55114,0.01330
1525.62242,0.01326
1523.69369,0.01281
1521.76497,0.01257
1519.83624,0.01279
1517.90751,0.01291
1515.97879,0.01280
1514.05006,0.01281
1512.12134,0.01300
1510.19261,0.01347
1508.26388,0.01437
1506.33516,0.01509
1504.40643,0.01484
1502.47770,0.01435
1500.54898,0.01418
1498.62025,0.01422
1496.69153,0.01413
1494.76280,0.01384
1492.83407,0.01360
1490.90535,0.01364
1488.97662,0.01398
1487.04789,0.01418
1485.11917,0.01405
1483.19044,0.01379
1481.26172,0.01350
1479.33299,0.01314
1477.40426,0.01285
1475.47554,0.01292
1473.54681,0.01335
1471.61809,0.01355
1469.68936,0.01335
1467.76063,0.01323
1465.83191,0.01330
1463.90318,0.01331
1461.97445,0.01313
1460.04573,0.01284
1458.11700,0.01249
1456.18828,0.01217
1454.25955,0.01208
1452.33082,0.01228
1450.40210,0.01270
1448.47337,0.01322
1446.54464,0.01367
1444.61592,0.01391
1442.68719,0.01400
1440.75847,0.01428
1438.82974,0.01482
1436.90101,0.01528
1434.97229,0.01547
1433.04356,0.01555
1431.11484,0.01569
1429.18611,0.01579
1427.25738,0.01567
1425.32866,0.01539
1423.39993,0.01510
1421.47120,0.01489
1419.54248,0.01474
1417.61375,0.01455
1415.68503,0.01415
1413.75630,0.01360
1411.82757,0.01319
1409.89885,0.01313
1407.97012,0.01326
1406.04139,0.01335
1404.11267,0.01347
1402.18394,0.01373
1400.25522,0.01408
1398.32649,0.01437
1396.39776,0.01439
1394.46904,0.01412
1392.54031,0.01383
1390.61159,0.01366
1388.68286,0.01342
1386.75413,0.01307
1384.82541,0.01277
1382.89668,0.01258
1380.96795,0.01244
1379.03923,0.01233
1377.11050,0.01228
1375.18178,0.01230
1373.25305,0.01241
1371.32432,0.01268
1369.39560,0.01316
1367.46687,0.01386
1365.53814,0.01463
1363.60942,0.01535
1361.68069,0.01585
1359.75197,0.01594
1357.82324,0.01568
1355.89451,0.01537
1353.96579,0.01509
1352.03706,0.01478
1350.10834,0.01449
1348.17961,0.01435
1346.25088,0.01428
1344.32216,0.01425
1342.39343,0.01433
1340.46470,0.01451
1338.53598,0.01448
1336.60725,0.01425
1334.67853,0.01411
1332.74980,0.01399
1330.82107,0.01375
1328.89235,0.01343
1326.96362,0.01308
1325.03489,0.01272
1323.10617,0.01257
1321.17744,0.01278
1319.24872,0.01300
1317.31999,0.01277
1315.39126,0.01218
1313.46254,0.01174
1311.53381,0.01181
1309.60509,0.01222
1307.67636,0.01247
1305.74763,0.01226
1303.81891,0.01194
1301.89018,0.01194
1299.96145,0.01215
1298.03273,0.01237
1296.10400,0.01268
1294.17528,0.01290
1292.24655,0.01269
1290.31782,0.01243
1288.38910,0.01259
1286.46037,0.01278
1284.53164,0.01261
1282.60292,0.01246
1280.67419,0.01261
1278.74547,0.01278
1276.81674,0.01278
1274.88801,0.01267
1272.95929,0.01249
1271.03056,0.01220
1269.10183,0.01198
1267.17311,0.01197
1265.24438,0.01198
1263.31566,0.01171
1261.38693,0.01132
1259.45820,0.01098
1257.52948,0.01056
1255.60075,0.01029
1253.67203,0.01049
1251.74330,0.01087
1249.81457,0.01102
1247.88585,0.01090
1245.95712,0.01054
1244.02839,0.01016
1242.09967,0.01015
1240.17094,0.01046
1238.24222,0.01066
1236.31349,0.01067
1234.38476,0.01080
1232.45604,0.01101
1230.52731,0.01103
1228.59858,0.01105
1226.66986,0.01134
1224.74113,0.01163
1222.81241,0.01174
1220.88368,0.01200
1218.95495,0.01243
1217.02623,0.01259
1215.09750,0.01235
1213.16878,0.01212
1211.24005,0.01219
1209.31132,0.01220
1207.38260,0.01184
1205.45387,0.01150
1203.52514,0.01158
1201.59642,0.01204
1199.66769,0.01249
1197.73897,0.01235
1195.81024,0.01181
1193.88151,0.01161
1191.95279,0.01182
1190.02406,0.01206
1188.09533,0.01192
1186.16661,0.01134
1184.23788,0.01086
1182.30916,0.01091
1180.38043,0.01129
1178.45170,0.01139
1176.52298,0.01085
1174.59425,0.01014
1172.66553,0.00975
1170.73680,0.00941
1168.80807,0.00911
1166.87935,0.00936
1164.95062,0.00993
1163.02189,0.01013
1161.09317,0.00986
1159.16444,0.00950
1157.23572,0.00935
1155.30699,0.00936
1153.37826,0.00934
1151.44954,0.00927
1149.52081,0.00908
1147.59208,0.00896
1145.66336,0.00935
1143.73463,0.00982
1141.80591,0.00969
1139.87718,0.00962
1137.94845,0.01022
1136.01973,0.01055
1134.09100,0.01025
1132.16228,0.01024
1130.23355,0.01066
1128.30482,0.01076
1126.37610,0.01036
1124.44737,0.01000
1122.51864,0.00996
1120.58992,0.01017
1118.66119,0.01037
1116.73247,0.01047
1114.80374,0.01094
1112.87501,0.01177
1110.94629,0.01238
1109.01756,0.01283
1107.08883,0.01357
1105.16011,0.01448
1103.23138,0.01512
1101.30266,0.01529
1099.37393,0.01508
1097.44520,0.01484
1095.51648,0.01467
1093.58775,0.01461
1091.65903,0.01483
1089.73030,0.01506
1087.80157,0.01504
1085.87285,0.01493
1083.94412,0.01499
1082.01539,0.01530
1080.08667,0.01548
1078.15794,0.01545
1076.22922,0.01566
1074.30049,0.01636
1072.37176,0.01691
1070.44304,0.01652
1068.51431,0.01558
1066.58558,0.01544
1064.65686,0.01645
1062.72813,0.01751
1060.79941,0.01782
1058.87068,0.01758
1056.94195,0.01711
1055.01323,0.01665
1053.08450,0.01658
1051.15578,0.01692
1049.22705,0.01737
1047.29832,0.01768
1045.36960,0.01768
1043.44087,0.01759
1041.51214,0.01786
1039.58342,0.01837
1037.65469,0.01876
1035.72597,0.01894
1033.79724,0.01889
1031.86851,0.01862
1029.93979,0.01839
1028.01106,0.01847
1026.08233,0.01876
1024.15361,0.01895
1022.22488,0.01887
1020.29616,0.01864
1018.36743,0.01820
1016.43870,0.01752
1014.50998,0.01711
1012.58125,0.01717
1010.65253,0.01738
1008.72380,0.01742
1006.79507,0.01737
1004.86635,0.01796
1002.93762,0.01909
1001.00889,0.01960
999.08017,0.01967
997.15144,0.02017
995.22272,0.02053
993.29399,0.02061
991.36526,0.02164
989.43654,0.02355
987.50781,0.02471
985.57908,0.02485
983.65036,0.02498
981.72163,0.02551
979.79291,0.02630
977.86418,0.02673
975.93545,0.02643
974.00673,0.02577
972.07800,0.02522
970.14928,0.02521
968.22055,0.02558
966.29182,0.02571
964.36310,0.02559
962.43437,0.02548
960.50564,0.02565
958.57692,0.02646
956.64819,0.02723
954.71947,0.02731
952.79074,0.02747
950.86201,0.02766
948.93329,0.02683
947.00456,0.02533
945.07583,0.02406
943.14711,0.02284
941.21838,0.02157
939.28966,0.02078
937.36093,0.02037
935.43220,0.02012
933.50348,0.02005
931.57475,0.01963
929.64603,0.01906
927.71730,0.01915
925.78857,0.01964
923.85985,0.02014
921.93112,0.02082
920.00239,0.02144
918.07367,0.02179
916.14494,0.02190
914.21622,0.02140
912.28749,0.02065
910.35876,0.02089
908.43004,0.02218
906.50131,0.02346
904.57258,0.02432
902.64386,0.02495
900.71513,0.02563
898.78641,0.02621
896.85768,0.02636
894.92895,0.02663
893.00023,0.02699
891.07150,0.02669
889.14277,0.02593
887.21405,0.02542
885.28532,0.02526
883.35660,0.02502
881.42787,0.02462
879.49914,0.02435
877.57042,0.02395
875.64169,0.02342
873.71297,0.02306
871.78424,0.02257
869.85551,0.02221
867.92679,0.02260
865.99806,0.02343
864.06933,0.02413
862.14061,0.02503
860.21188,0.02619
858.28316,0.02659
856.35443,0.02600
854.42570,0.02542
852.49698,0.02536
850.56825,0.02553
848.63952,0.02579
846.71080,0.02594
844.78207,0.02603
842.85335,0.02631
840.92462,0.02641
838.99589,0.02587
837.06717,0.02475
835.13844,0.02348
833.20972,0.02273
831.28099,0.02296
829.35226,0.02310
827.42354,0.02193
825.49481,0.02050
823.56608,0.01995
821.63736,0.01992
819.70863,0.01990
817.77991,0.01973
815.85118,0.01964
813.92245,0.02017
811.99373,0.02141
810.06500,0.02256
808.13627,0.02287
806.20755,0.02272
804.27882,0.02288
802.35010,0.02349
800.42137,0.02401
798.49264,0.02400
796.56392,0.02406
794.63519,0.02512
792.70647,0.02692
790.77774,0.02830
788.84901,0.02835
786.92029,0.02780
784.99156,0.02784
783.06283,0.02747
781.13411,0.02590
779.20538,0.02450
777.27666,0.02420
775.34793,0.02484
773.41920,0.02566
771.49048,0.02538
769.56175,0.02418
767.63302,0.02331
765.70430,0.02292
763.77557,0.02321
761.84685,0.02448
759.91812,0.02569
757.98939,0.02610
756.06067,0.02607
754.13194,0.02578
752.20322,0.02547
750.27449,0.02582
748.34576,0.02708
746.41704,0.02863
744.48831,0.02971
742.55958,0.03066
740.63086,0.03177
738.70213,0.03176
736.77341,0.03028
734.84468,0.02919
732.91595,0.02916
730.98723,0.02913
729.05850,0.02891
727.12977,0.02905
725.20105,0.02876
723.27232,0.02755
721.34360,0.02626
719.41487,0.02546
717.48614,0.02483
715.55742,0.02421
713.62869,0.02389
711.69997,0.02399
709.77124,0.02446
707.84251,0.02499
705.91379,0.02491
703.98506,0.02402
702.05633,0.02292
700.12761,0.02213
698.19888,0.02197
696.27016,0.02247
694.34143,0.02293
692.41270,0.02282
690.48398,0.02246
688.55525,0.02176
686.62652,0.02039
684.69780,0.01909
682.76907,0.01887
680.84035,0.01943
678.91162,0.01964
676.98289,0.01927
675.05417,0.01935
673.12544,0.02048
671.19672,0.02179
669.26799,0.02195
667.33926,0.02128
665.41054,0.02100
663.48181,0.02107
661.55308,0.02141
659.62436,0.02221
657.69563,0.02243
655.76691,0.02114
653.83818,0.01990
651.90945,0.02043
649.98073,0.02221
648.05200,0.02342
646.12327,0.02332
644.19455,0.02302
642.26582,0.02329
640.33710,0.02365
638.40837,0.02371
636.47964,0.02345
634.55092,0.02309
632.62219,0.02337
630.69347,0.02442
628.76474,0.02518
626.83601,0.02526
624.90729,0.02574
622.97856,0.02643
621.04983,0.02665
619.12111,0.02618
617.19238,0.02500
615.26366,0.02398
613.33493,0.02378
611.40620,0.02385
609.47748,0.02399
607.54875,0.02480
605.62002,0.02614
603.69130,0.02674
601.76257,0.02607
599.83385,0.02465
597.90512,0.02324
595.97639,0.02246
594.04767,0.02212
592.11894,0.02205
590.19022,0.02259
588.26149,0.02330
586.33276,0.02382
584.40404,0.02453
582.47531,0.02573
580.54658,0.02699
578.61786,0.02648
576.68913,0.02381
574.76041,0.02215
572.83168,0.02332
570.90295,0.02568
568.97423,0.02753
567.04550,0.02849
565.11677,0.02848
563.18805,0.02721
561.25932,0.02498
559.33060,0.02365
557.40187,0.02447
555.47314,0.02612
553.54442,0.02615
551.61569,0.02429
549.68697,0.02319
547.75824,0.02369
545.82951,0.02376
543.90079,0.02310
541.97206,0.02276
540.04333,0.02312
538.11461,0.02446
536.18588,0.02579
534.25716,0.02607
532.32843,0.02612
530.39970,0.02609
528.47098,0.02507
526.54225,0.02314
524.61352,0.02241
522.68480,0.02484
520.75607,0.02845
518.82735,0.02926
516.89862,0.02749
514.96989,0.02608
513.04117,0.02561
511.11244,0.02508
509.18371,0.02391
507.25499,0.02298
505.32626,0.02352
503.39754,0.02529
501.46881,0.02698
499.54008,0.02720
497.61136,0.02584
495.68263,0.02507
493.75391,0.02604
491.82518,0.02743
489.89645,0.02908
487.96773,0.03166
486.03900,0.03405
484.11027,0.03442
482.18155,0.03164
480.25282,0.02740
478.32410,0.02432
476.39537,0.02245
474.46664,0.02168
472.53792,0.02267
470.60919,0.02396
468.68046,0.02457
466.75174,0.02629
464.82301,0.02867
462.89429,0.02887
460.96556,0.02681
459.03683,0.02409
457.10811,0.02096
455.17938,0.01896
453.25066,0.02079
451.32193,0.02590
449.39320,0.02866
447.46448,0.02608
445.53575,0.02309
443.60702,0.02461
441.67830,0.03061
439.74957,0.03507
437.82085,0.03355
435.89212,0.03113
433.96339,0.03360
432.03467,0.03958
430.10594,0.04468
428.17721,0.04791
426.24849,0.04817
424.31976,0.04256
422.39104,0.03508
420.46231,0.03441
418.53358,0.04399
416.60486,0.05192
414.67613,0.04569
412.74741,0.03410
410.81868,0.02764
408.88995,0.02640
406.96123,0.02646
405.03250,0.02595
403.10377,0.02579
401.17505,0.02933
399.24632,0.04126
