7497.03301,0.57029
7495.10426,0.56465
7493.17552,0.56514
7491.24677,0.57165
7489.31803,0.57694
7487.38928,0.57456
7485.46054,0.56462
7483.53179,0.55616
7481.60305,0.55621
7479.67430,0.56203
7477.74556,0.56639
7475.81681,0.56563
7473.88807,0.56411
7471.95932,0.56655
7470.03057,0.57166
7468.10183,0.57611
7466.17308,0.57670
7464.24434,0.57254
7462.31559,0.56804
7460.38685,0.56892
7458.45810,0.57302
7456.52936,0.57338
7454.60061,0.57103
7452.67187,0.57007
7450.74312,0.56827
7448.81438,0.56421
7446.88563,0.56288
7444.95689,0.56688
7443.02814,0.56987
7441.09940,0.56745
7439.17065,0.56452
7437.24190,0.56423
7435.31316,0.56379
7433.38441,0.56285
7431.45567,0.56521
7429.52692,0.57009
7427.59818,0.57356
7425.66943,0.57561
7423.74069,0.57401
7421.81194,0.56813
7419.88320,0.56512
7417.95445,0.56587
7416.02571,0.56490
7414.09696,0.56286
7412.16822,0.56354
7410.23947,0.56643
7408.31073,0.56712
7406.38198,0.56442
7404.45323,0.56291
7402.52449,0.56579
7400.59574,0.56888
7398.66700,0.56552
7396.73825,0.55815
7394.80951,0.55507
7392.88076,0.55883
7390.95202,0.56414
7389.02327,0.56554
7387.09453,0.56625
7385.16578,0.56904
7383.23704,0.57009
7381.30829,0.56917
7379.37955,0.56792
7377.45080,0.56521
7375.52205,0.56093
7373.59331,0.55708
7371.66456,0.55559
7369.73582,0.55649
7367.80707,0.55896
7365.87833,0.56137
7363.94958,0.56306
7362.02084,0.56529
7360.09209,0.56790
7358.16335,0.56996
7356.23460,0.57213
7354.30586,0.57328
7352.37711,0.56934
7350.44837,0.56183
7348.51962,0.55921
7346.59088,0.56219
7344.66213,0.56273
7342.73338,0.56018
7340.80464,0.56031
7338.87589,0.56284
7336.94715,0.56256
7335.01840,0.55827
7333.08966,0.55574
7331.16091,0.55817
7329.23217,0.56064
7327.30342,0.56117
7325.37468,0.56153
7323.44593,0.55978
7321.51719,0.55619
7319.58844,0.55363
7317.65970,0.55253
7315.73095,0.55287
7313.80221,0.55437
7311.87346,0.55524
7309.94471,0.55541
7308.01597,0.55545
7306.08722,0.55353
7304.15848,0.55070
7302.22973,0.55165
7300.30099,0.55564
7298.37224,0.55857
7296.44350,0.56115
7294.51475,0.56283
7292.58601,0.56031
7290.65726,0.55699
7288.72852,0.55775
7286.79977,0.56017
7284.87103,0.56046
7282.94228,0.55866
7281.01353,0.55622
7279.08479,0.55529
7277.15604,0.55658
7275.22730,0.55635
7273.29855,0.55321
7271.36981,0.55203
7269.44106,0.55413
7267.51232,0.55557
7265.58357,0.55681
7263.65483,0.56017
7261.72608,0.56312
7259.79734,0.56402
7257.86859,0.56422
7255.93985,0.56260
7254.01110,0.55835
7252.08236,0.55526
7250.15361,0.55567
7248.22486,0.55714
7246.29612,0.55738
7244.36737,0.55687
7242.43863,0.55793
7240.50988,0.56050
7238.58114,0.56177
7236.65239,0.56048
7234.72365,0.55597
7232.79490,0.55145
7230.86616,0.55270
7228.93741,0.55621
7227.00867,0.55564
7225.07992,0.55333
7223.15118,0.55312
7221.22243,0.55554
7219.29369,0.55874
7217.36494,0.55870
7215.43619,0.55667
7213.50745,0.55732
7211.57870,0.55840
7209.64996,0.55546
7207.72121,0.55045
7205.79247,0.54818
7203.86372,0.54937
7201.93498,0.55240
7200.00623,0.55668
7198.07749,0.56015
7196.14874,0.56048
7194.22000,0.55867
7192.29125,0.55686
7190.36251,0.55591
7188.43376,0.55630
7186.50501,0.55691
7184.57627,0.55548
7182.64752,0.55377
7180.71878,0.55460
7178.79003,0.55560
7176.86129,0.55465
7174.93254,0.55395
7173.00380,0.55435
7171.07505,0.55481
7169.14631,0.55605
7167.21756,0.55818
7165.28882,0.55856
7163.36007,0.55552
7161.43133,0.55155
7159.50258,0.54933
7157.57384,0.54806
7155.64509,0.54698
7153.71634,0.54691
7151.78760,0.54736
7149.85885,0.54732
7147.93011,0.54724
7146.00136,0.54864
7144.07262,0.55113
7142.14387,0.55136
7140.21513,0.55059
7138.28638,0.55294
7136.35764,0.55577
7134.42889,0.55682
7132.50015,0.55626
7130.57140,0.55144
7128.64266,0.54482
7126.71391,0.54210
7124.78516,0.54313
7122.85642,0.54630
7120.92767,0.55022
7118.99893,0.55094
7117.07018,0.54867
7115.14144,0.54706
7113.21269,0.54545
7111.28395,0.54313
7109.35520,0.54089
7107.42646,0.53919
7105.49771,0.54022
7103.56897,0.54374
7101.64022,0.54527
7099.71148,0.54268
7097.78273,0.53860
7095.85399,0.53659
7093.92524,0.53807
7091.99649,0.54103
7090.06775,0.54308
7088.13900,0.54462
7086.21026,0.54490
7084.28151,0.54161
7082.35277,0.53635
7080.42402,0.53445
7078.49528,0.53796
7076.56653,0.54071
7074.63779,0.53698
7072.70904,0.53102
7070.78030,0.52893
7068.85155,0.53031
7066.92281,0.53243
7064.99406,0.53384
7063.06532,0.53450
7061.13657,0.53466
7059.20782,0.53372
7057.27908,0.53315
7055.35033,0.53445
7053.42159,0.53535
7051.49284,0.53403
7049.56410,0.53061
7047.63535,0.52654
7045.70661,0.52377
7043.77786,0.52213
7041.84912,0.52124
7039.92037,0.52120
7037.99163,0.52149
7036.06288,0.52124
7034.13414,0.51955
7032.20539,0.51763
7030.27664,0.51676
7028.34790,0.51639
7026.41915,0.51586
7024.49041,0.51429
7022.56166,0.51216
7020.63292,0.51128
7018.70417,0.51219
7016.77543,0.51356
7014.84668,0.51301
7012.91794,0.51100
7010.98919,0.51040
7009.06045,0.51148
7007.13170,0.51204
7005.20296,0.51055
7003.27421,0.50826
7001.34547,0.50711
6999.41672,0.50579
6997.48797,0.50234
6995.55923,0.49971
6993.63048,0.50060
6991.70174,0.50181
6989.77299,0.50122
6987.84425,0.49988
6985.91550,0.49893
6983.98676,0.50019
6982.05801,0.50207
6980.12927,0.50102
6978.20052,0.49875
6976.27178,0.49890
6974.34303,0.50058
6972.41429,0.50154
6970.48554,0.50248
6968.55680,0.50293
6966.62805,0.50161
6964.69930,0.50043
6962.77056,0.49968
6960.84181,0.49819
6958.91307,0.49750
6956.98432,0.49849
6955.05558,0.49917
6953.12683,0.49786
6951.19809,0.49482
6949.26934,0.49167
6947.34060,0.49077
6945.41185,0.49214
6943.48311,0.49313
6941.55436,0.49282
6939.62562,0.49239
6937.69687,0.49307
6935.76812,0.49417
6933.83938,0.49310
6931.91063,0.49105
6929.98189,0.49191
6928.05314,0.49462
6926.12440,0.49467
6924.19565,0.49154
6922.26691,0.48892
6920.33816,0.48814
6918.40942,0.48711
6916.48067,0.48581
6914.55193,0.48623
6912.62318,0.48855
6910.69444,0.49153
6908.76569,0.49473
6906.83695,0.49689
6904.90820,0.49572
6902.97945,0.49238
6901.05071,0.49020
6899.12196,0.48990
6897.19322,0.48979
6895.26447,0.48919
6893.33573,0.49004
6891.40698,0.49231
6889.47824,0.49359
6887.54949,0.49407
6885.62075,0.49358
6883.69200,0.49115
6881.76326,0.48847
6879.83451,0.48667
6877.90577,0.48641
6875.97702,0.48811
6874.04828,0.48991
6872.11953,0.49043
6870.19078,0.48989
6868.26204,0.48847
6866.33329,0.48614
6864.40455,0.48342
6862.47580,0.48157
6860.54706,0.48050
6858.61831,0.47908
6856.68957,0.47848
6854.76082,0.47973
6852.83208,0.48043
6850.90333,0.47996
6848.97459,0.48026
6847.04584,0.48099
6845.11710,0.48155
6843.18835,0.48255
6841.25960,0.48376
6839.33086,0.48414
6837.40211,0.48287
6835.47337,0.48052
6833.54462,0.47857
6831.61588,0.47824
6829.68713,0.47862
6827.75839,0.47796
6825.82964,0.47733
6823.90090,0.47824
6821.97215,0.47922
6820.04341,0.47834
6818.11466,0.47647
6816.18592,0.47554
6814.25717,0.47561
6812.32843,0.47544
6810.39968,0.47512
6808.47093,0.47589
6806.54219,0.47665
6804.61344,0.47523
6802.68470,0.47268
6800.75595,0.47199
6798.82721,0.47271
6796.89846,0.47152
6794.96972,0.46884
6793.04097,0.46688
6791.11223,0.46622
6789.18348,0.46774
6787.25474,0.47056
6785.32599,0.47182
6783.39725,0.47075
6781.46850,0.46917
6779.53975,0.46791
6777.61101,0.46698
6775.68226,0.46769
6773.75352,0.46803
6771.82477,0.46518
6769.89603,0.46323
6767.96728,0.46484
6766.03854,0.46570
6764.10979,0.46408
6762.18105,0.46253
6760.25230,0.46339
6758.32356,0.46617
6756.39481,0.46799
6754.46607,0.46857
6752.53732,0.46782
6750.60858,0.46478
6748.67983,0.46215
6746.75108,0.46115
6744.82234,0.45930
6742.89359,0.45648
6740.96485,0.45596
6739.03610,0.45957
6737.10736,0.46464
6735.17861,0.46720
6733.24987,0.46627
6731.32112,0.46381
6729.39238,0.46204
6727.46363,0.46182
6725.53489,0.46235
6723.60614,0.46209
6721.67740,0.46099
6719.74865,0.46058
6717.81991,0.46204
6715.89116,0.46466
6713.96241,0.46645
6712.03367,0.46677
6710.10492,0.46616
6708.17618,0.46473
6706.24743,0.46238
6704.31869,0.46036
6702.38994,0.46053
6700.46120,0.46249
6698.53245,0.46419
6696.60371,0.46450
6694.67496,0.46392
6692.74622,0.46372
6690.81747,0.46454
6688.88873,0.46518
6686.95998,0.46391
6685.03123,0.46170
6683.10249,0.46068
6681.17374,0.46093
6679.24500,0.46196
6677.31625,0.46443
6675.38751,0.46817
6673.45876,0.47039
6671.53002,0.46797
6669.60127,0.46277
6667.67253,0.46054
6665.74378,0.46266
6663.81504,0.46665
6661.88629,0.47027
6659.95755,0.47132
6658.02880,0.47030
6656.10006,0.46968
6654.17131,0.46922
6652.24256,0.46760
6650.31382,0.46547
6648.38507,0.46388
6646.45633,0.46347
6644.52758,0.46487
6642.59884,0.46683
6640.67009,0.46745
6638.74135,0.46687
6636.81260,0.46694
6634.88386,0.46868
6632.95511,0.46984
6631.02637,0.46830
6629.09762,0.46634
6627.16888,0.46649
6625.24013,0.46777
6623.31139,0.46954
6621.38264,0.47183
6619.45389,0.47236
6617.52515,0.47020
6615.59640,0.46823
6613.66766,0.46863
6611.73891,0.47056
6609.81017,0.47173
6607.88142,0.47057
6605.95268,0.46863
6604.02393,0.46921
6602.09519,0.47120
6600.16644,0.47143
6598.23770,0.47084
6596.30895,0.47147
6594.38021,0.47319
6592.45146,0.47464
6590.52271,0.47509
6588.59397,0.47506
6586.66522,0.47483
6584.73648,0.47450
6582.80773,0.47404
6580.87899,0.47361
6578.95024,0.47451
6577.02150,0.47692
6575.09275,0.47919
6573.16401,0.47935
6571.23526,0.47634
6569.30652,0.47317
6567.37777,0.47354
6565.44903,0.47530
6563.52028,0.47471
6561.59154,0.47241
6559.66279,0.47164
6557.73404,0.47382
6555.80530,0.47647
6553.87655,0.47621
6551.94781,0.47323
6550.01906,0.47094
6548.09032,0.47207
6546.16157,0.47540
6544.23283,0.47649
6542.30408,0.47404
6540.37534,0.47165
6538.44659,0.47144
6536.51785,0.47161
6534.58910,0.47076
6532.66036,0.47060
6530.73161,0.47177
6528.80287,0.47245
6526.87412,0.47292
6524.94537,0.47379
6523.01663,0.47399
6521.08788,0.47394
6519.15914,0.47410
6517.23039,0.47437
6515.30165,0.47650
6513.37290,0.47945
6511.44416,0.47915
6509.51541,0.47586
6507.58667,0.47237
6505.65792,0.47059
6503.72918,0.47202
6501.80043,0.47541
6499.87169,0.47761
6497.94294,0.47676
6496.01419,0.47418
6494.08545,0.47319
6492.15670,0.47400
6490.22796,0.47451
6488.29921,0.47519
6486.37047,0.47643
6484.44172,0.47571
6482.51298,0.47265
6480.58423,0.47035
6478.65549,0.46981
6476.72674,0.47021
6474.79800,0.47193
6472.86925,0.47410
6470.94051,0.47483
6469.01176,0.47452
6467.08302,0.47453
6465.15427,0.47469
6463.22552,0.47379
6461.29678,0.47223
6459.36803,0.47223
6457.43929,0.47318
6455.51054,0.47308
6453.58180,0.47332
6451.65305,0.47464
6449.72431,0.47583
6447.79556,0.47707
6445.86682,0.47779
6443.93807,0.47717
6442.00933,0.47624
6440.08058,0.47509
6438.15184,0.47405
6436.22309,0.47438
6434.29434,0.47586
6432.36560,0.47790
6430.43685,0.47954
6428.50811,0.47939
6426.57936,0.47745
6424.65062,0.47546
6422.72187,0.47529
6420.79313,0.47701
6418.86438,0.47900
6416.93564,0.47955
6415.00689,0.47843
6413.07815,0.47733
6411.14940,0.47724
6409.22066,0.47747
6407.29191,0.47798
6405.36317,0.47899
6403.43442,0.47935
6401.50567,0.47850
6399.57693,0.47783
6397.64818,0.47806
6395.71944,0.47849
6393.79069,0.47819
6391.86195,0.47672
6389.93320,0.47552
6388.00446,0.47622
6386.07571,0.47741
6384.14697,0.47756
6382.21822,0.47790
6380.28948,0.47879
6378.36073,0.47880
6376.43199,0.47760
6374.50324,0.47637
6372.57450,0.47579
6370.64575,0.47556
6368.71700,0.47626
6366.78826,0.47763
6364.85951,0.47782
6362.93077,0.47733
6361.00202,0.47822
6359.07328,0.47998
6357.14453,0.48080
6355.21579,0.48087
6353.28704,0.48056
6351.35830,0.47940
6349.42955,0.47873
6347.50081,0.47999
6345.57206,0.48197
6343.64332,0.48227
6341.71457,0.48144
6339.78582,0.48168
6337.85708,0.48165
6335.92833,0.47940
6333.99959,0.47704
6332.07084,0.47790
6330.14210,0.48169
6328.21335,0.48456
6326.28461,0.48444
6324.35586,0.48321
6322.42712,0.48256
6320.49837,0.48193
6318.56963,0.48153
6316.64088,0.48171
6314.71214,0.48183
6312.78339,0.48255
6310.85465,0.48428
6308.92590,0.48536
6306.99715,0.48482
6305.06841,0.48346
6303.13966,0.48190
6301.21092,0.48076
6299.28217,0.48088
6297.35343,0.48168
6295.42468,0.48206
6293.49594,0.48193
6291.56719,0.48159
6289.63845,0.48146
6287.70970,0.48217
6285.78096,0.48284
6283.85221,0.48217
6281.92347,0.48203
6279.99472,0.48382
6278.06598,0.48551
6276.13723,0.48586
6274.20848,0.48630
6272.27974,0.48797
6270.35099,0.48954
6268.42225,0.48959
6266.49350,0.48861
6264.56476,0.48807
6262.63601,0.48797
6260.70727,0.48728
6258.77852,0.48668
6256.84978,0.48712
6254.92103,0.48890
6252.99229,0.49153
6251.06354,0.49360
6249.13480,0.49470
6247.20605,0.49527
6245.27730,0.49612
6243.34856,0.49686
6241.41981,0.49615
6239.49107,0.49432
6237.56232,0.49348
6235.63358,0.49470
6233.70483,0.49603
6231.77609,0.49689
6229.84734,0.49819
6227.91860,0.49852
6225.98985,0.49809
6224.06111,0.49943
6222.13236,0.50180
6220.20362,0.50231
6218.27487,0.50124
6216.34613,0.50087
6214.41738,0.50159
6212.48863,0.50279
6210.55989,0.50388
6208.63114,0.50434
6206.70240,0.50430
6204.77365,0.50420
6202.84491,0.50503
6200.91616,0.50771
6198.98742,0.51006
6197.05867,0.50942
6195.12993,0.50760
6193.20118,0.50721
6191.27244,0.50783
6189.34369,0.50837
6187.41495,0.50833
6185.48620,0.50845
6183.55746,0.51041
6181.62871,0.51380
6179.69996,0.51547
6177.77122,0.51370
6175.84247,0.51136
6173.91373,0.51140
6171.98498,0.51238
6170.05624,0.51265
6168.12749,0.51331
6166.19875,0.51489
6164.27000,0.51612
6162.34126,0.51596
6160.41251,0.51484
6158.48377,0.51376
6156.55502,0.51340
6154.62628,0.51400
6152.69753,0.51406
6150.76878,0.51325
6148.84004,0.51412
6146.91129,0.51613
6144.98255,0.51688
6143.05380,0.51696
6141.12506,0.51705
6139.19631,0.51690
6137.26757,0.51694
6135.33882,0.51773
6133.41008,0.51917
6131.48133,0.52032
6129.55259,0.52105
6127.62384,0.52202
6125.69510,0.52281
6123.76635,0.52279
6121.83761,0.52246
6119.90886,0.52257
6117.98011,0.52260
6116.05137,0.52246
6114.12262,0.52274
6112.19388,0.52256
6110.26513,0.52222
6108.33639,0.52311
6106.40764,0.52429
6104.47890,0.52488
6102.55015,0.52532
6100.62141,0.52517
6098.69266,0.52398
6096.76392,0.52288
6094.83517,0.52306
6092.90643,0.52453
6090.97768,0.52644
6089.04893,0.52756
6087.12019,0.52803
6085.19144,0.52851
6083.26270,0.52835
6081.33395,0.52762
6079.40521,0.52760
6077.47646,0.52831
6075.54772,0.52914
6073.61897,0.52979
6071.69023,0.52980
6069.76148,0.52962
6067.83274,0.53022
6065.90399,0.53109
6063.97525,0.53175
6062.04650,0.53292
6060.11776,0.53450
6058.18901,0.53499
6056.26026,0.53396
6054.33152,0.53321
6052.40277,0.53355
6050.47403,0.53385
6048.54528,0.53426
6046.61654,0.53516
6044.68779,0.53557
6042.75905,0.53547
6040.83030,0.53528
6038.90156,0.53445
6036.97281,0.53329
6035.04407,0.53287
6033.11532,0.53335
6031.18658,0.53440
6029.25783,0.53543
6027.32909,0.53622
6025.40034,0.53670
6023.47159,0.53618
6021.54285,0.53526
6019.61410,0.53549
6017.68536,0.53654
6015.75661,0.53689
6013.82787,0.53628
6011.89912,0.53584
6009.97038,0.53580
6008.04163,0.53556
6006.11289,0.53580
6004.18414,0.53700
6002.25540,0.53782
6000.32665,0.53735
5998.39791,0.53682
5996.46916,0.53760
5994.54041,0.53908
5992.61167,0.53975
5990.68292,0.53953
5988.75418,0.53949
5986.82543,0.53985
5984.89669,0.53987
5982.96794,0.53956
5981.03920,0.53995
5979.11045,0.54101
5977.18171,0.54124
5975.25296,0.54056
5973.32422,0.54081
5971.39547,0.54191
5969.46673,0.54184
5967.53798,0.54114
5965.60924,0.54128
5963.68049,0.54174
5961.75174,0.54180
5959.82300,0.54144
5957.89425,0.54050
5955.96551,0.53855
5954.03676,0.53640
5952.10802,0.53618
5950.17927,0.53771
5948.25053,0.53890
5946.32178,0.53932
5944.39304,0.54015
5942.46429,0.54122
5940.53555,0.54076
5938.60680,0.53899
5936.67806,0.53813
5934.74931,0.53871
5932.82057,0.53926
5930.89182,0.53867
5928.96307,0.53756
5927.03433,0.53728
5925.10558,0.53794
5923.17684,0.53873
5921.24809,0.53846
5919.31935,0.53649
5917.39060,0.53468
5915.46186,0.53487
5913.53311,0.53610
5911.60437,0.53651
5909.67562,0.53602
5907.74688,0.53623
5905.81813,0.53707
5903.88939,0.53658
5901.96064,0.53495
5900.03189,0.53398
5898.10315,0.53396
5896.17440,0.53469
5894.24566,0.53565
5892.31691,0.53571
5890.38817,0.53478
5888.45942,0.53348
5886.53068,0.53252
5884.60193,0.53214
5882.67319,0.53143
5880.74444,0.53021
5878.81570,0.52954
5876.88695,0.52902
5874.95821,0.52736
5873.02946,0.52553
5871.10072,0.52535
5869.17197,0.52640
5867.24322,0.52766
5865.31448,0.52813
5863.38573,0.52704
5861.45699,0.52625
5859.52824,0.52760
5857.59950,0.52904
5855.67075,0.52836
5853.74201,0.52670
5851.81326,0.52638
5849.88452,0.52778
5847.95577,0.52874
5846.02703,0.52828
5844.09828,0.52829
5842.16954,0.52900
5840.24079,0.52843
5838.31205,0.52706
5836.38330,0.52740
5834.45455,0.52933
5832.52581,0.53052
5830.59706,0.53028
5828.66832,0.52961
5826.73957,0.52926
5824.81083,0.52926
5822.88208,0.52935
5820.95334,0.52951
5819.02459,0.53002
5817.09585,0.53069
5815.16710,0.53075
5813.23836,0.52997
5811.30961,0.52899
5809.38087,0.52853
5807.45212,0.52824
5805.52337,0.52761
5803.59463,0.52714
5801.66588,0.52697
5799.73714,0.52726
5797.80839,0.52788
5795.87965,0.52777
5793.95090,0.52703
5792.02216,0.52683
5790.09341,0.52763
5788.16467,0.52858
5786.23592,0.52859
5784.30718,0.52783
5782.37843,0.52713
5780.44969,0.52667
5778.52094,0.52596
5776.59220,0.52495
5774.66345,0.52406
5772.73470,0.52361
5770.80596,0.52342
5768.87721,0.52253
5766.94847,0.52149
5765.01972,0.52186
5763.09098,0.52322
5761.16223,0.52477
5759.23349,0.52594
5757.30474,0.52598
5755.37600,0.52531
5753.44725,0.52439
5751.51851,0.52344
5749.58976,0.52360
5747.66102,0.52478
5745.73227,0.52556
5743.80352,0.52618
5741.87478,0.52665
5739.94603,0.52560
5738.01729,0.52372
5736.08854,0.52244
5734.15980,0.52160
5732.23105,0.52123
5730.30231,0.52145
5728.37356,0.52205
5726.44482,0.52272
5724.51607,0.52294
5722.58733,0.52235
5720.65858,0.52141
5718.72984,0.52117
5716.80109,0.52185
5714.87235,0.52259
5712.94360,0.52267
5711.01485,0.52218
5709.08611,0.52200
5707.15736,0.52250
5705.22862,0.52289
5703.29987,0.52270
5701.37113,0.52242
5699.44238,0.52268
5697.51364,0.52338
5695.58489,0.52400
5693.65615,0.52416
5691.72740,0.52325
5689.79866,0.52147
5687.86991,0.52055
5685.94117,0.52119
5684.01242,0.52202
5682.08368,0.52219
5680.15493,0.52201
5678.22618,0.52154
5676.29744,0.52031
5674.36869,0.51903
5672.43995,0.51880
5670.51120,0.51875
5668.58246,0.51806
5666.65371,0.51797
5664.72497,0.51893
5662.79622,0.52003
5660.86748,0.52087
5658.93873,0.52110
5657.00999,0.52071
5655.08124,0.52023
5653.15250,0.51945
5651.22375,0.51814
5649.29500,0.51699
5647.36626,0.51710
5645.43751,0.51862
5643.50877,0.52020
5641.58002,0.52101
5639.65128,0.52119
5637.72253,0.52044
5635.79379,0.51888
5633.86504,0.51803
5631.93630,0.51871
5630.00755,0.51961
5628.07881,0.51982
5626.15006,0.52005
5624.22132,0.52017
5622.29257,0.51926
5620.36383,0.51802
5618.43508,0.51798
5616.50633,0.51904
5614.57759,0.51987
5612.64884,0.51997
5610.72010,0.51995
5608.79135,0.52008
5606.86261,0.51989
5604.93386,0.51940
5603.00512,0.51901
5601.07637,0.51870
5599.14763,0.51877
5597.21888,0.51942
5595.29014,0.52007
5593.36139,0.52077
5591.43265,0.52133
5589.50390,0.52104
5587.57516,0.52062
5585.64641,0.52063
5583.71766,0.52041
5581.78892,0.52034
5579.86017,0.52109
5577.93143,0.52168
5576.00268,0.52094
5574.07394,0.51969
5572.14519,0.51923
5570.21645,0.51914
5568.28770,0.51869
5566.35896,0.51884
5564.43021,0.52004
5562.50147,0.52078
5560.57272,0.52084
5558.64398,0.52162
5556.71523,0.52297
5554.78648,0.52382
5552.85774,0.52392
5550.92899,0.52330
5549.00025,0.52223
5547.07150,0.52146
5545.14276,0.52125
5543.21401,0.52117
5541.28527,0.52115
5539.35652,0.52151
5537.42778,0.52197
5535.49903,0.52171
5533.57029,0.52089
5531.64154,0.52060
5529.71280,0.52107
5527.78405,0.52188
5525.85531,0.52265
5523.92656,0.52283
5521.99781,0.52239
5520.06907,0.52168
5518.14032,0.52115
5516.21158,0.52102
5514.28283,0.52074
5512.35409,0.52042
5510.42534,0.52049
5508.49660,0.52033
5506.56785,0.51991
5504.63911,0.51996
5502.71036,0.52009
5500.78162,0.51984
5498.85287,0.51974
5496.92413,0.51997
5494.99538,0.52025
5493.06664,0.52064
5491.13789,0.52101
5489.20914,0.52081
5487.28040,0.51990
5485.35165,0.51914
5483.42291,0.51916
5481.49416,0.51947
5479.56542,0.51963
5477.63667,0.51972
5475.70793,0.52014
5473.77918,0.52062
5471.85044,0.52040
5469.92169,0.52024
5467.99295,0.52087
5466.06420,0.52127
5464.13546,0.52126
5462.20671,0.52159
5460.27796,0.52178
5458.34922,0.52133
5456.42047,0.52104
5454.49173,0.52161
5452.56298,0.52243
5450.63424,0.52263
5448.70549,0.52258
5446.77675,0.52277
5444.84800,0.52305
5442.91926,0.52348
5440.99051,0.52376
5439.06177,0.52338
5437.13302,0.52303
5435.20428,0.52328
5433.27553,0.52371
5431.34679,0.52384
5429.41804,0.52379
5427.48929,0.52435
5425.56055,0.52572
5423.63180,0.52674
5421.70306,0.52667
5419.77431,0.52625
5417.84557,0.52644
5415.91682,0.52742
5413.98808,0.52839
5412.05933,0.52860
5410.13059,0.52821
5408.20184,0.52784
5406.27310,0.52779
5404.34435,0.52783
5402.41561,0.52803
5400.48686,0.52865
5398.55811,0.52941
5396.62937,0.52980
5394.70062,0.52942
5392.77188,0.52867
5390.84313,0.52855
5388.91439,0.52886
5386.98564,0.52885
5385.05690,0.52912
5383.12815,0.52978
5381.19941,0.52988
5379.27066,0.52977
5377.34192,0.53021
5375.41317,0.53084
5373.48443,0.53116
5371.55568,0.53158
5369.62694,0.53223
5367.69819,0.53183
5365.76944,0.53035
5363.84070,0.52969
5361.91195,0.53047
5359.98321,0.53149
5358.05446,0.53165
5356.12572,0.53110
5354.19697,0.53055
5352.26823,0.53019
5350.33948,0.53006
5348.41074,0.53013
5346.48199,0.53004
5344.55325,0.53008
5342.62450,0.53075
5340.69576,0.53121
5338.76701,0.53045
5336.83827,0.52924
5334.90952,0.52898
5332.98077,0.52955
5331.05203,0.52958
5329.12328,0.52868
5327.19454,0.52794
5325.26579,0.52767
5323.33705,0.52745
5321.40830,0.52747
5319.47956,0.52744
5317.55081,0.52714
5315.62207,0.52702
5313.69332,0.52686
5311.76458,0.52647
5309.83583,0.52601
5307.90709,0.52502
5305.97834,0.52417
5304.04959,0.52466
5302.12085,0.52542
5300.19210,0.52494
5298.26336,0.52342
5296.33461,0.52184
5294.40587,0.52095
5292.47712,0.52038
5290.54838,0.51953
5288.61963,0.51874
5286.69089,0.51796
5284.76214,0.51680
5282.83340,0.51610
5280.90465,0.51628
5278.97591,0.51580
5277.04716,0.51399
5275.11842,0.51216
5273.18967,0.51066
5271.26092,0.50919
5269.33218,0.50816
5267.40343,0.50715
5265.47469,0.50503
5263.54594,0.50256
5261.61720,0.50139
5259.68845,0.50105
5257.75971,0.49986
5255.83096,0.49773
5253.90222,0.49586
5251.97347,0.49453
5250.04473,0.49308
5248.11598,0.49111
5246.18724,0.48919
5244.25849,0.48781
5242.32975,0.48639
5240.40100,0.48473
5238.47225,0.48311
5236.54351,0.48138
5234.61476,0.47949
5232.68602,0.47794
5230.75727,0.47722
5228.82853,0.47694
5226.89978,0.47608
5224.97104,0.47467
5223.04229,0.47364
5221.11355,0.47322
5219.18480,0.47266
5217.25606,0.47169
5215.32731,0.47087
5213.39857,0.47028
5211.46982,0.46975
5209.54107,0.46960
5207.61233,0.46945
5205.68358,0.46854
5203.75484,0.46741
5201.82609,0.46697
5199.89735,0.46707
5197.96860,0.46712
5196.03986,0.46713
5194.11111,0.46706
5192.18237,0.46649
5190.25362,0.46566
5188.32488,0.46479
5186.39613,0.46373
5184.46739,0.46317
5182.53864,0.46362
5180.60990,0.46442
5178.68115,0.46455
5176.75240,0.46410
5174.82366,0.46424
5172.89491,0.46501
5170.96617,0.46537
5169.03742,0.46539
5167.10868,0.46587
5165.17993,0.46651
5163.25119,0.46650
5161.32244,0.46615
5159.39370,0.46673
5157.46495,0.46816
5155.53621,0.46892
5153.60746,0.46886
5151.67872,0.46891
5149.74997,0.46921
5147.82123,0.46949
5145.89248,0.46992
5143.96373,0.47066
5142.03499,0.47121
5140.10624,0.47118
5138.17750,0.47097
5136.24875,0.47147
5134.32001,0.47269
5132.39126,0.47346
5130.46252,0.47345
5128.53377,0.47342
5126.60503,0.47392
5124.67628,0.47514
5122.74754,0.47663
5120.81879,0.47745
5118.89005,0.47751
5116.96130,0.47778
5115.03255,0.47853
5113.10381,0.47904
5111.17506,0.47936
5109.24632,0.47999
5107.31757,0.48055
5105.38883,0.48084
5103.46008,0.48130
5101.53134,0.48202
5099.60259,0.48283
5097.67385,0.48341
5095.74510,0.48353
5093.81636,0.48364
5091.88761,0.48434
5089.95887,0.48501
5088.03012,0.48487
5086.10138,0.48449
5084.17263,0.48492
5082.24388,0.48612
5080.31514,0.48708
5078.38639,0.48739
5076.45765,0.48758
5074.52890,0.48780
5072.60016,0.48803
5070.67141,0.48855
5068.74267,0.48927
5066.81392,0.48975
5064.88518,0.48980
5062.95643,0.48953
5061.02769,0.48932
5059.09894,0.48976
5057.17020,0.49103
5055.24145,0.49264
5053.31270,0.49359
5051.38396,0.49365
5049.45521,0.49378
5047.52647,0.49393
5045.59772,0.49357
5043.66898,0.49331
5041.74023,0.49356
5039.81149,0.49407
5037.88274,0.49446
5035.95400,0.49432
5034.02525,0.49399
5032.09651,0.49402
5030.16776,0.49420
5028.23902,0.49417
5026.31027,0.49398
5024.38153,0.49410
5022.45278,0.49457
5020.52403,0.49494
5018.59529,0.49502
5016.66654,0.49495
5014.73780,0.49497
5012.80905,0.49511
5010.88031,0.49531
5008.95156,0.49553
5007.02282,0.49544
5005.09407,0.49477
5003.16533,0.49382
5001.23658,0.49319
4999.30784,0.49335
4997.37909,0.49379
4995.45035,0.49340
4993.52160,0.49260
4991.59286,0.49259
4989.66411,0.49289
4987.73536,0.49268
4985.80662,0.49216
4983.87787,0.49171
4981.94913,0.49145
4980.02038,0.49149
4978.09164,0.49163
4976.16289,0.49157
4974.23415,0.49115
4972.30540,0.49045
4970.37666,0.48985
4968.44791,0.48922
4966.51917,0.48791
4964.59042,0.48612
4962.66168,0.48472
4960.73293,0.48403
4958.80418,0.48371
4956.87544,0.48318
4954.94669,0.48208
4953.01795,0.48086
4951.08920,0.47999
4949.16046,0.47887
4947.23171,0.47729
4945.30297,0.47597
4943.37422,0.47514
4941.44548,0.47429
4939.51673,0.47301
4937.58799,0.47131
4935.65924,0.46954
4933.73050,0.46836
4931.80175,0.46753
4929.87301,0.46639
4927.94426,0.46528
4926.01551,0.46436
4924.08677,0.46315
4922.15802,0.46153
4920.22928,0.45958
4918.30053,0.45738
4916.37179,0.45532
4914.44304,0.45374
4912.51430,0.45221
4910.58555,0.45013
4908.65681,0.44777
4906.72806,0.44558
4904.79932,0.44363
4902.87057,0.44201
4900.94183,0.44066
4899.01308,0.43925
4897.08434,0.43765
4895.15559,0.43574
4893.22684,0.43364
4891.29810,0.43180
4889.36935,0.43042
4887.44061,0.42882
4885.51186,0.42641
4883.58312,0.42386
4881.65437,0.42178
4879.72563,0.42001
4877.79688,0.41858
4875.86814,0.41711
4873.93939,0.41522
4872.01065,0.41335
4870.08190,0.41153
4868.15316,0.40957
4866.22441,0.40796
4864.29566,0.40662
4862.36692,0.40491
4860.43817,0.40307
4858.50943,0.40177
4856.58068,0.40071
4854.65194,0.39909
4852.72319,0.39711
4850.79445,0.39555
4848.86570,0.39452
4846.93696,0.39379
4845.00821,0.39311
4843.07947,0.39210
4841.15072,0.39039
4839.22198,0.38826
4837.29323,0.38642
4835.36449,0.38514
4833.43574,0.38407
4831.50699,0.38266
4829.57825,0.38089
4827.64950,0.37928
4825.72076,0.37789
4823.79201,0.37644
4821.86327,0.37516
4819.93452,0.37415
4818.00578,0.37320
4816.07703,0.37251
4814.14829,0.37181
4812.21954,0.37045
4810.29080,0.36891
4808.36205,0.36776
4806.43331,0.36691
4804.50456,0.36596
4802.57582,0.36504
4800.64707,0.36466
4798.71832,0.36431
4796.78958,0.36340
4794.86083,0.36250
4792.93209,0.36197
4791.00334,0.36137
4789.07460,0.36072
4787.14585,0.36043
4785.21711,0.36025
4783.28836,0.35992
4781.35962,0.35966
4779.43087,0.35926
4777.50213,0.35860
4775.57338,0.35818
4773.64464,0.35784
4771.71589,0.35739
4769.78714,0.35730
4767.85840,0.35727
4765.92965,0.35691
4764.00091,0.35660
4762.07216,0.35619
4760.14342,0.35546
4758.21467,0.35477
4756.28593,0.35450
4754.35718,0.35465
4752.42844,0.35483
4750.49969,0.35474
4748.57095,0.35467
4746.64220,0.35485
4744.71346,0.35509
4742.78471,0.35527
4740.85597,0.35568
4738.92722,0.35663
4736.99847,0.35768
4735.06973,0.35808
4733.14098,0.35786
4731.21224,0.35768
4729.28349,0.35812
4727.35475,0.35918
4725.42600,0.36030
4723.49726,0.36115
4721.56851,0.36193
4719.63977,0.36279
4717.71102,0.36328
4715.78228,0.36310
4713.85353,0.36309
4711.92479,0.36386
4709.99604,0.36477
4708.06729,0.36543
4706.13855,0.36602
4704.20980,0.36650
4702.28106,0.36698
4700.35231,0.36784
4698.42357,0.36915
4696.49482,0.37056
4694.56608,0.37164
4692.63733,0.37234
4690.70859,0.37309
4688.77984,0.37408
4686.85110,0.37489
4684.92235,0.37543
4682.99361,0.37620
4681.06486,0.37737
4679.13612,0.37867
4677.20737,0.37997
4675.27862,0.38107
4673.34988,0.38165
4671.42113,0.38193
4669.49239,0.38229
4667.56364,0.38296
4665.63490,0.38382
4663.70615,0.38454
4661.77741,0.38522
4659.84866,0.38614
4657.91992,0.38696
4655.99117,0.38749
4654.06243,0.38820
4652.13368,0.38912
4650.20494,0.38968
4648.27619,0.38981
4646.34745,0.39017
4644.41870,0.39128
4642.48995,0.39263
4640.56121,0.39355
4638.63246,0.39425
4636.70372,0.39500
4634.77497,0.39563
4632.84623,0.39608
4630.91748,0.39655
4628.98874,0.39733
4627.05999,0.39844
4625.13125,0.39932
4623.20250,0.39963
4621.27376,0.39995
4619.34501,0.40066
4617.41627,0.40156
4615.48752,0.40245
4613.55877,0.40321
4611.63003,0.40358
4609.70128,0.40365
4607.77254,0.40397
4605.84379,0.40473
4603.91505,0.40573
4601.98630,0.40689
4600.05756,0.40804
4598.12881,0.40904
4596.20007,0.40978
4594.27132,0.41037
4592.34258,0.41107
4590.41383,0.41173
4588.48509,0.41246
4586.55634,0.41344
4584.62760,0.41435
4582.69885,0.41500
4580.77010,0.41555
4578.84136,0.41602
4576.91261,0.41656
4574.98387,0.41725
4573.05512,0.41813
4571.12638,0.41940
4569.19763,0.42093
4567.26889,0.42199
4565.34014,0.42242
4563.41140,0.42249
4561.48265,0.42251
4559.55391,0.42304
4557.62516,0.42396
4555.69642,0.42467
4553.76767,0.42540
4551.83893,0.42630
4549.91018,0.42692
4547.98143,0.42714
4546.05269,0.42744
4544.12394,0.42837
4542.19520,0.42946
4540.26645,0.42997
4538.33771,0.43027
4536.40896,0.43093
4534.48022,0.43169
4532.55147,0.43213
4530.62273,0.43265
4528.69398,0.43355
4526.76524,0.43426
4524.83649,0.43452
4522.90775,0.43453
4520.97900,0.43445
4519.05025,0.43462
4517.12151,0.43522
4515.19276,0.43598
4513.26402,0.43642
4511.33527,0.43666
4509.40653,0.43717
4507.47778,0.43772
4505.54904,0.43792
4503.62029,0.43789
4501.69155,0.43782
4499.76280,0.43777
4497.83406,0.43782
4495.90531,0.43784
4493.97657,0.43761
4492.04782,0.43730
4490.11908,0.43726
4488.19033,0.43761
4486.26158,0.43800
4484.33284,0.43771
4482.40409,0.43685
4480.47535,0.43624
4478.54660,0.43637
4476.61786,0.43702
4474.68911,0.43726
4472.76037,0.43665
4470.83162,0.43602
4468.90288,0.43583
4466.97413,0.43539
4465.04539,0.43435
4463.11664,0.43314
4461.18790,0.43209
4459.25915,0.43096
4457.33041,0.42944
4455.40166,0.42793
4453.47291,0.42670
4451.54417,0.42523
4449.61542,0.42324
4447.68668,0.42130
4445.75793,0.41974
4443.82919,0.41793
4441.90044,0.41548
4439.97170,0.41290
4438.04295,0.41077
4436.11421,0.40868
4434.18546,0.40606
4432.25672,0.40322
4430.32797,0.40053
4428.39923,0.39771
4426.47048,0.39479
4424.54173,0.39202
4422.61299,0.38927
4420.68424,0.38638
4418.75550,0.38347
4416.82675,0.38069
4414.89801,0.37800
4412.96926,0.37501
4411.04052,0.37180
4409.11177,0.36905
4407.18303,0.36709
4405.25428,0.36564
4403.32554,0.36428
4401.39679,0.36310
4399.46805,0.36203
4397.53930,0.36102
4395.61056,0.36089
4393.68181,0.36190
4391.75306,0.36309
4389.82432,0.36393
4387.89557,0.36470
4385.96683,0.36560
4384.03808,0.36661
4382.10934,0.36764
4380.18059,0.36858
4378.25185,0.36946
4376.32310,0.37016
4374.39436,0.37074
4372.46561,0.37163
4370.53687,0.37276
4368.60812,0.37362
4366.67938,0.37402
4364.75063,0.37414
4362.82189,0.37404
4360.89314,0.37352
4358.96439,0.37292
4357.03565,0.37268
4355.10690,0.37239
4353.17816,0.37173
4351.24941,0.37100
4349.32067,0.37038
4347.39192,0.36990
4345.46318,0.36960
4343.53443,0.36924
4341.60569,0.36856
4339.67694,0.36768
4337.74820,0.36691
4335.81945,0.36642
4333.89071,0.36584
4331.96196,0.36473
4330.03321,0.36335
4328.10447,0.36202
4326.17572,0.36077
4324.24698,0.35950
4322.31823,0.35806
4320.38949,0.35672
4318.46074,0.35586
4316.53200,0.35557
4314.60325,0.35558
4312.67451,0.35524
4310.74576,0.35432
4308.81702,0.35317
4306.88827,0.35206
4304.95953,0.35105
4303.03078,0.35013
4301.10204,0.34933
4299.17329,0.34874
4297.24454,0.34813
4295.31580,0.34726
4293.38705,0.34635
4291.45831,0.34548
4289.52956,0.34435
4287.60082,0.34313
4285.67207,0.34240
4283.74333,0.34196
4281.81458,0.34139
4279.88584,0.34077
4277.95709,0.34039
4276.02835,0.34029
4274.09960,0.34014
4272.17086,0.33983
4270.24211,0.33984
4268.31336,0.34020
4266.38462,0.34049
4264.45587,0.34083
4262.52713,0.34140
4260.59838,0.34186
4258.66964,0.34204
4256.74089,0.34218
4254.81215,0.34214
4252.88340,0.34189
4250.95466,0.34181
4249.02591,0.34194
4247.09717,0.34202
4245.16842,0.34217
4243.23968,0.34265
4241.31093,0.34317
4239.38219,0.34337
4237.45344,0.34363
4235.52469,0.34427
4233.59595,0.34492
4231.66720,0.34534
4229.73846,0.34552
4227.80971,0.34562
4225.88097,0.34585
4223.95222,0.34611
4222.02348,0.34594
4220.09473,0.34531
4218.16599,0.34486
4216.23724,0.34490
4214.30850,0.34532
4212.37975,0.34609
4210.45101,0.34694
4208.52226,0.34773
4206.59352,0.34865
4204.66477,0.34969
4202.73602,0.35059
4200.80728,0.35126
4198.87853,0.35182
4196.94979,0.35232
4195.02104,0.35259
4193.09230,0.35262
4191.16355,0.35271
4189.23481,0.35284
4187.30606,0.35292
4185.37732,0.35312
4183.44857,0.35334
4181.51983,0.35329
4179.59108,0.35333
4177.66234,0.35382
4175.73359,0.35422
4173.80484,0.35413
4171.87610,0.35415
4169.94735,0.35490
4168.01861,0.35614
4166.08986,0.35704
4164.16112,0.35737
4162.23237,0.35754
4160.30363,0.35764
4158.37488,0.35751
4156.44614,0.35706
4154.51739,0.35642
4152.58865,0.35590
4150.65990,0.35557
4148.73116,0.35515
4146.80241,0.35462
4144.87367,0.35408
4142.94492,0.35358
4141.01617,0.35316
4139.08743,0.35281
4137.15868,0.35250
4135.22994,0.35226
4133.30119,0.35190
4131.37245,0.35121
4129.44370,0.35030
4127.51496,0.34936
4125.58621,0.34827
4123.65747,0.34706
4121.72872,0.34589
4119.79998,0.34469
4117.87123,0.34335
4115.94249,0.34189
4114.01374,0.34038
4112.08500,0.33884
4110.15625,0.33700
4108.22750,0.33477
4106.29876,0.33260
4104.37001,0.33085
4102.44127,0.32905
4100.51252,0.32669
4098.58378,0.32420
4096.65503,0.32220
4094.72629,0.32053
4092.79754,0.31864
4090.86880,0.31632
4088.94005,0.31403
4087.01131,0.31224
4085.08256,0.31071
4083.15382,0.30889
4081.22507,0.30678
4079.29632,0.30480
4077.36758,0.30314
4075.43883,0.30164
4073.51009,0.29992
4071.58134,0.29774
4069.65260,0.29534
4067.72385,0.29293
4065.79511,0.29054
4063.86636,0.28840
4061.93762,0.28647
4060.00887,0.28439
4058.08013,0.28207
4056.15138,0.27970
4054.22264,0.27734
4052.29389,0.27475
4050.36515,0.27199
4048.43640,0.26952
4046.50765,0.26761
4044.57891,0.26599
4042.65016,0.26417
4040.72142,0.26216
4038.79267,0.26048
4036.86393,0.25930
4034.93518,0.25832
4033.00644,0.25730
4031.07769,0.25626
4029.14895,0.25532
4027.22020,0.25468
4025.29146,0.25447
4023.36271,0.25452
4021.43397,0.25453
4019.50522,0.25461
4017.57648,0.25483
4015.64773,0.25504
4013.71898,0.25554
4011.79024,0.25658
4009.86149,0.25781
4007.93275,0.25875
4006.00400,0.25944
4004.07526,0.26023
4002.14651,0.26121
4000.21777,0.26232
3998.28902,0.26354
3996.36028,0.26464
3994.43153,0.26557
3992.50279,0.26636
3990.57404,0.26709
3988.64530,0.26806
3986.71655,0.26906
3984.78780,0.26972
3982.85906,0.27033
3980.93031,0.27110
3979.00157,0.27190
3977.07282,0.27275
3975.14408,0.27357
3973.21533,0.27428
3971.28659,0.27491
3969.35784,0.27543
3967.42910,0.27606
3965.50035,0.27702
3963.57161,0.27817
3961.64286,0.27906
3959.71412,0.27962
3957.78537,0.28024
3955.85663,0.28112
3953.92788,0.28194
3951.99913,0.28259
3950.07039,0.28336
3948.14164,0.28441
3946.21290,0.28545
3944.28415,0.28631
3942.35541,0.28722
3940.42666,0.28830
3938.49792,0.28940
3936.56917,0.29046
3934.64043,0.29167
3932.71168,0.29292
3930.78294,0.29387
3928.85419,0.29469
3926.92545,0.29563
3924.99670,0.29671
3923.06795,0.29765
3921.13921,0.29826
3919.21046,0.29894
3917.28172,0.29993
3915.35297,0.30094
3913.42423,0.30191
3911.49548,0.30274
3909.56674,0.30310
3907.63799,0.30315
3905.70925,0.30335
3903.78050,0.30372
3901.85176,0.30440
3899.92301,0.30532
3897.99427,0.30605
3896.06552,0.30667
3894.13678,0.30740
3892.20803,0.30815
3890.27928,0.30882
3888.35054,0.30948
3886.42179,0.31023
3884.49305,0.31113
3882.56430,0.31195
3880.63556,0.31239
3878.70681,0.31249
3876.77807,0.31258
3874.84932,0.31285
3872.92058,0.31353
3870.99183,0.31480
3869.06309,0.31613
3867.13434,0.31696
3865.20560,0.31785
3863.27685,0.31918
3861.34811,0.32053
3859.41936,0.32156
3857.49061,0.32242
3855.56187,0.32351
3853.63312,0.32486
3851.70438,0.32597
3849.77563,0.32685
3847.84689,0.32783
3845.91814,0.32898
3843.98940,0.33000
3842.06065,0.33074
3840.13191,0.33137
3838.20316,0.33189
3836.27442,0.33230
3834.34567,0.33281
3832.41693,0.33327
3830.48818,0.33340
3828.55943,0.33348
3826.63069,0.33382
3824.70194,0.33416
3822.77320,0.33430
3820.84445,0.33418
3818.91571,0.33379
3816.98696,0.33366
3815.05822,0.33406
3813.12947,0.33442
3811.20073,0.33442
3809.27198,0.33431
3807.34324,0.33429
3805.41449,0.33431
3803.48575,0.33425
3801.55700,0.33432
3799.62826,0.33460
3797.69951,0.33488
3795.77076,0.33509
3793.84202,0.33526
3791.91327,0.33531
3789.98453,0.33536
3788.05578,0.33550
3786.12704,0.33560
3784.19829,0.33554
3782.26955,0.33524
3780.34080,0.33495
3778.41206,0.33509
3776.48331,0.33527
3774.55457,0.33493
3772.62582,0.33438
3770.69708,0.33418
3768.76833,0.33419
3766.83959,0.33402
3764.91084,0.33363
3762.98209,0.33327
3761.05335,0.33311
3759.12460,0.33299
3757.19586,0.33271
3755.26711,0.33227
3753.33837,0.33187
3751.40962,0.33166
3749.48088,0.33155
3747.55213,0.33144
3745.62339,0.33124
3743.69464,0.33057
3741.76590,0.32951
3739.83715,0.32847
3737.90841,0.32747
3735.97966,0.32652
3734.05091,0.32557
3732.12217,0.32438
3730.19342,0.32307
3728.26468,0.32200
3726.33593,0.32108
3724.40719,0.32006
3722.47844,0.31879
3720.54970,0.31727
3718.62095,0.31565
3716.69221,0.31405
3714.76346,0.31250
3712.83472,0.31101
3710.90597,0.30944
3708.97723,0.30744
3707.04848,0.30525
3705.11974,0.30330
3703.19099,0.30131
3701.26224,0.29891
3699.33350,0.29644
3697.40475,0.29409
3695.47601,0.29156
3693.54726,0.28878
3691.61852,0.28585
3689.68977,0.28284
3687.76103,0.27965
3685.83228,0.27623
3683.90354,0.27271
3681.97479,0.26908
3680.04605,0.26540
3678.11730,0.26153
3676.18856,0.25683
3674.25981,0.25173
3672.33107,0.24720
3670.40232,0.24240
3668.47357,0.23725
3666.54483,0.23246
3664.61608,0.22753
3662.68734,0.22236
3660.75859,0.21746
3658.82985,0.21273
3656.90110,0.20754
3654.97236,0.20200
3653.04361,0.19683
3651.11487,0.19187
3649.18612,0.18678
3647.25738,0.18184
3645.32863,0.17732
3643.39989,0.17309
3641.47114,0.16898
3639.54239,0.16482
3637.61365,0.16051
3635.68490,0.15621
3633.75616,0.15202
3631.82741,0.14804
3629.89867,0.14403
3627.96992,0.13974
3626.04118,0.13565
3624.11243,0.13196
3622.18369,0.12858
3620.25494,0.12519
3618.32620,0.12136
3616.39745,0.11766
3614.46871,0.11435
3612.53996,0.11095
3610.61122,0.10751
3608.68247,0.10433
3606.75372,0.10135
3604.82498,0.09860
3602.89623,0.09610
3600.96749,0.09355
3599.03874,0.09084
3597.11000,0.08817
3595.18125,0.08571
3593.25251,0.08346
3591.32376,0.08132
3589.39502,0.07924
3587.46627,0.07716
3585.53753,0.07515
3583.60878,0.07331
3581.68004,0.07153
3579.75129,0.06987
3577.82254,0.06843
3575.89380,0.06709
3573.96505,0.06562
3572.03631,0.06394
3570.10756,0.06225
3568.17882,0.06087
3566.25007,0.05980
3564.32133,0.05855
3562.39258,0.05711
3560.46384,0.05566
3558.53509,0.05410
3556.60635,0.05262
3554.67760,0.05143
3552.74886,0.05044
3550.82011,0.04969
3548.89137,0.04908
3546.96262,0.04821
3545.03387,0.04713
3543.10513,0.04618
3541.17638,0.04529
3539.24764,0.04438
3537.31889,0.04357
3535.39015,0.04289
3533.46140,0.04221
3531.53266,0.04140
3529.60391,0.04068
3527.67517,0.04027
3525.74642,0.03974
3523.81768,0.03896
3521.88893,0.03841
3519.96019,0.03813
3518.03144,0.03757
3516.10270,0.03678
3514.17395,0.03628
3512.24520,0.03594
3510.31646,0.03541
3508.38771,0.03498
3506.45897,0.03467
3504.53022,0.03411
3502.60148,0.03348
3500.67273,0.03313
3498.74399,0.03293
3496.81524,0.03270
3494.88650,0.03241
3492.95775,0.03199
3491.02901,0.03150
3489.10026,0.03108
3487.17152,0.03094
3485.24277,0.03102
3483.31402,0.03076
3481.38528,0.03011
3479.45653,0.02968
3477.52779,0.02948
3475.59904,0.02922
3473.67030,0.02892
3471.74155,0.02873
3469.81281,0.02881
3467.88406,0.02895
3465.95532,0.02883
3464.02657,0.02852
3462.09783,0.02831
3460.16908,0.02806
3458.24034,0.02770
3456.31159,0.02766
3454.38285,0.02803
3452.45410,0.02820
3450.52535,0.02789
3448.59661,0.02758
3446.66786,0.02750
3444.73912,0.02768
3442.81037,0.02815
3440.88163,0.02861
3438.95288,0.02875
3437.02414,0.02871
3435.09539,0.02865
3433.16665,0.02858
3431.23790,0.02861
3429.30916,0.02873
3427.38041,0.02866
3425.45167,0.02839
3423.52292,0.02809
3421.59418,0.02793
3419.66543,0.02790
3417.73668,0.02784
3415.80794,0.02784
3413.87919,0.02793
3411.95045,0.02813
3410.02170,0.02836
3408.09296,0.02842
3406.16421,0.02831
3404.23547,0.02805
3402.30672,0.02778
3400.37798,0.02789
3398.44923,0.02833
3396.52049,0.02855
3394.59174,0.02836
3392.66300,0.02821
3390.73425,0.02846
3388.80550,0.02877
3386.87676,0.02891
3384.94801,0.02898
3383.01927,0.02887
3381.09052,0.02870
3379.16178,0.02883
3377.23303,0.02915
3375.30429,0.02936
3373.37554,0.02937
3371.44680,0.02927
3369.51805,0.02923
3367.58931,0.02940
3365.66056,0.02959
3363.73182,0.02972
3361.80307,0.02996
3359.87433,0.03028
3357.94558,0.03048
3356.01683,0.03074
3354.08809,0.03126
3352.15934,0.03174
3350.23060,0.03181
3348.30185,0.03165
3346.37311,0.03171
3344.44436,0.03217
3342.51562,0.03273
3340.58687,0.03322
3338.65813,0.03366
3336.72938,0.03382
3334.80064,0.03370
3332.87189,0.03379
3330.94315,0.03418
3329.01440,0.03438
3327.08566,0.03432
3325.15691,0.03446
3323.22816,0.03488
3321.29942,0.03520
3319.37067,0.03520
3317.44193,0.03489
3315.51318,0.03433
3313.58444,0.03395
3311.65569,0.03424
3309.72695,0.03475
3307.79820,0.03489
3305.86946,0.03494
3303.94071,0.03513
3302.01197,0.03519
3300.08322,0.03518
3298.15448,0.03528
3296.22573,0.03559
3294.29698,0.03597
3292.36824,0.03607
3290.43949,0.03591
3288.51075,0.03583
3286.58200,0.03594
3284.65326,0.03616
3282.72451,0.03645
3280.79577,0.03681
3278.86702,0.03706
3276.93828,0.03717
3275.00953,0.03723
3273.08079,0.03729
3271.15204,0.03737
3269.22330,0.03754
3267.29455,0.03803
3265.36581,0.03896
3263.43706,0.03972
3261.50831,0.03978
3259.57957,0.03958
3257.65082,0.03955
3255.72208,0.03969
3253.79333,0.04012
3251.86459,0.04076
3249.93584,0.04095
3248.00710,0.04078
3246.07835,0.04108
3244.14961,0.04164
3242.22086,0.04183
3240.29212,0.04184
3238.36337,0.04197
3236.43463,0.04213
3234.50588,0.04225
3232.57713,0.04260
3230.64839,0.04345
3228.71964,0.04449
3226.79090,0.04515
3224.86215,0.04533
3222.93341,0.04533
3221.00466,0.04542
3219.07592,0.04568
3217.14717,0.04605
3215.21843,0.04636
3213.28968,0.04660
3211.36094,0.04692
3209.43219,0.04741
3207.50345,0.04809
3205.57470,0.04865
3203.64596,0.04899
3201.71721,0.04946
3199.78846,0.05011
3197.85972,0.05070
3195.93097,0.05109
3194.00223,0.05128
3192.07348,0.05158
3190.14474,0.05206
3188.21599,0.05247
3186.28725,0.05312
3184.35850,0.05413
3182.42976,0.05496
3180.50101,0.05539
3178.57227,0.05582
3176.64352,0.05642
3174.71478,0.05700
3172.78603,0.05753
3170.85729,0.05810
3168.92854,0.05863
3166.99979,0.05909
3165.07105,0.05967
3163.14230,0.06044
3161.21356,0.06108
3159.28481,0.06139
3157.35607,0.06174
3155.42732,0.06242
3153.49858,0.06332
3151.56983,0.06423
3149.64109,0.06502
3147.71234,0.06566
3145.78360,0.06619
3143.85485,0.06678
3141.92611,0.06755
3139.99736,0.06845
3138.06861,0.06938
3136.13987,0.07020
3134.21112,0.07092
3132.28238,0.07151
3130.35363,0.07205
3128.42489,0.07279
3126.49614,0.07358
3124.56740,0.07409
3122.63865,0.07452
3120.70991,0.07513
3118.78116,0.07594
3116.85242,0.07692
3114.92367,0.07793
3112.99493,0.07894
3111.06618,0.07995
3109.13744,0.08076
3107.20869,0.08127
3105.27994,0.08177
3103.35120,0.08258
3101.42245,0.08371
3099.49371,0.08481
3097.56496,0.08557
3095.63622,0.08612
3093.70747,0.08683
3091.77873,0.08774
3089.84998,0.08870
3087.92124,0.08965
3085.99249,0.09047
3084.06375,0.09123
3082.13500,0.09205
3080.20626,0.09286
3078.27751,0.09367
3076.34877,0.09449
3074.42002,0.09530
3072.49127,0.09615
3070.56253,0.09705
3068.63378,0.09791
3066.70504,0.09880
3064.77629,0.09972
3062.84755,0.10043
3060.91880,0.10097
3058.99006,0.10168
3057.06131,0.10268
3055.13257,0.10369
3053.20382,0.10455
3051.27508,0.10523
3049.34633,0.10576
3047.41759,0.10631
3045.48884,0.10697
3043.56009,0.10760
3041.63135,0.10798
3039.70260,0.10834
3037.77386,0.10895
3035.84511,0.10960
3033.91637,0.11016
3031.98762,0.11077
3030.05888,0.11143
3028.13013,0.11209
3026.20139,0.11268
3024.27264,0.11318
3022.34390,0.11361
3020.41515,0.11411
3018.48641,0.11455
3016.55766,0.11476
3014.62892,0.11497
3012.70017,0.11525
3010.77142,0.11535
3008.84268,0.11530
3006.91393,0.11516
3004.98519,0.11485
3003.05644,0.11435
3001.12770,0.11374
2999.19895,0.11313
2997.27021,0.11246
2995.34146,0.11160
2993.41272,0.11037
2991.48397,0.10874
2989.55523,0.10684
2987.62648,0.10458
2985.69774,0.10192
2983.76899,0.09894
2981.84025,0.09572
2979.91150,0.09217
2977.98275,0.08808
2976.05401,0.08345
2974.12526,0.07855
2972.19652,0.07395
2970.26777,0.07024
2968.33903,0.06777
2966.41028,0.06648
2964.48154,0.06589
2962.55279,0.06558
2960.62405,0.06541
2958.69530,0.06518
2956.76656,0.06457
2954.83781,0.06344
2952.90907,0.06193
2950.98032,0.06051
2949.05157,0.05945
2947.12283,0.05850
2945.19408,0.05758
2943.26534,0.05688
2941.33659,0.05652
2939.40785,0.05645
2937.47910,0.05643
2935.55036,0.05626
2933.62161,0.05585
2931.69287,0.05523
2929.76412,0.05452
2927.83538,0.05371
2925.90663,0.05288
2923.97789,0.05220
2922.04914,0.05155
2920.12040,0.05074
2918.19165,0.04984
2916.26290,0.04906
2914.33416,0.04847
2912.40541,0.04806
2910.47667,0.04761
2908.54792,0.04697
2906.61918,0.04654
2904.69043,0.04659
2902.76169,0.04674
2900.83294,0.04685
2898.90420,0.04704
2896.97545,0.04725
2895.04671,0.04755
2893.11796,0.04808
2891.18922,0.04882
2889.26047,0.04960
2887.33172,0.05037
2885.40298,0.05109
2883.47423,0.05158
2881.54549,0.05188
2879.61674,0.05207
2877.68800,0.05213
2875.75925,0.05218
2873.83051,0.05228
2871.90176,0.05237
2869.97302,0.05260
2868.04427,0.05309
2866.11553,0.05363
2864.18678,0.05404
2862.25804,0.05446
2860.32929,0.05501
2858.40055,0.05563
2856.47180,0.05641
2854.54305,0.05731
2852.61431,0.05814
2850.68556,0.05909
2848.75682,0.06054
2846.82807,0.06244
2844.89933,0.06443
2842.97058,0.06633
2841.04184,0.06832
2839.11309,0.07043
2837.18435,0.07242
2835.25560,0.07417
2833.32686,0.07574
2831.39811,0.07716
2829.46937,0.07854
2827.54062,0.07997
2825.61188,0.08134
2823.68313,0.08270
2821.75438,0.08420
2819.82564,0.08583
2817.89689,0.08750
2815.96815,0.08899
2814.03940,0.09032
2812.11066,0.09182
2810.18191,0.09337
2808.25317,0.09475
2806.32442,0.09602
2804.39568,0.09729
2802.46693,0.09860
2800.53819,0.09993
2798.60944,0.10111
2796.68070,0.10203
2794.75195,0.10278
2792.82320,0.10358
2790.89446,0.10437
2788.96571,0.10490
2787.03697,0.10514
2785.10822,0.10522
2783.17948,0.10535
2781.25073,0.10577
2779.32199,0.10641
2777.39324,0.10693
2775.46450,0.10725
2773.53575,0.10745
2771.60701,0.10744
2769.67826,0.10728
2767.74952,0.10722
2765.82077,0.10741
2763.89203,0.10770
2761.96328,0.10788
2760.03453,0.10804
2758.10579,0.10834
2756.17704,0.10877
2754.24830,0.10912
2752.31955,0.10909
2750.39081,0.10883
2748.46206,0.10876
2746.53332,0.10883
2744.60457,0.10862
2742.67583,0.10816
2740.74708,0.10792
2738.81834,0.10797
2736.88959,0.10822
2734.96085,0.10856
2733.03210,0.10879
2731.10336,0.10904
2729.17461,0.10953
2727.24586,0.11004
2725.31712,0.11041
2723.38837,0.11080
2721.45963,0.11133
2719.53088,0.11185
2717.60214,0.11227
2715.67339,0.11281
2713.74465,0.11367
2711.81590,0.11467
2709.88716,0.11559
2707.95841,0.11641
2706.02967,0.11717
2704.10092,0.11801
2702.17218,0.11906
2700.24343,0.12022
2698.31468,0.12131
2696.38594,0.12238
2694.45719,0.12351
2692.52845,0.12461
2690.59970,0.12565
2688.67096,0.12668
2686.74221,0.12773
2684.81347,0.12880
2682.88472,0.12987
2680.95598,0.13090
2679.02723,0.13189
2677.09849,0.13287
2675.16974,0.13383
2673.24100,0.13460
2671.31225,0.13514
2669.38351,0.13557
2667.45476,0.13586
2665.52601,0.13613
2663.59727,0.13664
2661.66852,0.13725
2659.73978,0.13763
2657.81103,0.13800
2655.88229,0.13865
2653.95354,0.13946
2652.02480,0.14025
2650.09605,0.14092
2648.16731,0.14154
2646.23856,0.14232
2644.30982,0.14318
2642.38107,0.14396
2640.45233,0.14474
2638.52358,0.14553
2636.59484,0.14622
2634.66609,0.14679
2632.73734,0.14740
2630.80860,0.14819
2628.87985,0.14903
2626.95111,0.14981
2625.02236,0.15055
2623.09362,0.15121
2621.16487,0.15178
2619.23613,0.15235
2617.30738,0.15304
2615.37864,0.15375
2613.44989,0.15425
2611.52115,0.15457
2609.59240,0.15498
2607.66366,0.15561
2605.73491,0.15623
2603.80616,0.15666
2601.87742,0.15711
2599.94867,0.15773
2598.01993,0.15838
2596.09118,0.15889
2594.16244,0.15929
2592.23369,0.15963
2590.30495,0.15986
2588.37620,0.16011
2586.44746,0.16048
2584.51871,0.16083
2582.58997,0.16099
2580.66122,0.16104
2578.73248,0.16109
2576.80373,0.16109
2574.87499,0.16095
2572.94624,0.16080
2571.01749,0.16067
2569.08875,0.16052
2567.16000,0.16030
2565.23126,0.15992
2563.30251,0.15947
2561.37377,0.15918
2559.44502,0.15909
2557.51628,0.15903
2555.58753,0.15890
2553.65879,0.15863
2551.73004,0.15821
2549.80130,0.15780
2547.87255,0.15747
2545.94381,0.15716
2544.01506,0.15699
2542.08631,0.15696
2540.15757,0.15688
2538.22882,0.15682
2536.30008,0.15698
2534.37133,0.15738
2532.44259,0.15781
2530.51384,0.15810
2528.58510,0.15843
2526.65635,0.15895
2524.72761,0.15942
2522.79886,0.15969
2520.87012,0.15981
2518.94137,0.15984
2517.01263,0.15997
2515.08388,0.16043
2513.15514,0.16121
2511.22639,0.16218
2509.29764,0.16331
2507.36890,0.16457
2505.44015,0.16595
2503.51141,0.16737
2501.58266,0.16857
2499.65392,0.16960
2497.72517,0.17072
2495.79643,0.17197
2493.86768,0.17321
2491.93894,0.17436
2490.01019,0.17541
2488.08145,0.17638
2486.15270,0.17719
2484.22396,0.17794
2482.29521,0.17881
2480.36647,0.17978
2478.43772,0.18081
2476.50897,0.18181
2474.58023,0.18272
2472.65148,0.18366
2470.72274,0.18460
2468.79399,0.18527
2466.86525,0.18568
2464.93650,0.18614
2463.00776,0.18670
2461.07901,0.18715
2459.15027,0.18749
2457.22152,0.18786
2455.29278,0.18829
2453.36403,0.18890
2451.43529,0.18973
2449.50654,0.19060
2447.57779,0.19142
2445.64905,0.19233
2443.72030,0.19332
2441.79156,0.19429
2439.86281,0.19524
2437.93407,0.19618
2436.00532,0.19717
2434.07658,0.19839
2432.14783,0.19976
2430.21909,0.20093
2428.29034,0.20187
2426.36160,0.20282
2424.43285,0.20392
2422.50411,0.20508
2420.57536,0.20622
2418.64662,0.20734
2416.71787,0.20840
2414.78912,0.20936
2412.86038,0.21022
2410.93163,0.21097
2409.00289,0.21174
2407.07414,0.21262
2405.14540,0.21342
2403.21665,0.21414
2401.28791,0.21501
2399.35916,0.21603
2397.43042,0.21694
2395.50167,0.21769
2393.57293,0.21842
2391.64418,0.21929
2389.71544,0.22025
2387.78669,0.22110
2385.85795,0.22175
2383.92920,0.22236
2382.00045,0.22320
2380.07171,0.22425
2378.14296,0.22529
2376.21422,0.22631
2374.28547,0.22733
2372.35673,0.22845
2370.42798,0.22966
2368.49924,0.23082
2366.57049,0.23175
2364.64175,0.23248
2362.71300,0.23316
2360.78426,0.23385
2358.85551,0.23442
2356.92677,0.23488
2354.99802,0.23529
2353.06927,0.23572
2351.14053,0.23632
2349.21178,0.23704
2347.28304,0.23788
2345.35429,0.23897
2343.42555,0.24008
2341.49680,0.24098
2339.56806,0.24161
2337.63931,0.24207
2335.71057,0.24266
2333.78182,0.24343
2331.85308,0.24405
2329.92433,0.24440
2327.99559,0.24473
2326.06684,0.24520
2324.13810,0.24580
2322.20935,0.24645
2320.28060,0.24709
2318.35186,0.24757
2316.42311,0.24788
2314.49437,0.24813
2312.56562,0.24827
2310.63688,0.24831
2308.70813,0.24833
2306.77939,0.24834
2304.85064,0.24819
2302.92190,0.24782
2300.99315,0.24729
2299.06441,0.24667
2297.13566,0.24613
2295.20692,0.24574
2293.27817,0.24537
2291.34943,0.24505
2289.42068,0.24481
2287.49193,0.24457
2285.56319,0.24435
2283.63444,0.24426
2281.70570,0.24414
2279.77695,0.24369
2277.84821,0.24292
2275.91946,0.24210
2273.99072,0.24132
2272.06197,0.24043
2270.13323,0.23926
2268.20448,0.23777
2266.27574,0.23622
2264.34699,0.23469
2262.41825,0.23312
2260.48950,0.23178
2258.56075,0.23079
2256.63201,0.22996
2254.70326,0.22920
2252.77452,0.22854
2250.84577,0.22801
2248.91703,0.22755
2246.98828,0.22704
2245.05954,0.22650
2243.13079,0.22603
2241.20205,0.22567
2239.27330,0.22535
2237.34456,0.22514
2235.41581,0.22513
2233.48707,0.22511
2231.55832,0.22501
2229.62958,0.22496
2227.70083,0.22505
2225.77208,0.22539
2223.84334,0.22604
2221.91459,0.22690
2219.98585,0.22779
2218.05710,0.22863
2216.12836,0.22943
2214.19961,0.23021
2212.27087,0.23081
2210.34212,0.23130
2208.41338,0.23181
2206.48463,0.23207
2204.55589,0.23194
2202.62714,0.23160
2200.69840,0.23119
2198.76965,0.23071
2196.84090,0.23020
2194.91216,0.22962
2192.98341,0.22885
2191.05467,0.22788
2189.12592,0.22687
2187.19718,0.22574
2185.26843,0.22428
2183.33969,0.22263
2181.41094,0.22103
2179.48220,0.21936
2177.55345,0.21750
2175.62471,0.21559
2173.69596,0.21376
2171.76722,0.21208
2169.83847,0.21052
2167.90973,0.20887
2165.98098,0.20719
2164.05223,0.20579
2162.12349,0.20470
2160.19474,0.20371
2158.26600,0.20271
2156.33725,0.20177
2154.40851,0.20098
2152.47976,0.20032
2150.55102,0.19957
2148.62227,0.19867
2146.69353,0.19783
2144.76478,0.19712
2142.83604,0.19632
2140.90729,0.19549
2138.97855,0.19495
2137.04980,0.19470
2135.12106,0.19457
2133.19231,0.19468
2131.26356,0.19512
2129.33482,0.19580
2127.40607,0.19666
2125.47733,0.19756
2123.54858,0.19839
2121.61984,0.19925
2119.69109,0.20020
2117.76235,0.20108
2115.83360,0.20192
2113.90486,0.20283
2111.97611,0.20365
2110.04737,0.20436
2108.11862,0.20519
2106.18988,0.20616
2104.26113,0.20711
2102.33238,0.20799
2100.40364,0.20881
2098.47489,0.20961
2096.54615,0.21038
2094.61740,0.21109
2092.68866,0.21179
2090.75991,0.21251
2088.83117,0.21318
2086.90242,0.21381
2084.97368,0.21432
2083.04493,0.21460
2081.11619,0.21468
2079.18744,0.21465
2077.25870,0.21451
2075.32995,0.21429
2073.40121,0.21398
2071.47246,0.21357
2069.54371,0.21325
2067.61497,0.21315
2065.68622,0.21312
2063.75748,0.21307
2061.82873,0.21308
2059.89999,0.21319
2057.97124,0.21327
2056.04250,0.21326
2054.11375,0.21326
2052.18501,0.21332
2050.25626,0.21336
2048.32752,0.21345
2046.39877,0.21370
2044.47003,0.21416
2042.54128,0.21480
2040.61254,0.21550
2038.68379,0.21622
2036.75504,0.21716
2034.82630,0.21841
2032.89755,0.21988
2030.96881,0.22144
2029.04006,0.22313
2027.11132,0.22499
2025.18257,0.22693
2023.25383,0.22885
2021.32508,0.23072
2019.39634,0.23257
2017.46759,0.23444
2015.53885,0.23620
2013.61010,0.23780
2011.68136,0.23924
2009.75261,0.24050
2007.82386,0.24152
2005.89512,0.24228
2003.96637,0.24289
2002.03763,0.24349
2000.10888,0.24401
1998.18014,0.24449
1996.25139,0.24511
1994.32265,0.24597
1992.39390,0.24697
1990.46516,0.24807
1988.53641,0.24919
1986.60767,0.25021
1984.67892,0.25113
1982.75018,0.25195
1980.82143,0.25266
1978.89269,0.25331
1976.96394,0.25379
1975.03519,0.25409
1973.10645,0.25433
1971.17770,0.25461
1969.24896,0.25495
1967.32021,0.25536
1965.39147,0.25585
1963.46272,0.25647
1961.53398,0.25708
1959.60523,0.25753
1957.67649,0.25807
1955.74774,0.25900
1953.81900,0.26015
1951.89025,0.26130
1949.96151,0.26239
1948.03276,0.26350
1946.10402,0.26467
1944.17527,0.26603
1942.24652,0.26773
1940.31778,0.26956
1938.38903,0.27111
1936.46029,0.27234
1934.53154,0.27351
1932.60280,0.27468
1930.67405,0.27578
1928.74531,0.27674
1926.81656,0.27748
1924.88782,0.27813
1922.95907,0.27884
1921.03033,0.27954
1919.10158,0.28016
1917.17284,0.28066
1915.24409,0.28104
1913.31534,0.28144
1911.38660,0.28192
1909.45785,0.28239
1907.52911,0.28281
1905.60036,0.28310
1903.67162,0.28318
1901.74287,0.28321
1899.81413,0.28328
1897.88538,0.28325
1895.95664,0.28302
1894.02789,0.28261
1892.09915,0.28221
1890.17040,0.28186
1888.24166,0.28152
1886.31291,0.28130
1884.38417,0.28123
1882.45542,0.28116
1880.52667,0.28098
1878.59793,0.28067
1876.66918,0.28037
1874.74044,0.28005
1872.81169,0.27972
1870.88295,0.27950
1868.95420,0.27919
1867.02546,0.27864
1865.09671,0.27812
1863.16797,0.27769
1861.23922,0.27718
1859.31048,0.27642
1857.38173,0.27547
1855.45299,0.27460
1853.52424,0.27379
1851.59549,0.27285
1849.66675,0.27178
1847.73800,0.27062
1845.80926,0.26938
1843.88051,0.26810
1841.95177,0.26688
1840.02302,0.26584
1838.09428,0.26498
1836.16553,0.26427
1834.23679,0.26356
1832.30804,0.26281
1830.37930,0.26211
1828.45055,0.26142
1826.52181,0.26067
1824.59306,0.25985
1822.66432,0.25900
1820.73557,0.25814
1818.80682,0.25722
1816.87808,0.25621
1814.94933,0.25511
1813.02059,0.25401
1811.09184,0.25294
1809.16310,0.25182
1807.23435,0.25060
1805.30561,0.24927
1803.37686,0.24798
1801.44812,0.24676
1799.51937,0.24545
1797.59063,0.24426
1795.66188,0.24328
1793.73314,0.24218
1791.80439,0.24077
1789.87565,0.23947
1787.94690,0.23850
1786.01815,0.23750
1784.08941,0.23623
1782.16066,0.23476
1780.23192,0.23321
1778.30317,0.23161
1776.37443,0.23010
1774.44568,0.22865
1772.51694,0.22698
1770.58819,0.22510
1768.65945,0.22323
1766.73070,0.22143
1764.80196,0.21984
1762.87321,0.21841
1760.94447,0.21694
1759.01572,0.21543
1757.08697,0.21396
1755.15823,0.21258
1753.22948,0.21123
1751.30074,0.20963
1749.37199,0.20778
1747.44325,0.20595
1745.51450,0.20410
1743.58576,0.20206
1741.65701,0.19986
1739.72827,0.19775
1737.79952,0.19613
1735.87078,0.19482
1733.94203,0.19328
1732.01329,0.19163
1730.08454,0.19013
1728.15580,0.18878
1726.22705,0.18775
1724.29830,0.18696
1722.36956,0.18618
1720.44081,0.18529
1718.51207,0.18416
1716.58332,0.18282
1714.65458,0.18152
1712.72583,0.18026
1710.79709,0.17886
1708.86834,0.17741
1706.93960,0.17586
1705.01085,0.17423
1703.08211,0.17269
1701.15336,0.17089
1699.22462,0.16864
1697.29587,0.16644
1695.36713,0.16389
1693.43838,0.16097
1691.50963,0.15815
1689.58089,0.15526
1687.65214,0.15243
1685.72340,0.14937
1683.79465,0.14555
1681.86591,0.14192
1679.93716,0.13874
1678.00842,0.13544
1676.07967,0.13184
1674.15093,0.12832
1672.22218,0.12538
1670.29344,0.12262
1668.36469,0.11973
1666.43595,0.11724
1664.50720,0.11507
1662.57845,0.11284
1660.64971,0.11084
1658.72096,0.10947
1656.79222,0.10851
1654.86347,0.10750
1652.93473,0.10613
1651.00598,0.10484
1649.07724,0.10390
1647.14849,0.10286
1645.21975,0.10184
1643.29100,0.10129
1641.36226,0.10100
1639.43351,0.10066
1637.50477,0.10032
1635.57602,0.10005
1633.64728,0.09977
1631.71853,0.09963
1629.78978,0.09984
1627.86104,0.10028
1625.93229,0.10081
1624.00355,0.10140
1622.07480,0.10204
1620.14606,0.10268
1618.21731,0.10337
1616.28857,0.10410
1614.35982,0.10464
1612.43108,0.10497
1610.50233,0.10515
1608.57359,0.10521
1606.64484,0.10531
1604.71610,0.10568
1602.78735,0.10632
1600.85861,0.10709
1598.92986,0.10780
1597.00111,0.10838
1595.07237,0.10913
1593.14362,0.11023
1591.21488,0.11146
1589.28613,0.11279
1587.35739,0.11424
1585.42864,0.11564
1583.49990,0.11698
1581.57115,0.11841
1579.64241,0.11989
1577.71366,0.12145
1575.78492,0.12302
1573.85617,0.12417
1571.92743,0.12502
1569.99868,0.12590
1568.06993,0.12671
1566.14119,0.12730
1564.21244,0.12778
1562.28370,0.12825
1560.35495,0.12870
1558.42621,0.12897
1556.49746,0.12888
1554.56872,0.12872
1552.63997,0.12863
1550.71123,0.12854
1548.78248,0.12833
1546.85374,0.12805
1544.92499,0.12787
1542.99625,0.12790
1541.06750,0.12797
1539.13876,0.12772
1537.21001,0.12721
1535.28126,0.12663
1533.35252,0.12587
1531.42377,0.12494
1529.49503,0.12400
1527.56628,0.12301
1525.63754,0.12183
1523.70879,0.12050
1521.78005,0.11877
1519.85130,0.11664
1517.92256,0.11448
1515.99381,0.11228
1514.06507,0.11019
1512.13632,0.10834
1510.20758,0.10675
1508.27883,0.10520
1506.35008,0.10323
1504.42134,0.10135
1502.49259,0.10011
1500.56385,0.09889
1498.63510,0.09714
1496.70636,0.09481
1494.77761,0.09218
1492.84887,0.08942
1490.92012,0.08600
1488.99138,0.08165
1487.06263,0.07694
1485.13389,0.07245
1483.20514,0.06855
1481.27640,0.06558
1479.34765,0.06346
1477.41891,0.06173
1475.49016,0.05994
1473.56141,0.05779
1471.63267,0.05536
1469.70392,0.05316
1467.77518,0.05121
1465.84643,0.04921
1463.91769,0.04718
1461.98894,0.04552
1460.06020,0.04426
1458.13145,0.04294
1456.20271,0.04163
1454.27396,0.04091
1452.34522,0.04050
1450.41647,0.04000
1448.48773,0.03948
1446.55898,0.03893
1444.63024,0.03824
1442.70149,0.03753
1440.77274,0.03693
1438.84400,0.03629
1436.91525,0.03541
1434.98651,0.03469
1433.05776,0.03446
1431.12902,0.03459
1429.20027,0.03503
1427.27153,0.03569
1425.34278,0.03652
1423.41404,0.03758
1421.48529,0.03883
1419.55655,0.04021
1417.62780,0.04156
1415.69906,0.04252
1413.77031,0.04308
1411.84156,0.04347
1409.91282,0.04364
1407.98407,0.04354
1406.05533,0.04340
1404.12658,0.04344
1402.19784,0.04363
1400.26909,0.04367
1398.34035,0.04339
1396.41160,0.04296
1394.48286,0.04238
1392.55411,0.04157
1390.62537,0.04058
1388.69662,0.03937
1386.76788,0.03786
1384.83913,0.03632
1382.91039,0.03502
1380.98164,0.03388
1379.05289,0.03293
1377.12415,0.03228
1375.19540,0.03182
1373.26666,0.03151
1371.33791,0.03151
1369.40917,0.03186
1367.48042,0.03235
1365.55168,0.03282
1363.62293,0.03322
1361.69419,0.03343
1359.76544,0.03345
1357.83670,0.03352
1355.90795,0.03383
1353.97921,0.03433
1352.05046,0.03483
1350.12172,0.03511
1348.19297,0.03509
1346.26422,0.03487
1344.33548,0.03451
1342.40673,0.03405
1340.47799,0.03362
1338.54924,0.03345
1336.62050,0.03350
1334.69175,0.03359
1332.76301,0.03376
1330.83426,0.03409
1328.90552,0.03430
1326.97677,0.03426
1325.04803,0.03415
1323.11928,0.03397
1321.19054,0.03378
1319.26179,0.03388
1317.33304,0.03439
1315.40430,0.03517
1313.47555,0.03621
1311.54681,0.03737
1309.61806,0.03834
1307.68932,0.03907
1305.76057,0.03982
1303.83183,0.04076
1301.90308,0.04169
1299.97434,0.04223
1298.04559,0.04225
1296.11685,0.04197
1294.18810,0.04148
1292.25936,0.04085
1290.33061,0.04030
1288.40187,0.03967
1286.47312,0.03869
1284.54437,0.03769
1282.61563,0.03733
1280.68688,0.03779
1278.75814,0.03872
1276.82939,0.03961
1274.90065,0.04027
1272.97190,0.04072
1271.04316,0.04078
1269.11441,0.04040
1267.18567,0.03985
1265.25692,0.03933
1263.32818,0.03903
1261.39943,0.03909
1259.47069,0.03936
1257.54194,0.03962
1255.61320,0.03984
1253.68445,0.04003
1251.75570,0.04008
1249.82696,0.03995
1247.89821,0.03980
1245.96947,0.03965
1244.04072,0.03939
1242.11198,0.03908
1240.18323,0.03882
1238.25449,0.03861
1236.32574,0.03853
1234.39700,0.03870
1232.46825,0.03911
1230.53951,0.03957
1228.61076,0.04005
1226.68202,0.04059
1224.75327,0.04101
1222.82452,0.04118
1220.89578,0.04113
1218.96703,0.04067
1217.03829,0.03962
1215.10954,0.03818
1213.18080,0.03634
1211.25205,0.03411
1209.32331,0.03218
1207.39456,0.03110
1205.46582,0.03053
1203.53707,0.03009
1201.60833,0.02989
1199.67958,0.02991
1197.75084,0.03014
1195.82209,0.03049
1193.89335,0.03066
1191.96460,0.03053
1190.03585,0.03014
1188.10711,0.02943
1186.17836,0.02861
1184.24962,0.02803
1182.32087,0.02758
1180.39213,0.02710
1178.46338,0.02698
1176.53464,0.02770
1174.60589,0.02938
1172.67715,0.03183
1170.74840,0.03492
1168.81966,0.03821
1166.89091,0.04075
1164.96217,0.04189
1163.03342,0.04174
1161.10467,0.04068
1159.17593,0.03912
1157.24718,0.03752
1155.31844,0.03608
1153.38969,0.03451
1151.46095,0.03278
1149.53220,0.03119
1147.60346,0.02984
1145.67471,0.02864
1143.74597,0.02766
1141.81722,0.02695
1139.88848,0.02612
1137.95973,0.02470
1136.03099,0.02313
1134.10224,0.02233
1132.17350,0.02232
1130.24475,0.02253
1128.31600,0.02284
1126.38726,0.02357
1124.45851,0.02482
1122.52977,0.02623
1120.60102,0.02732
1118.67228,0.02824
1116.74353,0.02974
1114.81479,0.03188
1112.88604,0.03382
1110.95730,0.03492
1109.02855,0.03526
1107.09981,0.03497
1105.17106,0.03436
1103.24232,0.03376
1101.31357,0.03326
1099.38483,0.03267
1097.45608,0.03183
1095.52733,0.03084
1093.59859,0.02987
1091.66984,0.02931
1089.74110,0.02949
1087.81235,0.03009
1085.88361,0.03080
1083.95486,0.03218
1082.02612,0.03469
1080.09737,0.03803
1078.16863,0.04159
1076.23988,0.04478
1074.31114,0.04731
1072.38239,0.04966
1070.45365,0.05248
1068.52490,0.05597
1066.59615,0.06012
1064.66741,0.06451
1062.73866,0.06810
1060.80992,0.07006
1058.88117,0.07019
1056.95243,0.06876
1055.02368,0.06633
1053.09494,0.06349
1051.16619,0.06054
1049.23745,0.05773
1047.30870,0.05528
1045.37996,0.05338
1043.45121,0.05259
1041.52247,0.05346
1039.59372,0.05595
1037.66498,0.05922
1035.73623,0.06199
1033.80748,0.06329
1031.87874,0.06315
1029.94999,0.06230
1028.02125,0.06140
1026.09250,0.06054
1024.16376,0.05959
1022.23501,0.05880
1020.30627,0.05842
1018.37752,0.05841
1016.44878,0.05867
1014.52003,0.05916
1012.59129,0.05953
1010.66254,0.05928
1008.73380,0.05858
1006.80505,0.05798
1004.87631,0.05761
1002.94756,0.05745
1001.01881,0.05772
999.09007,0.05844
997.16132,0.05926
995.23258,0.05980
993.30383,0.05996
991.37509,0.06003
989.44634,0.06044
987.51760,0.06132
985.58885,0.06271
983.66011,0.06501
981.73136,0.06824
979.80262,0.07168
977.87387,0.07471
975.94513,0.07732
974.01638,0.07967
972.08763,0.08174
970.15889,0.08366
968.23014,0.08553
966.30140,0.08753
964.37265,0.08993
962.44391,0.09256
960.51516,0.09533
958.58642,0.09840
956.65767,0.10145
954.72893,0.10406
952.80018,0.10628
950.87144,0.10822
948.94269,0.10977
947.01395,0.11092
945.08520,0.11196
943.15646,0.11298
941.22771,0.11372
939.29896,0.11405
937.37022,0.11433
935.44147,0.11460
933.51273,0.11461
931.58398,0.11457
929.65524,0.11467
927.72649,0.11488
925.79775,0.11518
923.86900,0.11548
921.94026,0.11556
920.01151,0.11484
918.08277,0.11281
916.15402,0.11000
914.22528,0.10721
912.29653,0.10450
910.36779,0.10174
908.43904,0.09902
906.51029,0.09628
904.58155,0.09363
902.65280,0.09138
900.72406,0.08955
898.79531,0.08829
896.86657,0.08810
894.93782,0.08900
893.00908,0.09057
891.08033,0.09283
889.15159,0.09595
887.22284,0.09958
885.29410,0.10309
883.36535,0.10595
881.43661,0.10833
879.50786,0.11048
877.57911,0.11209
875.65037,0.11350
873.72162,0.11532
871.79288,0.11715
869.86413,0.11871
867.93539,0.12032
866.00664,0.12164
864.07790,0.12247
862.14915,0.12316
860.22041,0.12390
858.29166,0.12454
856.36292,0.12464
854.43417,0.12420
852.50543,0.12378
850.57668,0.12347
848.64794,0.12294
846.71919,0.12225
844.79044,0.12159
842.86170,0.12064
840.93295,0.11923
839.00421,0.11776
837.07546,0.11649
835.14672,0.11529
833.21797,0.11384
831.28923,0.11175
829.36048,0.10895
827.43174,0.10573
825.50299,0.10245
823.57425,0.09940
821.64550,0.09685
819.71676,0.09490
817.78801,0.09330
815.85926,0.09151
813.93052,0.08944
812.00177,0.08751
810.07303,0.08571
808.14428,0.08375
806.21554,0.08168
804.28679,0.08019
802.35805,0.07979
800.42930,0.07990
798.50056,0.07990
796.57181,0.07998
794.64307,0.08053
792.71432,0.08153
790.78558,0.08288
788.85683,0.08431
786.92809,0.08533
784.99934,0.08588
783.07059,0.08626
781.14185,0.08634
779.21310,0.08584
777.28436,0.08497
775.35561,0.08421
773.42687,0.08359
771.49812,0.08282
769.56938,0.08170
767.64063,0.08029
765.71189,0.07892
763.78314,0.07751
761.85440,0.07576
759.92565,0.07397
757.99691,0.07263
756.06816,0.07159
754.13942,0.07038
752.21067,0.06917
750.28192,0.06841
748.35318,0.06765
746.42443,0.06620
744.49569,0.06441
742.56694,0.06303
740.63820,0.06202
738.70945,0.06076
736.78071,0.05915
734.85196,0.05764
732.92322,0.05647
730.99447,0.05533
729.06573,0.05387
727.13698,0.05248
725.20824,0.05151
723.27949,0.05064
721.35074,0.04972
719.42200,0.04904
717.49325,0.04861
715.56451,0.04802
713.63576,0.04736
711.70702,0.04700
709.77827,0.04683
707.84953,0.04678
705.92078,0.04717
703.99204,0.04796
702.06329,0.04843
700.13455,0.04854
698.20580,0.04892
696.27706,0.04932
694.34831,0.04923
692.41957,0.04888
690.49082,0.04871
688.56207,0.04870
686.63333,0.04847
684.70458,0.04804
682.77584,0.04774
680.84709,0.04719
678.91835,0.04641
676.98960,0.04625
675.06086,0.04617
673.13211,0.04567
671.20337,0.04573
669.27462,0.04635
667.34588,0.04656
665.41713,0.04613
663.48839,0.04547
661.55964,0.04511
659.63090,0.04540
657.70215,0.04610
655.77340,0.04626
653.84466,0.04549
651.91591,0.04496
649.98717,0.04539
648.05842,0.04571
646.12968,0.04517
644.20093,0.04422
642.27219,0.04374
640.34344,0.04387
638.41470,0.04339
636.48595,0.04152
634.55721,0.03947
632.62846,0.03851
630.69972,0.03855
628.77097,0.03938
626.84222,0.04039
624.91348,0.04050
622.98473,0.04001
621.05599,0.04024
619.12724,0.04127
617.19850,0.04228
615.26975,0.04311
613.34101,0.04419
611.41226,0.04587
609.48352,0.04775
607.55477,0.04875
605.62603,0.04866
603.69728,0.04809
601.76854,0.04753
599.83979,0.04762
