7497.03301,0.57400
7495.10426,0.57547
7493.17552,0.57583
7491.24677,0.57784
7489.31803,0.58107
7487.38928,0.58036
7485.46054,0.57548
7483.53179,0.57149
7481.60305,0.57228
7479.67430,0.57533
7477.74556,0.57681
7475.81681,0.57726
7473.88807,0.57711
7471.95932,0.57762
7470.03057,0.57939
7468.10183,0.57901
7466.17308,0.57472
7464.24434,0.56998
7462.31559,0.56973
7460.38685,0.57204
7458.45810,0.57220
7456.52936,0.57217
7454.60061,0.57321
7452.67187,0.57304
7450.74312,0.57147
7448.81438,0.56909
7446.88563,0.56809
7444.95689,0.57057
7443.02814,0.57346
7441.09940,0.57291
7439.17065,0.56747
7437.24190,0.55920
7435.31316,0.55497
7433.38441,0.55815
7431.45567,0.56523
7429.52692,0.57102
7427.59818,0.57303
7425.66943,0.57316
7423.74069,0.57208
7421.81194,0.56999
7419.88320,0.56963
7417.95445,0.57133
7416.02571,0.57157
7414.09696,0.56772
7412.16822,0.56394
7410.23947,0.56411
7408.31073,0.56502
7406.38198,0.56574
7404.45323,0.56671
7402.52449,0.56559
7400.59574,0.56431
7398.66700,0.56522
7396.73825,0.56583
7394.80951,0.56442
7392.88076,0.56375
7390.95202,0.56582
7389.02327,0.56724
7387.09453,0.56710
7385.16578,0.56812
7383.23704,0.56886
7381.30829,0.56825
7379.37955,0.56871
7377.45080,0.57161
7375.52205,0.57536
7373.59331,0.57589
7371.66456,0.57236
7369.73582,0.56934
7367.80707,0.56925
7365.87833,0.56914
7363.94958,0.56696
7362.02084,0.56541
7360.09209,0.56727
7358.16335,0.56991
7356.23460,0.56910
7354.30586,0.56705
7352.37711,0.56778
7350.44837,0.56869
7348.51962,0.56721
7346.59088,0.56615
7344.66213,0.56608
7342.73338,0.56545
7340.80464,0.56439
7338.87589,0.56204
7336.94715,0.55977
7335.01840,0.55845
7333.08966,0.55585
7331.16091,0.55413
7329.23217,0.55469
7327.30342,0.55488
7325.37468,0.55549
7323.44593,0.55711
7321.51719,0.55876
7319.58844,0.56074
7317.65970,0.56259
7315.73095,0.56328
7313.80221,0.56285
7311.87346,0.56161
7309.94471,0.55765
7308.01597,0.55263
7306.08722,0.55349
7304.15848,0.55840
7302.22973,0.56062
7300.30099,0.56129
7298.37224,0.56164
7296.44350,0.55941
7294.51475,0.55458
7292.58601,0.55003
7290.65726,0.54965
7288.72852,0.55350
7286.79977,0.55727
7284.87103,0.55764
7282.94228,0.55404
7281.01353,0.54843
7279.08479,0.54510
7277.15604,0.54720
7275.22730,0.55369
7273.29855,0.55946
7271.36981,0.56096
7269.44106,0.55925
7267.51232,0.55624
7265.58357,0.55503
7263.65483,0.55778
7261.72608,0.56139
7259.79734,0.56248
7257.86859,0.56160
7255.93985,0.56022
7254.01110,0.55886
7252.08236,0.55785
7250.15361,0.55701
7248.22486,0.55570
7246.29612,0.55389
7244.36737,0.55227
7242.43863,0.55330
7240.50988,0.55748
7238.58114,0.56097
7236.65239,0.56249
7234.72365,0.56270
7232.79490,0.55954
7230.86616,0.55383
7228.93741,0.55239
7227.00867,0.55853
7225.07992,0.56504
7223.15118,0.56446
7221.22243,0.56074
7219.29369,0.55935
7217.36494,0.55829
7215.43619,0.55656
7213.50745,0.55695
7211.57870,0.55845
7209.64996,0.55724
7207.72121,0.55454
7205.79247,0.55495
7203.86372,0.55852
7201.93498,0.56071
7200.00623,0.55937
7198.07749,0.55693
7196.14874,0.55603
7194.22000,0.55735
7192.29125,0.56024
7190.36251,0.56236
7188.43376,0.56171
7186.50501,0.55900
7184.57627,0.55589
7182.64752,0.55375
7180.71878,0.55427
7178.79003,0.55623
7176.86129,0.55565
7174.93254,0.55385
7173.00380,0.55527
7171.07505,0.55906
7169.14631,0.56073
7167.21756,0.55805
7165.28882,0.55528
7163.36007,0.55718
7161.43133,0.55987
7159.50258,0.55875
7157.57384,0.55636
7155.64509,0.55472
7153.71634,0.55360
7151.78760,0.55384
7149.85885,0.55390
7147.93011,0.55191
7146.00136,0.55136
7144.07262,0.55396
7142.14387,0.55485
7140.21513,0.55321
7138.28638,0.55380
7136.35764,0.55737
7134.42889,0.56054
7132.50015,0.55962
7130.57140,0.55418
7128.64266,0.54872
7126.71391,0.54584
7124.78516,0.54509
7122.85642,0.54613
7120.92767,0.54669
7118.99893,0.54620
7117.07018,0.54618
7115.14144,0.54561
7113.21269,0.54488
7111.28395,0.54437
7109.35520,0.54267
7107.42646,0.54223
7105.49771,0.54466
7103.56897,0.54668
7101.64022,0.54667
7099.71148,0.54596
7097.78273,0.54546
7095.85399,0.54574
7093.92524,0.54633
7091.99649,0.54547
7090.06775,0.54295
7088.13900,0.54053
7086.21026,0.53989
7084.28151,0.54005
7082.35277,0.53934
7080.42402,0.53884
7078.49528,0.53748
7076.56653,0.53412
7074.63779,0.53356
7072.70904,0.53689
7070.78030,0.53885
7068.85155,0.53740
7066.92281,0.53397
7064.99406,0.53018
7063.06532,0.52789
7061.13657,0.52780
7059.20782,0.52887
7057.27908,0.52903
7055.35033,0.52847
7053.42159,0.52851
7051.49284,0.52795
7049.56410,0.52727
7047.63535,0.52626
7045.70661,0.52202
7043.77786,0.51828
7041.84912,0.52015
7039.92037,0.52408
7037.99163,0.52507
7036.06288,0.52300
7034.13414,0.51939
7032.20539,0.51616
7030.27664,0.51513
7028.34790,0.51589
7026.41915,0.51672
7024.49041,0.51589
7022.56166,0.51339
7020.63292,0.51211
7018.70417,0.51255
7016.77543,0.51118
7014.84668,0.50744
7012.91794,0.50479
7010.98919,0.50483
7009.06045,0.50664
7007.13170,0.50774
7005.20296,0.50676
7003.27421,0.50697
7001.34547,0.50872
6999.41672,0.50845
6997.48797,0.50784
6995.55923,0.50774
6993.63048,0.50506
6991.70174,0.50085
6989.77299,0.49842
6987.84425,0.49830
6985.91550,0.49890
6983.98676,0.49889
6982.05801,0.49769
6980.12927,0.49491
6978.20052,0.49371
6976.27178,0.49635
6974.34303,0.49886
6972.41429,0.49922
6970.48554,0.49925
6968.55680,0.49871
6966.62805,0.49826
6964.69930,0.49960
6962.77056,0.50043
6960.84181,0.49982
6958.91307,0.50009
6956.98432,0.49953
6955.05558,0.49669
6953.12683,0.49469
6951.19809,0.49437
6949.26934,0.49365
6947.34060,0.49240
6945.41185,0.49223
6943.48311,0.49280
6941.55436,0.49178
6939.62562,0.48980
6937.69687,0.48959
6935.76812,0.49045
6933.83938,0.49112
6931.91063,0.49351
6929.98189,0.49618
6928.05314,0.49498
6926.12440,0.49106
6924.19565,0.48800
6922.26691,0.48650
6920.33816,0.48574
6918.40942,0.48510
6916.48067,0.48425
6914.55193,0.48423
6912.62318,0.48636
6910.69444,0.48897
6908.76569,0.48996
6906.83695,0.48950
6904.90820,0.48780
6902.97945,0.48555
6901.05071,0.48453
6899.12196,0.48403
6897.19322,0.48282
6895.26447,0.48156
6893.33573,0.48070
6891.40698,0.48120
6889.47824,0.48298
6887.54949,0.48464
6885.62075,0.48669
6883.69200,0.48886
6881.76326,0.48966
6879.83451,0.48889
6877.90577,0.48722
6875.97702,0.48565
6874.04828,0.48449
6872.11953,0.48366
6870.19078,0.48382
6868.26204,0.48478
6866.33329,0.48481
6864.40455,0.48359
6862.47580,0.48224
6860.54706,0.48145
6858.61831,0.48155
6856.68957,0.48102
6854.76082,0.47852
6852.83208,0.47676
6850.90333,0.47853
6848.97459,0.48190
6847.04584,0.48325
6845.11710,0.48263
6843.18835,0.48236
6841.25960,0.48294
6839.33086,0.48302
6837.40211,0.48157
6835.47337,0.47904
6833.54462,0.47698
6831.61588,0.47633
6829.68713,0.47575
6827.75839,0.47378
6825.82964,0.47096
6823.90090,0.46939
6821.97215,0.47121
6820.04341,0.47500
6818.11466,0.47734
6816.18592,0.47811
6814.25717,0.47805
6812.32843,0.47645
6810.39968,0.47422
6808.47093,0.47338
6806.54219,0.47380
6804.61344,0.47370
6802.68470,0.47256
6800.75595,0.47116
6798.82721,0.46951
6796.89846,0.46867
6794.96972,0.47097
6793.04097,0.47513
6791.11223,0.47783
6789.18348,0.47810
6787.25474,0.47642
6785.32599,0.47440
6783.39725,0.47366
6781.46850,0.47301
6779.53975,0.47091
6777.61101,0.46875
6775.68226,0.46787
6773.75352,0.46822
6771.82477,0.46988
6769.89603,0.47154
6767.96728,0.47129
6766.03854,0.46970
6764.10979,0.46787
6762.18105,0.46623
6760.25230,0.46535
6758.32356,0.46464
6756.39481,0.46351
6754.46607,0.46286
6752.53732,0.46220
6750.60858,0.45992
6748.67983,0.45799
6746.75108,0.45945
6744.82234,0.46298
6742.89359,0.46607
6740.96485,0.46781
6739.03610,0.46725
6737.10736,0.46538
6735.17861,0.46438
6733.24987,0.46424
6731.32112,0.46421
6729.39238,0.46343
6727.46363,0.46169
6725.53489,0.46101
6723.60614,0.46200
6721.67740,0.46294
6719.74865,0.46301
6717.81991,0.46314
6715.89116,0.46437
6713.96241,0.46551
6712.03367,0.46525
6710.10492,0.46463
6708.17618,0.46425
6706.24743,0.46334
6704.31869,0.46239
6702.38994,0.46235
6700.46120,0.46267
6698.53245,0.46229
6696.60371,0.46071
6694.67496,0.45938
6692.74622,0.46003
6690.81747,0.46069
6688.88873,0.45995
6686.95998,0.45950
6685.03123,0.45948
6683.10249,0.45954
6681.17374,0.46010
6679.24500,0.46079
6677.31625,0.46241
6675.38751,0.46494
6673.45876,0.46564
6671.53002,0.46408
6669.60127,0.46339
6667.67253,0.46539
6665.74378,0.46826
6663.81504,0.46846
6661.88629,0.46545
6659.95755,0.46297
6658.02880,0.46290
6656.10006,0.46295
6654.17131,0.46207
6652.24256,0.46219
6650.31382,0.46436
6648.38507,0.46664
6646.45633,0.46723
6644.52758,0.46642
6642.59884,0.46532
6640.67009,0.46497
6638.74135,0.46503
6636.81260,0.46539
6634.88386,0.46722
6632.95511,0.46887
6631.02637,0.46726
6629.09762,0.46434
6627.16888,0.46472
6625.24013,0.46722
6623.31139,0.46800
6621.38264,0.46746
6619.45389,0.46721
6617.52515,0.46845
6615.59640,0.47093
6613.66766,0.47154
6611.73891,0.46966
6609.81017,0.46823
6607.88142,0.46866
6605.95268,0.46971
6604.02393,0.47064
6602.09519,0.47266
6600.16644,0.47546
6598.23770,0.47628
6596.30895,0.47480
6594.38021,0.47371
6592.45146,0.47456
6590.52271,0.47639
6588.59397,0.47650
6586.66522,0.47409
6584.73648,0.47157
6582.80773,0.46943
6580.87899,0.46727
6578.95024,0.46703
6577.02150,0.46897
6575.09275,0.47115
6573.16401,0.47294
6571.23526,0.47444
6569.30652,0.47534
6567.37777,0.47531
6565.44903,0.47400
6563.52028,0.47176
6561.59154,0.46962
6559.66279,0.46901
6557.73404,0.47044
6555.80530,0.47222
6553.87655,0.47342
6551.94781,0.47529
6550.01906,0.47787
6548.09032,0.47888
6546.16157,0.47659
6544.23283,0.47263
6542.30408,0.47020
6540.37534,0.47038
6538.44659,0.47111
6536.51785,0.47124
6534.58910,0.47255
6532.66036,0.47478
6530.73161,0.47535
6528.80287,0.47423
6526.87412,0.47252
6524.94537,0.47092
6523.01663,0.47116
6521.08788,0.47301
6519.15914,0.47265
6517.23039,0.46980
6515.30165,0.46891
6513.37290,0.47100
6511.44416,0.47339
6509.51541,0.47388
6507.58667,0.47284
6505.65792,0.47250
6503.72918,0.47317
6501.80043,0.47334
6499.87169,0.47177
6497.94294,0.46917
6496.01419,0.46844
6494.08545,0.47037
6492.15670,0.47300
6490.22796,0.47475
6488.29921,0.47527
6486.37047,0.47451
6484.44172,0.47243
6482.51298,0.47033
6480.58423,0.47022
6478.65549,0.47269
6476.72674,0.47503
6474.79800,0.47410
6472.86925,0.47114
6470.94051,0.46916
6469.01176,0.46991
6467.08302,0.47338
6465.15427,0.47679
6463.22552,0.47700
6461.29678,0.47404
6459.36803,0.47107
6457.43929,0.47048
6455.51054,0.47180
6453.58180,0.47341
6451.65305,0.47344
6449.72431,0.47192
6447.79556,0.47135
6445.86682,0.47233
6443.93807,0.47251
6442.00933,0.47157
6440.08058,0.47236
6438.15184,0.47445
6436.22309,0.47460
6434.29434,0.47386
6432.36560,0.47501
6430.43685,0.47701
6428.50811,0.47807
6426.57936,0.47833
6424.65062,0.47768
6422.72187,0.47632
6420.79313,0.47591
6418.86438,0.47694
6416.93564,0.47824
6415.00689,0.47915
6413.07815,0.47997
6411.14940,0.48018
6409.22066,0.47890
6407.29191,0.47731
6405.36317,0.47695
6403.43442,0.47703
6401.50567,0.47663
6399.57693,0.47611
6397.64818,0.47580
6395.71944,0.47580
6393.79069,0.47617
6391.86195,0.47710
6389.93320,0.47837
6388.00446,0.47911
6386.07571,0.47930
6384.14697,0.47976
6382.21822,0.48092
6380.28948,0.48221
6378.36073,0.48213
6376.43199,0.48063
6374.50324,0.47986
6372.57450,0.47999
6370.64575,0.47950
6368.71700,0.47903
6366.78826,0.47927
6364.85951,0.47921
6362.93077,0.47822
6361.00202,0.47708
6359.07328,0.47716
6357.14453,0.47761
6355.21579,0.47737
6353.28704,0.47830
6351.35830,0.48012
6349.42955,0.48027
6347.50081,0.47973
6345.57206,0.48044
6343.64332,0.48117
6341.71457,0.48065
6339.78582,0.47988
6337.85708,0.47979
6335.92833,0.48016
6333.99959,0.48074
6332.07084,0.48121
6330.14210,0.48105
6328.21335,0.48038
6326.28461,0.47992
6324.35586,0.47958
6322.42712,0.47883
6320.49837,0.47822
6318.56963,0.47855
6316.64088,0.48002
6314.71214,0.48191
6312.78339,0.48257
6310.85465,0.48257
6308.92590,0.48382
6306.99715,0.48472
6305.06841,0.48390
6303.13966,0.48370
6301.21092,0.48463
6299.28217,0.48472
6297.35343,0.48403
6295.42468,0.48354
6293.49594,0.48371
6291.56719,0.48553
6289.63845,0.48810
6287.70970,0.48868
6285.78096,0.48768
6283.85221,0.48655
6281.92347,0.48518
6279.99472,0.48444
6278.06598,0.48436
6276.13723,0.48426
6274.20848,0.48570
6272.27974,0.48830
6270.35099,0.48917
6268.42225,0.48846
6266.49350,0.48830
6264.56476,0.48890
6262.63601,0.48951
6260.70727,0.49039
6258.77852,0.49135
6256.84978,0.49101
6254.92103,0.48974
6252.99229,0.48906
6251.06354,0.48900
6249.13480,0.48895
6247.20605,0.48931
6245.27730,0.49118
6243.34856,0.49374
6241.41981,0.49513
6239.49107,0.49548
6237.56232,0.49531
6235.63358,0.49503
6233.70483,0.49534
6231.77609,0.49634
6229.84734,0.49738
6227.91860,0.49736
6225.98985,0.49719
6224.06111,0.49804
6222.13236,0.49900
6220.20362,0.49957
6218.27487,0.49992
6216.34613,0.50059
6214.41738,0.50270
6212.48863,0.50498
6210.55989,0.50510
6208.63114,0.50353
6206.70240,0.50248
6204.77365,0.50306
6202.84491,0.50377
6200.91616,0.50322
6198.98742,0.50346
6197.05867,0.50556
6195.12993,0.50741
6193.20118,0.50817
6191.27244,0.50866
6189.34369,0.50893
6187.41495,0.50878
6185.48620,0.50898
6183.55746,0.50993
6181.62871,0.51070
6179.69996,0.51074
6177.77122,0.51032
6175.84247,0.51047
6173.91373,0.51187
6171.98498,0.51283
6170.05624,0.51215
6168.12749,0.51161
6166.19875,0.51251
6164.27000,0.51396
6162.34126,0.51518
6160.41251,0.51598
6158.48377,0.51592
6156.55502,0.51492
6154.62628,0.51393
6152.69753,0.51381
6150.76878,0.51440
6148.84004,0.51537
6146.91129,0.51625
6144.98255,0.51658
6143.05380,0.51691
6141.12506,0.51778
6139.19631,0.51845
6137.26757,0.51857
6135.33882,0.51857
6133.41008,0.51795
6131.48133,0.51693
6129.55259,0.51690
6127.62384,0.51737
6125.69510,0.51777
6123.76635,0.51946
6121.83761,0.52179
6119.90886,0.52221
6117.98011,0.52097
6116.05137,0.52008
6114.12262,0.52010
6112.19388,0.52099
6110.26513,0.52266
6108.33639,0.52406
6106.40764,0.52459
6104.47890,0.52509
6102.55015,0.52565
6100.62141,0.52522
6098.69266,0.52439
6096.76392,0.52453
6094.83517,0.52551
6092.90643,0.52678
6090.97768,0.52797
6089.04893,0.52844
6087.12019,0.52809
6085.19144,0.52746
6083.26270,0.52702
6081.33395,0.52700
6079.40521,0.52683
6077.47646,0.52604
6075.54772,0.52616
6073.61897,0.52821
6071.69023,0.53045
6069.76148,0.53154
6067.83274,0.53223
6065.90399,0.53297
6063.97525,0.53300
6062.04650,0.53211
6060.11776,0.53155
6058.18901,0.53220
6056.26026,0.53295
6054.33152,0.53306
6052.40277,0.53341
6050.47403,0.53375
6048.54528,0.53347
6046.61654,0.53279
6044.68779,0.53203
6042.75905,0.53211
6040.83030,0.53304
6038.90156,0.53347
6036.97281,0.53355
6035.04407,0.53473
6033.11532,0.53646
6031.18658,0.53654
6029.25783,0.53574
6027.32909,0.53623
6025.40034,0.53744
6023.47159,0.53807
6021.54285,0.53734
6019.61410,0.53553
6017.68536,0.53472
6015.75661,0.53509
6013.82787,0.53485
6011.89912,0.53405
6009.97038,0.53398
6008.04163,0.53500
6006.11289,0.53580
6004.18414,0.53552
6002.25540,0.53531
6000.32665,0.53624
5998.39791,0.53775
5996.46916,0.53894
5994.54041,0.53995
5992.61167,0.54033
5990.68292,0.53926
5988.75418,0.53822
5986.82543,0.53853
5984.89669,0.53940
5982.96794,0.53970
5981.03920,0.53884
5979.11045,0.53758
5977.18171,0.53749
5975.25296,0.53890
5973.32422,0.54056
5971.39547,0.54118
5969.46673,0.54082
5967.53798,0.54014
5965.60924,0.53962
5963.68049,0.53944
5961.75174,0.53914
5959.82300,0.53903
5957.89425,0.53971
5955.96551,0.54004
5954.03676,0.53919
5952.10802,0.53865
5950.17927,0.53966
5948.25053,0.54086
5946.32178,0.54071
5944.39304,0.53983
5942.46429,0.53921
5940.53555,0.53948
5938.60680,0.54047
5936.67806,0.54121
5934.74931,0.54133
5932.82057,0.54012
5930.89182,0.53789
5928.96307,0.53657
5927.03433,0.53624
5925.10558,0.53564
5923.17684,0.53508
5921.24809,0.53535
5919.31935,0.53582
5917.39060,0.53587
5915.46186,0.53581
5913.53311,0.53576
5911.60437,0.53590
5909.67562,0.53642
5907.74688,0.53676
5905.81813,0.53635
5903.88939,0.53562
5901.96064,0.53542
5900.03189,0.53515
5898.10315,0.53403
5896.17440,0.53276
5894.24566,0.53212
5892.31691,0.53186
5890.38817,0.53198
5888.45942,0.53263
5886.53068,0.53285
5884.60193,0.53206
5882.67319,0.53075
5880.74444,0.52955
5878.81570,0.52907
5876.88695,0.52907
5874.95821,0.52864
5873.02946,0.52776
5871.10072,0.52688
5869.17197,0.52680
5867.24322,0.52781
5865.31448,0.52905
5863.38573,0.52985
5861.45699,0.52987
5859.52824,0.52954
5857.59950,0.52954
5855.67075,0.52949
5853.74201,0.52929
5851.81326,0.52949
5849.88452,0.53004
5847.95577,0.53021
5846.02703,0.52997
5844.09828,0.52978
5842.16954,0.52991
5840.24079,0.53059
5838.31205,0.53062
5836.38330,0.52934
5834.45455,0.52870
5832.52581,0.52899
5830.59706,0.52891
5828.66832,0.52882
5826.73957,0.52921
5824.81083,0.52969
5822.88208,0.53013
5820.95334,0.53000
5819.02459,0.52896
5817.09585,0.52793
5815.16710,0.52784
5813.23836,0.52841
5811.30961,0.52872
5809.38087,0.52825
5807.45212,0.52784
5805.52337,0.52849
5803.59463,0.52956
5801.66588,0.52978
5799.73714,0.52888
5797.80839,0.52761
5795.87965,0.52695
5793.95090,0.52680
5792.02216,0.52632
5790.09341,0.52526
5788.16467,0.52423
5786.23592,0.52429
5784.30718,0.52530
5782.37843,0.52583
5780.44969,0.52569
5778.52094,0.52577
5776.59220,0.52579
5774.66345,0.52492
5772.73470,0.52367
5770.80596,0.52361
5768.87721,0.52474
5766.94847,0.52539
5765.01972,0.52529
5763.09098,0.52492
5761.16223,0.52429
5759.23349,0.52399
5757.30474,0.52379
5755.37600,0.52321
5753.44725,0.52364
5751.51851,0.52548
5749.58976,0.52626
5747.66102,0.52439
5745.73227,0.52223
5743.80352,0.52200
5741.87478,0.52312
5739.94603,0.52433
5738.01729,0.52470
5736.08854,0.52401
5734.15980,0.52314
5732.23105,0.52284
5730.30231,0.52281
5728.37356,0.52259
5726.44482,0.52206
5724.51607,0.52143
5722.58733,0.52189
5720.65858,0.52346
5718.72984,0.52440
5716.80109,0.52404
5714.87235,0.52327
5712.94360,0.52329
5711.01485,0.52388
5709.08611,0.52398
5707.15736,0.52375
5705.22862,0.52322
5703.29987,0.52175
5701.37113,0.52020
5699.44238,0.52043
5697.51364,0.52215
5695.58489,0.52315
5693.65615,0.52259
5691.72740,0.52147
5689.79866,0.52083
5687.86991,0.52100
5685.94117,0.52137
5684.01242,0.52154
5682.08368,0.52150
5680.15493,0.52092
5678.22618,0.52031
5676.29744,0.52065
5674.36869,0.52168
5672.43995,0.52240
5670.51120,0.52219
5668.58246,0.52121
5666.65371,0.52024
5664.72497,0.51953
5662.79622,0.51856
5660.86748,0.51763
5658.93873,0.51747
5657.00999,0.51755
5655.08124,0.51779
5653.15250,0.51865
5651.22375,0.51950
5649.29500,0.51990
5647.36626,0.51993
5645.43751,0.51931
5643.50877,0.51858
5641.58002,0.51894
5639.65128,0.51993
5637.72253,0.52031
5635.79379,0.52039
5633.86504,0.52036
5631.93630,0.51964
5630.00755,0.51877
5628.07881,0.51820
5626.15006,0.51737
5624.22132,0.51659
5622.29257,0.51659
5620.36383,0.51736
5618.43508,0.51858
5616.50633,0.51995
5614.57759,0.52121
5612.64884,0.52146
5610.72010,0.52025
5608.79135,0.51916
5606.86261,0.51882
5604.93386,0.51789
5603.00512,0.51681
5601.07637,0.51726
5599.14763,0.51883
5597.21888,0.52020
5595.29014,0.52097
5593.36139,0.52110
5591.43265,0.52060
5589.50390,0.51947
5587.57516,0.51845
5585.64641,0.51894
5583.71766,0.52053
5581.78892,0.52110
5579.86017,0.52038
5577.93143,0.52002
5576.00268,0.52002
5574.07394,0.51981
5572.14519,0.52027
5570.21645,0.52161
5568.28770,0.52269
5566.35896,0.52259
5564.43021,0.52181
5562.50147,0.52157
5560.57272,0.52164
5558.64398,0.52128
5556.71523,0.52069
5554.78648,0.52023
5552.85774,0.52006
5550.92899,0.51992
5549.00025,0.51924
5547.07150,0.51876
5545.14276,0.51936
5543.21401,0.51997
5541.28527,0.51966
5539.35652,0.51939
5537.42778,0.52013
5535.49903,0.52122
5533.57029,0.52158
5531.64154,0.52161
5529.71280,0.52177
5527.78405,0.52163
5525.85531,0.52118
5523.92656,0.52071
5521.99781,0.52051
5520.06907,0.52055
5518.14032,0.52040
5516.21158,0.52010
5514.28283,0.52004
5512.35409,0.52008
5510.42534,0.51947
5508.49660,0.51812
5506.56785,0.51757
5504.63911,0.51874
5502.71036,0.52022
5500.78162,0.52072
5498.85287,0.52058
5496.92413,0.52075
5494.99538,0.52128
5493.06664,0.52126
5491.13789,0.52063
5489.20914,0.52020
5487.28040,0.52017
5485.35165,0.52046
5483.42291,0.52083
5481.49416,0.52079
5479.56542,0.52040
5477.63667,0.52022
5475.70793,0.52040
5473.77918,0.52064
5471.85044,0.52099
5469.92169,0.52154
5467.99295,0.52196
5466.06420,0.52227
5464.13546,0.52206
5462.20671,0.52101
5460.27796,0.52029
5458.34922,0.52070
5456.42047,0.52136
5454.49173,0.52150
5452.56298,0.52153
5450.63424,0.52206
5448.70549,0.52261
5446.77675,0.52282
5444.84800,0.52300
5442.91926,0.52316
5440.99051,0.52349
5439.06177,0.52408
5437.13302,0.52424
5435.20428,0.52424
5433.27553,0.52483
5431.34679,0.52529
5429.41804,0.52547
5427.48929,0.52612
5425.56055,0.52701
5423.63180,0.52752
5421.70306,0.52764
5419.77431,0.52770
5417.84557,0.52778
5415.91682,0.52752
5413.98808,0.52718
5412.05933,0.52739
5410.13059,0.52795
5408.20184,0.52863
5406.27310,0.52969
5404.34435,0.53031
5402.41561,0.52944
5400.48686,0.52810
5398.55811,0.52765
5396.62937,0.52792
5394.70062,0.52842
5392.77188,0.52909
5390.84313,0.52998
5388.91439,0.53119
5386.98564,0.53216
5385.05690,0.53225
5383.12815,0.53201
5381.19941,0.53205
5379.27066,0.53223
5377.34192,0.53207
5375.41317,0.53113
5373.48443,0.52975
5371.55568,0.52938
5369.62694,0.53068
5367.69819,0.53195
5365.76944,0.53187
5363.84070,0.53109
5361.91195,0.53042
5359.98321,0.53049
5358.05446,0.53100
5356.12572,0.53067
5354.19697,0.52990
5352.26823,0.52994
5350.33948,0.53051
5348.41074,0.53123
5346.48199,0.53217
5344.55325,0.53266
5342.62450,0.53218
5340.69576,0.53128
5338.76701,0.53057
5336.83827,0.53006
5334.90952,0.52946
5332.98077,0.52924
5331.05203,0.52991
5329.12328,0.53051
5327.19454,0.53009
5325.26579,0.52919
5323.33705,0.52826
5321.40830,0.52727
5319.47956,0.52659
5317.55081,0.52617
5315.62207,0.52557
5313.69332,0.52530
5311.76458,0.52549
5309.83583,0.52537
5307.90709,0.52464
5305.97834,0.52383
5304.04959,0.52322
5302.12085,0.52235
5300.19210,0.52111
5298.26336,0.52016
5296.33461,0.51968
5294.40587,0.51915
5292.47712,0.51817
5290.54838,0.51718
5288.61963,0.51672
5286.69089,0.51625
5284.76214,0.51505
5282.83340,0.51307
5280.90465,0.51079
5278.97591,0.50916
5277.04716,0.50855
5275.11842,0.50793
5273.18967,0.50633
5271.26092,0.50415
5269.33218,0.50235
5267.40343,0.50113
5265.47469,0.49985
5263.54594,0.49813
5261.61720,0.49631
5259.68845,0.49463
5257.75971,0.49295
5255.83096,0.49153
5253.90222,0.49021
5251.97347,0.48837
5250.04473,0.48599
5248.11598,0.48357
5246.18724,0.48174
5244.25849,0.48064
5242.32975,0.47967
5240.40100,0.47842
5238.47225,0.47728
5236.54351,0.47668
5234.61476,0.47615
5232.68602,0.47490
5230.75727,0.47290
5228.82853,0.47100
5226.89978,0.46977
5224.97104,0.46865
5223.04229,0.46722
5221.11355,0.46591
5219.18480,0.46505
5217.25606,0.46483
5215.32731,0.46482
5213.39857,0.46390
5211.46982,0.46207
5209.54107,0.46043
5207.61233,0.45941
5205.68358,0.45893
5203.75484,0.45874
5201.82609,0.45864
5199.89735,0.45870
5197.96860,0.45853
5196.03986,0.45789
5194.11111,0.45729
5192.18237,0.45680
5190.25362,0.45631
5188.32488,0.45614
5186.39613,0.45645
5184.46739,0.45691
5182.53864,0.45713
5180.60990,0.45725
5178.68115,0.45758
5176.75240,0.45773
5174.82366,0.45749
5172.89491,0.45729
5170.96617,0.45720
5169.03742,0.45725
5167.10868,0.45756
5165.17993,0.45813
5163.25119,0.45851
5161.32244,0.45828
5159.39370,0.45817
5157.46495,0.45891
5155.53621,0.45987
5153.60746,0.46018
5151.67872,0.45995
5149.74997,0.46002
5147.82123,0.46075
5145.89248,0.46163
5143.96373,0.46223
5142.03499,0.46264
5140.10624,0.46338
5138.17750,0.46448
5136.24875,0.46521
5134.32001,0.46533
5132.39126,0.46514
5130.46252,0.46541
5128.53377,0.46663
5126.60503,0.46774
5124.67628,0.46788
5122.74754,0.46811
5120.81879,0.46903
5118.89005,0.46981
5116.96130,0.47031
5115.03255,0.47104
5113.10381,0.47164
5111.17506,0.47178
5109.24632,0.47204
5107.31757,0.47258
5105.38883,0.47271
5103.46008,0.47261
5101.53134,0.47319
5099.60259,0.47448
5097.67385,0.47558
5095.74510,0.47560
5093.81636,0.47510
5091.88761,0.47550
5089.95887,0.47643
5088.03012,0.47701
5086.10138,0.47786
5084.17263,0.47910
5082.24388,0.48004
5080.31514,0.48037
5078.38639,0.48007
5076.45765,0.47982
5074.52890,0.48067
5072.60016,0.48233
5070.67141,0.48321
5068.74267,0.48278
5066.81392,0.48241
5064.88518,0.48285
5062.95643,0.48349
5061.02769,0.48412
5059.09894,0.48479
5057.17020,0.48533
5055.24145,0.48564
5053.31270,0.48572
5051.38396,0.48572
5049.45521,0.48586
5047.52647,0.48620
5045.59772,0.48663
5043.66898,0.48700
5041.74023,0.48746
5039.81149,0.48830
5037.88274,0.48924
5035.95400,0.48973
5034.02525,0.48958
5032.09651,0.48900
5030.16776,0.48885
5028.23902,0.48967
5026.31027,0.49060
5024.38153,0.49074
5022.45278,0.49052
5020.52403,0.49057
5018.59529,0.49068
5016.66654,0.49048
5014.73780,0.49021
5012.80905,0.49028
5010.88031,0.49034
5008.95156,0.49006
5007.02282,0.49011
5005.09407,0.49064
5003.16533,0.49102
5001.23658,0.49126
4999.30784,0.49150
4997.37909,0.49142
4995.45035,0.49096
4993.52160,0.49039
4991.59286,0.48977
4989.66411,0.48931
4987.73536,0.48927
4985.80662,0.48928
4983.87787,0.48893
4981.94913,0.48843
4980.02038,0.48807
4978.09164,0.48780
4976.16289,0.48737
4974.23415,0.48672
4972.30540,0.48601
4970.37666,0.48536
4968.44791,0.48503
4966.51917,0.48496
4964.59042,0.48446
4962.66168,0.48338
4960.73293,0.48220
4958.80418,0.48146
4956.87544,0.48115
4954.94669,0.48057
4953.01795,0.47962
4951.08920,0.47867
4949.16046,0.47760
4947.23171,0.47642
4945.30297,0.47511
4943.37422,0.47367
4941.44548,0.47255
4939.51673,0.47161
4937.58799,0.47026
4935.65924,0.46887
4933.73050,0.46772
4931.80175,0.46620
4929.87301,0.46425
4927.94426,0.46261
4926.01551,0.46174
4924.08677,0.46119
4922.15802,0.45998
4920.22928,0.45802
4918.30053,0.45607
4916.37179,0.45451
4914.44304,0.45333
4912.51430,0.45199
4910.58555,0.45020
4908.65681,0.44857
4906.72806,0.44720
4904.79932,0.44546
4902.87057,0.44328
4900.94183,0.44099
4899.01308,0.43874
4897.08434,0.43691
4895.15559,0.43570
4893.22684,0.43456
4891.29810,0.43283
4889.36935,0.43053
4887.44061,0.42808
4885.51186,0.42567
4883.58312,0.42348
4881.65437,0.42191
4879.72563,0.42058
4877.79688,0.41883
4875.86814,0.41680
4873.93939,0.41488
4872.01065,0.41313
4870.08190,0.41162
4868.15316,0.41046
4866.22441,0.40946
4864.29566,0.40821
4862.36692,0.40628
4860.43817,0.40410
4858.50943,0.40262
4856.58068,0.40157
4854.65194,0.40012
4852.72319,0.39855
4850.79445,0.39738
4848.86570,0.39607
4846.93696,0.39445
4845.00821,0.39317
4843.07947,0.39227
4841.15072,0.39122
4839.22198,0.38968
4837.29323,0.38784
4835.36449,0.38628
4833.43574,0.38489
4831.50699,0.38321
4829.57825,0.38165
4827.64950,0.38043
4825.72076,0.37909
4823.79201,0.37773
4821.86327,0.37641
4819.93452,0.37495
4818.00578,0.37370
4816.07703,0.37258
4814.14829,0.37137
4812.21954,0.37035
4810.29080,0.36938
4808.36205,0.36843
4806.43331,0.36775
4804.50456,0.36725
4802.57582,0.36660
4800.64707,0.36546
4798.71832,0.36413
4796.78958,0.36321
4794.86083,0.36297
4792.93209,0.36299
4791.00334,0.36258
4789.07460,0.36192
4787.14585,0.36151
4785.21711,0.36100
4783.28836,0.36005
4781.35962,0.35913
4779.43087,0.35879
4777.50213,0.35892
4775.57338,0.35897
4773.64464,0.35838
4771.71589,0.35740
4769.78714,0.35682
4767.85840,0.35673
4765.92965,0.35650
4764.00091,0.35594
4762.07216,0.35558
4760.14342,0.35561
4758.21467,0.35571
4756.28593,0.35563
4754.35718,0.35549
4752.42844,0.35532
4750.49969,0.35519
4748.57095,0.35542
4746.64220,0.35568
4744.71346,0.35560
4742.78471,0.35560
4740.85597,0.35580
4738.92722,0.35607
4736.99847,0.35654
4735.06973,0.35718
4733.14098,0.35767
4731.21224,0.35789
4729.28349,0.35806
4727.35475,0.35849
4725.42600,0.35937
4723.49726,0.36035
4721.56851,0.36110
4719.63977,0.36191
4717.71102,0.36292
4715.78228,0.36365
4713.85353,0.36394
4711.92479,0.36440
4709.99604,0.36521
4708.06729,0.36600
4706.13855,0.36678
4704.20980,0.36750
4702.28106,0.36808
4700.35231,0.36862
4698.42357,0.36920
4696.49482,0.37000
4694.56608,0.37111
4692.63733,0.37219
4690.70859,0.37313
4688.77984,0.37396
4686.85110,0.37480
4684.92235,0.37623
4682.99361,0.37790
4681.06486,0.37868
4679.13612,0.37876
4677.20737,0.37927
4675.27862,0.38028
4673.34988,0.38100
4671.42113,0.38136
4669.49239,0.38212
4667.56364,0.38321
4665.63490,0.38390
4663.70615,0.38439
4661.77741,0.38522
4659.84866,0.38601
4657.91992,0.38621
4655.99117,0.38623
4654.06243,0.38673
4652.13368,0.38768
4650.20494,0.38869
4648.27619,0.38961
4646.34745,0.39024
4644.41870,0.39050
4642.48995,0.39109
4640.56121,0.39249
4638.63246,0.39392
4636.70372,0.39476
4634.77497,0.39540
4632.84623,0.39613
4630.91748,0.39673
4628.98874,0.39719
4627.05999,0.39773
4625.13125,0.39844
4623.20250,0.39908
4621.27376,0.39948
4619.34501,0.40013
4617.41627,0.40117
4615.48752,0.40195
4613.55877,0.40231
4611.63003,0.40281
4609.70128,0.40363
4607.77254,0.40459
4605.84379,0.40547
4603.91505,0.40609
4601.98630,0.40661
4600.05756,0.40748
4598.12881,0.40857
4596.20007,0.40930
4594.27132,0.40976
4592.34258,0.41032
4590.41383,0.41101
4588.48509,0.41176
4586.55634,0.41230
4584.62760,0.41271
4582.69885,0.41350
4580.77010,0.41462
4578.84136,0.41562
4576.91261,0.41662
4574.98387,0.41785
4573.05512,0.41897
4571.12638,0.41976
4569.19763,0.42023
4567.26889,0.42067
4565.34014,0.42151
4563.41140,0.42243
4561.48265,0.42312
4559.55391,0.42387
4557.62516,0.42473
4555.69642,0.42537
4553.76767,0.42569
4551.83893,0.42629
4549.91018,0.42746
4547.98143,0.42848
4546.05269,0.42903
4544.12394,0.42946
4542.19520,0.42959
4540.26645,0.42947
4538.33771,0.42975
4536.40896,0.43052
4534.48022,0.43120
4532.55147,0.43151
4530.62273,0.43189
4528.69398,0.43259
4526.76524,0.43339
4524.83649,0.43415
4522.90775,0.43479
4520.97900,0.43512
4519.05025,0.43495
4517.12151,0.43467
4515.19276,0.43498
4513.26402,0.43575
4511.33527,0.43610
4509.40653,0.43595
4507.47778,0.43600
4505.54904,0.43627
4503.62029,0.43653
4501.69155,0.43687
4499.76280,0.43694
4497.83406,0.43678
4495.90531,0.43710
4493.97657,0.43780
4492.04782,0.43820
4490.11908,0.43800
4488.19033,0.43724
4486.26158,0.43653
4484.33284,0.43645
4482.40409,0.43678
4480.47535,0.43713
4478.54660,0.43727
4476.61786,0.43704
4474.68911,0.43648
4472.76037,0.43596
4470.83162,0.43543
4468.90288,0.43458
4466.97413,0.43381
4465.04539,0.43339
4463.11664,0.43285
4461.18790,0.43188
4459.25915,0.43068
4457.33041,0.42940
4455.40166,0.42808
4453.47291,0.42673
4451.54417,0.42513
4449.61542,0.42327
4447.68668,0.42146
4445.75793,0.41971
4443.82919,0.41799
4441.90044,0.41635
4439.97170,0.41446
4438.04295,0.41183
4436.11421,0.40887
4434.18546,0.40619
4432.25672,0.40363
4430.32797,0.40076
4428.39923,0.39771
4426.47048,0.39473
4424.54173,0.39186
4422.61299,0.38923
4420.68424,0.38673
4418.75550,0.38386
4416.82675,0.38070
4414.89801,0.37776
4412.96926,0.37505
4411.04052,0.37260
4409.11177,0.37041
4407.18303,0.36809
4405.25428,0.36561
4403.32554,0.36371
4401.39679,0.36266
4399.46805,0.36195
4397.53930,0.36144
4395.61056,0.36141
4393.68181,0.36189
4391.75306,0.36268
4389.82432,0.36353
4387.89557,0.36445
4385.96683,0.36556
4384.03808,0.36696
4382.10934,0.36847
4380.18059,0.36959
4378.25185,0.37019
4376.32310,0.37074
4374.39436,0.37140
4372.46561,0.37193
4370.53687,0.37249
4368.60812,0.37314
4366.67938,0.37347
4364.75063,0.37351
4362.82189,0.37350
4360.89314,0.37343
4358.96439,0.37329
4357.03565,0.37281
4355.10690,0.37210
4353.17816,0.37162
4351.24941,0.37122
4349.32067,0.37061
4347.39192,0.37009
4345.46318,0.36980
4343.53443,0.36954
4341.60569,0.36902
4339.67694,0.36797
4337.74820,0.36683
4335.81945,0.36595
4333.89071,0.36497
4331.96196,0.36385
4330.03321,0.36284
4328.10447,0.36175
4326.17572,0.36042
4324.24698,0.35934
4322.31823,0.35893
4320.38949,0.35869
4318.46074,0.35792
4316.53200,0.35669
4314.60325,0.35572
4312.67451,0.35509
4310.74576,0.35418
4308.81702,0.35289
4306.88827,0.35173
4304.95953,0.35091
4303.03078,0.35018
4301.10204,0.34929
4299.17329,0.34835
4297.24454,0.34756
4295.31580,0.34678
4293.38705,0.34572
4291.45831,0.34455
4289.52956,0.34367
4287.60082,0.34319
4285.67207,0.34284
4283.74333,0.34223
4281.81458,0.34133
4279.88584,0.34072
4277.95709,0.34056
4276.02835,0.34047
4274.09960,0.34046
4272.17086,0.34054
4270.24211,0.34054
4268.31336,0.34047
4266.38462,0.34048
4264.45587,0.34072
4262.52713,0.34110
4260.59838,0.34149
4258.66964,0.34189
4256.74089,0.34222
4254.81215,0.34224
4252.88340,0.34194
4250.95466,0.34191
4249.02591,0.34242
4247.09717,0.34276
4245.16842,0.34257
4243.23968,0.34239
4241.31093,0.34270
4239.38219,0.34332
4237.45344,0.34386
4235.52469,0.34433
4233.59595,0.34498
4231.66720,0.34553
4229.73846,0.34560
4227.80971,0.34564
4225.88097,0.34603
4223.95222,0.34625
4222.02348,0.34606
4220.09473,0.34586
4218.16599,0.34576
4216.23724,0.34574
4214.30850,0.34587
4212.37975,0.34611
4210.45101,0.34672
4208.52226,0.34770
4206.59352,0.34857
4204.66477,0.34928
4202.73602,0.35019
4200.80728,0.35111
4198.87853,0.35165
4196.94979,0.35199
4195.02104,0.35243
4193.09230,0.35282
4191.16355,0.35298
4189.23481,0.35311
4187.30606,0.35316
4185.37732,0.35293
4183.44857,0.35277
4181.51983,0.35283
4179.59108,0.35289
4177.66234,0.35308
4175.73359,0.35350
4173.80484,0.35402
4171.87610,0.35435
4169.94735,0.35463
4168.01861,0.35531
4166.08986,0.35605
4164.16112,0.35641
4162.23237,0.35676
4160.30363,0.35715
4158.37488,0.35716
4156.44614,0.35688
4154.51739,0.35637
4152.58865,0.35553
4150.65990,0.35481
4148.73116,0.35452
4146.80241,0.35416
4144.87367,0.35350
4142.94492,0.35284
4141.01617,0.35228
4139.08743,0.35172
4137.15868,0.35129
4135.22994,0.35107
4133.30119,0.35078
4131.37245,0.35022
4129.44370,0.34948
4127.51496,0.34866
4125.58621,0.34763
4123.65747,0.34634
4121.72872,0.34495
4119.79998,0.34354
4117.87123,0.34224
4115.94249,0.34100
4114.01374,0.33952
4112.08500,0.33797
4110.15625,0.33665
4108.22750,0.33521
4106.29876,0.33334
4104.37001,0.33148
4102.44127,0.32967
4100.51252,0.32746
4098.58378,0.32491
4096.65503,0.32250
4094.72629,0.32026
4092.79754,0.31798
4090.86880,0.31579
4088.94005,0.31380
4087.01131,0.31187
4085.08256,0.30991
4083.15382,0.30788
4081.22507,0.30583
4079.29632,0.30389
4077.36758,0.30200
4075.43883,0.30004
4073.51009,0.29816
4071.58134,0.29647
4069.65260,0.29469
4067.72385,0.29263
4065.79511,0.29038
4063.86636,0.28803
4061.93762,0.28570
4060.00887,0.28350
4058.08013,0.28139
4056.15138,0.27926
4054.22264,0.27713
4052.29389,0.27504
4050.36515,0.27291
4048.43640,0.27059
4046.50765,0.26804
4044.57891,0.26571
4042.65016,0.26388
4040.72142,0.26218
4038.79267,0.26043
4036.86393,0.25902
4034.93518,0.25804
4033.00644,0.25708
4031.07769,0.25607
4029.14895,0.25530
4027.22020,0.25479
4025.29146,0.25439
4023.36271,0.25420
4021.43397,0.25446
4019.50522,0.25511
4017.57648,0.25566
4015.64773,0.25594
4013.71898,0.25630
4011.79024,0.25684
4009.86149,0.25752
4007.93275,0.25836
4006.00400,0.25915
4004.07526,0.25993
4002.14651,0.26085
4000.21777,0.26182
3998.28902,0.26285
3996.36028,0.26394
3994.43153,0.26495
3992.50279,0.26589
3990.57404,0.26694
3988.64530,0.26809
3986.71655,0.26909
3984.78780,0.26966
3982.85906,0.26994
3980.93031,0.27034
3979.00157,0.27087
3977.07282,0.27150
3975.14408,0.27250
3973.21533,0.27374
3971.28659,0.27475
3969.35784,0.27550
3967.42910,0.27635
3965.50035,0.27739
3963.57161,0.27817
3961.64286,0.27846
3959.71412,0.27878
3957.78537,0.27957
3955.85663,0.28070
3953.92788,0.28174
3951.99913,0.28243
3950.07039,0.28294
3948.14164,0.28362
3946.21290,0.28476
3944.28415,0.28621
3942.35541,0.28753
3940.42666,0.28841
3938.49792,0.28915
3936.56917,0.29026
3934.64043,0.29162
3932.71168,0.29271
3930.78294,0.29339
3928.85419,0.29399
3926.92545,0.29483
3924.99670,0.29586
3923.06795,0.29692
3921.13921,0.29792
3919.21046,0.29880
3917.28172,0.29959
3915.35297,0.30012
3913.42423,0.30044
3911.49548,0.30086
3909.56674,0.30150
3907.63799,0.30218
3905.70925,0.30282
3903.78050,0.30342
3901.85176,0.30416
3899.92301,0.30503
3897.99427,0.30568
3896.06552,0.30615
3894.13678,0.30677
3892.20803,0.30749
3890.27928,0.30807
3888.35054,0.30850
3886.42179,0.30910
3884.49305,0.30989
3882.56430,0.31050
3880.63556,0.31089
3878.70681,0.31121
3876.77807,0.31142
3874.84932,0.31168
3872.92058,0.31227
3870.99183,0.31318
3869.06309,0.31435
3867.13434,0.31568
3865.20560,0.31696
3863.27685,0.31802
3861.34811,0.31910
3859.41936,0.32046
3857.49061,0.32179
3855.56187,0.32297
3853.63312,0.32421
3851.70438,0.32517
3849.77563,0.32578
3847.84689,0.32654
3845.91814,0.32751
3843.98940,0.32842
3842.06065,0.32914
3840.13191,0.32971
3838.20316,0.33022
3836.27442,0.33063
3834.34567,0.33102
3832.41693,0.33146
3830.48818,0.33183
3828.55943,0.33214
3826.63069,0.33236
3824.70194,0.33246
3822.77320,0.33253
3820.84445,0.33249
3818.91571,0.33233
3816.98696,0.33216
3815.05822,0.33206
3813.12947,0.33206
3811.20073,0.33225
3809.27198,0.33263
3807.34324,0.33291
3805.41449,0.33278
3803.48575,0.33256
3801.55700,0.33269
3799.62826,0.33297
3797.69951,0.33305
3795.77076,0.33321
3793.84202,0.33344
3791.91327,0.33341
3789.98453,0.33335
3788.05578,0.33342
3786.12704,0.33328
3784.19829,0.33306
3782.26955,0.33300
3780.34080,0.33293
3778.41206,0.33273
3776.48331,0.33242
3774.55457,0.33212
3772.62582,0.33203
3770.69708,0.33202
3768.76833,0.33181
3766.83959,0.33142
3764.91084,0.33088
3762.98209,0.33047
3761.05335,0.33046
3759.12460,0.33052
3757.19586,0.33030
3755.26711,0.32993
3753.33837,0.32962
3751.40962,0.32935
3749.48088,0.32875
3747.55213,0.32789
3745.62339,0.32708
3743.69464,0.32632
3741.76590,0.32562
3739.83715,0.32490
3737.90841,0.32405
3735.97966,0.32316
3734.05091,0.32219
3732.12217,0.32102
3730.19342,0.31986
3728.26468,0.31863
3726.33593,0.31723
3724.40719,0.31588
3722.47844,0.31459
3720.54970,0.31306
3718.62095,0.31143
3716.69221,0.31000
3714.76346,0.30855
3712.83472,0.30677
3710.90597,0.30479
3708.97723,0.30288
3707.04848,0.30108
3705.11974,0.29908
3703.19099,0.29662
3701.26224,0.29380
3699.33350,0.29106
3697.40475,0.28859
3695.47601,0.28607
3693.54726,0.28335
3691.61852,0.28042
3689.68977,0.27716
3687.76103,0.27367
3685.83228,0.27015
3683.90354,0.26646
3681.97479,0.26257
3680.04605,0.25864
3678.11730,0.25457
3676.18856,0.24979
3674.25981,0.24454
3672.33107,0.23977
3670.40232,0.23490
3668.47357,0.22958
3666.54483,0.22460
3664.61608,0.21979
3662.68734,0.21467
3660.75859,0.20930
3658.82985,0.20389
3656.90110,0.19830
3654.97236,0.19296
3653.04361,0.18841
3651.11487,0.18384
3649.18612,0.17870
3647.25738,0.17393
3645.32863,0.16969
3643.39989,0.16535
3641.47114,0.16086
3639.54239,0.15640
3637.61365,0.15210
3635.68490,0.14793
3633.75616,0.14376
3631.82741,0.13979
3629.89867,0.13600
3627.96992,0.13221
3626.04118,0.12856
3624.11243,0.12498
3622.18369,0.12146
3620.25494,0.11816
3618.32620,0.11506
3616.39745,0.11201
3614.46871,0.10876
3612.53996,0.10537
3610.61122,0.10214
3608.68247,0.09910
3606.75372,0.09621
3604.82498,0.09357
3602.89623,0.09116
3600.96749,0.08882
3599.03874,0.08640
3597.11000,0.08398
3595.18125,0.08173
3593.25251,0.07943
3591.32376,0.07705
3589.39502,0.07489
3587.46627,0.07304
3585.53753,0.07140
3583.60878,0.06989
3581.68004,0.06837
3579.75129,0.06668
3577.82254,0.06482
3575.89380,0.06303
3573.96505,0.06163
3572.03631,0.06066
3570.10756,0.05976
3568.17882,0.05858
3566.25007,0.05725
3564.32133,0.05606
3562.39258,0.05479
3560.46384,0.05344
3558.53509,0.05210
3556.60635,0.05080
3554.67760,0.04983
3552.74886,0.04917
3550.82011,0.04856
3548.89137,0.04790
3546.96262,0.04713
3545.03387,0.04621
3543.10513,0.04531
3541.17638,0.04471
3539.24764,0.04416
3537.31889,0.04316
3535.39015,0.04211
3533.46140,0.04160
3531.53266,0.04124
3529.60391,0.04054
3527.67517,0.03964
3525.74642,0.03881
3523.81768,0.03810
3521.88893,0.03743
3519.96019,0.03684
3518.03144,0.03637
3516.10270,0.03589
3514.17395,0.03547
3512.24520,0.03535
3510.31646,0.03534
3508.38771,0.03498
3506.45897,0.03445
3504.53022,0.03402
3502.60148,0.03353
3500.67273,0.03301
3498.74399,0.03247
3496.81524,0.03183
3494.88650,0.03137
3492.95775,0.03125
3491.02901,0.03107
3489.10026,0.03066
3487.17152,0.03039
3485.24277,0.03024
3483.31402,0.03009
3481.38528,0.03010
3479.45653,0.03013
3477.52779,0.02998
3475.59904,0.02974
3473.67030,0.02955
3471.74155,0.02933
3469.81281,0.02895
3467.88406,0.02862
3465.95532,0.02865
3464.02657,0.02867
3462.09783,0.02829
3460.16908,0.02796
3458.24034,0.02815
3456.31159,0.02865
3454.38285,0.02891
3452.45410,0.02880
3450.52535,0.02861
3448.59661,0.02840
3446.66786,0.02805
3444.73912,0.02775
3442.81037,0.02775
3440.88163,0.02791
3438.95288,0.02798
3437.02414,0.02792
3435.09539,0.02799
3433.16665,0.02816
3431.23790,0.02805
3429.30916,0.02781
3427.38041,0.02786
3425.45167,0.02800
3423.52292,0.02795
3421.59418,0.02804
3419.66543,0.02838
3417.73668,0.02848
3415.80794,0.02827
3413.87919,0.02818
3411.95045,0.02828
3410.02170,0.02836
3408.09296,0.02846
3406.16421,0.02859
3404.23547,0.02852
3402.30672,0.02839
3400.37798,0.02845
3398.44923,0.02848
3396.52049,0.02829
3394.59174,0.02806
3392.66300,0.02797
3390.73425,0.02806
3388.80550,0.02817
3386.87676,0.02822
3384.94801,0.02839
3383.01927,0.02865
3381.09052,0.02873
3379.16178,0.02868
3377.23303,0.02888
3375.30429,0.02933
3373.37554,0.02953
3371.44680,0.02935
3369.51805,0.02916
3367.58931,0.02913
3365.66056,0.02911
3363.73182,0.02911
3361.80307,0.02920
3359.87433,0.02937
3357.94558,0.02953
3356.01683,0.02959
3354.08809,0.02969
3352.15934,0.02997
3350.23060,0.03032
3348.30185,0.03077
3346.37311,0.03158
3344.44436,0.03249
3342.51562,0.03291
3340.58687,0.03285
3338.65813,0.03271
3336.72938,0.03288
3334.80064,0.03332
3332.87189,0.03368
3330.94315,0.03394
3329.01440,0.03429
3327.08566,0.03469
3325.15691,0.03481
3323.22816,0.03464
3321.29942,0.03468
3319.37067,0.03508
3317.44193,0.03549
3315.51318,0.03563
3313.58444,0.03549
3311.65569,0.03536
3309.72695,0.03531
3307.79820,0.03511
3305.86946,0.03478
3303.94071,0.03464
3302.01197,0.03464
3300.08322,0.03460
3298.15448,0.03475
3296.22573,0.03509
3294.29698,0.03534
3292.36824,0.03550
3290.43949,0.03569
3288.51075,0.03584
3286.58200,0.03598
3284.65326,0.03621
3282.72451,0.03649
3280.79577,0.03682
3278.86702,0.03725
3276.93828,0.03765
3275.00953,0.03771
3273.08079,0.03735
3271.15204,0.03712
3269.22330,0.03749
3267.29455,0.03794
3265.36581,0.03816
3263.43706,0.03869
3261.50831,0.03942
3259.57957,0.03955
3257.65082,0.03943
3255.72208,0.03967
3253.79333,0.04004
3251.86459,0.04049
3249.93584,0.04085
3248.00710,0.04099
3246.07835,0.04136
3244.14961,0.04175
3242.22086,0.04171
3240.29212,0.04192
3238.36337,0.04242
3236.43463,0.04238
3234.50588,0.04204
3232.57713,0.04220
3230.64839,0.04288
3228.71964,0.04364
3226.79090,0.04421
3224.86215,0.04447
3222.93341,0.04452
3221.00466,0.04462
3219.07592,0.04496
3217.14717,0.04548
3215.21843,0.04613
3213.28968,0.04679
3211.36094,0.04724
3209.43219,0.04751
3207.50345,0.04758
3205.57470,0.04749
3203.64596,0.04771
3201.71721,0.04843
3199.78846,0.04942
3197.85972,0.05042
3195.93097,0.05099
3194.00223,0.05098
3192.07348,0.05105
3190.14474,0.05166
3188.21599,0.05229
3186.28725,0.05245
3184.35850,0.05262
3182.42976,0.05327
3180.50101,0.05404
3178.57227,0.05467
3176.64352,0.05522
3174.71478,0.05569
3172.78603,0.05611
3170.85729,0.05668
3168.92854,0.05751
3166.99979,0.05817
3165.07105,0.05856
3163.14230,0.05918
3161.21356,0.06018
3159.28481,0.06098
3157.35607,0.06135
3155.42732,0.06169
3153.49858,0.06208
3151.56983,0.06248
3149.64109,0.06314
3147.71234,0.06394
3145.78360,0.06457
3143.85485,0.06514
3141.92611,0.06586
3139.99736,0.06659
3138.06861,0.06721
3136.13987,0.06784
3134.21112,0.06857
3132.28238,0.06935
3130.35363,0.07002
3128.42489,0.07050
3126.49614,0.07095
3124.56740,0.07140
3122.63865,0.07188
3120.70991,0.07276
3118.78116,0.07410
3116.85242,0.07515
3114.92367,0.07576
3112.99493,0.07651
3111.06618,0.07748
3109.13744,0.07836
3107.20869,0.07895
3105.27994,0.07947
3103.35120,0.08014
3101.42245,0.08108
3099.49371,0.08226
3097.56496,0.08317
3095.63622,0.08362
3093.70747,0.08422
3091.77873,0.08542
3089.84998,0.08682
3087.92124,0.08778
3085.99249,0.08837
3084.06375,0.08914
3082.13500,0.09001
3080.20626,0.09068
3078.27751,0.09127
3076.34877,0.09209
3074.42002,0.09302
3072.49127,0.09372
3070.56253,0.09438
3068.63378,0.09510
3066.70504,0.09568
3064.77629,0.09630
3062.84755,0.09712
3060.91880,0.09800
3058.99006,0.09885
3057.06131,0.09959
3055.13257,0.10038
3053.20382,0.10139
3051.27508,0.10227
3049.34633,0.10284
3047.41759,0.10333
3045.48884,0.10399
3043.56009,0.10483
3041.63135,0.10571
3039.70260,0.10631
3037.77386,0.10659
3035.84511,0.10698
3033.91637,0.10762
3031.98762,0.10829
3030.05888,0.10883
3028.13013,0.10933
3026.20139,0.10981
3024.27264,0.11031
3022.34390,0.11080
3020.41515,0.11120
3018.48641,0.11157
3016.55766,0.11202
3014.62892,0.11244
3012.70017,0.11258
3010.77142,0.11253
3008.84268,0.11252
3006.91393,0.11243
3004.98519,0.11219
3003.05644,0.11197
3001.12770,0.11163
2999.19895,0.11097
2997.27021,0.11017
2995.34146,0.10927
2993.41272,0.10819
2991.48397,0.10685
2989.55523,0.10520
2987.62648,0.10316
2985.69774,0.10063
2983.76899,0.09771
2981.84025,0.09468
2979.91150,0.09141
2977.98275,0.08754
2976.05401,0.08308
2974.12526,0.07834
2972.19652,0.07382
2970.26777,0.07022
2968.33903,0.06786
2966.41028,0.06636
2964.48154,0.06540
2962.55279,0.06501
2960.62405,0.06492
2958.69530,0.06450
2956.76656,0.06368
2954.83781,0.06275
2952.90907,0.06176
2950.98032,0.06063
2949.05157,0.05939
2947.12283,0.05818
2945.19408,0.05720
2943.26534,0.05668
2941.33659,0.05663
2939.40785,0.05677
2937.47910,0.05676
2935.55036,0.05637
2933.62161,0.05559
2931.69287,0.05469
2929.76412,0.05413
2927.83538,0.05378
2925.90663,0.05313
2923.97789,0.05225
2922.04914,0.05138
2920.12040,0.05052
2918.19165,0.04974
2916.26290,0.04899
2914.33416,0.04824
2912.40541,0.04774
2910.47667,0.04758
2908.54792,0.04736
2906.61918,0.04684
2904.69043,0.04634
2902.76169,0.04632
2900.83294,0.04665
2898.90420,0.04697
2896.97545,0.04736
2895.04671,0.04794
2893.11796,0.04861
2891.18922,0.04914
2889.26047,0.04948
2887.33172,0.04985
2885.40298,0.05042
2883.47423,0.05112
2881.54549,0.05169
2879.61674,0.05204
2877.68800,0.05239
2875.75925,0.05261
2873.83051,0.05249
2871.90176,0.05245
2869.97302,0.05281
2868.04427,0.05320
2866.11553,0.05338
2864.18678,0.05370
2862.25804,0.05429
2860.32929,0.05495
2858.40055,0.05575
2856.47180,0.05659
2854.54305,0.05724
2852.61431,0.05781
2850.68556,0.05878
2848.75682,0.06035
2846.82807,0.06228
2844.89933,0.06430
2842.97058,0.06647
2841.04184,0.06872
2839.11309,0.07068
2837.18435,0.07228
2835.25560,0.07378
2833.32686,0.07535
2831.39811,0.07689
2829.46937,0.07835
2827.54062,0.07980
2825.61188,0.08123
2823.68313,0.08262
2821.75438,0.08402
2819.82564,0.08542
2817.89689,0.08687
2815.96815,0.08847
2814.03940,0.09016
2812.11066,0.09171
2810.18191,0.09305
2808.25317,0.09433
2806.32442,0.09573
2804.39568,0.09720
2802.46693,0.09847
2800.53819,0.09942
2798.60944,0.10022
2796.68070,0.10103
2794.75195,0.10186
2792.82320,0.10264
2790.89446,0.10342
2788.96571,0.10416
2787.03697,0.10477
2785.10822,0.10532
2783.17948,0.10571
2781.25073,0.10588
2779.32199,0.10603
2777.39324,0.10631
2775.46450,0.10648
2773.53575,0.10633
2771.60701,0.10610
2769.67826,0.10619
2767.74952,0.10649
2765.82077,0.10681
2763.89203,0.10718
2761.96328,0.10747
2760.03453,0.10759
2758.10579,0.10788
2756.17704,0.10831
2754.24830,0.10842
2752.31955,0.10832
2750.39081,0.10826
2748.46206,0.10806
2746.53332,0.10773
2744.60457,0.10750
2742.67583,0.10746
2740.74708,0.10760
2738.81834,0.10779
2736.88959,0.10793
2734.96085,0.10807
2733.03210,0.10842
2731.10336,0.10899
2729.17461,0.10946
2727.24586,0.10966
2725.31712,0.10980
2723.38837,0.11007
2721.45963,0.11050
2719.53088,0.11105
2717.60214,0.11166
2715.67339,0.11222
2713.74465,0.11270
2711.81590,0.11315
2709.88716,0.11385
2707.95841,0.11494
2706.02967,0.11624
2704.10092,0.11754
2702.17218,0.11871
2700.24343,0.11972
2698.31468,0.12082
2696.38594,0.12207
2694.45719,0.12315
2692.52845,0.12412
2690.59970,0.12527
2688.67096,0.12637
2686.74221,0.12723
2684.81347,0.12811
2682.88472,0.12923
2680.95598,0.13044
2679.02723,0.13159
2677.09849,0.13264
2675.16974,0.13347
2673.24100,0.13408
2671.31225,0.13450
2669.38351,0.13489
2667.45476,0.13538
2665.52601,0.13590
2663.59727,0.13628
2661.66852,0.13658
2659.73978,0.13699
2657.81103,0.13755
2655.88229,0.13822
2653.95354,0.13895
2652.02480,0.13967
2650.09605,0.14035
2648.16731,0.14094
2646.23856,0.14161
2644.30982,0.14263
2642.38107,0.14377
2640.45233,0.14456
2638.52358,0.14508
2636.59484,0.14567
2634.66609,0.14629
2632.73734,0.14687
2630.80860,0.14761
2628.87985,0.14857
2626.95111,0.14955
2625.02236,0.15042
2623.09362,0.15118
2621.16487,0.15180
2619.23613,0.15224
2617.30738,0.15263
2615.37864,0.15298
2613.44989,0.15332
2611.52115,0.15386
2609.59240,0.15461
2607.66366,0.15532
2605.73491,0.15585
2603.80616,0.15640
2601.87742,0.15699
2599.94867,0.15754
2598.01993,0.15809
2596.09118,0.15872
2594.16244,0.15920
2592.23369,0.15940
2590.30495,0.15956
2588.37620,0.15978
2586.44746,0.15995
2584.51871,0.16008
2582.58997,0.16019
2580.66122,0.16023
2578.73248,0.16031
2576.80373,0.16048
2574.87499,0.16056
2572.94624,0.16051
2571.01749,0.16038
2569.08875,0.16008
2567.16000,0.15967
2565.23126,0.15937
2563.30251,0.15914
2561.37377,0.15889
2559.44502,0.15868
2557.51628,0.15855
2555.58753,0.15846
2553.65879,0.15832
2551.73004,0.15799
2549.80130,0.15754
2547.87255,0.15712
2545.94381,0.15677
2544.01506,0.15636
2542.08631,0.15600
2540.15757,0.15602
2538.22882,0.15645
2536.30008,0.15692
2534.37133,0.15723
2532.44259,0.15748
2530.51384,0.15783
2528.58510,0.15814
2526.65635,0.15837
2524.72761,0.15873
2522.79886,0.15914
2520.87012,0.15945
2518.94137,0.15970
2517.01263,0.15995
2515.08388,0.16032
2513.15514,0.16102
2511.22639,0.16199
2509.29764,0.16308
2507.36890,0.16424
2505.44015,0.16548
2503.51141,0.16683
2501.58266,0.16825
2499.65392,0.16962
2497.72517,0.17094
2495.79643,0.17220
2493.86768,0.17339
2491.93894,0.17447
2490.01019,0.17545
2488.08145,0.17634
2486.15270,0.17704
2484.22396,0.17767
2482.29521,0.17848
2480.36647,0.17939
2478.43772,0.18025
2476.50897,0.18120
2474.58023,0.18215
2472.65148,0.18297
2470.72274,0.18385
2468.79399,0.18476
2466.86525,0.18536
2464.93650,0.18560
2463.00776,0.18582
2461.07901,0.18629
2459.15027,0.18695
2457.22152,0.18765
2455.29278,0.18832
2453.36403,0.18884
2451.43529,0.18927
2449.50654,0.18990
2447.57779,0.19080
2445.64905,0.19180
2443.72030,0.19287
2441.79156,0.19398
2439.86281,0.19518
2437.93407,0.19638
2436.00532,0.19739
2434.07658,0.19828
2432.14783,0.19924
2430.21909,0.20043
2428.29034,0.20175
2426.36160,0.20296
2424.43285,0.20403
2422.50411,0.20502
2420.57536,0.20604
2418.64662,0.20712
2416.71787,0.20805
2414.78912,0.20877
2412.86038,0.20952
2410.93163,0.21038
2409.00289,0.21119
2407.07414,0.21194
2405.14540,0.21276
2403.21665,0.21371
2401.28791,0.21472
2399.35916,0.21555
2397.43042,0.21624
2395.50167,0.21694
2393.57293,0.21776
2391.64418,0.21869
2389.71544,0.21966
2387.78669,0.22059
2385.85795,0.22140
2383.92920,0.22206
2382.00045,0.22266
2380.07171,0.22340
2378.14296,0.22438
2376.21422,0.22556
2374.28547,0.22677
2372.35673,0.22784
2370.42798,0.22877
2368.49924,0.22968
2366.57049,0.23061
2364.64175,0.23144
2362.71300,0.23213
2360.78426,0.23275
2358.85551,0.23335
2356.92677,0.23397
2354.99802,0.23456
2353.06927,0.23511
2351.14053,0.23577
2349.21178,0.23663
2347.28304,0.23760
2345.35429,0.23857
2343.42555,0.23944
2341.49680,0.24013
2339.56806,0.24070
2337.63931,0.24124
2335.71057,0.24173
2333.78182,0.24221
2331.85308,0.24273
2329.92433,0.24320
2327.99559,0.24358
2326.06684,0.24405
2324.13810,0.24469
2322.20935,0.24543
2320.28060,0.24612
2318.35186,0.24662
2316.42311,0.24685
2314.49437,0.24694
2312.56562,0.24701
2310.63688,0.24705
2308.70813,0.24705
2306.77939,0.24701
2304.85064,0.24677
2302.92190,0.24634
2300.99315,0.24584
2299.06441,0.24531
2297.13566,0.24489
2295.20692,0.24467
2293.27817,0.24433
2291.34943,0.24373
2289.42068,0.24313
2287.49193,0.24268
2285.56319,0.24232
2283.63444,0.24210
2281.70570,0.24195
2279.77695,0.24162
2277.84821,0.24105
2275.91946,0.24037
2273.99072,0.23964
2272.06197,0.23872
2270.13323,0.23751
2268.20448,0.23615
2266.27574,0.23472
2264.34699,0.23322
2262.41825,0.23168
2260.48950,0.23029
2258.56075,0.22917
2256.63201,0.22824
2254.70326,0.22751
2252.77452,0.22704
2250.84577,0.22659
2248.91703,0.22596
2246.98828,0.22532
2245.05954,0.22473
2243.13079,0.22415
2241.20205,0.22363
2239.27330,0.22320
2237.34456,0.22289
2235.41581,0.22277
2233.48707,0.22277
2231.55832,0.22283
2229.62958,0.22305
2227.70083,0.22334
2225.77208,0.22358
2223.84334,0.22404
2221.91459,0.22481
2219.98585,0.22567
2218.05710,0.22645
2216.12836,0.22705
2214.19961,0.22755
2212.27087,0.22815
2210.34212,0.22884
2208.41338,0.22936
2206.48463,0.22951
2204.55589,0.22939
2202.62714,0.22917
2200.69840,0.22898
2198.76965,0.22870
2196.84090,0.22815
2194.91216,0.22746
2192.98341,0.22669
2191.05467,0.22568
2189.12592,0.22443
2187.19718,0.22303
2185.26843,0.22170
2183.33969,0.22051
2181.41094,0.21906
2179.48220,0.21727
2177.55345,0.21553
2175.62471,0.21392
2173.69596,0.21216
2171.76722,0.21030
2169.83847,0.20856
2167.90973,0.20704
2165.98098,0.20558
2164.05223,0.20414
2162.12349,0.20282
2160.19474,0.20162
2158.26600,0.20054
2156.33725,0.19960
2154.40851,0.19868
2152.47976,0.19779
2150.55102,0.19705
2148.62227,0.19645
2146.69353,0.19585
2144.76478,0.19519
2142.83604,0.19445
2140.90729,0.19365
2138.97855,0.19297
2137.04980,0.19256
2135.12106,0.19242
2133.19231,0.19258
2131.26356,0.19305
2129.33482,0.19375
2127.40607,0.19447
2125.47733,0.19520
2123.54858,0.19604
2121.61984,0.19695
2119.69109,0.19775
2117.76235,0.19850
2115.83360,0.19945
2113.90486,0.20049
2111.97611,0.20154
2110.04737,0.20268
2108.11862,0.20363
2106.18988,0.20428
2104.26113,0.20496
2102.33238,0.20582
2100.40364,0.20668
2098.47489,0.20750
2096.54615,0.20831
2094.61740,0.20902
2092.68866,0.20964
2090.75991,0.21021
2088.83117,0.21071
2086.90242,0.21126
2084.97368,0.21188
2083.04493,0.21225
2081.11619,0.21217
2079.18744,0.21205
2077.25870,0.21218
2075.32995,0.21219
2073.40121,0.21179
2071.47246,0.21131
2069.54371,0.21101
2067.61497,0.21082
2065.68622,0.21071
2063.75748,0.21073
2061.82873,0.21081
2059.89999,0.21082
2057.97124,0.21080
2056.04250,0.21085
2054.11375,0.21089
2052.18501,0.21090
2050.25626,0.21096
2048.32752,0.21106
2046.39877,0.21128
2044.47003,0.21177
2042.54128,0.21243
2040.61254,0.21311
2038.68379,0.21391
2036.75504,0.21505
2034.82630,0.21645
2032.89755,0.21791
2030.96881,0.21950
2029.04006,0.22123
2027.11132,0.22303
2025.18257,0.22495
2023.25383,0.22696
2021.32508,0.22892
2019.39634,0.23075
2017.46759,0.23250
2015.53885,0.23421
2013.61010,0.23574
2011.68136,0.23706
2009.75261,0.23825
2007.82386,0.23931
2005.89512,0.24010
2003.96637,0.24058
2002.03763,0.24083
2000.10888,0.24117
1998.18014,0.24188
1996.25139,0.24271
1994.32265,0.24350
1992.39390,0.24450
1990.46516,0.24568
1988.53641,0.24675
1986.60767,0.24770
1984.67892,0.24861
1982.75018,0.24944
1980.82143,0.25011
1978.89269,0.25066
1976.96394,0.25114
1975.03519,0.25154
1973.10645,0.25183
1971.17770,0.25216
1969.24896,0.25262
1967.32021,0.25312
1965.39147,0.25352
1963.46272,0.25386
1961.53398,0.25426
1959.60523,0.25482
1957.67649,0.25560
1955.74774,0.25649
1953.81900,0.25740
1951.89025,0.25844
1949.96151,0.25971
1948.03276,0.26108
1946.10402,0.26246
1944.17527,0.26387
1942.24652,0.26528
1940.31778,0.26674
1938.38903,0.26828
1936.46029,0.26975
1934.53154,0.27102
1932.60280,0.27215
1930.67405,0.27319
1928.74531,0.27415
1926.81656,0.27509
1924.88782,0.27595
1922.95907,0.27668
1921.03033,0.27730
1919.10158,0.27782
1917.17284,0.27824
1915.24409,0.27865
1913.31534,0.27909
1911.38660,0.27954
1909.45785,0.27989
1907.52911,0.28015
1905.60036,0.28037
1903.67162,0.28042
1901.74287,0.28026
1899.81413,0.28005
1897.88538,0.27994
1895.95664,0.27989
1894.02789,0.27984
1892.09915,0.27973
1890.17040,0.27954
1888.24166,0.27926
1886.31291,0.27895
1884.38417,0.27867
1882.45542,0.27845
1880.52667,0.27832
1878.59793,0.27817
1876.66918,0.27794
1874.74044,0.27757
1872.81169,0.27706
1870.88295,0.27663
1868.95420,0.27637
1867.02546,0.27607
1865.09671,0.27553
1863.16797,0.27484
1861.23922,0.27413
1859.31048,0.27339
1857.38173,0.27269
1855.45299,0.27201
1853.52424,0.27122
1851.59549,0.27029
1849.66675,0.26924
1847.73800,0.26798
1845.80926,0.26652
1843.88051,0.26514
1841.95177,0.26401
1840.02302,0.26308
1838.09428,0.26230
1836.16553,0.26164
1834.23679,0.26102
1832.30804,0.26040
1830.37930,0.25968
1828.45055,0.25884
1826.52181,0.25807
1824.59306,0.25735
1822.66432,0.25651
1820.73557,0.25560
1818.80682,0.25468
1816.87808,0.25376
1814.94933,0.25281
1813.02059,0.25183
1811.09184,0.25070
1809.16310,0.24943
1807.23435,0.24815
1805.30561,0.24687
1803.37686,0.24546
1801.44812,0.24411
1799.51937,0.24299
1797.59063,0.24201
1795.66188,0.24101
1793.73314,0.23989
1791.80439,0.23856
1789.87565,0.23713
1787.94690,0.23581
1786.01815,0.23460
1784.08941,0.23330
1782.16066,0.23187
1780.23192,0.23044
1778.30317,0.22898
1776.37443,0.22742
1774.44568,0.22578
1772.51694,0.22406
1770.58819,0.22230
1768.65945,0.22062
1766.73070,0.21901
1764.80196,0.21747
1762.87321,0.21601
1760.94447,0.21465
1759.01572,0.21330
1757.08697,0.21173
1755.15823,0.21010
1753.22948,0.20866
1751.30074,0.20713
1749.37199,0.20539
1747.44325,0.20361
1745.51450,0.20171
1743.58576,0.19960
1741.65701,0.19739
1739.72827,0.19525
1737.79952,0.19347
1735.87078,0.19200
1733.94203,0.19029
1732.01329,0.18852
1730.08454,0.18716
1728.15580,0.18602
1726.22705,0.18492
1724.29830,0.18372
1722.36956,0.18249
1720.44081,0.18138
1718.51207,0.18027
1716.58332,0.17898
1714.65458,0.17757
1712.72583,0.17617
1710.79709,0.17477
1708.86834,0.17330
1706.93960,0.17163
1705.01085,0.16979
1703.08211,0.16806
1701.15336,0.16607
1699.22462,0.16343
1697.29587,0.16066
1695.36713,0.15785
1693.43838,0.15504
1691.50963,0.15227
1689.58089,0.14932
1687.65214,0.14644
1685.72340,0.14333
1683.79465,0.13946
1681.86591,0.13575
1679.93716,0.13253
1678.00842,0.12929
1676.07967,0.12589
1674.15093,0.12265
1672.22218,0.11990
1670.29344,0.11718
1668.36469,0.11422
1666.43595,0.11167
1664.50720,0.10958
1662.57845,0.10755
1660.64971,0.10559
1658.72096,0.10392
1656.79222,0.10272
1654.86347,0.10171
1652.93473,0.10033
1651.00598,0.09926
1649.07724,0.09877
1647.14849,0.09805
1645.21975,0.09709
1643.29100,0.09650
1641.36226,0.09615
1639.43351,0.09587
1637.50477,0.09567
1635.57602,0.09546
1633.64728,0.09545
1631.71853,0.09572
1629.78978,0.09610
1627.86104,0.09654
1625.93229,0.09711
1624.00355,0.09781
1622.07480,0.09861
1620.14606,0.09941
1618.21731,0.10006
1616.28857,0.10060
1614.35982,0.10121
1612.43108,0.10179
1610.50233,0.10218
1608.57359,0.10255
1606.64484,0.10307
1604.71610,0.10366
1602.78735,0.10430
1600.85861,0.10494
1598.92986,0.10556
1597.00111,0.10631
1595.07237,0.10722
1593.14362,0.10825
1591.21488,0.10937
1589.28613,0.11056
1587.35739,0.11185
1585.42864,0.11341
1583.49990,0.11510
1581.57115,0.11664
1579.64241,0.11802
1577.71366,0.11951
1575.78492,0.12108
1573.85617,0.12225
1571.92743,0.12314
1569.99868,0.12414
1568.06993,0.12506
1566.14119,0.12552
1564.21244,0.12566
1562.28370,0.12582
1560.35495,0.12610
1558.42621,0.12644
1556.49746,0.12675
1554.56872,0.12691
1552.63997,0.12683
1550.71123,0.12666
1548.78248,0.12652
1546.85374,0.12647
1544.92499,0.12651
1542.99625,0.12657
1541.06750,0.12649
1539.13876,0.12600
1537.21001,0.12535
1535.28126,0.12481
1533.35252,0.12421
1531.42377,0.12353
1529.49503,0.12291
1527.56628,0.12222
1525.63754,0.12120
1523.70879,0.11976
1521.78005,0.11780
1519.85130,0.11551
1517.92256,0.11322
1515.99381,0.11093
1514.06507,0.10884
1512.13632,0.10711
1510.20758,0.10567
1508.27883,0.10432
1506.35008,0.10261
1504.42134,0.10081
1502.49259,0.09926
1500.56385,0.09772
1498.63510,0.09601
1496.70636,0.09389
1494.77761,0.09130
1492.84887,0.08846
1490.92012,0.08518
1488.99138,0.08119
1487.06263,0.07674
1485.13389,0.07220
1483.20514,0.06812
1481.27640,0.06510
1479.34765,0.06325
1477.41891,0.06180
1475.49016,0.06002
1473.56141,0.05773
1471.63267,0.05514
1469.70392,0.05276
1467.77518,0.05075
1465.84643,0.04880
1463.91769,0.04680
1461.98894,0.04517
1460.06020,0.04402
1458.13145,0.04296
1456.20271,0.04179
1454.27396,0.04081
1452.34522,0.04010
1450.41647,0.03962
1448.48773,0.03925
1446.55898,0.03880
1444.63024,0.03824
1442.70149,0.03758
1440.77274,0.03683
1438.84400,0.03611
1436.91525,0.03534
1434.98651,0.03470
1433.05776,0.03453
1431.12902,0.03477
1429.20027,0.03526
1427.27153,0.03594
1425.34278,0.03682
1423.41404,0.03790
1421.48529,0.03912
1419.55655,0.04036
1417.62780,0.04146
1415.69906,0.04242
1413.77031,0.04322
1411.84156,0.04374
1409.91282,0.04395
1407.98407,0.04393
1406.05533,0.04384
1404.12658,0.04380
1402.19784,0.04375
1400.26909,0.04367
1398.34035,0.04367
1396.41160,0.04356
1394.48286,0.04289
1392.55411,0.04181
1390.62537,0.04073
1388.69662,0.03958
1386.76788,0.03806
1384.83913,0.03635
1382.91039,0.03474
1380.98164,0.03338
1379.05289,0.03233
1377.12415,0.03167
1375.19540,0.03141
1373.26666,0.03135
1371.33791,0.03151
1369.40917,0.03192
1367.48042,0.03232
1365.55168,0.03258
1363.62293,0.03285
1361.69419,0.03313
1359.76544,0.03335
1357.83670,0.03348
1355.90795,0.03366
1353.97921,0.03411
1352.05046,0.03469
1350.12172,0.03507
1348.19297,0.03518
1346.26422,0.03509
1344.33548,0.03470
1342.40673,0.03410
1340.47799,0.03363
1338.54924,0.03358
1336.62050,0.03376
1334.69175,0.03388
1332.76301,0.03403
1330.83426,0.03433
1328.90552,0.03452
1326.97677,0.03440
1325.04803,0.03415
1323.11928,0.03389
1321.19054,0.03372
1319.26179,0.03382
1317.33304,0.03429
1315.40430,0.03500
1313.47555,0.03588
1311.54681,0.03693
1309.61806,0.03802
1307.68932,0.03903
1305.76057,0.03994
1303.83183,0.04076
1301.90308,0.04146
1299.97434,0.04182
1298.04559,0.04178
1296.11685,0.04151
1294.18810,0.04111
1292.25936,0.04066
1290.33061,0.04020
1288.40187,0.03953
1286.47312,0.03864
1284.54437,0.03784
1282.61563,0.03757
1280.68688,0.03794
1278.75814,0.03863
1276.82939,0.03944
1274.90065,0.04032
1272.97190,0.04096
1271.04316,0.04103
1269.11441,0.04058
1267.18567,0.03994
1265.25692,0.03946
1263.32818,0.03930
1261.39943,0.03945
1259.47069,0.03974
1257.54194,0.04006
1255.61320,0.04032
1253.68445,0.04032
1251.75570,0.04007
1249.82696,0.03984
1247.89821,0.03976
1245.96947,0.03975
1244.04072,0.03975
1242.11198,0.03975
1240.18323,0.03960
1238.25449,0.03913
1236.32574,0.03857
1234.39700,0.03844
1232.46825,0.03887
1230.53951,0.03951
1228.61076,0.04002
1226.68202,0.04029
1224.75327,0.04042
1222.82452,0.04055
1220.89578,0.04066
1218.96703,0.04054
1217.03829,0.03988
1215.10954,0.03854
1213.18080,0.03662
1211.25205,0.03437
1209.32331,0.03228
1207.39456,0.03076
1205.46582,0.03002
1203.53707,0.02987
1201.60833,0.02991
1199.67958,0.03004
1197.75084,0.03034
1195.82209,0.03063
1193.89335,0.03063
1191.96460,0.03040
1190.03585,0.03007
1188.10711,0.02945
1186.17836,0.02856
1184.24962,0.02766
1182.32087,0.02681
1180.39213,0.02614
1178.46338,0.02614
1176.53464,0.02703
1174.60589,0.02873
1172.67715,0.03135
1170.74840,0.03470
1168.81966,0.03806
1166.89091,0.04069
1164.96217,0.04206
1163.03342,0.04184
1161.10467,0.04037
1159.17593,0.03870
1157.24718,0.03725
1155.31844,0.03574
1153.38969,0.03416
1151.46095,0.03275
1149.53220,0.03162
1147.60346,0.03072
1145.67471,0.02975
1143.74597,0.02842
1141.81722,0.02696
1139.88848,0.02570
1137.95973,0.02448
1136.03099,0.02328
1134.10224,0.02251
1132.17350,0.02237
1130.24475,0.02263
1128.31600,0.02305
1126.38726,0.02375
1124.45851,0.02476
1122.52977,0.02581
1120.60102,0.02686
1118.67228,0.02816
1116.74353,0.02983
1114.81479,0.03174
1112.88604,0.03339
1110.95730,0.03428
1109.02855,0.03452
1107.09981,0.03467
1105.17106,0.03465
1103.24232,0.03413
1101.31357,0.03353
1099.38483,0.03314
1097.45608,0.03241
1095.52733,0.03121
1093.59859,0.03020
1091.66984,0.02977
1089.74110,0.02984
1087.81235,0.03022
1085.88361,0.03077
1083.95486,0.03181
1082.02612,0.03405
1080.09737,0.03744
1078.16863,0.04105
1076.23988,0.04426
1074.31114,0.04709
1072.38239,0.04972
1070.45365,0.05255
1068.52490,0.05605
1066.59615,0.06017
1064.66741,0.06436
1062.73866,0.06788
1060.80992,0.06979
1058.88117,0.06946
1056.95243,0.06756
1055.02368,0.06544
1053.09494,0.06329
1051.16619,0.06052
1049.23745,0.05749
1047.30870,0.05492
1045.37996,0.05309
1043.45121,0.05240
1041.52247,0.05334
1039.59372,0.05594
1037.66498,0.05940
1035.73623,0.06223
1033.80748,0.06354
1031.87874,0.06353
1029.94999,0.06259
1028.02125,0.06116
1026.09250,0.05998
1024.16376,0.05925
1022.23501,0.05859
1020.30627,0.05805
1018.37752,0.05803
1016.44878,0.05846
1014.52003,0.05882
1012.59129,0.05881
1010.66254,0.05840
1008.73380,0.05779
1006.80505,0.05718
1004.87631,0.05673
1002.94756,0.05674
1001.01881,0.05728
999.09007,0.05811
997.16132,0.05895
995.23258,0.05963
993.30383,0.06018
991.37509,0.06071
989.44634,0.06127
987.51760,0.06209
985.58885,0.06344
983.66011,0.06553
981.73136,0.06844
979.80262,0.07184
977.87387,0.07517
975.94513,0.07788
974.01638,0.07984
972.08763,0.08155
970.15889,0.08348
968.23014,0.08554
966.30140,0.08773
964.37265,0.09017
962.44391,0.09273
960.51516,0.09534
958.58642,0.09814
956.65767,0.10119
954.72893,0.10418
952.80018,0.10668
950.87144,0.10859
948.94269,0.11003
947.01395,0.11110
945.08520,0.11206
943.15646,0.11312
941.22771,0.11379
939.29896,0.11375
937.37022,0.11360
935.44147,0.11372
933.51273,0.11391
931.58398,0.11422
929.65524,0.11479
927.72649,0.11539
925.79775,0.11562
923.86900,0.11541
921.94026,0.11485
920.01151,0.11368
918.08277,0.11177
916.15402,0.10933
914.22528,0.10656
912.29653,0.10360
910.36779,0.10073
908.43904,0.09812
906.51029,0.09556
904.58155,0.09294
902.65280,0.09061
900.72406,0.08890
898.79531,0.08788
896.86657,0.08748
894.93782,0.08797
893.00908,0.08964
891.08033,0.09220
889.15159,0.09527
887.22284,0.09855
885.29410,0.10150
883.36535,0.10408
881.43661,0.10662
879.50786,0.10900
877.57911,0.11098
875.65037,0.11257
873.72162,0.11404
871.79288,0.11571
869.86413,0.11727
867.93539,0.11832
866.00664,0.11916
864.07790,0.11997
862.14915,0.12065
860.22041,0.12131
858.29166,0.12178
856.36292,0.12190
854.43417,0.12185
852.50543,0.12147
850.57668,0.12069
848.64794,0.12001
846.71919,0.11946
844.79044,0.11865
842.86170,0.11760
840.93295,0.11639
839.00421,0.11509
837.07546,0.11383
835.14672,0.11244
833.21797,0.11057
831.28923,0.10817
829.36048,0.10552
827.43174,0.10287
825.50299,0.10014
823.57425,0.09724
821.64550,0.09447
819.71676,0.09207
817.78801,0.08999
815.85926,0.08842
813.93052,0.08730
812.00177,0.08597
810.07303,0.08397
808.14428,0.08167
806.21554,0.07987
804.28679,0.07887
802.35805,0.07837
800.42930,0.07803
798.50056,0.07777
796.57181,0.07792
794.64307,0.07853
792.71432,0.07922
790.78558,0.08005
788.85683,0.08121
786.92809,0.08247
784.99934,0.08348
783.07059,0.08385
781.14185,0.08364
779.21310,0.08337
777.28436,0.08312
775.35561,0.08241
773.42687,0.08111
771.49812,0.07965
769.56938,0.07830
767.64063,0.07713
765.71189,0.07618
763.78314,0.07538
761.85440,0.07446
759.92565,0.07301
757.99691,0.07137
756.06816,0.07003
754.13942,0.06870
752.21067,0.06734
750.28192,0.06621
748.35318,0.06514
746.42443,0.06394
744.49569,0.06287
742.56694,0.06208
740.63820,0.06142
738.70945,0.06038
736.78071,0.05849
734.85196,0.05645
732.92322,0.05510
730.99447,0.05407
729.06573,0.05272
727.13698,0.05115
725.20824,0.04983
723.27949,0.04903
721.35074,0.04840
719.42200,0.04756
717.49325,0.04695
715.56451,0.04684
713.63576,0.04678
711.70702,0.04658
709.77827,0.04631
707.84953,0.04624
705.92078,0.04644
703.99204,0.04662
702.06329,0.04681
700.13455,0.04708
698.20580,0.04721
696.27706,0.04705
694.34831,0.04684
692.41957,0.04709
690.49082,0.04788
688.56207,0.04854
686.63333,0.04863
684.70458,0.04846
682.77584,0.04836
680.84709,0.04819
678.91835,0.04766
676.98960,0.04671
675.06086,0.04576
673.13211,0.04525
671.20337,0.04523
669.27462,0.04563
667.34588,0.04617
665.41713,0.04661
663.48839,0.04707
661.55964,0.04749
659.63090,0.04770
657.70215,0.04770
655.77340,0.04748
653.84466,0.04683
651.91591,0.04591
649.98717,0.04547
648.05842,0.04513
646.12968,0.04443
644.20093,0.04396
642.27219,0.04349
640.34344,0.04272
638.41470,0.04190
636.48595,0.04046
634.55721,0.03877
632.62846,0.03829
630.69972,0.03867
628.77097,0.03879
626.84222,0.03843
624.91348,0.03838
622.98473,0.03917
621.05599,0.03960
619.12724,0.03956
617.19850,0.04023
615.26975,0.04113
613.34101,0.04170
611.41226,0.04253
609.48352,0.04378
607.55477,0.04528
605.62603,0.04653
603.69728,0.04689
601.76854,0.04701
599.83979,0.04794
