7497.03301,0.57423
7495.10426,0.57352
7493.17552,0.57416
7491.24677,0.57507
7489.31803,0.57270
7487.38928,0.56750
7485.46054,0.56663
7483.53179,0.57183
7481.60305,0.57740
7479.67430,0.58025
7477.74556,0.58024
7475.81681,0.57859
7473.88807,0.57735
7471.95932,0.57799
7470.03057,0.57969
7468.10183,0.57932
7466.17308,0.57672
7464.24434,0.57351
7462.31559,0.57010
7460.38685,0.56869
7458.45810,0.57054
7456.52936,0.57368
7454.60061,0.57451
7452.67187,0.57167
7450.74312,0.56929
7448.81438,0.56808
7446.88563,0.56471
7444.95689,0.56296
7443.02814,0.56644
7441.09940,0.57163
7439.17065,0.57478
7437.24190,0.57232
7435.31316,0.56567
7433.38441,0.56366
7431.45567,0.56661
7429.52692,0.56907
7427.59818,0.57114
7425.66943,0.57086
7423.74069,0.56740
7421.81194,0.56648
7419.88320,0.56981
7417.95445,0.57242
7416.02571,0.57053
7414.09696,0.56796
7412.16822,0.56994
7410.23947,0.57414
7408.31073,0.57638
7406.38198,0.57528
7404.45323,0.56935
7402.52449,0.56143
7400.59574,0.55817
7398.66700,0.55974
7396.73825,0.56093
7394.80951,0.55932
7392.88076,0.55674
7390.95202,0.55647
7389.02327,0.55758
7387.09453,0.55749
7385.16578,0.56063
7383.23704,0.56908
7381.30829,0.57456
7379.37955,0.57332
7377.45080,0.57138
7375.52205,0.57339
7373.59331,0.57663
7371.66456,0.57485
7369.73582,0.56808
7367.80707,0.56192
7365.87833,0.55970
7363.94958,0.56107
7362.02084,0.56419
7360.09209,0.56668
7358.16335,0.56656
7356.23460,0.56531
7354.30586,0.56642
7352.37711,0.56859
7350.44837,0.56585
7348.51962,0.55856
7346.59088,0.55577
7344.66213,0.56077
7342.73338,0.56733
7340.80464,0.56850
7338.87589,0.56223
7336.94715,0.55460
7335.01840,0.55173
7333.08966,0.55132
7331.16091,0.54898
7329.23217,0.54738
7327.30342,0.54987
7325.37468,0.55207
7323.44593,0.55144
7321.51719,0.55061
7319.58844,0.55093
7317.65970,0.55369
7315.73095,0.55830
7313.80221,0.56129
7311.87346,0.56221
7309.94471,0.56282
7308.01597,0.56356
7306.08722,0.56443
7304.15848,0.56507
7302.22973,0.56491
7300.30099,0.56257
7298.37224,0.55541
7296.44350,0.54632
7294.51475,0.54389
7292.58601,0.54963
7290.65726,0.55530
7288.72852,0.55614
7286.79977,0.55539
7284.87103,0.55706
7282.94228,0.56016
7281.01353,0.56081
7279.08479,0.55913
7277.15604,0.55693
7275.22730,0.55409
7273.29855,0.55300
7271.36981,0.55484
7269.44106,0.55612
7267.51232,0.55549
7265.58357,0.55467
7263.65483,0.55409
7261.72608,0.55405
7259.79734,0.55622
7257.86859,0.55864
7255.93985,0.55703
7254.01110,0.55447
7252.08236,0.55564
7250.15361,0.55660
7248.22486,0.55480
7246.29612,0.55416
7244.36737,0.55618
7242.43863,0.55840
7240.50988,0.55834
7238.58114,0.55795
7236.65239,0.56030
7234.72365,0.56210
7232.79490,0.56075
7230.86616,0.56019
7228.93741,0.56202
7227.00867,0.56293
7225.07992,0.56109
7223.15118,0.55794
7221.22243,0.55516
7219.29369,0.55222
7217.36494,0.55003
7215.43619,0.55158
7213.50745,0.55520
7211.57870,0.55610
7209.64996,0.55429
7207.72121,0.55361
7205.79247,0.55605
7203.86372,0.55958
7201.93498,0.56167
7200.00623,0.56155
7198.07749,0.55881
7196.14874,0.55453
7194.22000,0.55219
7192.29125,0.55450
7190.36251,0.55864
7188.43376,0.55949
7186.50501,0.55853
7184.57627,0.55808
7182.64752,0.55537
7180.71878,0.55042
7178.79003,0.54714
7176.86129,0.54780
7174.93254,0.55138
7173.00380,0.55405
7171.07505,0.55488
7169.14631,0.55545
7167.21756,0.55306
7165.28882,0.54746
7163.36007,0.54524
7161.43133,0.54753
7159.50258,0.54924
7157.57384,0.55089
7155.64509,0.55398
7153.71634,0.55525
7151.78760,0.55419
7149.85885,0.55313
7147.93011,0.55228
7146.00136,0.55056
7144.07262,0.54855
7142.14387,0.54986
7140.21513,0.55476
7138.28638,0.55706
7136.35764,0.55377
7134.42889,0.54853
7132.50015,0.54555
7130.57140,0.54584
7128.64266,0.54650
7126.71391,0.54642
7124.78516,0.54800
7122.85642,0.54949
7120.92767,0.54750
7118.99893,0.54492
7117.07018,0.54471
7115.14144,0.54574
7113.21269,0.54803
7111.28395,0.55117
7109.35520,0.55273
7107.42646,0.55279
7105.49771,0.55249
7103.56897,0.55174
7101.64022,0.55107
7099.71148,0.54986
7097.78273,0.54567
7095.85399,0.53886
7093.92524,0.53402
7091.99649,0.53456
7090.06775,0.53908
7088.13900,0.54315
7086.21026,0.54347
7084.28151,0.54039
7082.35277,0.53656
7080.42402,0.53461
7078.49528,0.53473
7076.56653,0.53514
7074.63779,0.53530
7072.70904,0.53413
7070.78030,0.53077
7068.85155,0.52742
7066.92281,0.52660
7064.99406,0.52877
7063.06532,0.53100
7061.13657,0.53029
7059.20782,0.52880
7057.27908,0.52892
7055.35033,0.52849
7053.42159,0.52562
7051.49284,0.52338
7049.56410,0.52389
7047.63535,0.52381
7045.70661,0.52069
7043.77786,0.51792
7041.84912,0.51940
7039.92037,0.52287
7037.99163,0.52366
7036.06288,0.52134
7034.13414,0.51997
7032.20539,0.52140
7030.27664,0.52040
7028.34790,0.51473
7026.41915,0.51042
7024.49041,0.51079
7022.56166,0.51328
7020.63292,0.51459
7018.70417,0.51332
7016.77543,0.51057
7014.84668,0.50820
7012.91794,0.50643
7010.98919,0.50455
7009.06045,0.50393
7007.13170,0.50581
7005.20296,0.50768
7003.27421,0.50849
7001.34547,0.51058
6999.41672,0.51293
6997.48797,0.51326
6995.55923,0.51199
6993.63048,0.50902
6991.70174,0.50462
6989.77299,0.50159
6987.84425,0.50190
6985.91550,0.50343
6983.98676,0.50323
6982.05801,0.50259
6980.12927,0.50337
6978.20052,0.50412
6976.27178,0.50291
6974.34303,0.49918
6972.41429,0.49445
6970.48554,0.49270
6968.55680,0.49572
6966.62805,0.50005
6964.69930,0.50151
6962.77056,0.50014
6960.84181,0.49845
6958.91307,0.49638
6956.98432,0.49416
6955.05558,0.49500
6953.12683,0.49793
6951.19809,0.49769
6949.26934,0.49415
6947.34060,0.49231
6945.41185,0.49297
6943.48311,0.49321
6941.55436,0.49326
6939.62562,0.49393
6937.69687,0.49482
6935.76812,0.49593
6933.83938,0.49675
6931.91063,0.49668
6929.98189,0.49610
6928.05314,0.49566
6926.12440,0.49422
6924.19565,0.49106
6922.26691,0.48824
6920.33816,0.48712
6918.40942,0.48771
6916.48067,0.48850
6914.55193,0.48776
6912.62318,0.48697
6910.69444,0.48808
6908.76569,0.49004
6906.83695,0.49035
6904.90820,0.48931
6902.97945,0.48968
6901.05071,0.49094
6899.12196,0.48982
6897.19322,0.48660
6895.26447,0.48457
6893.33573,0.48418
6891.40698,0.48456
6889.47824,0.48629
6887.54949,0.48825
6885.62075,0.48902
6883.69200,0.48907
6881.76326,0.48835
6879.83451,0.48695
6877.90577,0.48616
6875.97702,0.48641
6874.04828,0.48742
6872.11953,0.48867
6870.19078,0.48963
6868.26204,0.48971
6866.33329,0.48665
6864.40455,0.48127
6862.47580,0.47848
6860.54706,0.47927
6858.61831,0.48080
6856.68957,0.48138
6854.76082,0.48152
6852.83208,0.48201
6850.90333,0.48294
6848.97459,0.48386
6847.04584,0.48442
6845.11710,0.48535
6843.18835,0.48587
6841.25960,0.48445
6839.33086,0.48238
6837.40211,0.48176
6835.47337,0.48240
6833.54462,0.48242
6831.61588,0.48224
6829.68713,0.48334
6827.75839,0.48445
6825.82964,0.48261
6823.90090,0.47823
6821.97215,0.47481
6820.04341,0.47326
6818.11466,0.47384
6816.18592,0.47551
6814.25717,0.47471
6812.32843,0.47261
6810.39968,0.47211
6808.47093,0.47206
6806.54219,0.47169
6804.61344,0.47203
6802.68470,0.47311
6800.75595,0.47379
6798.82721,0.47364
6796.89846,0.47286
6794.96972,0.47251
6793.04097,0.47348
6791.11223,0.47468
6789.18348,0.47432
6787.25474,0.47219
6785.32599,0.47054
6783.39725,0.47081
6781.46850,0.47112
6779.53975,0.46909
6777.61101,0.46602
6775.68226,0.46457
6773.75352,0.46465
6771.82477,0.46543
6769.89603,0.46582
6767.96728,0.46559
6766.03854,0.46659
6764.10979,0.46796
6762.18105,0.46747
6760.25230,0.46630
6758.32356,0.46541
6756.39481,0.46360
6754.46607,0.46219
6752.53732,0.46346
6750.60858,0.46519
6748.67983,0.46518
6746.75108,0.46490
6744.82234,0.46473
6742.89359,0.46325
6740.96485,0.46104
6739.03610,0.46090
6737.10736,0.46237
6735.17861,0.46257
6733.24987,0.46281
6731.32112,0.46495
6729.39238,0.46614
6727.46363,0.46469
6725.53489,0.46391
6723.60614,0.46471
6721.67740,0.46311
6719.74865,0.46001
6717.81991,0.46047
6715.89116,0.46283
6713.96241,0.46260
6712.03367,0.46083
6710.10492,0.46019
6708.17618,0.46150
6706.24743,0.46354
6704.31869,0.46326
6702.38994,0.46105
6700.46120,0.46013
6698.53245,0.46024
6696.60371,0.45972
6694.67496,0.45896
6692.74622,0.45929
6690.81747,0.46029
6688.88873,0.46063
6686.95998,0.46116
6685.03123,0.46241
6683.10249,0.46294
6681.17374,0.46221
6679.24500,0.46175
6677.31625,0.46358
6675.38751,0.46613
6673.45876,0.46531
6671.53002,0.46258
6669.60127,0.46267
6667.67253,0.46498
6665.74378,0.46612
6663.81504,0.46579
6661.88629,0.46462
6659.95755,0.46279
6658.02880,0.46243
6656.10006,0.46432
6654.17131,0.46635
6652.24256,0.46758
6650.31382,0.46730
6648.38507,0.46549
6646.45633,0.46484
6644.52758,0.46658
6642.59884,0.46913
6640.67009,0.47006
6638.74135,0.46880
6636.81260,0.46708
6634.88386,0.46547
6632.95511,0.46449
6631.02637,0.46539
6629.09762,0.46708
6627.16888,0.46722
6625.24013,0.46532
6623.31139,0.46363
6621.38264,0.46428
6619.45389,0.46676
6617.52515,0.46922
6615.59640,0.47134
6613.66766,0.47366
6611.73891,0.47484
6609.81017,0.47427
6607.88142,0.47284
6605.95268,0.47021
6604.02393,0.46690
6602.09519,0.46506
6600.16644,0.46592
6598.23770,0.46826
6596.30895,0.46984
6594.38021,0.46989
6592.45146,0.46918
6590.52271,0.46966
6588.59397,0.47192
6586.66522,0.47397
6584.73648,0.47483
6582.80773,0.47496
6580.87899,0.47479
6578.95024,0.47476
6577.02150,0.47419
6575.09275,0.47231
6573.16401,0.47006
6571.23526,0.46837
6569.30652,0.46850
6567.37777,0.47093
6565.44903,0.47272
6563.52028,0.47337
6561.59154,0.47477
6559.66279,0.47482
6557.73404,0.47279
6555.80530,0.47210
6553.87655,0.47305
6551.94781,0.47376
6550.01906,0.47447
6548.09032,0.47553
6546.16157,0.47642
6544.23283,0.47639
6542.30408,0.47529
6540.37534,0.47400
6538.44659,0.47314
6536.51785,0.47341
6534.58910,0.47515
6532.66036,0.47652
6530.73161,0.47645
6528.80287,0.47613
6526.87412,0.47590
6524.94537,0.47572
6523.01663,0.47552
6521.08788,0.47414
6519.15914,0.47258
6517.23039,0.47302
6515.30165,0.47416
6513.37290,0.47375
6511.44416,0.47217
6509.51541,0.47107
6507.58667,0.47091
6505.65792,0.47093
6503.72918,0.47077
6501.80043,0.47139
6499.87169,0.47371
6497.94294,0.47605
6496.01419,0.47634
6494.08545,0.47550
6492.15670,0.47510
6490.22796,0.47456
6488.29921,0.47385
6486.37047,0.47451
6484.44172,0.47434
6482.51298,0.47174
6480.58423,0.47141
6478.65549,0.47407
6476.72674,0.47539
6474.79800,0.47526
6472.86925,0.47498
6470.94051,0.47368
6469.01176,0.47208
6467.08302,0.47169
6465.15427,0.47185
6463.22552,0.47217
6461.29678,0.47320
6459.36803,0.47351
6457.43929,0.47202
6455.51054,0.47083
6453.58180,0.47180
6451.65305,0.47319
6449.72431,0.47384
6447.79556,0.47514
6445.86682,0.47587
6443.93807,0.47459
6442.00933,0.47382
6440.08058,0.47483
6438.15184,0.47568
6436.22309,0.47576
6434.29434,0.47598
6432.36560,0.47625
6430.43685,0.47647
6428.50811,0.47659
6426.57936,0.47611
6424.65062,0.47572
6422.72187,0.47655
6420.79313,0.47797
6418.86438,0.47845
6416.93564,0.47716
6415.00689,0.47473
6413.07815,0.47299
6411.14940,0.47264
6409.22066,0.47319
6407.29191,0.47457
6405.36317,0.47596
6403.43442,0.47675
6401.50567,0.47694
6399.57693,0.47632
6397.64818,0.47627
6395.71944,0.47799
6393.79069,0.47959
6391.86195,0.47930
6389.93320,0.47781
6388.00446,0.47681
6386.07571,0.47707
6384.14697,0.47714
6382.21822,0.47595
6380.28948,0.47510
6378.36073,0.47544
6376.43199,0.47637
6374.50324,0.47729
6372.57450,0.47711
6370.64575,0.47643
6368.71700,0.47704
6366.78826,0.47799
6364.85951,0.47827
6362.93077,0.47911
6361.00202,0.48018
6359.07328,0.48050
6357.14453,0.48040
6355.21579,0.48034
6353.28704,0.48087
6351.35830,0.48088
6349.42955,0.47976
6347.50081,0.48011
6345.57206,0.48213
6343.64332,0.48270
6341.71457,0.48140
6339.78582,0.48045
6337.85708,0.48053
6335.92833,0.48113
6333.99959,0.48207
6332.07084,0.48293
6330.14210,0.48315
6328.21335,0.48257
6326.28461,0.48163
6324.35586,0.48105
6322.42712,0.48095
6320.49837,0.48078
6318.56963,0.48056
6316.64088,0.48101
6314.71214,0.48212
6312.78339,0.48263
6310.85465,0.48169
6308.92590,0.48098
6306.99715,0.48195
6305.06841,0.48394
6303.13966,0.48658
6301.21092,0.48817
6299.28217,0.48618
6297.35343,0.48308
6295.42468,0.48272
6293.49594,0.48359
6291.56719,0.48330
6289.63845,0.48286
6287.70970,0.48314
6285.78096,0.48311
6283.85221,0.48273
6281.92347,0.48358
6279.99472,0.48579
6278.06598,0.48774
6276.13723,0.48859
6274.20848,0.48818
6272.27974,0.48683
6270.35099,0.48575
6268.42225,0.48553
6266.49350,0.48542
6264.56476,0.48519
6262.63601,0.48566
6260.70727,0.48669
6258.77852,0.48733
6256.84978,0.48770
6254.92103,0.48894
6252.99229,0.49085
6251.06354,0.49212
6249.13480,0.49323
6247.20605,0.49488
6245.27730,0.49580
6243.34856,0.49563
6241.41981,0.49547
6239.49107,0.49562
6237.56232,0.49570
6235.63358,0.49590
6233.70483,0.49726
6231.77609,0.49979
6229.84734,0.50213
6227.91860,0.50333
6225.98985,0.50290
6224.06111,0.50122
6222.13236,0.50024
6220.20362,0.50084
6218.27487,0.50192
6216.34613,0.50199
6214.41738,0.50119
6212.48863,0.50096
6210.55989,0.50114
6208.63114,0.50057
6206.70240,0.50018
6204.77365,0.50142
6202.84491,0.50339
6200.91616,0.50437
6198.98742,0.50445
6197.05867,0.50468
6195.12993,0.50499
6193.20118,0.50541
6191.27244,0.50719
6189.34369,0.50936
6187.41495,0.50976
6185.48620,0.50951
6183.55746,0.50963
6181.62871,0.50990
6179.69996,0.51105
6177.77122,0.51232
6175.84247,0.51208
6173.91373,0.51117
6171.98498,0.51142
6170.05624,0.51212
6168.12749,0.51158
6166.19875,0.51127
6164.27000,0.51217
6162.34126,0.51278
6160.41251,0.51377
6158.48377,0.51524
6156.55502,0.51461
6154.62628,0.51302
6152.69753,0.51431
6150.76878,0.51692
6148.84004,0.51735
6146.91129,0.51673
6144.98255,0.51673
6143.05380,0.51769
6141.12506,0.51935
6139.19631,0.51948
6137.26757,0.51867
6135.33882,0.51989
6133.41008,0.52151
6131.48133,0.52053
6129.55259,0.51888
6127.62384,0.51962
6125.69510,0.52135
6123.76635,0.52162
6121.83761,0.52168
6119.90886,0.52291
6117.98011,0.52378
6116.05137,0.52366
6114.12262,0.52365
6112.19388,0.52368
6110.26513,0.52348
6108.33639,0.52409
6106.40764,0.52621
6104.47890,0.52817
6102.55015,0.52816
6100.62141,0.52740
6098.69266,0.52681
6096.76392,0.52633
6094.83517,0.52719
6092.90643,0.52869
6090.97768,0.52912
6089.04893,0.52942
6087.12019,0.53005
6085.19144,0.53007
6083.26270,0.52930
6081.33395,0.52832
6079.40521,0.52820
6077.47646,0.52909
6075.54772,0.52997
6073.61897,0.53079
6071.69023,0.53194
6069.76148,0.53284
6067.83274,0.53297
6065.90399,0.53275
6063.97525,0.53283
6062.04650,0.53308
6060.11776,0.53283
6058.18901,0.53239
6056.26026,0.53273
6054.33152,0.53374
6052.40277,0.53456
6050.47403,0.53460
6048.54528,0.53387
6046.61654,0.53339
6044.68779,0.53386
6042.75905,0.53449
6040.83030,0.53505
6038.90156,0.53589
6036.97281,0.53580
6035.04407,0.53460
6033.11532,0.53477
6031.18658,0.53642
6029.25783,0.53764
6027.32909,0.53819
6025.40034,0.53768
6023.47159,0.53643
6021.54285,0.53678
6019.61410,0.53875
6017.68536,0.54007
6015.75661,0.53991
6013.82787,0.53906
6011.89912,0.53879
6009.97038,0.53936
6008.04163,0.53956
6006.11289,0.53918
6004.18414,0.53928
6002.25540,0.53968
6000.32665,0.53930
5998.39791,0.53842
5996.46916,0.53825
5994.54041,0.53919
5992.61167,0.54011
5990.68292,0.53977
5988.75418,0.53928
5986.82543,0.54035
5984.89669,0.54243
5982.96794,0.54406
5981.03920,0.54448
5979.11045,0.54328
5977.18171,0.54047
5975.25296,0.53811
5973.32422,0.53869
5971.39547,0.54046
5969.46673,0.54071
5967.53798,0.54093
5965.60924,0.54259
5963.68049,0.54376
5961.75174,0.54316
5959.82300,0.54192
5957.89425,0.54094
5955.96551,0.53994
5954.03676,0.53960
5952.10802,0.54031
5950.17927,0.54057
5948.25053,0.54028
5946.32178,0.54037
5944.39304,0.54053
5942.46429,0.54063
5940.53555,0.54054
5938.60680,0.54022
5936.67806,0.54034
5934.74931,0.54066
5932.82057,0.54020
5930.89182,0.53916
5928.96307,0.53823
5927.03433,0.53734
5925.10558,0.53676
5923.17684,0.53669
5921.24809,0.53667
5919.31935,0.53644
5917.39060,0.53628
5915.46186,0.53665
5913.53311,0.53721
5911.60437,0.53709
5909.67562,0.53651
5907.74688,0.53641
5905.81813,0.53712
5903.88939,0.53797
5901.96064,0.53785
5900.03189,0.53663
5898.10315,0.53547
5896.17440,0.53493
5894.24566,0.53453
5892.31691,0.53390
5890.38817,0.53270
5888.45942,0.53158
5886.53068,0.53130
5884.60193,0.53087
5882.67319,0.52966
5880.74444,0.52863
5878.81570,0.52840
5876.88695,0.52810
5874.95821,0.52736
5873.02946,0.52745
5871.10072,0.52841
5869.17197,0.52882
5867.24322,0.52890
5865.31448,0.52895
5863.38573,0.52809
5861.45699,0.52705
5859.52824,0.52711
5857.59950,0.52721
5855.67075,0.52684
5853.74201,0.52772
5851.81326,0.52988
5849.88452,0.53120
5847.95577,0.53083
5846.02703,0.52937
5844.09828,0.52810
5842.16954,0.52797
5840.24079,0.52837
5838.31205,0.52857
5836.38330,0.52851
5834.45455,0.52811
5832.52581,0.52794
5830.59706,0.52861
5828.66832,0.52955
5826.73957,0.52999
5824.81083,0.52983
5822.88208,0.52937
5820.95334,0.52881
5819.02459,0.52834
5817.09585,0.52799
5815.16710,0.52721
5813.23836,0.52647
5811.30961,0.52685
5809.38087,0.52773
5807.45212,0.52797
5805.52337,0.52748
5803.59463,0.52672
5801.66588,0.52604
5799.73714,0.52580
5797.80839,0.52627
5795.87965,0.52652
5793.95090,0.52580
5792.02216,0.52494
5790.09341,0.52442
5788.16467,0.52393
5786.23592,0.52359
5784.30718,0.52367
5782.37843,0.52378
5780.44969,0.52360
5778.52094,0.52393
5776.59220,0.52484
5774.66345,0.52491
5772.73470,0.52404
5770.80596,0.52381
5768.87721,0.52490
5766.94847,0.52626
5765.01972,0.52641
5763.09098,0.52539
5761.16223,0.52395
5759.23349,0.52248
5757.30474,0.52158
5755.37600,0.52167
5753.44725,0.52248
5751.51851,0.52348
5749.58976,0.52415
5747.66102,0.52410
5745.73227,0.52365
5743.80352,0.52349
5741.87478,0.52366
5739.94603,0.52416
5738.01729,0.52461
5736.08854,0.52403
5734.15980,0.52284
5732.23105,0.52252
5730.30231,0.52363
5728.37356,0.52496
5726.44482,0.52472
5724.51607,0.52345
5722.58733,0.52306
5720.65858,0.52337
5718.72984,0.52303
5716.80109,0.52216
5714.87235,0.52171
5712.94360,0.52181
5711.01485,0.52224
5709.08611,0.52285
5707.15736,0.52364
5705.22862,0.52449
5703.29987,0.52445
5701.37113,0.52345
5699.44238,0.52280
5697.51364,0.52232
5695.58489,0.52140
5693.65615,0.52066
5691.72740,0.52047
5689.79866,0.52062
5687.86991,0.52042
5685.94117,0.51973
5684.01242,0.51969
5682.08368,0.52053
5680.15493,0.52091
5678.22618,0.52052
5676.29744,0.51999
5674.36869,0.51925
5672.43995,0.51866
5670.51120,0.51909
5668.58246,0.51991
5666.65371,0.51963
5664.72497,0.51834
5662.79622,0.51765
5660.86748,0.51788
5658.93873,0.51885
5657.00999,0.52064
5655.08124,0.52161
5653.15250,0.52062
5651.22375,0.51918
5649.29500,0.51862
5647.36626,0.51870
5645.43751,0.51867
5643.50877,0.51812
5641.58002,0.51754
5639.65128,0.51719
5637.72253,0.51688
5635.79379,0.51748
5633.86504,0.51917
5631.93630,0.52045
5630.00755,0.52052
5628.07881,0.51993
5626.15006,0.51953
5624.22132,0.51942
5622.29257,0.51892
5620.36383,0.51782
5618.43508,0.51676
5616.50633,0.51683
5614.57759,0.51790
5612.64884,0.51864
5610.72010,0.51873
5608.79135,0.51911
5606.86261,0.51984
5604.93386,0.52022
5603.00512,0.51999
5601.07637,0.51963
5599.14763,0.51959
5597.21888,0.51953
5595.29014,0.51939
5593.36139,0.51982
5591.43265,0.52054
5589.50390,0.52065
5587.57516,0.52004
5585.64641,0.51930
5583.71766,0.51878
5581.78892,0.51854
5579.86017,0.51858
5577.93143,0.51914
5576.00268,0.52032
5574.07394,0.52130
5572.14519,0.52125
5570.21645,0.52029
5568.28770,0.51927
5566.35896,0.51902
5564.43021,0.51921
5562.50147,0.51920
5560.57272,0.51935
5558.64398,0.51982
5556.71523,0.52050
5554.78648,0.52124
5552.85774,0.52159
5550.92899,0.52152
5549.00025,0.52140
5547.07150,0.52134
5545.14276,0.52130
5543.21401,0.52166
5541.28527,0.52258
5539.35652,0.52308
5537.42778,0.52262
5535.49903,0.52166
5533.57029,0.52105
5531.64154,0.52116
5529.71280,0.52158
5527.78405,0.52237
5525.85531,0.52313
5523.92656,0.52284
5521.99781,0.52189
5520.06907,0.52149
5518.14032,0.52188
5516.21158,0.52189
5514.28283,0.52110
5512.35409,0.52066
5510.42534,0.52082
5508.49660,0.52080
5506.56785,0.52027
5504.63911,0.51961
5502.71036,0.51931
5500.78162,0.51961
5498.85287,0.52027
5496.92413,0.52042
5494.99538,0.51977
5493.06664,0.51921
5491.13789,0.51958
5489.20914,0.52055
5487.28040,0.52091
5485.35165,0.52015
5483.42291,0.51911
5481.49416,0.51861
5479.56542,0.51868
5477.63667,0.51911
5475.70793,0.51981
5473.77918,0.52035
5471.85044,0.52029
5469.92169,0.52034
5467.99295,0.52098
5466.06420,0.52172
5464.13546,0.52204
5462.20671,0.52148
5460.27796,0.52047
5458.34922,0.52014
5456.42047,0.52081
5454.49173,0.52187
5452.56298,0.52269
5450.63424,0.52317
5448.70549,0.52352
5446.77675,0.52384
5444.84800,0.52402
5442.91926,0.52420
5440.99051,0.52482
5439.06177,0.52548
5437.13302,0.52560
5435.20428,0.52562
5433.27553,0.52578
5431.34679,0.52546
5429.41804,0.52476
5427.48929,0.52463
5425.56055,0.52563
5423.63180,0.52703
5421.70306,0.52733
5419.77431,0.52631
5417.84557,0.52551
5415.91682,0.52598
5413.98808,0.52720
5412.05933,0.52802
5410.13059,0.52838
5408.20184,0.52880
5406.27310,0.52889
5404.34435,0.52851
5402.41561,0.52850
5400.48686,0.52905
5398.55811,0.52929
5396.62937,0.52907
5394.70062,0.52923
5392.77188,0.52980
5390.84313,0.52997
5388.91439,0.52993
5386.98564,0.53019
5385.05690,0.53052
5383.12815,0.53069
5381.19941,0.53081
5379.27066,0.53083
5377.34192,0.53085
5375.41317,0.53125
5373.48443,0.53200
5371.55568,0.53249
5369.62694,0.53204
5367.69819,0.53094
5365.76944,0.53042
5363.84070,0.53084
5361.91195,0.53106
5359.98321,0.53064
5358.05446,0.53038
5356.12572,0.53073
5354.19697,0.53157
5352.26823,0.53231
5350.33948,0.53236
5348.41074,0.53177
5346.48199,0.53077
5344.55325,0.53020
5342.62450,0.53119
5340.69576,0.53246
5338.76701,0.53164
5336.83827,0.52939
5334.90952,0.52814
5332.98077,0.52843
5331.05203,0.52930
5329.12328,0.52954
5327.19454,0.52903
5325.26579,0.52881
5323.33705,0.52889
5321.40830,0.52862
5319.47956,0.52818
5317.55081,0.52766
5315.62207,0.52695
5313.69332,0.52637
5311.76458,0.52604
5309.83583,0.52573
5307.90709,0.52535
5305.97834,0.52499
5304.04959,0.52451
5302.12085,0.52366
5300.19210,0.52281
5298.26336,0.52196
5296.33461,0.52054
5294.40587,0.51919
5292.47712,0.51910
5290.54838,0.51937
5288.61963,0.51827
5286.69089,0.51670
5284.76214,0.51615
5282.83340,0.51605
5280.90465,0.51539
5278.97591,0.51370
5277.04716,0.51134
5275.11842,0.50922
5273.18967,0.50765
5271.26092,0.50607
5269.33218,0.50411
5267.40343,0.50223
5265.47469,0.50108
5263.54594,0.50081
5261.61720,0.50043
5259.68845,0.49896
5257.75971,0.49670
5255.83096,0.49450
5253.90222,0.49321
5251.97347,0.49283
5250.04473,0.49216
5248.11598,0.49031
5246.18724,0.48795
5244.25849,0.48616
5242.32975,0.48473
5240.40100,0.48337
5238.47225,0.48228
5236.54351,0.48135
5234.61476,0.48021
5232.68602,0.47897
5230.75727,0.47809
5228.82853,0.47752
5226.89978,0.47654
5224.97104,0.47479
5223.04229,0.47230
5221.11355,0.46997
5219.18480,0.46921
5217.25606,0.46977
5215.32731,0.46989
5213.39857,0.46874
5211.46982,0.46727
5209.54107,0.46655
5207.61233,0.46613
5205.68358,0.46561
5203.75484,0.46544
5201.82609,0.46553
5199.89735,0.46568
5197.96860,0.46567
5196.03986,0.46510
5194.11111,0.46436
5192.18237,0.46424
5190.25362,0.46442
5188.32488,0.46400
5186.39613,0.46320
5184.46739,0.46269
5182.53864,0.46267
5180.60990,0.46308
5178.68115,0.46356
5176.75240,0.46400
5174.82366,0.46445
5172.89491,0.46477
5170.96617,0.46506
5169.03742,0.46500
5167.10868,0.46464
5165.17993,0.46481
5163.25119,0.46513
5161.32244,0.46515
5159.39370,0.46540
5157.46495,0.46573
5155.53621,0.46589
5153.60746,0.46634
5151.67872,0.46706
5149.74997,0.46723
5147.82123,0.46699
5145.89248,0.46729
5143.96373,0.46813
5142.03499,0.46902
5140.10624,0.46974
5138.17750,0.47017
5136.24875,0.47033
5134.32001,0.47079
5132.39126,0.47192
5130.46252,0.47283
5128.53377,0.47307
5126.60503,0.47345
5124.67628,0.47405
5122.74754,0.47442
5120.81879,0.47482
5118.89005,0.47527
5116.96130,0.47556
5115.03255,0.47571
5113.10381,0.47594
5111.17506,0.47683
5109.24632,0.47804
5107.31757,0.47849
5105.38883,0.47858
5103.46008,0.47904
5101.53134,0.47976
5099.60259,0.48076
5097.67385,0.48178
5095.74510,0.48245
5093.81636,0.48280
5091.88761,0.48248
5089.95887,0.48176
5088.03012,0.48181
5086.10138,0.48275
5084.17263,0.48354
5082.24388,0.48345
5080.31514,0.48305
5078.38639,0.48336
5076.45765,0.48438
5074.52890,0.48529
5072.60016,0.48585
5070.67141,0.48647
5068.74267,0.48722
5066.81392,0.48782
5064.88518,0.48812
5062.95643,0.48841
5061.02769,0.48910
5059.09894,0.48991
5057.17020,0.49032
5055.24145,0.49064
5053.31270,0.49121
5051.38396,0.49155
5049.45521,0.49154
5047.52647,0.49153
5045.59772,0.49145
5043.66898,0.49146
5041.74023,0.49182
5039.81149,0.49209
5037.88274,0.49218
5035.95400,0.49270
5034.02525,0.49369
5032.09651,0.49436
5030.16776,0.49420
5028.23902,0.49361
5026.31027,0.49318
5024.38153,0.49282
5022.45278,0.49243
5020.52403,0.49239
5018.59529,0.49281
5016.66654,0.49362
5014.73780,0.49447
5012.80905,0.49456
5010.88031,0.49418
5008.95156,0.49397
5007.02282,0.49385
5005.09407,0.49367
5003.16533,0.49328
5001.23658,0.49278
4999.30784,0.49267
4997.37909,0.49309
4995.45035,0.49351
4993.52160,0.49345
4991.59286,0.49303
4989.66411,0.49245
4987.73536,0.49178
4985.80662,0.49138
4983.87787,0.49132
4981.94913,0.49091
4980.02038,0.48990
4978.09164,0.48915
4976.16289,0.48913
4974.23415,0.48932
4972.30540,0.48917
4970.37666,0.48854
4968.44791,0.48766
4966.51917,0.48695
4964.59042,0.48662
4962.66168,0.48620
4960.73293,0.48510
4958.80418,0.48376
4956.87544,0.48269
4954.94669,0.48146
4953.01795,0.47991
4951.08920,0.47860
4949.16046,0.47775
4947.23171,0.47706
4945.30297,0.47608
4943.37422,0.47478
4941.44548,0.47334
4939.51673,0.47183
4937.58799,0.47048
4935.65924,0.46944
4933.73050,0.46846
4931.80175,0.46740
4929.87301,0.46609
4927.94426,0.46439
4926.01551,0.46272
4924.08677,0.46126
4922.15802,0.45993
4920.22928,0.45865
4918.30053,0.45700
4916.37179,0.45498
4914.44304,0.45315
4912.51430,0.45149
4910.58555,0.44953
4908.65681,0.44721
4906.72806,0.44516
4904.79932,0.44384
4902.87057,0.44257
4900.94183,0.44090
4899.01308,0.43920
4897.08434,0.43768
4895.15559,0.43628
4893.22684,0.43471
4891.29810,0.43249
4889.36935,0.42973
4887.44061,0.42740
4885.51186,0.42585
4883.58312,0.42428
4881.65437,0.42236
4879.72563,0.42061
4877.79688,0.41914
4875.86814,0.41757
4873.93939,0.41572
4872.01065,0.41368
4870.08190,0.41185
4868.15316,0.41046
4866.22441,0.40886
4864.29566,0.40679
4862.36692,0.40521
4860.43817,0.40423
4858.50943,0.40258
4856.58068,0.40035
4854.65194,0.39882
4852.72319,0.39795
4850.79445,0.39692
4848.86570,0.39559
4846.93696,0.39421
4845.00821,0.39273
4843.07947,0.39107
4841.15072,0.38958
4839.22198,0.38842
4837.29323,0.38718
4835.36449,0.38546
4833.43574,0.38373
4831.50699,0.38261
4829.57825,0.38156
4827.64950,0.38012
4825.72076,0.37873
4823.79201,0.37740
4821.86327,0.37591
4819.93452,0.37441
4818.00578,0.37296
4816.07703,0.37154
4814.14829,0.37018
4812.21954,0.36896
4810.29080,0.36793
4808.36205,0.36695
4806.43331,0.36598
4804.50456,0.36503
4802.57582,0.36403
4800.64707,0.36350
4798.71832,0.36381
4796.78958,0.36408
4794.86083,0.36367
4792.93209,0.36295
4791.00334,0.36212
4789.07460,0.36136
4787.14585,0.36095
4785.21711,0.36044
4783.28836,0.35952
4781.35962,0.35868
4779.43087,0.35822
4777.50213,0.35813
4775.57338,0.35814
4773.64464,0.35764
4771.71589,0.35697
4769.78714,0.35709
4767.85840,0.35753
4765.92965,0.35740
4764.00091,0.35669
4762.07216,0.35566
4760.14342,0.35478
4758.21467,0.35459
4756.28593,0.35489
4754.35718,0.35493
4752.42844,0.35457
4750.49969,0.35456
4748.57095,0.35505
4746.64220,0.35548
4744.71346,0.35574
4742.78471,0.35596
4740.85597,0.35619
4738.92722,0.35647
4736.99847,0.35675
4735.06973,0.35702
4733.14098,0.35746
4731.21224,0.35803
4729.28349,0.35833
4727.35475,0.35875
4725.42600,0.35970
4723.49726,0.36071
4721.56851,0.36139
4719.63977,0.36167
4717.71102,0.36182
4715.78228,0.36237
4713.85353,0.36338
4711.92479,0.36421
4709.99604,0.36441
4708.06729,0.36456
4706.13855,0.36535
4704.20980,0.36659
4702.28106,0.36763
4700.35231,0.36843
4698.42357,0.36930
4696.49482,0.37019
4694.56608,0.37097
4692.63733,0.37197
4690.70859,0.37330
4688.77984,0.37434
4686.85110,0.37480
4684.92235,0.37529
4682.99361,0.37618
4681.06486,0.37730
4679.13612,0.37840
4677.20737,0.37921
4675.27862,0.37986
4673.34988,0.38046
4671.42113,0.38094
4669.49239,0.38169
4667.56364,0.38270
4665.63490,0.38344
4663.70615,0.38408
4661.77741,0.38477
4659.84866,0.38537
4657.91992,0.38634
4655.99117,0.38749
4654.06243,0.38802
4652.13368,0.38824
4650.20494,0.38905
4648.27619,0.39044
4646.34745,0.39166
4644.41870,0.39218
4642.48995,0.39238
4640.56121,0.39286
4638.63246,0.39362
4636.70372,0.39443
4634.77497,0.39531
4632.84623,0.39637
4630.91748,0.39721
4628.98874,0.39729
4627.05999,0.39713
4625.13125,0.39765
4623.20250,0.39876
4621.27376,0.39996
4619.34501,0.40100
4617.41627,0.40146
4615.48752,0.40140
4613.55877,0.40157
4611.63003,0.40213
4609.70128,0.40288
4607.77254,0.40384
4605.84379,0.40500
4603.91505,0.40607
4601.98630,0.40681
4600.05756,0.40757
4598.12881,0.40856
4596.20007,0.40944
4594.27132,0.41026
4592.34258,0.41117
4590.41383,0.41191
4588.48509,0.41251
4586.55634,0.41318
4584.62760,0.41387
4582.69885,0.41449
4580.77010,0.41510
4578.84136,0.41582
4576.91261,0.41675
4574.98387,0.41773
4573.05512,0.41833
4571.12638,0.41860
4569.19763,0.41912
4567.26889,0.41987
4565.34014,0.42052
4563.41140,0.42127
4561.48265,0.42229
4559.55391,0.42331
4557.62516,0.42425
4555.69642,0.42523
4553.76767,0.42608
4551.83893,0.42656
4549.91018,0.42681
4547.98143,0.42717
4546.05269,0.42779
4544.12394,0.42852
4542.19520,0.42910
4540.26645,0.42962
4538.33771,0.43015
4536.40896,0.43069
4534.48022,0.43121
4532.55147,0.43171
4530.62273,0.43234
4528.69398,0.43294
4526.76524,0.43324
4524.83649,0.43356
4522.90775,0.43406
4520.97900,0.43459
4519.05025,0.43517
4517.12151,0.43576
4515.19276,0.43630
4513.26402,0.43687
4511.33527,0.43734
4509.40653,0.43738
4507.47778,0.43716
4505.54904,0.43703
4503.62029,0.43706
4501.69155,0.43699
4499.76280,0.43680
4497.83406,0.43681
4495.90531,0.43695
4493.97657,0.43698
4492.04782,0.43712
4490.11908,0.43733
4488.19033,0.43752
4486.26158,0.43792
4484.33284,0.43823
4482.40409,0.43790
4480.47535,0.43728
4478.54660,0.43687
4476.61786,0.43656
4474.68911,0.43630
4472.76037,0.43594
4470.83162,0.43519
4468.90288,0.43452
4466.97413,0.43430
4465.04539,0.43393
4463.11664,0.43309
4461.18790,0.43213
4459.25915,0.43096
4457.33041,0.42930
4455.40166,0.42744
4453.47291,0.42593
4451.54417,0.42465
4449.61542,0.42322
4447.68668,0.42153
4445.75793,0.41972
4443.82919,0.41779
4441.90044,0.41546
4439.97170,0.41297
4438.04295,0.41075
4436.11421,0.40842
4434.18546,0.40564
4432.25672,0.40283
4430.32797,0.40033
4428.39923,0.39797
4426.47048,0.39530
4424.54173,0.39203
4422.61299,0.38858
4420.68424,0.38554
4418.75550,0.38278
4416.82675,0.38034
4414.89801,0.37836
4412.96926,0.37600
4411.04052,0.37293
4409.11177,0.36985
4407.18303,0.36728
4405.25428,0.36529
4403.32554,0.36374
4401.39679,0.36248
4399.46805,0.36176
4397.53930,0.36159
4395.61056,0.36155
4393.68181,0.36162
4391.75306,0.36213
4389.82432,0.36320
4387.89557,0.36448
4385.96683,0.36551
4384.03808,0.36631
4382.10934,0.36721
4380.18059,0.36819
4378.25185,0.36917
4376.32310,0.37033
4374.39436,0.37153
4372.46561,0.37253
4370.53687,0.37332
4368.60812,0.37373
4366.67938,0.37380
4364.75063,0.37378
4362.82189,0.37362
4360.89314,0.37342
4358.96439,0.37334
4357.03565,0.37310
4355.10690,0.37252
4353.17816,0.37177
4351.24941,0.37107
4349.32067,0.37058
4347.39192,0.37030
4345.46318,0.36997
4343.53443,0.36934
4341.60569,0.36852
4339.67694,0.36765
4337.74820,0.36690
4335.81945,0.36623
4333.89071,0.36534
4331.96196,0.36406
4330.03321,0.36264
4328.10447,0.36156
4326.17572,0.36063
4324.24698,0.35933
4322.31823,0.35792
4320.38949,0.35682
4318.46074,0.35596
4316.53200,0.35524
4314.60325,0.35471
4312.67451,0.35418
4310.74576,0.35345
4308.81702,0.35264
4306.88827,0.35178
4304.95953,0.35080
4303.03078,0.34984
4301.10204,0.34911
4299.17329,0.34838
4297.24454,0.34745
4295.31580,0.34654
4293.38705,0.34576
4291.45831,0.34483
4289.52956,0.34377
4287.60082,0.34294
4285.67207,0.34231
4283.74333,0.34158
4281.81458,0.34078
4279.88584,0.34022
4277.95709,0.33995
4276.02835,0.33985
4274.09960,0.33974
4272.17086,0.33956
4270.24211,0.33960
4268.31336,0.33985
4266.38462,0.34012
4264.45587,0.34034
4262.52713,0.34052
4260.59838,0.34077
4258.66964,0.34111
4256.74089,0.34134
4254.81215,0.34129
4252.88340,0.34122
4250.95466,0.34167
4249.02591,0.34246
4247.09717,0.34280
4245.16842,0.34276
4243.23968,0.34302
4241.31093,0.34357
4239.38219,0.34389
4237.45344,0.34403
4235.52469,0.34427
4233.59595,0.34470
4231.66720,0.34530
4229.73846,0.34591
4227.80971,0.34636
4225.88097,0.34659
4223.95222,0.34652
4222.02348,0.34612
4220.09473,0.34560
4218.16599,0.34529
4216.23724,0.34542
4214.30850,0.34588
4212.37975,0.34644
4210.45101,0.34693
4208.52226,0.34744
4206.59352,0.34833
4204.66477,0.34961
4202.73602,0.35071
4200.80728,0.35133
4198.87853,0.35179
4196.94979,0.35232
4195.02104,0.35271
4193.09230,0.35284
4191.16355,0.35303
4189.23481,0.35347
4187.30606,0.35390
4185.37732,0.35388
4183.44857,0.35353
4181.51983,0.35334
4179.59108,0.35350
4177.66234,0.35359
4175.73359,0.35340
4173.80484,0.35338
4171.87610,0.35387
4169.94735,0.35467
4168.01861,0.35554
4166.08986,0.35642
4164.16112,0.35715
4162.23237,0.35746
4160.30363,0.35731
4158.37488,0.35695
4156.44614,0.35664
4154.51739,0.35630
4152.58865,0.35574
4150.65990,0.35516
4148.73116,0.35472
4146.80241,0.35422
4144.87367,0.35360
4142.94492,0.35301
4141.01617,0.35254
4139.08743,0.35222
4137.15868,0.35187
4135.22994,0.35138
4133.30119,0.35082
4131.37245,0.35019
4129.44370,0.34951
4127.51496,0.34887
4125.58621,0.34798
4123.65747,0.34665
4121.72872,0.34526
4119.79998,0.34392
4117.87123,0.34246
4115.94249,0.34100
4114.01374,0.33959
4112.08500,0.33808
4110.15625,0.33662
4108.22750,0.33514
4106.29876,0.33325
4104.37001,0.33110
4102.44127,0.32906
4100.51252,0.32699
4098.58378,0.32473
4096.65503,0.32237
4094.72629,0.32004
4092.79754,0.31783
4090.86880,0.31584
4088.94005,0.31412
4087.01131,0.31237
4085.08256,0.31028
4083.15382,0.30801
4081.22507,0.30606
4079.29632,0.30451
4077.36758,0.30285
4075.43883,0.30075
4073.51009,0.29853
4071.58134,0.29661
4069.65260,0.29470
4067.72385,0.29244
4065.79511,0.29010
4063.86636,0.28784
4061.93762,0.28558
4060.00887,0.28338
4058.08013,0.28123
4056.15138,0.27896
4054.22264,0.27656
4052.29389,0.27420
4050.36515,0.27189
4048.43640,0.26963
4046.50765,0.26748
4044.57891,0.26546
4042.65016,0.26369
4040.72142,0.26232
4038.79267,0.26115
4036.86393,0.25998
4034.93518,0.25887
4033.00644,0.25784
4031.07769,0.25675
4029.14895,0.25574
4027.22020,0.25516
4025.29146,0.25497
4023.36271,0.25482
4021.43397,0.25466
4019.50522,0.25476
4017.57648,0.25522
4015.64773,0.25585
4013.71898,0.25637
4011.79024,0.25681
4009.86149,0.25740
4007.93275,0.25833
4006.00400,0.25950
4004.07526,0.26067
4002.14651,0.26184
4000.21777,0.26286
3998.28902,0.26366
3996.36028,0.26445
3994.43153,0.26532
3992.50279,0.26632
3990.57404,0.26748
3988.64530,0.26855
3986.71655,0.26945
3984.78780,0.27029
3982.85906,0.27109
3980.93031,0.27180
3979.00157,0.27240
3977.07282,0.27293
3975.14408,0.27338
3973.21533,0.27378
3971.28659,0.27426
3969.35784,0.27489
3967.42910,0.27575
3965.50035,0.27676
3963.57161,0.27771
3961.64286,0.27843
3959.71412,0.27900
3957.78537,0.27973
3955.85663,0.28064
3953.92788,0.28150
3951.99913,0.28231
3950.07039,0.28315
3948.14164,0.28404
3946.21290,0.28500
3944.28415,0.28602
3942.35541,0.28710
3940.42666,0.28829
3938.49792,0.28940
3936.56917,0.29029
3934.64043,0.29138
3932.71168,0.29279
3930.78294,0.29405
3928.85419,0.29501
3926.92545,0.29592
3924.99670,0.29688
3923.06795,0.29773
3921.13921,0.29843
3919.21046,0.29914
3917.28172,0.29975
3915.35297,0.30017
3913.42423,0.30069
3911.49548,0.30147
3909.56674,0.30222
3907.63799,0.30268
3905.70925,0.30321
3903.78050,0.30399
3901.85176,0.30452
3899.92301,0.30493
3897.99427,0.30573
3896.06552,0.30674
3894.13678,0.30750
3892.20803,0.30795
3890.27928,0.30828
3888.35054,0.30856
3886.42179,0.30910
3884.49305,0.31014
3882.56430,0.31112
3880.63556,0.31138
3878.70681,0.31119
3876.77807,0.31143
3874.84932,0.31231
3872.92058,0.31324
3870.99183,0.31411
3869.06309,0.31519
3867.13434,0.31636
3865.20560,0.31765
3863.27685,0.31901
3861.34811,0.32010
3859.41936,0.32108
3857.49061,0.32205
3855.56187,0.32304
3853.63312,0.32446
3851.70438,0.32591
3849.77563,0.32681
3847.84689,0.32758
3845.91814,0.32845
3843.98940,0.32929
3842.06065,0.33003
3840.13191,0.33071
3838.20316,0.33123
3836.27442,0.33158
3834.34567,0.33196
3832.41693,0.33233
3830.48818,0.33259
3828.55943,0.33292
3826.63069,0.33339
3824.70194,0.33381
3822.77320,0.33402
3820.84445,0.33396
3818.91571,0.33373
3816.98696,0.33372
3815.05822,0.33410
3813.12947,0.33440
3811.20073,0.33428
3809.27198,0.33389
3807.34324,0.33364
3805.41449,0.33379
3803.48575,0.33408
3801.55700,0.33426
3799.62826,0.33439
3797.69951,0.33460
3795.77076,0.33471
3793.84202,0.33462
3791.91327,0.33455
3789.98453,0.33465
3788.05578,0.33482
3786.12704,0.33490
3784.19829,0.33494
3782.26955,0.33505
3780.34080,0.33510
3778.41206,0.33487
3776.48331,0.33441
3774.55457,0.33394
3772.62582,0.33359
3770.69708,0.33353
3768.76833,0.33378
3766.83959,0.33380
3764.91084,0.33337
3762.98209,0.33294
3761.05335,0.33282
3759.12460,0.33269
3757.19586,0.33216
3755.26711,0.33152
3753.33837,0.33113
3751.40962,0.33073
3749.48088,0.33026
3747.55213,0.32996
3745.62339,0.32952
3743.69464,0.32866
3741.76590,0.32784
3739.83715,0.32735
3737.90841,0.32688
3735.97966,0.32599
3734.05091,0.32485
3732.12217,0.32374
3730.19342,0.32256
3728.26468,0.32130
3726.33593,0.32006
3724.40719,0.31886
3722.47844,0.31748
3720.54970,0.31598
3718.62095,0.31467
3716.69221,0.31343
3714.76346,0.31207
3712.83472,0.31045
3710.90597,0.30836
3708.97723,0.30614
3707.04848,0.30419
3705.11974,0.30231
3703.19099,0.30018
3701.26224,0.29768
3699.33350,0.29492
3697.40475,0.29228
3695.47601,0.28998
3693.54726,0.28777
3691.61852,0.28528
3689.68977,0.28212
3687.76103,0.27826
3685.83228,0.27451
3683.90354,0.27115
3681.97479,0.26767
3680.04605,0.26390
3678.11730,0.25994
3676.18856,0.25531
3674.25981,0.25014
3672.33107,0.24550
3670.40232,0.24090
3668.47357,0.23591
3666.54483,0.23088
3664.61608,0.22558
3662.68734,0.22017
3660.75859,0.21503
3658.82985,0.21002
3656.90110,0.20491
3654.97236,0.20004
3653.04361,0.19565
3651.11487,0.19092
3649.18612,0.18554
3647.25738,0.18032
3645.32863,0.17565
3643.39989,0.17120
3641.47114,0.16680
3639.54239,0.16270
3637.61365,0.15880
3635.68490,0.15466
3633.75616,0.15032
3631.82741,0.14638
3629.89867,0.14270
3627.96992,0.13892
3626.04118,0.13512
3624.11243,0.13111
3622.18369,0.12708
3620.25494,0.12331
3618.32620,0.11974
3616.39745,0.11649
3614.46871,0.11343
3612.53996,0.11024
3610.61122,0.10699
3608.68247,0.10383
3606.75372,0.10081
3604.82498,0.09779
3602.89623,0.09488
3600.96749,0.09243
3599.03874,0.09027
3597.11000,0.08786
3595.18125,0.08506
3593.25251,0.08231
3591.32376,0.08024
3589.39502,0.07852
3587.46627,0.07642
3585.53753,0.07418
3583.60878,0.07211
3581.68004,0.07018
3579.75129,0.06845
3577.82254,0.06699
3575.89380,0.06570
3573.96505,0.06449
3572.03631,0.06307
3570.10756,0.06128
3568.17882,0.05959
3566.25007,0.05837
3564.32133,0.05714
3562.39258,0.05567
3560.46384,0.05440
3558.53509,0.05347
3556.60635,0.05266
3554.67760,0.05181
3552.74886,0.05078
3550.82011,0.04970
3548.89137,0.04862
3546.96262,0.04732
3545.03387,0.04598
3543.10513,0.04512
3541.17638,0.04478
3539.24764,0.04447
3537.31889,0.04393
3535.39015,0.04322
3533.46140,0.04239
3531.53266,0.04148
3529.60391,0.04066
3527.67517,0.03988
3525.74642,0.03920
3523.81768,0.03891
3521.88893,0.03857
3519.96019,0.03774
3518.03144,0.03685
3516.10270,0.03640
3514.17395,0.03617
3512.24520,0.03584
3510.31646,0.03545
3508.38771,0.03492
3506.45897,0.03424
3504.53022,0.03377
3502.60148,0.03346
3500.67273,0.03303
3498.74399,0.03253
3496.81524,0.03217
3494.88650,0.03199
3492.95775,0.03182
3491.02901,0.03145
3489.10026,0.03092
3487.17152,0.03057
3485.24277,0.03058
3483.31402,0.03069
3481.38528,0.03046
3479.45653,0.02999
3477.52779,0.02970
3475.59904,0.02962
3473.67030,0.02949
3471.74155,0.02941
3469.81281,0.02946
3467.88406,0.02938
3465.95532,0.02911
3464.02657,0.02896
3462.09783,0.02894
3460.16908,0.02877
3458.24034,0.02850
3456.31159,0.02844
3454.38285,0.02853
3452.45410,0.02850
3450.52535,0.02831
3448.59661,0.02813
3446.66786,0.02811
3444.73912,0.02799
3442.81037,0.02761
3440.88163,0.02731
3438.95288,0.02737
3437.02414,0.02753
3435.09539,0.02770
3433.16665,0.02796
3431.23790,0.02812
3429.30916,0.02816
3427.38041,0.02814
3425.45167,0.02801
3423.52292,0.02784
3421.59418,0.02782
3419.66543,0.02797
3417.73668,0.02823
3415.80794,0.02849
3413.87919,0.02864
3411.95045,0.02883
3410.02170,0.02903
3408.09296,0.02899
3406.16421,0.02867
3404.23547,0.02831
3402.30672,0.02816
3400.37798,0.02819
3398.44923,0.02823
3396.52049,0.02816
3394.59174,0.02805
3392.66300,0.02799
3390.73425,0.02807
3388.80550,0.02835
3386.87676,0.02863
3384.94801,0.02881
3383.01927,0.02886
3381.09052,0.02882
3379.16178,0.02895
3377.23303,0.02933
3375.30429,0.02946
3373.37554,0.02914
3371.44680,0.02899
3369.51805,0.02938
3367.58931,0.02988
3365.66056,0.03016
3363.73182,0.03022
3361.80307,0.02994
3359.87433,0.02959
3357.94558,0.02973
3356.01683,0.03032
3354.08809,0.03085
3352.15934,0.03112
3350.23060,0.03136
3348.30185,0.03167
3346.37311,0.03203
3344.44436,0.03247
3342.51562,0.03291
3340.58687,0.03329
3338.65813,0.03358
3336.72938,0.03383
3334.80064,0.03406
3332.87189,0.03413
3330.94315,0.03417
3329.01440,0.03431
3327.08566,0.03439
3325.15691,0.03460
3323.22816,0.03497
3321.29942,0.03512
3319.37067,0.03494
3317.44193,0.03475
3315.51318,0.03483
3313.58444,0.03506
3311.65569,0.03518
3309.72695,0.03505
3307.79820,0.03476
3305.86946,0.03469
3303.94071,0.03488
3302.01197,0.03499
3300.08322,0.03490
3298.15448,0.03491
3296.22573,0.03511
3294.29698,0.03535
3292.36824,0.03569
3290.43949,0.03610
3288.51075,0.03630
3286.58200,0.03617
3284.65326,0.03587
3282.72451,0.03574
3280.79577,0.03589
3278.86702,0.03603
3276.93828,0.03611
3275.00953,0.03646
3273.08079,0.03701
3271.15204,0.03733
3269.22330,0.03757
3267.29455,0.03817
3265.36581,0.03888
3263.43706,0.03921
3261.50831,0.03936
3259.57957,0.03966
3257.65082,0.04004
3255.72208,0.04051
3253.79333,0.04102
3251.86459,0.04124
3249.93584,0.04108
3248.00710,0.04094
3246.07835,0.04108
3244.14961,0.04134
3242.22086,0.04155
3240.29212,0.04168
3238.36337,0.04193
3236.43463,0.04244
3234.50588,0.04296
3232.57713,0.04342
3230.64839,0.04397
3228.71964,0.04447
3226.79090,0.04476
3224.86215,0.04496
3222.93341,0.04504
3221.00466,0.04505
3219.07592,0.04544
3217.14717,0.04609
3215.21843,0.04654
3213.28968,0.04696
3211.36094,0.04735
3209.43219,0.04750
3207.50345,0.04771
3205.57470,0.04826
3203.64596,0.04897
3201.71721,0.04958
3199.78846,0.05010
3197.85972,0.05061
3195.93097,0.05117
3194.00223,0.05176
3192.07348,0.05224
3190.14474,0.05265
3188.21599,0.05305
3186.28725,0.05343
3184.35850,0.05395
3182.42976,0.05456
3180.50101,0.05493
3178.57227,0.05527
3176.64352,0.05588
3174.71478,0.05665
3172.78603,0.05731
3170.85729,0.05777
3168.92854,0.05831
3166.99979,0.05900
3165.07105,0.05950
3163.14230,0.05988
3161.21356,0.06052
3159.28481,0.06127
3157.35607,0.06193
3155.42732,0.06255
3153.49858,0.06310
3151.56983,0.06356
3149.64109,0.06408
3147.71234,0.06482
3145.78360,0.06575
3143.85485,0.06669
3141.92611,0.06733
3139.99736,0.06779
3138.06861,0.06858
3136.13987,0.06962
3134.21112,0.07036
3132.28238,0.07096
3130.35363,0.07186
3128.42489,0.07285
3126.49614,0.07355
3124.56740,0.07401
3122.63865,0.07456
3120.70991,0.07524
3118.78116,0.07598
3116.85242,0.07679
3114.92367,0.07761
3112.99493,0.07842
3111.06618,0.07921
3109.13744,0.07989
3107.20869,0.08065
3105.27994,0.08173
3103.35120,0.08293
3101.42245,0.08390
3099.49371,0.08454
3097.56496,0.08510
3095.63622,0.08581
3093.70747,0.08671
3091.77873,0.08756
3089.84998,0.08820
3087.92124,0.08900
3085.99249,0.09016
3084.06375,0.09120
3082.13500,0.09190
3080.20626,0.09256
3078.27751,0.09342
3076.34877,0.09430
3074.42002,0.09495
3072.49127,0.09548
3070.56253,0.09623
3068.63378,0.09729
3066.70504,0.09832
3064.77629,0.09911
3062.84755,0.09986
3060.91880,0.10057
3058.99006,0.10104
3057.06131,0.10144
3055.13257,0.10208
3053.20382,0.10300
3051.27508,0.10410
3049.34633,0.10510
3047.41759,0.10570
3045.48884,0.10614
3043.56009,0.10677
3041.63135,0.10759
3039.70260,0.10836
3037.77386,0.10897
3035.84511,0.10953
3033.91637,0.11013
3031.98762,0.11081
3030.05888,0.11154
3028.13013,0.11215
3026.20139,0.11254
3024.27264,0.11290
3022.34390,0.11337
3020.41515,0.11385
3018.48641,0.11421
3016.55766,0.11441
3014.62892,0.11459
3012.70017,0.11486
3010.77142,0.11504
3008.84268,0.11497
3006.91393,0.11467
3004.98519,0.11422
3003.05644,0.11367
3001.12770,0.11311
2999.19895,0.11253
2997.27021,0.11179
2995.34146,0.11088
2993.41272,0.10976
2991.48397,0.10822
2989.55523,0.10631
2987.62648,0.10411
2985.69774,0.10154
2983.76899,0.09879
2981.84025,0.09580
2979.91150,0.09222
2977.98275,0.08804
2976.05401,0.08354
2974.12526,0.07889
2972.19652,0.07430
2970.26777,0.07035
2968.33903,0.06772
2966.41028,0.06646
2964.48154,0.06594
2962.55279,0.06568
2960.62405,0.06542
2958.69530,0.06496
2956.76656,0.06413
2954.83781,0.06284
2952.90907,0.06140
2950.98032,0.06025
2949.05157,0.05933
2947.12283,0.05850
2945.19408,0.05791
2943.26534,0.05757
2941.33659,0.05728
2939.40785,0.05682
2937.47910,0.05635
2935.55036,0.05606
2933.62161,0.05563
2931.69287,0.05494
2929.76412,0.05435
2927.83538,0.05379
2925.90663,0.05300
2923.97789,0.05216
2922.04914,0.05144
2920.12040,0.05060
2918.19165,0.04958
2916.26290,0.04881
2914.33416,0.04849
2912.40541,0.04826
2910.47667,0.04784
2908.54792,0.04738
2906.61918,0.04704
2904.69043,0.04681
2902.76169,0.04672
2900.83294,0.04677
2898.90420,0.04695
2896.97545,0.04732
2895.04671,0.04788
2893.11796,0.04861
2891.18922,0.04932
2889.26047,0.04980
2887.33172,0.05027
2885.40298,0.05076
2883.47423,0.05114
2881.54549,0.05160
2879.61674,0.05222
2877.68800,0.05271
2875.75925,0.05290
2873.83051,0.05281
2871.90176,0.05274
2869.97302,0.05291
2868.04427,0.05321
2866.11553,0.05367
2864.18678,0.05436
2862.25804,0.05506
2860.32929,0.05565
2858.40055,0.05618
2856.47180,0.05655
2854.54305,0.05683
2852.61431,0.05741
2850.68556,0.05856
2848.75682,0.06022
2846.82807,0.06221
2844.89933,0.06433
2842.97058,0.06642
2841.04184,0.06845
2839.11309,0.07042
2837.18435,0.07232
2835.25560,0.07418
2833.32686,0.07579
2831.39811,0.07708
2829.46937,0.07836
2827.54062,0.07979
2825.61188,0.08130
2823.68313,0.08289
2821.75438,0.08444
2819.82564,0.08592
2817.89689,0.08748
2815.96815,0.08909
2814.03940,0.09066
2812.11066,0.09218
2810.18191,0.09367
2808.25317,0.09511
2806.32442,0.09645
2804.39568,0.09768
2802.46693,0.09879
2800.53819,0.09972
2798.60944,0.10046
2796.68070,0.10114
2794.75195,0.10201
2792.82320,0.10300
2790.89446,0.10387
2788.96571,0.10446
2787.03697,0.10478
2785.10822,0.10515
2783.17948,0.10569
2781.25073,0.10610
2779.32199,0.10625
2777.39324,0.10642
2775.46450,0.10661
2773.53575,0.10672
2771.60701,0.10697
2769.67826,0.10730
2767.74952,0.10738
2765.82077,0.10739
2763.89203,0.10760
2761.96328,0.10795
2760.03453,0.10831
2758.10579,0.10857
2756.17704,0.10872
2754.24830,0.10886
2752.31955,0.10898
2750.39081,0.10890
2748.46206,0.10873
2746.53332,0.10865
2744.60457,0.10859
2742.67583,0.10844
2740.74708,0.10828
2738.81834,0.10814
2736.88959,0.10810
2734.96085,0.10832
2733.03210,0.10880
2731.10336,0.10928
2729.17461,0.10964
2727.24586,0.10990
2725.31712,0.11022
2723.38837,0.11051
2721.45963,0.11077
2719.53088,0.11126
2717.60214,0.11198
2715.67339,0.11264
2713.74465,0.11327
2711.81590,0.11403
2709.88716,0.11495
2707.95841,0.11608
2706.02967,0.11737
2704.10092,0.11848
2702.17218,0.11933
2700.24343,0.12029
2698.31468,0.12140
2696.38594,0.12246
2694.45719,0.12355
2692.52845,0.12467
2690.59970,0.12553
2688.67096,0.12631
2686.74221,0.12744
2684.81347,0.12883
2682.88472,0.13001
2680.95598,0.13093
2679.02723,0.13186
2677.09849,0.13272
2675.16974,0.13343
2673.24100,0.13427
2671.31225,0.13521
2669.38351,0.13584
2667.45476,0.13606
2665.52601,0.13612
2663.59727,0.13620
2661.66852,0.13646
2659.73978,0.13703
2657.81103,0.13777
2655.88229,0.13848
2653.95354,0.13911
2652.02480,0.13957
2650.09605,0.14012
2648.16731,0.14104
2646.23856,0.14217
2644.30982,0.14322
2642.38107,0.14408
2640.45233,0.14475
2638.52358,0.14537
2636.59484,0.14609
2634.66609,0.14683
2632.73734,0.14743
2630.80860,0.14804
2628.87985,0.14886
2626.95111,0.14975
2625.02236,0.15055
2623.09362,0.15130
2621.16487,0.15192
2619.23613,0.15233
2617.30738,0.15272
2615.37864,0.15330
2613.44989,0.15391
2611.52115,0.15445
2609.59240,0.15495
2607.66366,0.15550
2605.73491,0.15603
2603.80616,0.15652
2601.87742,0.15716
2599.94867,0.15800
2598.01993,0.15868
2596.09118,0.15897
2594.16244,0.15912
2592.23369,0.15947
2590.30495,0.15995
2588.37620,0.16030
2586.44746,0.16045
2584.51871,0.16051
2582.58997,0.16055
2580.66122,0.16067
2578.73248,0.16097
2576.80373,0.16130
2574.87499,0.16136
2572.94624,0.16118
2571.01749,0.16089
2569.08875,0.16056
2567.16000,0.16026
2565.23126,0.15996
2563.30251,0.15961
2561.37377,0.15928
2559.44502,0.15901
2557.51628,0.15876
2555.58753,0.15847
2553.65879,0.15818
2551.73004,0.15791
2549.80130,0.15757
2547.87255,0.15726
2545.94381,0.15701
2544.01506,0.15672
2542.08631,0.15648
2540.15757,0.15644
2538.22882,0.15662
2536.30008,0.15692
2534.37133,0.15715
2532.44259,0.15732
2530.51384,0.15762
2528.58510,0.15811
2526.65635,0.15865
2524.72761,0.15908
2522.79886,0.15943
2520.87012,0.15969
2518.94137,0.15982
2517.01263,0.16005
2515.08388,0.16057
2513.15514,0.16128
2511.22639,0.16210
2509.29764,0.16311
2507.36890,0.16438
2505.44015,0.16579
2503.51141,0.16724
2501.58266,0.16872
2499.65392,0.17006
2497.72517,0.17122
2495.79643,0.17236
2493.86768,0.17347
2491.93894,0.17458
2490.01019,0.17572
2488.08145,0.17674
2486.15270,0.17750
2484.22396,0.17814
2482.29521,0.17883
2480.36647,0.17969
2478.43772,0.18060
2476.50897,0.18149
2474.58023,0.18238
2472.65148,0.18323
2470.72274,0.18409
2468.79399,0.18491
2466.86525,0.18549
2464.93650,0.18585
2463.00776,0.18621
2461.07901,0.18666
2459.15027,0.18706
2457.22152,0.18751
2455.29278,0.18821
2453.36403,0.18906
2451.43529,0.18981
2449.50654,0.19043
2447.57779,0.19113
2445.64905,0.19199
2443.72030,0.19296
2441.79156,0.19398
2439.86281,0.19492
2437.93407,0.19591
2436.00532,0.19706
2434.07658,0.19811
2432.14783,0.19903
2430.21909,0.20012
2428.29034,0.20149
2426.36160,0.20289
2424.43285,0.20417
2422.50411,0.20531
2420.57536,0.20626
2418.64662,0.20711
2416.71787,0.20803
2414.78912,0.20898
2412.86038,0.20990
2410.93163,0.21074
2409.00289,0.21151
2407.07414,0.21235
2405.14540,0.21326
2403.21665,0.21404
2401.28791,0.21469
2399.35916,0.21540
2397.43042,0.21624
2395.50167,0.21721
2393.57293,0.21823
2391.64418,0.21911
2389.71544,0.21978
2387.78669,0.22043
2385.85795,0.22118
2383.92920,0.22204
2382.00045,0.22297
2380.07171,0.22402
2378.14296,0.22514
2376.21422,0.22627
2374.28547,0.22733
2372.35673,0.22829
2370.42798,0.22921
2368.49924,0.23012
2366.57049,0.23099
2364.64175,0.23180
2362.71300,0.23254
2360.78426,0.23317
2358.85551,0.23359
2356.92677,0.23401
2354.99802,0.23471
2353.06927,0.23560
2351.14053,0.23639
2349.21178,0.23709
2347.28304,0.23787
2345.35429,0.23862
2343.42555,0.23938
2341.49680,0.24036
2339.56806,0.24132
2337.63931,0.24207
2335.71057,0.24271
2333.78182,0.24318
2331.85308,0.24353
2329.92433,0.24402
2327.99559,0.24457
2326.06684,0.24503
2324.13810,0.24558
2322.20935,0.24632
2320.28060,0.24701
2318.35186,0.24743
2316.42311,0.24765
2314.49437,0.24773
2312.56562,0.24772
2310.63688,0.24779
2308.70813,0.24800
2306.77939,0.24811
2304.85064,0.24791
2302.92190,0.24745
2300.99315,0.24690
2299.06441,0.24638
2297.13566,0.24590
2295.20692,0.24552
2293.27817,0.24524
2291.34943,0.24487
2289.42068,0.24436
2287.49193,0.24402
2285.56319,0.24393
2283.63444,0.24381
2281.70570,0.24351
2279.77695,0.24316
2277.84821,0.24276
2275.91946,0.24209
2273.99072,0.24120
2272.06197,0.24018
2270.13323,0.23887
2268.20448,0.23740
2266.27574,0.23604
2264.34699,0.23467
2262.41825,0.23311
2260.48950,0.23164
2258.56075,0.23052
2256.63201,0.22972
2254.70326,0.22903
2252.77452,0.22832
2250.84577,0.22759
2248.91703,0.22696
2246.98828,0.22647
2245.05954,0.22614
2243.13079,0.22580
2241.20205,0.22536
2239.27330,0.22494
2237.34456,0.22457
2235.41581,0.22431
2233.48707,0.22430
2231.55832,0.22443
2229.62958,0.22455
2227.70083,0.22477
2225.77208,0.22525
2223.84334,0.22591
2221.91459,0.22668
2219.98585,0.22754
2218.05710,0.22837
2216.12836,0.22903
2214.19961,0.22954
2212.27087,0.23005
2210.34212,0.23064
2208.41338,0.23112
2206.48463,0.23131
2204.55589,0.23128
2202.62714,0.23115
2200.69840,0.23093
2198.76965,0.23053
2196.84090,0.23000
2194.91216,0.22935
2192.98341,0.22846
2191.05467,0.22735
2189.12592,0.22620
2187.19718,0.22503
2185.26843,0.22376
2183.33969,0.22231
2181.41094,0.22068
2179.48220,0.21899
2177.55345,0.21725
2175.62471,0.21548
2173.69596,0.21367
2171.76722,0.21185
2169.83847,0.21004
2167.90973,0.20824
2165.98098,0.20659
2164.05223,0.20522
2162.12349,0.20410
2160.19474,0.20308
2158.26600,0.20209
2156.33725,0.20116
2154.40851,0.20030
2152.47976,0.19945
2150.55102,0.19867
2148.62227,0.19806
2146.69353,0.19756
2144.76478,0.19694
2142.83604,0.19613
2140.90729,0.19536
2138.97855,0.19479
2137.04980,0.19437
2135.12106,0.19415
2133.19231,0.19425
2131.26356,0.19464
2129.33482,0.19529
2127.40607,0.19602
2125.47733,0.19665
2123.54858,0.19741
2121.61984,0.19841
2119.69109,0.19943
2117.76235,0.20030
2115.83360,0.20108
2113.90486,0.20197
2111.97611,0.20302
2110.04737,0.20409
2108.11862,0.20504
2106.18988,0.20597
2104.26113,0.20698
2102.33238,0.20787
2100.40364,0.20855
2098.47489,0.20913
2096.54615,0.20971
2094.61740,0.21043
2092.68866,0.21119
2090.75991,0.21185
2088.83117,0.21246
2086.90242,0.21303
2084.97368,0.21345
2083.04493,0.21374
2081.11619,0.21394
2079.18744,0.21401
2077.25870,0.21386
2075.32995,0.21347
2073.40121,0.21297
2071.47246,0.21263
2069.54371,0.21251
2067.61497,0.21253
2065.68622,0.21256
2063.75748,0.21253
2061.82873,0.21258
2059.89999,0.21274
2057.97124,0.21273
2056.04250,0.21249
2054.11375,0.21237
2052.18501,0.21253
2050.25626,0.21273
2048.32752,0.21291
2046.39877,0.21321
2044.47003,0.21370
2042.54128,0.21428
2040.61254,0.21488
2038.68379,0.21557
2036.75504,0.21654
2034.82630,0.21792
2032.89755,0.21949
2030.96881,0.22106
2029.04006,0.22283
2027.11132,0.22480
2025.18257,0.22671
2023.25383,0.22849
2021.32508,0.23028
2019.39634,0.23220
2017.46759,0.23417
2015.53885,0.23597
2013.61010,0.23754
2011.68136,0.23896
2009.75261,0.24024
2007.82386,0.24120
2005.89512,0.24188
2003.96637,0.24244
2002.03763,0.24295
2000.10888,0.24334
1998.18014,0.24371
1996.25139,0.24433
1994.32265,0.24531
1992.39390,0.24639
1990.46516,0.24738
1988.53641,0.24842
1986.60767,0.24958
1984.67892,0.25051
1982.75018,0.25104
1980.82143,0.25158
1978.89269,0.25228
1976.96394,0.25284
1975.03519,0.25321
1973.10645,0.25361
1971.17770,0.25409
1969.24896,0.25458
1967.32021,0.25502
1965.39147,0.25540
1963.46272,0.25578
1961.53398,0.25631
1959.60523,0.25696
1957.67649,0.25753
1955.74774,0.25810
1953.81900,0.25892
1951.89025,0.26003
1949.96151,0.26128
1948.03276,0.26264
1946.10402,0.26413
1944.17527,0.26566
1942.24652,0.26720
1940.31778,0.26872
1938.38903,0.27020
1936.46029,0.27165
1934.53154,0.27297
1932.60280,0.27405
1930.67405,0.27497
1928.74531,0.27590
1926.81656,0.27685
1924.88782,0.27769
1922.95907,0.27835
1921.03033,0.27893
1919.10158,0.27955
1917.17284,0.28011
1915.24409,0.28048
1913.31534,0.28086
1911.38660,0.28142
1909.45785,0.28185
1907.52911,0.28204
1905.60036,0.28226
1903.67162,0.28251
1901.74287,0.28253
1899.81413,0.28240
1897.88538,0.28227
1895.95664,0.28206
1894.02789,0.28171
1892.09915,0.28151
1890.17040,0.28155
1888.24166,0.28147
1886.31291,0.28115
1884.38417,0.28080
1882.45542,0.28049
1880.52667,0.28020
1878.59793,0.27997
1876.66918,0.27981
1874.74044,0.27966
1872.81169,0.27944
1870.88295,0.27910
1868.95420,0.27863
1867.02546,0.27810
1865.09671,0.27755
1863.16797,0.27698
1861.23922,0.27643
1859.31048,0.27581
1857.38173,0.27499
1855.45299,0.27409
1853.52424,0.27325
1851.59549,0.27231
1849.66675,0.27112
1847.73800,0.26973
1845.80926,0.26825
1843.88051,0.26688
1841.95177,0.26585
1840.02302,0.26509
1838.09428,0.26439
1836.16553,0.26373
1834.23679,0.26314
1832.30804,0.26246
1830.37930,0.26161
1828.45055,0.26086
1826.52181,0.26018
1824.59306,0.25923
1822.66432,0.25808
1820.73557,0.25707
1818.80682,0.25626
1816.87808,0.25550
1814.94933,0.25467
1813.02059,0.25366
1811.09184,0.25248
1809.16310,0.25111
1807.23435,0.24964
1805.30561,0.24831
1803.37686,0.24725
1801.44812,0.24623
1799.51937,0.24501
1797.59063,0.24370
1795.66188,0.24264
1793.73314,0.24179
1791.80439,0.24073
1789.87565,0.23943
1787.94690,0.23819
1786.01815,0.23697
1784.08941,0.23561
1782.16066,0.23412
1780.23192,0.23251
1778.30317,0.23076
1776.37443,0.22905
1774.44568,0.22749
1772.51694,0.22592
1770.58819,0.22422
1768.65945,0.22239
1766.73070,0.22054
1764.80196,0.21901
1762.87321,0.21781
1760.94447,0.21658
1759.01572,0.21516
1757.08697,0.21367
1755.15823,0.21227
1753.22948,0.21086
1751.30074,0.20914
1749.37199,0.20727
1747.44325,0.20542
1745.51450,0.20348
1743.58576,0.20142
1741.65701,0.19931
1739.72827,0.19734
1737.79952,0.19586
1735.87078,0.19469
1733.94203,0.19305
1732.01329,0.19111
1730.08454,0.18954
1728.15580,0.18821
1726.22705,0.18698
1724.29830,0.18593
1722.36956,0.18513
1720.44081,0.18435
1718.51207,0.18327
1716.58332,0.18186
1714.65458,0.18039
1712.72583,0.17907
1710.79709,0.17786
1708.86834,0.17662
1706.93960,0.17525
1705.01085,0.17380
1703.08211,0.17226
1701.15336,0.17011
1699.22462,0.16745
1697.29587,0.16488
1695.36713,0.16202
1693.43838,0.15914
1691.50963,0.15655
1689.58089,0.15386
1687.65214,0.15120
1685.72340,0.14819
1683.79465,0.14418
1681.86591,0.14025
1679.93716,0.13699
1678.00842,0.13383
1676.07967,0.13051
1674.15093,0.12732
1672.22218,0.12449
1670.29344,0.12153
1668.36469,0.11834
1666.43595,0.11563
1664.50720,0.11345
1662.57845,0.11148
1660.64971,0.10977
1658.72096,0.10827
1656.79222,0.10703
1654.86347,0.10604
1652.93473,0.10498
1651.00598,0.10386
1649.07724,0.10297
1647.14849,0.10212
1645.21975,0.10117
1643.29100,0.10027
1641.36226,0.09962
1639.43351,0.09938
1637.50477,0.09927
1635.57602,0.09892
1633.64728,0.09867
1631.71853,0.09881
1629.78978,0.09909
1627.86104,0.09945
1625.93229,0.10000
1624.00355,0.10065
1622.07480,0.10130
1620.14606,0.10192
1618.21731,0.10265
1616.28857,0.10351
1614.35982,0.10406
1612.43108,0.10420
1610.50233,0.10431
1608.57359,0.10469
1606.64484,0.10520
1604.71610,0.10564
1602.78735,0.10608
1600.85861,0.10666
1598.92986,0.10747
1597.00111,0.10839
1595.07237,0.10929
1593.14362,0.11021
1591.21488,0.11122
1589.28613,0.11238
1587.35739,0.11374
1585.42864,0.11517
1583.49990,0.11657
1581.57115,0.11803
1579.64241,0.11949
1577.71366,0.12091
1575.78492,0.12229
1573.85617,0.12345
1571.92743,0.12439
1569.99868,0.12525
1568.06993,0.12600
1566.14119,0.12661
1564.21244,0.12715
1562.28370,0.12766
1560.35495,0.12814
1558.42621,0.12848
1556.49746,0.12852
1554.56872,0.12844
1552.63997,0.12839
1550.71123,0.12833
1548.78248,0.12823
1546.85374,0.12820
1544.92499,0.12819
1542.99625,0.12799
1541.06750,0.12753
1539.13876,0.12687
1537.21001,0.12638
1535.28126,0.12600
1533.35252,0.12531
1531.42377,0.12445
1529.49503,0.12373
1527.56628,0.12285
1525.63754,0.12149
1523.70879,0.12000
1521.78005,0.11838
1519.85130,0.11647
1517.92256,0.11434
1515.99381,0.11192
1514.06507,0.10954
1512.13632,0.10768
1510.20758,0.10636
1508.27883,0.10518
1506.35008,0.10337
1504.42134,0.10140
1502.49259,0.10002
1500.56385,0.09870
1498.63510,0.09683
1496.70636,0.09436
1494.77761,0.09174
1492.84887,0.08914
1490.92012,0.08581
1488.99138,0.08141
1487.06263,0.07672
1485.13389,0.07234
1483.20514,0.06845
1481.27640,0.06550
1479.34765,0.06360
1477.41891,0.06210
1475.49016,0.06039
1473.56141,0.05822
1471.63267,0.05553
1469.70392,0.05301
1467.77518,0.05093
1465.84643,0.04888
1463.91769,0.04690
1461.98894,0.04543
1460.06020,0.04436
1458.13145,0.04311
1456.20271,0.04168
1454.27396,0.04076
1452.34522,0.04021
1450.41647,0.03966
1448.48773,0.03914
1446.55898,0.03877
1444.63024,0.03852
1442.70149,0.03803
1440.77274,0.03709
1438.84400,0.03608
1436.91525,0.03522
1434.98651,0.03465
1433.05776,0.03462
1431.12902,0.03496
1429.20027,0.03541
1427.27153,0.03594
1425.34278,0.03669
1423.41404,0.03770
1421.48529,0.03885
1419.55655,0.04015
1417.62780,0.04146
1415.69906,0.04253
1413.77031,0.04328
1411.84156,0.04371
1409.91282,0.04390
1407.98407,0.04401
1406.05533,0.04407
1404.12658,0.04403
1402.19784,0.04386
1400.26909,0.04358
1398.34035,0.04328
1396.41160,0.04307
1394.48286,0.04272
1392.55411,0.04200
1390.62537,0.04095
1388.69662,0.03955
1386.76788,0.03791
1384.83913,0.03636
1382.91039,0.03505
1380.98164,0.03402
1379.05289,0.03315
1377.12415,0.03235
1375.19540,0.03181
1373.26666,0.03166
1371.33791,0.03181
1369.40917,0.03222
1367.48042,0.03268
1365.55168,0.03289
1363.62293,0.03291
1361.69419,0.03298
1359.76544,0.03309
1357.83670,0.03326
1355.90795,0.03360
1353.97921,0.03404
1352.05046,0.03450
1350.12172,0.03494
1348.19297,0.03512
1346.26422,0.03488
1344.33548,0.03444
1342.40673,0.03407
1340.47799,0.03381
1338.54924,0.03364
1336.62050,0.03363
1334.69175,0.03384
1332.76301,0.03417
1330.83426,0.03453
1328.90552,0.03471
1326.97677,0.03454
1325.04803,0.03420
1323.11928,0.03393
1321.19054,0.03378
1319.26179,0.03388
1317.33304,0.03437
1315.40430,0.03509
1313.47555,0.03594
1311.54681,0.03692
1309.61806,0.03795
1307.68932,0.03899
1305.76057,0.04002
1303.83183,0.04098
1301.90308,0.04173
1299.97434,0.04212
1298.04559,0.04223
1296.11685,0.04207
1294.18810,0.04152
1292.25936,0.04079
1290.33061,0.04013
1288.40187,0.03934
1286.47312,0.03838
1284.54437,0.03756
1282.61563,0.03718
1280.68688,0.03735
1278.75814,0.03806
1276.82939,0.03904
1274.90065,0.03990
1272.97190,0.04042
1271.04316,0.04052
1269.11441,0.04028
1267.18567,0.03990
1265.25692,0.03953
1263.32818,0.03936
1261.39943,0.03939
1259.47069,0.03952
1257.54194,0.03975
1255.61320,0.04004
1253.68445,0.04014
1251.75570,0.03995
1249.82696,0.03963
1247.89821,0.03943
1245.96947,0.03937
1244.04072,0.03935
1242.11198,0.03935
1240.18323,0.03924
1238.25449,0.03890
1236.32574,0.03864
1234.39700,0.03874
1232.46825,0.03895
1230.53951,0.03915
1228.61076,0.03961
1226.68202,0.04032
1224.75327,0.04078
1222.82452,0.04084
1220.89578,0.04066
1218.96703,0.04025
1217.03829,0.03946
1215.10954,0.03820
1213.18080,0.03646
1211.25205,0.03438
1209.32331,0.03232
1207.39456,0.03076
1205.46582,0.03000
1203.53707,0.02988
1201.60833,0.02991
1199.67958,0.02989
1197.75084,0.02995
1195.82209,0.03021
1193.89335,0.03054
1191.96460,0.03051
1190.03585,0.02997
1188.10711,0.02926
1186.17836,0.02849
1184.24962,0.02762
1182.32087,0.02698
1180.39213,0.02683
1178.46338,0.02699
1176.53464,0.02759
1174.60589,0.02918
1172.67715,0.03186
1170.74840,0.03511
1168.81966,0.03830
1166.89091,0.04078
1164.96217,0.04195
1163.03342,0.04169
1161.10467,0.04040
1159.17593,0.03867
1157.24718,0.03707
1155.31844,0.03581
1153.38969,0.03473
1151.46095,0.03361
1149.53220,0.03231
1147.60346,0.03096
1145.67471,0.02979
1143.74597,0.02876
1141.81722,0.02745
1139.88848,0.02577
1137.95973,0.02427
1136.03099,0.02335
1134.10224,0.02282
1132.17350,0.02251
1130.24475,0.02247
1128.31600,0.02268
1126.38726,0.02333
1124.45851,0.02460
1122.52977,0.02610
1120.60102,0.02733
1118.67228,0.02846
1116.74353,0.02984
1114.81479,0.03136
1112.88604,0.03281
1110.95730,0.03413
1109.02855,0.03484
1107.09981,0.03450
1105.17106,0.03373
1103.24232,0.03330
1101.31357,0.03311
1099.38483,0.03275
1097.45608,0.03203
1095.52733,0.03112
1093.59859,0.03018
1091.66984,0.02959
1089.74110,0.02970
1087.81235,0.03035
1085.88361,0.03139
1083.95486,0.03305
1082.02612,0.03541
1080.09737,0.03835
1078.16863,0.04164
1076.23988,0.04477
1074.31114,0.04741
1072.38239,0.04992
1070.45365,0.05287
1068.52490,0.05652
1066.59615,0.06091
1064.66741,0.06554
1062.73866,0.06901
1060.80992,0.07015
1058.88117,0.06929
1056.95243,0.06757
1055.02368,0.06563
1053.09494,0.06323
1051.16619,0.06022
1049.23745,0.05721
1047.30870,0.05470
1045.37996,0.05290
1043.45121,0.05231
1041.52247,0.05374
1039.59372,0.05697
1037.66498,0.06041
1035.73623,0.06276
1033.80748,0.06370
1031.87874,0.06357
1029.94999,0.06284
1028.02125,0.06180
1026.09250,0.06050
1024.16376,0.05926
1022.23501,0.05851
1020.30627,0.05817
1018.37752,0.05795
1016.44878,0.05790
1014.52003,0.05799
1012.59129,0.05798
1010.66254,0.05792
1008.73380,0.05786
1006.80505,0.05761
1004.87631,0.05742
1002.94756,0.05755
1001.01881,0.05796
999.09007,0.05857
997.16132,0.05924
995.23258,0.05996
993.30383,0.06061
991.37509,0.06080
989.44634,0.06074
987.51760,0.06128
985.58885,0.06275
983.66011,0.06506
981.73136,0.06823
979.80262,0.07184
977.87387,0.07511
975.94513,0.07776
974.01638,0.07988
972.08763,0.08181
970.15889,0.08399
968.23014,0.08629
966.30140,0.08831
964.37265,0.09032
962.44391,0.09289
960.51516,0.09587
958.58642,0.09880
956.65767,0.10151
954.72893,0.10411
952.80018,0.10662
950.87144,0.10875
948.94269,0.11045
947.01395,0.11185
945.08520,0.11277
943.15646,0.11345
941.22771,0.11436
939.29896,0.11514
937.37022,0.11512
935.44147,0.11469
933.51273,0.11461
931.58398,0.11493
929.65524,0.11521
927.72649,0.11537
925.79775,0.11570
923.86900,0.11598
921.94026,0.11570
920.01151,0.11461
918.08277,0.11264
916.15402,0.10990
914.22528,0.10674
912.29653,0.10352
910.36779,0.10057
908.43904,0.09811
906.51029,0.09593
904.58155,0.09365
902.65280,0.09136
900.72406,0.08925
898.79531,0.08766
896.86657,0.08727
894.93782,0.08848
893.00908,0.09089
891.08033,0.09377
889.15159,0.09661
887.22284,0.09931
885.29410,0.10215
883.36535,0.10495
881.43661,0.10729
879.50786,0.10931
877.57911,0.11125
875.65037,0.11316
873.72162,0.11519
871.79288,0.11719
869.86413,0.11873
867.93539,0.11977
866.00664,0.12071
864.07790,0.12164
862.14915,0.12236
860.22041,0.12298
858.29166,0.12360
856.36292,0.12411
854.43417,0.12441
852.50543,0.12430
850.57668,0.12382
848.64794,0.12329
846.71919,0.12262
844.79044,0.12161
842.86170,0.12053
840.93295,0.11932
839.00421,0.11775
837.07546,0.11616
835.14672,0.11452
833.21797,0.11233
831.28923,0.10963
829.36048,0.10696
827.43174,0.10455
825.50299,0.10185
823.57425,0.09880
821.64550,0.09618
819.71676,0.09408
817.78801,0.09218
815.85926,0.09043
813.93052,0.08858
812.00177,0.08663
810.07303,0.08495
808.14428,0.08337
806.21554,0.08182
804.28679,0.08086
802.35805,0.08058
800.42930,0.08030
798.50056,0.07994
796.57181,0.07999
794.64307,0.08050
792.71432,0.08123
790.78558,0.08229
788.85683,0.08367
786.92809,0.08482
784.99934,0.08520
783.07059,0.08504
781.14185,0.08489
779.21310,0.08461
777.28436,0.08393
775.35561,0.08311
773.42687,0.08235
771.49812,0.08146
769.56938,0.08054
767.64063,0.07977
765.71189,0.07891
763.78314,0.07765
761.85440,0.07598
759.92565,0.07434
757.99691,0.07309
756.06816,0.07203
754.13942,0.07100
752.21067,0.06991
750.28192,0.06842
748.35318,0.06675
746.42443,0.06555
744.49569,0.06471
742.56694,0.06373
740.63820,0.06260
738.70945,0.06124
736.78071,0.05949
734.85196,0.05766
732.92322,0.05620
730.99447,0.05502
729.06573,0.05385
727.13698,0.05252
725.20824,0.05116
723.27949,0.04999
721.35074,0.04909
719.42200,0.04855
717.49325,0.04819
715.56451,0.04774
713.63576,0.04730
711.70702,0.04714
709.77827,0.04729
707.84953,0.04731
705.92078,0.04720
703.99204,0.04744
702.06329,0.04776
700.13455,0.04787
698.20580,0.04823
696.27706,0.04893
694.34831,0.04933
692.41957,0.04916
690.49082,0.04863
688.56207,0.04792
686.63333,0.04747
684.70458,0.04742
682.77584,0.04729
680.84709,0.04704
678.91835,0.04699
676.98960,0.04696
675.06086,0.04687
673.13211,0.04669
671.20337,0.04621
669.27462,0.04586
667.34588,0.04591
665.41713,0.04593
663.48839,0.04599
661.55964,0.04647
659.63090,0.04720
657.70215,0.04777
655.77340,0.04814
653.84466,0.04813
651.91591,0.04751
649.98717,0.04663
648.05842,0.04588
646.12968,0.04543
644.20093,0.04519
642.27219,0.04482
640.34344,0.04427
638.41470,0.04329
636.48595,0.04141
634.55721,0.03928
632.62846,0.03838
630.69972,0.03911
628.77097,0.04037
626.84222,0.04102
624.91348,0.04109
622.98473,0.04100
621.05599,0.04120
619.12724,0.04197
617.19850,0.04235
615.26975,0.04199
613.34101,0.04193
611.41226,0.04259
609.48352,0.04391
607.55477,0.04548
605.62603,0.04633
603.69728,0.04606
601.76854,0.04544
599.83979,0.04552
