7497.03301,0.02554
7495.10426,0.02497
7493.17552,0.02509
7491.24677,0.02526
7489.31803,0.02464
7487.38928,0.02533
7485.46054,0.02854
7483.53179,0.03018
7481.60305,0.02622
7479.67430,0.02405
7477.74556,0.02688
7475.81681,0.02836
7473.88807,0.02761
7471.95932,0.02851
7470.03057,0.02842
7468.10183,0.02528
7466.17308,0.01956
7464.24434,0.01719
7462.31559,0.02014
7460.38685,0.02640
7458.45810,0.03191
7456.52936,0.03560
7454.60061,0.03518
7452.67187,0.02849
7450.74312,0.01987
7448.81438,0.01689
7446.88563,0.01840
7444.95689,0.02061
7443.02814,0.02302
7441.09940,0.02462
7439.17065,0.02484
7437.24190,0.02637
7435.31316,0.03084
7433.38441,0.03402
7431.45567,0.03161
7429.52692,0.02531
7427.59818,0.02079
7425.66943,0.02133
7423.74069,0.02380
7421.81194,0.02583
7419.88320,0.02664
7417.95445,0.02600
7416.02571,0.02390
7414.09696,0.02225
7412.16822,0.02270
7410.23947,0.02545
7408.31073,0.02898
7406.38198,0.03100
7404.45323,0.03075
7402.52449,0.03071
7400.59574,0.02765
7398.66700,0.02194
7396.73825,0.01907
7394.80951,0.02151
7392.88076,0.02715
7390.95202,0.03175
7389.02327,0.03222
7387.09453,0.03214
7385.16578,0.03077
7383.23704,0.02651
7381.30829,0.02275
7379.37955,0.02185
7377.45080,0.02334
7375.52205,0.02622
7373.59331,0.02676
7371.66456,0.02188
7369.73582,0.01624
7367.80707,0.01642
7365.87833,0.02096
7363.94958,0.02584
7362.02084,0.02839
7360.09209,0.02762
7358.16335,0.02541
7356.23460,0.02308
7354.30586,0.02264
7352.37711,0.02565
7350.44837,0.02700
7348.51962,0.02536
7346.59088,0.02358
7344.66213,0.02344
7342.73338,0.02570
7340.80464,0.02689
7338.87589,0.02506
7336.94715,0.02324
7335.01840,0.02124
7333.08966,0.01880
7331.16091,0.01924
7329.23217,0.02310
7327.30342,0.02552
7325.37468,0.02506
7323.44593,0.02666
7321.51719,0.03233
7319.58844,0.03644
7317.65970,0.03598
7315.73095,0.03385
7313.80221,0.03109
7311.87346,0.02826
7309.94471,0.02844
7308.01597,0.02938
7306.08722,0.02809
7304.15848,0.02686
7302.22973,0.02730
7300.30099,0.02920
7298.37224,0.03169
7296.44350,0.03074
7294.51475,0.02843
7292.58601,0.02963
7290.65726,0.03093
7288.72852,0.02755
7286.79977,0.02260
7284.87103,0.01990
7282.94228,0.01984
7281.01353,0.02040
7279.08479,0.02106
7277.15604,0.02343
7275.22730,0.02675
7273.29855,0.02871
7271.36981,0.02955
7269.44106,0.02974
7267.51232,0.02990
7265.58357,0.02799
7263.65483,0.02521
7261.72608,0.02564
7259.79734,0.02797
7257.86859,0.02845
7255.93985,0.02854
7254.01110,0.02988
7252.08236,0.02985
7250.15361,0.02776
7248.22486,0.02650
7246.29612,0.02457
7244.36737,0.02238
7242.43863,0.02360
7240.50988,0.02571
7238.58114,0.02485
7236.65239,0.02217
7234.72365,0.01873
7232.79490,0.01703
7230.86616,0.01868
7228.93741,0.02215
7227.00867,0.02585
7225.07992,0.02850
7223.15118,0.02965
7221.22243,0.03056
7219.29369,0.03131
7217.36494,0.03104
7215.43619,0.02907
7213.50745,0.02758
7211.57870,0.02855
7209.64996,0.02981
7207.72121,0.02873
7205.79247,0.02661
7203.86372,0.02578
7201.93498,0.02782
7200.00623,0.03158
7198.07749,0.03288
7196.14874,0.03014
7194.22000,0.02928
7192.29125,0.03136
7190.36251,0.03124
7188.43376,0.02920
7186.50501,0.02814
7184.57627,0.02681
7182.64752,0.02572
7180.71878,0.02683
7178.79003,0.02745
7176.86129,0.02547
7174.93254,0.02380
7173.00380,0.02319
7171.07505,0.02257
7169.14631,0.02222
7167.21756,0.02393
7165.28882,0.02678
7163.36007,0.02828
7161.43133,0.02841
7159.50258,0.02889
7157.57384,0.02756
7155.64509,0.02539
7153.71634,0.02576
7151.78760,0.02862
7149.85885,0.03180
7147.93011,0.03302
7146.00136,0.03140
7144.07262,0.02972
7142.14387,0.02829
7140.21513,0.02662
7138.28638,0.02718
7136.35764,0.02898
7134.42889,0.02845
7132.50015,0.02863
7130.57140,0.02966
7128.64266,0.02814
7126.71391,0.02425
7124.78516,0.02259
7122.85642,0.02133
7120.92767,0.01936
7118.99893,0.01914
7117.07018,0.02111
7115.14144,0.02321
7113.21269,0.02539
7111.28395,0.02770
7109.35520,0.02831
7107.42646,0.02535
7105.49771,0.02178
7103.56897,0.02105
7101.64022,0.02143
7099.71148,0.02075
7097.78273,0.01970
7095.85399,0.01984
7093.92524,0.02293
7091.99649,0.02688
7090.06775,0.02773
7088.13900,0.02671
7086.21026,0.02723
7084.28151,0.02775
7082.35277,0.02636
7080.42402,0.02450
7078.49528,0.02425
7076.56653,0.02673
7074.63779,0.03001
7072.70904,0.03041
7070.78030,0.02889
7068.85155,0.02956
7066.92281,0.03209
7064.99406,0.03408
7063.06532,0.03609
7061.13657,0.03564
7059.20782,0.03129
7057.27908,0.02647
7055.35033,0.02330
7053.42159,0.02237
7051.49284,0.02426
7049.56410,0.02638
7047.63535,0.02709
7045.70661,0.02682
7043.77786,0.02534
7041.84912,0.02376
7039.92037,0.02391
7037.99163,0.02449
7036.06288,0.02369
7034.13414,0.02173
7032.20539,0.02150
7030.27664,0.02209
7028.34790,0.02111
7026.41915,0.01883
7024.49041,0.01816
7022.56166,0.02037
7020.63292,0.02345
7018.70417,0.02341
7016.77543,0.02105
7014.84668,0.02033
7012.91794,0.02122
7010.98919,0.02177
7009.06045,0.02219
7007.13170,0.02244
7005.20296,0.02322
7003.27421,0.02457
7001.34547,0.02391
6999.41672,0.02104
6997.48797,0.01974
6995.55923,0.01984
6993.63048,0.02099
6991.70174,0.02309
6989.77299,0.02435
6987.84425,0.02403
6985.91550,0.02364
6983.98676,0.02446
6982.05801,0.02714
6980.12927,0.02899
6978.20052,0.02714
6976.27178,0.02356
6974.34303,0.02344
6972.41429,0.02659
6970.48554,0.02671
6968.55680,0.02349
6966.62805,0.02278
6964.69930,0.02375
6962.77056,0.02169
6960.84181,0.01835
6958.91307,0.01772
6956.98432,0.01997
6955.05558,0.02276
6953.12683,0.02280
6951.19809,0.02138
6949.26934,0.02088
6947.34060,0.02190
6945.41185,0.02437
6943.48311,0.02721
6941.55436,0.02892
6939.62562,0.02886
6937.69687,0.02725
6935.76812,0.02665
6933.83938,0.02765
6931.91063,0.02644
6929.98189,0.02158
6928.05314,0.01852
6926.12440,0.02031
6924.19565,0.02276
6922.26691,0.02253
6920.33816,0.02057
6918.40942,0.01868
6916.48067,0.01828
6914.55193,0.01900
6912.62318,0.01930
6910.69444,0.01986
6908.76569,0.02197
6906.83695,0.02330
6904.90820,0.02267
6902.97945,0.02257
6901.05071,0.02431
6899.12196,0.02646
6897.19322,0.02778
6895.26447,0.02836
6893.33573,0.02884
6891.40698,0.02726
6889.47824,0.02293
6887.54949,0.02173
6885.62075,0.02689
6883.69200,0.02989
6881.76326,0.02606
6879.83451,0.02117
6877.90577,0.02031
6875.97702,0.02172
6874.04828,0.02202
6872.11953,0.02195
6870.19078,0.02525
6868.26204,0.02913
6866.33329,0.02951
6864.40455,0.02862
6862.47580,0.02879
6860.54706,0.02820
6858.61831,0.02658
6856.68957,0.02574
6854.76082,0.02477
6852.83208,0.02294
6850.90333,0.02174
6848.97459,0.02141
6847.04584,0.02143
6845.11710,0.02169
6843.18835,0.02245
6841.25960,0.02323
6839.33086,0.02293
6837.40211,0.02229
6835.47337,0.02295
6833.54462,0.02497
6831.61588,0.02703
6829.68713,0.02737
6827.75839,0.02591
6825.82964,0.02376
6823.90090,0.02192
6821.97215,0.02133
6820.04341,0.02140
6818.11466,0.01986
6816.18592,0.01973
6814.25717,0.02297
6812.32843,0.02474
6810.39968,0.02214
6808.47093,0.01814
6806.54219,0.01717
6804.61344,0.02035
6802.68470,0.02434
6800.75595,0.02731
6798.82721,0.02839
6796.89846,0.02695
6794.96972,0.02433
6793.04097,0.02282
6791.11223,0.02424
6789.18348,0.02742
6787.25474,0.02837
6785.32599,0.02637
6783.39725,0.02394
6781.46850,0.02305
6779.53975,0.02366
6777.61101,0.02460
6775.68226,0.02538
6773.75352,0.02582
6771.82477,0.02539
6769.89603,0.02421
6767.96728,0.02296
6766.03854,0.02335
6764.10979,0.02509
6762.18105,0.02643
6760.25230,0.02572
6758.32356,0.02208
6756.39481,0.01831
6754.46607,0.01816
6752.53732,0.01916
6750.60858,0.01852
6748.67983,0.01842
6746.75108,0.02039
6744.82234,0.02345
6742.89359,0.02674
6740.96485,0.02716
6739.03610,0.02312
6737.10736,0.01906
6735.17861,0.01879
6733.24987,0.02040
6731.32112,0.02213
6729.39238,0.02358
6727.46363,0.02376
6725.53489,0.02384
6723.60614,0.02515
6721.67740,0.02478
6719.74865,0.02254
6717.81991,0.02199
6715.89116,0.02371
6713.96241,0.02506
6712.03367,0.02550
6710.10492,0.02552
6708.17618,0.02473
6706.24743,0.02329
6704.31869,0.02276
6702.38994,0.02270
6700.46120,0.02204
6698.53245,0.02242
6696.60371,0.02325
6694.67496,0.02192
6692.74622,0.01991
6690.81747,0.01980
6688.88873,0.02150
6686.95998,0.02274
6685.03123,0.02226
6683.10249,0.02140
6681.17374,0.02239
6679.24500,0.02480
6677.31625,0.02664
6675.38751,0.02648
6673.45876,0.02401
6671.53002,0.02227
6669.60127,0.02285
6667.67253,0.02268
6665.74378,0.02178
6663.81504,0.02236
6661.88629,0.02330
6659.95755,0.02371
6658.02880,0.02435
6656.10006,0.02467
6654.17131,0.02401
6652.24256,0.02298
6650.31382,0.02285
6648.38507,0.02434
6646.45633,0.02581
6644.52758,0.02521
6642.59884,0.02285
6640.67009,0.01996
6638.74135,0.01852
6636.81260,0.02028
6634.88386,0.02242
6632.95511,0.02153
6631.02637,0.02132
6629.09762,0.02342
6627.16888,0.02302
6625.24013,0.02031
6623.31139,0.01958
6621.38264,0.02106
6619.45389,0.02380
6617.52515,0.02620
6615.59640,0.02688
6613.66766,0.02628
6611.73891,0.02474
6609.81017,0.02259
6607.88142,0.02116
6605.95268,0.02036
6604.02393,0.01927
6602.09519,0.01863
6600.16644,0.01985
6598.23770,0.02241
6596.30895,0.02390
6594.38021,0.02444
6592.45146,0.02599
6590.52271,0.02704
6588.59397,0.02620
6586.66522,0.02420
6584.73648,0.02243
6582.80773,0.02205
6580.87899,0.02299
6578.95024,0.02398
6577.02150,0.02467
6575.09275,0.02546
6573.16401,0.02679
6571.23526,0.02724
6569.30652,0.02493
6567.37777,0.02098
6565.44903,0.01931
6563.52028,0.02168
6561.59154,0.02538
6559.66279,0.02617
6557.73404,0.02372
6555.80530,0.02114
6553.87655,0.02090
6551.94781,0.02272
6550.01906,0.02385
6548.09032,0.02265
6546.16157,0.02007
6544.23283,0.01813
6542.30408,0.01932
6540.37534,0.02185
6538.44659,0.02233
6536.51785,0.02131
6534.58910,0.02086
6532.66036,0.02136
6530.73161,0.02191
6528.80287,0.02217
6526.87412,0.02275
6524.94537,0.02340
6523.01663,0.02471
6521.08788,0.02712
6519.15914,0.02829
6517.23039,0.02560
6515.30165,0.02112
6513.37290,0.01966
6511.44416,0.02194
6509.51541,0.02417
6507.58667,0.02340
6505.65792,0.02082
6503.72918,0.01944
6501.80043,0.01976
6499.87169,0.02094
6497.94294,0.02154
6496.01419,0.02080
6494.08545,0.01949
6492.15670,0.01905
6490.22796,0.01976
6488.29921,0.02154
6486.37047,0.02436
6484.44172,0.02682
6482.51298,0.02739
6480.58423,0.02683
6478.65549,0.02643
6476.72674,0.02621
6474.79800,0.02532
6472.86925,0.02376
6470.94051,0.02210
6469.01176,0.02139
6467.08302,0.02208
6465.15427,0.02279
6463.22552,0.02234
6461.29678,0.02175
6459.36803,0.02236
6457.43929,0.02309
6455.51054,0.02250
6453.58180,0.02194
6451.65305,0.02255
6449.72431,0.02310
6447.79556,0.02282
6445.86682,0.02277
6443.93807,0.02332
6442.00933,0.02410
6440.08058,0.02394
6438.15184,0.02198
6436.22309,0.02002
6434.29434,0.01979
6432.36560,0.02051
6430.43685,0.02027
6428.50811,0.01887
6426.57936,0.01863
6424.65062,0.02028
6422.72187,0.02204
6420.79313,0.02246
6418.86438,0.02143
6416.93564,0.02028
6415.00689,0.02067
6413.07815,0.02236
6411.14940,0.02324
6409.22066,0.02242
6407.29191,0.02152
6405.36317,0.02101
6403.43442,0.02083
6401.50567,0.02216
6399.57693,0.02383
6397.64818,0.02273
6395.71944,0.01962
6393.79069,0.01804
6391.86195,0.01867
6389.93320,0.01976
6388.00446,0.02125
6386.07571,0.02324
6384.14697,0.02434
6382.21822,0.02394
6380.28948,0.02287
6378.36073,0.02243
6376.43199,0.02395
6374.50324,0.02626
6372.57450,0.02691
6370.64575,0.02530
6368.71700,0.02367
6366.78826,0.02411
6364.85951,0.02523
6362.93077,0.02454
6361.00202,0.02294
6359.07328,0.02213
6357.14453,0.02197
6355.21579,0.02174
6353.28704,0.02078
6351.35830,0.01931
6349.42955,0.01895
6347.50081,0.02010
6345.57206,0.02098
6343.64332,0.02098
6341.71457,0.02212
6339.78582,0.02431
6337.85708,0.02416
6335.92833,0.02163
6333.99959,0.02031
6332.07084,0.02077
6330.14210,0.02115
6328.21335,0.02186
6326.28461,0.02394
6324.35586,0.02564
6322.42712,0.02510
6320.49837,0.02297
6318.56963,0.02158
6316.64088,0.02275
6314.71214,0.02448
6312.78339,0.02395
6310.85465,0.02304
6308.92590,0.02285
6306.99715,0.02219
6305.06841,0.02241
6303.13966,0.02468
6301.21092,0.02679
6299.28217,0.02588
6297.35343,0.02289
6295.42468,0.02172
6293.49594,0.02270
6291.56719,0.02432
6289.63845,0.02577
6287.70970,0.02497
6285.78096,0.02188
6283.85221,0.02000
6281.92347,0.02066
6279.99472,0.02219
6278.06598,0.02289
6276.13723,0.02268
6274.20848,0.02237
6272.27974,0.02219
6270.35099,0.02235
6268.42225,0.02292
6266.49350,0.02343
6264.56476,0.02382
6262.63601,0.02366
6260.70727,0.02266
6258.77852,0.02138
6256.84978,0.02094
6254.92103,0.02180
6252.99229,0.02297
6251.06354,0.02353
6249.13480,0.02466
6247.20605,0.02681
6245.27730,0.02749
6243.34856,0.02567
6241.41981,0.02414
6239.49107,0.02394
6237.56232,0.02327
6235.63358,0.02206
6233.70483,0.02188
6231.77609,0.02238
6229.84734,0.02207
6227.91860,0.02202
6225.98985,0.02357
6224.06111,0.02395
6222.13236,0.02199
6220.20362,0.02066
6218.27487,0.02084
6216.34613,0.02099
6214.41738,0.02087
6212.48863,0.02094
6210.55989,0.02143
6208.63114,0.02179
6206.70240,0.02168
6204.77365,0.02146
6202.84491,0.02182
6200.91616,0.02253
6198.98742,0.02268
6197.05867,0.02168
6195.12993,0.02025
6193.20118,0.01979
6191.27244,0.02067
6189.34369,0.02143
6187.41495,0.02113
6185.48620,0.02034
6183.55746,0.01970
6181.62871,0.01879
6179.69996,0.01776
6177.77122,0.01780
6175.84247,0.01967
6173.91373,0.02226
6171.98498,0.02348
6170.05624,0.02284
6168.12749,0.02197
6166.19875,0.02154
6164.27000,0.02041
6162.34126,0.01909
6160.41251,0.02006
6158.48377,0.02268
6156.55502,0.02399
6154.62628,0.02342
6152.69753,0.02247
6150.76878,0.02167
6148.84004,0.02130
6146.91129,0.02210
6144.98255,0.02349
6143.05380,0.02367
6141.12506,0.02269
6139.19631,0.02196
6137.26757,0.02166
6135.33882,0.02095
6133.41008,0.02010
6131.48133,0.01946
6129.55259,0.01937
6127.62384,0.02032
6125.69510,0.02212
6123.76635,0.02348
6121.83761,0.02351
6119.90886,0.02216
6117.98011,0.02034
6116.05137,0.02008
6114.12262,0.02162
6112.19388,0.02230
6110.26513,0.02120
6108.33639,0.01957
6106.40764,0.01834
6104.47890,0.01792
6102.55015,0.01783
6100.62141,0.01836
6098.69266,0.02067
6096.76392,0.02350
6094.83517,0.02398
6092.90643,0.02194
6090.97768,0.02040
6089.04893,0.02047
6087.12019,0.02120
6085.19144,0.02215
6083.26270,0.02296
6081.33395,0.02352
6079.40521,0.02402
6077.47646,0.02442
6075.54772,0.02518
6073.61897,0.02552
6071.69023,0.02411
6069.76148,0.02164
6067.83274,0.01992
6065.90399,0.01983
6063.97525,0.02082
6062.04650,0.02165
6060.11776,0.02202
6058.18901,0.02201
6056.26026,0.02225
6054.33152,0.02333
6052.40277,0.02380
6050.47403,0.02259
6048.54528,0.02143
6046.61654,0.02190
6044.68779,0.02314
6042.75905,0.02340
6040.83030,0.02279
6038.90156,0.02275
6036.97281,0.02342
6035.04407,0.02316
6033.11532,0.02208
6031.18658,0.02170
6029.25783,0.02221
6027.32909,0.02305
6025.40034,0.02331
6023.47159,0.02300
6021.54285,0.02366
6019.61410,0.02488
6017.68536,0.02495
6015.75661,0.02424
6013.82787,0.02358
6011.89912,0.02217
6009.97038,0.02066
6008.04163,0.02033
6006.11289,0.02048
6004.18414,0.02065
6002.25540,0.02139
6000.32665,0.02220
5998.39791,0.02239
5996.46916,0.02199
5994.54041,0.02133
5992.61167,0.02110
5990.68292,0.02173
5988.75418,0.02221
5986.82543,0.02213
5984.89669,0.02250
5982.96794,0.02316
5981.03920,0.02293
5979.11045,0.02259
5977.18171,0.02326
5975.25296,0.02377
5973.32422,0.02306
5971.39547,0.02180
5969.46673,0.02086
5967.53798,0.02089
5965.60924,0.02201
5963.68049,0.02315
5961.75174,0.02348
5959.82300,0.02346
5957.89425,0.02343
5955.96551,0.02344
5954.03676,0.02329
5952.10802,0.02261
5950.17927,0.02166
5948.25053,0.02065
5946.32178,0.02003
5944.39304,0.02097
5942.46429,0.02284
5940.53555,0.02347
5938.60680,0.02302
5936.67806,0.02319
5934.74931,0.02365
5932.82057,0.02355
5930.89182,0.02348
5928.96307,0.02371
5927.03433,0.02348
5925.10558,0.02297
5923.17684,0.02317
5921.24809,0.02404
5919.31935,0.02471
5917.39060,0.02461
5915.46186,0.02424
5913.53311,0.02421
5911.60437,0.02419
5909.67562,0.02363
5907.74688,0.02310
5905.81813,0.02391
5903.88939,0.02480
5901.96064,0.02337
5900.03189,0.02104
5898.10315,0.02007
5896.17440,0.02001
5894.24566,0.02008
5892.31691,0.02035
5890.38817,0.02100
5888.45942,0.02173
5886.53068,0.02214
5884.60193,0.02212
5882.67319,0.02194
5880.74444,0.02198
5878.81570,0.02224
5876.88695,0.02255
5874.95821,0.02315
5873.02946,0.02331
5871.10072,0.02216
5869.17197,0.02060
5867.24322,0.02015
5865.31448,0.02084
5863.38573,0.02140
5861.45699,0.02117
5859.52824,0.02124
5857.59950,0.02183
5855.67075,0.02242
5853.74201,0.02335
5851.81326,0.02359
5849.88452,0.02230
5847.95577,0.02140
5846.02703,0.02195
5844.09828,0.02295
5842.16954,0.02327
5840.24079,0.02294
5838.31205,0.02195
5836.38330,0.02018
5834.45455,0.01914
5832.52581,0.01943
5830.59706,0.01970
5828.66832,0.01984
5826.73957,0.02022
5824.81083,0.02100
5822.88208,0.02232
5820.95334,0.02336
5819.02459,0.02317
5817.09585,0.02205
5815.16710,0.02130
5813.23836,0.02192
5811.30961,0.02322
5809.38087,0.02374
5807.45212,0.02325
5805.52337,0.02314
5803.59463,0.02428
5801.66588,0.02522
5799.73714,0.02467
5797.80839,0.02347
5795.87965,0.02210
5793.95090,0.02077
5792.02216,0.02075
5790.09341,0.02203
5788.16467,0.02282
5786.23592,0.02242
5784.30718,0.02155
5782.37843,0.02070
5780.44969,0.01996
5778.52094,0.02069
5776.59220,0.02316
5774.66345,0.02428
5772.73470,0.02261
5770.80596,0.02135
5768.87721,0.02214
5766.94847,0.02246
5765.01972,0.02146
5763.09098,0.02136
5761.16223,0.02227
5759.23349,0.02246
5757.30474,0.02203
5755.37600,0.02193
5753.44725,0.02197
5751.51851,0.02164
5749.58976,0.02079
5747.66102,0.01972
5745.73227,0.01901
5743.80352,0.01883
5741.87478,0.01907
5739.94603,0.01978
5738.01729,0.02093
5736.08854,0.02184
5734.15980,0.02159
5732.23105,0.02079
5730.30231,0.02055
5728.37356,0.02065
5726.44482,0.02076
5724.51607,0.02136
5722.58733,0.02175
5720.65858,0.02145
5718.72984,0.02120
5716.80109,0.02108
5714.87235,0.02042
5712.94360,0.02005
5711.01485,0.02061
5709.08611,0.02111
5707.15736,0.02102
5705.22862,0.02124
5703.29987,0.02192
5701.37113,0.02264
5699.44238,0.02358
5697.51364,0.02417
5695.58489,0.02350
5693.65615,0.02237
5691.72740,0.02158
5689.79866,0.02098
5687.86991,0.02051
5685.94117,0.02012
5684.01242,0.02007
5682.08368,0.02093
5680.15493,0.02216
5678.22618,0.02273
5676.29744,0.02271
5674.36869,0.02234
5672.43995,0.02202
5670.51120,0.02264
5668.58246,0.02317
5666.65371,0.02213
5664.72497,0.02092
5662.79622,0.02080
5660.86748,0.02104
5658.93873,0.02120
5657.00999,0.02161
5655.08124,0.02230
5653.15250,0.02311
5651.22375,0.02397
5649.29500,0.02432
5647.36626,0.02405
5645.43751,0.02339
5643.50877,0.02289
5641.58002,0.02340
5639.65128,0.02425
5637.72253,0.02414
5635.79379,0.02329
5633.86504,0.02247
5631.93630,0.02217
5630.00755,0.02227
5628.07881,0.02212
5626.15006,0.02182
5624.22132,0.02201
5622.29257,0.02210
5620.36383,0.02155
5618.43508,0.02149
5616.50633,0.02249
5614.57759,0.02348
5612.64884,0.02350
5610.72010,0.02261
5608.79135,0.02183
5606.86261,0.02167
5604.93386,0.02138
5603.00512,0.02062
5601.07637,0.02019
5599.14763,0.02052
5597.21888,0.02110
5595.29014,0.02131
5593.36139,0.02110
5591.43265,0.02072
5589.50390,0.02076
5587.57516,0.02165
5585.64641,0.02261
5583.71766,0.02260
5581.78892,0.02215
5579.86017,0.02224
5577.93143,0.02236
5576.00268,0.02183
5574.07394,0.02150
5572.14519,0.02186
5570.21645,0.02200
5568.28770,0.02179
5566.35896,0.02173
5564.43021,0.02194
5562.50147,0.02271
5560.57272,0.02326
5558.64398,0.02282
5556.71523,0.02233
5554.78648,0.02283
5552.85774,0.02362
5550.92899,0.02375
5549.00025,0.02359
5547.07150,0.02342
5545.14276,0.02309
5543.21401,0.02278
5541.28527,0.02215
5539.35652,0.02147
5537.42778,0.02128
5535.49903,0.02117
5533.57029,0.02114
5531.64154,0.02094
5529.71280,0.02040
5527.78405,0.02067
5525.85531,0.02152
5523.92656,0.02170
5521.99781,0.02183
5520.06907,0.02250
5518.14032,0.02319
5516.21158,0.02344
5514.28283,0.02292
5512.35409,0.02220
5510.42534,0.02204
5508.49660,0.02186
5506.56785,0.02085
5504.63911,0.01961
5502.71036,0.01931
5500.78162,0.02041
5498.85287,0.02207
5496.92413,0.02308
5494.99538,0.02296
5493.06664,0.02226
5491.13789,0.02169
5489.20914,0.02134
5487.28040,0.02158
5485.35165,0.02279
5483.42291,0.02392
5481.49416,0.02413
5479.56542,0.02391
5477.63667,0.02348
5475.70793,0.02270
5473.77918,0.02213
5471.85044,0.02257
5469.92169,0.02326
5467.99295,0.02283
5466.06420,0.02166
5464.13546,0.02068
5462.20671,0.02019
5460.27796,0.02061
5458.34922,0.02130
5456.42047,0.02102
5454.49173,0.02062
5452.56298,0.02132
5450.63424,0.02225
5448.70549,0.02274
5446.77675,0.02309
5444.84800,0.02277
5442.91926,0.02181
5440.99051,0.02100
5439.06177,0.02051
5437.13302,0.02060
5435.20428,0.02156
5433.27553,0.02265
5431.34679,0.02266
5429.41804,0.02196
5427.48929,0.02193
5425.56055,0.02234
5423.63180,0.02238
5421.70306,0.02220
5419.77431,0.02189
5417.84557,0.02182
5415.91682,0.02229
5413.98808,0.02266
5412.05933,0.02251
5410.13059,0.02227
5408.20184,0.02229
5406.27310,0.02251
5404.34435,0.02266
5402.41561,0.02256
5400.48686,0.02227
5398.55811,0.02223
5396.62937,0.02256
5394.70062,0.02220
5392.77188,0.02097
5390.84313,0.02027
5388.91439,0.02054
5386.98564,0.02090
5385.05690,0.02125
5383.12815,0.02211
5381.19941,0.02292
5379.27066,0.02317
5377.34192,0.02333
5375.41317,0.02353
5373.48443,0.02350
5371.55568,0.02308
5369.62694,0.02253
5367.69819,0.02244
5365.76944,0.02264
5363.84070,0.02257
5361.91195,0.02230
5359.98321,0.02208
5358.05446,0.02226
5356.12572,0.02257
5354.19697,0.02245
5352.26823,0.02205
5350.33948,0.02157
5348.41074,0.02115
5346.48199,0.02167
5344.55325,0.02287
5342.62450,0.02339
5340.69576,0.02306
5338.76701,0.02253
5336.83827,0.02234
5334.90952,0.02275
5332.98077,0.02312
5331.05203,0.02280
5329.12328,0.02230
5327.19454,0.02219
5325.26579,0.02216
5323.33705,0.02196
5321.40830,0.02172
5319.47956,0.02196
5317.55081,0.02262
5315.62207,0.02247
5313.69332,0.02179
5311.76458,0.02175
5309.83583,0.02147
5307.90709,0.02067
5305.97834,0.02072
5304.04959,0.02124
5302.12085,0.02092
5300.19210,0.02042
5298.26336,0.02069
5296.33461,0.02150
5294.40587,0.02230
5292.47712,0.02272
5290.54838,0.02257
5288.61963,0.02196
5286.69089,0.02140
5284.76214,0.02144
5282.83340,0.02166
5280.90465,0.02150
5278.97591,0.02128
5277.04716,0.02102
5275.11842,0.02050
5273.18967,0.02013
5271.26092,0.02012
5269.33218,0.02056
5267.40343,0.02138
5265.47469,0.02164
5263.54594,0.02122
5261.61720,0.02105
5259.68845,0.02132
5257.75971,0.02180
5255.83096,0.02232
5253.90222,0.02253
5251.97347,0.02261
5250.04473,0.02270
5248.11598,0.02189
5246.18724,0.02043
5244.25849,0.01996
5242.32975,0.02030
5240.40100,0.02036
5238.47225,0.02052
5236.54351,0.02147
5234.61476,0.02255
5232.68602,0.02282
5230.75727,0.02266
5228.82853,0.02269
5226.89978,0.02255
5224.97104,0.02212
5223.04229,0.02201
5221.11355,0.02236
5219.18480,0.02266
5217.25606,0.02287
5215.32731,0.02305
5213.39857,0.02280
5211.46982,0.02220
5209.54107,0.02175
5207.61233,0.02178
5205.68358,0.02224
5203.75484,0.02267
5201.82609,0.02269
5199.89735,0.02268
5197.96860,0.02278
5196.03986,0.02249
5194.11111,0.02192
5192.18237,0.02186
5190.25362,0.02241
5188.32488,0.02293
5186.39613,0.02295
5184.46739,0.02281
5182.53864,0.02275
5180.60990,0.02255
5178.68115,0.02210
5176.75240,0.02150
5174.82366,0.02118
5172.89491,0.02142
5170.96617,0.02149
5169.03742,0.02146
5167.10868,0.02196
5165.17993,0.02239
5163.25119,0.02236
5161.32244,0.02208
5159.39370,0.02165
5157.46495,0.02163
5155.53621,0.02211
5153.60746,0.02232
5151.67872,0.02196
5149.74997,0.02176
5147.82123,0.02186
5145.89248,0.02161
5143.96373,0.02130
5142.03499,0.02138
5140.10624,0.02154
5138.17750,0.02170
5136.24875,0.02221
5134.32001,0.02288
5132.39126,0.02314
5130.46252,0.02310
5128.53377,0.02312
5126.60503,0.02299
5124.67628,0.02244
5122.74754,0.02189
5120.81879,0.02171
5118.89005,0.02149
5116.96130,0.02126
5115.03255,0.02141
5113.10381,0.02170
5111.17506,0.02186
5109.24632,0.02179
5107.31757,0.02129
5105.38883,0.02076
5103.46008,0.02084
5101.53134,0.02125
5099.60259,0.02144
5097.67385,0.02160
5095.74510,0.02214
5093.81636,0.02292
5091.88761,0.02346
5089.95887,0.02344
5088.03012,0.02305
5086.10138,0.02246
5084.17263,0.02171
5082.24388,0.02112
5080.31514,0.02102
5078.38639,0.02127
5076.45765,0.02167
5074.52890,0.02240
5072.60016,0.02296
5070.67141,0.02258
5068.74267,0.02217
5066.81392,0.02259
5064.88518,0.02272
5062.95643,0.02227
5061.02769,0.02233
5059.09894,0.02253
5057.17020,0.02202
5055.24145,0.02133
5053.31270,0.02121
5051.38396,0.02178
5049.45521,0.02251
5047.52647,0.02283
5045.59772,0.02300
5043.66898,0.02335
5041.74023,0.02316
5039.81149,0.02201
5037.88274,0.02097
5035.95400,0.02100
5034.02525,0.02167
5032.09651,0.02216
5030.16776,0.02242
5028.23902,0.02281
5026.31027,0.02310
5024.38153,0.02313
5022.45278,0.02305
5020.52403,0.02273
5018.59529,0.02233
5016.66654,0.02237
5014.73780,0.02295
5012.80905,0.02318
5010.88031,0.02241
5008.95156,0.02153
5007.02282,0.02138
5005.09407,0.02164
5003.16533,0.02212
5001.23658,0.02292
4999.30784,0.02350
4997.37909,0.02321
4995.45035,0.02239
4993.52160,0.02197
4991.59286,0.02214
4989.66411,0.02209
4987.73536,0.02158
4985.80662,0.02121
4983.87787,0.02116
4981.94913,0.02122
4980.02038,0.02157
4978.09164,0.02232
4976.16289,0.02280
4974.23415,0.02258
4972.30540,0.02220
4970.37666,0.02192
4968.44791,0.02193
4966.51917,0.02268
4964.59042,0.02352
4962.66168,0.02357
4960.73293,0.02320
4958.80418,0.02277
4956.87544,0.02220
4954.94669,0.02163
4953.01795,0.02101
4951.08920,0.02031
4949.16046,0.02018
4947.23171,0.02105
4945.30297,0.02204
4943.37422,0.02228
4941.44548,0.02238
4939.51673,0.02264
4937.58799,0.02261
4935.65924,0.02236
4933.73050,0.02228
4931.80175,0.02214
4929.87301,0.02163
4927.94426,0.02117
4926.01551,0.02103
4924.08677,0.02092
4922.15802,0.02103
4920.22928,0.02151
4918.30053,0.02202
4916.37179,0.02253
4914.44304,0.02294
4912.51430,0.02276
4910.58555,0.02231
4908.65681,0.02208
4906.72806,0.02181
4904.79932,0.02162
4902.87057,0.02183
4900.94183,0.02204
4899.01308,0.02235
4897.08434,0.02278
4895.15559,0.02264
4893.22684,0.02227
4891.29810,0.02228
4889.36935,0.02223
4887.44061,0.02185
4885.51186,0.02143
4883.58312,0.02129
4881.65437,0.02175
4879.72563,0.02249
4877.79688,0.02271
4875.86814,0.02248
4873.93939,0.02257
4872.01065,0.02290
4870.08190,0.02259
4868.15316,0.02201
4866.22441,0.02221
4864.29566,0.02286
4862.36692,0.02304
4860.43817,0.02264
4858.50943,0.02221
4856.58068,0.02202
4854.65194,0.02171
4852.72319,0.02140
4850.79445,0.02159
4848.86570,0.02201
4846.93696,0.02214
4845.00821,0.02206
4843.07947,0.02189
4841.15072,0.02174
4839.22198,0.02199
4837.29323,0.02273
4835.36449,0.02325
4833.43574,0.02318
4831.50699,0.02286
4829.57825,0.02267
4827.64950,0.02265
4825.72076,0.02257
4823.79201,0.02255
4821.86327,0.02282
4819.93452,0.02286
4818.00578,0.02245
4816.07703,0.02223
4814.14829,0.02239
4812.21954,0.02231
4810.29080,0.02195
4808.36205,0.02198
4806.43331,0.02235
4804.50456,0.02258
4802.57582,0.02294
4800.64707,0.02339
4798.71832,0.02328
4796.78958,0.02250
4794.86083,0.02152
4792.93209,0.02095
4791.00334,0.02108
4789.07460,0.02161
4787.14585,0.02193
4785.21711,0.02184
4783.28836,0.02179
4781.35962,0.02207
4779.43087,0.02251
4777.50213,0.02303
4775.57338,0.02335
4773.64464,0.02326
4771.71589,0.02298
4769.78714,0.02259
4767.85840,0.02232
4765.92965,0.02252
4764.00091,0.02287
4762.07216,0.02294
4760.14342,0.02284
4758.21467,0.02279
4756.28593,0.02278
4754.35718,0.02245
4752.42844,0.02185
4750.49969,0.02161
4748.57095,0.02171
4746.64220,0.02171
4744.71346,0.02184
4742.78471,0.02230
4740.85597,0.02291
4738.92722,0.02313
4736.99847,0.02272
4735.06973,0.02216
4733.14098,0.02187
4731.21224,0.02180
4729.28349,0.02182
4727.35475,0.02203
4725.42600,0.02255
4723.49726,0.02293
4721.56851,0.02279
4719.63977,0.02245
4717.71102,0.02225
4715.78228,0.02226
4713.85353,0.02234
4711.92479,0.02257
4709.99604,0.02279
4708.06729,0.02245
4706.13855,0.02198
4704.20980,0.02213
4702.28106,0.02258
4700.35231,0.02272
4698.42357,0.02265
4696.49482,0.02261
4694.56608,0.02252
4692.63733,0.02247
4690.70859,0.02261
4688.77984,0.02282
4686.85110,0.02310
4684.92235,0.02326
4682.99361,0.02296
4681.06486,0.02242
4679.13612,0.02202
4677.20737,0.02199
4675.27862,0.02225
4673.34988,0.02249
4671.42113,0.02245
4669.49239,0.02213
4667.56364,0.02167
4665.63490,0.02144
4663.70615,0.02175
4661.77741,0.02215
4659.84866,0.02219
4657.91992,0.02203
4655.99117,0.02175
4654.06243,0.02139
4652.13368,0.02156
4650.20494,0.02252
4648.27619,0.02335
4646.34745,0.02337
4644.41870,0.02312
4642.48995,0.02293
4640.56121,0.02256
4638.63246,0.02224
4636.70372,0.02229
4634.77497,0.02266
4632.84623,0.02307
4630.91748,0.02292
4628.98874,0.02240
4627.05999,0.02226
4625.13125,0.02235
4623.20250,0.02233
4621.27376,0.02241
4619.34501,0.02255
4617.41627,0.02249
4615.48752,0.02230
4613.55877,0.02219
4611.63003,0.02229
4609.70128,0.02226
4607.77254,0.02179
4605.84379,0.02151
4603.91505,0.02193
4601.98630,0.02232
4600.05756,0.02212
4598.12881,0.02167
4596.20007,0.02159
4594.27132,0.02195
4592.34258,0.02221
4590.41383,0.02221
4588.48509,0.02202
4586.55634,0.02169
4584.62760,0.02165
4582.69885,0.02203
4580.77010,0.02226
4578.84136,0.02227
4576.91261,0.02221
4574.98387,0.02187
4573.05512,0.02142
4571.12638,0.02138
4569.19763,0.02173
4567.26889,0.02213
4565.34014,0.02242
4563.41140,0.02252
4561.48265,0.02235
4559.55391,0.02204
4557.62516,0.02191
4555.69642,0.02189
4553.76767,0.02200
4551.83893,0.02221
4549.91018,0.02214
4547.98143,0.02190
4546.05269,0.02189
4544.12394,0.02208
4542.19520,0.02222
4540.26645,0.02212
4538.33771,0.02196
4536.40896,0.02213
4534.48022,0.02247
4532.55147,0.02246
4530.62273,0.02212
4528.69398,0.02196
4526.76524,0.02210
4524.83649,0.02223
4522.90775,0.02227
4520.97900,0.02246
4519.05025,0.02291
4517.12151,0.02336
4515.19276,0.02339
4513.26402,0.02292
4511.33527,0.02226
4509.40653,0.02192
4507.47778,0.02213
4505.54904,0.02235
4503.62029,0.02228
4501.69155,0.02225
4499.76280,0.02241
4497.83406,0.02260
4495.90531,0.02287
4493.97657,0.02306
4492.04782,0.02258
4490.11908,0.02176
4488.19033,0.02148
4486.26158,0.02174
4484.33284,0.02206
4482.40409,0.02235
4480.47535,0.02264
4478.54660,0.02274
4476.61786,0.02255
4474.68911,0.02224
4472.76037,0.02183
4470.83162,0.02158
4468.90288,0.02189
4466.97413,0.02242
4465.04539,0.02263
4463.11664,0.02267
4461.18790,0.02270
4459.25915,0.02275
4457.33041,0.02290
4455.40166,0.02279
4453.47291,0.02223
4451.54417,0.02182
4449.61542,0.02192
4447.68668,0.02220
4445.75793,0.02256
4443.82919,0.02305
4441.90044,0.02325
4439.97170,0.02292
4438.04295,0.02234
4436.11421,0.02184
4434.18546,0.02161
4432.25672,0.02163
4430.32797,0.02196
4428.39923,0.02239
4426.47048,0.02255
4424.54173,0.02255
4422.61299,0.02254
4420.68424,0.02258
4418.75550,0.02259
4416.82675,0.02241
4414.89801,0.02214
4412.96926,0.02201
4411.04052,0.02201
4409.11177,0.02213
4407.18303,0.02257
4405.25428,0.02316
4403.32554,0.02347
4401.39679,0.02343
4399.46805,0.02305
4397.53930,0.02265
4395.61056,0.02257
4393.68181,0.02266
4391.75306,0.02266
4389.82432,0.02241
4387.89557,0.02199
4385.96683,0.02167
4384.03808,0.02164
4382.10934,0.02162
4380.18059,0.02152
4378.25185,0.02154
4376.32310,0.02181
4374.39436,0.02231
4372.46561,0.02263
4370.53687,0.02239
4368.60812,0.02209
4366.67938,0.02224
4364.75063,0.02236
4362.82189,0.02231
4360.89314,0.02252
4358.96439,0.02281
4357.03565,0.02295
4355.10690,0.02323
4353.17816,0.02349
4351.24941,0.02332
4349.32067,0.02293
4347.39192,0.02281
4345.46318,0.02292
4343.53443,0.02286
4341.60569,0.02249
4339.67694,0.02223
4337.74820,0.02230
4335.81945,0.02237
4333.89071,0.02222
4331.96196,0.02205
4330.03321,0.02196
4328.10447,0.02191
4326.17572,0.02194
4324.24698,0.02223
4322.31823,0.02262
4320.38949,0.02260
4318.46074,0.02224
4316.53200,0.02205
4314.60325,0.02215
4312.67451,0.02224
4310.74576,0.02224
4308.81702,0.02229
4306.88827,0.02242
4304.95953,0.02252
4303.03078,0.02261
4301.10204,0.02268
4299.17329,0.02265
4297.24454,0.02277
4295.31580,0.02321
4293.38705,0.02333
4291.45831,0.02271
4289.52956,0.02206
4287.60082,0.02201
4285.67207,0.02231
4283.74333,0.02242
4281.81458,0.02228
4279.88584,0.02226
4277.95709,0.02242
4276.02835,0.02247
4274.09960,0.02220
4272.17086,0.02193
4270.24211,0.02214
4268.31336,0.02261
4266.38462,0.02276
4264.45587,0.02274
4262.52713,0.02281
4260.59838,0.02291
4258.66964,0.02305
4256.74089,0.02320
4254.81215,0.02334
4252.88340,0.02339
4250.95466,0.02324
4249.02591,0.02295
4247.09717,0.02272
4245.16842,0.02266
4243.23968,0.02271
4241.31093,0.02280
4239.38219,0.02299
4237.45344,0.02316
4235.52469,0.02288
4233.59595,0.02232
4231.66720,0.02213
4229.73846,0.02234
4227.80971,0.02254
4225.88097,0.02262
4223.95222,0.02272
4222.02348,0.02291
4220.09473,0.02308
4218.16599,0.02317
4216.23724,0.02324
4214.30850,0.02323
4212.37975,0.02302
4210.45101,0.02258
4208.52226,0.02224
4206.59352,0.02220
4204.66477,0.02213
4202.73602,0.02215
4200.80728,0.02242
4198.87853,0.02262
4196.94979,0.02266
4195.02104,0.02268
4193.09230,0.02267
4191.16355,0.02274
4189.23481,0.02282
4187.30606,0.02266
4185.37732,0.02236
4183.44857,0.02221
4181.51983,0.02211
4179.59108,0.02182
4177.66234,0.02169
4175.73359,0.02207
4173.80484,0.02259
4171.87610,0.02281
4169.94735,0.02256
4168.01861,0.02220
4166.08986,0.02221
4164.16112,0.02236
4162.23237,0.02231
4160.30363,0.02219
4158.37488,0.02223
4156.44614,0.02242
4154.51739,0.02258
4152.58865,0.02262
4150.65990,0.02250
4148.73116,0.02225
4146.80241,0.02215
4144.87367,0.02230
4142.94492,0.02230
4141.01617,0.02211
4139.08743,0.02199
4137.15868,0.02207
4135.22994,0.02227
4133.30119,0.02244
4131.37245,0.02258
4129.44370,0.02265
4127.51496,0.02248
4125.58621,0.02233
4123.65747,0.02252
4121.72872,0.02256
4119.79998,0.02211
4117.87123,0.02170
4115.94249,0.02184
4114.01374,0.02226
4112.08500,0.02231
4110.15625,0.02202
4108.22750,0.02188
4106.29876,0.02175
4104.37001,0.02144
4102.44127,0.02136
4100.51252,0.02187
4098.58378,0.02259
4096.65503,0.02279
4094.72629,0.02251
4092.79754,0.02225
4090.86880,0.02203
4088.94005,0.02188
4087.01131,0.02201
4085.08256,0.02229
4083.15382,0.02244
4081.22507,0.02237
4079.29632,0.02232
4077.36758,0.02247
4075.43883,0.02251
4073.51009,0.02230
4071.58134,0.02230
4069.65260,0.02258
4067.72385,0.02248
4065.79511,0.02197
4063.86636,0.02188
4061.93762,0.02226
4060.00887,0.02244
4058.08013,0.02235
4056.15138,0.02235
4054.22264,0.02246
4052.29389,0.02249
4050.36515,0.02248
4048.43640,0.02272
4046.50765,0.02308
4044.57891,0.02300
4042.65016,0.02252
4040.72142,0.02223
4038.79267,0.02236
4036.86393,0.02265
4034.93518,0.02274
4033.00644,0.02258
4031.07769,0.02254
4029.14895,0.02264
4027.22020,0.02252
4025.29146,0.02223
4023.36271,0.02217
4021.43397,0.02229
4019.50522,0.02240
4017.57648,0.02255
4015.64773,0.02258
4013.71898,0.02232
4011.79024,0.02208
4009.86149,0.02215
4007.93275,0.02224
4006.00400,0.02204
4004.07526,0.02187
4002.14651,0.02202
4000.21777,0.02228
3998.28902,0.02248
3996.36028,0.02264
3994.43153,0.02262
3992.50279,0.02240
3990.57404,0.02234
3988.64530,0.02240
3986.71655,0.02237
3984.78780,0.02239
3982.85906,0.02260
3980.93031,0.02273
3979.00157,0.02254
3977.07282,0.02225
3975.14408,0.02214
3973.21533,0.02215
3971.28659,0.02209
3969.35784,0.02197
3967.42910,0.02199
3965.50035,0.02223
3963.57161,0.02251
3961.64286,0.02257
3959.71412,0.02246
3957.78537,0.02241
3955.85663,0.02247
3953.92788,0.02255
3951.99913,0.02248
3950.07039,0.02220
3948.14164,0.02203
3946.21290,0.02230
3944.28415,0.02265
3942.35541,0.02264
3940.42666,0.02228
3938.49792,0.02176
3936.56917,0.02141
3934.64043,0.02152
3932.71168,0.02199
3930.78294,0.02252
3928.85419,0.02292
3926.92545,0.02308
3924.99670,0.02285
3923.06795,0.02239
3921.13921,0.02223
3919.21046,0.02252
3917.28172,0.02284
3915.35297,0.02297
3913.42423,0.02287
3911.49548,0.02259
3909.56674,0.02231
3907.63799,0.02222
3905.70925,0.02242
3903.78050,0.02262
3901.85176,0.02257
3899.92301,0.02253
3897.99427,0.02242
3896.06552,0.02227
3894.13678,0.02229
3892.20803,0.02230
3890.27928,0.02225
3888.35054,0.02236
3886.42179,0.02254
3884.49305,0.02265
3882.56430,0.02275
3880.63556,0.02281
3878.70681,0.02283
3876.77807,0.02280
3874.84932,0.02265
3872.92058,0.02256
3870.99183,0.02257
3869.06309,0.02264
3867.13434,0.02269
3865.20560,0.02268
3863.27685,0.02265
3861.34811,0.02249
3859.41936,0.02233
3857.49061,0.02253
3855.56187,0.02284
3853.63312,0.02282
3851.70438,0.02262
3849.77563,0.02245
3847.84689,0.02229
3845.91814,0.02213
3843.98940,0.02195
3842.06065,0.02177
3840.13191,0.02165
3838.20316,0.02170
3836.27442,0.02196
3834.34567,0.02219
3832.41693,0.02231
3830.48818,0.02226
3828.55943,0.02208
3826.63069,0.02212
3824.70194,0.02254
3822.77320,0.02286
3820.84445,0.02275
3818.91571,0.02242
3816.98696,0.02203
3815.05822,0.02184
3813.12947,0.02191
3811.20073,0.02199
3809.27198,0.02223
3807.34324,0.02253
3805.41449,0.02258
3803.48575,0.02234
3801.55700,0.02193
3799.62826,0.02195
3797.69951,0.02233
3795.77076,0.02241
3793.84202,0.02236
3791.91327,0.02258
3789.98453,0.02278
3788.05578,0.02274
3786.12704,0.02273
3784.19829,0.02287
3782.26955,0.02286
3780.34080,0.02279
3778.41206,0.02296
3776.48331,0.02314
3774.55457,0.02295
3772.62582,0.02259
3770.69708,0.02243
3768.76833,0.02242
3766.83959,0.02245
3764.91084,0.02259
3762.98209,0.02268
3761.05335,0.02254
3759.12460,0.02231
3757.19586,0.02219
3755.26711,0.02229
3753.33837,0.02254
3751.40962,0.02270
3749.48088,0.02266
3747.55213,0.02269
3745.62339,0.02270
3743.69464,0.02243
3741.76590,0.02229
3739.83715,0.02249
3737.90841,0.02260
3735.97966,0.02233
3734.05091,0.02201
3732.12217,0.02173
3730.19342,0.02150
3728.26468,0.02176
3726.33593,0.02237
3724.40719,0.02262
3722.47844,0.02252
3720.54970,0.02240
3718.62095,0.02222
3716.69221,0.02208
3714.76346,0.02229
3712.83472,0.02268
3710.90597,0.02273
3708.97723,0.02247
3707.04848,0.02238
3705.11974,0.02261
3703.19099,0.02283
3701.26224,0.02257
3699.33350,0.02208
3697.40475,0.02189
3695.47601,0.02182
3693.54726,0.02169
3691.61852,0.02175
3689.68977,0.02189
3687.76103,0.02174
3685.83228,0.02157
3683.90354,0.02167
3681.97479,0.02185
3680.04605,0.02189
3678.11730,0.02194
3676.18856,0.02215
3674.25981,0.02202
3672.33107,0.02153
3670.40232,0.02121
3668.47357,0.02120
3666.54483,0.02142
3664.61608,0.02169
3662.68734,0.02176
3660.75859,0.02180
3658.82985,0.02185
3656.90110,0.02173
3654.97236,0.02173
3653.04361,0.02217
3651.11487,0.02252
3649.18612,0.02222
3647.25738,0.02170
3645.32863,0.02154
3643.39989,0.02171
3641.47114,0.02212
3639.54239,0.02238
3637.61365,0.02215
3635.68490,0.02176
3633.75616,0.02173
3631.82741,0.02184
3629.89867,0.02171
3627.96992,0.02150
3626.04118,0.02136
3624.11243,0.02129
3622.18369,0.02158
3620.25494,0.02203
3618.32620,0.02202
3616.39745,0.02174
3614.46871,0.02174
3612.53996,0.02183
3610.61122,0.02154
3608.68247,0.02110
3606.75372,0.02105
3604.82498,0.02126
3602.89623,0.02143
3600.96749,0.02152
3599.03874,0.02170
3597.11000,0.02193
3595.18125,0.02199
3593.25251,0.02182
3591.32376,0.02162
3589.39502,0.02167
3587.46627,0.02192
3585.53753,0.02200
3583.60878,0.02188
3581.68004,0.02178
3579.75129,0.02194
3577.82254,0.02220
3575.89380,0.02219
3573.96505,0.02196
3572.03631,0.02176
3570.10756,0.02163
3568.17882,0.02140
3566.25007,0.02117
3564.32133,0.02123
3562.39258,0.02129
3560.46384,0.02106
3558.53509,0.02094
3556.60635,0.02117
3554.67760,0.02133
3552.74886,0.02118
3550.82011,0.02098
3548.89137,0.02098
3546.96262,0.02114
3545.03387,0.02099
3543.10513,0.02040
3541.17638,0.02011
3539.24764,0.02047
3537.31889,0.02112
3535.39015,0.02160
3533.46140,0.02161
3531.53266,0.02117
3529.60391,0.02065
3527.67517,0.02051
3525.74642,0.02072
3523.81768,0.02082
3521.88893,0.02085
3519.96019,0.02100
3518.03144,0.02104
3516.10270,0.02079
3514.17395,0.02067
3512.24520,0.02088
3510.31646,0.02118
3508.38771,0.02149
3506.45897,0.02178
3504.53022,0.02176
3502.60148,0.02138
3500.67273,0.02084
3498.74399,0.02037
3496.81524,0.02002
3494.88650,0.01994
3492.95775,0.02031
3491.02901,0.02090
3489.10026,0.02111
3487.17152,0.02087
3485.24277,0.02062
3483.31402,0.02069
3481.38528,0.02091
3479.45653,0.02099
3477.52779,0.02090
3475.59904,0.02066
3473.67030,0.02032
3471.74155,0.02021
3469.81281,0.02045
3467.88406,0.02070
3465.95532,0.02089
3464.02657,0.02129
3462.09783,0.02153
3460.16908,0.02104
3458.24034,0.02025
3456.31159,0.01998
3454.38285,0.02048
3452.45410,0.02122
3450.52535,0.02147
3448.59661,0.02114
3446.66786,0.02052
3444.73912,0.02019
3442.81037,0.02066
3440.88163,0.02129
3438.95288,0.02123
3437.02414,0.02081
3435.09539,0.02066
3433.16665,0.02084
3431.23790,0.02096
3429.30916,0.02077
3427.38041,0.02043
3425.45167,0.02020
3423.52292,0.02012
3421.59418,0.02024
3419.66543,0.02033
3417.73668,0.02016
3415.80794,0.02011
3413.87919,0.02038
3411.95045,0.02056
3410.02170,0.02047
3408.09296,0.02062
3406.16421,0.02102
3404.23547,0.02109
3402.30672,0.02090
3400.37798,0.02075
3398.44923,0.02043
3396.52049,0.01996
3394.59174,0.01975
3392.66300,0.02004
3390.73425,0.02043
3388.80550,0.02048
3386.87676,0.02042
3384.94801,0.02041
3383.01927,0.02026
3381.09052,0.02005
3379.16178,0.02012
3377.23303,0.02027
3375.30429,0.02016
3373.37554,0.01988
3371.44680,0.01972
3369.51805,0.01970
3367.58931,0.01963
3365.66056,0.01972
3363.73182,0.02037
3361.80307,0.02101
3359.87433,0.02099
3357.94558,0.02073
3356.01683,0.02075
3354.08809,0.02079
3352.15934,0.02072
3350.23060,0.02066
3348.30185,0.02046
3346.37311,0.01995
3344.44436,0.01952
3342.51562,0.01943
3340.58687,0.01948
3338.65813,0.01967
3336.72938,0.02009
3334.80064,0.02063
3332.87189,0.02091
3330.94315,0.02073
3329.01440,0.02044
3327.08566,0.02049
3325.15691,0.02068
3323.22816,0.02065
3321.29942,0.02043
3319.37067,0.02026
3317.44193,0.02020
3315.51318,0.02024
3313.58444,0.02040
3311.65569,0.02054
3309.72695,0.02058
3307.79820,0.02060
3305.86946,0.02056
3303.94071,0.02040
3302.01197,0.02019
3300.08322,0.02002
3298.15448,0.01986
3296.22573,0.01977
3294.29698,0.02014
3292.36824,0.02061
3290.43949,0.02052
3288.51075,0.02034
3286.58200,0.02071
3284.65326,0.02113
3282.72451,0.02095
3280.79577,0.02038
3278.86702,0.01980
3276.93828,0.01956
3275.00953,0.01973
3273.08079,0.01991
3271.15204,0.01989
3269.22330,0.01997
3267.29455,0.02024
3265.36581,0.02046
3263.43706,0.02054
3261.50831,0.02079
3259.57957,0.02118
3257.65082,0.02128
3255.72208,0.02103
3253.79333,0.02066
3251.86459,0.02017
3249.93584,0.01987
3248.00710,0.01996
3246.07835,0.02021
3244.14961,0.02042
3242.22086,0.02038
3240.29212,0.02035
3238.36337,0.02060
3236.43463,0.02062
3234.50588,0.02013
3232.57713,0.01980
3230.64839,0.02004
3228.71964,0.02052
3226.79090,0.02079
3224.86215,0.02078
3222.93341,0.02056
3221.00466,0.02031
3219.07592,0.02014
3217.14717,0.02000
3215.21843,0.02002
3213.28968,0.02050
3211.36094,0.02118
3209.43219,0.02117
3207.50345,0.02055
3205.57470,0.02036
3203.64596,0.02065
3201.71721,0.02072
3199.78846,0.02055
3197.85972,0.02047
3195.93097,0.02053
3194.00223,0.02059
3192.07348,0.02057
3190.14474,0.02059
3188.21599,0.02075
3186.28725,0.02088
3184.35850,0.02082
3182.42976,0.02055
3180.50101,0.02028
3178.57227,0.02039
3176.64352,0.02085
3174.71478,0.02122
3172.78603,0.02128
3170.85729,0.02106
3168.92854,0.02087
3166.99979,0.02082
3165.07105,0.02072
3163.14230,0.02056
3161.21356,0.02056
3159.28481,0.02084
3157.35607,0.02103
3155.42732,0.02091
3153.49858,0.02088
3151.56983,0.02107
3149.64109,0.02102
3147.71234,0.02065
3145.78360,0.02054
3143.85485,0.02087
3141.92611,0.02113
3139.99736,0.02106
3138.06861,0.02078
3136.13987,0.02038
3134.21112,0.02011
3132.28238,0.02025
3130.35363,0.02066
3128.42489,0.02095
3126.49614,0.02095
3124.56740,0.02072
3122.63865,0.02047
3120.70991,0.02033
3118.78116,0.02031
3116.85242,0.02040
3114.92367,0.02056
3112.99493,0.02061
3111.06618,0.02043
3109.13744,0.02030
3107.20869,0.02042
3105.27994,0.02066
3103.35120,0.02085
3101.42245,0.02081
3099.49371,0.02050
3097.56496,0.02019
3095.63622,0.02017
3093.70747,0.02046
3091.77873,0.02082
3089.84998,0.02090
3087.92124,0.02067
3085.99249,0.02050
3084.06375,0.02041
3082.13500,0.02033
3080.20626,0.02049
3078.27751,0.02077
3076.34877,0.02083
3074.42002,0.02071
3072.49127,0.02062
3070.56253,0.02065
3068.63378,0.02062
3066.70504,0.02033
3064.77629,0.01995
3062.84755,0.01976
3060.91880,0.01967
3058.99006,0.01970
3057.06131,0.02001
3055.13257,0.02041
3053.20382,0.02057
3051.27508,0.02051
3049.34633,0.02050
3047.41759,0.02053
3045.48884,0.02045
3043.56009,0.02040
3041.63135,0.02046
3039.70260,0.02042
3037.77386,0.02022
3035.84511,0.02014
3033.91637,0.02031
3031.98762,0.02044
3030.05888,0.02036
3028.13013,0.02041
3026.20139,0.02061
3024.27264,0.02066
3022.34390,0.02060
3020.41515,0.02059
3018.48641,0.02056
3016.55766,0.02050
3014.62892,0.02056
3012.70017,0.02069
3010.77142,0.02063
3008.84268,0.02036
3006.91393,0.02016
3004.98519,0.02017
3003.05644,0.02035
3001.12770,0.02047
2999.19895,0.02034
2997.27021,0.02015
2995.34146,0.02010
2993.41272,0.02013
2991.48397,0.02027
2989.55523,0.02035
2987.62648,0.02016
2985.69774,0.01991
2983.76899,0.01976
2981.84025,0.01957
2979.91150,0.01944
2977.98275,0.01953
2976.05401,0.01973
2974.12526,0.01988
2972.19652,0.01986
2970.26777,0.01961
2968.33903,0.01929
2966.41028,0.01903
2964.48154,0.01904
2962.55279,0.01942
2960.62405,0.01983
2958.69530,0.01994
2956.76656,0.01974
2954.83781,0.01940
2952.90907,0.01925
2950.98032,0.01933
2949.05157,0.01945
2947.12283,0.01964
2945.19408,0.01969
2943.26534,0.01944
2941.33659,0.01928
2939.40785,0.01945
2937.47910,0.01977
2935.55036,0.02002
2933.62161,0.02002
2931.69287,0.01984
2929.76412,0.01967
2927.83538,0.01961
2925.90663,0.01972
2923.97789,0.01993
2922.04914,0.02007
2920.12040,0.02012
2918.19165,0.02018
2916.26290,0.02014
2914.33416,0.01996
2912.40541,0.01988
2910.47667,0.02007
2908.54792,0.02026
2906.61918,0.02020
2904.69043,0.02007
2902.76169,0.02009
2900.83294,0.02012
2898.90420,0.02018
2896.97545,0.02042
2895.04671,0.02066
2893.11796,0.02080
2891.18922,0.02094
2889.26047,0.02093
2887.33172,0.02065
2885.40298,0.02038
2883.47423,0.02029
2881.54549,0.02035
2879.61674,0.02054
2877.68800,0.02076
2875.75925,0.02083
2873.83051,0.02069
2871.90176,0.02049
2869.97302,0.02040
2868.04427,0.02044
2866.11553,0.02052
2864.18678,0.02057
2862.25804,0.02049
2860.32929,0.02023
2858.40055,0.02013
2856.47180,0.02035
2854.54305,0.02034
2852.61431,0.02010
2850.68556,0.02020
2848.75682,0.02056
2846.82807,0.02087
2844.89933,0.02106
2842.97058,0.02101
2841.04184,0.02070
2839.11309,0.02048
2837.18435,0.02056
2835.25560,0.02074
2833.32686,0.02089
2831.39811,0.02099
2829.46937,0.02099
2827.54062,0.02091
2825.61188,0.02094
2823.68313,0.02107
2821.75438,0.02108
2819.82564,0.02097
2817.89689,0.02097
2815.96815,0.02124
2814.03940,0.02155
2812.11066,0.02155
2810.18191,0.02138
2808.25317,0.02126
2806.32442,0.02107
2804.39568,0.02085
2802.46693,0.02080
2800.53819,0.02092
2798.60944,0.02106
2796.68070,0.02104
2794.75195,0.02096
2792.82320,0.02099
2790.89446,0.02109
2788.96571,0.02118
2787.03697,0.02126
2785.10822,0.02129
2783.17948,0.02129
2781.25073,0.02126
2779.32199,0.02113
2777.39324,0.02101
2775.46450,0.02097
2773.53575,0.02100
2771.60701,0.02101
2769.67826,0.02096
2767.74952,0.02095
2765.82077,0.02110
2763.89203,0.02128
2761.96328,0.02135
2760.03453,0.02133
2758.10579,0.02127
2756.17704,0.02116
2754.24830,0.02112
2752.31955,0.02134
2750.39081,0.02164
2748.46206,0.02157
2746.53332,0.02125
2744.60457,0.02107
2742.67583,0.02098
2740.74708,0.02097
2738.81834,0.02110
2736.88959,0.02116
2734.96085,0.02111
2733.03210,0.02103
2731.10336,0.02096
2729.17461,0.02092
2727.24586,0.02087
2725.31712,0.02071
2723.38837,0.02071
2721.45963,0.02105
2719.53088,0.02137
2717.60214,0.02139
2715.67339,0.02124
2713.74465,0.02098
2711.81590,0.02080
2709.88716,0.02095
2707.95841,0.02118
2706.02967,0.02114
2704.10092,0.02097
2702.17218,0.02098
2700.24343,0.02106
2698.31468,0.02095
2696.38594,0.02073
2694.45719,0.02072
2692.52845,0.02089
2690.59970,0.02100
2688.67096,0.02099
2686.74221,0.02102
2684.81347,0.02110
2682.88472,0.02108
2680.95598,0.02099
2679.02723,0.02106
2677.09849,0.02125
2675.16974,0.02128
2673.24100,0.02117
2671.31225,0.02106
2669.38351,0.02095
2667.45476,0.02086
2665.52601,0.02078
2663.59727,0.02081
2661.66852,0.02099
2659.73978,0.02105
2657.81103,0.02085
2655.88229,0.02078
2653.95354,0.02094
2652.02480,0.02117
2650.09605,0.02127
2648.16731,0.02115
2646.23856,0.02097
2644.30982,0.02109
2642.38107,0.02141
2640.45233,0.02147
2638.52358,0.02122
2636.59484,0.02105
2634.66609,0.02106
2632.73734,0.02109
2630.80860,0.02105
2628.87985,0.02100
2626.95111,0.02106
2625.02236,0.02125
2623.09362,0.02141
2621.16487,0.02142
2619.23613,0.02134
2617.30738,0.02131
2615.37864,0.02135
2613.44989,0.02133
2611.52115,0.02116
2609.59240,0.02092
2607.66366,0.02075
2605.73491,0.02078
2603.80616,0.02102
2601.87742,0.02127
2599.94867,0.02135
2598.01993,0.02126
2596.09118,0.02121
2594.16244,0.02133
2592.23369,0.02141
2590.30495,0.02129
2588.37620,0.02115
2586.44746,0.02103
2584.51871,0.02093
2582.58997,0.02111
2580.66122,0.02142
2578.73248,0.02148
2576.80373,0.02135
2574.87499,0.02131
2572.94624,0.02136
2571.01749,0.02133
2569.08875,0.02110
2567.16000,0.02083
2565.23126,0.02076
2563.30251,0.02086
2561.37377,0.02102
2559.44502,0.02112
2557.51628,0.02103
2555.58753,0.02086
2553.65879,0.02077
2551.73004,0.02072
2549.80130,0.02071
2547.87255,0.02083
2545.94381,0.02093
2544.01506,0.02096
2542.08631,0.02111
2540.15757,0.02129
2538.22882,0.02125
2536.30008,0.02105
2534.37133,0.02099
2532.44259,0.02114
2530.51384,0.02122
2528.58510,0.02096
2526.65635,0.02066
2524.72761,0.02080
2522.79886,0.02113
2520.87012,0.02107
2518.94137,0.02076
2517.01263,0.02064
2515.08388,0.02076
2513.15514,0.02100
2511.22639,0.02111
2509.29764,0.02101
2507.36890,0.02099
2505.44015,0.02114
2503.51141,0.02118
2501.58266,0.02104
2499.65392,0.02097
2497.72517,0.02108
2495.79643,0.02107
2493.86768,0.02095
2491.93894,0.02100
2490.01019,0.02111
2488.08145,0.02104
2486.15270,0.02099
2484.22396,0.02118
2482.29521,0.02136
2480.36647,0.02132
2478.43772,0.02121
2476.50897,0.02114
2474.58023,0.02106
2472.65148,0.02097
2470.72274,0.02093
2468.79399,0.02095
2466.86525,0.02092
2464.93650,0.02077
2463.00776,0.02066
2461.07901,0.02085
2459.15027,0.02128
2457.22152,0.02148
2455.29278,0.02131
2453.36403,0.02107
2451.43529,0.02090
2449.50654,0.02083
2447.57779,0.02093
2445.64905,0.02103
2443.72030,0.02100
2441.79156,0.02093
2439.86281,0.02093
2437.93407,0.02097
2436.00532,0.02105
2434.07658,0.02123
2432.14783,0.02136
2430.21909,0.02140
2428.29034,0.02137
2426.36160,0.02123
2424.43285,0.02107
2422.50411,0.02106
2420.57536,0.02110
2418.64662,0.02099
2416.71787,0.02088
2414.78912,0.02097
2412.86038,0.02109
2410.93163,0.02104
2409.00289,0.02093
2407.07414,0.02091
2405.14540,0.02091
2403.21665,0.02100
2401.28791,0.02122
2399.35916,0.02138
2397.43042,0.02137
2395.50167,0.02125
2393.57293,0.02111
2391.64418,0.02101
2389.71544,0.02098
2387.78669,0.02106
2385.85795,0.02107
2383.92920,0.02082
2382.00045,0.02061
2380.07171,0.02067
2378.14296,0.02082
2376.21422,0.02093
2374.28547,0.02102
2372.35673,0.02114
2370.42798,0.02111
2368.49924,0.02095
2366.57049,0.02101
2364.64175,0.02119
2362.71300,0.02112
2360.78426,0.02086
2358.85551,0.02073
2356.92677,0.02089
2354.99802,0.02119
2353.06927,0.02141
2351.14053,0.02135
2349.21178,0.02108
2347.28304,0.02085
2345.35429,0.02080
2343.42555,0.02090
2341.49680,0.02107
2339.56806,0.02116
2337.63931,0.02105
2335.71057,0.02078
2333.78182,0.02050
2331.85308,0.02044
2329.92433,0.02068
2327.99559,0.02090
2326.06684,0.02093
2324.13810,0.02090
2322.20935,0.02083
2320.28060,0.02071
2318.35186,0.02063
2316.42311,0.02055
2314.49437,0.02055
2312.56562,0.02074
2310.63688,0.02104
2308.70813,0.02122
2306.77939,0.02118
2304.85064,0.02105
2302.92190,0.02088
2300.99315,0.02073
2299.06441,0.02083
2297.13566,0.02110
2295.20692,0.02122
2293.27817,0.02109
2291.34943,0.02085
2289.42068,0.02073
2287.49193,0.02078
2285.56319,0.02090
2283.63444,0.02101
2281.70570,0.02106
2279.77695,0.02109
2277.84821,0.02112
2275.91946,0.02112
2273.99072,0.02100
2272.06197,0.02084
2270.13323,0.02079
2268.20448,0.02084
2266.27574,0.02090
2264.34699,0.02101
2262.41825,0.02109
2260.48950,0.02099
2258.56075,0.02082
2256.63201,0.02079
2254.70326,0.02089
2252.77452,0.02098
2250.84577,0.02099
2248.91703,0.02085
2246.98828,0.02066
2245.05954,0.02063
2243.13079,0.02079
2241.20205,0.02101
2239.27330,0.02115
2237.34456,0.02122
2235.41581,0.02131
2233.48707,0.02133
2231.55832,0.02117
2229.62958,0.02095
2227.70083,0.02091
2225.77208,0.02098
2223.84334,0.02091
2221.91459,0.02079
2219.98585,0.02075
2218.05710,0.02069
2216.12836,0.02057
2214.19961,0.02038
2212.27087,0.02035
2210.34212,0.02059
2208.41338,0.02082
2206.48463,0.02090
2204.55589,0.02094
2202.62714,0.02095
2200.69840,0.02093
2198.76965,0.02092
2196.84090,0.02092
2194.91216,0.02090
2192.98341,0.02085
2191.05467,0.02081
2189.12592,0.02095
2187.19718,0.02112
2185.26843,0.02105
2183.33969,0.02089
2181.41094,0.02086
2179.48220,0.02085
2177.55345,0.02082
2175.62471,0.02078
2173.69596,0.02067
2171.76722,0.02056
2169.83847,0.02061
2167.90973,0.02078
2165.98098,0.02095
2164.05223,0.02095
2162.12349,0.02075
2160.19474,0.02057
2158.26600,0.02049
2156.33725,0.02047
2154.40851,0.02054
2152.47976,0.02070
2150.55102,0.02085
2148.62227,0.02093
2146.69353,0.02093
2144.76478,0.02087
2142.83604,0.02083
2140.90729,0.02082
2138.97855,0.02077
2137.04980,0.02074
2135.12106,0.02076
2133.19231,0.02078
2131.26356,0.02076
2129.33482,0.02072
2127.40607,0.02076
2125.47733,0.02084
2123.54858,0.02088
2121.61984,0.02085
2119.69109,0.02083
2117.76235,0.02091
2115.83360,0.02093
2113.90486,0.02085
2111.97611,0.02077
2110.04737,0.02082
2108.11862,0.02092
2106.18988,0.02095
2104.26113,0.02088
2102.33238,0.02069
2100.40364,0.02047
2098.47489,0.02052
2096.54615,0.02089
2094.61740,0.02123
2092.68866,0.02133
2090.75991,0.02113
2088.83117,0.02071
2086.90242,0.02049
2084.97368,0.02057
2083.04493,0.02063
2081.11619,0.02056
2079.18744,0.02042
2077.25870,0.02035
2075.32995,0.02042
2073.40121,0.02062
2071.47246,0.02079
2069.54371,0.02081
2067.61497,0.02077
2065.68622,0.02074
2063.75748,0.02063
2061.82873,0.02046
2059.89999,0.02052
2057.97124,0.02078
2056.04250,0.02089
2054.11375,0.02084
2052.18501,0.02078
2050.25626,0.02075
2048.32752,0.02085
2046.39877,0.02099
2044.47003,0.02095
2042.54128,0.02081
2040.61254,0.02085
2038.68379,0.02105
2036.75504,0.02113
2034.82630,0.02095
2032.89755,0.02066
2030.96881,0.02049
2029.04006,0.02051
2027.11132,0.02057
2025.18257,0.02060
2023.25383,0.02063
2021.32508,0.02069
2019.39634,0.02070
2017.46759,0.02052
2015.53885,0.02029
2013.61010,0.02031
2011.68136,0.02047
2009.75261,0.02050
2007.82386,0.02044
2005.89512,0.02040
2003.96637,0.02032
2002.03763,0.02034
2000.10888,0.02064
1998.18014,0.02086
1996.25139,0.02067
1994.32265,0.02034
1992.39390,0.02027
1990.46516,0.02043
1988.53641,0.02063
1986.60767,0.02075
1984.67892,0.02073
1982.75018,0.02068
1980.82143,0.02064
1978.89269,0.02060
1976.96394,0.02052
1975.03519,0.02044
1973.10645,0.02052
1971.17770,0.02077
1969.24896,0.02088
1967.32021,0.02065
1965.39147,0.02033
1963.46272,0.02028
1961.53398,0.02038
1959.60523,0.02041
1957.67649,0.02036
1955.74774,0.02031
1953.81900,0.02031
1951.89025,0.02042
1949.96151,0.02065
1948.03276,0.02083
1946.10402,0.02087
1944.17527,0.02094
1942.24652,0.02099
1940.31778,0.02081
1938.38903,0.02060
1936.46029,0.02055
1934.53154,0.02044
1932.60280,0.02032
1930.67405,0.02036
1928.74531,0.02047
1926.81656,0.02045
1924.88782,0.02032
1922.95907,0.02031
1921.03033,0.02048
1919.10158,0.02060
1917.17284,0.02049
1915.24409,0.02030
1913.31534,0.02018
1911.38660,0.02017
1909.45785,0.02026
1907.52911,0.02033
1905.60036,0.02029
1903.67162,0.02022
1901.74287,0.02023
1899.81413,0.02026
1897.88538,0.02027
1895.95664,0.02040
1894.02789,0.02052
1892.09915,0.02053
1890.17040,0.02052
1888.24166,0.02048
1886.31291,0.02035
1884.38417,0.02023
1882.45542,0.02014
1880.52667,0.02015
1878.59793,0.02024
1876.66918,0.02024
1874.74044,0.02017
1872.81169,0.02028
1870.88295,0.02054
1868.95420,0.02071
1867.02546,0.02070
1865.09671,0.02064
1863.16797,0.02055
1861.23922,0.02043
1859.31048,0.02036
1857.38173,0.02030
1855.45299,0.02022
1853.52424,0.02017
1851.59549,0.02008
1849.66675,0.02006
1847.73800,0.02019
1845.80926,0.02030
1843.88051,0.02026
1841.95177,0.02025
1840.02302,0.02023
1838.09428,0.02007
1836.16553,0.01999
1834.23679,0.02014
1832.30804,0.02036
1830.37930,0.02049
1828.45055,0.02050
1826.52181,0.02040
1824.59306,0.02023
1822.66432,0.02008
1820.73557,0.01995
1818.80682,0.01977
1816.87808,0.01963
1814.94933,0.01959
1813.02059,0.01954
1811.09184,0.01943
1809.16310,0.01944
1807.23435,0.01957
1805.30561,0.01954
1803.37686,0.01942
1801.44812,0.01944
1799.51937,0.01954
1797.59063,0.01947
1795.66188,0.01930
1793.73314,0.01922
1791.80439,0.01916
1789.87565,0.01909
1787.94690,0.01913
1786.01815,0.01922
1784.08941,0.01911
1782.16066,0.01886
1780.23192,0.01874
1778.30317,0.01883
1776.37443,0.01906
1774.44568,0.01923
1772.51694,0.01910
1770.58819,0.01868
1768.65945,0.01829
1766.73070,0.01812
1764.80196,0.01810
1762.87321,0.01803
1760.94447,0.01785
1759.01572,0.01767
1757.08697,0.01746
1755.15823,0.01719
1753.22948,0.01704
1751.30074,0.01705
1749.37199,0.01710
1747.44325,0.01711
1745.51450,0.01720
1743.58576,0.01759
1741.65701,0.01825
1739.72827,0.01882
1737.79952,0.01920
1735.87078,0.01953
1733.94203,0.01975
1732.01329,0.01982
1730.08454,0.01992
1728.15580,0.02015
1726.22705,0.02042
1724.29830,0.02060
1722.36956,0.02068
1720.44081,0.02076
1718.51207,0.02082
1716.58332,0.02080
1714.65458,0.02079
1712.72583,0.02071
1710.79709,0.02054
1708.86834,0.02039
1706.93960,0.02031
1705.01085,0.02030
1703.08211,0.02030
1701.15336,0.02018
1699.22462,0.01994
1697.29587,0.01968
1695.36713,0.01935
1693.43838,0.01900
1691.50963,0.01877
1689.58089,0.01878
1687.65214,0.01903
1685.72340,0.01919
1683.79465,0.01905
1681.86591,0.01897
1679.93716,0.01906
1678.00842,0.01904
1676.07967,0.01881
1674.15093,0.01861
1672.22218,0.01865
1670.29344,0.01870
1668.36469,0.01862
1666.43595,0.01863
1664.50720,0.01871
1662.57845,0.01859
1660.64971,0.01836
1658.72096,0.01834
1656.79222,0.01856
1654.86347,0.01878
1652.93473,0.01865
1651.00598,0.01832
1649.07724,0.01825
1647.14849,0.01837
1645.21975,0.01843
1643.29100,0.01841
1641.36226,0.01841
1639.43351,0.01852
1637.50477,0.01867
1635.57602,0.01868
1633.64728,0.01855
1631.71853,0.01846
1629.78978,0.01849
1627.86104,0.01860
1625.93229,0.01866
1624.00355,0.01867
1622.07480,0.01871
1620.14606,0.01880
1618.21731,0.01884
1616.28857,0.01878
1614.35982,0.01883
1612.43108,0.01896
1610.50233,0.01892
1608.57359,0.01872
1606.64484,0.01857
1604.71610,0.01861
1602.78735,0.01874
1600.85861,0.01884
1598.92986,0.01902
1597.00111,0.01929
1595.07237,0.01935
1593.14362,0.01902
1591.21488,0.01859
1589.28613,0.01842
1587.35739,0.01853
1585.42864,0.01864
1583.49990,0.01853
1581.57115,0.01835
1579.64241,0.01835
1577.71366,0.01846
1575.78492,0.01842
1573.85617,0.01825
1571.92743,0.01819
1569.99868,0.01820
1568.06993,0.01818
1566.14119,0.01821
1564.21244,0.01828
1562.28370,0.01823
1560.35495,0.01821
1558.42621,0.01831
1556.49746,0.01819
1554.56872,0.01794
1552.63997,0.01791
1550.71123,0.01811
1548.78248,0.01833
1546.85374,0.01843
1544.92499,0.01844
1542.99625,0.01845
1541.06750,0.01847
1539.13876,0.01835
1537.21001,0.01820
1535.28126,0.01819
1533.35252,0.01825
1531.42377,0.01834
1529.49503,0.01850
1527.56628,0.01874
1525.63754,0.01887
1523.70879,0.01863
1521.78005,0.01824
1519.85130,0.01806
1517.92256,0.01808
1515.99381,0.01818
1514.06507,0.01826
1512.13632,0.01833
1510.20758,0.01834
1508.27883,0.01824
1506.35008,0.01822
1504.42134,0.01836
1502.49259,0.01852
1500.56385,0.01868
1498.63510,0.01872
1496.70636,0.01855
1494.77761,0.01845
1492.84887,0.01862
1490.92012,0.01878
1488.99138,0.01863
1487.06263,0.01840
1485.13389,0.01842
1483.20514,0.01864
1481.27640,0.01880
1479.34765,0.01880
1477.41891,0.01864
1475.49016,0.01835
1473.56141,0.01812
1471.63267,0.01810
1469.70392,0.01816
1467.77518,0.01830
1465.84643,0.01852
1463.91769,0.01851
1461.98894,0.01839
1460.06020,0.01847
1458.13145,0.01862
1456.20271,0.01859
1454.27396,0.01854
1452.34522,0.01851
1450.41647,0.01843
1448.48773,0.01841
1446.55898,0.01853
1444.63024,0.01856
1442.70149,0.01851
1440.77274,0.01859
1438.84400,0.01877
1436.91525,0.01877
1434.98651,0.01863
1433.05776,0.01866
1431.12902,0.01875
1429.20027,0.01868
1427.27153,0.01857
1425.34278,0.01851
1423.41404,0.01838
1421.48529,0.01822
1419.55655,0.01820
1417.62780,0.01835
1415.69906,0.01850
1413.77031,0.01848
1411.84156,0.01825
1409.91282,0.01793
1407.98407,0.01775
1406.05533,0.01785
1404.12658,0.01812
1402.19784,0.01829
1400.26909,0.01815
1398.34035,0.01796
1396.41160,0.01800
1394.48286,0.01806
1392.55411,0.01800
1390.62537,0.01804
1388.69662,0.01817
1386.76788,0.01815
1384.83913,0.01798
1382.91039,0.01788
1380.98164,0.01793
1379.05289,0.01807
1377.12415,0.01815
1375.19540,0.01812
1373.26666,0.01807
1371.33791,0.01806
1369.40917,0.01811
1367.48042,0.01822
1365.55168,0.01824
1363.62293,0.01815
1361.69419,0.01808
1359.76544,0.01813
1357.83670,0.01823
1355.90795,0.01827
1353.97921,0.01813
1352.05046,0.01782
1350.12172,0.01758
1348.19297,0.01759
1346.26422,0.01764
1344.33548,0.01769
1342.40673,0.01783
1340.47799,0.01784
1338.54924,0.01764
1336.62050,0.01743
1334.69175,0.01728
1332.76301,0.01718
1330.83426,0.01725
1328.90552,0.01739
1326.97677,0.01740
1325.04803,0.01729
1323.11928,0.01719
1321.19054,0.01712
1319.26179,0.01706
1317.33304,0.01706
1315.40430,0.01705
1313.47555,0.01694
1311.54681,0.01693
1309.61806,0.01700
1307.68932,0.01696
1305.76057,0.01687
1303.83183,0.01691
1301.90308,0.01711
1299.97434,0.01737
1298.04559,0.01755
1296.11685,0.01769
1294.18810,0.01783
1292.25936,0.01795
1290.33061,0.01804
1288.40187,0.01817
1286.47312,0.01837
1284.54437,0.01853
1282.61563,0.01854
1280.68688,0.01850
1278.75814,0.01864
1276.82939,0.01883
1274.90065,0.01893
1272.97190,0.01900
1271.04316,0.01915
1269.11441,0.01930
1267.18567,0.01932
1265.25692,0.01933
1263.32818,0.01953
1261.39943,0.01974
1259.47069,0.01984
1257.54194,0.01996
1255.61320,0.02019
1253.68445,0.02031
1251.75570,0.02016
1249.82696,0.01990
1247.89821,0.01969
1245.96947,0.01959
1244.04072,0.01957
1242.11198,0.01953
1240.18323,0.01948
1238.25449,0.01963
1236.32574,0.01984
1234.39700,0.01978
1232.46825,0.01963
1230.53951,0.01956
1228.61076,0.01939
1226.68202,0.01922
1224.75327,0.01914
1222.82452,0.01904
1220.89578,0.01898
1218.96703,0.01904
1217.03829,0.01905
1215.10954,0.01884
1213.18080,0.01858
1211.25205,0.01852
1209.32331,0.01850
1207.39456,0.01839
1205.46582,0.01836
1203.53707,0.01833
1201.60833,0.01815
1199.67958,0.01798
1197.75084,0.01803
1195.82209,0.01828
1193.89335,0.01851
1191.96460,0.01852
1190.03585,0.01829
1188.10711,0.01793
1186.17836,0.01767
1184.24962,0.01753
1182.32087,0.01741
1180.39213,0.01745
1178.46338,0.01768
1176.53464,0.01801
1174.60589,0.01827
1172.67715,0.01834
1170.74840,0.01822
1168.81966,0.01786
1166.89091,0.01737
1164.96217,0.01722
1163.03342,0.01749
1161.10467,0.01760
1159.17593,0.01740
1157.24718,0.01736
1155.31844,0.01754
1153.38969,0.01747
1151.46095,0.01721
1149.53220,0.01722
1147.60346,0.01754
1145.67471,0.01779
1143.74597,0.01783
1141.81722,0.01783
1139.88848,0.01792
1137.95973,0.01798
1136.03099,0.01799
1134.10224,0.01803
1132.17350,0.01831
1130.24475,0.01881
1128.31600,0.01903
1126.38726,0.01896
1124.45851,0.01907
1122.52977,0.01942
1120.60102,0.01962
1118.67228,0.01954
1116.74353,0.01927
1114.81479,0.01890
1112.88604,0.01867
1110.95730,0.01871
1109.02855,0.01893
1107.09981,0.01911
1105.17106,0.01908
1103.24232,0.01878
1101.31357,0.01832
1099.38483,0.01809
1097.45608,0.01830
1095.52733,0.01850
1093.59859,0.01843
1091.66984,0.01832
1089.74110,0.01818
1087.81235,0.01799
1085.88361,0.01793
1083.95486,0.01804
1082.02612,0.01832
1080.09737,0.01881
1078.16863,0.01929
1076.23988,0.01936
1074.31114,0.01905
1072.38239,0.01896
1070.45365,0.01939
1068.52490,0.01991
1066.59615,0.02008
1064.66741,0.01997
1062.73866,0.01984
1060.80992,0.01982
1058.88117,0.01979
1056.95243,0.01969
1055.02368,0.01973
1053.09494,0.01999
1051.16619,0.02014
1049.23745,0.01996
1047.30870,0.01973
1045.37996,0.01977
1043.45121,0.01984
1041.52247,0.01964
1039.59372,0.01933
1037.66498,0.01908
1035.73623,0.01890
1033.80748,0.01881
1031.87874,0.01872
1029.94999,0.01857
1028.02125,0.01851
1026.09250,0.01870
1024.16376,0.01897
1022.23501,0.01914
1020.30627,0.01925
1018.37752,0.01929
1016.44878,0.01922
1014.52003,0.01934
1012.59129,0.01975
1010.66254,0.02027
1008.73380,0.02069
1006.80505,0.02096
1004.87631,0.02114
1002.94756,0.02125
1001.01881,0.02133
999.09007,0.02137
997.16132,0.02137
995.23258,0.02135
993.30383,0.02135
991.37509,0.02141
989.44634,0.02134
987.51760,0.02105
985.58885,0.02073
983.66011,0.02042
981.73136,0.02013
979.80262,0.02026
977.87387,0.02082
975.94513,0.02096
974.01638,0.02047
972.08763,0.02010
970.15889,0.02008
968.23014,0.02009
966.30140,0.02009
964.37265,0.02026
962.44391,0.02051
960.51516,0.02062
958.58642,0.02057
956.65767,0.02048
954.72893,0.02028
952.80018,0.01993
950.87144,0.01984
948.94269,0.01994
947.01395,0.01984
945.08520,0.01977
943.15646,0.01972
941.22771,0.01953
939.29896,0.01936
937.37022,0.01938
935.44147,0.01956
933.51273,0.01964
931.58398,0.01964
929.65524,0.01974
927.72649,0.01979
925.79775,0.01963
923.86900,0.01945
921.94026,0.01953
920.01151,0.01953
918.08277,0.01915
916.15402,0.01885
914.22528,0.01898
912.29653,0.01930
910.36779,0.01939
908.43904,0.01916
906.51029,0.01896
904.58155,0.01902
902.65280,0.01898
900.72406,0.01866
898.79531,0.01844
896.86657,0.01841
894.93782,0.01848
893.00908,0.01877
891.08033,0.01922
889.15159,0.01935
887.22284,0.01903
885.29410,0.01870
883.36535,0.01866
881.43661,0.01867
879.50786,0.01868
877.57911,0.01894
875.65037,0.01929
873.72162,0.01925
871.79288,0.01908
869.86413,0.01912
867.93539,0.01919
866.00664,0.01903
864.07790,0.01877
862.14915,0.01872
860.22041,0.01880
858.29166,0.01881
856.36292,0.01888
854.43417,0.01910
852.50543,0.01934
850.57668,0.01939
848.64794,0.01937
846.71919,0.01951
844.79044,0.01943
842.86170,0.01892
840.93295,0.01854
839.00421,0.01878
837.07546,0.01925
835.14672,0.01931
833.21797,0.01901
831.28923,0.01898
829.36048,0.01935
827.43174,0.01981
825.50299,0.02001
823.57425,0.01980
821.64550,0.01960
819.71676,0.01967
817.78801,0.01967
815.85926,0.01934
813.93052,0.01896
812.00177,0.01888
810.07303,0.01904
808.14428,0.01917
806.21554,0.01934
804.28679,0.01944
802.35805,0.01924
800.42930,0.01893
798.50056,0.01881
796.57181,0.01860
794.64307,0.01814
792.71432,0.01801
790.78558,0.01839
788.85683,0.01869
786.92809,0.01857
784.99934,0.01804
783.07059,0.01758
781.14185,0.01787
779.21310,0.01855
777.28436,0.01872
775.35561,0.01839
773.42687,0.01837
771.49812,0.01882
769.56938,0.01891
767.64063,0.01842
765.71189,0.01812
763.78314,0.01838
761.85440,0.01884
759.92565,0.01909
757.99691,0.01894
756.06816,0.01856
754.13942,0.01814
752.21067,0.01775
750.28192,0.01755
748.35318,0.01760
746.42443,0.01787
744.49569,0.01816
742.56694,0.01824
740.63820,0.01839
738.70945,0.01867
736.78071,0.01869
734.85196,0.01863
732.92322,0.01885
730.99447,0.01894
729.06573,0.01855
727.13698,0.01804
725.20824,0.01781
723.27949,0.01794
721.35074,0.01825
719.42200,0.01837
717.49325,0.01817
715.56451,0.01794
713.63576,0.01794
711.70702,0.01811
709.77827,0.01812
707.84953,0.01790
705.92078,0.01782
703.99204,0.01808
702.06329,0.01817
700.13455,0.01764
698.20580,0.01711
696.27706,0.01702
694.34831,0.01687
692.41957,0.01652
690.49082,0.01648
688.56207,0.01700
686.63333,0.01766
684.70458,0.01781
682.77584,0.01758
680.84709,0.01755
678.91835,0.01772
676.98960,0.01761
675.06086,0.01718
673.13211,0.01668
671.20337,0.01629
669.27462,0.01618
667.34588,0.01652
665.41713,0.01712
663.48839,0.01747
661.55964,0.01771
659.63090,0.01814
657.70215,0.01814
655.77340,0.01759
653.84466,0.01723
651.91591,0.01733
649.98717,0.01771
648.05842,0.01782
646.12968,0.01731
644.20093,0.01675
642.27219,0.01632
640.34344,0.01612
638.41470,0.01675
636.48595,0.01736
634.55721,0.01683
632.62846,0.01602
630.69972,0.01532
628.77097,0.01440
626.84222,0.01416
624.91348,0.01459
622.98473,0.01453
621.05599,0.01482
619.12724,0.01623
617.19850,0.01722
615.26975,0.01699
613.34101,0.01633
611.41226,0.01543
609.48352,0.01451
607.55477,0.01466
605.62603,0.01588
603.69728,0.01634
601.76854,0.01579
599.83979,0.01567
