7497.03301,0.57710
7495.10426,0.57591
7493.17552,0.57635
7491.24677,0.57925
7489.31803,0.58008
7487.38928,0.57761
7485.46054,0.57578
7483.53179,0.57550
7481.60305,0.57395
7479.67430,0.57154
7477.74556,0.57167
7475.81681,0.57331
7473.88807,0.57283
7471.95932,0.57045
7470.03057,0.56902
7468.10183,0.56999
7466.17308,0.57274
7464.24434,0.57406
7462.31559,0.57032
7460.38685,0.56491
7458.45810,0.56342
7456.52936,0.56486
7454.60061,0.56537
7452.67187,0.56416
7450.74312,0.56450
7448.81438,0.56686
7446.88563,0.56875
7444.95689,0.57138
7443.02814,0.57447
7441.09940,0.57365
7439.17065,0.56873
7437.24190,0.56502
7435.31316,0.56569
7433.38441,0.56822
7431.45567,0.56721
7429.52692,0.56242
7427.59818,0.56163
7425.66943,0.56621
7423.74069,0.56704
7421.81194,0.56365
7419.88320,0.56451
7417.95445,0.57042
7416.02571,0.57480
7414.09696,0.57412
7412.16822,0.57164
7410.23947,0.57235
7408.31073,0.57501
7406.38198,0.57363
7404.45323,0.56741
7402.52449,0.56246
7400.59574,0.56299
7398.66700,0.56690
7396.73825,0.56867
7394.80951,0.56656
7392.88076,0.56408
7390.95202,0.56126
7389.02327,0.55792
7387.09453,0.55819
7385.16578,0.56157
7383.23704,0.56491
7381.30829,0.56746
7379.37955,0.56895
7377.45080,0.56789
7375.52205,0.56453
7373.59331,0.56406
7371.66456,0.56500
7369.73582,0.56098
7367.80707,0.55628
7365.87833,0.55590
7363.94958,0.55724
7362.02084,0.55829
7360.09209,0.55830
7358.16335,0.55807
7356.23460,0.55906
7354.30586,0.56029
7352.37711,0.56230
7350.44837,0.56393
7348.51962,0.56108
7346.59088,0.55686
7344.66213,0.55617
7342.73338,0.55703
7340.80464,0.55613
7338.87589,0.55345
7336.94715,0.55226
7335.01840,0.55493
7333.08966,0.55749
7331.16091,0.55487
7329.23217,0.55133
7327.30342,0.55174
7325.37468,0.55119
7323.44593,0.54849
7321.51719,0.54965
7319.58844,0.55472
7317.65970,0.55861
7315.73095,0.55995
7313.80221,0.55986
7311.87346,0.55859
7309.94471,0.55771
7308.01597,0.55679
7306.08722,0.55545
7304.15848,0.55825
7302.22973,0.56453
7300.30099,0.56711
7298.37224,0.56395
7296.44350,0.55933
7294.51475,0.55728
7292.58601,0.55688
7290.65726,0.55659
7288.72852,0.55804
7286.79977,0.55971
7284.87103,0.55831
7282.94228,0.55458
7281.01353,0.55174
7279.08479,0.55186
7277.15604,0.55310
7275.22730,0.55303
7273.29855,0.55216
7271.36981,0.55281
7269.44106,0.55559
7267.51232,0.55544
7265.58357,0.55061
7263.65483,0.54888
7261.72608,0.55332
7259.79734,0.55824
7257.86859,0.55945
7255.93985,0.55613
7254.01110,0.55077
7252.08236,0.54851
7250.15361,0.55025
7248.22486,0.55294
7246.29612,0.55477
7244.36737,0.55511
7242.43863,0.55415
7240.50988,0.55262
7238.58114,0.55171
7236.65239,0.55276
7234.72365,0.55511
7232.79490,0.55647
7230.86616,0.55624
7228.93741,0.55661
7227.00867,0.55745
7225.07992,0.55653
7223.15118,0.55686
7221.22243,0.56077
7219.29369,0.56208
7217.36494,0.55906
7215.43619,0.55759
7213.50745,0.55746
7211.57870,0.55715
7209.64996,0.55843
7207.72121,0.55738
7205.79247,0.55200
7203.86372,0.54925
7201.93498,0.55155
7200.00623,0.55489
7198.07749,0.55834
7196.14874,0.56059
7194.22000,0.55833
7192.29125,0.55380
7190.36251,0.55236
7188.43376,0.55426
7186.50501,0.55704
7184.57627,0.56008
7182.64752,0.56195
7180.71878,0.55978
7178.79003,0.55553
7176.86129,0.55483
7174.93254,0.55693
7173.00380,0.55732
7171.07505,0.55653
7169.14631,0.55690
7167.21756,0.55865
7165.28882,0.55966
7163.36007,0.55753
7161.43133,0.55406
7159.50258,0.55147
7157.57384,0.54852
7155.64509,0.54640
7153.71634,0.54840
7151.78760,0.55181
7149.85885,0.55176
7147.93011,0.54950
7146.00136,0.54905
7144.07262,0.55100
7142.14387,0.55172
7140.21513,0.54998
7138.28638,0.54883
7136.35764,0.54883
7134.42889,0.54879
7132.50015,0.54848
7130.57140,0.54704
7128.64266,0.54473
7126.71391,0.54372
7124.78516,0.54469
7122.85642,0.54466
7120.92767,0.54282
7118.99893,0.54263
7117.07018,0.54432
7115.14144,0.54467
7113.21269,0.54266
7111.28395,0.54079
7109.35520,0.54103
7107.42646,0.54038
7105.49771,0.53748
7103.56897,0.53657
7101.64022,0.53834
7099.71148,0.54091
7097.78273,0.54480
7095.85399,0.54699
7093.92524,0.54391
7091.99649,0.54024
7090.06775,0.54147
7088.13900,0.54386
7086.21026,0.54169
7084.28151,0.53748
7082.35277,0.53569
7080.42402,0.53416
7078.49528,0.53084
7076.56653,0.52908
7074.63779,0.52992
7072.70904,0.53007
7070.78030,0.52888
7068.85155,0.52807
7066.92281,0.52821
7064.99406,0.53103
7063.06532,0.53699
7061.13657,0.54097
7059.20782,0.53904
7057.27908,0.53313
7055.35033,0.52719
7053.42159,0.52511
7051.49284,0.52694
7049.56410,0.52784
7047.63535,0.52536
7045.70661,0.52147
7043.77786,0.51882
7041.84912,0.51885
7039.92037,0.52092
7037.99163,0.52275
7036.06288,0.52300
7034.13414,0.52225
7032.20539,0.52063
7030.27664,0.51768
7028.34790,0.51479
7026.41915,0.51329
7024.49041,0.51312
7022.56166,0.51318
7020.63292,0.51192
7018.70417,0.51103
7016.77543,0.51217
7014.84668,0.51162
7012.91794,0.50746
7010.98919,0.50448
7009.06045,0.50565
7007.13170,0.50694
7005.20296,0.50586
7003.27421,0.50527
7001.34547,0.50522
6999.41672,0.50449
6997.48797,0.50527
6995.55923,0.50700
6993.63048,0.50660
6991.70174,0.50419
6989.77299,0.50237
6987.84425,0.50251
6985.91550,0.50336
6983.98676,0.50394
6982.05801,0.50502
6980.12927,0.50598
6978.20052,0.50530
6976.27178,0.50432
6974.34303,0.50446
6972.41429,0.50286
6970.48554,0.49835
6968.55680,0.49470
6966.62805,0.49245
6964.69930,0.49032
6962.77056,0.49078
6960.84181,0.49379
6958.91307,0.49563
6956.98432,0.49632
6955.05558,0.49767
6953.12683,0.49804
6951.19809,0.49671
6949.26934,0.49613
6947.34060,0.49669
6945.41185,0.49660
6943.48311,0.49670
6941.55436,0.49895
6939.62562,0.50195
6937.69687,0.50188
6935.76812,0.49795
6933.83938,0.49260
6931.91063,0.48883
6929.98189,0.48865
6928.05314,0.49033
6926.12440,0.49196
6924.19565,0.49357
6922.26691,0.49309
6920.33816,0.48982
6918.40942,0.48720
6916.48067,0.48783
6914.55193,0.48950
6912.62318,0.48960
6910.69444,0.48969
6908.76569,0.49046
6906.83695,0.49037
6904.90820,0.48853
6902.97945,0.48578
6901.05071,0.48537
6899.12196,0.48765
6897.19322,0.48901
6895.26447,0.48817
6893.33573,0.48714
6891.40698,0.48762
6889.47824,0.48809
6887.54949,0.48637
6885.62075,0.48414
6883.69200,0.48386
6881.76326,0.48547
6879.83451,0.48760
6877.90577,0.48794
6875.97702,0.48668
6874.04828,0.48701
6872.11953,0.48784
6870.19078,0.48626
6868.26204,0.48444
6866.33329,0.48400
6864.40455,0.48326
6862.47580,0.48271
6860.54706,0.48376
6858.61831,0.48557
6856.68957,0.48690
6854.76082,0.48701
6852.83208,0.48536
6850.90333,0.48225
6848.97459,0.47953
6847.04584,0.47791
6845.11710,0.47662
6843.18835,0.47682
6841.25960,0.47802
6839.33086,0.47874
6837.40211,0.48043
6835.47337,0.48123
6833.54462,0.47757
6831.61588,0.47347
6829.68713,0.47455
6827.75839,0.47808
6825.82964,0.47940
6823.90090,0.48003
6821.97215,0.47994
6820.04341,0.47685
6818.11466,0.47498
6816.18592,0.47644
6814.25717,0.47588
6812.32843,0.47341
6810.39968,0.47373
6808.47093,0.47629
6806.54219,0.47764
6804.61344,0.47654
6802.68470,0.47432
6800.75595,0.47256
6798.82721,0.47178
6796.89846,0.47185
6794.96972,0.47217
6793.04097,0.47207
6791.11223,0.47207
6789.18348,0.47350
6787.25474,0.47480
6785.32599,0.47380
6783.39725,0.47226
6781.46850,0.47061
6779.53975,0.46775
6777.61101,0.46533
6775.68226,0.46429
6773.75352,0.46378
6771.82477,0.46383
6769.89603,0.46504
6767.96728,0.46697
6766.03854,0.46694
6764.10979,0.46402
6762.18105,0.46290
6760.25230,0.46603
6758.32356,0.46902
6756.39481,0.46931
6754.46607,0.46827
6752.53732,0.46747
6750.60858,0.46790
6748.67983,0.46725
6746.75108,0.46329
6744.82234,0.45951
6742.89359,0.46036
6740.96485,0.46447
6739.03610,0.46652
6737.10736,0.46438
6735.17861,0.46166
6733.24987,0.46214
6731.32112,0.46426
6729.39238,0.46570
6727.46363,0.46682
6725.53489,0.46659
6723.60614,0.46466
6721.67740,0.46181
6719.74865,0.45839
6717.81991,0.45755
6715.89116,0.46002
6713.96241,0.46114
6712.03367,0.45966
6710.10492,0.45904
6708.17618,0.46038
6706.24743,0.46196
6704.31869,0.46253
6702.38994,0.46284
6700.46120,0.46378
6698.53245,0.46321
6696.60371,0.46076
6694.67496,0.46062
6692.74622,0.46325
6690.81747,0.46388
6688.88873,0.46024
6686.95998,0.45648
6685.03123,0.45794
6683.10249,0.46239
6681.17374,0.46423
6679.24500,0.46373
6677.31625,0.46332
6675.38751,0.46277
6673.45876,0.46236
6671.53002,0.46343
6669.60127,0.46522
6667.67253,0.46627
6665.74378,0.46613
6663.81504,0.46483
6661.88629,0.46371
6659.95755,0.46347
6658.02880,0.46326
6656.10006,0.46284
6654.17131,0.46179
6652.24256,0.46010
6650.31382,0.45950
6648.38507,0.46034
6646.45633,0.46236
6644.52758,0.46516
6642.59884,0.46608
6640.67009,0.46544
6638.74135,0.46614
6636.81260,0.46697
6634.88386,0.46704
6632.95511,0.46828
6631.02637,0.47037
6629.09762,0.47105
6627.16888,0.46911
6625.24013,0.46627
6623.31139,0.46549
6621.38264,0.46682
6619.45389,0.46860
6617.52515,0.46970
6615.59640,0.47019
6613.66766,0.47094
6611.73891,0.46947
6609.81017,0.46483
6607.88142,0.46280
6605.95268,0.46583
6604.02393,0.46988
6602.09519,0.47147
6600.16644,0.47113
6598.23770,0.47160
6596.30895,0.47268
6594.38021,0.47241
6592.45146,0.47166
6590.52271,0.47233
6588.59397,0.47332
6586.66522,0.47298
6584.73648,0.47249
6582.80773,0.47279
6580.87899,0.47350
6578.95024,0.47408
6577.02150,0.47403
6575.09275,0.47368
6573.16401,0.47368
6571.23526,0.47412
6569.30652,0.47538
6567.37777,0.47629
6565.44903,0.47387
6563.52028,0.47052
6561.59154,0.47026
6559.66279,0.47143
6557.73404,0.47335
6555.80530,0.47592
6553.87655,0.47669
6551.94781,0.47604
6550.01906,0.47641
6548.09032,0.47756
6546.16157,0.47670
6544.23283,0.47354
6542.30408,0.47138
6540.37534,0.47209
6538.44659,0.47409
6536.51785,0.47554
6534.58910,0.47525
6532.66036,0.47369
6530.73161,0.47385
6528.80287,0.47570
6526.87412,0.47624
6524.94537,0.47507
6523.01663,0.47351
6521.08788,0.47179
6519.15914,0.46994
6517.23039,0.46941
6515.30165,0.47026
6513.37290,0.47054
6511.44416,0.47006
6509.51541,0.47016
6507.58667,0.47054
6505.65792,0.47028
6503.72918,0.47080
6501.80043,0.47247
6499.87169,0.47389
6497.94294,0.47461
6496.01419,0.47435
6494.08545,0.47427
6492.15670,0.47571
6490.22796,0.47646
6488.29921,0.47421
6486.37047,0.47143
6484.44172,0.47124
6482.51298,0.47208
6480.58423,0.47215
6478.65549,0.47197
6476.72674,0.47189
6474.79800,0.47203
6472.86925,0.47226
6470.94051,0.47272
6469.01176,0.47343
6467.08302,0.47304
6465.15427,0.47153
6463.22552,0.47057
6461.29678,0.47063
6459.36803,0.47152
6457.43929,0.47335
6455.51054,0.47611
6453.58180,0.47854
6451.65305,0.47871
6449.72431,0.47737
6447.79556,0.47564
6445.86682,0.47394
6443.93807,0.47347
6442.00933,0.47441
6440.08058,0.47600
6438.15184,0.47604
6436.22309,0.47426
6434.29434,0.47419
6432.36560,0.47509
6430.43685,0.47423
6428.50811,0.47320
6426.57936,0.47310
6424.65062,0.47310
6422.72187,0.47346
6420.79313,0.47409
6418.86438,0.47414
6416.93564,0.47377
6415.00689,0.47351
6413.07815,0.47384
6411.14940,0.47510
6409.22066,0.47641
6407.29191,0.47650
6405.36317,0.47598
6403.43442,0.47645
6401.50567,0.47715
6399.57693,0.47648
6397.64818,0.47518
6395.71944,0.47417
6393.79069,0.47361
6391.86195,0.47416
6389.93320,0.47572
6388.00446,0.47750
6386.07571,0.47896
6384.14697,0.47901
6382.21822,0.47747
6380.28948,0.47652
6378.36073,0.47685
6376.43199,0.47663
6374.50324,0.47613
6372.57450,0.47703
6370.64575,0.47848
6368.71700,0.47914
6366.78826,0.47968
6364.85951,0.48020
6362.93077,0.48013
6361.00202,0.48021
6359.07328,0.48040
6357.14453,0.47970
6355.21579,0.47921
6353.28704,0.47982
6351.35830,0.48015
6349.42955,0.47919
6347.50081,0.47698
6345.57206,0.47480
6343.64332,0.47400
6341.71457,0.47455
6339.78582,0.47586
6337.85708,0.47662
6335.92833,0.47703
6333.99959,0.47839
6332.07084,0.47952
6330.14210,0.47930
6328.21335,0.47881
6326.28461,0.47968
6324.35586,0.48134
6322.42712,0.48114
6320.49837,0.47949
6318.56963,0.47980
6316.64088,0.48207
6314.71214,0.48274
6312.78339,0.48177
6310.85465,0.48146
6308.92590,0.48193
6306.99715,0.48314
6305.06841,0.48364
6303.13966,0.48228
6301.21092,0.48154
6299.28217,0.48185
6297.35343,0.48145
6295.42468,0.48130
6293.49594,0.48262
6291.56719,0.48357
6289.63845,0.48254
6287.70970,0.48113
6285.78096,0.48136
6283.85221,0.48280
6281.92347,0.48370
6279.99472,0.48366
6278.06598,0.48407
6276.13723,0.48534
6274.20848,0.48610
6272.27974,0.48607
6270.35099,0.48651
6268.42225,0.48725
6266.49350,0.48684
6264.56476,0.48564
6262.63601,0.48560
6260.70727,0.48732
6258.77852,0.48998
6256.84978,0.49257
6254.92103,0.49357
6252.99229,0.49284
6251.06354,0.49228
6249.13480,0.49177
6247.20605,0.49043
6245.27730,0.48984
6243.34856,0.49037
6241.41981,0.49073
6239.49107,0.49149
6237.56232,0.49347
6235.63358,0.49564
6233.70483,0.49643
6231.77609,0.49650
6229.84734,0.49736
6227.91860,0.49843
6225.98985,0.49909
6224.06111,0.49957
6222.13236,0.49991
6220.20362,0.50036
6218.27487,0.50028
6216.34613,0.49904
6214.41738,0.49802
6212.48863,0.49845
6210.55989,0.49981
6208.63114,0.50080
6206.70240,0.50052
6204.77365,0.50028
6202.84491,0.50162
6200.91616,0.50361
6198.98742,0.50534
6197.05867,0.50686
6195.12993,0.50738
6193.20118,0.50626
6191.27244,0.50471
6189.34369,0.50514
6187.41495,0.50759
6185.48620,0.50913
6183.55746,0.50821
6181.62871,0.50673
6179.69996,0.50709
6177.77122,0.50904
6175.84247,0.51021
6173.91373,0.50971
6171.98498,0.50931
6170.05624,0.51045
6168.12749,0.51254
6166.19875,0.51446
6164.27000,0.51535
6162.34126,0.51525
6160.41251,0.51525
6158.48377,0.51492
6156.55502,0.51310
6154.62628,0.51216
6152.69753,0.51413
6150.76878,0.51594
6148.84004,0.51528
6146.91129,0.51407
6144.98255,0.51438
6143.05380,0.51582
6141.12506,0.51723
6139.19631,0.51898
6137.26757,0.52075
6135.33882,0.52103
6133.41008,0.52053
6131.48133,0.52029
6129.55259,0.51992
6127.62384,0.52037
6125.69510,0.52222
6123.76635,0.52348
6121.83761,0.52331
6119.90886,0.52303
6117.98011,0.52227
6116.05137,0.52035
6114.12262,0.51954
6112.19388,0.52110
6110.26513,0.52288
6108.33639,0.52371
6106.40764,0.52415
6104.47890,0.52415
6102.55015,0.52347
6100.62141,0.52273
6098.69266,0.52328
6096.76392,0.52526
6094.83517,0.52691
6092.90643,0.52740
6090.97768,0.52756
6089.04893,0.52750
6087.12019,0.52688
6085.19144,0.52640
6083.26270,0.52615
6081.33395,0.52583
6079.40521,0.52638
6077.47646,0.52826
6075.54772,0.53106
6073.61897,0.53374
6071.69023,0.53430
6069.76148,0.53224
6067.83274,0.52940
6065.90399,0.52780
6063.97525,0.52775
6062.04650,0.52840
6060.11776,0.52974
6058.18901,0.53127
6056.26026,0.53203
6054.33152,0.53251
6052.40277,0.53316
6050.47403,0.53351
6048.54528,0.53352
6046.61654,0.53348
6044.68779,0.53337
6042.75905,0.53294
6040.83030,0.53285
6038.90156,0.53361
6036.97281,0.53451
6035.04407,0.53538
6033.11532,0.53620
6031.18658,0.53619
6029.25783,0.53563
6027.32909,0.53565
6025.40034,0.53584
6023.47159,0.53546
6021.54285,0.53550
6019.61410,0.53630
6017.68536,0.53703
6015.75661,0.53803
6013.82787,0.53942
6011.89912,0.53997
6009.97038,0.53930
6008.04163,0.53788
6006.11289,0.53609
6004.18414,0.53559
6002.25540,0.53722
6000.32665,0.53900
5998.39791,0.53942
5996.46916,0.53907
5994.54041,0.53884
5992.61167,0.53894
5990.68292,0.53932
5988.75418,0.53994
5986.82543,0.54047
5984.89669,0.54044
5982.96794,0.53986
5981.03920,0.53939
5979.11045,0.53975
5977.18171,0.54083
5975.25296,0.54122
5973.32422,0.54026
5971.39547,0.53920
5969.46673,0.53918
5967.53798,0.54002
5965.60924,0.54031
5963.68049,0.53938
5961.75174,0.53858
5959.82300,0.53881
5957.89425,0.53937
5955.96551,0.53981
5954.03676,0.54057
5952.10802,0.54157
5950.17927,0.54176
5948.25053,0.54095
5946.32178,0.53995
5944.39304,0.53908
5942.46429,0.53840
5940.53555,0.53826
5938.60680,0.53877
5936.67806,0.53951
5934.74931,0.53963
5932.82057,0.53874
5930.89182,0.53764
5928.96307,0.53752
5927.03433,0.53821
5925.10558,0.53852
5923.17684,0.53836
5921.24809,0.53773
5919.31935,0.53604
5917.39060,0.53376
5915.46186,0.53260
5913.53311,0.53398
5911.60437,0.53647
5909.67562,0.53713
5907.74688,0.53570
5905.81813,0.53419
5903.88939,0.53401
5901.96064,0.53438
5900.03189,0.53379
5898.10315,0.53290
5896.17440,0.53332
5894.24566,0.53477
5892.31691,0.53530
5890.38817,0.53385
5888.45942,0.53203
5886.53068,0.53131
5884.60193,0.53067
5882.67319,0.52960
5880.74444,0.52904
5878.81570,0.52929
5876.88695,0.52983
5874.95821,0.52961
5873.02946,0.52814
5871.10072,0.52666
5869.17197,0.52641
5867.24322,0.52689
5865.31448,0.52701
5863.38573,0.52661
5861.45699,0.52628
5859.52824,0.52615
5857.59950,0.52607
5855.67075,0.52636
5853.74201,0.52741
5851.81326,0.52900
5849.88452,0.53021
5847.95577,0.53028
5846.02703,0.52905
5844.09828,0.52753
5842.16954,0.52746
5840.24079,0.52856
5838.31205,0.52913
5836.38330,0.52905
5834.45455,0.52902
5832.52581,0.52887
5830.59706,0.52841
5828.66832,0.52839
5826.73957,0.52897
5824.81083,0.52905
5822.88208,0.52855
5820.95334,0.52848
5819.02459,0.52897
5817.09585,0.52911
5815.16710,0.52823
5813.23836,0.52739
5811.30961,0.52758
5809.38087,0.52794
5807.45212,0.52767
5805.52337,0.52646
5803.59463,0.52505
5801.66588,0.52507
5799.73714,0.52608
5797.80839,0.52674
5795.87965,0.52686
5793.95090,0.52669
5792.02216,0.52637
5790.09341,0.52547
5788.16467,0.52469
5786.23592,0.52494
5784.30718,0.52521
5782.37843,0.52468
5780.44969,0.52376
5778.52094,0.52319
5776.59220,0.52338
5774.66345,0.52376
5772.73470,0.52372
5770.80596,0.52370
5768.87721,0.52439
5766.94847,0.52539
5765.01972,0.52574
5763.09098,0.52511
5761.16223,0.52404
5759.23349,0.52403
5757.30474,0.52508
5755.37600,0.52511
5753.44725,0.52437
5751.51851,0.52421
5749.58976,0.52389
5747.66102,0.52376
5745.73227,0.52476
5743.80352,0.52560
5741.87478,0.52523
5739.94603,0.52425
5738.01729,0.52289
5736.08854,0.52152
5734.15980,0.52153
5732.23105,0.52222
5730.30231,0.52146
5728.37356,0.52018
5726.44482,0.52020
5724.51607,0.52110
5722.58733,0.52199
5720.65858,0.52253
5718.72984,0.52297
5716.80109,0.52387
5714.87235,0.52453
5712.94360,0.52400
5711.01485,0.52326
5709.08611,0.52318
5707.15736,0.52297
5705.22862,0.52230
5703.29987,0.52174
5701.37113,0.52145
5699.44238,0.52126
5697.51364,0.52139
5695.58489,0.52158
5693.65615,0.52199
5691.72740,0.52323
5689.79866,0.52408
5687.86991,0.52322
5685.94117,0.52196
5684.01242,0.52166
5682.08368,0.52192
5680.15493,0.52178
5678.22618,0.52081
5676.29744,0.51957
5674.36869,0.51883
5672.43995,0.51826
5670.51120,0.51775
5668.58246,0.51799
5666.65371,0.51867
5664.72497,0.51914
5662.79622,0.51972
5660.86748,0.52057
5658.93873,0.52075
5657.00999,0.51973
5655.08124,0.51835
5653.15250,0.51780
5651.22375,0.51827
5649.29500,0.51890
5647.36626,0.51891
5645.43751,0.51816
5643.50877,0.51750
5641.58002,0.51761
5639.65128,0.51799
5637.72253,0.51830
5635.79379,0.51840
5633.86504,0.51804
5631.93630,0.51800
5630.00755,0.51886
5628.07881,0.51948
5626.15006,0.51929
5624.22132,0.51895
5622.29257,0.51845
5620.36383,0.51783
5618.43508,0.51789
5616.50633,0.51880
5614.57759,0.51977
5612.64884,0.51954
5610.72010,0.51818
5608.79135,0.51763
5606.86261,0.51828
5604.93386,0.51844
5603.00512,0.51777
5601.07637,0.51722
5599.14763,0.51714
5597.21888,0.51762
5595.29014,0.51836
5593.36139,0.51866
5591.43265,0.51863
5589.50390,0.51896
5587.57516,0.51955
5585.64641,0.51983
5583.71766,0.51968
5581.78892,0.51925
5579.86017,0.51899
5577.93143,0.51923
5576.00268,0.51961
5574.07394,0.51967
5572.14519,0.51958
5570.21645,0.51964
5568.28770,0.51993
5566.35896,0.52065
5564.43021,0.52138
5562.50147,0.52134
5560.57272,0.52089
5558.64398,0.52064
5556.71523,0.52063
5554.78648,0.52070
5552.85774,0.52061
5550.92899,0.52057
5549.00025,0.52048
5547.07150,0.51989
5545.14276,0.51972
5543.21401,0.52075
5541.28527,0.52172
5539.35652,0.52163
5537.42778,0.52071
5535.49903,0.51991
5533.57029,0.52018
5531.64154,0.52104
5529.71280,0.52151
5527.78405,0.52110
5525.85531,0.52030
5523.92656,0.52027
5521.99781,0.52080
5520.06907,0.52105
5518.14032,0.52109
5516.21158,0.52088
5514.28283,0.52017
5512.35409,0.51971
5510.42534,0.51994
5508.49660,0.52006
5506.56785,0.51983
5504.63911,0.51961
5502.71036,0.51940
5500.78162,0.51934
5498.85287,0.51973
5496.92413,0.51978
5494.99538,0.51890
5493.06664,0.51889
5491.13789,0.52070
5489.20914,0.52200
5487.28040,0.52144
5485.35165,0.52033
5483.42291,0.51975
5481.49416,0.51926
5479.56542,0.51878
5477.63667,0.51919
5475.70793,0.51990
5473.77918,0.51970
5471.85044,0.51919
5469.92169,0.51919
5467.99295,0.51948
5466.06420,0.51977
5464.13546,0.51988
5462.20671,0.52002
5460.27796,0.52058
5458.34922,0.52139
5456.42047,0.52211
5454.49173,0.52233
5452.56298,0.52193
5450.63424,0.52160
5448.70549,0.52166
5446.77675,0.52202
5444.84800,0.52267
5442.91926,0.52330
5440.99051,0.52352
5439.06177,0.52335
5437.13302,0.52339
5435.20428,0.52385
5433.27553,0.52416
5431.34679,0.52411
5429.41804,0.52423
5427.48929,0.52475
5425.56055,0.52497
5423.63180,0.52465
5421.70306,0.52451
5419.77431,0.52514
5417.84557,0.52625
5415.91682,0.52692
5413.98808,0.52688
5412.05933,0.52697
5410.13059,0.52730
5408.20184,0.52727
5406.27310,0.52714
5404.34435,0.52775
5402.41561,0.52883
5400.48686,0.52936
5398.55811,0.52923
5396.62937,0.52914
5394.70062,0.52950
5392.77188,0.52979
5390.84313,0.52967
5388.91439,0.52961
5386.98564,0.52937
5385.05690,0.52891
5383.12815,0.52905
5381.19941,0.52988
5379.27066,0.53079
5377.34192,0.53144
5375.41317,0.53186
5373.48443,0.53191
5371.55568,0.53147
5369.62694,0.53087
5367.69819,0.53053
5365.76944,0.53068
5363.84070,0.53128
5361.91195,0.53179
5359.98321,0.53167
5358.05446,0.53115
5356.12572,0.53084
5354.19697,0.53081
5352.26823,0.53077
5350.33948,0.53027
5348.41074,0.52933
5346.48199,0.52868
5344.55325,0.52843
5342.62450,0.52828
5340.69576,0.52848
5338.76701,0.52909
5336.83827,0.52962
5334.90952,0.52984
5332.98077,0.52969
5331.05203,0.52857
5329.12328,0.52714
5327.19454,0.52718
5325.26579,0.52819
5323.33705,0.52843
5321.40830,0.52780
5319.47956,0.52726
5317.55081,0.52701
5315.62207,0.52603
5313.69332,0.52455
5311.76458,0.52430
5309.83583,0.52470
5307.90709,0.52395
5305.97834,0.52272
5304.04959,0.52232
5302.12085,0.52227
5300.19210,0.52178
5298.26336,0.52064
5296.33461,0.51906
5294.40587,0.51756
5292.47712,0.51652
5290.54838,0.51595
5288.61963,0.51555
5286.69089,0.51525
5284.76214,0.51500
5282.83340,0.51408
5280.90465,0.51240
5278.97591,0.51105
5277.04716,0.51044
5275.11842,0.50957
5273.18967,0.50766
5271.26092,0.50542
5269.33218,0.50366
5267.40343,0.50207
5265.47469,0.50029
5263.54594,0.49869
5261.61720,0.49753
5259.68845,0.49659
5257.75971,0.49542
5255.83096,0.49371
5253.90222,0.49158
5251.97347,0.48960
5250.04473,0.48803
5248.11598,0.48656
5246.18724,0.48494
5244.25849,0.48334
5242.32975,0.48212
5240.40100,0.48112
5238.47225,0.47962
5236.54351,0.47760
5234.61476,0.47558
5232.68602,0.47382
5230.75727,0.47276
5228.82853,0.47230
5226.89978,0.47151
5224.97104,0.46988
5223.04229,0.46828
5221.11355,0.46765
5219.18480,0.46750
5217.25606,0.46690
5215.32731,0.46589
5213.39857,0.46504
5211.46982,0.46419
5209.54107,0.46296
5207.61233,0.46185
5205.68358,0.46127
5203.75484,0.46086
5201.82609,0.46025
5199.89735,0.45979
5197.96860,0.45989
5196.03986,0.46017
5194.11111,0.45967
5192.18237,0.45844
5190.25362,0.45794
5188.32488,0.45855
5186.39613,0.45866
5184.46739,0.45803
5182.53864,0.45819
5180.60990,0.45899
5178.68115,0.45905
5176.75240,0.45892
5174.82366,0.45926
5172.89491,0.45924
5170.96617,0.45923
5169.03742,0.46030
5167.10868,0.46153
5165.17993,0.46151
5163.25119,0.46055
5161.32244,0.45990
5159.39370,0.46002
5157.46495,0.46059
5155.53621,0.46167
5153.60746,0.46302
5151.67872,0.46354
5149.74997,0.46305
5147.82123,0.46269
5145.89248,0.46298
5143.96373,0.46353
5142.03499,0.46430
5140.10624,0.46496
5138.17750,0.46501
5136.24875,0.46512
5134.32001,0.46599
5132.39126,0.46704
5130.46252,0.46768
5128.53377,0.46840
5126.60503,0.46967
5124.67628,0.47080
5122.74754,0.47121
5120.81879,0.47115
5118.89005,0.47094
5116.96130,0.47124
5115.03255,0.47215
5113.10381,0.47260
5111.17506,0.47264
5109.24632,0.47327
5107.31757,0.47409
5105.38883,0.47436
5103.46008,0.47445
5101.53134,0.47499
5099.60259,0.47586
5097.67385,0.47652
5095.74510,0.47689
5093.81636,0.47743
5091.88761,0.47843
5089.95887,0.47936
5088.03012,0.47988
5086.10138,0.48021
5084.17263,0.48023
5082.24388,0.48007
5080.31514,0.48036
5078.38639,0.48124
5076.45765,0.48228
5074.52890,0.48315
5072.60016,0.48380
5070.67141,0.48439
5068.74267,0.48512
5066.81392,0.48574
5064.88518,0.48581
5062.95643,0.48552
5061.02769,0.48532
5059.09894,0.48548
5057.17020,0.48614
5055.24145,0.48699
5053.31270,0.48768
5051.38396,0.48802
5049.45521,0.48800
5047.52647,0.48811
5045.59772,0.48886
5043.66898,0.48971
5041.74023,0.48993
5039.81149,0.48976
5037.88274,0.48955
5035.95400,0.48962
5034.02525,0.49020
5032.09651,0.49050
5030.16776,0.49017
5028.23902,0.49026
5026.31027,0.49116
5024.38153,0.49184
5022.45278,0.49188
5020.52403,0.49183
5018.59529,0.49181
5016.66654,0.49173
5014.73780,0.49184
5012.80905,0.49185
5010.88031,0.49120
5008.95156,0.49042
5007.02282,0.49030
5005.09407,0.49071
5003.16533,0.49116
5001.23658,0.49148
4999.30784,0.49152
4997.37909,0.49127
4995.45035,0.49110
4993.52160,0.49123
4991.59286,0.49150
4989.66411,0.49150
4987.73536,0.49092
4985.80662,0.49001
4983.87787,0.48917
4981.94913,0.48846
4980.02038,0.48808
4978.09164,0.48810
4976.16289,0.48773
4974.23415,0.48668
4972.30540,0.48597
4970.37666,0.48582
4968.44791,0.48550
4966.51917,0.48513
4964.59042,0.48487
4962.66168,0.48431
4960.73293,0.48333
4958.80418,0.48222
4956.87544,0.48106
4954.94669,0.47983
4953.01795,0.47860
4951.08920,0.47745
4949.16046,0.47659
4947.23171,0.47605
4945.30297,0.47554
4943.37422,0.47461
4941.44548,0.47294
4939.51673,0.47116
4937.58799,0.46982
4935.65924,0.46850
4933.73050,0.46709
4931.80175,0.46584
4929.87301,0.46452
4927.94426,0.46309
4926.01551,0.46175
4924.08677,0.46051
4922.15802,0.45930
4920.22928,0.45796
4918.30053,0.45620
4916.37179,0.45413
4914.44304,0.45225
4912.51430,0.45063
4910.58555,0.44884
4908.65681,0.44701
4906.72806,0.44561
4904.79932,0.44437
4902.87057,0.44252
4900.94183,0.44036
4899.01308,0.43849
4897.08434,0.43643
4895.15559,0.43384
4893.22684,0.43133
4891.29810,0.42946
4889.36935,0.42817
4887.44061,0.42709
4885.51186,0.42595
4883.58312,0.42452
4881.65437,0.42268
4879.72563,0.42048
4877.79688,0.41810
4875.86814,0.41602
4873.93939,0.41446
4872.01065,0.41295
4870.08190,0.41122
4868.15316,0.40966
4866.22441,0.40805
4864.29566,0.40598
4862.36692,0.40402
4860.43817,0.40247
4858.50943,0.40109
4856.58068,0.40004
4854.65194,0.39924
4852.72319,0.39812
4850.79445,0.39663
4848.86570,0.39506
4846.93696,0.39359
4845.00821,0.39218
4843.07947,0.39063
4841.15072,0.38908
4839.22198,0.38781
4837.29323,0.38646
4835.36449,0.38485
4833.43574,0.38340
4831.50699,0.38212
4829.57825,0.38088
4827.64950,0.37974
4825.72076,0.37851
4823.79201,0.37715
4821.86327,0.37597
4819.93452,0.37492
4818.00578,0.37338
4816.07703,0.37140
4814.14829,0.36985
4812.21954,0.36882
4810.29080,0.36780
4808.36205,0.36686
4806.43331,0.36637
4804.50456,0.36599
4802.57582,0.36516
4800.64707,0.36435
4798.71832,0.36401
4796.78958,0.36361
4794.86083,0.36304
4792.93209,0.36259
4791.00334,0.36213
4789.07460,0.36165
4787.14585,0.36108
4785.21711,0.36019
4783.28836,0.35912
4781.35962,0.35817
4779.43087,0.35772
4777.50213,0.35775
4775.57338,0.35753
4773.64464,0.35668
4771.71589,0.35600
4769.78714,0.35611
4767.85840,0.35617
4765.92965,0.35535
4764.00091,0.35453
4762.07216,0.35440
4760.14342,0.35410
4758.21467,0.35364
4756.28593,0.35405
4754.35718,0.35484
4752.42844,0.35512
4750.49969,0.35496
4748.57095,0.35461
4746.64220,0.35429
4744.71346,0.35440
4742.78471,0.35509
4740.85597,0.35589
4738.92722,0.35638
4736.99847,0.35682
4735.06973,0.35743
4733.14098,0.35797
4731.21224,0.35835
4729.28349,0.35866
4727.35475,0.35896
4725.42600,0.35955
4723.49726,0.36056
4721.56851,0.36166
4719.63977,0.36257
4717.71102,0.36298
4715.78228,0.36287
4713.85353,0.36312
4711.92479,0.36415
4709.99604,0.36515
4708.06729,0.36564
4706.13855,0.36613
4704.20980,0.36655
4702.28106,0.36682
4700.35231,0.36767
4698.42357,0.36892
4696.49482,0.36987
4694.56608,0.37083
4692.63733,0.37218
4690.70859,0.37364
4688.77984,0.37483
4686.85110,0.37570
4684.92235,0.37627
4682.99361,0.37644
4681.06486,0.37667
4679.13612,0.37752
4677.20737,0.37861
4675.27862,0.37919
4673.34988,0.37957
4671.42113,0.38041
4669.49239,0.38125
4667.56364,0.38182
4665.63490,0.38273
4663.70615,0.38382
4661.77741,0.38448
4659.84866,0.38483
4657.91992,0.38540
4655.99117,0.38636
4654.06243,0.38741
4652.13368,0.38813
4650.20494,0.38862
4648.27619,0.38922
4646.34745,0.38998
4644.41870,0.39085
4642.48995,0.39177
4640.56121,0.39251
4638.63246,0.39318
4636.70372,0.39386
4634.77497,0.39441
4632.84623,0.39500
4630.91748,0.39597
4628.98874,0.39720
4627.05999,0.39815
4625.13125,0.39854
4623.20250,0.39890
4621.27376,0.39968
4619.34501,0.40048
4617.41627,0.40100
4615.48752,0.40149
4613.55877,0.40208
4611.63003,0.40275
4609.70128,0.40361
4607.77254,0.40455
4605.84379,0.40540
4603.91505,0.40609
4601.98630,0.40681
4600.05756,0.40763
4598.12881,0.40809
4596.20007,0.40818
4594.27132,0.40889
4592.34258,0.41034
4590.41383,0.41161
4588.48509,0.41248
4586.55634,0.41331
4584.62760,0.41401
4582.69885,0.41449
4580.77010,0.41501
4578.84136,0.41575
4576.91261,0.41651
4574.98387,0.41705
4573.05512,0.41758
4571.12638,0.41819
4569.19763,0.41871
4567.26889,0.41939
4565.34014,0.42051
4563.41140,0.42176
4561.48265,0.42279
4559.55391,0.42356
4557.62516,0.42412
4555.69642,0.42450
4553.76767,0.42483
4551.83893,0.42532
4549.91018,0.42596
4547.98143,0.42658
4546.05269,0.42719
4544.12394,0.42780
4542.19520,0.42837
4540.26645,0.42904
4538.33771,0.42984
4536.40896,0.43060
4534.48022,0.43115
4532.55147,0.43154
4530.62273,0.43199
4528.69398,0.43240
4526.76524,0.43263
4524.83649,0.43302
4522.90775,0.43383
4520.97900,0.43471
4519.05025,0.43518
4517.12151,0.43519
4515.19276,0.43527
4513.26402,0.43544
4511.33527,0.43543
4509.40653,0.43549
4507.47778,0.43574
4505.54904,0.43595
4503.62029,0.43605
4501.69155,0.43603
4499.76280,0.43612
4497.83406,0.43641
4495.90531,0.43659
4493.97657,0.43649
4492.04782,0.43619
4490.11908,0.43589
4488.19033,0.43584
4486.26158,0.43622
4484.33284,0.43681
4482.40409,0.43711
4480.47535,0.43699
4478.54660,0.43658
4476.61786,0.43607
4474.68911,0.43577
4472.76037,0.43565
4470.83162,0.43543
4468.90288,0.43491
4466.97413,0.43406
4465.04539,0.43311
4463.11664,0.43218
4461.18790,0.43126
4459.25915,0.43022
4457.33041,0.42878
4455.40166,0.42688
4453.47291,0.42524
4451.54417,0.42427
4449.61542,0.42322
4447.68668,0.42153
4445.75793,0.41952
4443.82919,0.41728
4441.90044,0.41460
4439.97170,0.41187
4438.04295,0.40953
4436.11421,0.40732
4434.18546,0.40492
4432.25672,0.40249
4430.32797,0.40011
4428.39923,0.39747
4426.47048,0.39447
4424.54173,0.39146
4422.61299,0.38872
4420.68424,0.38638
4418.75550,0.38398
4416.82675,0.38086
4414.89801,0.37732
4412.96926,0.37412
4411.04052,0.37138
4409.11177,0.36881
4407.18303,0.36654
4405.25428,0.36501
4403.32554,0.36403
4401.39679,0.36299
4399.46805,0.36204
4397.53930,0.36147
4395.61056,0.36131
4393.68181,0.36163
4391.75306,0.36226
4389.82432,0.36306
4387.89557,0.36413
4385.96683,0.36522
4384.03808,0.36613
4382.10934,0.36722
4380.18059,0.36859
4378.25185,0.36976
4376.32310,0.37054
4374.39436,0.37123
4372.46561,0.37210
4370.53687,0.37269
4368.60812,0.37276
4366.67938,0.37300
4364.75063,0.37367
4362.82189,0.37404
4360.89314,0.37360
4358.96439,0.37275
4357.03565,0.37212
4355.10690,0.37165
4353.17816,0.37129
4351.24941,0.37102
4349.32067,0.37052
4347.39192,0.36984
4345.46318,0.36931
4343.53443,0.36879
4341.60569,0.36799
4339.67694,0.36707
4337.74820,0.36621
4335.81945,0.36531
4333.89071,0.36437
4331.96196,0.36349
4330.03321,0.36248
4328.10447,0.36120
4326.17572,0.36018
4324.24698,0.35959
4322.31823,0.35869
4320.38949,0.35724
4318.46074,0.35585
4316.53200,0.35499
4314.60325,0.35458
4312.67451,0.35434
4310.74576,0.35396
4308.81702,0.35321
4306.88827,0.35210
4304.95953,0.35085
4303.03078,0.34962
4301.10204,0.34845
4299.17329,0.34755
4297.24454,0.34689
4295.31580,0.34626
4293.38705,0.34555
4291.45831,0.34451
4289.52956,0.34330
4287.60082,0.34232
4285.67207,0.34151
4283.74333,0.34096
4281.81458,0.34074
4279.88584,0.34035
4277.95709,0.33963
4276.02835,0.33929
4274.09960,0.33948
4272.17086,0.33960
4270.24211,0.33952
4268.31336,0.33955
4266.38462,0.33975
4264.45587,0.34015
4262.52713,0.34072
4260.59838,0.34102
4258.66964,0.34089
4256.74089,0.34066
4254.81215,0.34057
4252.88340,0.34076
4250.95466,0.34122
4249.02591,0.34176
4247.09717,0.34209
4245.16842,0.34221
4243.23968,0.34229
4241.31093,0.34254
4239.38219,0.34304
4237.45344,0.34370
4235.52469,0.34435
4233.59595,0.34478
4231.66720,0.34490
4229.73846,0.34487
4227.80971,0.34488
4225.88097,0.34472
4223.95222,0.34443
4222.02348,0.34448
4220.09473,0.34485
4218.16599,0.34523
4216.23724,0.34551
4214.30850,0.34575
4212.37975,0.34619
4210.45101,0.34669
4208.52226,0.34706
4206.59352,0.34774
4204.66477,0.34894
4202.73602,0.35002
4200.80728,0.35075
4198.87853,0.35135
4196.94979,0.35166
4195.02104,0.35194
4193.09230,0.35259
4191.16355,0.35321
4189.23481,0.35330
4187.30606,0.35303
4185.37732,0.35291
4183.44857,0.35289
4181.51983,0.35264
4179.59108,0.35236
4177.66234,0.35253
4175.73359,0.35310
4173.80484,0.35387
4171.87610,0.35472
4169.94735,0.35533
4168.01861,0.35558
4166.08986,0.35579
4164.16112,0.35610
4162.23237,0.35636
4160.30363,0.35642
4158.37488,0.35630
4156.44614,0.35601
4154.51739,0.35553
4152.58865,0.35502
4150.65990,0.35441
4148.73116,0.35369
4146.80241,0.35316
4144.87367,0.35291
4142.94492,0.35271
4141.01617,0.35224
4139.08743,0.35163
4137.15868,0.35134
4135.22994,0.35116
4133.30119,0.35070
4131.37245,0.35001
4129.44370,0.34903
4127.51496,0.34771
4125.58621,0.34642
4123.65747,0.34539
4121.72872,0.34458
4119.79998,0.34371
4117.87123,0.34226
4115.94249,0.34039
4114.01374,0.33869
4112.08500,0.33712
4110.15625,0.33560
4108.22750,0.33427
4106.29876,0.33282
4104.37001,0.33090
4102.44127,0.32878
4100.51252,0.32683
4098.58378,0.32495
4096.65503,0.32294
4094.72629,0.32085
4092.79754,0.31862
4090.86880,0.31636
4088.94005,0.31437
4087.01131,0.31245
4085.08256,0.31029
4083.15382,0.30811
4081.22507,0.30610
4079.29632,0.30406
4077.36758,0.30212
4075.43883,0.30046
4073.51009,0.29873
4071.58134,0.29672
4069.65260,0.29454
4067.72385,0.29235
4065.79511,0.29029
4063.86636,0.28826
4061.93762,0.28593
4060.00887,0.28332
4058.08013,0.28070
4056.15138,0.27829
4054.22264,0.27610
4052.29389,0.27393
4050.36515,0.27170
4048.43640,0.26958
4046.50765,0.26771
4044.57891,0.26606
4042.65016,0.26438
4040.72142,0.26238
4038.79267,0.26025
4036.86393,0.25855
4034.93518,0.25747
4033.00644,0.25661
4031.07769,0.25575
4029.14895,0.25516
4027.22020,0.25488
4025.29146,0.25466
4023.36271,0.25449
4021.43397,0.25438
4019.50522,0.25440
4017.57648,0.25462
4015.64773,0.25508
4013.71898,0.25582
4011.79024,0.25671
4009.86149,0.25755
4007.93275,0.25822
4006.00400,0.25886
4004.07526,0.25957
4002.14651,0.26032
4000.21777,0.26134
3998.28902,0.26267
3996.36028,0.26381
3994.43153,0.26453
3992.50279,0.26520
3990.57404,0.26616
3988.64530,0.26704
3986.71655,0.26763
3984.78780,0.26847
3982.85906,0.26971
3980.93031,0.27085
3979.00157,0.27158
3977.07282,0.27210
3975.14408,0.27273
3973.21533,0.27347
3971.28659,0.27420
3969.35784,0.27482
3967.42910,0.27539
3965.50035,0.27619
3963.57161,0.27717
3961.64286,0.27798
3959.71412,0.27871
3957.78537,0.27955
3955.85663,0.28035
3953.92788,0.28104
3951.99913,0.28174
3950.07039,0.28265
3948.14164,0.28367
3946.21290,0.28461
3944.28415,0.28568
3942.35541,0.28687
3940.42666,0.28777
3938.49792,0.28847
3936.56917,0.28928
3934.64043,0.29033
3932.71168,0.29167
3930.78294,0.29327
3928.85419,0.29459
3926.92545,0.29527
3924.99670,0.29577
3923.06795,0.29648
3921.13921,0.29739
3919.21046,0.29843
3917.28172,0.29943
3915.35297,0.30017
3913.42423,0.30048
3911.49548,0.30062
3909.56674,0.30101
3907.63799,0.30184
3905.70925,0.30299
3903.78050,0.30403
3901.85176,0.30468
3899.92301,0.30514
3897.99427,0.30555
3896.06552,0.30595
3894.13678,0.30651
3892.20803,0.30730
3890.27928,0.30806
3888.35054,0.30875
3886.42179,0.30945
3884.49305,0.30995
3882.56430,0.31021
3880.63556,0.31051
3878.70681,0.31100
3876.77807,0.31158
3874.84932,0.31208
3872.92058,0.31253
3870.99183,0.31320
3869.06309,0.31440
3867.13434,0.31593
3865.20560,0.31742
3863.27685,0.31873
3861.34811,0.31977
3859.41936,0.32091
3857.49061,0.32230
3855.56187,0.32361
3853.63312,0.32443
3851.70438,0.32489
3849.77563,0.32545
3847.84689,0.32615
3845.91814,0.32682
3843.98940,0.32749
3842.06065,0.32840
3840.13191,0.32971
3838.20316,0.33105
3836.27442,0.33163
3834.34567,0.33160
3832.41693,0.33182
3830.48818,0.33231
3828.55943,0.33246
3826.63069,0.33220
3824.70194,0.33192
3822.77320,0.33204
3820.84445,0.33249
3818.91571,0.33271
3816.98696,0.33265
3815.05822,0.33266
3813.12947,0.33270
3811.20073,0.33272
3809.27198,0.33285
3807.34324,0.33317
3805.41449,0.33336
3803.48575,0.33317
3801.55700,0.33296
3799.62826,0.33311
3797.69951,0.33354
3795.77076,0.33383
3793.84202,0.33387
3791.91327,0.33394
3789.98453,0.33404
3788.05578,0.33414
3786.12704,0.33416
3784.19829,0.33387
3782.26955,0.33358
3780.34080,0.33364
3778.41206,0.33374
3776.48331,0.33344
3774.55457,0.33296
3772.62582,0.33263
3770.69708,0.33252
3768.76833,0.33252
3766.83959,0.33241
3764.91084,0.33198
3762.98209,0.33151
3761.05335,0.33132
3759.12460,0.33119
3757.19586,0.33088
3755.26711,0.33040
3753.33837,0.32979
3751.40962,0.32919
3749.48088,0.32880
3747.55213,0.32842
3745.62339,0.32778
3743.69464,0.32694
3741.76590,0.32622
3739.83715,0.32564
3737.90841,0.32485
3735.97966,0.32374
3734.05091,0.32271
3732.12217,0.32181
3730.19342,0.32069
3728.26468,0.31943
3726.33593,0.31816
3724.40719,0.31690
3722.47844,0.31560
3720.54970,0.31409
3718.62095,0.31238
3716.69221,0.31088
3714.76346,0.30953
3712.83472,0.30792
3710.90597,0.30585
3708.97723,0.30356
3707.04848,0.30146
3705.11974,0.29971
3703.19099,0.29780
3701.26224,0.29532
3699.33350,0.29276
3697.40475,0.29035
3695.47601,0.28772
3693.54726,0.28501
3691.61852,0.28235
3689.68977,0.27926
3687.76103,0.27546
3685.83228,0.27150
3683.90354,0.26786
3681.97479,0.26432
3680.04605,0.26063
3678.11730,0.25661
3676.18856,0.25167
3674.25981,0.24631
3672.33107,0.24166
3670.40232,0.23689
3668.47357,0.23155
3666.54483,0.22636
3664.61608,0.22135
3662.68734,0.21648
3660.75859,0.21183
3658.82985,0.20712
3656.90110,0.20184
3654.97236,0.19628
3653.04361,0.19147
3651.11487,0.18705
3649.18612,0.18207
3647.25738,0.17667
3645.32863,0.17164
3643.39989,0.16722
3641.47114,0.16308
3639.54239,0.15893
3637.61365,0.15473
3635.68490,0.15061
3633.75616,0.14682
3631.82741,0.14329
3629.89867,0.13926
3627.96992,0.13461
3626.04118,0.13054
3624.11243,0.12725
3622.18369,0.12404
3620.25494,0.12049
3618.32620,0.11707
3616.39745,0.11416
3614.46871,0.11114
3612.53996,0.10763
3610.61122,0.10407
3608.68247,0.10077
3606.75372,0.09780
3604.82498,0.09516
3602.89623,0.09267
3600.96749,0.09017
3599.03874,0.08759
3597.11000,0.08493
3595.18125,0.08237
3593.25251,0.08017
3591.32376,0.07850
3589.39502,0.07706
3587.46627,0.07524
3585.53753,0.07306
3583.60878,0.07095
3581.68004,0.06909
3579.75129,0.06752
3577.82254,0.06619
3575.89380,0.06487
3573.96505,0.06324
3572.03631,0.06138
3570.10756,0.05977
3568.17882,0.05859
3566.25007,0.05771
3564.32133,0.05683
3562.39258,0.05559
3560.46384,0.05412
3558.53509,0.05282
3556.60635,0.05169
3554.67760,0.05069
3552.74886,0.04979
3550.82011,0.04891
3548.89137,0.04807
3546.96262,0.04729
3545.03387,0.04640
3543.10513,0.04545
3541.17638,0.04473
3539.24764,0.04429
3537.31889,0.04393
3535.39015,0.04323
3533.46140,0.04212
3531.53266,0.04112
3529.60391,0.04039
3527.67517,0.03959
3525.74642,0.03878
3523.81768,0.03836
3521.88893,0.03820
3519.96019,0.03784
3518.03144,0.03717
3516.10270,0.03643
3514.17395,0.03585
3512.24520,0.03541
3510.31646,0.03495
3508.38771,0.03450
3506.45897,0.03416
3504.53022,0.03377
3502.60148,0.03324
3500.67273,0.03281
3498.74399,0.03254
3496.81524,0.03207
3494.88650,0.03137
3492.95775,0.03089
3491.02901,0.03075
3489.10026,0.03066
3487.17152,0.03058
3485.24277,0.03057
3483.31402,0.03060
3481.38528,0.03080
3479.45653,0.03101
3477.52779,0.03079
3475.59904,0.03024
3473.67030,0.02986
3471.74155,0.02959
3469.81281,0.02908
3467.88406,0.02854
3465.95532,0.02845
3464.02657,0.02875
3462.09783,0.02903
3460.16908,0.02903
3458.24034,0.02889
3456.31159,0.02877
3454.38285,0.02858
3452.45410,0.02836
3450.52535,0.02826
3448.59661,0.02834
3446.66786,0.02850
3444.73912,0.02855
3442.81037,0.02826
3440.88163,0.02788
3438.95288,0.02783
3437.02414,0.02788
3435.09539,0.02776
3433.16665,0.02766
3431.23790,0.02771
3429.30916,0.02774
3427.38041,0.02779
3425.45167,0.02788
3423.52292,0.02784
3421.59418,0.02792
3419.66543,0.02833
3417.73668,0.02864
3415.80794,0.02853
3413.87919,0.02817
3411.95045,0.02789
3410.02170,0.02790
3408.09296,0.02820
3406.16421,0.02852
3404.23547,0.02858
3402.30672,0.02830
3400.37798,0.02786
3398.44923,0.02760
3396.52049,0.02766
3394.59174,0.02789
3392.66300,0.02803
3390.73425,0.02820
3388.80550,0.02862
3386.87676,0.02888
3384.94801,0.02868
3383.01927,0.02841
3381.09052,0.02846
3379.16178,0.02873
3377.23303,0.02887
3375.30429,0.02877
3373.37554,0.02893
3371.44680,0.02943
3369.51805,0.02987
3367.58931,0.03001
3365.66056,0.02974
3363.73182,0.02929
3361.80307,0.02916
3359.87433,0.02934
3357.94558,0.02962
3356.01683,0.03001
3354.08809,0.03043
3352.15934,0.03079
3350.23060,0.03124
3348.30185,0.03158
3346.37311,0.03163
3344.44436,0.03180
3342.51562,0.03237
3340.58687,0.03308
3338.65813,0.03359
3336.72938,0.03375
3334.80064,0.03378
3332.87189,0.03403
3330.94315,0.03443
3329.01440,0.03474
3327.08566,0.03486
3325.15691,0.03478
3323.22816,0.03474
3321.29942,0.03466
3319.37067,0.03432
3317.44193,0.03401
3315.51318,0.03412
3313.58444,0.03453
3311.65569,0.03470
3309.72695,0.03447
3307.79820,0.03435
3305.86946,0.03454
3303.94071,0.03498
3302.01197,0.03554
3300.08322,0.03577
3298.15448,0.03544
3296.22573,0.03516
3294.29698,0.03538
3292.36824,0.03572
3290.43949,0.03588
3288.51075,0.03599
3286.58200,0.03621
3284.65326,0.03659
3282.72451,0.03694
3280.79577,0.03695
3278.86702,0.03679
3276.93828,0.03671
3275.00953,0.03684
3273.08079,0.03728
3271.15204,0.03776
3269.22330,0.03796
3267.29455,0.03823
3265.36581,0.03891
3263.43706,0.03945
3261.50831,0.03942
3259.57957,0.03937
3257.65082,0.03966
3255.72208,0.04003
3253.79333,0.04032
3251.86459,0.04060
3249.93584,0.04084
3248.00710,0.04104
3246.07835,0.04134
3244.14961,0.04168
3242.22086,0.04188
3240.29212,0.04212
3238.36337,0.04245
3236.43463,0.04247
3234.50588,0.04230
3232.57713,0.04251
3230.64839,0.04305
3228.71964,0.04359
3226.79090,0.04402
3224.86215,0.04426
3222.93341,0.04441
3221.00466,0.04462
3219.07592,0.04497
3217.14717,0.04545
3215.21843,0.04596
3213.28968,0.04649
3211.36094,0.04700
3209.43219,0.04740
3207.50345,0.04785
3205.57470,0.04838
3203.64596,0.04882
3201.71721,0.04914
3199.78846,0.04946
3197.85972,0.04988
3195.93097,0.05033
3194.00223,0.05067
3192.07348,0.05094
3190.14474,0.05125
3188.21599,0.05163
3186.28725,0.05228
3184.35850,0.05327
3182.42976,0.05420
3180.50101,0.05480
3178.57227,0.05539
3176.64352,0.05622
3174.71478,0.05700
3172.78603,0.05764
3170.85729,0.05807
3168.92854,0.05820
3166.99979,0.05849
3165.07105,0.05907
3163.14230,0.05961
3161.21356,0.06013
3159.28481,0.06069
3157.35607,0.06127
3155.42732,0.06199
3153.49858,0.06282
3151.56983,0.06357
3149.64109,0.06410
3147.71234,0.06471
3145.78360,0.06554
3143.85485,0.06631
3141.92611,0.06696
3139.99736,0.06757
3138.06861,0.06817
3136.13987,0.06893
3134.21112,0.06987
3132.28238,0.07072
3130.35363,0.07131
3128.42489,0.07186
3126.49614,0.07251
3124.56740,0.07311
3122.63865,0.07365
3120.70991,0.07424
3118.78116,0.07482
3116.85242,0.07537
3114.92367,0.07598
3112.99493,0.07669
3111.06618,0.07754
3109.13744,0.07847
3107.20869,0.07944
3105.27994,0.08055
3103.35120,0.08166
3101.42245,0.08250
3099.49371,0.08312
3097.56496,0.08363
3095.63622,0.08418
3093.70747,0.08498
3091.77873,0.08594
3089.84998,0.08702
3087.92124,0.08821
3085.99249,0.08919
3084.06375,0.08991
3082.13500,0.09061
3080.20626,0.09128
3078.27751,0.09186
3076.34877,0.09254
3074.42002,0.09350
3072.49127,0.09457
3070.56253,0.09553
3068.63378,0.09640
3066.70504,0.09721
3064.77629,0.09792
3062.84755,0.09856
3060.91880,0.09924
3058.99006,0.10003
3057.06131,0.10082
3055.13257,0.10151
3053.20382,0.10221
3051.27508,0.10282
3049.34633,0.10327
3047.41759,0.10386
3045.48884,0.10475
3043.56009,0.10568
3041.63135,0.10634
3039.70260,0.10671
3037.77386,0.10703
3035.84511,0.10761
3033.91637,0.10853
3031.98762,0.10949
3030.05888,0.11009
3028.13013,0.11035
3026.20139,0.11076
3024.27264,0.11140
3022.34390,0.11184
3020.41515,0.11215
3018.48641,0.11268
3016.55766,0.11336
3014.62892,0.11382
3012.70017,0.11389
3010.77142,0.11377
3008.84268,0.11365
3006.91393,0.11356
3004.98519,0.11352
3003.05644,0.11334
3001.12770,0.11284
2999.19895,0.11213
2997.27021,0.11130
2995.34146,0.11030
2993.41272,0.10908
2991.48397,0.10759
2989.55523,0.10580
2987.62648,0.10369
2985.69774,0.10120
2983.76899,0.09839
2981.84025,0.09527
2979.91150,0.09160
2977.98275,0.08722
2976.05401,0.08231
2974.12526,0.07742
2972.19652,0.07312
2970.26777,0.06979
2968.33903,0.06766
2966.41028,0.06652
2964.48154,0.06591
2962.55279,0.06546
2960.62405,0.06511
2958.69530,0.06483
2956.76656,0.06435
2954.83781,0.06349
2952.90907,0.06225
2950.98032,0.06061
2949.05157,0.05891
2947.12283,0.05774
2945.19408,0.05714
2943.26534,0.05672
2941.33659,0.05649
2939.40785,0.05641
2937.47910,0.05627
2935.55036,0.05620
2933.62161,0.05613
2931.69287,0.05563
2929.76412,0.05481
2927.83538,0.05403
2925.90663,0.05325
2923.97789,0.05234
2922.04914,0.05128
2920.12040,0.05022
2918.19165,0.04942
2916.26290,0.04888
2914.33416,0.04844
2912.40541,0.04808
2910.47667,0.04755
2908.54792,0.04689
2906.61918,0.04646
2904.69043,0.04647
2902.76169,0.04665
2900.83294,0.04673
2898.90420,0.04694
2896.97545,0.04752
2895.04671,0.04819
2893.11796,0.04869
2891.18922,0.04911
2889.26047,0.04965
2887.33172,0.05021
2885.40298,0.05066
2883.47423,0.05119
2881.54549,0.05184
2879.61674,0.05233
2877.68800,0.05256
2875.75925,0.05272
2873.83051,0.05289
2871.90176,0.05300
2869.97302,0.05297
2868.04427,0.05295
2866.11553,0.05331
2864.18678,0.05410
2862.25804,0.05476
2860.32929,0.05509
2858.40055,0.05550
2856.47180,0.05618
2854.54305,0.05698
2852.61431,0.05785
2850.68556,0.05892
2848.75682,0.06041
2846.82807,0.06229
2844.89933,0.06430
2842.97058,0.06632
2841.04184,0.06835
2839.11309,0.07035
2837.18435,0.07209
2835.25560,0.07356
2833.32686,0.07507
2831.39811,0.07671
2829.46937,0.07832
2827.54062,0.07974
2825.61188,0.08106
2823.68313,0.08249
2821.75438,0.08397
2819.82564,0.08547
2817.89689,0.08699
2815.96815,0.08838
2814.03940,0.08974
2812.11066,0.09135
2810.18191,0.09303
2808.25317,0.09452
2806.32442,0.09591
2804.39568,0.09715
2802.46693,0.09815
2800.53819,0.09920
2798.60944,0.10055
2796.68070,0.10180
2794.75195,0.10257
2792.82320,0.10305
2790.89446,0.10353
2788.96571,0.10413
2787.03697,0.10473
2785.10822,0.10521
2783.17948,0.10555
2781.25073,0.10571
2779.32199,0.10574
2777.39324,0.10593
2775.46450,0.10635
2773.53575,0.10672
2771.60701,0.10681
2769.67826,0.10677
2767.74952,0.10691
2765.82077,0.10719
2763.89203,0.10753
2761.96328,0.10790
2760.03453,0.10817
2758.10579,0.10836
2756.17704,0.10860
2754.24830,0.10872
2752.31955,0.10859
2750.39081,0.10838
2748.46206,0.10823
2746.53332,0.10809
2744.60457,0.10795
2742.67583,0.10787
2740.74708,0.10788
2738.81834,0.10794
2736.88959,0.10794
2734.96085,0.10806
2733.03210,0.10851
2731.10336,0.10911
2729.17461,0.10956
2727.24586,0.10977
2725.31712,0.10991
2723.38837,0.11023
2721.45963,0.11083
2719.53088,0.11150
2717.60214,0.11195
2715.67339,0.11227
2713.74465,0.11293
2711.81590,0.11389
2709.88716,0.11475
2707.95841,0.11560
2706.02967,0.11663
2704.10092,0.11770
2702.17218,0.11889
2700.24343,0.12011
2698.31468,0.12114
2696.38594,0.12207
2694.45719,0.12307
2692.52845,0.12411
2690.59970,0.12518
2688.67096,0.12632
2686.74221,0.12744
2684.81347,0.12849
2682.88472,0.12954
2680.95598,0.13054
2679.02723,0.13151
2677.09849,0.13251
2675.16974,0.13332
2673.24100,0.13392
2671.31225,0.13456
2669.38351,0.13523
2667.45476,0.13568
2665.52601,0.13590
2663.59727,0.13614
2661.66852,0.13655
2659.73978,0.13709
2657.81103,0.13764
2655.88229,0.13820
2653.95354,0.13887
2652.02480,0.13964
2650.09605,0.14049
2648.16731,0.14140
2646.23856,0.14218
2644.30982,0.14282
2642.38107,0.14356
2640.45233,0.14440
2638.52358,0.14509
2636.59484,0.14562
2634.66609,0.14625
2632.73734,0.14703
2630.80860,0.14779
2628.87985,0.14850
2626.95111,0.14936
2625.02236,0.15026
2623.09362,0.15097
2621.16487,0.15158
2619.23613,0.15223
2617.30738,0.15290
2615.37864,0.15353
2613.44989,0.15395
2611.52115,0.15412
2609.59240,0.15435
2607.66366,0.15495
2605.73491,0.15580
2603.80616,0.15639
2601.87742,0.15668
2599.94867,0.15706
2598.01993,0.15773
2596.09118,0.15851
2594.16244,0.15908
2592.23369,0.15928
2590.30495,0.15921
2588.37620,0.15918
2586.44746,0.15940
2584.51871,0.15985
2582.58997,0.16035
2580.66122,0.16064
2578.73248,0.16065
2576.80373,0.16064
2574.87499,0.16058
2572.94624,0.16035
2571.01749,0.16016
2569.08875,0.16019
2567.16000,0.16013
2565.23126,0.15970
2563.30251,0.15917
2561.37377,0.15888
2559.44502,0.15883
2557.51628,0.15878
2555.58753,0.15845
2553.65879,0.15789
2551.73004,0.15742
2549.80130,0.15712
2547.87255,0.15689
2545.94381,0.15676
2544.01506,0.15675
2542.08631,0.15673
2540.15757,0.15670
2538.22882,0.15679
2536.30008,0.15690
2534.37133,0.15706
2532.44259,0.15741
2530.51384,0.15772
2528.58510,0.15789
2526.65635,0.15820
2524.72761,0.15863
2522.79886,0.15889
2520.87012,0.15905
2518.94137,0.15926
2517.01263,0.15956
2515.08388,0.15997
2513.15514,0.16044
2511.22639,0.16134
2509.29764,0.16287
2507.36890,0.16459
2505.44015,0.16600
2503.51141,0.16714
2501.58266,0.16832
2499.65392,0.16960
2497.72517,0.17082
2495.79643,0.17193
2493.86768,0.17297
2491.93894,0.17398
2490.01019,0.17498
2488.08145,0.17605
2486.15270,0.17714
2484.22396,0.17799
2482.29521,0.17863
2480.36647,0.17927
2478.43772,0.18005
2476.50897,0.18097
2474.58023,0.18195
2472.65148,0.18294
2470.72274,0.18397
2468.79399,0.18485
2466.86525,0.18533
2464.93650,0.18556
2463.00776,0.18585
2461.07901,0.18626
2459.15027,0.18678
2457.22152,0.18746
2455.29278,0.18812
2453.36403,0.18874
2451.43529,0.18946
2449.50654,0.19027
2447.57779,0.19104
2445.64905,0.19181
2443.72030,0.19271
2441.79156,0.19364
2439.86281,0.19463
2437.93407,0.19579
2436.00532,0.19699
2434.07658,0.19805
2432.14783,0.19910
2430.21909,0.20026
2428.29034,0.20136
2426.36160,0.20236
2424.43285,0.20350
2422.50411,0.20479
2420.57536,0.20609
2418.64662,0.20730
2416.71787,0.20830
2414.78912,0.20909
2412.86038,0.20975
2410.93163,0.21045
2409.00289,0.21125
2407.07414,0.21204
2405.14540,0.21278
2403.21665,0.21355
2401.28791,0.21434
2399.35916,0.21522
2397.43042,0.21623
2395.50167,0.21715
2393.57293,0.21789
2391.64418,0.21866
2389.71544,0.21951
2387.78669,0.22026
2385.85795,0.22099
2383.92920,0.22179
2382.00045,0.22259
2380.07171,0.22351
2378.14296,0.22463
2376.21422,0.22571
2374.28547,0.22670
2372.35673,0.22777
2370.42798,0.22883
2368.49924,0.22979
2366.57049,0.23065
2364.64175,0.23127
2362.71300,0.23182
2360.78426,0.23258
2358.85551,0.23333
2356.92677,0.23385
2354.99802,0.23433
2353.06927,0.23487
2351.14053,0.23549
2349.21178,0.23634
2347.28304,0.23736
2345.35429,0.23829
2343.42555,0.23907
2341.49680,0.23982
2339.56806,0.24056
2337.63931,0.24134
2335.71057,0.24214
2333.78182,0.24272
2331.85308,0.24305
2329.92433,0.24336
2327.99559,0.24382
2326.06684,0.24443
2324.13810,0.24499
2322.20935,0.24544
2320.28060,0.24583
2318.35186,0.24616
2316.42311,0.24646
2314.49437,0.24680
2312.56562,0.24714
2310.63688,0.24734
2308.70813,0.24737
2306.77939,0.24718
2304.85064,0.24682
2302.92190,0.24650
2300.99315,0.24614
2299.06441,0.24553
2297.13566,0.24492
2295.20692,0.24443
2293.27817,0.24395
2291.34943,0.24355
2289.42068,0.24333
2287.49193,0.24314
2285.56319,0.24284
2283.63444,0.24254
2281.70570,0.24234
2279.77695,0.24207
2277.84821,0.24162
2275.91946,0.24099
2273.99072,0.24012
2272.06197,0.23906
2270.13323,0.23796
2268.20448,0.23676
2266.27574,0.23530
2264.34699,0.23360
2262.41825,0.23202
2260.48950,0.23075
2258.56075,0.22965
2256.63201,0.22863
2254.70326,0.22774
2252.77452,0.22696
2250.84577,0.22631
2248.91703,0.22582
2246.98828,0.22541
2245.05954,0.22493
2243.13079,0.22445
2241.20205,0.22409
2239.27330,0.22389
2237.34456,0.22383
2235.41581,0.22378
2233.48707,0.22358
2231.55832,0.22334
2229.62958,0.22323
2227.70083,0.22341
2225.77208,0.22390
2223.84334,0.22447
2221.91459,0.22508
2219.98585,0.22592
2218.05710,0.22698
2216.12836,0.22804
2214.19961,0.22892
2212.27087,0.22952
2210.34212,0.22983
2208.41338,0.23005
2206.48463,0.23026
2204.55589,0.23021
2202.62714,0.22986
2200.69840,0.22945
2198.76965,0.22911
2196.84090,0.22874
2194.91216,0.22822
2192.98341,0.22739
2191.05467,0.22626
2189.12592,0.22506
2187.19718,0.22385
2185.26843,0.22245
2183.33969,0.22081
2181.41094,0.21909
2179.48220,0.21739
2177.55345,0.21578
2175.62471,0.21427
2173.69596,0.21271
2171.76722,0.21100
2169.83847,0.20922
2167.90973,0.20741
2165.98098,0.20571
2164.05223,0.20432
2162.12349,0.20320
2160.19474,0.20215
2158.26600,0.20107
2156.33725,0.20006
2154.40851,0.19922
2152.47976,0.19848
2150.55102,0.19782
2148.62227,0.19733
2146.69353,0.19683
2144.76478,0.19612
2142.83604,0.19528
2140.90729,0.19449
2138.97855,0.19388
2137.04980,0.19355
2135.12106,0.19337
2133.19231,0.19323
2131.26356,0.19336
2129.33482,0.19394
2127.40607,0.19481
2125.47733,0.19573
2123.54858,0.19655
2121.61984,0.19728
2119.69109,0.19813
2117.76235,0.19918
2115.83360,0.20032
2113.90486,0.20141
2111.97611,0.20234
2110.04737,0.20321
2108.11862,0.20414
2106.18988,0.20505
2104.26113,0.20584
2102.33238,0.20663
2100.40364,0.20752
2098.47489,0.20837
2096.54615,0.20909
2094.61740,0.20966
2092.68866,0.21022
2090.75991,0.21091
2088.83117,0.21167
2086.90242,0.21226
2084.97368,0.21266
2083.04493,0.21299
2081.11619,0.21321
2079.18744,0.21318
2077.25870,0.21295
2075.32995,0.21263
2073.40121,0.21235
2071.47246,0.21214
2069.54371,0.21188
2067.61497,0.21159
2065.68622,0.21141
2063.75748,0.21137
2061.82873,0.21143
2059.89999,0.21153
2057.97124,0.21158
2056.04250,0.21167
2054.11375,0.21183
2052.18501,0.21188
2050.25626,0.21186
2048.32752,0.21200
2046.39877,0.21224
2044.47003,0.21259
2042.54128,0.21318
2040.61254,0.21387
2038.68379,0.21453
2036.75504,0.21545
2034.82630,0.21682
2032.89755,0.21840
2030.96881,0.21996
2029.04006,0.22166
2027.11132,0.22352
2025.18257,0.22544
2023.25383,0.22741
2021.32508,0.22934
2019.39634,0.23119
2017.46759,0.23304
2015.53885,0.23481
2013.61010,0.23633
2011.68136,0.23771
2009.75261,0.23905
2007.82386,0.24015
2005.89512,0.24084
2003.96637,0.24123
2002.03763,0.24150
2000.10888,0.24180
1998.18014,0.24229
1996.25139,0.24299
1994.32265,0.24394
1992.39390,0.24514
1990.46516,0.24631
1988.53641,0.24732
1986.60767,0.24832
1984.67892,0.24934
1982.75018,0.25028
1980.82143,0.25108
1978.89269,0.25166
1976.96394,0.25202
1975.03519,0.25232
1973.10645,0.25264
1971.17770,0.25294
1969.24896,0.25321
1967.32021,0.25356
1965.39147,0.25403
1963.46272,0.25449
1961.53398,0.25481
1959.60523,0.25523
1957.67649,0.25604
1955.74774,0.25706
1953.81900,0.25797
1951.89025,0.25885
1949.96151,0.25997
1948.03276,0.26137
1946.10402,0.26286
1944.17527,0.26433
1942.24652,0.26585
1940.31778,0.26735
1938.38903,0.26869
1936.46029,0.26997
1934.53154,0.27133
1932.60280,0.27268
1930.67405,0.27383
1928.74531,0.27471
1926.81656,0.27545
1924.88782,0.27616
1922.95907,0.27680
1921.03033,0.27739
1919.10158,0.27791
1917.17284,0.27838
1915.24409,0.27882
1913.31534,0.27924
1911.38660,0.27973
1909.45785,0.28025
1907.52911,0.28058
1905.60036,0.28072
1903.67162,0.28086
1901.74287,0.28103
1899.81413,0.28107
1897.88538,0.28088
1895.95664,0.28062
1894.02789,0.28041
1892.09915,0.28013
1890.17040,0.27976
1888.24166,0.27940
1886.31291,0.27925
1884.38417,0.27925
1882.45542,0.27915
1880.52667,0.27885
1878.59793,0.27852
1876.66918,0.27829
1874.74044,0.27808
1872.81169,0.27778
1870.88295,0.27754
1868.95420,0.27733
1867.02546,0.27699
1865.09671,0.27646
1863.16797,0.27582
1861.23922,0.27517
1859.31048,0.27447
1857.38173,0.27366
1855.45299,0.27272
1853.52424,0.27164
1851.59549,0.27045
1849.66675,0.26934
1847.73800,0.26841
1845.80926,0.26741
1843.88051,0.26619
1841.95177,0.26501
1840.02302,0.26407
1838.09428,0.26329
1836.16553,0.26261
1834.23679,0.26195
1832.30804,0.26121
1830.37930,0.26046
1828.45055,0.25978
1826.52181,0.25909
1824.59306,0.25824
1822.66432,0.25727
1820.73557,0.25631
1818.80682,0.25529
1816.87808,0.25425
1814.94933,0.25327
1813.02059,0.25228
1811.09184,0.25123
1809.16310,0.25013
1807.23435,0.24889
1805.30561,0.24752
1803.37686,0.24617
1801.44812,0.24490
1799.51937,0.24370
1797.59063,0.24250
1795.66188,0.24133
1793.73314,0.24020
1791.80439,0.23895
1789.87565,0.23762
1787.94690,0.23641
1786.01815,0.23530
1784.08941,0.23424
1782.16066,0.23300
1780.23192,0.23139
1778.30317,0.22974
1776.37443,0.22830
1774.44568,0.22684
1772.51694,0.22510
1770.58819,0.22314
1768.65945,0.22122
1766.73070,0.21954
1764.80196,0.21813
1762.87321,0.21667
1760.94447,0.21513
1759.01572,0.21371
1757.08697,0.21220
1755.15823,0.21060
1753.22948,0.20913
1751.30074,0.20760
1749.37199,0.20591
1747.44325,0.20414
1745.51450,0.20226
1743.58576,0.20031
1741.65701,0.19828
1739.72827,0.19616
1737.79952,0.19429
1735.87078,0.19277
1733.94203,0.19109
1732.01329,0.18928
1730.08454,0.18774
1728.15580,0.18646
1726.22705,0.18540
1724.29830,0.18450
1722.36956,0.18368
1720.44081,0.18275
1718.51207,0.18138
1716.58332,0.17978
1714.65458,0.17843
1712.72583,0.17717
1710.79709,0.17577
1708.86834,0.17436
1706.93960,0.17286
1705.01085,0.17122
1703.08211,0.16963
1701.15336,0.16776
1699.22462,0.16539
1697.29587,0.16288
1695.36713,0.15999
1693.43838,0.15688
1691.50963,0.15400
1689.58089,0.15114
1687.65214,0.14833
1685.72340,0.14518
1683.79465,0.14119
1681.86591,0.13749
1679.93716,0.13456
1678.00842,0.13163
1676.07967,0.12811
1674.15093,0.12433
1672.22218,0.12128
1670.29344,0.11861
1668.36469,0.11574
1666.43595,0.11315
1664.50720,0.11097
1662.57845,0.10899
1660.64971,0.10736
1658.72096,0.10615
1656.79222,0.10515
1654.86347,0.10396
1652.93473,0.10223
1651.00598,0.10086
1649.07724,0.10024
1647.14849,0.09962
1645.21975,0.09876
1643.29100,0.09809
1641.36226,0.09774
1639.43351,0.09760
1637.50477,0.09749
1635.57602,0.09731
1633.64728,0.09723
1631.71853,0.09735
1629.78978,0.09756
1627.86104,0.09778
1625.93229,0.09814
1624.00355,0.09879
1622.07480,0.09965
1620.14606,0.10041
1618.21731,0.10100
1616.28857,0.10155
1614.35982,0.10210
1612.43108,0.10266
1610.50233,0.10314
1608.57359,0.10348
1606.64484,0.10379
1604.71610,0.10427
1602.78735,0.10489
1600.85861,0.10549
1598.92986,0.10608
1597.00111,0.10679
1595.07237,0.10768
1593.14362,0.10871
1591.21488,0.10988
1589.28613,0.11124
1587.35739,0.11275
1585.42864,0.11422
1583.49990,0.11559
1581.57115,0.11697
1579.64241,0.11848
1577.71366,0.12007
1575.78492,0.12143
1573.85617,0.12237
1571.92743,0.12330
1569.99868,0.12433
1568.06993,0.12520
1566.14119,0.12582
1564.21244,0.12620
1562.28370,0.12650
1560.35495,0.12703
1558.42621,0.12757
1556.49746,0.12754
1554.56872,0.12733
1552.63997,0.12728
1550.71123,0.12724
1548.78248,0.12705
1546.85374,0.12682
1544.92499,0.12685
1542.99625,0.12722
1541.06750,0.12747
1539.13876,0.12693
1537.21001,0.12603
1535.28126,0.12529
1533.35252,0.12452
1531.42377,0.12370
1529.49503,0.12293
1527.56628,0.12206
1525.63754,0.12101
1523.70879,0.11972
1521.78005,0.11796
1519.85130,0.11583
1517.92256,0.11356
1515.99381,0.11113
1514.06507,0.10893
1512.13632,0.10716
1510.20758,0.10579
1508.27883,0.10452
1506.35008,0.10278
1504.42134,0.10097
1502.49259,0.09960
1500.56385,0.09818
1498.63510,0.09631
1496.70636,0.09399
1494.77761,0.09144
1492.84887,0.08873
1490.92012,0.08543
1488.99138,0.08132
1487.06263,0.07671
1485.13389,0.07205
1483.20514,0.06807
1481.27640,0.06531
1479.34765,0.06354
1477.41891,0.06194
1475.49016,0.05996
1473.56141,0.05755
1471.63267,0.05496
1469.70392,0.05266
1467.77518,0.05067
1465.84643,0.04871
1463.91769,0.04678
1461.98894,0.04514
1460.06020,0.04382
1458.13145,0.04255
1456.20271,0.04139
1454.27396,0.04073
1452.34522,0.04038
1450.41647,0.03992
1448.48773,0.03936
1446.55898,0.03880
1444.63024,0.03822
1442.70149,0.03765
1440.77274,0.03709
1438.84400,0.03637
1436.91525,0.03544
1434.98651,0.03465
1433.05776,0.03429
1431.12902,0.03444
1429.20027,0.03510
1427.27153,0.03592
1425.34278,0.03673
1423.41404,0.03764
1421.48529,0.03881
1419.55655,0.04032
1417.62780,0.04180
1415.69906,0.04289
1413.77031,0.04364
1411.84156,0.04398
1409.91282,0.04389
1407.98407,0.04371
1406.05533,0.04377
1404.12658,0.04402
1402.19784,0.04419
1400.26909,0.04409
1398.34035,0.04373
1396.41160,0.04316
1394.48286,0.04225
1392.55411,0.04122
1390.62537,0.04037
1388.69662,0.03939
1386.76788,0.03787
1384.83913,0.03615
1382.91039,0.03471
1380.98164,0.03356
1379.05289,0.03271
1377.12415,0.03220
1375.19540,0.03186
1373.26666,0.03172
1371.33791,0.03186
1369.40917,0.03214
1367.48042,0.03252
1365.55168,0.03294
1363.62293,0.03321
1361.69419,0.03337
1359.76544,0.03357
1357.83670,0.03379
1355.90795,0.03402
1353.97921,0.03439
1352.05046,0.03489
1350.12172,0.03518
1348.19297,0.03505
1346.26422,0.03465
1344.33548,0.03427
1342.40673,0.03389
1340.47799,0.03345
1338.54924,0.03318
1336.62050,0.03328
1334.69175,0.03369
1332.76301,0.03414
1330.83426,0.03429
1328.90552,0.03417
1326.97677,0.03409
1325.04803,0.03412
1323.11928,0.03412
1321.19054,0.03411
1319.26179,0.03416
1317.33304,0.03447
1315.40430,0.03523
1313.47555,0.03622
1311.54681,0.03707
1309.61806,0.03792
1307.68932,0.03895
1305.76057,0.03993
1303.83183,0.04071
1301.90308,0.04138
1299.97434,0.04191
1298.04559,0.04216
1296.11685,0.04208
1294.18810,0.04164
1292.25936,0.04090
1290.33061,0.04015
1288.40187,0.03952
1286.47312,0.03891
1284.54437,0.03820
1282.61563,0.03768
1280.68688,0.03790
1278.75814,0.03873
1276.82939,0.03961
1274.90065,0.04032
1272.97190,0.04080
1271.04316,0.04093
1269.11441,0.04063
1267.18567,0.03991
1265.25692,0.03920
1263.32818,0.03901
1261.39943,0.03936
1259.47069,0.03984
1257.54194,0.04015
1255.61320,0.04022
1253.68445,0.04015
1251.75570,0.03997
1249.82696,0.03962
1247.89821,0.03922
1245.96947,0.03900
1244.04072,0.03891
1242.11198,0.03884
1240.18323,0.03874
1238.25449,0.03852
1236.32574,0.03823
1234.39700,0.03816
1232.46825,0.03850
1230.53951,0.03908
1228.61076,0.03955
1226.68202,0.03993
1224.75327,0.04034
1222.82452,0.04051
1220.89578,0.04033
1218.96703,0.03985
1217.03829,0.03899
1215.10954,0.03783
1213.18080,0.03637
1211.25205,0.03450
1209.32331,0.03261
1207.39456,0.03113
1205.46582,0.03017
1203.53707,0.02981
1201.60833,0.02988
1199.67958,0.02997
1197.75084,0.02998
1195.82209,0.03004
1193.89335,0.03023
1191.96460,0.03024
1190.03585,0.02981
1188.10711,0.02927
1186.17836,0.02876
1184.24962,0.02807
1182.32087,0.02725
1180.39213,0.02662
1178.46338,0.02659
1176.53464,0.02740
1174.60589,0.02904
1172.67715,0.03162
1170.74840,0.03498
1168.81966,0.03837
1166.89091,0.04101
1164.96217,0.04243
1163.03342,0.04241
1161.10467,0.04110
1159.17593,0.03914
1157.24718,0.03719
1155.31844,0.03553
1153.38969,0.03415
1151.46095,0.03291
1149.53220,0.03170
1147.60346,0.03056
1145.67471,0.02954
1143.74597,0.02853
1141.81722,0.02735
1139.88848,0.02599
1137.95973,0.02459
1136.03099,0.02338
1134.10224,0.02265
1132.17350,0.02249
1130.24475,0.02273
1128.31600,0.02331
1126.38726,0.02420
1124.45851,0.02525
1122.52977,0.02628
1120.60102,0.02731
1118.67228,0.02858
1116.74353,0.03011
1114.81479,0.03175
1112.88604,0.03325
1110.95730,0.03426
1109.02855,0.03464
1107.09981,0.03433
1105.17106,0.03352
1103.24232,0.03290
1101.31357,0.03260
1099.38483,0.03217
1097.45608,0.03160
1095.52733,0.03100
1093.59859,0.03037
1091.66984,0.02986
1089.74110,0.02971
1087.81235,0.03008
1085.88361,0.03108
1083.95486,0.03261
1082.02612,0.03466
1080.09737,0.03762
1078.16863,0.04125
1076.23988,0.04442
1074.31114,0.04687
1072.38239,0.04954
1070.45365,0.05293
1068.52490,0.05679
1066.59615,0.06078
1064.66741,0.06469
1062.73866,0.06798
1060.80992,0.06971
1058.88117,0.06952
1056.95243,0.06801
1055.02368,0.06583
1053.09494,0.06321
1051.16619,0.06025
1049.23745,0.05735
1047.30870,0.05494
1045.37996,0.05317
1043.45121,0.05250
1041.52247,0.05373
1039.59372,0.05654
1037.66498,0.05965
1035.73623,0.06196
1033.80748,0.06302
1031.87874,0.06316
1029.94999,0.06283
1028.02125,0.06200
1026.09250,0.06071
1024.16376,0.05935
1022.23501,0.05849
1020.30627,0.05808
1018.37752,0.05778
1016.44878,0.05793
1014.52003,0.05851
1012.59129,0.05885
1010.66254,0.05882
1008.73380,0.05851
1006.80505,0.05784
1004.87631,0.05711
1002.94756,0.05683
1001.01881,0.05730
999.09007,0.05834
997.16132,0.05924
995.23258,0.05963
993.30383,0.05986
991.37509,0.06014
989.44634,0.06042
987.51760,0.06109
985.58885,0.06267
983.66011,0.06511
981.73136,0.06816
979.80262,0.07170
977.87387,0.07522
975.94513,0.07820
974.01638,0.08041
972.08763,0.08203
970.15889,0.08366
968.23014,0.08554
966.30140,0.08747
964.37265,0.08975
962.44391,0.09259
960.51516,0.09558
958.58642,0.09839
956.65767,0.10104
954.72893,0.10356
952.80018,0.10589
950.87144,0.10803
948.94269,0.10995
947.01395,0.11149
945.08520,0.11273
943.15646,0.11375
941.22771,0.11425
939.29896,0.11421
937.37022,0.11411
935.44147,0.11418
933.51273,0.11431
931.58398,0.11460
929.65524,0.11498
927.72649,0.11528
925.79775,0.11540
923.86900,0.11524
921.94026,0.11468
920.01151,0.11376
918.08277,0.11225
916.15402,0.10996
914.22528,0.10708
912.29653,0.10396
910.36779,0.10098
908.43904,0.09838
906.51029,0.09597
904.58155,0.09346
902.65280,0.09103
900.72406,0.08906
898.79531,0.08776
896.86657,0.08740
894.93782,0.08806
893.00908,0.08962
891.08033,0.09223
889.15159,0.09590
887.22284,0.09974
885.29410,0.10287
883.36535,0.10529
881.43661,0.10752
879.50786,0.10954
877.57911,0.11104
875.65037,0.11240
873.72162,0.11420
871.79288,0.11623
869.86413,0.11787
867.93539,0.11900
866.00664,0.11991
864.07790,0.12084
862.14915,0.12179
860.22041,0.12248
858.29166,0.12270
856.36292,0.12260
854.43417,0.12251
852.50543,0.12258
850.57668,0.12272
848.64794,0.12256
846.71919,0.12169
844.79044,0.12031
842.86170,0.11877
840.93295,0.11723
839.00421,0.11589
837.07546,0.11464
835.14672,0.11325
833.21797,0.11155
831.28923,0.10941
829.36048,0.10674
827.43174,0.10351
825.50299,0.10013
823.57425,0.09735
821.64550,0.09512
819.71676,0.09296
817.78801,0.09103
815.85926,0.08952
813.93052,0.08814
812.00177,0.08672
810.07303,0.08532
808.14428,0.08384
806.21554,0.08218
804.28679,0.08060
802.35805,0.07968
800.42930,0.07942
798.50056,0.07942
796.57181,0.07954
794.64307,0.08002
792.71432,0.08093
790.78558,0.08174
788.85683,0.08222
786.92809,0.08295
784.99934,0.08400
783.07059,0.08460
781.14185,0.08437
779.21310,0.08360
777.28436,0.08278
775.35561,0.08197
773.42687,0.08097
771.49812,0.08002
769.56938,0.07935
767.64063,0.07855
765.71189,0.07729
763.78314,0.07573
761.85440,0.07423
759.92565,0.07298
757.99691,0.07202
756.06816,0.07116
754.13942,0.07022
752.21067,0.06915
750.28192,0.06777
748.35318,0.06617
746.42443,0.06492
744.49569,0.06411
742.56694,0.06309
740.63820,0.06155
738.70945,0.06001
736.78071,0.05865
734.85196,0.05728
732.92322,0.05587
730.99447,0.05452
729.06573,0.05333
727.13698,0.05218
725.20824,0.05097
723.27949,0.04977
721.35074,0.04878
719.42200,0.04819
717.49325,0.04790
715.56451,0.04760
713.63576,0.04722
711.70702,0.04704
709.77827,0.04730
707.84953,0.04781
705.92078,0.04827
703.99204,0.04829
702.06329,0.04798
700.13455,0.04803
698.20580,0.04848
696.27706,0.04873
694.34831,0.04864
692.41957,0.04850
690.49082,0.04835
688.56207,0.04805
686.63333,0.04759
684.70458,0.04683
682.77584,0.04645
680.84709,0.04711
678.91835,0.04781
676.98960,0.04760
675.06086,0.04682
673.13211,0.04639
671.20337,0.04637
669.27462,0.04614
667.34588,0.04591
665.41713,0.04598
663.48839,0.04603
661.55964,0.04619
659.63090,0.04658
657.70215,0.04669
655.77340,0.04664
653.84466,0.04676
651.91591,0.04669
649.98717,0.04639
648.05842,0.04640
646.12968,0.04634
644.20093,0.04513
642.27219,0.04307
640.34344,0.04156
638.41470,0.04122
636.48595,0.04127
634.55721,0.04060
632.62846,0.03941
630.69972,0.03864
628.77097,0.03867
626.84222,0.03939
624.91348,0.04020
622.98473,0.04072
621.05599,0.04127
619.12724,0.04230
617.19850,0.04349
615.26975,0.04420
613.34101,0.04487
611.41226,0.04565
609.48352,0.04589
607.55477,0.04611
605.62603,0.04636
603.69728,0.04591
601.76854,0.04528
599.83979,0.04453
