7497.02977,0.83207
7495.10103,0.83384
7493.17228,0.83333
7491.24354,0.83531
7489.31479,0.83932
7487.38605,0.84107
7485.45730,0.83989
7483.52856,0.83737
7481.59982,0.83585
7479.67107,0.83618
7477.74233,0.83735
7475.81358,0.83844
7473.88484,0.83891
7471.95609,0.83831
7470.02735,0.83580
7468.09860,0.83415
7466.16986,0.83571
7464.24112,0.83554
7462.31237,0.83371
7460.38363,0.83553
7458.45488,0.83716
7456.52614,0.83298
7454.59739,0.82872
7452.66865,0.83228
7450.73990,0.83797
7448.81116,0.83693
7446.88242,0.83330
7444.95367,0.83304
7443.02493,0.83550
7441.09618,0.83732
7439.16744,0.83619
7437.23869,0.83249
7435.30995,0.82730
7433.38120,0.82406
7431.45246,0.82355
7429.52371,0.82339
7427.59497,0.82715
7425.66623,0.83361
7423.73748,0.83486
7421.80874,0.83390
7419.87999,0.83599
7417.95125,0.83533
7416.02250,0.82851
7414.09376,0.82138
7412.16501,0.81737
7410.23627,0.81728
7408.30753,0.82202
7406.37878,0.82659
7404.45004,0.82649
7402.52129,0.82298
7400.59255,0.81888
7398.66380,0.82069
7396.73506,0.82894
7394.80631,0.83195
7392.87757,0.82641
7390.94883,0.82047
7389.02008,0.81777
7387.09134,0.81827
7385.16259,0.82137
7383.23385,0.82381
7381.30510,0.82361
7379.37636,0.82323
7377.44761,0.82522
7375.51887,0.82721
7373.59013,0.82528
7371.66138,0.82059
7369.73264,0.81787
7367.80389,0.81887
7365.87515,0.82000
7363.94640,0.81874
7362.01766,0.81716
7360.08891,0.81636
7358.16017,0.81707
7356.23142,0.81948
7354.30268,0.81837
7352.37394,0.81409
7350.44519,0.81476
7348.51645,0.81905
7346.58770,0.82035
7344.65896,0.82096
7342.73021,0.82264
7340.80147,0.82021
7338.87272,0.81356
7336.94398,0.80993
7335.01524,0.81188
7333.08649,0.81514
7331.15775,0.81692
7329.22900,0.82010
7327.30026,0.82682
7325.37151,0.83110
7323.44277,0.82794
7321.51402,0.82334
7319.58528,0.82191
7317.65654,0.81910
7315.72779,0.81547
7313.79905,0.81867
7311.87030,0.82644
7309.94156,0.82847
7308.01281,0.82344
7306.08407,0.81675
7304.15532,0.81224
7302.22658,0.81383
7300.29784,0.82119
7298.36909,0.82601
7296.44035,0.82197
7294.51160,0.81421
7292.58286,0.81108
7290.65411,0.81258
7288.72537,0.81565
7286.79662,0.81903
7284.86788,0.81930
7282.93913,0.81623
7281.01039,0.81546
7279.08165,0.81834
7277.15290,0.81860
7275.22416,0.81461
7273.29541,0.81465
7271.36667,0.82019
7269.43792,0.82196
7267.50918,0.81699
7265.58043,0.81039
7263.65169,0.80735
7261.72295,0.80898
7259.79420,0.81234
7257.86546,0.81616
7255.93671,0.81937
7254.00797,0.81954
7252.07922,0.81845
7250.15048,0.81854
7248.22173,0.81774
7246.29299,0.81569
7244.36425,0.81540
7242.43550,0.81746
7240.50676,0.82095
7238.57801,0.82347
7236.64927,0.82305
7234.72052,0.82119
7232.79178,0.81864
7230.86303,0.81646
7228.93429,0.81602
7227.00554,0.81643
7225.07680,0.81662
7223.14806,0.81427
7221.21931,0.80937
7219.29057,0.80616
7217.36182,0.80711
7215.43308,0.81192
7213.50433,0.81781
7211.57559,0.81958
7209.64684,0.81613
7207.71810,0.81299
7205.78936,0.81317
7203.86061,0.81438
7201.93187,0.81463
7200.00312,0.81328
7198.07438,0.81167
7196.14563,0.81156
7194.21689,0.81158
7192.28814,0.81059
7190.35940,0.80988
7188.43066,0.81125
7186.50191,0.81469
7184.57317,0.81612
7182.64442,0.81446
7180.71568,0.81543
7178.78693,0.81929
7176.85819,0.82119
7174.92944,0.81936
7173.00070,0.81376
7171.07196,0.80984
7169.14321,0.81347
7167.21447,0.82070
7165.28572,0.82358
7163.35698,0.81811
7161.42823,0.80886
7159.49949,0.80498
7157.57074,0.80715
7155.64200,0.81017
7153.71325,0.81306
7151.78451,0.81472
7149.85577,0.81267
7147.92702,0.81062
7145.99828,0.81243
7144.06953,0.81368
7142.14079,0.81201
7140.21204,0.81160
7138.28330,0.81360
7136.35455,0.81386
7134.42581,0.81022
7132.49707,0.80755
7130.56832,0.80933
7128.63958,0.81085
7126.71083,0.80925
7124.78209,0.80943
7122.85334,0.81365
7120.92460,0.81694
7118.99585,0.81727
7117.06711,0.81831
7115.13837,0.81952
7113.20962,0.81565
7111.28088,0.80821
7109.35213,0.80588
7107.42339,0.80986
7105.49464,0.81293
7103.56590,0.81257
7101.63715,0.81213
7099.70841,0.81223
7097.77967,0.81051
7095.85092,0.80695
7093.92218,0.80388
7091.99343,0.80395
7090.06469,0.80557
7088.13594,0.80437
7086.20720,0.80306
7084.27845,0.80462
7082.34971,0.80583
7080.42096,0.80646
7078.49222,0.80701
7076.56348,0.80590
7074.63473,0.80578
7072.70599,0.80920
7070.77724,0.81391
7068.84850,0.81592
7066.91975,0.81297
7064.99101,0.80848
7063.06226,0.80650
7061.13352,0.80553
7059.20478,0.80394
7057.27603,0.80288
7055.34729,0.80410
7053.41854,0.80752
7051.48980,0.81054
7049.56105,0.81057
7047.63231,0.80791
7045.70356,0.80537
7043.77482,0.80438
7041.84608,0.80519
7039.91733,0.80634
7037.98859,0.80516
7036.05984,0.80228
7034.13110,0.80029
7032.20235,0.80308
7030.27361,0.81039
7028.34486,0.81406
7026.41612,0.81009
7024.48738,0.80294
7022.55863,0.79981
7020.62989,0.80329
7018.70114,0.80817
7016.77240,0.81022
7014.84365,0.80916
7012.91491,0.80605
7010.98616,0.80362
7009.05742,0.80286
7007.12867,0.80276
7005.19993,0.80258
7003.27119,0.80133
7001.34244,0.79981
6999.41370,0.80073
6997.48495,0.80453
6995.55621,0.80739
6993.62746,0.80519
6991.69872,0.80045
6989.76997,0.79876
6987.84123,0.79997
6985.91249,0.80094
6983.98374,0.80161
6982.05500,0.80334
6980.12625,0.80474
6978.19751,0.80370
6976.26876,0.80281
6974.34002,0.80488
6972.41127,0.80764
6970.48253,0.80899
6968.55379,0.81065
6966.62504,0.81304
6964.69630,0.81345
6962.76755,0.81154
6960.83881,0.80993
6958.91006,0.80948
6956.98132,0.80940
6955.05257,0.80960
6953.12383,0.81009
6951.19509,0.80949
6949.26634,0.80621
6947.33760,0.80242
6945.40885,0.80196
6943.48011,0.80361
6941.55136,0.80446
6939.62262,0.80595
6937.69387,0.80908
6935.76513,0.81161
6933.83638,0.81237
6931.90764,0.81040
6929.97890,0.80574
6928.05015,0.80295
6926.12141,0.80325
6924.19266,0.80294
6922.26392,0.80223
6920.33517,0.80279
6918.40643,0.80368
6916.47768,0.80340
6914.54894,0.80377
6912.62020,0.80825
6910.69145,0.81189
6908.76271,0.80936
6906.83396,0.80697
6904.90522,0.80986
6902.97647,0.81331
6901.04773,0.81180
6899.11898,0.80761
6897.19024,0.80674
6895.26150,0.80886
6893.33275,0.80869
6891.40401,0.80630
6889.47526,0.80575
6887.54652,0.80628
6885.61777,0.80594
6883.68903,0.80490
6881.76028,0.80363
6879.83154,0.80441
6877.90280,0.80646
6875.97405,0.80654
6874.04531,0.80615
6872.11656,0.80721
6870.18782,0.80845
6868.25907,0.80884
6866.33033,0.80870
6864.40158,0.81109
6862.47284,0.81620
6860.54409,0.81675
6858.61535,0.81086
6856.68661,0.80655
6854.75786,0.80856
6852.82912,0.81187
6850.90037,0.81018
6848.97163,0.80659
6847.04288,0.80729
6845.11414,0.81125
6843.18539,0.81386
6841.25665,0.81341
6839.32791,0.81117
6837.39916,0.80868
6835.47042,0.80795
6833.54167,0.81008
6831.61293,0.81281
6829.68418,0.81369
6827.75544,0.81279
6825.82669,0.81119
6823.89795,0.81024
6821.96921,0.81055
6820.04046,0.81116
6818.11172,0.81124
6816.18297,0.81119
6814.25423,0.81118
6812.32548,0.80967
6810.39674,0.80629
6808.46799,0.80428
6806.53925,0.80525
6804.61051,0.80765
6802.68176,0.80948
6800.75302,0.80864
6798.82427,0.80698
6796.89553,0.80867
6794.96678,0.81228
6793.03804,0.81366
6791.10929,0.81345
6789.18055,0.81303
6787.25180,0.81118
6785.32306,0.80900
6783.39432,0.80841
6781.46557,0.80814
6779.53683,0.80782
6777.60808,0.80935
6775.67934,0.81099
6773.75059,0.80995
6771.82185,0.80876
6769.89310,0.80955
6767.96436,0.81028
6766.03562,0.80917
6764.10687,0.80776
6762.17813,0.80900
6760.24938,0.81206
6758.32064,0.81344
6756.39189,0.81223
6754.46315,0.81054
6752.53440,0.81080
6750.60566,0.81397
6748.67692,0.81663
6746.74817,0.81363
6744.81943,0.80905
6742.89068,0.81019
6740.96194,0.81435
6739.03319,0.81652
6737.10445,0.81626
6735.17570,0.81483
6733.24696,0.81445
6731.31822,0.81489
6729.38947,0.81328
6727.46073,0.81004
6725.53198,0.80842
6723.60324,0.80967
6721.67449,0.81200
6719.74575,0.81273
6717.81700,0.81161
6715.88826,0.81166
6713.95951,0.81454
6712.03077,0.81661
6710.10203,0.81461
6708.17328,0.81148
6706.24454,0.81057
6704.31579,0.81114
6702.38705,0.81217
6700.45830,0.81385
6698.52956,0.81549
6696.60081,0.81587
6694.67207,0.81561
6692.74333,0.81535
6690.81458,0.81428
6688.88584,0.81269
6686.95709,0.81157
6685.02835,0.81166
6683.09960,0.81355
6681.17086,0.81615
6679.24211,0.81762
6677.31337,0.81804
6675.38463,0.81771
6673.45588,0.81552
6671.52714,0.81310
6669.59839,0.81331
6667.66965,0.81359
6665.74090,0.81202
6663.81216,0.81267
6661.88341,0.81611
6659.95467,0.81753
6658.02593,0.81610
6656.09718,0.81501
6654.16844,0.81487
6652.23969,0.81496
6650.31095,0.81600
6648.38220,0.81780
6646.45346,0.81712
6644.52471,0.81129
6642.59597,0.80482
6640.66722,0.80464
6638.73848,0.80922
6636.80974,0.81293
6634.88099,0.81498
6632.95225,0.81611
6631.02350,0.81584
6629.09476,0.81516
6627.16601,0.81511
6625.23727,0.81592
6623.30852,0.81831
6621.37978,0.82092
6619.45104,0.82131
6617.52229,0.82046
6615.59355,0.81965
6613.66480,0.81738
6611.73606,0.81442
6609.80731,0.81469
6607.87857,0.81745
6605.94982,0.81814
6604.02108,0.81753
6602.09234,0.81864
6600.16359,0.81972
6598.23485,0.81846
6596.30610,0.81504
6594.37736,0.81138
6592.44861,0.81070
6590.51987,0.81291
6588.59112,0.81403
6586.66238,0.81299
6584.73364,0.81308
6582.80489,0.81633
6580.87615,0.82013
6578.94740,0.82105
6577.01866,0.81966
6575.08991,0.81797
6573.16117,0.81590
6571.23242,0.81382
6569.30368,0.81383
6567.37493,0.81579
6565.44619,0.81729
6563.51745,0.81734
6561.58870,0.81681
6559.65996,0.81714
6557.73121,0.81719
6555.80247,0.81555
6553.87372,0.81498
6551.94498,0.81608
6550.01623,0.81636
6548.08749,0.81617
6546.15875,0.81633
6544.23000,0.81591
6542.30126,0.81504
6540.37251,0.81533
6538.44377,0.81654
6536.51502,0.81732
6534.58628,0.81759
6532.65753,0.81806
6530.72879,0.81940
6528.80005,0.82045
6526.87130,0.82039
6524.94256,0.81991
6523.01381,0.81937
6521.08507,0.81974
6519.15632,0.82058
6517.22758,0.81986
6515.29883,0.81795
6513.37009,0.81710
6511.44135,0.81772
6509.51260,0.81730
6507.58386,0.81460
6505.65511,0.81359
6503.72637,0.81633
6501.79762,0.81772
6499.86888,0.81654
6497.94013,0.81762
6496.01139,0.82043
6494.08264,0.82132
6492.15390,0.82038
6490.22516,0.81911
6488.29641,0.81795
6486.36767,0.81742
6484.43892,0.81744
6482.51018,0.81839
6480.58143,0.82036
6478.65269,0.81992
6476.72394,0.81702
6474.79520,0.81574
6472.86646,0.81571
6470.93771,0.81520
6469.00897,0.81539
6467.08022,0.81708
6465.15148,0.81833
6463.22273,0.81710
6461.29399,0.81521
6459.36524,0.81512
6457.43650,0.81587
6455.50776,0.81630
6453.57901,0.81757
6451.65027,0.81922
6449.72152,0.81883
6447.79278,0.81652
6445.86403,0.81539
6443.93529,0.81745
6442.00654,0.81997
6440.07780,0.82029
6438.14906,0.81998
6436.22031,0.81940
6434.29157,0.81825
6432.36282,0.81787
6430.43408,0.81819
6428.50533,0.81926
6426.57659,0.82127
6424.64784,0.82249
6422.71910,0.82246
6420.79035,0.82225
6418.86161,0.82154
6416.93287,0.81959
6415.00412,0.81734
6413.07538,0.81640
6411.14663,0.81727
6409.21789,0.81930
6407.28914,0.82116
6405.36040,0.82124
6403.43165,0.81970
6401.50291,0.81899
6399.57417,0.81979
6397.64542,0.82033
6395.71668,0.82050
6393.78793,0.82099
6391.85919,0.82104
6389.93044,0.81994
6388.00170,0.81886
6386.07295,0.81948
6384.14421,0.82016
6382.21547,0.81904
6380.28672,0.81813
6378.35798,0.81833
6376.42923,0.81849
6374.50049,0.81847
6372.57174,0.81882
6370.64300,0.81992
6368.71425,0.82039
6366.78551,0.81922
6364.85677,0.81852
6362.92802,0.81956
6360.99928,0.82085
6359.07053,0.82054
6357.14179,0.81963
6355.21304,0.82064
6353.28430,0.82271
6351.35555,0.82270
6349.42681,0.82055
6347.49806,0.81925
6345.56932,0.81922
6343.64058,0.81851
6341.71183,0.81849
6339.78309,0.82022
6337.85434,0.82079
6335.92560,0.81902
6333.99685,0.81755
6332.06811,0.81751
6330.13936,0.81686
6328.21062,0.81555
6326.28188,0.81636
6324.35313,0.81808
6322.42439,0.81728
6320.49564,0.81506
6318.56690,0.81381
6316.63815,0.81454
6314.70941,0.81708
6312.78066,0.81877
6310.85192,0.81781
6308.92318,0.81605
6306.99443,0.81582
6305.06569,0.81686
6303.13694,0.81709
6301.20820,0.81659
6299.27945,0.81707
6297.35071,0.81843
6295.42196,0.81937
6293.49322,0.81970
6291.56447,0.81954
6289.63573,0.81865
6287.70699,0.81761
6285.77824,0.81702
6283.84950,0.81632
6281.92075,0.81576
6279.99201,0.81592
6278.06326,0.81558
6276.13452,0.81494
6274.20577,0.81598
6272.27703,0.81761
6270.34829,0.81776
6268.41954,0.81736
6266.49080,0.81773
6264.56205,0.81811
6262.63331,0.81686
6260.70456,0.81415
6258.77582,0.81262
6256.84707,0.81342
6254.91833,0.81497
6252.98959,0.81644
6251.06084,0.81734
6249.13210,0.81718
6247.20335,0.81757
6245.27461,0.81897
6243.34586,0.81849
6241.41712,0.81538
6239.48837,0.81295
6237.55963,0.81379
6235.63089,0.81659
6233.70214,0.81818
6231.77340,0.81761
6229.84465,0.81658
6227.91591,0.81618
6225.98716,0.81630
6224.05842,0.81618
6222.12967,0.81498
6220.20093,0.81368
6218.27218,0.81301
6216.34344,0.81221
6214.41470,0.81222
6212.48595,0.81332
6210.55721,0.81302
6208.62846,0.81123
6206.69972,0.80986
6204.77097,0.80873
6202.84223,0.80764
6200.91348,0.80673
6198.98474,0.80533
6197.05600,0.80336
6195.12725,0.80119
6193.19851,0.79949
6191.26976,0.79933
6189.34102,0.80090
6187.41227,0.80318
6185.48353,0.80513
6183.55478,0.80611
6181.62604,0.80536
6179.69730,0.80411
6177.76855,0.80447
6175.83981,0.80581
6173.91106,0.80719
6171.98232,0.80825
6170.05357,0.80844
6168.12483,0.80804
6166.19608,0.80689
6164.26734,0.80517
6162.33860,0.80377
6160.40985,0.80282
6158.48111,0.80283
6156.55236,0.80354
6154.62362,0.80281
6152.69487,0.80018
6150.76613,0.79791
6148.83738,0.79731
6146.90864,0.79787
6144.97989,0.79886
6143.05115,0.79918
6141.12241,0.79795
6139.19366,0.79614
6137.26492,0.79521
6135.33617,0.79534
6133.40743,0.79614
6131.47868,0.79658
6129.54994,0.79565
6127.62119,0.79426
6125.69245,0.79391
6123.76371,0.79396
6121.83496,0.79306
6119.90622,0.79237
6117.97747,0.79251
6116.04873,0.79163
6114.11998,0.78997
6112.19124,0.78825
6110.26249,0.78552
6108.33375,0.78238
6106.40501,0.77984
6104.47626,0.77766
6102.54752,0.77551
6100.61877,0.77313
6098.69003,0.76969
6096.76128,0.76497
6094.83254,0.76136
6092.90379,0.76059
6090.97505,0.75991
6089.04631,0.75695
6087.11756,0.75332
6085.18882,0.75050
6083.26007,0.74852
6081.33133,0.74697
6079.40258,0.74493
6077.47384,0.74266
6075.54509,0.74117
6073.61635,0.73998
6071.68760,0.73786
6069.75886,0.73404
6067.83012,0.72907
6065.90137,0.72481
6063.97263,0.72156
6062.04388,0.71868
6060.11514,0.71639
6058.18639,0.71369
6056.25765,0.71000
6054.32890,0.70688
6052.40016,0.70501
6050.47142,0.70384
6048.54267,0.70281
6046.61393,0.70175
6044.68518,0.70066
6042.75644,0.69887
6040.82769,0.69580
6038.89895,0.69246
6036.97020,0.68969
6035.04146,0.68685
6033.11272,0.68416
6031.18397,0.68191
6029.25523,0.67901
6027.32648,0.67648
6025.39774,0.67660
6023.46899,0.67763
6021.54025,0.67696
6019.61150,0.67604
6017.68276,0.67679
6015.75402,0.67853
6013.82527,0.67932
6011.89653,0.67884
6009.96778,0.67994
6008.03904,0.68338
6006.11029,0.68694
6004.18155,0.69038
6002.25280,0.69391
6000.32406,0.69670
5998.39531,0.69941
5996.46657,0.70253
5994.53783,0.70480
5992.60908,0.70622
5990.68034,0.70779
5988.75159,0.70909
5986.82285,0.70958
5984.89410,0.70972
5982.96536,0.71048
5981.03661,0.71187
5979.10787,0.71250
5977.17913,0.71259
5975.25038,0.71386
5973.32164,0.71600
5971.39289,0.71717
5969.46415,0.71770
5967.53540,0.71914
5965.60666,0.72092
5963.67791,0.72188
5961.74917,0.72240
5959.82043,0.72351
5957.89168,0.72553
5955.96294,0.72704
5954.03419,0.72660
5952.10545,0.72559
5950.17670,0.72566
5948.24796,0.72694
5946.31921,0.72890
5944.39047,0.73027
5942.46173,0.73046
5940.53298,0.73017
5938.60424,0.73084
5936.67549,0.73344
5934.74675,0.73647
5932.81800,0.73812
5930.88926,0.73916
5928.96051,0.74100
5927.03177,0.74313
5925.10302,0.74467
5923.17428,0.74555
5921.24554,0.74617
5919.31679,0.74797
5917.38805,0.75105
5915.45930,0.75407
5913.53056,0.75683
5911.60181,0.75876
5909.67307,0.75924
5907.74432,0.75950
5905.81558,0.75989
5903.88684,0.75938
5901.95809,0.75906
5900.02935,0.75976
5898.10060,0.75971
5896.17186,0.75836
5894.24311,0.75754
5892.31437,0.75809
5890.38562,0.75832
5888.45688,0.75721
5886.52814,0.75581
5884.59939,0.75460
5882.67065,0.75376
5880.74190,0.75367
5878.81316,0.75347
5876.88441,0.75271
5874.95567,0.75230
5873.02692,0.75135
5871.09818,0.74882
5869.16944,0.74697
5867.24069,0.74771
5865.31195,0.74891
5863.38320,0.74809
5861.45446,0.74722
5859.52571,0.74835
5857.59697,0.74934
5855.66822,0.74865
5853.73948,0.74789
5851.81073,0.74863
5849.88199,0.74972
5847.95325,0.74946
5846.02450,0.74918
5844.09576,0.75030
5842.16701,0.75181
5840.23827,0.75240
5838.30952,0.75210
5836.38078,0.75157
5834.45203,0.75082
5832.52329,0.74979
5830.59455,0.74927
5828.66580,0.74981
5826.73706,0.75022
5824.80831,0.74894
5822.87957,0.74739
5820.95082,0.74799
5819.02208,0.74979
5817.09333,0.75046
5815.16459,0.74988
5813.23585,0.74868
5811.30710,0.74724
5809.37836,0.74700
5807.44961,0.74800
5805.52087,0.74808
5803.59212,0.74721
5801.66338,0.74787
5799.73463,0.74984
5797.80589,0.75057
5795.87715,0.75036
5793.94840,0.75035
5792.01966,0.75005
5790.09091,0.74942
5788.16217,0.74871
5786.23342,0.74891
5784.30468,0.75091
5782.37593,0.75301
5780.44719,0.75354
5778.51844,0.75323
5776.58970,0.75361
5774.66096,0.75431
5772.73221,0.75440
5770.80347,0.75446
5768.87472,0.75467
5766.94598,0.75513
5765.01723,0.75639
5763.08849,0.75724
5761.15974,0.75704
5759.23100,0.75761
5757.30226,0.75942
5755.37351,0.76109
5753.44477,0.76260
5751.51602,0.76376
5749.58728,0.76388
5747.65853,0.76360
5745.72979,0.76370
5743.80104,0.76457
5741.87230,0.76592
5739.94356,0.76692
5738.01481,0.76783
5736.08607,0.76924
5734.15732,0.77029
5732.22858,0.77027
5730.29983,0.77056
5728.37109,0.77180
5726.44234,0.77299
5724.51360,0.77390
5722.58486,0.77460
5720.65611,0.77545
5718.72737,0.77709
5716.79862,0.77848
5714.86988,0.77836
5712.94113,0.77774
5711.01239,0.77769
5709.08364,0.77754
5707.15490,0.77674
5705.22615,0.77574
5703.29741,0.77551
5701.36867,0.77574
5699.43992,0.77515
5697.51118,0.77492
5695.58243,0.77642
5693.65369,0.77797
5691.72494,0.77808
5689.79620,0.77736
5687.86745,0.77685
5685.93871,0.77711
5684.00997,0.77816
5682.08122,0.77926
5680.15248,0.77918
5678.22373,0.77812
5676.29499,0.77775
5674.36624,0.77839
5672.43750,0.77909
5670.50875,0.77982
5668.58001,0.78055
5666.65127,0.78039
5664.72252,0.77956
5662.79378,0.77920
5660.86503,0.77947
5658.93629,0.77999
5657.00754,0.78035
5655.07880,0.77973
5653.15005,0.77878
5651.22131,0.77913
5649.29257,0.78031
5647.36382,0.78145
5645.43508,0.78253
5643.50633,0.78252
5641.57759,0.78161
5639.64884,0.78180
5637.72010,0.78298
5635.79135,0.78372
5633.86261,0.78416
5631.93386,0.78513
5630.00512,0.78653
5628.07638,0.78751
5626.14763,0.78789
5624.21889,0.78851
5622.29014,0.78899
5620.36140,0.78845
5618.43265,0.78797
5616.50391,0.78866
5614.57516,0.78956
5612.64642,0.78960
5610.71768,0.78965
5608.78893,0.79030
5606.86019,0.79023
5604.93144,0.78916
5603.00270,0.78847
5601.07395,0.78832
5599.14521,0.78790
5597.21646,0.78770
5595.28772,0.78846
5593.35898,0.78896
5591.43023,0.78820
5589.50149,0.78691
5587.57274,0.78623
5585.64400,0.78652
5583.71525,0.78684
5581.78651,0.78604
5579.85776,0.78467
5577.92902,0.78398
5576.00028,0.78407
5574.07153,0.78381
5572.14279,0.78249
5570.21404,0.78123
5568.28530,0.78161
5566.35655,0.78284
5564.42781,0.78319
5562.49906,0.78292
5560.57032,0.78274
5558.64157,0.78207
5556.71283,0.78093
5554.78409,0.78059
5552.85534,0.78098
5550.92660,0.78130
5548.99785,0.78206
5547.06911,0.78294
5545.14036,0.78298
5543.21162,0.78282
5541.28287,0.78317
5539.35413,0.78346
5537.42539,0.78308
5535.49664,0.78276
5533.56790,0.78298
5531.63915,0.78338
5529.71041,0.78412
5527.78166,0.78464
5525.85292,0.78421
5523.92417,0.78407
5521.99543,0.78500
5520.06669,0.78575
5518.13794,0.78551
5516.20920,0.78495
5514.28045,0.78509
5512.35171,0.78611
5510.42296,0.78686
5508.49422,0.78647
5506.56547,0.78593
5504.63673,0.78598
5502.70799,0.78582
5500.77924,0.78497
5498.85050,0.78403
5496.92175,0.78374
5494.99301,0.78392
5493.06426,0.78399
5491.13552,0.78396
5489.20677,0.78400
5487.27803,0.78417
5485.34928,0.78367
5483.42054,0.78191
5481.49180,0.78030
5479.56305,0.78029
5477.63431,0.78114
5475.70556,0.78138
5473.77682,0.78116
5471.84807,0.78184
5469.91933,0.78361
5467.99058,0.78472
5466.06184,0.78406
5464.13310,0.78314
5462.20435,0.78342
5460.27561,0.78432
5458.34686,0.78480
5456.41812,0.78465
5454.48937,0.78483
5452.56063,0.78613
5450.63188,0.78761
5448.70314,0.78868
5446.77440,0.78975
5444.84565,0.79050
5442.91691,0.79080
5440.98816,0.79142
5439.05942,0.79269
5437.13067,0.79378
5435.20193,0.79378
5433.27318,0.79351
5431.34444,0.79400
5429.41569,0.79488
5427.48695,0.79552
5425.55821,0.79583
5423.62946,0.79598
5421.70072,0.79583
5419.77197,0.79532
5417.84323,0.79538
5415.91448,0.79591
5413.98574,0.79566
5412.05699,0.79538
5410.12825,0.79626
5408.19951,0.79721
5406.27076,0.79722
5404.34202,0.79689
5402.41327,0.79623
5400.48453,0.79497
5398.55578,0.79402
5396.62704,0.79398
5394.69829,0.79431
5392.76955,0.79449
5390.84081,0.79468
5388.91206,0.79553
5386.98332,0.79677
5385.05457,0.79747
5383.12583,0.79744
5381.19708,0.79720
5379.26834,0.79743
5377.33959,0.79790
5375.41085,0.79781
5373.48211,0.79726
5371.55336,0.79677
5369.62462,0.79653
5367.69587,0.79664
5365.76713,0.79706
5363.83838,0.79713
5361.90964,0.79604
5359.98089,0.79493
5358.05215,0.79468
5356.12340,0.79397
5354.19466,0.79303
5352.26592,0.79284
5350.33717,0.79292
5348.40843,0.79325
5346.47968,0.79396
5344.55094,0.79490
5342.62219,0.79603
5340.69345,0.79700
5338.76470,0.79755
5336.83596,0.79738
5334.90722,0.79659
5332.97847,0.79632
5331.04973,0.79732
5329.12098,0.79858
5327.19224,0.79902
5325.26349,0.79885
5323.33475,0.79859
5321.40600,0.79822
5319.47726,0.79762
5317.54852,0.79689
5315.61977,0.79645
5313.69103,0.79672
5311.76228,0.79749
5309.83354,0.79781
5307.90479,0.79712
5305.97605,0.79605
5304.04730,0.79544
5302.11856,0.79531
5300.18982,0.79528
5298.26107,0.79521
5296.33233,0.79506
5294.40358,0.79472
5292.47484,0.79419
5290.54609,0.79371
5288.61735,0.79344
5286.68860,0.79290
5284.75986,0.79209
5282.83111,0.79184
5280.90237,0.79198
5278.97363,0.79161
5277.04488,0.79084
5275.11614,0.79003
5273.18739,0.78901
5271.25865,0.78795
5269.32990,0.78709
5267.40116,0.78622
5265.47241,0.78527
5263.54367,0.78453
5261.61493,0.78416
5259.68618,0.78420
5257.75744,0.78445
5255.82869,0.78425
5253.89995,0.78335
5251.97120,0.78210
5250.04246,0.78122
5248.11371,0.78112
5246.18497,0.78149
5244.25623,0.78206
5242.32748,0.78261
5240.39874,0.78264
5238.46999,0.78205
5236.54125,0.78145
5234.61250,0.78166
5232.68376,0.78249
5230.75501,0.78295
5228.82627,0.78280
5226.89753,0.78228
5224.96878,0.78076
5223.04004,0.77897
5221.11129,0.77890
5219.18255,0.78067
5217.25380,0.78273
5215.32506,0.78366
5213.39631,0.78307
5211.46757,0.78177
5209.53882,0.78089
5207.61008,0.78112
5205.68134,0.78178
5203.75259,0.78212
5201.82385,0.78245
5199.89510,0.78261
5197.96636,0.78244
5196.03761,0.78227
5194.10887,0.78181
5192.18012,0.78095
5190.25138,0.78042
5188.32264,0.78044
5186.39389,0.78088
5184.46515,0.78171
5182.53640,0.78228
5180.60766,0.78194
5178.67891,0.78093
5176.75017,0.78024
5174.82142,0.78045
5172.89268,0.78073
5170.96394,0.78039
5169.03519,0.77996
5167.10645,0.77970
5165.17770,0.77915
5163.24896,0.77819
5161.32021,0.77791
5159.39147,0.77862
5157.46272,0.77849
5155.53398,0.77679
5153.60524,0.77534
5151.67649,0.77502
5149.74775,0.77473
5147.81900,0.77413
5145.89026,0.77359
5143.96151,0.77258
5142.03277,0.77086
5140.10402,0.76949
5138.17528,0.76886
5136.24653,0.76843
5134.31779,0.76800
5132.38905,0.76765
5130.46030,0.76712
5128.53156,0.76630
5126.60281,0.76549
5124.67407,0.76494
5122.74532,0.76393
5120.81658,0.76185
5118.88783,0.76026
5116.95909,0.76046
5115.03035,0.76155
5113.10160,0.76280
5111.17286,0.76425
5109.24411,0.76572
5107.31537,0.76708
5105.38662,0.76820
5103.45788,0.76927
5101.52913,0.77092
5099.60039,0.77297
5097.67165,0.77463
5095.74290,0.77573
5093.81416,0.77644
5091.88541,0.77709
5089.95667,0.77818
5088.02792,0.77983
5086.09918,0.78120
5084.17043,0.78133
5082.24169,0.78089
5080.31295,0.78111
5078.38420,0.78189
5076.45546,0.78275
5074.52671,0.78359
5072.59797,0.78422
5070.66922,0.78448
5068.74048,0.78426
5066.81173,0.78414
5064.88299,0.78466
5062.95424,0.78481
5061.02550,0.78427
5059.09676,0.78436
5057.16801,0.78529
5055.23927,0.78602
5053.31052,0.78587
5051.38178,0.78544
5049.45303,0.78565
5047.52429,0.78601
5045.59554,0.78594
5043.66680,0.78593
5041.73806,0.78630
5039.80931,0.78686
5037.88057,0.78708
5035.95182,0.78657
5034.02308,0.78595
5032.09433,0.78600
5030.16559,0.78629
5028.23684,0.78617
5026.30810,0.78577
5024.37936,0.78551
5022.45061,0.78574
5020.52187,0.78649
5018.59312,0.78712
5016.66438,0.78724
5014.73563,0.78708
5012.80689,0.78658
5010.87814,0.78593
5008.94940,0.78591
5007.02066,0.78651
5005.09191,0.78692
5003.16317,0.78675
5001.23442,0.78627
4999.30568,0.78612
4997.37693,0.78631
4995.44819,0.78631
4993.51944,0.78634
4991.59070,0.78677
4989.66195,0.78714
4987.73321,0.78711
4985.80447,0.78680
4983.87572,0.78651
4981.94698,0.78651
4980.01823,0.78685
4978.08949,0.78706
4976.16074,0.78697
4974.23200,0.78713
4972.30325,0.78750
4970.37451,0.78707
4968.44577,0.78605
4966.51702,0.78533
4964.58828,0.78461
4962.65953,0.78389
4960.73079,0.78368
4958.80204,0.78388
4956.87330,0.78404
4954.94455,0.78371
4953.01581,0.78319
4951.08707,0.78280
4949.15832,0.78174
4947.22958,0.78011
4945.30083,0.77938
4943.37209,0.77965
4941.44334,0.77957
4939.51460,0.77907
4937.58585,0.77876
4935.65711,0.77851
4933.72837,0.77814
4931.79962,0.77777
4929.87088,0.77756
4927.94213,0.77735
4926.01339,0.77694
4924.08464,0.77656
4922.15590,0.77600
4920.22715,0.77527
4918.29841,0.77473
4916.36966,0.77431
4914.44092,0.77391
4912.51218,0.77362
4910.58343,0.77342
4908.65469,0.77317
4906.72594,0.77276
4904.79720,0.77222
4902.86845,0.77176
4900.93971,0.77176
4899.01096,0.77175
4897.08222,0.77129
4895.15348,0.77091
4893.22473,0.77057
4891.29599,0.77017
4889.36724,0.77012
4887.43850,0.77016
4885.50975,0.77004
4883.58101,0.77007
4881.65226,0.77006
4879.72352,0.76954
4877.79478,0.76875
4875.86603,0.76828
4873.93729,0.76804
4872.00854,0.76758
4870.07980,0.76701
4868.15105,0.76698
4866.22231,0.76752
4864.29356,0.76774
4862.36482,0.76699
4860.43608,0.76600
4858.50733,0.76589
4856.57859,0.76647
4854.64984,0.76664
4852.72110,0.76611
4850.79235,0.76526
4848.86361,0.76440
4846.93486,0.76372
4845.00612,0.76313
4843.07737,0.76226
4841.14863,0.76112
4839.21989,0.76014
4837.29114,0.75939
4835.36240,0.75827
4833.43365,0.75648
4831.50491,0.75476
4829.57616,0.75329
4827.64742,0.75152
4825.71867,0.74996
4823.78993,0.74937
4821.86119,0.74897
4819.93244,0.74775
4818.00370,0.74629
4816.07495,0.74553
4814.14621,0.74510
4812.21746,0.74430
4810.28872,0.74310
4808.35997,0.74196
4806.43123,0.74088
4804.50249,0.73982
4802.57374,0.73912
4800.64500,0.73857
4798.71625,0.73806
4796.78751,0.73788
4794.85876,0.73782
4792.93002,0.73781
4791.00127,0.73802
4789.07253,0.73835
4787.14379,0.73880
4785.21504,0.73967
4783.28630,0.74104
4781.35755,0.74243
4779.42881,0.74304
4777.50006,0.74280
4775.57132,0.74300
4773.64257,0.74404
4771.71383,0.74478
4769.78508,0.74498
4767.85634,0.74518
4765.92760,0.74507
4763.99885,0.74415
4762.07011,0.74318
4760.14136,0.74297
4758.21262,0.74250
4756.28387,0.74075
4754.35513,0.73840
4752.42638,0.73613
4750.49764,0.73408
4748.56890,0.73221
4746.64015,0.72997
4744.71141,0.72730
4742.78266,0.72492
4740.85392,0.72287
4738.92517,0.72069
4736.99643,0.71857
4735.06768,0.71663
4733.13894,0.71418
4731.21020,0.71082
4729.28145,0.70696
4727.35271,0.70295
4725.42396,0.69880
4723.49522,0.69494
4721.56647,0.69197
4719.63773,0.68997
4717.70898,0.68871
4715.78024,0.68797
4713.85150,0.68758
4711.92275,0.68731
4709.99401,0.68638
4708.06526,0.68428
4706.13652,0.68137
4704.20777,0.67781
4702.27903,0.67331
4700.35028,0.66842
4698.42154,0.66409
4696.49279,0.65988
4694.56405,0.65555
4692.63531,0.65225
4690.70656,0.65067
4688.77782,0.65067
4686.84907,0.65218
4684.92033,0.65491
4682.99158,0.65886
4681.06284,0.66404
4679.13409,0.66939
4677.20535,0.67404
4675.27661,0.67847
4673.34786,0.68299
4671.41912,0.68712
4669.49037,0.69028
4667.56163,0.69245
4665.63288,0.69403
4663.70414,0.69527
4661.77539,0.69605
4659.84665,0.69645
4657.91791,0.69688
4655.98916,0.69709
4654.06042,0.69633
4652.13167,0.69463
4650.20293,0.69227
4648.27418,0.68900
4646.34544,0.68479
4644.41669,0.68036
4642.48795,0.67635
4640.55921,0.67276
4638.63046,0.66968
4636.70172,0.66771
4634.77297,0.66741
4632.84423,0.66892
4630.91548,0.67198
4628.98674,0.67621
4627.05799,0.68112
4625.12925,0.68624
4623.20050,0.69160
4621.27176,0.69761
4619.34302,0.70349
4617.41427,0.70797
4615.48553,0.71104
4613.55678,0.71346
4611.62804,0.71548
4609.69929,0.71692
4607.77055,0.71767
4605.84180,0.71757
4603.91306,0.71646
4601.98432,0.71445
4600.05557,0.71170
4598.12683,0.70860
4596.19808,0.70575
4594.26934,0.70364
4592.34059,0.70210
4590.41185,0.70070
4588.48310,0.69911
4586.55436,0.69688
4584.62562,0.69399
4582.69687,0.69137
4580.76813,0.69018
4578.83938,0.69092
4576.91064,0.69324
4574.98189,0.69645
4573.05315,0.70055
4571.12440,0.70555
4569.19566,0.71038
4567.26692,0.71411
4565.33817,0.71720
4563.40943,0.72021
4561.48068,0.72286
4559.55194,0.72481
4557.62319,0.72581
4555.69445,0.72602
4553.76570,0.72607
4551.83696,0.72599
4549.90821,0.72560
4547.97947,0.72526
4546.05073,0.72531
4544.12198,0.72575
4542.19324,0.72616
4540.26449,0.72623
4538.33575,0.72596
4536.40700,0.72541
4534.47826,0.72484
4532.54951,0.72446
4530.62077,0.72421
4528.69203,0.72385
4526.76328,0.72320
4524.83454,0.72230
4522.90579,0.72133
4520.97705,0.72012
4519.04830,0.71847
4517.11956,0.71662
4515.19081,0.71467
4513.26207,0.71252
4511.33333,0.71021
4509.40458,0.70776
4507.47584,0.70512
4505.54709,0.70208
4503.61835,0.69822
4501.68960,0.69365
4499.76086,0.68890
4497.83211,0.68391
4495.90337,0.67858
4493.97462,0.67348
4492.04588,0.66908
4490.11714,0.66544
4488.18839,0.66276
4486.25965,0.66105
4484.33090,0.65952
4482.40216,0.65737
4480.47341,0.65496
4478.54467,0.65275
4476.61592,0.65004
4474.68718,0.64627
4472.75844,0.64191
4470.82969,0.63715
4468.90095,0.63168
4466.97220,0.62545
4465.04346,0.61844
4463.11471,0.61097
4461.18597,0.60431
4459.25722,0.59974
4457.32848,0.59746
4455.39974,0.59695
4453.47099,0.59755
4451.54225,0.59847
4449.61350,0.59904
4447.68476,0.59887
4445.75601,0.59796
4443.82727,0.59679
4441.89852,0.59548
4439.96978,0.59358
4438.04104,0.59105
4436.11229,0.58875
4434.18355,0.58744
4432.25480,0.58716
4430.32606,0.58763
4428.39731,0.58903
4426.46857,0.59171
4424.53982,0.59531
4422.61108,0.59897
4420.68233,0.60199
4418.75359,0.60452
4416.82485,0.60732
4414.89610,0.60999
4412.96736,0.61148
4411.03861,0.61179
4409.10987,0.61152
4407.18112,0.61104
4405.25238,0.61104
4403.32363,0.61207
4401.39489,0.61362
4399.46615,0.61522
4397.53740,0.61703
4395.60866,0.61916
4393.67991,0.62144
4391.75117,0.62331
4389.82242,0.62446
4387.89368,0.62530
4385.96493,0.62625
4384.03619,0.62734
4382.10745,0.62821
4380.17870,0.62881
4378.24996,0.62935
4376.32121,0.62966
4374.39247,0.62975
4372.46372,0.62974
4370.53498,0.62958
4368.60623,0.62917
4366.67749,0.62813
4364.74875,0.62667
4362.82000,0.62571
4360.89126,0.62541
4358.96251,0.62523
4357.03377,0.62498
4355.10502,0.62479
4353.17628,0.62471
4351.24753,0.62458
4349.31879,0.62423
4347.39004,0.62335
4345.46130,0.62190
4343.53256,0.62037
4341.60381,0.61899
4339.67507,0.61767
4337.74632,0.61660
4335.81758,0.61597
4333.88883,0.61555
4331.96009,0.61540
4330.03134,0.61577
4328.10260,0.61623
4326.17386,0.61634
4324.24511,0.61644
4322.31637,0.61671
4320.38762,0.61680
4318.45888,0.61637
4316.53013,0.61540
4314.60139,0.61409
4312.67264,0.61254
4310.74390,0.61068
4308.81516,0.60857
4306.88641,0.60631
4304.95767,0.60376
4303.02892,0.60103
4301.10018,0.59851
4299.17143,0.59656
4297.24269,0.59534
4295.31394,0.59451
4293.38520,0.59355
4291.45646,0.59276
4289.52771,0.59259
4287.59897,0.59280
4285.67022,0.59338
4283.74148,0.59459
4281.81273,0.59611
4279.88399,0.59738
4277.95524,0.59832
4276.02650,0.59918
4274.09775,0.60007
4272.16901,0.60098
4270.24027,0.60194
4268.31152,0.60290
4266.38278,0.60395
4264.45403,0.60507
4262.52529,0.60580
4260.59654,0.60581
4258.66780,0.60562
4256.73905,0.60567
4254.81031,0.60553
4252.88157,0.60508
4250.95282,0.60458
4249.02408,0.60410
4247.09533,0.60374
4245.16659,0.60350
4243.23784,0.60331
4241.30910,0.60344
4239.38035,0.60410
4237.45161,0.60480
4235.52287,0.60507
4233.59412,0.60509
4231.66538,0.60511
4229.73663,0.60503
4227.80789,0.60488
4225.87914,0.60502
4223.95040,0.60578
4222.02165,0.60720
4220.09291,0.60889
4218.16417,0.61059
4216.23542,0.61257
4214.30668,0.61453
4212.37793,0.61601
4210.44919,0.61712
4208.52044,0.61777
4206.59170,0.61794
4204.66295,0.61791
4202.73421,0.61799
4200.80546,0.61845
4198.87672,0.61906
4196.94798,0.61942
4195.01923,0.61934
4193.09049,0.61882
4191.16174,0.61804
4189.23300,0.61690
4187.30425,0.61509
4185.37551,0.61281
4183.44676,0.61029
4181.51802,0.60763
4179.58928,0.60526
4177.66053,0.60397
4175.73179,0.60442
4173.80304,0.60635
4171.87430,0.60884
4169.94555,0.61144
4168.01681,0.61415
4166.08806,0.61691
4164.15932,0.61970
4162.23058,0.62235
4160.30183,0.62430
4158.37309,0.62542
4156.44434,0.62624
4154.51560,0.62704
4152.58685,0.62761
4150.65811,0.62786
4148.72936,0.62777
4146.80062,0.62706
4144.87188,0.62559
4142.94313,0.62363
4141.01439,0.62131
4139.08564,0.61869
4137.15690,0.61638
4135.22815,0.61468
4133.29941,0.61309
4131.37066,0.61121
4129.44192,0.60946
4127.51317,0.60864
4125.58443,0.60867
4123.65569,0.60876
4121.72694,0.60833
4119.79820,0.60722
4117.86945,0.60579
4115.94071,0.60438
4114.01196,0.60272
4112.08322,0.60048
4110.15447,0.59767
4108.22573,0.59430
4106.29699,0.59032
4104.36824,0.58597
4102.43950,0.58133
4100.51075,0.57547
4098.58201,0.56731
4096.65326,0.55748
4094.72452,0.54828
4092.79577,0.54201
4090.86703,0.53979
4088.93829,0.54110
4087.00954,0.54476
4085.08080,0.54981
4083.15205,0.55561
4081.22331,0.56202
4079.29456,0.56899
4077.36582,0.57602
4075.43707,0.58248
4073.50833,0.58838
4071.57959,0.59354
4069.65084,0.59743
4067.72210,0.60040
4065.79335,0.60327
4063.86461,0.60596
4061.93586,0.60806
4060.00712,0.60958
4058.07837,0.61089
4056.14963,0.61235
4054.22088,0.61389
4052.29214,0.61527
4050.36340,0.61640
4048.43465,0.61745
4046.50591,0.61878
4044.57716,0.62052
4042.64842,0.62239
4040.71967,0.62414
4038.79093,0.62587
4036.86218,0.62760
4034.93344,0.62905
4033.00470,0.63010
4031.07595,0.63097
4029.14721,0.63168
4027.21846,0.63198
4025.28972,0.63188
4023.36097,0.63173
4021.43223,0.63165
4019.50348,0.63140
4017.57474,0.63100
4015.64600,0.63083
4013.71725,0.63089
4011.78851,0.63092
4009.85976,0.63094
4007.93102,0.63118
4006.00227,0.63169
4004.07353,0.63223
4002.14478,0.63253
4000.21604,0.63272
3998.28730,0.63312
3996.35855,0.63401
3994.42981,0.63524
3992.50106,0.63621
3990.57232,0.63705
3988.64357,0.63815
3986.71483,0.63915
3984.78608,0.63945
3982.85734,0.63931
3980.92859,0.63934
3978.99985,0.63940
3977.07111,0.63939
3975.14236,0.63960
3973.21362,0.63981
3971.28487,0.63981
3969.35613,0.63987
3967.42738,0.64030
3965.49864,0.64135
3963.56989,0.64285
3961.64115,0.64420
3959.71241,0.64529
3957.78366,0.64646
3955.85492,0.64757
3953.92617,0.64854
3951.99743,0.64950
3950.06868,0.65033
3948.13994,0.65101
3946.21119,0.65175
3944.28245,0.65257
3942.35371,0.65326
3940.42496,0.65363
3938.49622,0.65369
3936.56747,0.65354
3934.63873,0.65325
3932.70998,0.65311
3930.78124,0.65348
3928.85249,0.65405
3926.92375,0.65437
3924.99501,0.65448
3923.06626,0.65451
3921.13752,0.65463
3919.20877,0.65518
3917.28003,0.65607
3915.35128,0.65684
3913.42254,0.65736
3911.49379,0.65781
3909.56505,0.65839
3907.63630,0.65921
3905.70756,0.66022
3903.77882,0.66139
3901.85007,0.66283
3899.92133,0.66455
3897.99258,0.66641
3896.06384,0.66838
3894.13509,0.67039
3892.20635,0.67215
3890.27760,0.67343
3888.34886,0.67425
3886.42012,0.67481
3884.49137,0.67524
3882.56263,0.67571
3880.63388,0.67658
3878.70514,0.67759
3876.77639,0.67825
3874.84765,0.67888
3872.91890,0.67963
3870.99016,0.68019
3869.06142,0.68062
3867.13267,0.68110
3865.20393,0.68171
3863.27518,0.68253
3861.34644,0.68321
3859.41769,0.68358
3857.48895,0.68382
3855.56020,0.68424
3853.63146,0.68490
3851.70272,0.68518
3849.77397,0.68505
3847.84523,0.68490
3845.91648,0.68475
3843.98774,0.68478
3842.05899,0.68514
3840.13025,0.68548
3838.20150,0.68529
3836.27276,0.68461
3834.34401,0.68397
3832.41527,0.68375
3830.48653,0.68402
3828.55778,0.68446
3826.62904,0.68463
3824.70029,0.68435
3822.77155,0.68354
3820.84280,0.68210
3818.91406,0.68039
3816.98531,0.67861
3815.05657,0.67640
3813.12783,0.67410
3811.19908,0.67246
3809.27034,0.67136
3807.34159,0.67034
3805.41285,0.66955
3803.48410,0.66971
3801.55536,0.67115
3799.62661,0.67308
3797.69787,0.67469
3795.76913,0.67611
3793.84038,0.67733
3791.91164,0.67831
3789.98289,0.67911
3788.05415,0.67950
3786.12540,0.67954
3784.19666,0.67960
3782.26791,0.67942
3780.33917,0.67886
3778.41043,0.67828
3776.48168,0.67746
3774.55294,0.67606
3772.62419,0.67450
3770.69545,0.67333
3768.76670,0.67232
3766.83796,0.67081
3764.90921,0.66889
3762.98047,0.66701
3761.05172,0.66520
3759.12298,0.66364
3757.19424,0.66329
3755.26549,0.66496
3753.33675,0.66849
3751.40800,0.67314
3749.47926,0.67746
3747.55051,0.68043
3745.62177,0.68262
3743.69302,0.68420
3741.76428,0.68433
3739.83554,0.68314
3737.90679,0.68123
3735.97805,0.67888
3734.04930,0.67656
3732.12056,0.67507
3730.19181,0.67495
3728.26307,0.67644
3726.33432,0.67923
3724.40558,0.68237
3722.47684,0.68510
3720.54809,0.68722
3718.61935,0.68820
3716.69060,0.68800
3714.76186,0.68736
3712.83311,0.68661
3710.90437,0.68533
3708.97562,0.68305
3707.04688,0.67958
3705.11814,0.67516
3703.18939,0.67052
3701.26065,0.66611
3699.33190,0.66174
3697.40316,0.65691
3695.47441,0.65105
3693.54567,0.64381
3691.61692,0.63536
3689.68818,0.62646
3687.75943,0.61954
3685.83069,0.61712
3683.90195,0.61925
3681.97320,0.62466
3680.04446,0.63146
3678.11571,0.63817
3676.18697,0.64447
3674.25822,0.64927
3672.32948,0.65161
3670.40073,0.65244
3668.47199,0.65243
3666.54325,0.65159
3664.61450,0.64987
3662.68576,0.64756
3660.75701,0.64510
3658.82827,0.64229
3656.89952,0.63882
3654.97078,0.63528
3653.04203,0.63226
3651.11329,0.62931
3649.18455,0.62604
3647.25580,0.62265
3645.32706,0.61927
3643.39831,0.61595
3641.46957,0.61280
3639.54082,0.60983
3637.61208,0.60700
3635.68333,0.60444
3633.75459,0.60209
3631.82584,0.59974
3629.89710,0.59727
3627.96836,0.59460
3626.03961,0.59183
3624.11087,0.58918
3622.18212,0.58664
3620.25338,0.58405
3618.32463,0.58150
3616.39589,0.57925
3614.46714,0.57719
3612.53840,0.57512
3610.60966,0.57274
3608.68091,0.56988
3606.75217,0.56689
3604.82342,0.56412
3602.89468,0.56138
3600.96593,0.55816
3599.03719,0.55457
3597.10844,0.55109
3595.17970,0.54726
3593.25096,0.54272
3591.32221,0.53794
3589.39347,0.53328
3587.46472,0.52878
3585.53598,0.52437
3583.60723,0.51986
3581.67849,0.51520
3579.74974,0.51041
3577.82100,0.50558
3575.89226,0.50086
3573.96351,0.49605
3572.03477,0.49123
3570.10602,0.48678
3568.17728,0.48276
3566.24853,0.47901
3564.31979,0.47556
3562.39104,0.47238
3560.46230,0.46930
3558.53355,0.46633
3556.60481,0.46346
3554.67607,0.46071
3552.74732,0.45839
3550.81858,0.45673
3548.88983,0.45545
3546.96109,0.45421
3545.03234,0.45287
3543.10360,0.45170
3541.17485,0.45112
3539.24611,0.45104
3537.31737,0.45110
3535.38862,0.45123
3533.45988,0.45139
3531.53113,0.45157
3529.60239,0.45192
3527.67364,0.45261
3525.74490,0.45356
3523.81615,0.45426
3521.88741,0.45445
3519.95867,0.45461
3518.02992,0.45498
3516.10118,0.45551
3514.17243,0.45619
3512.24369,0.45667
3510.31494,0.45664
3508.38620,0.45625
3506.45745,0.45590
3504.52871,0.45587
3502.59997,0.45609
3500.67122,0.45611
3498.74248,0.45570
3496.81373,0.45517
3494.88499,0.45462
3492.95624,0.45389
3491.02750,0.45301
3489.09875,0.45204
3487.17001,0.45083
3485.24126,0.44936
3483.31252,0.44788
3481.38378,0.44639
3479.45503,0.44469
3477.52629,0.44276
3475.59754,0.44035
3473.66880,0.43740
3471.74005,0.43447
3469.81131,0.43171
3467.88256,0.42856
3465.95382,0.42478
3464.02508,0.42064
3462.09633,0.41648
3460.16759,0.41234
3458.23884,0.40789
3456.31010,0.40295
3454.38135,0.39804
3452.45261,0.39342
3450.52386,0.38870
3448.59512,0.38365
3446.66638,0.37823
3444.73763,0.37259
3442.80889,0.36703
3440.88014,0.36145
3438.95140,0.35541
3437.02265,0.34868
3435.09391,0.34191
3433.16516,0.33641
3431.23642,0.33380
3429.30768,0.33531
3427.37893,0.34059
3425.45019,0.34816
3423.52144,0.35678
3421.59270,0.36569
3419.66395,0.37407
3417.73521,0.38145
3415.80646,0.38810
3413.87772,0.39435
3411.94897,0.40018
3410.02023,0.40535
3408.09149,0.40999
3406.16274,0.41428
3404.23400,0.41804
3402.30525,0.42099
3400.37651,0.42326
3398.44776,0.42527
3396.51902,0.42708
3394.59027,0.42857
3392.66153,0.42984
3390.73279,0.43086
3388.80404,0.43143
3386.87530,0.43167
3384.94655,0.43204
3383.01781,0.43257
3381.08906,0.43276
3379.16032,0.43251
3377.23157,0.43222
3375.30283,0.43182
3373.37409,0.43120
3371.44534,0.43078
3369.51660,0.43050
3367.58785,0.42990
3365.65911,0.42892
3363.73036,0.42765
3361.80162,0.42615
3359.87287,0.42461
3357.94413,0.42310
3356.01539,0.42152
3354.08664,0.41963
3352.15790,0.41735
3350.22915,0.41484
3348.30041,0.41240
3346.37166,0.41033
3344.44292,0.40851
3342.51417,0.40678
3340.58543,0.40530
3338.65668,0.40416
3336.72794,0.40329
3334.79920,0.40300
3332.87045,0.40370
3330.94171,0.40533
3329.01296,0.40747
3327.08422,0.40968
3325.15547,0.41162
3323.22673,0.41316
3321.29798,0.41451
3319.36924,0.41560
3317.44050,0.41612
3315.51175,0.41612
3313.58301,0.41579
3311.65426,0.41521
3309.72552,0.41465
3307.79677,0.41425
3305.86803,0.41374
3303.93928,0.41294
3302.01054,0.41234
3300.08180,0.41252
3298.15305,0.41321
3296.22431,0.41411
3294.29556,0.41536
3292.36682,0.41663
3290.43807,0.41764
3288.50933,0.41878
3286.58058,0.42005
3284.65184,0.42109
3282.72310,0.42203
3280.79435,0.42300
3278.86561,0.42394
3276.93686,0.42482
3275.00812,0.42555
3273.07937,0.42610
3271.15063,0.42664
3269.22188,0.42725
3267.29314,0.42791
3265.36439,0.42860
3263.43565,0.42929
3261.50691,0.42984
3259.57816,0.43035
3257.64942,0.43095
3255.72067,0.43166
3253.79193,0.43253
3251.86318,0.43337
3249.93444,0.43378
3248.00569,0.43352
3246.07695,0.43288
3244.14821,0.43258
3242.21946,0.43274
3240.29072,0.43299
3238.36197,0.43323
3236.43323,0.43361
3234.50448,0.43419
3232.57574,0.43474
3230.64699,0.43519
3228.71825,0.43582
3226.78951,0.43690
3224.86076,0.43829
3222.93202,0.43958
3221.00327,0.44064
3219.07453,0.44166
3217.14578,0.44275
3215.21704,0.44370
3213.28829,0.44437
3211.35955,0.44493
3209.43081,0.44540
3207.50206,0.44579
3205.57332,0.44610
3203.64457,0.44609
3201.71583,0.44586
3199.78708,0.44594
3197.85834,0.44633
3195.92959,0.44644
3194.00085,0.44623
3192.07210,0.44617
3190.14336,0.44630
3188.21462,0.44653
3186.28587,0.44688
3184.35713,0.44729
3182.42838,0.44778
3180.49964,0.44830
3178.57089,0.44875
3176.64215,0.44904
3174.71340,0.44906
3172.78466,0.44887
3170.85592,0.44863
3168.92717,0.44840
3166.99843,0.44839
3165.06968,0.44848
3163.14094,0.44843
3161.21219,0.44831
3159.28345,0.44818
3157.35470,0.44814
3155.42596,0.44810
3153.49722,0.44771
3151.56847,0.44686
3149.63973,0.44575
3147.71098,0.44461
3145.78224,0.44348
3143.85349,0.44231
3141.92475,0.44109
3139.99600,0.43951
3138.06726,0.43722
3136.13852,0.43456
3134.20977,0.43215
3132.28103,0.43002
3130.35228,0.42798
3128.42354,0.42636
3126.49479,0.42578
3124.56605,0.42646
3122.63730,0.42770
3120.70856,0.42829
3118.77981,0.42765
3116.85107,0.42585
3114.92233,0.42299
3112.99358,0.41917
3111.06484,0.41472
3109.13609,0.41009
3107.20735,0.40559
3105.27860,0.40172
3103.34986,0.39952
3101.42111,0.39974
3099.49237,0.40206
3097.56363,0.40534
3095.63488,0.40831
3093.70614,0.40977
3091.77739,0.40887
3089.84865,0.40574
3087.91990,0.40140
3085.99116,0.39681
3084.06241,0.39246
3082.13367,0.38890
3080.20493,0.38693
3078.27618,0.38647
3076.34744,0.38643
3074.41869,0.38586
3072.48995,0.38458
3070.56120,0.38317
3068.63246,0.38237
3066.70371,0.38233
3064.77497,0.38267
3062.84623,0.38235
3060.91748,0.37991
3058.98874,0.37503
3057.05999,0.36976
3055.13125,0.36731
3053.20250,0.36978
3051.27376,0.37732
3049.34501,0.38839
3047.41627,0.40023
3045.48752,0.41031
3043.55878,0.41753
3041.63004,0.42195
3039.70129,0.42426
3037.77255,0.42497
3035.84380,0.42424
3033.91506,0.42210
3031.98631,0.41866
3030.05757,0.41429
3028.12882,0.40900
3026.20008,0.40227
3024.27134,0.39390
3022.34259,0.38406
3020.41385,0.37291
3018.48510,0.36113
3016.55636,0.35043
3014.62761,0.34282
3012.69887,0.33883
3010.77012,0.33730
3008.84138,0.33675
3006.91264,0.33613
3004.98389,0.33485
3003.05515,0.33294
3001.12640,0.33076
2999.19766,0.32849
2997.26891,0.32601
2995.34017,0.32304
2993.41142,0.31934
2991.48268,0.31453
2989.55394,0.30846
2987.62519,0.30156
2985.69645,0.29384
2983.76770,0.28502
2981.83896,0.27533
2979.91021,0.26497
2977.98147,0.25393
2976.05272,0.24272
2974.12398,0.23252
2972.19523,0.22511
2970.26649,0.22196
2968.33775,0.22307
2966.40900,0.22687
2964.48026,0.23149
2962.55151,0.23614
2960.62277,0.24098
2958.69402,0.24617
2956.76528,0.25179
2954.83653,0.25802
2952.90779,0.26511
2950.97905,0.27324
2949.05030,0.28200
2947.12156,0.29080
2945.19281,0.29931
2943.26407,0.30712
2941.33532,0.31389
2939.40658,0.31940
2937.47783,0.32325
2935.54909,0.32536
2933.62035,0.32604
2931.69160,0.32553
2929.76286,0.32374
2927.83411,0.32068
2925.90537,0.31694
2923.97662,0.31312
2922.04788,0.30898
2920.11913,0.30409
2918.19039,0.29836
2916.26165,0.29164
2914.33290,0.28388
2912.40416,0.27559
2910.47541,0.26824
2908.54667,0.26451
2906.61792,0.26692
2904.68918,0.27559
2902.76043,0.28774
2900.83169,0.29961
2898.90294,0.30889
2896.97420,0.31530
2895.04546,0.31952
2893.11671,0.32241
2891.18797,0.32467
2889.25922,0.32684
2887.33048,0.32934
2885.40173,0.33239
2883.47299,0.33583
2881.54424,0.33948
2879.61550,0.34286
2877.68676,0.34545
2875.75801,0.34754
2873.82927,0.34955
2871.90052,0.35148
2869.97178,0.35331
2868.04303,0.35495
2866.11429,0.35632
2864.18554,0.35736
2862.25680,0.35799
2860.32806,0.35836
2858.39931,0.35879
2856.47057,0.35959
2854.54182,0.36124
2852.61308,0.36454
2850.68433,0.37056
2848.75559,0.37969
2846.82684,0.39113
2844.89810,0.40319
2842.96936,0.41418
2841.04061,0.42345
2839.11187,0.43126
2837.18312,0.43783
2835.25438,0.44349
2833.32563,0.44877
2831.39689,0.45376
2829.46814,0.45829
2827.53940,0.46231
2825.61065,0.46571
2823.68191,0.46822
2821.75317,0.46974
2819.82442,0.47037
2817.89568,0.47023
2815.96693,0.46952
2814.03819,0.46867
2812.10944,0.46807
2810.18070,0.46767
2808.25195,0.46745
2806.32321,0.46764
2804.39447,0.46856
2802.46572,0.47050
2800.53698,0.47348
2798.60823,0.47706
2796.67949,0.48079
2794.75074,0.48441
2792.82200,0.48777
2790.89325,0.49085
2788.96451,0.49379
2787.03577,0.49668
2785.10702,0.49927
2783.17828,0.50142
2781.24953,0.50340
2779.32079,0.50533
2777.39204,0.50703
2775.46330,0.50851
2773.53455,0.50983
2771.60581,0.51100
2769.67707,0.51210
2767.74832,0.51314
2765.81958,0.51394
2763.89083,0.51446
2761.96209,0.51483
2760.03334,0.51516
2758.10460,0.51542
2756.17585,0.51553
2754.24711,0.51541
2752.31836,0.51507
2750.38962,0.51461
2748.46088,0.51420
2746.53213,0.51412
2744.60339,0.51457
2742.67464,0.51570
2740.74590,0.51756
2738.81715,0.52010
2736.88841,0.52296
2734.95966,0.52577
2733.03092,0.52845
2731.10218,0.53101
2729.17343,0.53345
2727.24469,0.53577
2725.31594,0.53777
2723.38720,0.53932
2721.45845,0.54067
2719.52971,0.54202
2717.60096,0.54338
2715.67222,0.54482
2713.74348,0.54646
2711.81473,0.54819
2709.88599,0.54981
2707.95724,0.55135
2706.02850,0.55300
2704.09975,0.55476
2702.17101,0.55634
2700.24226,0.55758
2698.31352,0.55865
2696.38477,0.55965
2694.45603,0.56049
2692.52729,0.56123
2690.59854,0.56194
2688.66980,0.56244
2686.74105,0.56269
2684.81231,0.56278
2682.88356,0.56279
2680.95482,0.56297
2679.02607,0.56351
2677.09733,0.56417
2675.16859,0.56479
2673.23984,0.56546
2671.31110,0.56612
2669.38235,0.56674
2667.45361,0.56718
2665.52486,0.56716
2663.59612,0.56673
2661.66737,0.56617
2659.73863,0.56561
2657.80989,0.56497
2655.88114,0.56400
2653.95240,0.56262
2652.02365,0.56105
2650.09491,0.55955
2648.16616,0.55798
2646.23742,0.55580
2644.30867,0.55280
2642.37993,0.54924
2640.45119,0.54532
2638.52244,0.54131
2636.59370,0.53774
2634.66495,0.53494
2632.73621,0.53302
2630.80746,0.53211
2628.87872,0.53215
2626.94997,0.53287
2625.02123,0.53397
2623.09248,0.53515
2621.16374,0.53609
2619.23500,0.53645
2617.30625,0.53635
2615.37751,0.53620
2613.44876,0.53602
2611.52002,0.53568
2609.59127,0.53533
2607.66253,0.53503
2605.73378,0.53454
2603.80504,0.53363
2601.87630,0.53224
2599.94755,0.53055
2598.01881,0.52873
2596.09006,0.52675
2594.16132,0.52455
2592.23257,0.52226
2590.30383,0.52020
2588.37508,0.51858
2586.44634,0.51735
2584.51760,0.51656
2582.58885,0.51629
2580.66011,0.51640
2578.73136,0.51670
2576.80262,0.51715
2574.87387,0.51769
2572.94513,0.51799
2571.01638,0.51790
2569.08764,0.51759
2567.15890,0.51707
2565.23015,0.51630
2563.30141,0.51563
2561.37266,0.51531
2559.44392,0.51519
2557.51517,0.51500
2555.58643,0.51462
2553.65768,0.51417
2551.72894,0.51375
2549.80019,0.51325
2547.87145,0.51271
2545.94271,0.51231
2544.01396,0.51192
2542.08522,0.51146
2540.15647,0.51113
2538.22773,0.51091
2536.29898,0.51078
2534.37024,0.51097
2532.44149,0.51156
2530.51275,0.51246
2528.58401,0.51357
2526.65526,0.51493
2524.72652,0.51669
2522.79777,0.51873
2520.86903,0.52073
2518.94028,0.52251
2517.01154,0.52410
2515.08279,0.52556
2513.15405,0.52673
2511.22531,0.52744
2509.29656,0.52777
2507.36782,0.52798
2505.43907,0.52818
2503.51033,0.52836
2501.58158,0.52869
2499.65284,0.52936
2497.72409,0.53039
2495.79535,0.53179
2493.86661,0.53356
2491.93786,0.53563
2490.00912,0.53803
2488.08037,0.54059
2486.15163,0.54299
2484.22288,0.54525
2482.29414,0.54765
2480.36539,0.55022
2478.43665,0.55274
2476.50790,0.55485
2474.57916,0.55640
2472.65042,0.55759
2470.72167,0.55869
2468.79293,0.55973
2466.86418,0.56061
2464.93544,0.56120
2463.00669,0.56147
2461.07795,0.56155
2459.14920,0.56151
2457.22046,0.56120
2455.29172,0.56062
2453.36297,0.56006
2451.43423,0.55967
2449.50548,0.55911
2447.57674,0.55799
2445.64799,0.55624
2443.71925,0.55403
2441.79050,0.55148
2439.86176,0.54865
2437.93302,0.54566
2436.00427,0.54260
2434.07553,0.53958
2432.14678,0.53653
2430.21804,0.53342
2428.28929,0.53036
2426.36055,0.52710
2424.43180,0.52350
2422.50306,0.51985
2420.57432,0.51639
2418.64557,0.51319
2416.71683,0.51021
2414.78808,0.50742
2412.85934,0.50482
2410.93059,0.50228
2409.00185,0.49960
2407.07310,0.49691
2405.14436,0.49436
2403.21561,0.49201
2401.28687,0.48997
2399.35813,0.48831
2397.42938,0.48686
2395.50064,0.48551
2393.57189,0.48433
2391.64315,0.48343
2389.71440,0.48301
2387.78566,0.48318
2385.85691,0.48379
2383.92817,0.48464
2381.99943,0.48567
2380.07068,0.48683
2378.14194,0.48800
2376.21319,0.48923
2374.28445,0.49080
2372.35570,0.49274
2370.42696,0.49498
2368.49821,0.49770
2366.56947,0.50102
2364.64073,0.50483
2362.71198,0.50910
2360.78324,0.51369
2358.85449,0.51822
2356.92575,0.52239
2354.99700,0.52594
2353.06826,0.52897
2351.13951,0.53189
2349.21077,0.53479
2347.28203,0.53722
2345.35328,0.53896
2343.42454,0.54027
2341.49579,0.54126
2339.56705,0.54156
2337.63830,0.54130
2335.70956,0.54125
2333.78081,0.54193
2331.85207,0.54333
2329.92332,0.54497
2327.99458,0.54640
2326.06584,0.54761
2324.13709,0.54883
2322.20835,0.55025
2320.27960,0.55179
2318.35086,0.55304
2316.42211,0.55356
2314.49337,0.55336
2312.56462,0.55265
2310.63588,0.55128
2308.70714,0.54901
2306.77839,0.54587
2304.84965,0.54206
2302.92090,0.53759
2300.99216,0.53245
2299.06341,0.52688
2297.13467,0.52126
2295.20592,0.51590
2293.27718,0.51099
2291.34844,0.50663
2289.41969,0.50305
2287.49095,0.50051
2285.56220,0.49906
2283.63346,0.49866
2281.70471,0.49902
2279.77597,0.49965
2277.84722,0.50009
2275.91848,0.49994
2273.98974,0.49913
2272.06099,0.49807
2270.13225,0.49692
2268.20350,0.49562
2266.27476,0.49416
2264.34601,0.49276
2262.41727,0.49183
2260.48852,0.49156
2258.55978,0.49175
2256.63103,0.49216
2254.70229,0.49289
2252.77355,0.49419
2250.84480,0.49609
2248.91606,0.49838
2246.98731,0.50089
2245.05857,0.50351
2243.12982,0.50609
2241.20108,0.50848
2239.27233,0.51070
2237.34359,0.51289
2235.41485,0.51504
2233.48610,0.51675
2231.55736,0.51785
2229.62861,0.51873
2227.69987,0.51961
2225.77112,0.52027
2223.84238,0.52081
2221.91363,0.52150
2219.98489,0.52230
2218.05615,0.52304
2216.12740,0.52364
2214.19866,0.52416
2212.26991,0.52481
2210.34117,0.52576
2208.41242,0.52722
2206.48368,0.52938
2204.55493,0.53204
2202.62619,0.53461
2200.69745,0.53654
2198.76870,0.53774
2196.83996,0.53846
2194.91121,0.53877
2192.98247,0.53858
2191.05372,0.53799
2189.12498,0.53711
2187.19623,0.53576
2185.26749,0.53386
2183.33874,0.53168
2181.41000,0.52928
2179.48126,0.52652
2177.55251,0.52347
2175.62377,0.52027
2173.69502,0.51678
2171.76628,0.51305
2169.83753,0.50921
2167.90879,0.50502
2165.98004,0.50036
2164.05130,0.49544
2162.12256,0.49041
2160.19381,0.48535
2158.26507,0.48028
2156.33632,0.47528
2154.40758,0.47063
2152.47883,0.46637
2150.55009,0.46246
2148.62134,0.45884
2146.69260,0.45553
2144.76386,0.45261
2142.83511,0.44995
2140.90637,0.44739
2138.97762,0.44498
2137.04888,0.44266
2135.12013,0.44015
2133.19139,0.43722
2131.26264,0.43395
2129.33390,0.43042
2127.40516,0.42660
2125.47641,0.42257
2123.54767,0.41869
2121.61892,0.41525
2119.69018,0.41227
2117.76143,0.40987
2115.83269,0.40818
2113.90394,0.40711
2111.97520,0.40647
2110.04645,0.40629
2108.11771,0.40652
2106.18897,0.40694
2104.26022,0.40754
2102.33148,0.40833
2100.40273,0.40912
2098.47399,0.40994
2096.54524,0.41093
2094.61650,0.41219
2092.68775,0.41382
2090.75901,0.41597
2088.83027,0.41863
2086.90152,0.42165
2084.97278,0.42509
2083.04403,0.42899
2081.11529,0.43305
2079.18654,0.43709
2077.25780,0.44126
2075.32905,0.44563
2073.40031,0.45024
2071.47157,0.45501
2069.54282,0.45969
2067.61408,0.46441
2065.68533,0.46940
2063.75659,0.47453
2061.82784,0.47971
2059.89910,0.48496
2057.97035,0.49003
2056.04161,0.49460
2054.11287,0.49859
2052.18412,0.50209
2050.25538,0.50503
2048.32663,0.50720
2046.39789,0.50882
2044.46914,0.51013
2042.54040,0.51104
2040.61165,0.51157
2038.68291,0.51172
2036.75416,0.51127
2034.82542,0.51009
2032.89668,0.50824
2030.96793,0.50571
2029.03919,0.50257
2027.11044,0.49901
2025.18170,0.49521
2023.25295,0.49116
2021.32421,0.48683
2019.39546,0.48251
2017.46672,0.47844
2015.53798,0.47452
2013.60923,0.47069
2011.68049,0.46700
2009.75174,0.46328
2007.82300,0.45928
2005.89425,0.45501
2003.96551,0.45062
2002.03676,0.44616
2000.10802,0.44161
1998.17928,0.43705
1996.25053,0.43254
1994.32179,0.42814
1992.39304,0.42366
1990.46430,0.41904
1988.53555,0.41461
1986.60681,0.41048
1984.67806,0.40647
1982.74932,0.40233
1980.82058,0.39788
1978.89183,0.39304
1976.96309,0.38773
1975.03434,0.38176
1973.10560,0.37492
1971.17685,0.36705
1969.24811,0.35799
1967.31936,0.34776
1965.39062,0.33723
1963.46187,0.32834
1961.53313,0.32290
1959.60439,0.32166
1957.67564,0.32413
1955.74690,0.32892
1953.81815,0.33451
1951.88941,0.34012
1949.96066,0.34578
1948.03192,0.35174
1946.10317,0.35799
1944.17443,0.36443
1942.24569,0.37102
1940.31694,0.37760
1938.38820,0.38408
1936.45945,0.39047
1934.53071,0.39660
1932.60196,0.40204
1930.67322,0.40677
1928.74447,0.41116
1926.81573,0.41536
1924.88699,0.41934
1922.95824,0.42319
1921.02950,0.42685
1919.10075,0.43025
1917.17201,0.43344
1915.24326,0.43641
1913.31452,0.43915
1911.38577,0.44168
1909.45703,0.44408
1907.52829,0.44629
1905.59954,0.44807
1903.67080,0.44936
1901.74205,0.45053
1899.81331,0.45188
1897.88456,0.45311
1895.95582,0.45380
1894.02707,0.45409
1892.09833,0.45421
1890.16958,0.45430
1888.24084,0.45434
1886.31210,0.45413
1884.38335,0.45359
1882.45461,0.45280
1880.52586,0.45174
1878.59712,0.45029
1876.66837,0.44825
1874.73963,0.44553
1872.81088,0.44219
1870.88214,0.43835
1868.95340,0.43409
1867.02465,0.42954
1865.09591,0.42489
1863.16716,0.42015
1861.23842,0.41496
1859.30967,0.40896
1857.38093,0.40221
1855.45218,0.39476
1853.52344,0.38651
1851.59470,0.37767
1849.66595,0.36883
1847.73721,0.36043
1845.80846,0.35243
1843.87972,0.34457
1841.95097,0.33705
1840.02223,0.33021
1838.09348,0.32401
1836.16474,0.31837
1834.23600,0.31320
1832.30725,0.30848
1830.37851,0.30426
1828.44976,0.30086
1826.52102,0.29857
1824.59227,0.29712
1822.66353,0.29614
1820.73478,0.29553
1818.80604,0.29513
1816.87729,0.29458
1814.94855,0.29366
1813.01981,0.29243
1811.09106,0.29088
1809.16232,0.28921
1807.23357,0.28791
1805.30483,0.28708
1803.37608,0.28631
1801.44734,0.28516
1799.51859,0.28362
1797.58985,0.28183
1795.66111,0.27976
1793.73236,0.27727
1791.80362,0.27427
1789.87487,0.27093
1787.94613,0.26732
1786.01738,0.26337
1784.08864,0.25907
1782.15989,0.25444
1780.23115,0.24943
1778.30241,0.24402
1776.37366,0.23830
1774.44492,0.23221
1772.51617,0.22530
1770.58743,0.21753
1768.65868,0.20935
1766.72994,0.20076
1764.80119,0.19173
1762.87245,0.18167
1760.94370,0.17026
1759.01496,0.15809
1757.08622,0.14485
1755.15747,0.13059
1753.22873,0.11562
1751.29998,0.09921
1749.37124,0.08204
1747.44249,0.06629
1745.51375,0.05322
1743.58500,0.04348
1741.65626,0.03719
1739.72752,0.03383
1737.79877,0.03258
1735.87003,0.03259
1733.94128,0.03344
1732.01254,0.03469
1730.08379,0.03597
1728.15505,0.03747
1726.22630,0.03909
1724.29756,0.04061
1722.36882,0.04229
1720.44007,0.04443
1718.51133,0.04728
1716.58258,0.05167
1714.65384,0.05884
1712.72509,0.06905
1710.79635,0.08124
1708.86760,0.09385
1706.93886,0.10646
1705.01012,0.11870
1703.08137,0.12965
1701.15263,0.14009
1699.22388,0.14992
1697.29514,0.15769
1695.36639,0.16421
1693.43765,0.16972
1691.50890,0.17358
1689.58016,0.17562
1687.65141,0.17572
1685.72267,0.17479
1683.79393,0.17513
1681.86518,0.17875
1679.93644,0.18499
1678.00769,0.19200
1676.07895,0.19866
1674.15020,0.20441
1672.22146,0.20926
1670.29271,0.21460
1668.36397,0.22134
1666.43523,0.22861
1664.50648,0.23574
1662.57774,0.24238
1660.64899,0.24772
1658.72025,0.25185
1656.79150,0.25534
1654.86276,0.25851
1652.93401,0.26154
1651.00527,0.26402
1649.07653,0.26603
1647.14778,0.26828
1645.21904,0.27096
1643.29029,0.27367
1641.36155,0.27622
1639.43280,0.27851
1637.50406,0.28050
1635.57531,0.28235
1633.64657,0.28393
1631.71783,0.28513
1629.78908,0.28600
1627.86034,0.28649
1625.93159,0.28641
1624.00285,0.28543
1622.07410,0.28301
1620.14536,0.27863
1618.21661,0.27203
1616.28787,0.26450
1614.35912,0.26010
1612.43038,0.26091
1610.50164,0.26566
1608.57289,0.27199
1606.64415,0.27798
1604.71540,0.28315
1602.78666,0.28774
1600.85791,0.29173
1598.92917,0.29471
1597.00042,0.29610
1595.07168,0.29530
1593.14294,0.29210
1591.21419,0.28674
1589.28545,0.27950
1587.35670,0.26983
1585.42796,0.25627
1583.49921,0.23896
1581.57047,0.22182
1579.64172,0.21105
1577.71298,0.21108
1575.78424,0.22223
1573.85549,0.23828
1571.92675,0.25330
1569.99800,0.26638
1568.06926,0.27650
1566.14051,0.28320
1564.21177,0.28738
1562.28302,0.28979
1560.35428,0.29103
1558.42554,0.29124
1556.49679,0.29059
1554.56805,0.28972
1552.63930,0.28886
1550.71056,0.28760
1548.78181,0.28551
1546.85307,0.28306
1544.92432,0.28131
1542.99558,0.28106
1541.06683,0.28212
1539.13809,0.28295
1537.20935,0.28228
1535.28060,0.28025
1533.35186,0.27694
1531.42311,0.27268
1529.49437,0.26794
1527.56562,0.26308
1525.63688,0.25918
1523.70813,0.25725
1521.77939,0.25690
1519.85065,0.25631
1517.92190,0.25336
1515.99316,0.24622
1514.06441,0.23319
1512.13567,0.21232
1510.20692,0.18359
1508.27818,0.15176
1506.34943,0.13086
1504.42069,0.13690
1502.49195,0.16388
1500.56320,0.19846
1498.63446,0.23113
1496.70571,0.25549
1494.77697,0.26907
1492.84822,0.27341
1490.91948,0.27137
1488.99073,0.26480
1487.06199,0.25519
1485.13325,0.24360
1483.20450,0.23069
1481.27576,0.21698
1479.34701,0.20291
1477.41827,0.18820
1475.48952,0.17267
1473.56078,0.15858
1471.63203,0.15167
1469.70329,0.15422
1467.77454,0.16056
1465.84580,0.16455
1463.91706,0.16415
1461.98831,0.16093
1460.05957,0.15698
1458.13082,0.15310
1456.20208,0.15009
1454.27333,0.14893
1452.34459,0.14947
1450.41584,0.15104
1448.48710,0.15300
1446.55836,0.15475
1444.62961,0.15606
1442.70087,0.15712
1440.77212,0.15819
1438.84338,0.15981
1436.91463,0.16257
1434.98589,0.16610
1433.05714,0.16928
1431.12840,0.17130
1429.19966,0.17109
1427.27091,0.16764
1425.34217,0.16045
1423.41342,0.14944
1421.48468,0.13477
1419.55593,0.11572
1417.62719,0.09421
1415.69844,0.07549
1413.76970,0.06262
1411.84096,0.05699
1409.91221,0.05859
1407.98347,0.06587
1406.05472,0.07688
1404.12598,0.08926
1402.19723,0.10040
1400.26849,0.10914
1398.33974,0.11526
1396.41100,0.11857
1394.48225,0.11925
1392.55351,0.11763
1390.62477,0.11431
1388.69602,0.11032
1386.76728,0.10706
1384.83853,0.10572
1382.90979,0.10606
1380.98104,0.10667
1379.05230,0.10630
1377.12355,0.10463
1375.19481,0.10201
1373.26607,0.09915
1371.33732,0.09699
1369.40858,0.09621
1367.47983,0.09703
1365.55109,0.09895
1363.62234,0.10074
1361.69360,0.10083
1359.76485,0.09825
1357.83611,0.09329
1355.90737,0.08672
1353.97862,0.07924
1352.04988,0.07159
1350.12113,0.06475
1348.19239,0.05975
1346.26364,0.05697
1344.33490,0.05589
1342.40615,0.05597
1340.47741,0.05789
1338.54867,0.06339
1336.61992,0.07352
1334.69118,0.08675
1332.76243,0.09931
1330.83369,0.10746
1328.90494,0.10965
1326.97620,0.10660
1325.04745,0.10002
1323.11871,0.09171
1321.18996,0.08315
1319.26122,0.07507
1317.33248,0.06766
1315.40373,0.06118
1313.47499,0.05561
1311.54624,0.05070
1309.61750,0.04645
1307.68875,0.04303
1305.76001,0.04036
1303.83126,0.03835
1301.90252,0.03692
1299.97378,0.03606
1298.04503,0.03585
1296.11629,0.03619
1294.18754,0.03695
1292.25880,0.03826
1290.33005,0.04002
1288.40131,0.04185
1286.47256,0.04391
1284.54382,0.04635
1282.61508,0.04893
1280.68633,0.05146
1278.75759,0.05376
1276.82884,0.05572
1274.90010,0.05745
1272.97135,0.05902
1271.04261,0.06036
1269.11386,0.06144
1267.18512,0.06236
1265.25638,0.06320
1263.32763,0.06388
1261.39889,0.06423
1259.47014,0.06442
1257.54140,0.06485
1255.61265,0.06542
1253.68391,0.06564
1251.75516,0.06509
1249.82642,0.06380
1247.89767,0.06215
1245.96893,0.06047
1244.04019,0.05906
1242.11144,0.05849
1240.18270,0.05956
1238.25395,0.06338
1236.32521,0.07104
1234.39646,0.08269
1232.46772,0.09689
1230.53897,0.11145
1228.61023,0.12468
1226.68149,0.13602
1224.75274,0.14633
1222.82400,0.15724
1220.89525,0.16937
1218.96651,0.18150
1217.03776,0.19190
1215.10902,0.19980
1213.18027,0.20568
1211.25153,0.21090
1209.32279,0.21669
1207.39404,0.22357
1205.46530,0.23135
1203.53655,0.23929
1201.60781,0.24673
1199.67906,0.25332
1197.75032,0.25869
1195.82157,0.26240
1193.89283,0.26388
1191.96409,0.26273
1190.03534,0.25891
1188.10660,0.25262
1186.17785,0.24418
1184.24911,0.23381
1182.32036,0.22209
1180.39162,0.21017
1178.46287,0.19929
1176.53413,0.19023
1174.60538,0.18338
1172.67664,0.17882
1170.74790,0.17573
1168.81915,0.17226
1166.89041,0.16653
1164.96166,0.15801
1163.03292,0.14773
1161.10417,0.13687
1159.17543,0.12579
1157.24668,0.11460
1155.31794,0.10365
1153.38920,0.09317
1151.46045,0.08302
1149.53171,0.07340
1147.60296,0.06480
1145.67422,0.05761
1143.74547,0.05227
1141.81673,0.04887
1139.88798,0.04728
1137.95924,0.04736
1136.03050,0.04878
1134.10175,0.05121
1132.17301,0.05419
1130.24426,0.05660
1128.31552,0.05777
1126.38677,0.05810
1124.45803,0.05805
1122.52928,0.05804
1120.60054,0.05851
1118.67180,0.05928
1116.74305,0.05977
1114.81431,0.05960
1112.88556,0.05931
1110.95682,0.05960
1109.02807,0.06032
1107.09933,0.06109
1105.17058,0.06195
1103.24184,0.06319
1101.31309,0.06514
1099.38435,0.06806
1097.45561,0.07218
1095.52686,0.07771
1093.59812,0.08475
1091.66937,0.09308
1089.74063,0.10245
1087.81188,0.11301
1085.88314,0.12513
1083.95439,0.13934
1082.02565,0.15599
1080.09691,0.17462
1078.16816,0.19377
1076.23942,0.21175
1074.31067,0.22729
1072.38193,0.23995
1070.45318,0.25004
1068.52444,0.25789
1066.59569,0.26366
1064.66695,0.26760
1062.73821,0.26970
1060.80946,0.26953
1058.88072,0.26681
1056.95197,0.26175
1055.02323,0.25479
1053.09448,0.24652
1051.16574,0.23772
1049.23699,0.22927
1047.30825,0.22194
1045.37951,0.21622
1043.45076,0.21232
1041.52202,0.21003
1039.59327,0.20821
1037.66453,0.20540
1035.73578,0.20052
1033.80704,0.19216
1031.87829,0.17810
1029.94955,0.15588
1028.02080,0.12683
1026.09206,0.10004
1024.16332,0.08593
1022.23457,0.08559
1020.30583,0.09402
1018.37708,0.11090
1016.44834,0.14028
1014.51959,0.18098
1012.59085,0.22355
1010.66210,0.25871
1008.73336,0.28390
1006.80462,0.30071
1004.87587,0.31120
1002.94713,0.31709
1001.01838,0.31977
999.08964,0.32044
997.16089,0.31921
995.23215,0.31485
993.30340,0.30631
991.37466,0.29487
989.44592,0.28479
987.51717,0.27867
985.58843,0.27314
983.65968,0.26325
981.73094,0.24812
979.80219,0.22995
977.87345,0.21118
975.94470,0.19458
974.01596,0.18375
972.08722,0.18182
970.15847,0.18993
968.22973,0.20636
966.30098,0.22710
964.37224,0.24857
962.44349,0.26892
960.51475,0.28704
958.58600,0.30249
956.65726,0.31575
954.72851,0.32707
952.79977,0.33608
950.87103,0.34296
948.94228,0.34843
947.01354,0.35269
945.08479,0.35583
943.15605,0.35813
941.22730,0.35979
939.29856,0.36084
937.36981,0.36124
935.44107,0.36117
933.51233,0.36099
931.58358,0.36056
929.65484,0.35981
927.72609,0.35887
925.79735,0.35761
923.86860,0.35581
921.93986,0.35310
920.01111,0.34899
918.08237,0.34341
916.15363,0.33662
914.22488,0.32869
912.29614,0.31936
910.36739,0.30838
908.43865,0.29622
906.50990,0.28426
904.58116,0.27387
902.65241,0.26580
900.72367,0.26034
898.79492,0.25747
896.86618,0.25682
894.93744,0.25746
893.00869,0.25805
891.07995,0.25736
889.15120,0.25451
887.22246,0.24893
885.29371,0.24060
883.36497,0.22984
881.43622,0.21715
879.50748,0.20320
877.57874,0.18857
875.64999,0.17482
873.72125,0.16799
871.79250,0.17567
869.86376,0.19537
867.93501,0.21506
866.00627,0.22678
864.07752,0.23013
862.14878,0.22708
860.22004,0.21955
858.29129,0.20977
856.36255,0.19974
854.43380,0.19021
852.50506,0.18169
850.57631,0.17588
848.64757,0.17533
846.71882,0.18142
844.79008,0.19286
842.86134,0.20668
840.93259,0.22022
839.00385,0.23215
837.07510,0.24232
835.14636,0.25119
833.21761,0.25910
831.28887,0.26573
829.36012,0.27107
827.43138,0.27545
825.50263,0.27851
823.57389,0.28008
821.64515,0.28086
819.71640,0.28093
817.78766,0.27972
815.85891,0.27741
813.93017,0.27469
812.00142,0.27219
810.07268,0.26996
808.14393,0.26754
806.21519,0.26460
804.28645,0.26141
802.35770,0.25840
800.42896,0.25413
798.50021,0.24512
796.57147,0.23132
794.64272,0.21998
792.71398,0.21916
790.78523,0.22879
788.85649,0.24231
786.92775,0.25467
784.99900,0.26461
783.07026,0.27185
781.14151,0.27652
779.21277,0.27970
777.28402,0.28227
775.35528,0.28442
773.42653,0.28615
771.49779,0.28762
769.56905,0.28891
767.64030,0.29015
765.71156,0.29119
763.78281,0.29115
761.85407,0.28923
759.92532,0.28535
757.99658,0.28014
756.06783,0.27400
754.13909,0.26663
752.21034,0.25726
750.28160,0.24500
748.35286,0.22957
746.42411,0.21083
744.49537,0.18786
742.56662,0.16009
740.63788,0.12940
738.70913,0.10027
736.78039,0.07780
734.85164,0.06459
732.92290,0.05930
730.99416,0.05929
729.06541,0.06391
727.13667,0.07545
725.20792,0.09695
723.27918,0.12849
721.35043,0.16539
719.42169,0.19956
717.49294,0.22405
715.56420,0.23758
713.63546,0.24361
711.70671,0.24616
709.77797,0.24783
707.84922,0.25001
705.92048,0.25277
703.99173,0.25624
702.06299,0.26240
700.13424,0.27273
698.20550,0.28477
696.27676,0.29445
694.34801,0.30040
692.41927,0.30325
690.49052,0.30358
688.56178,0.30171
686.63303,0.29760
684.70429,0.29137
682.77554,0.28457
680.84680,0.27970
678.91805,0.27869
676.98931,0.28140
675.06057,0.28525
673.13182,0.28805
671.20308,0.29004
669.27433,0.29226
667.34559,0.29443
665.41684,0.29527
663.48810,0.29478
661.55935,0.29363
659.63061,0.29171
657.70187,0.28949
655.77312,0.28914
653.84438,0.29197
651.91563,0.29602
649.98689,0.29860
648.05814,0.29923
646.12940,0.29927
644.20065,0.29967
642.27191,0.29954
640.34317,0.29795
638.41442,0.29443
636.48568,0.28611
634.55693,0.27057
632.62819,0.25695
630.69944,0.25892
628.77070,0.27244
626.84195,0.28412
624.91321,0.29010
622.98447,0.29263
621.05572,0.29355
619.12698,0.29298
617.19823,0.29024
615.26949,0.28767
613.34074,0.28774
611.41200,0.28850
609.48325,0.28814
607.55451,0.28757
605.62576,0.28682
603.69702,0.28574
601.76828,0.28469
599.83953,0.28333
