5996.40973,0.65687
5994.48101,0.66620
5992.55228,0.67248
5990.62356,0.67444
5988.69483,0.67010
5986.76610,0.66141
5984.83738,0.65755
5982.90865,0.66059
5980.97992,0.66293
5979.05120,0.66288
5977.12247,0.66594
5975.19375,0.67093
5973.26502,0.67311
5971.33629,0.67182
5969.40757,0.66686
5967.47884,0.66211
5965.55011,0.66262
5963.62139,0.66595
5961.69266,0.66823
5959.76394,0.67087
5957.83521,0.67427
5955.90648,0.67681
5953.97776,0.68050
5952.04903,0.68419
5950.12031,0.68283
5948.19158,0.67856
5946.26285,0.67615
5944.33413,0.67605
5942.40540,0.67839
5940.47667,0.68234
5938.54795,0.68416
5936.61922,0.68361
5934.69050,0.68672
5932.76177,0.69447
5930.83304,0.69970
5928.90432,0.69983
5926.97559,0.69774
5925.04686,0.69575
5923.11814,0.69657
5921.18941,0.69928
5919.26069,0.70073
5917.33196,0.70246
5915.40323,0.70557
5913.47451,0.70701
5911.54578,0.70722
5909.61706,0.70942
5907.68833,0.71278
5905.75960,0.71584
5903.83088,0.71706
5901.90215,0.71313
5899.97342,0.70791
5898.04470,0.70887
5896.11597,0.71369
5894.18725,0.71589
5892.25852,0.71615
5890.32979,0.71723
5888.40107,0.71756
5886.47234,0.71425
5884.54361,0.70755
5882.61489,0.70457
5880.68616,0.70953
5878.75744,0.71418
5876.82871,0.71095
5874.89998,0.70350
5872.97126,0.69997
5871.04253,0.70220
5869.11381,0.70449
5867.18508,0.70440
5865.25635,0.70485
5863.32763,0.70734
5861.39890,0.71128
5859.47017,0.71233
5857.54145,0.70591
5855.61272,0.69965
5853.68400,0.70399
5851.75527,0.71331
5849.82654,0.71610
5847.89782,0.71204
5845.96909,0.70732
5844.04036,0.70509
5842.11164,0.70549
5840.18291,0.70790
5838.25419,0.70884
5836.32546,0.70584
5834.39673,0.70392
5832.46801,0.70623
5830.53928,0.70789
5828.61056,0.70867
5826.68183,0.71243
5824.75310,0.71533
5822.82438,0.71272
5820.89565,0.70750
5818.96692,0.70461
5817.03820,0.70601
5815.10947,0.71027
5813.18075,0.71404
5811.25202,0.71557
5809.32329,0.71634
5807.39457,0.71781
5805.46584,0.71871
5803.53711,0.71783
5801.60839,0.71601
5799.67966,0.71369
5797.75094,0.71002
5795.82221,0.70599
5793.89348,0.70521
5791.96476,0.70884
5790.03603,0.71317
5788.10731,0.71617
5786.17858,0.71956
5784.24985,0.72162
5782.32113,0.71849
5780.39240,0.71414
5778.46367,0.71620
5776.53495,0.72098
5774.60622,0.71954
5772.67750,0.71553
5770.74877,0.71689
5768.82004,0.72016
5766.89132,0.71991
5764.96259,0.71869
5763.03386,0.71882
5761.10514,0.71812
5759.17641,0.71480
5757.24769,0.71311
5755.31896,0.71917
5753.39023,0.72796
5751.46151,0.73208
5749.53278,0.73282
5747.60406,0.73037
5745.67533,0.72660
5743.74660,0.72841
5741.81788,0.73577
5739.88915,0.74146
5737.96042,0.74126
5736.03170,0.73704
5734.10297,0.73390
5732.17425,0.73620
5730.24552,0.74056
5728.31679,0.74141
5726.38807,0.74211
5724.45934,0.74450
5722.53061,0.74414
5720.60189,0.74021
5718.67316,0.73585
5716.74444,0.73478
5714.81571,0.73637
5712.88698,0.73685
5710.95826,0.73659
5709.02953,0.73703
5707.10081,0.73785
5705.17208,0.73808
5703.24335,0.73665
5701.31463,0.73506
5699.38590,0.73426
5697.45717,0.73309
5695.52845,0.73435
5693.59972,0.73888
5691.67100,0.74003
5689.74227,0.73711
5687.81354,0.73686
5685.88482,0.74019
5683.95609,0.74248
5682.02736,0.74140
5680.09864,0.74013
5678.16991,0.74099
5676.24119,0.74061
5674.31246,0.73837
5672.38373,0.73838
5670.45501,0.74033
5668.52628,0.74112
5666.59756,0.74118
5664.66883,0.74125
5662.74010,0.74041
5660.81138,0.73775
5658.88265,0.73454
5656.95392,0.73402
5655.02520,0.73572
5653.09647,0.73646
5651.16775,0.73719
5649.23902,0.74069
5647.31029,0.74452
5645.38157,0.74409
5643.45284,0.74249
5641.52411,0.74587
5639.59539,0.75307
5637.66666,0.75896
5635.73794,0.76192
5633.80921,0.76314
5631.88048,0.76185
5629.95176,0.75812
5628.02303,0.75670
5626.09430,0.75925
5624.16558,0.76070
5622.23685,0.76014
5620.30813,0.76181
5618.37940,0.76408
5616.45067,0.76336
5614.52195,0.75993
5612.59322,0.75459
5610.66450,0.75066
5608.73577,0.75064
5606.80704,0.75169
5604.87832,0.75252
5602.94959,0.75456
5601.02086,0.75594
5599.09214,0.75503
5597.16341,0.75452
5595.23469,0.75601
5593.30596,0.75575
5591.37723,0.75258
5589.44851,0.75043
5587.51978,0.74891
5585.59105,0.74616
5583.66233,0.74678
5581.73360,0.75186
5579.80488,0.75490
5577.87615,0.75333
5575.94742,0.75097
5574.01870,0.75121
5572.08997,0.75438
5570.16125,0.75706
5568.23252,0.75481
5566.30379,0.74936
5564.37507,0.74633
5562.44634,0.74850
5560.51761,0.75449
5558.58889,0.75909
5556.66016,0.75875
5554.73144,0.75466
5552.80271,0.74855
5550.87398,0.74190
5548.94526,0.73691
5547.01653,0.73548
5545.08780,0.73769
5543.15908,0.74230
5541.23035,0.74822
5539.30163,0.75360
5537.37290,0.75450
5535.44417,0.74970
5533.51545,0.74411
5531.58672,0.74080
5529.65800,0.73813
5527.72927,0.73718
5525.80054,0.74035
5523.87182,0.74464
5521.94309,0.74675
5520.01436,0.74894
5518.08564,0.75205
5516.15691,0.75219
5514.22819,0.74874
5512.29946,0.74595
5510.37073,0.74566
5508.44201,0.74598
5506.51328,0.74520
5504.58455,0.74357
5502.65583,0.74206
5500.72710,0.74162
5498.79838,0.74302
5496.86965,0.74341
5494.94092,0.73914
5493.01220,0.73351
5491.08347,0.73230
5489.15475,0.73651
5487.22602,0.74263
5485.29729,0.74587
5483.36857,0.74562
5481.43984,0.74439
5479.51111,0.74232
5477.58239,0.73890
5475.65366,0.73636
5473.72494,0.73750
5471.79621,0.74152
5469.86748,0.74402
5467.93876,0.74288
5466.01003,0.74143
5464.08130,0.74354
5462.15258,0.74748
5460.22385,0.74905
5458.29513,0.74875
5456.36640,0.75004
5454.43767,0.75283
5452.50895,0.75505
5450.58022,0.75714
5448.65150,0.75937
5446.72277,0.76155
5444.79404,0.76550
5442.86532,0.77049
5440.93659,0.77283
5439.00786,0.77035
5437.07914,0.76440
5435.15041,0.76030
5433.22169,0.76104
5431.29296,0.76203
5429.36423,0.76135
5427.43551,0.76322
5425.50678,0.76823
5423.57805,0.77294
5421.64933,0.77432
5419.72060,0.77031
5417.79188,0.76226
5415.86315,0.75469
5413.93442,0.75055
5412.00570,0.74943
5410.07697,0.75109
5408.14825,0.75445
5406.21952,0.75575
5404.29079,0.75470
5402.36207,0.75508
5400.43334,0.75738
5398.50461,0.75868
5396.57589,0.75729
5394.64716,0.75582
5392.71844,0.75902
5390.78971,0.76529
5388.86098,0.76708
5386.93226,0.76204
5385.00353,0.75682
5383.07480,0.75750
5381.14608,0.75985
5379.21735,0.75768
5377.28863,0.75392
5375.35990,0.75374
5373.43117,0.75597
5371.50245,0.75789
5369.57372,0.75831
5367.64500,0.75684
5365.71627,0.75447
5363.78754,0.75416
5361.85882,0.75804
5359.93009,0.76230
5358.00136,0.76048
5356.07264,0.75153
5354.14391,0.74247
5352.21519,0.74091
5350.28646,0.74425
5348.35773,0.74494
5346.42901,0.74253
5344.50028,0.74186
5342.57155,0.74355
5340.64283,0.74433
5338.71410,0.74470
5336.78538,0.74610
5334.85665,0.74645
5332.92792,0.74625
5330.99920,0.74899
5329.07047,0.75417
5327.14175,0.75894
5325.21302,0.76238
5323.28429,0.76321
5321.35557,0.76063
5319.42684,0.75630
5317.49811,0.75305
5315.56939,0.75358
5313.64066,0.75709
5311.71194,0.75881
5309.78321,0.75603
5307.85448,0.75217
5305.92576,0.75216
5303.99703,0.75444
5302.06830,0.75448
5300.13958,0.75314
5298.21085,0.75295
5296.28213,0.75416
5294.35340,0.75589
5292.42467,0.75449
5290.49595,0.74864
5288.56722,0.74391
5286.63849,0.74228
5284.70977,0.73945
5282.78104,0.73484
5280.85232,0.73176
5278.92359,0.73194
5276.99486,0.73413
5275.06614,0.73496
5273.13741,0.73195
5271.20869,0.72642
5269.27996,0.72175
5267.35123,0.71793
5265.42251,0.71158
5263.49378,0.70485
5261.56505,0.70518
5259.63633,0.71218
5257.70760,0.71689
5255.77888,0.71528
5253.85015,0.71203
5251.92142,0.70926
5249.99270,0.70490
5248.06397,0.70132
5246.13524,0.70203
5244.20652,0.70584
5242.27779,0.70989
5240.34907,0.71271
5238.42034,0.71373
5236.49161,0.71312
5234.56289,0.71176
5232.63416,0.71115
5230.70544,0.71175
5228.77671,0.71123
5226.84798,0.70924
5224.91926,0.71095
5222.99053,0.71883
5221.06180,0.72705
5219.13308,0.73041
5217.20435,0.73021
5215.27563,0.72934
5213.34690,0.72878
5211.41817,0.72878
5209.48945,0.72735
5207.56072,0.72304
5205.63199,0.72033
5203.70327,0.72324
5201.77454,0.72947
5199.84582,0.73491
5197.91709,0.73778
5195.98836,0.73892
5194.05964,0.73940
5192.13091,0.74029
5190.20219,0.74206
5188.27346,0.74147
5186.34473,0.73670
5184.41601,0.73290
5182.48728,0.73389
5180.55855,0.73683
5178.62983,0.73851
5176.70110,0.73820
5174.77238,0.73671
5172.84365,0.73619
5170.91492,0.73739
5168.98620,0.73846
5167.05747,0.73698
5165.12874,0.73337
5163.20002,0.73133
5161.27129,0.73222
5159.34257,0.73249
5157.41384,0.72987
5155.48511,0.72687
5153.55639,0.72610
5151.62766,0.72766
5149.69894,0.73144
5147.77021,0.73513
5145.84148,0.73507
5143.91276,0.73281
5141.98403,0.73247
5140.05530,0.73400
5138.12658,0.73507
5136.19785,0.73503
5134.26913,0.73421
5132.34040,0.73299
5130.41167,0.73299
5128.48295,0.73463
5126.55422,0.73409
5124.62549,0.72892
5122.69677,0.72294
5120.76804,0.72013
5118.83932,0.71977
5116.91059,0.72030
5114.98186,0.72085
5113.05314,0.72109
5111.12441,0.72366
5109.19569,0.72929
5107.26696,0.73301
5105.33823,0.73264
5103.40951,0.73153
5101.48078,0.73236
5099.55205,0.73490
5097.62333,0.73738
5095.69460,0.73913
5093.76588,0.74068
5091.83715,0.74261
5089.90842,0.74619
5087.97970,0.75140
5086.05097,0.75562
5084.12224,0.75570
5082.19352,0.75167
5080.26479,0.74904
5078.33607,0.75184
5076.40734,0.75666
5074.47861,0.75893
5072.54989,0.75814
5070.62116,0.75541
5068.69244,0.75314
5066.76371,0.75423
5064.83498,0.75728
5062.90626,0.75797
5060.97753,0.75501
5059.04880,0.75084
5057.12008,0.74891
5055.19135,0.75063
5053.26263,0.75433
5051.33390,0.75688
5049.40517,0.75644
5047.47645,0.75461
5045.54772,0.75403
5043.61899,0.75472
5041.69027,0.75454
5039.76154,0.75406
5037.83282,0.75606
5035.90409,0.75902
5033.97536,0.75948
5032.04664,0.75803
5030.11791,0.75656
5028.18919,0.75639
5026.26046,0.75824
5024.33173,0.75875
5022.40301,0.75498
5020.47428,0.75095
5018.54555,0.75048
5016.61683,0.75169
5014.68810,0.75231
5012.75938,0.75237
5010.83065,0.75207
5008.90192,0.75220
5006.97320,0.75355
5005.04447,0.75478
5003.11574,0.75430
5001.18702,0.75313
4999.25829,0.75327
4997.32957,0.75319
4995.40084,0.75247
4993.47211,0.75170
4991.54339,0.75228
4989.61466,0.75415
4987.68594,0.75575
4985.75721,0.75572
4983.82848,0.75446
4981.89976,0.75436
4979.97103,0.75544
4978.04230,0.75465
4976.11358,0.75297
4974.18485,0.75297
4972.25613,0.75312
4970.32740,0.75286
4968.39867,0.75320
4966.46995,0.75412
4964.54122,0.75556
4962.61249,0.75623
4960.68377,0.75540
4958.75504,0.75457
4956.82632,0.75398
4954.89759,0.75234
4952.96886,0.75008
4951.04014,0.74934
4949.11141,0.75060
4947.18269,0.75177
4945.25396,0.75132
4943.32523,0.74991
4941.39651,0.74812
4939.46778,0.74594
4937.53905,0.74431
4935.61033,0.74304
4933.68160,0.74187
4931.75288,0.74273
4929.82415,0.74503
4927.89542,0.74640
4925.96670,0.74708
4924.03797,0.74690
4922.10924,0.74456
4920.18052,0.74052
4918.25179,0.73772
4916.32307,0.73823
4914.39434,0.74068
4912.46561,0.74290
4910.53689,0.74461
4908.60816,0.74643
4906.67943,0.74761
4904.75071,0.74718
4902.82198,0.74528
4900.89326,0.74222
4898.96453,0.73879
4897.03580,0.73635
4895.10708,0.73637
4893.17835,0.73801
4891.24963,0.73779
4889.32090,0.73675
4887.39217,0.73790
4885.46345,0.73920
4883.53472,0.73873
4881.60599,0.73730
4879.67727,0.73598
4877.74854,0.73674
4875.81982,0.73874
4873.89109,0.73837
4871.96236,0.73640
4870.03364,0.73699
4868.10491,0.74088
4866.17618,0.74327
4864.24746,0.74048
4862.31873,0.73711
4860.39001,0.73773
4858.46128,0.73852
4856.53255,0.73623
4854.60383,0.73431
4852.67510,0.73577
4850.74638,0.73788
4848.81765,0.73714
4846.88892,0.73540
4844.96020,0.73523
4843.03147,0.73551
4841.10274,0.73511
4839.17402,0.73265
4837.24529,0.72752
4835.31657,0.72299
4833.38784,0.72025
4831.45911,0.71762
4829.53039,0.71600
4827.60166,0.71581
4825.67293,0.71551
4823.74421,0.71475
4821.81548,0.71359
4819.88676,0.71255
4817.95803,0.71290
4816.02930,0.71320
4814.10058,0.71101
4812.17185,0.70791
4810.24313,0.70664
4808.31440,0.70703
4806.38567,0.70754
4804.45695,0.70693
4802.52822,0.70574
4800.59949,0.70556
4798.67077,0.70574
4796.74204,0.70507
4794.81332,0.70406
4792.88459,0.70333
4790.95586,0.70390
4789.02714,0.70604
4787.09841,0.70724
4785.16968,0.70669
4783.24096,0.70606
4781.31223,0.70526
4779.38351,0.70408
4777.45478,0.70400
4775.52605,0.70566
4773.59733,0.70766
4771.66860,0.70900
4769.73988,0.71045
4767.81115,0.71171
4765.88242,0.71133
4763.95370,0.70972
4762.02497,0.70792
4760.09624,0.70569
4758.16752,0.70300
4756.23879,0.70024
4754.31007,0.69761
4752.38134,0.69599
4750.45261,0.69572
4748.52389,0.69537
4746.59516,0.69303
4744.66643,0.68905
4742.73771,0.68628
4740.80898,0.68521
4738.88026,0.68331
4736.95153,0.67963
4735.02280,0.67528
4733.09408,0.67163
4731.16535,0.66923
4729.23663,0.66694
4727.30790,0.66285
4725.37917,0.65611
4723.45045,0.64894
4721.52172,0.64520
4719.59299,0.64456
4717.66427,0.64398
4715.73554,0.64330
4713.80682,0.64306
4711.87809,0.64257
4709.94936,0.64105
4708.02064,0.63813
4706.09191,0.63472
4704.16318,0.63147
4702.23446,0.62767
4700.30573,0.62283
4698.37701,0.61771
4696.44828,0.61324
4694.51955,0.60887
4692.59083,0.60527
4690.66210,0.60450
4688.73338,0.60562
4686.80465,0.60677
4684.87592,0.60907
4682.94720,0.61373
4681.01847,0.61909
4679.08974,0.62385
4677.16102,0.62914
4675.23229,0.63432
4673.30357,0.63828
4671.37484,0.64261
4669.44611,0.64674
4667.51739,0.64894
4665.58866,0.65110
4663.65993,0.65318
4661.73121,0.65320
4659.80248,0.65258
4657.87376,0.65152
4655.94503,0.64903
4654.01630,0.64770
4652.08758,0.64810
4650.15885,0.64704
4648.23013,0.64356
4646.30140,0.63872
4644.37267,0.63372
4642.44395,0.62987
4640.51522,0.62684
4638.58649,0.62320
4636.65777,0.62020
4634.72904,0.62047
4632.80032,0.62334
4630.87159,0.62631
4628.94286,0.62970
4627.01414,0.63587
4625.08541,0.64427
4623.15668,0.65148
4621.22796,0.65653
4619.29923,0.66129
4617.37051,0.66624
4615.44178,0.67011
4613.51305,0.67303
4611.58433,0.67602
4609.65560,0.67742
4607.72688,0.67562
4605.79815,0.67262
4603.86942,0.67124
4601.94070,0.67165
4600.01197,0.67113
4598.08324,0.66685
4596.15452,0.66039
4594.22579,0.65649
4592.29707,0.65554
4590.36834,0.65364
4588.43961,0.65017
4586.51089,0.64760
4584.58216,0.64608
4582.65343,0.64459
4580.72471,0.64318
4578.79598,0.64263
4576.86726,0.64403
4574.93853,0.64774
4573.00980,0.65363
4571.08108,0.66100
4569.15235,0.66739
4567.22363,0.67147
4565.29490,0.67460
4563.36617,0.67789
4561.43745,0.68074
4559.50872,0.68211
4557.57999,0.68276
4555.65127,0.68409
4553.72254,0.68540
4551.79382,0.68526
4549.86509,0.68406
4547.93636,0.68319
4546.00764,0.68300
4544.07891,0.68316
4542.15018,0.68387
4540.22146,0.68458
4538.29273,0.68399
4536.36401,0.68262
4534.43528,0.68230
4532.50655,0.68340
4530.57783,0.68370
4528.64910,0.68127
4526.72037,0.67780
4524.79165,0.67555
4522.86292,0.67500
4520.93420,0.67487
4519.00547,0.67300
4517.07674,0.67067
4515.14802,0.67056
4513.21929,0.67088
4511.29057,0.66903
4509.36184,0.66582
4507.43311,0.66239
4505.50439,0.65827
4503.57566,0.65355
4501.64693,0.64893
4499.71821,0.64446
4497.78948,0.64009
4495.86076,0.63520
4493.93203,0.62915
4492.00330,0.62354
4490.07458,0.61994
4488.14585,0.61710
4486.21712,0.61375
4484.28840,0.61043
4482.35967,0.60789
4480.43095,0.60636
4478.50222,0.60499
4476.57349,0.60227
4474.64477,0.59822
4472.71604,0.59387
4470.78732,0.58874
4468.85859,0.58226
4466.92986,0.57524
4465.00114,0.56791
4463.07241,0.55963
4461.14368,0.55125
4459.21496,0.54528
4457.28623,0.54310
4455.35751,0.54370
4453.42878,0.54523
4451.50005,0.54652
4449.57133,0.54733
4447.64260,0.54784
4445.71387,0.54780
4443.78515,0.54649
4441.85642,0.54361
4439.92770,0.54029
4437.99897,0.53839
4436.07024,0.53779
4434.14152,0.53662
4432.21279,0.53530
4430.28407,0.53586
4428.35534,0.53781
4426.42661,0.54001
4424.49789,0.54340
4422.56916,0.54857
4420.64043,0.55424
4418.71171,0.55820
4416.78298,0.55953
4414.85426,0.56041
4412.92553,0.56279
4410.99680,0.56488
4409.06808,0.56476
4407.13935,0.56377
4405.21062,0.56398
4403.28190,0.56532
4401.35317,0.56669
4399.42445,0.56833
4397.49572,0.57078
4395.56699,0.57335
4393.63827,0.57566
4391.70954,0.57765
4389.78082,0.57920
4387.85209,0.58064
4385.92336,0.58177
4383.99464,0.58249
4382.06591,0.58351
4380.13718,0.58425
4378.20846,0.58381
4376.27973,0.58320
4374.35101,0.58336
4372.42228,0.58395
4370.49355,0.58437
4368.56483,0.58406
4366.63610,0.58339
4364.70737,0.58282
4362.77865,0.58177
4360.84992,0.58029
4358.92120,0.57926
4356.99247,0.57905
4355.06374,0.57928
4353.13502,0.57966
4351.20629,0.57982
4349.27757,0.57890
4347.34884,0.57717
4345.42011,0.57560
4343.49139,0.57415
4341.56266,0.57265
4339.63393,0.57163
4337.70521,0.57151
4335.77648,0.57177
4333.84776,0.57149
4331.91903,0.57040
4329.99030,0.56919
4328.06158,0.56850
4326.13285,0.56860
4324.20412,0.56921
4322.27540,0.56959
4320.34667,0.56971
4318.41795,0.56937
4316.48922,0.56773
4314.56049,0.56547
4312.63177,0.56379
4310.70304,0.56236
4308.77432,0.56022
4306.84559,0.55737
4304.91686,0.55479
4302.98814,0.55291
4301.05941,0.55102
4299.13068,0.54874
4297.20196,0.54666
4295.27323,0.54552
4293.34451,0.54538
4291.41578,0.54540
4289.48705,0.54551
4287.55833,0.54675
4285.62960,0.54861
4283.70087,0.54953
4281.77215,0.54958
4279.84342,0.54980
4277.91470,0.55076
4275.98597,0.55235
4274.05724,0.55371
4272.12852,0.55448
4270.19979,0.55537
4268.27107,0.55647
4266.34234,0.55730
4264.41361,0.55806
4262.48489,0.55924
4260.55616,0.56026
4258.62743,0.56013
4256.69871,0.55909
4254.76998,0.55818
4252.84126,0.55804
4250.91253,0.55836
4248.98380,0.55844
4247.05508,0.55773
4245.12635,0.55624
4243.19762,0.55533
4241.26890,0.55592
4239.34017,0.55700
4237.41145,0.55799
4235.48272,0.55903
4233.55399,0.55969
4231.62527,0.55968
4229.69654,0.55944
4227.76782,0.55934
4225.83909,0.55924
4223.91036,0.55938
4221.98164,0.56015
4220.05291,0.56157
4218.12418,0.56360
4216.19546,0.56583
4214.26673,0.56816
4212.33801,0.57060
4210.40928,0.57180
4208.48055,0.57132
4206.55183,0.57083
4204.62310,0.57139
4202.69437,0.57253
4200.76565,0.57351
4198.83692,0.57387
4196.90820,0.57350
4194.97947,0.57305
4193.05074,0.57301
4191.12202,0.57269
4189.19329,0.57102
4187.26456,0.56790
4185.33584,0.56465
4183.40711,0.56206
4181.47839,0.55910
4179.54966,0.55602
4177.62093,0.55469
4175.69221,0.55543
4173.76348,0.55724
4171.83476,0.55946
4169.90603,0.56198
4167.97730,0.56505
4166.04858,0.56888
4164.11985,0.57265
4162.19112,0.57522
4160.26240,0.57654
4158.33367,0.57724
4156.40495,0.57787
4154.47622,0.57874
4152.54749,0.57959
4150.61877,0.58010
4148.69004,0.58013
4146.76131,0.57928
4144.83259,0.57733
4142.90386,0.57475
4140.97514,0.57169
4139.04641,0.56819
4137.11768,0.56500
4135.18896,0.56266
4133.26023,0.56141
4131.33151,0.56112
4129.40278,0.56085
4127.47405,0.55994
4125.54533,0.55894
4123.61660,0.55850
4121.68787,0.55849
4119.75915,0.55829
4117.83042,0.55724
4115.90170,0.55524
4113.97297,0.55278
4112.04424,0.54996
4110.11552,0.54658
4108.18679,0.54275
4106.25806,0.53902
4104.32934,0.53559
4102.40061,0.53123
4100.47189,0.52464
4098.54316,0.51574
4096.61443,0.50561
4094.68571,0.49634
4092.75698,0.48967
4090.82826,0.48630
4088.89953,0.48686
4086.97080,0.49114
4085.04208,0.49719
4083.11335,0.50349
4081.18462,0.51029
4079.25590,0.51806
4077.32717,0.52624
4075.39845,0.53369
4073.46972,0.53989
4071.54099,0.54535
4069.61227,0.54999
4067.68354,0.55320
4065.75481,0.55530
4063.82609,0.55714
4061.89736,0.55914
4059.96864,0.56166
4058.03991,0.56456
4056.11118,0.56685
4054.18246,0.56814
4052.25373,0.56923
4050.32501,0.57071
4048.39628,0.57145
4046.46755,0.57058
4044.53883,0.57061
4042.61010,0.57367
4040.68137,0.57757
4038.75265,0.58001
4036.82392,0.58134
4034.89520,0.58235
4032.96647,0.58342
4031.03774,0.58486
4029.10902,0.58565
4027.18029,0.58485
4025.25156,0.58436
4023.32284,0.58536
4021.39411,0.58572
4019.46539,0.58503
4017.53666,0.58514
4015.60793,0.58601
4013.67921,0.58633
4011.75048,0.58544
4009.82176,0.58390
4007.89303,0.58379
4005.96430,0.58559
4004.03558,0.58676
4002.10685,0.58677
4000.17812,0.58746
3998.24940,0.58827
3996.32067,0.58964
3994.39195,0.59082
3992.46322,0.59168
3990.53449,0.59223
3988.60577,0.59255
3986.67704,0.59279
3984.74831,0.59308
3982.81959,0.59352
3980.89086,0.59391
3978.96214,0.59397
3977.03341,0.59367
3975.10468,0.59325
3973.17596,0.59302
3971.24723,0.59308
3969.31851,0.59326
3967.38978,0.59316
3965.46105,0.59276
3963.53233,0.59269
3961.60360,0.59382
3959.67487,0.59597
3957.74615,0.59788
3955.81742,0.59890
3953.88870,0.59952
3951.95997,0.59993
3950.03124,0.59958
3948.10252,0.59893
3946.17379,0.59941
3944.24506,0.60111
3942.31634,0.60309
3940.38761,0.60458
3938.45889,0.60500
3936.53016,0.60425
3934.60143,0.60305
3932.67271,0.60252
3930.74398,0.60285
3928.81526,0.60327
3926.88653,0.60393
3924.95780,0.60485
3923.02908,0.60443
3921.10035,0.60241
3919.17162,0.60054
3917.24290,0.60085
3915.31417,0.60335
3913.38545,0.60600
3911.45672,0.60750
3909.52799,0.60799
3907.59927,0.60790
3905.67054,0.60683
3903.74181,0.60474
3901.81309,0.60453
3899.88436,0.60809
3897.95564,0.61241
3896.02691,0.61485
3894.09818,0.61622
3892.16946,0.61771
3890.24073,0.61856
3888.31201,0.61843
3886.38328,0.61862
3884.45455,0.61989
3882.52583,0.62055
3880.59710,0.62052
3878.66837,0.62101
3876.73965,0.62167
3874.81092,0.62208
3872.88220,0.62208
3870.95347,0.62150
3869.02474,0.62109
3867.09602,0.62162
3865.16729,0.62261
3863.23856,0.62290
3861.30984,0.62175
3859.38111,0.61997
3857.45239,0.61788
3855.52366,0.61644
3853.59493,0.61861
3851.66621,0.62230
3849.73748,0.62306
3847.80876,0.62174
3845.88003,0.62136
3843.95130,0.62250
3842.02258,0.62474
3840.09385,0.62746
3838.16512,0.62872
3836.23640,0.62807
3834.30767,0.62682
3832.37895,0.62543
3830.45022,0.62445
3828.52149,0.62432
3826.59277,0.62439
3824.66404,0.62375
3822.73531,0.62307
3820.80659,0.62256
3818.87786,0.62099
3816.94914,0.61789
3815.02041,0.61383
3813.09168,0.61037
3811.16296,0.60823
3809.23423,0.60747
3807.30550,0.60697
3805.37678,0.60629
3803.44805,0.60682
3801.51933,0.60930
3799.59060,0.61232
3797.66187,0.61536
3795.73315,0.61840
3793.80442,0.62079
3791.87570,0.62205
3789.94697,0.62241
3788.01824,0.62254
3786.08952,0.62281
3784.16079,0.62282
3782.23206,0.62280
3780.30334,0.62274
3778.37461,0.62128
3776.44589,0.61834
3774.51716,0.61598
3772.58843,0.61504
3770.65971,0.61382
3768.73098,0.61077
3766.80225,0.60714
3764.87353,0.60408
3762.94480,0.60149
3761.01608,0.59928
3759.08735,0.59691
3757.15862,0.59421
3755.22990,0.59333
3753.30117,0.59638
3751.37245,0.60191
3749.44372,0.60375
3747.51499,0.60042
3745.58627,0.59544
3743.65754,0.59533
3741.72881,0.59876
3739.80009,0.59980
3737.87136,0.59803
3735.94264,0.59554
3734.01391,0.59309
3732.08518,0.59088
3730.15646,0.58990
3728.22773,0.59162
3726.29900,0.59602
3724.37028,0.60115
3722.44155,0.60556
3720.51283,0.60870
3718.58410,0.60970
3716.65537,0.60924
3714.72665,0.60972
3712.79792,0.61182
3710.86920,0.61128
3708.94047,0.60544
3707.01174,0.59819
3705.08302,0.59241
3703.15429,0.58751
3701.22556,0.58209
3699.29684,0.57646
3697.36811,0.57093
3695.43939,0.56545
3693.51066,0.56074
3691.58193,0.55552
3689.65321,0.54574
3687.72448,0.53290
3685.79575,0.52425
3683.86703,0.52074
3681.93830,0.52008
3680.00958,0.52057
3678.08085,0.52065
3676.15212,0.51894
3674.22340,0.51552
3672.29467,0.51277
3670.36595,0.50993
3668.43722,0.50521
3666.50849,0.49994
3664.57977,0.49524
3662.65104,0.49095
3660.72231,0.48700
3658.79359,0.48325
3656.86486,0.47884
3654.93614,0.47429
3653.00741,0.47265
3651.07868,0.47428
3649.14996,0.47317
3647.22123,0.46607
3645.29250,0.45883
3643.36378,0.45423
3641.43505,0.45147
3639.50633,0.44917
3637.57760,0.44638
3635.64887,0.44340
3633.72015,0.44129
3631.79142,0.44082
3629.86270,0.44150
3627.93397,0.44111
3626.00524,0.43933
3624.07652,0.43830
3622.14779,0.43952
3620.21906,0.44300
3618.29034,0.44669
3616.36161,0.44864
3614.43289,0.44906
3612.50416,0.44863
3610.57543,0.44849
3608.64671,0.44976
3606.71798,0.45160
3604.78925,0.45293
3602.86053,0.45401
3600.93180,0.45491
3599.00308,0.45506
3597.07435,0.45461
3595.14562,0.45400
3593.21690,0.45295
3591.28817,0.45134
3589.35945,0.44961
3587.43072,0.44797
3585.50199,0.44616
3583.57327,0.44382
3581.64454,0.44088
3579.71581,0.43779
3577.78709,0.43492
3575.85836,0.43207
3573.92964,0.42896
3572.00091,0.42607
3570.07218,0.42413
3568.14346,0.42283
3566.21473,0.42112
3564.28600,0.41845
3562.35728,0.41483
3560.42855,0.41084
3558.49983,0.40739
3556.57110,0.40522
3554.64237,0.40443
3552.71365,0.40434
3550.78492,0.40395
3548.85620,0.40310
3546.92747,0.40279
3544.99874,0.40361
3543.07002,0.40441
3541.14129,0.40462
3539.21256,0.40539
3537.28384,0.40720
3535.35511,0.40903
3533.42639,0.41050
3531.49766,0.41243
3529.56893,0.41486
3527.64021,0.41683
3525.71148,0.41822
3523.78275,0.41990
3521.85403,0.42180
3519.92530,0.42353
3517.99658,0.42535
3516.06785,0.42744
3514.13912,0.42944
3512.21040,0.43105
3510.28167,0.43246
3508.35295,0.43367
3506.42422,0.43447
3504.49549,0.43487
3502.56677,0.43494
3500.63804,0.43534
3498.70931,0.43655
3496.78059,0.43780
3494.85186,0.43824
3492.92314,0.43806
3490.99441,0.43784
3489.06568,0.43801
3487.13696,0.43846
3485.20823,0.43849
3483.27950,0.43774
3481.35078,0.43670
3479.42205,0.43592
3477.49333,0.43508
3475.56460,0.43333
3473.63587,0.43084
3471.70715,0.42888
3469.77842,0.42754
3467.84970,0.42556
3465.92097,0.42252
3463.99224,0.41912
3462.06352,0.41547
3460.13479,0.41130
3458.20606,0.40699
3456.27734,0.40301
3454.34861,0.39922
3452.41989,0.39500
3450.49116,0.39055
3448.56243,0.38634
3446.63371,0.38142
3444.70498,0.37520
3442.77625,0.36860
3440.84753,0.36217
3438.91880,0.35571
3436.99008,0.34892
3435.06135,0.34193
3433.13262,0.33601
3431.20390,0.33333
3429.27517,0.33531
3427.34644,0.34152
3425.41772,0.35024
3423.48899,0.35966
3421.56027,0.36924
3419.63154,0.37869
3417.70281,0.38713
3415.77409,0.39436
3413.84536,0.40089
3411.91664,0.40737
3409.98791,0.41421
3408.05918,0.42056
3406.13046,0.42564
3404.20173,0.42989
3402.27300,0.43353
3400.34428,0.43593
3398.41555,0.43637
3396.48683,0.43839
3394.55810,0.44105
3392.62937,0.44342
3390.70065,0.44561
3388.77192,0.44786
3386.84319,0.44987
3384.91447,0.45101
3382.98574,0.45121
3381.05702,0.45083
3379.12829,0.45035
3377.19956,0.45059
3375.27084,0.45142
3373.34211,0.45211
3371.41339,0.45253
3369.48466,0.45271
3367.55593,0.45237
3365.62721,0.45130
3363.69848,0.44945
3361.76975,0.44752
3359.84103,0.44602
3357.91230,0.44453
3355.98358,0.44297
3354.05485,0.44170
3352.12612,0.44030
3350.19740,0.43809
3348.26867,0.43532
3346.33994,0.43286
3344.41122,0.43096
3342.48249,0.42906
3340.55377,0.42703
3338.62504,0.42527
3336.69631,0.42420
3334.76759,0.42435
3332.83886,0.42571
3330.91014,0.42768
3328.98141,0.43000
3327.05268,0.43247
3325.12396,0.43468
3323.19523,0.43661
3321.26650,0.43830
3319.33778,0.43936
3317.40905,0.43949
3315.48033,0.43902
3313.55160,0.43844
3311.62287,0.43782
3309.69415,0.43718
3307.76542,0.43673
3305.83669,0.43636
3303.90797,0.43615
3301.97924,0.43631
3300.05052,0.43620
3298.12179,0.43557
3296.19306,0.43560
3294.26434,0.43712
3292.33561,0.43951
3290.40689,0.44155
3288.47816,0.44266
3286.54943,0.44323
3284.62071,0.44395
3282.69198,0.44505
3280.76325,0.44597
3278.83453,0.44620
3276.90580,0.44622
3274.97708,0.44692
3273.04835,0.44839
3271.11962,0.44985
3269.19090,0.45049
3267.26217,0.45048
3265.33344,0.45070
3263.40472,0.45156
3261.47599,0.45258
3259.54727,0.45315
3257.61854,0.45303
3255.68981,0.45241
3253.76109,0.45174
3251.83236,0.45137
3249.90364,0.45133
3247.97491,0.45118
3246.04618,0.45048
3244.11746,0.44935
3242.18873,0.44848
3240.26000,0.44825
3238.33128,0.44819
3236.40255,0.44808
3234.47383,0.44801
3232.54510,0.44799
3230.61637,0.44839
3228.68765,0.44923
3226.75892,0.45033
3224.83019,0.45177
3222.90147,0.45283
3220.97274,0.45297
3219.04402,0.45327
3217.11529,0.45431
3215.18656,0.45541
3213.25784,0.45648
3211.32911,0.45786
3209.40039,0.45938
3207.47166,0.46034
3205.54293,0.46017
3203.61421,0.45900
3201.68548,0.45735
3199.75675,0.45627
3197.82803,0.45651
3195.89930,0.45732
3193.97058,0.45775
3192.04185,0.45792
3190.11312,0.45784
3188.18440,0.45727
3186.25567,0.45658
3184.32694,0.45628
3182.39822,0.45624
3180.46949,0.45630
3178.54077,0.45665
3176.61204,0.45733
3174.68331,0.45798
3172.75459,0.45803
3170.82586,0.45714
3168.89714,0.45595
3166.96841,0.45515
3165.03968,0.45455
3163.11096,0.45386
3161.18223,0.45311
3159.25350,0.45237
3157.32478,0.45160
3155.39605,0.45064
3153.46733,0.44938
3151.53860,0.44814
3149.60987,0.44703
3147.68115,0.44582
3145.75242,0.44448
3143.82369,0.44284
3141.89497,0.44041
3139.96624,0.43747
3138.03752,0.43463
3136.10879,0.43186
3134.18006,0.42885
3132.25134,0.42553
3130.32261,0.42232
3128.39389,0.42010
3126.46516,0.41939
3124.53643,0.41984
3122.60771,0.42068
3120.67898,0.42100
3118.75025,0.41979
3116.82153,0.41709
3114.89280,0.41386
3112.96408,0.41029
3111.03535,0.40594
3109.10662,0.40067
3107.17790,0.39502
3105.24917,0.39022
3103.32044,0.38747
3101.39172,0.38753
3099.46299,0.39019
3097.53427,0.39390
3095.60554,0.39699
3093.67681,0.39833
3091.74809,0.39734
3089.81936,0.39422
3087.89063,0.38960
3085.96191,0.38426
3084.03318,0.37907
3082.10446,0.37498
3080.17573,0.37282
3078.24700,0.37248
3076.31828,0.37268
3074.38955,0.37223
3072.46083,0.37082
3070.53210,0.36881
3068.60337,0.36711
3066.67465,0.36654
3064.74592,0.36683
3062.81719,0.36633
3060.88847,0.36351
3058.95974,0.35838
3057.03102,0.35282
3055.10229,0.35006
3053.17356,0.35256
3051.24484,0.36063
3049.31611,0.37273
3047.38738,0.38596
3045.45866,0.39749
3043.52993,0.40591
3041.60121,0.41078
3039.67248,0.41239
3037.74375,0.41188
3035.81503,0.41040
3033.88630,0.40810
3031.95758,0.40451
3030.02885,0.39962
3028.10012,0.39386
3026.17140,0.38696
3024.24267,0.37823
3022.31394,0.36753
3020.38522,0.35534
3018.45649,0.34278
3016.52777,0.33173
3014.59904,0.32404
3012.67031,0.31993
3010.74159,0.31824
3008.81286,0.31770
3006.88413,0.31713
3004.95541,0.31582
3003.02668,0.31395
3001.09796,0.31179
2999.16923,0.30956
2997.24050,0.30659
2995.31178,0.30305
2993.38305,0.29939
2991.45433,0.29552
2989.52560,0.29020
2987.59687,0.28299
2985.66815,0.27450
2983.73942,0.26520
2981.81069,0.25538
2979.88197,0.24519
2977.95324,0.23462
2976.02452,0.22403
2974.09579,0.21453
2972.16706,0.20799
2970.23834,0.20581
2968.30961,0.20783
2966.38088,0.21292
2964.45216,0.21944
2962.52343,0.22597
2960.59471,0.23210
2958.66598,0.23845
2956.73725,0.24566
2954.80853,0.25341
2952.87980,0.26151
2950.95108,0.27071
2949.02235,0.28109
2947.09362,0.29194
2945.16490,0.30267
2943.23617,0.31315
2941.30744,0.32322
2939.37872,0.33205
2937.44999,0.33880
2935.52127,0.34342
2933.59254,0.34607
2931.66381,0.34717
2929.73509,0.34763
2927.80636,0.34730
2925.87763,0.34524
2923.94891,0.34152
2922.02018,0.33652
2920.09146,0.32982
2918.16273,0.32125
2916.23400,0.31069
2914.30528,0.29810
2912.37655,0.28491
2910.44783,0.27391
2908.51910,0.26800
2906.59037,0.26938
2904.66165,0.27810
2902.73292,0.29105
2900.80419,0.30399
2898.87547,0.31450
2896.94674,0.32191
2895.01802,0.32633
2893.08929,0.32863
2891.16056,0.32979
2889.23184,0.33057
2887.30311,0.33208
2885.37438,0.33518
2883.44566,0.33942
2881.51693,0.34359
2879.58821,0.34720
2877.65948,0.35053
2875.73075,0.35358
2873.80203,0.35607
2871.87330,0.35806
2869.94458,0.35962
2868.01585,0.36106
2866.08712,0.36316
2864.15840,0.36588
2862.22967,0.36857
2860.30094,0.37132
2858.37222,0.37455
2856.44349,0.37836
2854.51477,0.38274
2852.58604,0.38798
2850.65731,0.39439
2848.72859,0.40190
2846.79986,0.41010
2844.87113,0.41828
2842.94241,0.42573
2841.01368,0.43230
2839.08496,0.43806
2837.15623,0.44301
2835.22750,0.44742
2833.29878,0.45149
2831.37005,0.45502
2829.44133,0.45809
2827.51260,0.46103
2825.58387,0.46371
2823.65515,0.46566
2821.72642,0.46655
2819.79769,0.46593
2817.86897,0.46395
2815.94024,0.46179
2814.01152,0.46035
2812.08279,0.45950
2810.15406,0.45882
2808.22534,0.45825
2806.29661,0.45790
2804.36788,0.45794
2802.43916,0.45912
2800.51043,0.46193
2798.58171,0.46561
2796.65298,0.46934
2794.72425,0.47296
2792.79553,0.47634
2790.86680,0.47938
2788.93808,0.48220
2787.00935,0.48481
2785.08062,0.48702
2783.15190,0.48900
2781.22317,0.49124
2779.29444,0.49365
2777.36572,0.49567
2775.43699,0.49709
2773.50827,0.49809
2771.57954,0.49880
2769.65081,0.49947
2767.72209,0.50026
2765.79336,0.50101
2763.86463,0.50157
2761.93591,0.50204
2760.00718,0.50234
2758.07846,0.50233
2756.14973,0.50204
2754.22100,0.50140
2752.29228,0.50064
2750.36355,0.49998
2748.43483,0.49920
2746.50610,0.49852
2744.57737,0.49885
2742.64865,0.50051
2740.71992,0.50286
2738.79119,0.50556
2736.86247,0.50877
2734.93374,0.51213
2733.00502,0.51506
2731.07629,0.51758
2729.14756,0.52009
2727.21884,0.52247
2725.29011,0.52457
2723.36138,0.52670
2721.43266,0.52867
2719.50393,0.52999
2717.57521,0.53094
2715.64648,0.53202
2713.71775,0.53326
2711.78903,0.53477
2709.86030,0.53668
2707.93157,0.53864
2706.00285,0.54009
2704.07412,0.54104
2702.14540,0.54206
2700.21667,0.54322
2698.28794,0.54425
2696.35922,0.54507
2694.43049,0.54575
2692.50177,0.54650
2690.57304,0.54712
2688.64431,0.54723
2686.71559,0.54704
2684.78686,0.54692
2682.85813,0.54696
2680.92941,0.54720
2679.00068,0.54757
2677.07196,0.54783
2675.14323,0.54790
2673.21450,0.54802
2671.28578,0.54845
2669.35705,0.54913
2667.42832,0.54974
2665.49960,0.54990
2663.57087,0.54933
2661.64215,0.54826
2659.71342,0.54700
2657.78469,0.54554
2655.85597,0.54412
2653.92724,0.54294
2651.99852,0.54146
2650.06979,0.53922
2648.14106,0.53664
2646.21234,0.53406
2644.28361,0.53107
2642.35488,0.52712
2640.42616,0.52226
2638.49743,0.51748
2636.56871,0.51374
2634.63998,0.51064
2632.71125,0.50791
2630.78253,0.50647
2628.85380,0.50672
2626.92507,0.50781
2624.99635,0.50901
2623.06762,0.51012
2621.13890,0.51098
2619.21017,0.51129
2617.28144,0.51094
2615.35272,0.51039
2613.42399,0.50996
2611.49527,0.50966
2609.56654,0.50925
2607.63781,0.50849
2605.70909,0.50745
2603.78036,0.50636
2601.85163,0.50501
2599.92291,0.50306
2597.99418,0.50079
2596.06546,0.49856
2594.13673,0.49624
2592.20800,0.49377
2590.27928,0.49161
2588.35055,0.49011
2586.42182,0.48892
2584.49310,0.48765
2582.56437,0.48662
2580.63565,0.48635
2578.70692,0.48691
2576.77819,0.48775
2574.84947,0.48833
2572.92074,0.48843
2570.99202,0.48791
2569.06329,0.48672
2567.13456,0.48550
2565.20584,0.48480
2563.27711,0.48425
2561.34838,0.48361
2559.41966,0.48321
2557.49093,0.48289
2555.56221,0.48235
2553.63348,0.48188
2551.70475,0.48166
2549.77603,0.48146
2547.84730,0.48096
2545.91857,0.48026
2543.98985,0.47974
2542.06112,0.47947
2540.13240,0.47911
2538.20367,0.47849
2536.27494,0.47800
2534.34622,0.47814
2532.41749,0.47874
2530.48877,0.47953
2528.56004,0.48073
2526.63131,0.48240
2524.70259,0.48422
2522.77386,0.48602
2520.84513,0.48799
2518.91641,0.49008
2516.98768,0.49191
2515.05896,0.49325
2513.13023,0.49427
2511.20150,0.49527
2509.27278,0.49611
2507.34405,0.49640
2505.41532,0.49625
2503.48660,0.49609
2501.55787,0.49616
2499.62915,0.49661
2497.70042,0.49750
2495.77169,0.49880
2493.84297,0.50042
2491.91424,0.50239
2489.98552,0.50467
2488.05679,0.50707
2486.12806,0.50967
2484.19934,0.51244
2482.27061,0.51497
2480.34188,0.51697
2478.41316,0.51879
2476.48443,0.52088
2474.55571,0.52294
2472.62698,0.52427
2470.69825,0.52504
2468.76953,0.52574
2466.84080,0.52641
2464.91207,0.52700
2462.98335,0.52741
2461.05462,0.52746
2459.12590,0.52724
2457.19717,0.52695
2455.26844,0.52650
2453.33972,0.52571
2451.41099,0.52463
2449.48227,0.52331
2447.55354,0.52181
2445.62481,0.51996
2443.69609,0.51750
2441.76736,0.51467
2439.83863,0.51166
2437.90991,0.50819
2435.98118,0.50426
2434.05246,0.50038
2432.12373,0.49713
2430.19500,0.49418
2428.26628,0.49070
2426.33755,0.48673
2424.40882,0.48275
2422.48010,0.47879
2420.55137,0.47502
2418.62265,0.47173
2416.69392,0.46855
2414.76519,0.46507
2412.83647,0.46164
2410.90774,0.45865
2408.97902,0.45605
2407.05029,0.45349
2405.12156,0.45079
2403.19284,0.44821
2401.26411,0.44588
2399.33538,0.44358
2397.40666,0.44129
2395.47793,0.43931
2393.54921,0.43770
2391.62048,0.43632
2389.69175,0.43488
2387.76303,0.43285
2385.83430,0.42984
2383.90557,0.42617
2381.97685,0.42247
2380.04812,0.41898
2378.11940,0.41592
2376.19067,0.41338
2374.26194,0.41087
2372.33322,0.40799
2370.40449,0.40520
2368.47576,0.40272
2366.54704,0.40001
2364.61831,0.39778
2362.68959,0.39700
2360.76086,0.39820
2358.83213,0.40327
2356.90341,0.41275
2354.97468,0.42313
2353.04596,0.42750
2351.11723,0.42412
2349.18850,0.42161
2347.25978,0.42664
2345.33105,0.43412
2343.40232,0.43624
2341.47360,0.43446
2339.54487,0.43336
2337.61615,0.43411
2335.68742,0.43672
2333.75869,0.43981
2331.82997,0.44230
2329.90124,0.44430
2327.97251,0.44625
2326.04379,0.44885
2324.11506,0.45295
2322.18634,0.45862
2320.25761,0.46412
2318.32888,0.46764
2316.40016,0.46962
2314.47143,0.47136
2312.54271,0.47289
2310.61398,0.47378
2308.68525,0.47404
2306.75653,0.47370
2304.82780,0.47258
2302.89907,0.47055
2300.97035,0.46755
2299.04162,0.46387
2297.11290,0.46005
2295.18417,0.45660
2293.25544,0.45363
2291.32672,0.45097
2289.39799,0.44878
2287.46926,0.44743
2285.54054,0.44694
2283.61181,0.44710
2281.68309,0.44775
2279.75436,0.44861
2277.82563,0.44923
2275.89691,0.44931
2273.96818,0.44886
2272.03946,0.44802
2270.11073,0.44689
2268.18200,0.44548
2266.25328,0.44388
2264.32455,0.44232
2262.39582,0.44126
2260.46710,0.44105
2258.53837,0.44150
2256.60965,0.44224
2254.68092,0.44334
2252.75219,0.44497
2250.82347,0.44727
2248.89474,0.45031
2246.96601,0.45295
2245.03729,0.45563
2243.10856,0.45847
2241.17984,0.46118
2239.25111,0.46345
2237.32238,0.46546
2235.39366,0.46727
2233.46493,0.46876
2231.53621,0.47009
2229.60748,0.47140
2227.67875,0.47252
2225.75003,0.47335
2223.82130,0.47396
2221.89257,0.47444
2219.96385,0.47512
2218.03512,0.47607
2216.10640,0.47684
2214.17767,0.47727
2212.24894,0.47778
2210.32022,0.47890
2208.39149,0.48065
2206.46276,0.48279
2204.53404,0.48535
2202.60531,0.48801
2200.67659,0.49013
2198.74786,0.49155
2196.81913,0.49232
2194.89041,0.49239
2192.96168,0.49202
2191.03296,0.49156
2189.10423,0.49086
2187.17550,0.48935
2185.24678,0.48703
2183.31805,0.48466
2181.38932,0.48251
2179.46060,0.48016
2177.53187,0.47729
2175.60315,0.47377
2173.67442,0.46978
2171.74569,0.46578
2169.81697,0.46194
2167.88824,0.45807
2165.95951,0.45391
2164.03079,0.44911
2162.10206,0.44381
2160.17334,0.43853
2158.24461,0.43322
2156.31588,0.42779
2154.38716,0.42267
2152.45843,0.41824
2150.52971,0.41450
2148.60098,0.41097
2146.67225,0.40731
2144.74353,0.40398
2142.81480,0.40132
2140.88607,0.39896
2138.95735,0.39648
2137.02862,0.39393
2135.09990,0.39152
2133.17117,0.38887
2131.24244,0.38550
2129.31372,0.38177
2127.38499,0.37818
2125.45626,0.37462
2123.52754,0.37080
2121.59881,0.36716
2119.67009,0.36422
2117.74136,0.36179
2115.81263,0.35974
2113.88391,0.35845
2111.95518,0.35787
2110.02646,0.35778
2108.09773,0.35820
2106.16900,0.35894
2104.24028,0.35977
2102.31155,0.36054
2100.38282,0.36123
2098.45410,0.36205
2096.52537,0.36298
2094.59665,0.36407
2092.66792,0.36563
2090.73919,0.36773
2088.81047,0.37028
2086.88174,0.37359
2084.95301,0.37764
2083.02429,0.38178
2081.09556,0.38587
2079.16684,0.39014
2077.23811,0.39457
2075.30938,0.39898
2073.38066,0.40337
2071.45193,0.40788
2069.52321,0.41254
2067.59448,0.41736
2065.66575,0.42249
2063.73703,0.42787
2061.80830,0.43315
2059.87957,0.43813
2057.95085,0.44290
2056.02212,0.44740
2054.09340,0.45145
2052.16467,0.45508
2050.23594,0.45835
2048.30722,0.46105
2046.37849,0.46299
2044.44976,0.46428
2042.52104,0.46497
2040.59231,0.46489
2038.66359,0.46431
2036.73486,0.46347
2034.80613,0.46214
2032.87741,0.46039
2030.94868,0.45826
2029.01996,0.45537
2027.09123,0.45165
2025.16250,0.44761
2023.23378,0.44355
2021.30505,0.43962
2019.37632,0.43597
2017.44760,0.43201
2015.51887,0.42728
2013.59015,0.42253
2011.66142,0.41838
2009.73269,0.41428
2007.80397,0.40989
2005.87524,0.40547
2003.94651,0.40117
2002.01779,0.39697
2000.08906,0.39264
1998.16034,0.38797
1996.23161,0.38336
1994.30288,0.37948
1992.37416,0.37563
1990.44543,0.37087
1988.51670,0.36588
1986.58798,0.36125
1984.65925,0.35706
1982.73053,0.35310
1980.80180,0.34882
1978.87307,0.34399
1976.94435,0.33864
1975.01562,0.33257
1973.08690,0.32565
1971.15817,0.31847
1969.22944,0.31103
1967.30072,0.30178
1965.37199,0.29092
1963.44326,0.28168
1961.51454,0.27642
1959.58581,0.27554
1957.65709,0.27837
1955.72836,0.28326
1953.79963,0.28846
1951.87091,0.29345
1949.94218,0.29883
1948.01345,0.30506
1946.08473,0.31199
1944.15600,0.31922
1942.22728,0.32583
1940.29855,0.33103
1938.36982,0.33584
1936.44110,0.34116
1934.51237,0.34658
1932.58365,0.35166
1930.65492,0.35641
1928.72619,0.36093
1926.79747,0.36567
1924.86874,0.37104
1922.94001,0.37615
1921.01129,0.38010
1919.08256,0.38351
1917.15384,0.38616
1915.22511,0.38759
1913.29638,0.38963
1911.36766,0.39328
1909.43893,0.39682
1907.51020,0.39864
1905.58148,0.39951
1903.65275,0.40062
1901.72403,0.40185
1899.79530,0.40298
1897.86657,0.40431
1895.93785,0.40567
1894.00912,0.40669
1892.08040,0.40786
1890.15167,0.40898
1888.22294,0.40840
1886.29422,0.40641
1884.36549,0.40469
1882.43676,0.40345
1880.50804,0.40212
1878.57931,0.40033
1876.65059,0.39796
1874.72186,0.39554
1872.79313,0.39452
1870.86441,0.39524
1868.93568,0.39415
1867.00695,0.38752
1865.07823,0.37833
1863.14950,0.37095
1861.22078,0.36531
1859.29205,0.35942
1857.36332,0.35251
1855.43460,0.34486
1853.50587,0.33672
1851.57715,0.32862
1849.64842,0.32153
1847.71969,0.31576
1845.79097,0.30983
1843.86224,0.30144
1841.93351,0.29173
1840.00479,0.28412
1838.07606,0.27844
1836.14734,0.27276
1834.21861,0.26782
1832.28988,0.26546
1830.36116,0.26433
1828.43243,0.26169
1826.50370,0.25841
1824.57498,0.25578
1822.64625,0.25354
1820.71753,0.25190
1818.78880,0.25101
1816.86007,0.25042
1814.93135,0.24985
1813.00262,0.24938
1811.07390,0.24855
1809.14517,0.24688
1807.21644,0.24506
1805.28772,0.24411
1803.35899,0.24433
1801.43026,0.24480
1799.50154,0.24392
1797.57281,0.24164
1795.64409,0.24001
1793.71536,0.23962
1791.78663,0.23748
1789.85791,0.23207
1787.92918,0.22626
1786.00045,0.22175
1784.07173,0.21821
1782.14300,0.21512
1780.21428,0.21129
1778.28555,0.20660
1776.35682,0.20306
1774.42810,0.20111
1772.49937,0.19722
1770.57065,0.18821
1768.64192,0.17700
1766.71319,0.16730
1764.78447,0.16002
1762.85574,0.15288
1760.92701,0.14333
1758.99829,0.13205
1757.06956,0.12015
1755.14084,0.10879
1753.21211,0.09860
1751.28338,0.08668
1749.35466,0.07088
1747.42593,0.05503
1745.49720,0.04290
1743.56848,0.03435
1741.63975,0.02836
1739.71103,0.02451
1737.78230,0.02312
1735.85357,0.02414
1733.92485,0.02611
1731.99612,0.02682
1730.06740,0.02644
1728.13867,0.02636
1726.20994,0.02698
1724.28122,0.02814
1722.35249,0.02966
1720.42376,0.03209
1718.49504,0.03663
1716.56631,0.04291
1714.63759,0.04860
1712.70886,0.05362
1710.78013,0.05963
1708.85141,0.06779
1706.92268,0.07866
1704.99395,0.09077
1703.06523,0.10162
1701.13650,0.11300
1699.20778,0.12601
1697.27905,0.13624
1695.35032,0.14178
1693.42160,0.14430
1691.49287,0.14621
1689.56415,0.14860
1687.63542,0.15157
1685.70669,0.15521
1683.77797,0.15803
1681.84924,0.15928
1679.92051,0.16188
1677.99179,0.16725
1676.06306,0.17480
1674.13434,0.18253
1672.20561,0.18959
1670.27688,0.19708
1668.34816,0.20323
1666.41943,0.20738
1664.49070,0.21317
1662.56198,0.22066
1660.63325,0.22545
1658.70453,0.22782
1656.77580,0.23278
1654.84707,0.24290
1652.91835,0.25189
1650.98962,0.25238
1649.06090,0.25254
1647.13217,0.25493
1645.20344,0.25239
1643.27472,0.24706
1641.34599,0.24541
1639.41726,0.24933
1637.48854,0.25663
1635.55981,0.26025
1633.63109,0.25621
1631.70236,0.25185
1629.77363,0.25181
1627.84491,0.25447
1625.91618,0.25693
1623.98745,0.25730
1622.05873,0.25448
1620.13000,0.25113
1618.20128,0.24870
1616.27255,0.24360
1614.34382,0.23680
1612.41510,0.23501
1610.48637,0.23976
1608.55764,0.24727
1606.62892,0.25368
1604.70019,0.25872
1602.77147,0.26342
1600.84274,0.26773
1598.91401,0.27139
1596.98529,0.27391
1595.05656,0.27374
1593.12784,0.27008
1591.19911,0.26414
1589.27038,0.25666
1587.34166,0.24649
1585.41293,0.23228
1583.48420,0.21494
1581.55548,0.19902
1579.62675,0.19070
1577.69803,0.19363
1575.76930,0.20494
1573.84057,0.21612
1571.91185,0.22662
1569.98312,0.23895
1568.05439,0.24835
1566.12567,0.25208
1564.19694,0.25456
1562.26822,0.26025
1560.33949,0.27001
1558.41076,0.27558
1556.48204,0.26908
1554.55331,0.26056
1552.62459,0.25562
1550.69586,0.25300
1548.76713,0.25118
1546.83841,0.25157
1544.90968,0.25764
1542.98095,0.27032
1541.05223,0.27975
1539.12350,0.27178
1537.19478,0.25832
1535.26605,0.25158
1533.33732,0.24806
1531.40860,0.24292
1529.47987,0.23830
1527.55114,0.23597
1525.62242,0.23560
1523.69369,0.23781
1521.76497,0.24110
1519.83624,0.24096
1517.90751,0.23592
1515.97879,0.22529
1514.05006,0.21060
1512.12134,0.19561
1510.19261,0.18094
1508.26388,0.16200
1506.33516,0.14041
1504.40643,0.13375
1502.47770,0.14582
1500.54898,0.17173
1498.62025,0.20532
1496.69153,0.23430
1494.76280,0.24802
1492.83407,0.25179
1490.90535,0.25191
1488.97662,0.24520
1487.04789,0.23115
1485.11917,0.21657
1483.19044,0.20399
1481.26172,0.19194
1479.33299,0.18045
1477.40426,0.17050
1475.47554,0.16132
1473.54681,0.15175
1471.61809,0.14398
1469.68936,0.14205
1467.76063,0.14541
1465.83191,0.14958
1463.90318,0.15004
1461.97445,0.14820
1460.04573,0.14812
1458.11700,0.14824
1456.18828,0.14360
1454.25955,0.13746
1452.33082,0.13482
1450.40210,0.13564
1448.47337,0.13768
1446.54464,0.13896
1444.61592,0.13927
1442.68719,0.13964
1440.75847,0.14107
1438.82974,0.14427
1436.90101,0.14878
1434.97229,0.15249
1433.04356,0.15472
1431.11484,0.15589
1429.18611,0.15484
1427.25738,0.15088
1425.32866,0.14438
1423.39993,0.13520
1421.47120,0.12227
1419.54248,0.10228
1417.61375,0.07814
1415.68503,0.06012
1413.75630,0.05038
1411.82757,0.04672
1409.89885,0.04806
1407.97012,0.05388
1406.04139,0.06356
1404.11267,0.07495
1402.18394,0.08479
1400.25522,0.09257
1398.32649,0.09903
1396.39776,0.10288
1394.46904,0.10285
1392.54031,0.10021
1390.61159,0.09735
1388.68286,0.09494
1386.75413,0.09261
1384.82541,0.09096
1382.89668,0.09046
1380.96795,0.09044
1379.03923,0.09029
1377.11050,0.08979
1375.18178,0.08811
1373.25305,0.08491
1371.32432,0.08201
1369.39560,0.08121
1367.46687,0.08232
1365.53814,0.08413
1363.60942,0.08538
1361.68069,0.08480
1359.75197,0.08210
1357.82324,0.07783
1355.89451,0.07215
1353.96579,0.06530
1352.03706,0.05832
1350.10834,0.05236
1348.17961,0.04801
1346.25088,0.04532
1344.32216,0.04423
1342.39343,0.04491
1340.46470,0.04785
1338.53598,0.05361
1336.60725,0.06219
1334.67853,0.07273
1332.74980,0.08316
1330.82107,0.09043
1328.89235,0.09235
1326.96362,0.08921
1325.03489,0.08310
1323.10617,0.07604
1321.17744,0.06898
1319.24872,0.06198
1317.31999,0.05526
1315.39126,0.04935
1313.46254,0.04430
1311.53381,0.03992
1309.60509,0.03619
1307.67636,0.03321
1305.74763,0.03102
1303.81891,0.02938
1301.89018,0.02807
1299.96145,0.02726
1298.03273,0.02714
1296.10400,0.02761
1294.17528,0.02835
1292.24655,0.02910
1290.31782,0.03016
1288.38910,0.03186
1286.46037,0.03403
1284.53164,0.03623
1282.60292,0.03822
1280.67419,0.03994
1278.74547,0.04159
1276.81674,0.04343
1274.88801,0.04546
1272.95929,0.04741
1271.03056,0.04875
1269.10183,0.04927
1267.17311,0.04958
1265.24438,0.05035
1263.31566,0.05133
1261.38693,0.05174
1259.45820,0.05163
1257.52948,0.05170
1255.60075,0.05197
1253.67203,0.05195
1251.74330,0.05141
1249.81457,0.05037
1247.88585,0.04903
1245.95712,0.04770
1244.02839,0.04690
1242.09967,0.04708
1240.17094,0.04854
1238.24222,0.05214
1236.31349,0.05924
1234.38476,0.07038
1232.45604,0.08408
1230.52731,0.09799
1228.59858,0.11077
1226.66986,0.12168
1224.74113,0.13102
1222.81241,0.14064
1220.88368,0.15171
1218.95495,0.16350
1217.02623,0.17422
1215.09750,0.18223
1213.16878,0.18781
1211.24005,0.19284
1209.31132,0.19836
1207.38260,0.20473
1205.45387,0.21240
1203.52514,0.22086
1201.59642,0.22897
1199.66769,0.23600
1197.73897,0.24130
1195.81024,0.24465
1193.88151,0.24601
1191.95279,0.24508
1190.02406,0.24149
1188.09533,0.23507
1186.16661,0.22630
1184.23788,0.21606
1182.30916,0.20497
1180.38043,0.19379
1178.45170,0.18358
1176.52298,0.17517
1174.59425,0.16897
1172.66553,0.16490
1170.73680,0.16180
1168.80807,0.15784
1166.87935,0.15172
1164.95062,0.14311
1163.02189,0.13261
1161.09317,0.12143
1159.16444,0.11041
1157.23572,0.09957
1155.30699,0.08882
1153.37826,0.07875
1151.44954,0.06966
1149.52081,0.06101
1147.59208,0.05271
1145.66336,0.04561
1143.73463,0.04046
1141.80591,0.03756
1139.87718,0.03628
1137.94845,0.03608
1136.01973,0.03723
1134.09100,0.03970
1132.16228,0.04252
1130.23355,0.04434
1128.30482,0.04465
1126.37610,0.04421
1124.44737,0.04388
1122.51864,0.04423
1120.58992,0.04523
1118.66119,0.04614
1116.73247,0.04673
1114.80374,0.04711
1112.87501,0.04718
1110.94629,0.04727
1109.01756,0.04775
1107.08883,0.04843
1105.16011,0.04942
1103.23138,0.05105
1101.30266,0.05343
1099.37393,0.05674
1097.44520,0.06135
1095.51648,0.06747
1093.58775,0.07480
1091.65903,0.08284
1089.73030,0.09138
1087.80157,0.10117
1085.87285,0.11315
1083.94412,0.12735
1082.01539,0.14344
1080.08667,0.16117
1078.15794,0.18040
1076.22922,0.20001
1074.30049,0.21715
1072.37176,0.23021
1070.44304,0.24071
1068.51431,0.24992
1066.58558,0.25700
1064.65686,0.26177
1062.72813,0.26470
1060.79941,0.26527
1058.87068,0.26304
1056.94195,0.25797
1055.01323,0.25006
1053.08450,0.24033
1051.15578,0.23034
1049.22705,0.22105
1047.29832,0.21307
1045.36960,0.20682
1043.44087,0.20231
1041.51214,0.19911
1039.58342,0.19663
1037.65469,0.19398
1035.72597,0.18961
1033.79724,0.18173
1031.86851,0.16795
1029.93979,0.14568
1028.01106,0.11703
1026.08233,0.09146
1024.15361,0.07815
1022.22488,0.07744
1020.29616,0.08465
1018.36743,0.09938
1016.43870,0.12606
1014.50998,0.16522
1012.58125,0.20880
1010.65253,0.24668
1008.72380,0.27428
1006.79507,0.29261
1004.86635,0.30477
1002.93762,0.31268
1001.00889,0.31670
999.08017,0.31730
997.15144,0.31474
995.22272,0.30838
993.29399,0.29793
991.36526,0.28537
989.43654,0.27512
987.50781,0.26872
985.57908,0.26203
983.65036,0.25090
981.72163,0.23481
979.79291,0.21554
977.86418,0.19542
975.93545,0.17712
974.00673,0.16504
972.07800,0.16357
970.14928,0.17272
968.22055,0.18917
966.29182,0.20967
964.36310,0.23133
962.43437,0.25197
960.50564,0.27056
958.57692,0.28658
956.64819,0.30046
954.71947,0.31235
952.79074,0.32147
950.86201,0.32787
948.93329,0.33275
947.00456,0.33698
945.07583,0.34032
943.14711,0.34248
941.21838,0.34350
939.28966,0.34345
937.36093,0.34300
935.43220,0.34282
933.50348,0.34301
931.57475,0.34304
929.64603,0.34223
927.71730,0.34123
925.78857,0.34047
923.85985,0.33854
921.93112,0.33444
920.00239,0.32888
918.07367,0.32308
916.14494,0.31695
914.21622,0.30937
912.28749,0.29956
910.35876,0.28705
908.43004,0.27335
906.50131,0.26163
904.57258,0.25282
902.64386,0.24554
900.71513,0.23951
898.78641,0.23628
896.85768,0.23566
894.92895,0.23562
893.00023,0.23543
891.07150,0.23415
889.14277,0.23031
887.21405,0.22352
885.28532,0.21419
883.35660,0.20317
881.42787,0.19092
879.49914,0.17749
877.57042,0.16349
875.64169,0.15103
873.71297,0.14558
871.78424,0.15291
869.85551,0.17030
867.92679,0.18725
865.99806,0.19713
864.06933,0.20024
862.14061,0.19785
860.21188,0.19065
858.28316,0.18069
856.35443,0.17071
854.42570,0.16178
852.49698,0.15374
850.56825,0.14770
848.63952,0.14657
846.71080,0.15256
844.78207,0.16449
842.85335,0.17826
840.92462,0.19057
838.99589,0.20150
837.06717,0.21196
835.13844,0.22141
833.20972,0.22907
831.28099,0.23515
829.35226,0.24054
827.42354,0.24572
825.49481,0.24993
823.56608,0.25217
821.63736,0.25313
819.70863,0.25403
817.77991,0.25415
815.85118,0.25215
813.92245,0.24866
811.99373,0.24545
810.06500,0.24313
808.13627,0.24117
806.20755,0.23909
804.27882,0.23650
802.35010,0.23294
800.42137,0.22712
798.49264,0.21694
796.56392,0.20330
794.63519,0.19298
792.70647,0.19287
790.77774,0.20241
788.84901,0.21573
786.92029,0.22799
784.99156,0.23754
783.06283,0.24481
781.13411,0.24981
779.20538,0.25211
777.27666,0.25294
775.34793,0.25399
773.41920,0.25538
771.49048,0.25663
769.56175,0.25817
767.63302,0.26037
765.70430,0.26217
763.77557,0.26199
761.84685,0.25960
759.91812,0.25587
757.98939,0.25123
756.06067,0.24519
754.13194,0.23716
752.20322,0.22722
750.27449,0.21552
748.34576,0.20121
746.41704,0.18299
744.48831,0.16077
742.55958,0.13524
740.63086,0.10773
738.70213,0.08240
736.77341,0.06407
734.84468,0.05400
732.91595,0.04987
730.98723,0.04918
729.05850,0.05242
727.12977,0.06229
725.20105,0.08059
723.27232,0.10749
721.34360,0.14043
719.41487,0.17204
717.48614,0.19444
715.55742,0.20669
713.62869,0.21258
711.69997,0.21558
709.77124,0.21788
707.84251,0.22068
705.91379,0.22448
703.98506,0.23000
702.05633,0.23835
700.12761,0.24931
698.19888,0.26015
696.27016,0.26803
694.34143,0.27280
692.41270,0.27529
690.48398,0.27514
688.55525,0.27230
686.62652,0.26758
684.69780,0.26159
682.76907,0.25562
680.84035,0.25202
678.91162,0.25214
676.98289,0.25484
675.05417,0.25683
673.12544,0.25728
671.19672,0.26296
669.26799,0.27709
667.33926,0.28501
665.41054,0.27997
663.48181,0.27517
661.55308,0.27395
659.62436,0.27284
657.69563,0.27204
655.76691,0.27257
653.83818,0.27410
651.90945,0.27537
649.98073,0.27536
648.05200,0.27464
646.12327,0.27466
644.19455,0.27616
642.26582,0.27807
640.33710,0.27775
638.40837,0.27259
636.47964,0.26144
634.55092,0.24719
632.62219,0.23816
630.69347,0.24141
628.76474,0.25382
626.83601,0.26473
624.90729,0.26924
622.97856,0.27052
621.04983,0.27043
619.12111,0.26876
617.19238,0.26660
615.26366,0.26563
613.33493,0.26525
611.40620,0.26433
609.47748,0.26357
607.54875,0.26386
605.62002,0.26418
603.69130,0.26279
601.76257,0.26037
599.83385,0.25840
597.90512,0.25634
595.97639,0.25383
594.04767,0.25228
592.11894,0.25288
590.19022,0.25503
588.26149,0.25613
586.33276,0.25400
584.40404,0.25040
582.47531,0.24881
580.54658,0.24869
578.61786,0.24690
576.68913,0.24208
574.76041,0.23532
572.83168,0.23026
570.90295,0.22910
568.97423,0.22895
567.04550,0.22630
565.11677,0.22221
563.18805,0.21957
561.25932,0.21895
559.33060,0.21774
557.40187,0.21301
555.47314,0.20483
553.54442,0.19676
551.61569,0.19176
549.68697,0.18895
547.75824,0.18609
545.82951,0.18275
543.90079,0.17951
541.97206,0.17637
540.04333,0.17295
538.11461,0.16815
536.18588,0.16092
534.25716,0.15250
532.32843,0.14429
530.39970,0.13613
528.47098,0.12963
526.54225,0.12717
524.61352,0.12787
522.68480,0.12854
520.75607,0.12749
518.82735,0.12524
516.89862,0.12230
514.96989,0.11790
513.04117,0.11099
511.11244,0.10040
509.18371,0.08812
507.25499,0.08122
505.32626,0.08399
503.39754,0.09128
501.46881,0.09465
499.54008,0.09489
497.61136,0.09907
495.68263,0.10885
493.75391,0.12010
491.82518,0.12872
489.89645,0.13362
487.96773,0.13618
486.03900,0.13761
484.11027,0.13681
482.18155,0.13125
480.25282,0.12249
478.32410,0.11761
476.39537,0.12072
474.46664,0.12735
472.53792,0.13083
470.60919,0.13036
468.68046,0.12813
466.75174,0.12518
464.82301,0.12200
462.89429,0.11703
460.96556,0.10960
459.03683,0.10350
457.10811,0.10219
455.17938,0.10470
453.25066,0.10566
451.32193,0.09992
449.39320,0.09073
447.46448,0.08426
445.53575,0.07972
443.60702,0.07177
441.67830,0.06078
439.74957,0.05386
437.82085,0.05259
435.89212,0.05301
433.96339,0.05459
432.03467,0.05960
430.10594,0.06653
428.17721,0.07146
426.24849,0.07516
424.31976,0.08178
422.39104,0.09191
420.46231,0.10166
418.53358,0.10397
416.60486,0.09564
414.67613,0.08248
412.74741,0.07202
410.81868,0.07083
408.88995,0.07671
406.96123,0.07762
405.03250,0.06768
403.10377,0.05557
401.17505,0.05279
399.24632,0.06323
