7497.03301,0.48489
7495.10426,0.48502
7493.17552,0.48658
7491.24677,0.49069
7489.31803,0.49537
7487.38928,0.49595
7485.46054,0.49189
7483.53179,0.48912
7481.60305,0.49055
7479.67430,0.49218
7477.74556,0.49103
7475.81681,0.49003
7473.88807,0.49194
7471.95932,0.49327
7470.03057,0.49149
7468.10183,0.49102
7466.17308,0.49393
7464.24434,0.49494
7462.31559,0.49052
7460.38685,0.48402
7458.45810,0.47981
7456.52936,0.47990
7454.60061,0.48207
7452.67187,0.48281
7450.74312,0.48468
7448.81438,0.48983
7446.88563,0.49387
7444.95689,0.49403
7443.02814,0.49254
7441.09940,0.49076
7439.17065,0.48901
7437.24190,0.48832
7435.31316,0.48706
7433.38441,0.48461
7431.45567,0.48421
7429.52692,0.48574
7427.59818,0.48682
7425.66943,0.48810
7423.74069,0.49103
7421.81194,0.49586
7419.88320,0.49998
7417.95445,0.49825
7416.02571,0.49042
7414.09696,0.48365
7412.16822,0.48313
7410.23947,0.48570
7408.31073,0.48671
7406.38198,0.48714
7404.45323,0.48798
7402.52449,0.48656
7400.59574,0.48472
7398.66700,0.48651
7396.73825,0.48642
7394.80951,0.47951
7392.88076,0.47491
7390.95202,0.47954
7389.02327,0.48507
7387.09453,0.48438
7385.16578,0.48197
7383.23704,0.48184
7381.30829,0.48252
7379.37955,0.48324
7377.45080,0.48312
7375.52205,0.48128
7373.59331,0.47857
7371.66456,0.47435
7369.73582,0.46965
7367.80707,0.46676
7365.87833,0.46452
7363.94958,0.46315
7362.02084,0.46292
7360.09209,0.46055
7358.16335,0.45558
7356.23460,0.45314
7354.30586,0.45712
7352.37711,0.46136
7350.44837,0.45785
7348.51962,0.45171
7346.59088,0.44998
7344.66213,0.45065
7342.73338,0.45119
7340.80464,0.45113
7338.87589,0.45095
7336.94715,0.45120
7335.01840,0.45026
7333.08966,0.44824
7331.16091,0.44610
7329.23217,0.44339
7327.30342,0.44229
7325.37468,0.44473
7323.44593,0.44681
7321.51719,0.44409
7319.58844,0.43894
7317.65970,0.43605
7315.73095,0.43415
7313.80221,0.43078
7311.87346,0.42835
7309.94471,0.42810
7308.01597,0.42780
7306.08722,0.42618
7304.15848,0.42271
7302.22973,0.41827
7300.30099,0.41590
7298.37224,0.41704
7296.44350,0.41819
7294.51475,0.41345
7292.58601,0.40427
7290.65726,0.39918
7288.72852,0.39786
7286.79977,0.39412
7284.87103,0.38976
7282.94228,0.38805
7281.01353,0.38675
7279.08479,0.38357
7277.15604,0.38002
7275.22730,0.37826
7273.29855,0.37690
7271.36981,0.37494
7269.44106,0.37292
7267.51232,0.36993
7265.58357,0.36720
7263.65483,0.36723
7261.72608,0.36775
7259.79734,0.36533
7257.86859,0.36072
7255.93985,0.35567
7254.01110,0.35076
7252.08236,0.34753
7250.15361,0.34676
7248.22486,0.34600
7246.29612,0.34240
7244.36737,0.33687
7242.43863,0.33160
7240.50988,0.32666
7238.58114,0.32203
7236.65239,0.31751
7234.72365,0.31339
7232.79490,0.31190
7230.86616,0.31203
7228.93741,0.30952
7227.00867,0.30438
7225.07992,0.30046
7223.15118,0.29907
7221.22243,0.29771
7219.29369,0.29264
7217.36494,0.28377
7215.43619,0.27571
7213.50745,0.27155
7211.57870,0.26993
7209.64996,0.26701
7207.72121,0.26147
7205.79247,0.25755
7203.86372,0.25530
7201.93498,0.24953
7200.00623,0.24113
7198.07749,0.23404
7196.14874,0.22869
7194.22000,0.22375
7192.29125,0.21825
7190.36251,0.21231
7188.43376,0.20525
7186.50501,0.19881
7184.57627,0.19653
7182.64752,0.19454
7180.71878,0.18739
7178.79003,0.17922
7176.86129,0.17445
7174.93254,0.17062
7173.00380,0.16735
7171.07505,0.16921
7169.14631,0.17663
7167.21756,0.18559
7165.28882,0.19457
7163.36007,0.20282
7161.43133,0.20990
7159.50258,0.21878
7157.57384,0.23023
7155.64509,0.24016
7153.71634,0.24749
7151.78760,0.25384
7149.85885,0.25792
7147.93011,0.25992
7146.00136,0.26295
7144.07262,0.26700
7142.14387,0.26951
7140.21513,0.26939
7138.28638,0.26730
7136.35764,0.26547
7134.42889,0.26699
7132.50015,0.27053
7130.57140,0.27132
7128.64266,0.26990
7126.71391,0.26963
7124.78516,0.27131
7122.85642,0.27284
7120.92767,0.27115
7118.99893,0.26675
7117.07018,0.26259
7115.14144,0.25979
7113.21269,0.25685
7111.28395,0.25295
7109.35520,0.25063
7107.42646,0.25185
7105.49771,0.25449
7103.56897,0.25566
7101.64022,0.25459
7099.71148,0.25019
7097.78273,0.24368
7095.85399,0.23896
7093.92524,0.23576
7091.99649,0.23343
7090.06775,0.23441
7088.13900,0.23755
7086.21026,0.23853
7084.28151,0.23585
7082.35277,0.23097
7080.42402,0.22503
7078.49528,0.21943
7076.56653,0.21563
7074.63779,0.21330
7072.70904,0.21190
7070.78030,0.21021
7068.85155,0.20637
7066.92281,0.20283
7064.99406,0.20246
7063.06532,0.20288
7061.13657,0.20244
7059.20782,0.20325
7057.27908,0.20602
7055.35033,0.20985
7053.42159,0.21394
7051.49284,0.21662
7049.56410,0.21686
7047.63535,0.21725
7045.70661,0.22043
7043.77786,0.22411
7041.84912,0.22552
7039.92037,0.22650
7037.99163,0.22760
7036.06288,0.22717
7034.13414,0.22734
7032.20539,0.22924
7030.27664,0.22891
7028.34790,0.22557
7026.41915,0.22442
7024.49041,0.22675
7022.56166,0.22853
7020.63292,0.22887
7018.70417,0.22821
7016.77543,0.22715
7014.84668,0.22795
7012.91794,0.23077
7010.98919,0.23325
7009.06045,0.23327
7007.13170,0.23277
7005.20296,0.23509
7003.27421,0.23815
7001.34547,0.23822
6999.41672,0.23549
6997.48797,0.23275
6995.55923,0.23250
6993.63048,0.23405
6991.70174,0.23476
6989.77299,0.23635
6987.84425,0.24030
6985.91550,0.24298
6983.98676,0.24292
6982.05801,0.24156
6980.12927,0.24089
6978.20052,0.24227
6976.27178,0.24352
6974.34303,0.24306
6972.41429,0.24257
6970.48554,0.24300
6968.55680,0.24412
6966.62805,0.24621
6964.69930,0.24759
6962.77056,0.24618
6960.84181,0.24498
6958.91307,0.24697
6956.98432,0.25034
6955.05558,0.25282
6953.12683,0.25353
6951.19809,0.25246
6949.26934,0.25139
6947.34060,0.25217
6945.41185,0.25495
6943.48311,0.25861
6941.55436,0.26143
6939.62562,0.26312
6937.69687,0.26452
6935.76812,0.26576
6933.83938,0.26691
6931.91063,0.26828
6929.98189,0.26996
6928.05314,0.27209
6926.12440,0.27401
6924.19565,0.27488
6922.26691,0.27603
6920.33816,0.27877
6918.40942,0.28191
6916.48067,0.28353
6914.55193,0.28321
6912.62318,0.28296
6910.69444,0.28459
6908.76569,0.28771
6906.83695,0.28955
6904.90820,0.28840
6902.97945,0.28751
6901.05071,0.28959
6899.12196,0.29323
6897.19322,0.29618
6895.26447,0.29718
6893.33573,0.29793
6891.40698,0.30065
6889.47824,0.30402
6887.54949,0.30538
6885.62075,0.30509
6883.69200,0.30431
6881.76326,0.30393
6879.83451,0.30602
6877.90577,0.30896
6875.97702,0.30917
6874.04828,0.30779
6872.11953,0.30769
6870.19078,0.30956
6868.26204,0.31243
6866.33329,0.31506
6864.40455,0.31665
6862.47580,0.31904
6860.54706,0.32441
6858.61831,0.32848
6856.68957,0.32723
6854.76082,0.32459
6852.83208,0.32495
6850.90333,0.32753
6848.97459,0.32981
6847.04584,0.33100
6845.11710,0.33148
6843.18835,0.33098
6841.25960,0.32999
6839.33086,0.32972
6837.40211,0.32945
6835.47337,0.32933
6833.54462,0.33128
6831.61588,0.33447
6829.68713,0.33724
6827.75839,0.33923
6825.82964,0.34006
6823.90090,0.34137
6821.97215,0.34517
6820.04341,0.34961
6818.11466,0.35153
6816.18592,0.35112
6814.25717,0.35069
6812.32843,0.35183
6810.39968,0.35491
6808.47093,0.35844
6806.54219,0.36035
6804.61344,0.36131
6802.68470,0.36395
6800.75595,0.36743
6798.82721,0.36964
6796.89846,0.37188
6794.96972,0.37393
6793.04097,0.37430
6791.11223,0.37494
6789.18348,0.37751
6787.25474,0.37987
6785.32599,0.38092
6783.39725,0.38423
6781.46850,0.39043
6779.53975,0.39420
6777.61101,0.39394
6775.68226,0.39346
6773.75352,0.39364
6771.82477,0.39245
6769.89603,0.39030
6767.96728,0.38903
6766.03854,0.38951
6764.10979,0.39097
6762.18105,0.39227
6760.25230,0.39367
6758.32356,0.39588
6756.39481,0.39911
6754.46607,0.40197
6752.53732,0.40317
6750.60858,0.40375
6748.67983,0.40363
6746.75108,0.40294
6744.82234,0.40419
6742.89359,0.40732
6740.96485,0.40972
6739.03610,0.41003
6737.10736,0.40955
6735.17861,0.41028
6733.24987,0.41127
6731.32112,0.41154
6729.39238,0.41211
6727.46363,0.41300
6725.53489,0.41529
6723.60614,0.41863
6721.67740,0.41913
6719.74865,0.41788
6717.81991,0.41928
6715.89116,0.42227
6713.96241,0.42446
6712.03367,0.42668
6710.10492,0.42849
6708.17618,0.42822
6706.24743,0.42678
6704.31869,0.42624
6702.38994,0.42728
6700.46120,0.42818
6698.53245,0.42730
6696.60371,0.42721
6694.67496,0.42949
6692.74622,0.43077
6690.81747,0.43020
6688.88873,0.43075
6686.95998,0.43243
6685.03123,0.43361
6683.10249,0.43432
6681.17374,0.43465
6679.24500,0.43591
6677.31625,0.43920
6675.38751,0.44128
6673.45876,0.44019
6671.53002,0.43850
6669.60127,0.43867
6667.67253,0.44031
6665.74378,0.44026
6663.81504,0.43891
6661.88629,0.43998
6659.95755,0.44245
6658.02880,0.44317
6656.10006,0.44219
6654.17131,0.44177
6652.24256,0.44335
6650.31382,0.44604
6648.38507,0.44781
6646.45633,0.44727
6644.52758,0.44579
6642.59884,0.44565
6640.67009,0.44699
6638.74135,0.44842
6636.81260,0.44868
6634.88386,0.44831
6632.95511,0.44799
6631.02637,0.44672
6629.09762,0.44490
6627.16888,0.44504
6625.24013,0.44685
6623.31139,0.44827
6621.38264,0.44953
6619.45389,0.45040
6617.52515,0.45097
6615.59640,0.45272
6613.66766,0.45347
6611.73891,0.45195
6609.81017,0.45173
6607.88142,0.45364
6605.95268,0.45533
6604.02393,0.45632
6602.09519,0.45694
6600.16644,0.45683
6598.23770,0.45625
6596.30895,0.45547
6594.38021,0.45440
6592.45146,0.45375
6590.52271,0.45408
6588.59397,0.45461
6586.66522,0.45470
6584.73648,0.45471
6582.80773,0.45467
6580.87899,0.45460
6578.95024,0.45531
6577.02150,0.45587
6575.09275,0.45408
6573.16401,0.45120
6571.23526,0.44993
6569.30652,0.44937
6567.37777,0.44851
6565.44903,0.44892
6563.52028,0.45007
6561.59154,0.45001
6559.66279,0.44875
6557.73404,0.44775
6555.80530,0.44892
6553.87655,0.45087
6551.94781,0.45061
6550.01906,0.45031
6548.09032,0.45229
6546.16157,0.45398
6544.23283,0.45339
6542.30408,0.45102
6540.37534,0.44906
6538.44659,0.44918
6536.51785,0.44972
6534.58910,0.44928
6532.66036,0.44881
6530.73161,0.44948
6528.80287,0.45046
6526.87412,0.44982
6524.94537,0.44784
6523.01663,0.44571
6521.08788,0.44438
6519.15914,0.44459
6517.23039,0.44448
6515.30165,0.44278
6513.37290,0.44148
6511.44416,0.44165
6509.51541,0.44157
6507.58667,0.44002
6505.65792,0.43815
6503.72918,0.43736
6501.80043,0.43737
6499.87169,0.43700
6497.94294,0.43582
6496.01419,0.43389
6494.08545,0.43216
6492.15670,0.43192
6490.22796,0.43189
6488.29921,0.43048
6486.37047,0.42918
6484.44172,0.42869
6482.51298,0.42800
6480.58423,0.42891
6478.65549,0.43279
6476.72674,0.43744
6474.79800,0.44205
6472.86925,0.44737
6470.94051,0.45225
6469.01176,0.45581
6467.08302,0.45937
6465.15427,0.46278
6463.22552,0.46485
6461.29678,0.46636
6459.36803,0.46800
6457.43929,0.47039
6455.51054,0.47411
6453.58180,0.47770
6451.65305,0.47878
6449.72431,0.47686
6447.79556,0.47587
6445.86682,0.47851
6443.93807,0.48092
6442.00933,0.48037
6440.08058,0.47945
6438.15184,0.48068
6436.22309,0.48360
6434.29434,0.48541
6432.36560,0.48436
6430.43685,0.48294
6428.50811,0.48488
6426.57936,0.48918
6424.65062,0.49174
6422.72187,0.49156
6420.79313,0.49019
6418.86438,0.48916
6416.93564,0.49012
6415.00689,0.49272
6413.07815,0.49391
6411.14940,0.49245
6409.22066,0.49113
6407.29191,0.49302
6405.36317,0.49729
6403.43442,0.50037
6401.50567,0.50081
6399.57693,0.49994
6397.64818,0.49929
6395.71944,0.49978
6393.79069,0.50024
6391.86195,0.49931
6389.93320,0.49855
6388.00446,0.49904
6386.07571,0.49964
6384.14697,0.50003
6382.21822,0.50062
6380.28948,0.50114
6378.36073,0.50167
6376.43199,0.50251
6374.50324,0.50278
6372.57450,0.50298
6370.64575,0.50512
6368.71700,0.50840
6366.78826,0.51006
6364.85951,0.50942
6362.93077,0.50802
6361.00202,0.50678
6359.07328,0.50682
6357.14453,0.50946
6355.21579,0.51244
6353.28704,0.51284
6351.35830,0.51201
6349.42955,0.51251
6347.50081,0.51362
6345.57206,0.51331
6343.64332,0.51240
6341.71457,0.51251
6339.78582,0.51313
6337.85708,0.51350
6335.92833,0.51409
6333.99959,0.51540
6332.07084,0.51716
6330.14210,0.51844
6328.21335,0.51819
6326.28461,0.51712
6324.35586,0.51695
6322.42712,0.51758
6320.49837,0.51824
6318.56963,0.51844
6316.64088,0.51776
6314.71214,0.51749
6312.78339,0.51856
6310.85465,0.51969
6308.92590,0.51949
6306.99715,0.51805
6305.06841,0.51716
6303.13966,0.51839
6301.21092,0.52065
6299.28217,0.52123
6297.35343,0.51918
6295.42468,0.51656
6293.49594,0.51608
6291.56719,0.51770
6289.63845,0.51947
6287.70970,0.52108
6285.78096,0.52262
6283.85221,0.52332
6281.92347,0.52344
6279.99472,0.52269
6278.06598,0.52019
6276.13723,0.51824
6274.20848,0.51934
6272.27974,0.52077
6270.35099,0.52016
6268.42225,0.52015
6266.49350,0.52091
6264.56476,0.51960
6262.63601,0.51769
6260.70727,0.51821
6258.77852,0.51983
6256.84978,0.51955
6254.92103,0.51741
6252.99229,0.51595
6251.06354,0.51742
6249.13480,0.52076
6247.20605,0.52159
6245.27730,0.51845
6243.34856,0.51532
6241.41981,0.51534
6239.49107,0.51756
6237.56232,0.51934
6235.63358,0.51913
6233.70483,0.51829
6231.77609,0.51895
6229.84734,0.52040
6227.91860,0.52045
6225.98985,0.51965
6224.06111,0.51963
6222.13236,0.51951
6220.20362,0.51909
6218.27487,0.51973
6216.34613,0.52040
6214.41738,0.51929
6212.48863,0.51728
6210.55989,0.51671
6208.63114,0.51816
6206.70240,0.51944
6204.77365,0.51896
6202.84491,0.51769
6200.91616,0.51604
6198.98742,0.51356
6197.05867,0.51205
6195.12993,0.51212
6193.20118,0.51182
6191.27244,0.51107
6189.34369,0.51012
6187.41495,0.50931
6185.48620,0.50985
6183.55746,0.51070
6181.62871,0.51111
6179.69996,0.51187
6177.77122,0.51234
6175.84247,0.51163
6173.91373,0.51015
6171.98498,0.50864
6170.05624,0.50740
6168.12749,0.50698
6166.19875,0.50787
6164.27000,0.50874
6162.34126,0.50737
6160.41251,0.50495
6158.48377,0.50411
6156.55502,0.50354
6154.62628,0.50188
6152.69753,0.50101
6150.76878,0.50151
6148.84004,0.50205
6146.91129,0.50217
6144.98255,0.50238
6143.05380,0.50282
6141.12506,0.50227
6139.19631,0.50069
6137.26757,0.49957
6135.33882,0.49900
6133.41008,0.49824
6131.48133,0.49700
6129.55259,0.49605
6127.62384,0.49585
6125.69510,0.49490
6123.76635,0.49245
6121.83761,0.49042
6119.90886,0.49062
6117.98011,0.49206
6116.05137,0.49292
6114.12262,0.49278
6112.19388,0.49178
6110.26513,0.49039
6108.33639,0.48973
6106.40764,0.49034
6104.47890,0.49106
6102.55015,0.49092
6100.62141,0.49028
6098.69266,0.48962
6096.76392,0.48946
6094.83517,0.48938
6092.90643,0.48901
6090.97768,0.48941
6089.04893,0.49056
6087.12019,0.49118
6085.19144,0.48992
6083.26270,0.48698
6081.33395,0.48513
6079.40521,0.48572
6077.47646,0.48703
6075.54772,0.48690
6073.61897,0.48458
6071.69023,0.48196
6069.76148,0.48144
6067.83274,0.48205
6065.90399,0.48114
6063.97525,0.47883
6062.04650,0.47669
6060.11776,0.47513
6058.18901,0.47417
6056.26026,0.47362
6054.33152,0.47336
6052.40277,0.47343
6050.47403,0.47288
6048.54528,0.47117
6046.61654,0.46925
6044.68779,0.46741
6042.75905,0.46580
6040.83030,0.46589
6038.90156,0.46682
6036.97281,0.46554
6035.04407,0.46274
6033.11532,0.46116
6031.18658,0.46018
6029.25783,0.45880
6027.32909,0.45749
6025.40034,0.45588
6023.47159,0.45351
6021.54285,0.45132
6019.61410,0.45005
6017.68536,0.44929
6015.75661,0.44824
6013.82787,0.44619
6011.89912,0.44340
6009.97038,0.44129
6008.04163,0.44067
6006.11289,0.44025
6004.18414,0.43834
6002.25540,0.43569
6000.32665,0.43345
5998.39791,0.43101
5996.46916,0.42800
5994.54041,0.42461
5992.61167,0.42160
5990.68292,0.41999
5988.75418,0.41856
5986.82543,0.41541
5984.89669,0.41133
5982.96794,0.40792
5981.03920,0.40459
5979.11045,0.40034
5977.18171,0.39600
5975.25296,0.39282
5973.32422,0.39053
5971.39547,0.38815
5969.46673,0.38533
5967.53798,0.38176
5965.60924,0.37730
5963.68049,0.37301
5961.75174,0.36993
5959.82300,0.36753
5957.89425,0.36467
5955.96551,0.36070
5954.03676,0.35550
5952.10802,0.34990
5950.17927,0.34513
5948.25053,0.34100
5946.32178,0.33698
5944.39304,0.33310
5942.46429,0.32915
5940.53555,0.32499
5938.60680,0.32056
5936.67806,0.31557
5934.74931,0.31020
5932.82057,0.30454
5930.89182,0.29801
5928.96307,0.29038
5927.03433,0.28217
5925.10558,0.27404
5923.17684,0.26614
5921.24809,0.25844
5919.31935,0.25138
5917.39060,0.24525
5915.46186,0.23935
5913.53311,0.23282
5911.60437,0.22608
5909.67562,0.22030
5907.74688,0.21570
5905.81813,0.21143
5903.88939,0.20744
5901.96064,0.20468
5900.03189,0.20242
5898.10315,0.19942
5896.17440,0.19592
5894.24566,0.19217
5892.31691,0.18879
5890.38817,0.18497
5888.45942,0.17877
5886.53068,0.17173
5884.60193,0.16579
5882.67319,0.16010
5880.74444,0.15386
5878.81570,0.14720
5876.88695,0.14015
5874.95821,0.13298
5873.02946,0.12675
5871.10072,0.12122
5869.17197,0.11483
5867.24322,0.10825
5865.31448,0.10276
5863.38573,0.09817
5861.45699,0.09386
5859.52824,0.08940
5857.59950,0.08549
5855.67075,0.08264
5853.74201,0.07960
5851.81326,0.07599
5849.88452,0.07300
5847.95577,0.07137
5846.02703,0.07054
5844.09828,0.06976
5842.16954,0.06877
5840.24079,0.06703
5838.31205,0.06459
5836.38330,0.06292
5834.45455,0.06222
5832.52581,0.06156
5830.59706,0.06118
5828.66832,0.06090
5826.73957,0.06025
5824.81083,0.05951
5822.88208,0.05881
5820.95334,0.05851
5819.02459,0.05866
5817.09585,0.05875
5815.16710,0.05889
5813.23836,0.05933
5811.30961,0.05893
5809.38087,0.05770
5807.45212,0.05776
5805.52337,0.05892
5803.59463,0.05875
5801.66588,0.05733
5799.73714,0.05668
5797.80839,0.05730
5795.87965,0.05827
5793.95090,0.05920
5792.02216,0.05937
5790.09341,0.05769
5788.16467,0.05554
5786.23592,0.05513
5784.30718,0.05583
5782.37843,0.05630
5780.44969,0.05645
5778.52094,0.05633
5776.59220,0.05662
5774.66345,0.05729
5772.73470,0.05707
5770.80596,0.05675
5768.87721,0.05780
5766.94847,0.05867
5765.01972,0.05802
5763.09098,0.05728
5761.16223,0.05750
5759.23349,0.05808
5757.30474,0.05817
5755.37600,0.05788
5753.44725,0.05792
5751.51851,0.05813
5749.58976,0.05802
5747.66102,0.05820
5745.73227,0.05930
5743.80352,0.06094
5741.87478,0.06227
5739.94603,0.06305
5738.01729,0.06382
5736.08854,0.06473
5734.15980,0.06530
5732.23105,0.06578
5730.30231,0.06679
5728.37356,0.06824
5726.44482,0.06982
5724.51607,0.07194
5722.58733,0.07511
5720.65858,0.07845
5718.72984,0.08021
5716.80109,0.07973
5714.87235,0.07811
5712.94360,0.07670
5711.01485,0.07565
5709.08611,0.07491
5707.15736,0.07466
5705.22862,0.07413
5703.29987,0.07252
5701.37113,0.07073
5699.44238,0.06973
5697.51364,0.06885
5695.58489,0.06761
5693.65615,0.06667
5691.72740,0.06646
5689.79866,0.06642
5687.86991,0.06584
5685.94117,0.06437
5684.01242,0.06231
5682.08368,0.06114
5680.15493,0.06089
5678.22618,0.05992
5676.29744,0.05886
5674.36869,0.05932
5672.43995,0.06012
5670.51120,0.05993
5668.58246,0.05952
5666.65371,0.05957
5664.72497,0.05963
5662.79622,0.05903
5660.86748,0.05791
5658.93873,0.05748
5657.00999,0.05847
5655.08124,0.06023
5653.15250,0.06224
5651.22375,0.06466
5649.29500,0.06718
5647.36626,0.06916
5645.43751,0.07062
5643.50877,0.07155
5641.58002,0.07178
5639.65128,0.07231
5637.72253,0.07420
5635.79379,0.07635
5633.86504,0.07732
5631.93630,0.07743
5630.00755,0.07752
5628.07881,0.07824
5626.15006,0.07971
5624.22132,0.08100
5622.29257,0.08149
5620.36383,0.08193
5618.43508,0.08297
5616.50633,0.08419
5614.57759,0.08511
5612.64884,0.08588
5610.72010,0.08717
5608.79135,0.08937
5606.86261,0.09171
5604.93386,0.09370
5603.00512,0.09556
5601.07637,0.09688
5599.14763,0.09725
5597.21888,0.09732
5595.29014,0.09741
5593.36139,0.09709
5591.43265,0.09686
5589.50390,0.09742
5587.57516,0.09780
5585.64641,0.09720
5583.71766,0.09613
5581.78892,0.09499
5579.86017,0.09364
5577.93143,0.09219
5576.00268,0.09137
5574.07394,0.09146
5572.14519,0.09137
5570.21645,0.09004
5568.28770,0.08805
5566.35896,0.08702
5564.43021,0.08702
5562.50147,0.08698
5560.57272,0.08665
5558.64398,0.08585
5556.71523,0.08459
5554.78648,0.08421
5552.85774,0.08541
5550.92899,0.08670
5549.00025,0.08653
5547.07150,0.08560
5545.14276,0.08549
5543.21401,0.08561
5541.28527,0.08489
5539.35652,0.08482
5537.42778,0.08644
5535.49903,0.08825
5533.57029,0.08895
5531.64154,0.08843
5529.71280,0.08732
5527.78405,0.08644
5525.85531,0.08621
5523.92656,0.08673
5521.99781,0.08733
5520.06907,0.08756
5518.14032,0.08809
5516.21158,0.08851
5514.28283,0.08823
5512.35409,0.08782
5510.42534,0.08734
5508.49660,0.08690
5506.56785,0.08691
5504.63911,0.08676
5502.71036,0.08602
5500.78162,0.08525
5498.85287,0.08504
5496.92413,0.08537
5494.99538,0.08595
5493.06664,0.08645
5491.13789,0.08695
5489.20914,0.08759
5487.28040,0.08809
5485.35165,0.08842
5483.42291,0.08904
5481.49416,0.09001
5479.56542,0.09058
5477.63667,0.09055
5475.70793,0.09095
5473.77918,0.09182
5471.85044,0.09202
5469.92169,0.09144
5467.99295,0.09137
5466.06420,0.09247
5464.13546,0.09372
5462.20671,0.09441
5460.27796,0.09487
5458.34922,0.09544
5456.42047,0.09631
5454.49173,0.09725
5452.56298,0.09758
5450.63424,0.09715
5448.70549,0.09680
5446.77675,0.09737
5444.84800,0.09864
5442.91926,0.09970
5440.99051,0.09987
5439.06177,0.09978
5437.13302,0.10043
5435.20428,0.10188
5433.27553,0.10311
5431.34679,0.10317
5429.41804,0.10265
5427.48929,0.10303
5425.56055,0.10441
5423.63180,0.10564
5421.70306,0.10615
5419.77431,0.10660
5417.84557,0.10835
5415.91682,0.11120
5413.98808,0.11354
5412.05933,0.11487
5410.13059,0.11580
5408.20184,0.11703
5406.27310,0.11892
5404.34435,0.12078
5402.41561,0.12209
5400.48686,0.12311
5398.55811,0.12399
5396.62937,0.12515
5394.70062,0.12686
5392.77188,0.12790
5390.84313,0.12777
5388.91439,0.12830
5386.98564,0.13036
5385.05690,0.13258
5383.12815,0.13381
5381.19941,0.13448
5379.27066,0.13561
5377.34192,0.13700
5375.41317,0.13763
5373.48443,0.13772
5371.55568,0.13847
5369.62694,0.13997
5367.69819,0.14131
5365.76944,0.14219
5363.84070,0.14353
5361.91195,0.14572
5359.98321,0.14749
5358.05446,0.14840
5356.12572,0.14940
5354.19697,0.15063
5352.26823,0.15226
5350.33948,0.15470
5348.41074,0.15701
5346.48199,0.15821
5344.55325,0.15888
5342.62450,0.16002
5340.69576,0.16163
5338.76701,0.16280
5336.83827,0.16333
5334.90952,0.16417
5332.98077,0.16555
5331.05203,0.16636
5329.12328,0.16614
5327.19454,0.16599
5325.26579,0.16636
5323.33705,0.16625
5321.40830,0.16560
5319.47956,0.16499
5317.55081,0.16380
5315.62207,0.16161
5313.69332,0.15948
5311.76458,0.15850
5309.83583,0.15827
5307.90709,0.15793
5305.97834,0.15781
5304.04959,0.15851
5302.12085,0.15982
5300.19210,0.16135
5298.26336,0.16257
5296.33461,0.16303
5294.40587,0.16287
5292.47712,0.16263
5290.54838,0.16261
5288.61963,0.16266
5286.69089,0.16283
5284.76214,0.16330
5282.83340,0.16368
5280.90465,0.16315
5278.97591,0.16198
5277.04716,0.16133
5275.11842,0.16140
5273.18967,0.16210
5271.26092,0.16321
5269.33218,0.16385
5267.40343,0.16366
5265.47469,0.16315
5263.54594,0.16301
5261.61720,0.16333
5259.68845,0.16357
5257.75971,0.16370
5255.83096,0.16399
5253.90222,0.16442
5251.97347,0.16445
5250.04473,0.16328
5248.11598,0.16153
5246.18724,0.16091
5244.25849,0.16124
5242.32975,0.16102
5240.40100,0.16037
5238.47225,0.16013
5236.54351,0.16019
5234.61476,0.16023
5232.68602,0.16018
5230.75727,0.15991
5228.82853,0.15933
5226.89978,0.15874
5224.97104,0.15843
5223.04229,0.15851
5221.11355,0.15855
5219.18480,0.15813
5217.25606,0.15767
5215.32731,0.15764
5213.39857,0.15799
5211.46982,0.15839
5209.54107,0.15894
5207.61233,0.15981
5205.68358,0.16043
5203.75484,0.16072
5201.82609,0.16125
5199.89735,0.16160
5197.96860,0.16102
5196.03986,0.15991
5194.11111,0.15911
5192.18237,0.15897
5190.25362,0.15926
5188.32488,0.15940
5186.39613,0.15926
5184.46739,0.15931
5182.53864,0.15942
5180.60990,0.15919
5178.68115,0.15922
5176.75240,0.16012
5174.82366,0.16111
5172.89491,0.16157
5170.96617,0.16161
5169.03742,0.16113
5167.10868,0.16057
5165.17993,0.16056
5163.25119,0.16064
5161.32244,0.16030
5159.39370,0.15974
5157.46495,0.15957
5155.53621,0.16037
5153.60746,0.16172
5151.67872,0.16281
5149.74997,0.16397
5147.82123,0.16563
5145.89248,0.16705
5143.96373,0.16738
5142.03499,0.16688
5140.10624,0.16636
5138.17750,0.16636
5136.24875,0.16667
5134.32001,0.16699
5132.39126,0.16750
5130.46252,0.16793
5128.53377,0.16780
5126.60503,0.16755
5124.67628,0.16742
5122.74754,0.16664
5120.81879,0.16526
5118.89005,0.16456
5116.96130,0.16496
5115.03255,0.16562
5113.10381,0.16582
5111.17506,0.16542
5109.24632,0.16465
5107.31757,0.16408
5105.38883,0.16407
5103.46008,0.16424
5101.53134,0.16419
5099.60259,0.16411
5097.67385,0.16411
5095.74510,0.16407
5093.81636,0.16416
5091.88761,0.16475
5089.95887,0.16549
5088.03012,0.16571
5086.10138,0.16554
5084.17263,0.16592
5082.24388,0.16667
5080.31514,0.16725
5078.38639,0.16801
5076.45765,0.16877
5074.52890,0.16885
5072.60016,0.16848
5070.67141,0.16822
5068.74267,0.16831
5066.81392,0.16858
5064.88518,0.16862
5062.95643,0.16825
5061.02769,0.16820
5059.09894,0.16912
5057.17020,0.17046
5055.24145,0.17159
5053.31270,0.17262
5051.38396,0.17344
5049.45521,0.17354
5047.52647,0.17313
5045.59772,0.17304
5043.66898,0.17348
5041.74023,0.17396
5039.81149,0.17425
5037.88274,0.17435
5035.95400,0.17404
5034.02525,0.17341
5032.09651,0.17303
5030.16776,0.17306
5028.23902,0.17263
5026.31027,0.17133
5024.38153,0.17018
5022.45278,0.16989
5020.52403,0.16994
5018.59529,0.16976
5016.66654,0.16942
5014.73780,0.16914
5012.80905,0.16876
5010.88031,0.16825
5008.95156,0.16781
5007.02282,0.16759
5005.09407,0.16736
5003.16533,0.16647
5001.23658,0.16494
4999.30784,0.16353
4997.37909,0.16248
4995.45035,0.16118
4993.52160,0.15916
4991.59286,0.15672
4989.66411,0.15478
4987.73536,0.15391
4985.80662,0.15355
4983.87787,0.15291
4981.94913,0.15190
4980.02038,0.15084
4978.09164,0.14989
4976.16289,0.14888
4974.23415,0.14789
4972.30540,0.14710
4970.37666,0.14624
4968.44791,0.14514
4966.51917,0.14421
4964.59042,0.14404
4962.66168,0.14496
4960.73293,0.14692
4958.80418,0.14968
4956.87544,0.15267
4954.94669,0.15541
4953.01795,0.15825
4951.08920,0.16139
4949.16046,0.16429
4947.23171,0.16616
4945.30297,0.16700
4943.37422,0.16782
4941.44548,0.16897
4939.51673,0.16984
4937.58799,0.17023
4935.65924,0.17056
4933.73050,0.17081
4931.80175,0.17090
4929.87301,0.17113
4927.94426,0.17148
4926.01551,0.17150
4924.08677,0.17107
4922.15802,0.17080
4920.22928,0.17101
4918.30053,0.17129
4916.37179,0.17187
4914.44304,0.17310
4912.51430,0.17396
4910.58555,0.17357
4908.65681,0.17246
4906.72806,0.17164
4904.79932,0.17132
4902.87057,0.17091
4900.94183,0.17037
4899.01308,0.17024
4897.08434,0.17037
4895.15559,0.17031
4893.22684,0.17014
4891.29810,0.16983
4889.36935,0.16912
4887.44061,0.16792
4885.51186,0.16650
4883.58312,0.16550
4881.65437,0.16535
4879.72563,0.16566
4877.79688,0.16589
4875.86814,0.16584
4873.93939,0.16549
4872.01065,0.16524
4870.08190,0.16552
4868.15316,0.16609
4866.22441,0.16654
4864.29566,0.16691
4862.36692,0.16785
4860.43817,0.16964
4858.50943,0.17127
4856.58068,0.17217
4854.65194,0.17335
4852.72319,0.17515
4850.79445,0.17677
4848.86570,0.17836
4846.93696,0.18038
4845.00821,0.18239
4843.07947,0.18395
4841.15072,0.18542
4839.22198,0.18721
4837.29323,0.18898
4835.36449,0.19039
4833.43574,0.19161
4831.50699,0.19287
4829.57825,0.19428
4827.64950,0.19576
4825.72076,0.19726
4823.79201,0.19871
4821.86327,0.19974
4819.93452,0.20059
4818.00578,0.20202
4816.07703,0.20397
4814.14829,0.20580
4812.21954,0.20746
4810.29080,0.20939
4808.36205,0.21156
4806.43331,0.21320
4804.50456,0.21386
4802.57582,0.21402
4800.64707,0.21446
4798.71832,0.21532
4796.78958,0.21622
4794.86083,0.21704
4792.93209,0.21764
4791.00334,0.21796
4789.07460,0.21854
4787.14585,0.21954
4785.21711,0.22033
4783.28836,0.22068
4781.35962,0.22122
4779.43087,0.22209
4777.50213,0.22280
4775.57338,0.22355
4773.64464,0.22485
4771.71589,0.22643
4769.78714,0.22797
4767.85840,0.22961
4765.92965,0.23139
4764.00091,0.23292
4762.07216,0.23400
4760.14342,0.23492
4758.21467,0.23609
4756.28593,0.23748
4754.35718,0.23863
4752.42844,0.23921
4750.49969,0.23970
4748.57095,0.24064
4746.64220,0.24176
4744.71346,0.24267
4742.78471,0.24331
4740.85597,0.24371
4738.92722,0.24420
4736.99847,0.24497
4735.06973,0.24566
4733.14098,0.24607
4731.21224,0.24655
4729.28349,0.24728
4727.35475,0.24834
4725.42600,0.24991
4723.49726,0.25168
4721.56851,0.25300
4719.63977,0.25372
4717.71102,0.25415
4715.78228,0.25479
4713.85353,0.25579
4711.92479,0.25676
4709.99604,0.25742
4708.06729,0.25775
4706.13855,0.25800
4704.20980,0.25846
4702.28106,0.25900
4700.35231,0.25944
4698.42357,0.25973
4696.49482,0.25978
4694.56608,0.25977
4692.63733,0.25963
4690.70859,0.25906
4688.77984,0.25850
4686.85110,0.25830
4684.92235,0.25781
4682.99361,0.25680
4681.06486,0.25540
4679.13612,0.25350
4677.20737,0.25133
4675.27862,0.24920
4673.34988,0.24719
4671.42113,0.24533
4669.49239,0.24389
4667.56364,0.24312
4665.63490,0.24284
4663.70615,0.24326
4661.77741,0.24474
4659.84866,0.24680
4657.91992,0.24889
4655.99117,0.25077
4654.06243,0.25226
4652.13368,0.25317
4650.20494,0.25344
4648.27619,0.25334
4646.34745,0.25324
4644.41870,0.25342
4642.48995,0.25399
4640.56121,0.25443
4638.63246,0.25417
4636.70372,0.25347
4634.77497,0.25261
4632.84623,0.25199
4630.91748,0.25179
4628.98874,0.25150
4627.05999,0.25085
4625.13125,0.24993
4623.20250,0.24884
4621.27376,0.24779
4619.34501,0.24687
4617.41627,0.24623
4615.48752,0.24602
4613.55877,0.24565
4611.63003,0.24467
4609.70128,0.24349
4607.77254,0.24251
4605.84379,0.24184
4603.91505,0.24149
4601.98630,0.24123
4600.05756,0.24095
4598.12881,0.24037
4596.20007,0.23934
4594.27132,0.23828
4592.34258,0.23749
4590.41383,0.23649
4588.48509,0.23505
4586.55634,0.23362
4584.62760,0.23226
4582.69885,0.23094
4580.77010,0.22981
4578.84136,0.22849
4576.91261,0.22685
4574.98387,0.22558
4573.05512,0.22462
4571.12638,0.22325
4569.19763,0.22155
4567.26889,0.21995
4565.34014,0.21818
4563.41140,0.21615
4561.48265,0.21409
4559.55391,0.21170
4557.62516,0.20921
4555.69642,0.20723
4553.76767,0.20535
4551.83893,0.20310
4549.91018,0.20089
4547.98143,0.19898
4546.05269,0.19721
4544.12394,0.19528
4542.19520,0.19294
4540.26645,0.19057
4538.33771,0.18855
4536.40896,0.18661
4534.48022,0.18455
4532.55147,0.18248
4530.62273,0.18038
4528.69398,0.17823
4526.76524,0.17631
4524.83649,0.17467
4522.90775,0.17283
4520.97900,0.17059
4519.05025,0.16859
4517.12151,0.16694
4515.19276,0.16486
4513.26402,0.16213
4511.33527,0.15932
4509.40653,0.15690
4507.47778,0.15474
4505.54904,0.15250
4503.62029,0.15003
4501.69155,0.14753
4499.76280,0.14498
4497.83406,0.14234
4495.90531,0.13989
4493.97657,0.13771
4492.04782,0.13564
4490.11908,0.13353
4488.19033,0.13134
4486.26158,0.12915
4484.33284,0.12701
4482.40409,0.12492
4480.47535,0.12282
4478.54660,0.12075
4476.61786,0.11884
4474.68911,0.11699
4472.76037,0.11484
4470.83162,0.11241
4468.90288,0.11009
4466.97413,0.10790
4465.04539,0.10559
4463.11664,0.10326
4461.18790,0.10103
4459.25915,0.09903
4457.33041,0.09736
4455.40166,0.09568
4453.47291,0.09346
4451.54417,0.09071
4449.61542,0.08793
4447.68668,0.08559
4445.75793,0.08382
4443.82919,0.08214
4441.90044,0.08007
4439.97170,0.07785
4438.04295,0.07588
4436.11421,0.07426
4434.18546,0.07298
4432.25672,0.07209
4430.32797,0.07118
4428.39923,0.06982
4426.47048,0.06830
4424.54173,0.06678
4422.61299,0.06503
4420.68424,0.06351
4418.75550,0.06271
4416.82675,0.06213
4414.89801,0.06134
4412.96926,0.06042
4411.04052,0.05953
4409.11177,0.05871
4407.18303,0.05795
4405.25428,0.05748
4403.32554,0.05741
4401.39679,0.05736
4399.46805,0.05718
4397.53930,0.05699
4395.61056,0.05692
4393.68181,0.05719
4391.75306,0.05762
4389.82432,0.05765
4387.89557,0.05745
4385.96683,0.05740
4384.03808,0.05729
4382.10934,0.05706
4380.18059,0.05691
4378.25185,0.05690
4376.32310,0.05688
4374.39436,0.05682
4372.46561,0.05697
4370.53687,0.05710
4368.60812,0.05690
4366.67938,0.05686
4364.75063,0.05716
4362.82189,0.05718
4360.89314,0.05677
4358.96439,0.05651
4357.03565,0.05664
4355.10690,0.05668
4353.17816,0.05645
4351.24941,0.05628
4349.32067,0.05643
4347.39192,0.05670
4345.46318,0.05672
4343.53443,0.05658
4341.60569,0.05651
4339.67694,0.05643
4337.74820,0.05642
4335.81945,0.05660
4333.89071,0.05671
4331.96196,0.05673
4330.03321,0.05668
4328.10447,0.05642
4326.17572,0.05620
4324.24698,0.05626
4322.31823,0.05633
4320.38949,0.05617
4318.46074,0.05602
4316.53200,0.05609
4314.60325,0.05621
4312.67451,0.05617
4310.74576,0.05614
4308.81702,0.05642
4306.88827,0.05689
4304.95953,0.05710
4303.03078,0.05696
4301.10204,0.05689
4299.17329,0.05705
4297.24454,0.05721
4295.31580,0.05742
4293.38705,0.05765
4291.45831,0.05751
4289.52956,0.05711
4287.60082,0.05690
4285.67207,0.05685
4283.74333,0.05662
4281.81458,0.05630
4279.88584,0.05634
4277.95709,0.05680
4276.02835,0.05728
4274.09960,0.05756
4272.17086,0.05762
4270.24211,0.05732
4268.31336,0.05673
4266.38462,0.05631
4264.45587,0.05650
4262.52713,0.05717
4260.59838,0.05763
4258.66964,0.05758
4256.74089,0.05740
4254.81215,0.05710
4252.88340,0.05670
4250.95466,0.05673
4249.02591,0.05700
4247.09717,0.05686
4245.16842,0.05655
4243.23968,0.05644
4241.31093,0.05623
4239.38219,0.05597
4237.45344,0.05623
4235.52469,0.05695
4233.59595,0.05740
4231.66720,0.05733
4229.73846,0.05690
4227.80971,0.05642
4225.88097,0.05615
4223.95222,0.05622
4222.02348,0.05661
4220.09473,0.05695
4218.16599,0.05689
4216.23724,0.05669
4214.30850,0.05666
4212.37975,0.05671
4210.45101,0.05679
4208.52226,0.05685
4206.59352,0.05669
4204.66477,0.05657
4202.73602,0.05672
4200.80728,0.05682
4198.87853,0.05676
4196.94979,0.05684
4195.02104,0.05705
4193.09230,0.05706
4191.16355,0.05678
4189.23481,0.05653
4187.30606,0.05642
4185.37732,0.05636
4183.44857,0.05639
4181.51983,0.05647
4179.59108,0.05662
4177.66234,0.05676
4175.73359,0.05655
4173.80484,0.05633
4171.87610,0.05670
4169.94735,0.05710
4168.01861,0.05703
4166.08986,0.05688
4164.16112,0.05685
4162.23237,0.05688
4160.30363,0.05683
4158.37488,0.05643
4156.44614,0.05592
4154.51739,0.05583
4152.58865,0.05616
4150.65990,0.05646
4148.73116,0.05650
4146.80241,0.05641
4144.87367,0.05625
4142.94492,0.05617
4141.01617,0.05639
4139.08743,0.05674
4137.15868,0.05702
4135.22994,0.05707
4133.30119,0.05700
4131.37245,0.05735
4129.44370,0.05785
4127.51496,0.05767
4125.58621,0.05709
4123.65747,0.05681
4121.72872,0.05673
4119.79998,0.05650
4117.87123,0.05614
4115.94249,0.05594
4114.01374,0.05600
4112.08500,0.05626
4110.15625,0.05669
4108.22750,0.05701
4106.29876,0.05683
4104.37001,0.05641
4102.44127,0.05629
4100.51252,0.05643
4098.58378,0.05655
4096.65503,0.05656
4094.72629,0.05645
4092.79754,0.05635
4090.86880,0.05663
4088.94005,0.05711
4087.01131,0.05718
4085.08256,0.05690
4083.15382,0.05683
4081.22507,0.05696
4079.29632,0.05681
4077.36758,0.05638
4075.43883,0.05630
4073.51009,0.05661
4071.58134,0.05694
4069.65260,0.05722
4067.72385,0.05710
4065.79511,0.05663
4063.86636,0.05650
4061.93762,0.05678
4060.00887,0.05683
4058.08013,0.05653
4056.15138,0.05630
4054.22264,0.05628
4052.29389,0.05645
4050.36515,0.05670
4048.43640,0.05706
4046.50765,0.05740
4044.57891,0.05736
4042.65016,0.05712
4040.72142,0.05690
4038.79267,0.05661
4036.86393,0.05645
4034.93518,0.05655
4033.00644,0.05680
4031.07769,0.05709
4029.14895,0.05717
4027.22020,0.05705
4025.29146,0.05712
4023.36271,0.05734
4021.43397,0.05735
4019.50522,0.05731
4017.57648,0.05753
4015.64773,0.05769
4013.71898,0.05757
4011.79024,0.05734
4009.86149,0.05700
4007.93275,0.05683
4006.00400,0.05709
4004.07526,0.05722
4002.14651,0.05699
4000.21777,0.05685
3998.28902,0.05689
3996.36028,0.05697
3994.43153,0.05714
3992.50279,0.05734
3990.57404,0.05728
3988.64530,0.05706
3986.71655,0.05707
3984.78780,0.05731
3982.85906,0.05746
3980.93031,0.05734
3979.00157,0.05720
3977.07282,0.05722
3975.14408,0.05725
3973.21533,0.05711
3971.28659,0.05694
3969.35784,0.05699
3967.42910,0.05725
3965.50035,0.05734
3963.57161,0.05717
3961.64286,0.05709
3959.71412,0.05718
3957.78537,0.05729
3955.85663,0.05730
3953.92788,0.05728
3951.99913,0.05738
3950.07039,0.05754
3948.14164,0.05758
3946.21290,0.05745
3944.28415,0.05727
3942.35541,0.05731
3940.42666,0.05759
3938.49792,0.05775
3936.56917,0.05775
3934.64043,0.05776
3932.71168,0.05759
3930.78294,0.05722
3928.85419,0.05693
3926.92545,0.05688
3924.99670,0.05712
3923.06795,0.05739
3921.13921,0.05729
3919.21046,0.05689
3917.28172,0.05666
3915.35297,0.05672
3913.42423,0.05679
3911.49548,0.05692
3909.56674,0.05715
3907.63799,0.05731
3905.70925,0.05740
3903.78050,0.05746
3901.85176,0.05741
3899.92301,0.05718
3897.99427,0.05692
3896.06552,0.05687
3894.13678,0.05704
3892.20803,0.05725
3890.27928,0.05745
3888.35054,0.05762
3886.42179,0.05751
3884.49305,0.05725
3882.56430,0.05719
3880.63556,0.05727
3878.70681,0.05743
3876.77807,0.05746
3874.84932,0.05724
3872.92058,0.05699
3870.99183,0.05678
3869.06309,0.05677
3867.13434,0.05712
3865.20560,0.05730
3863.27685,0.05708
3861.34811,0.05706
3859.41936,0.05733
3857.49061,0.05747
3855.56187,0.05748
3853.63312,0.05740
3851.70438,0.05709
3849.77563,0.05689
3847.84689,0.05690
3845.91814,0.05679
3843.98940,0.05661
3842.06065,0.05666
3840.13191,0.05675
3838.20316,0.05675
3836.27442,0.05686
3834.34567,0.05709
3832.41693,0.05730
3830.48818,0.05731
3828.55943,0.05728
3826.63069,0.05736
3824.70194,0.05739
3822.77320,0.05724
3820.84445,0.05706
3818.91571,0.05723
3816.98696,0.05761
3815.05822,0.05773
3813.12947,0.05774
3811.20073,0.05785
3809.27198,0.05786
3807.34324,0.05788
3805.41449,0.05801
3803.48575,0.05775
3801.55700,0.05703
3799.62826,0.05663
3797.69951,0.05681
3795.77076,0.05727
3793.84202,0.05761
3791.91327,0.05753
3789.98453,0.05748
3788.05578,0.05778
3786.12704,0.05796
3784.19829,0.05784
3782.26955,0.05767
3780.34080,0.05761
3778.41206,0.05759
3776.48331,0.05753
3774.55457,0.05747
3772.62582,0.05742
3770.69708,0.05736
3768.76833,0.05740
3766.83959,0.05757
3764.91084,0.05774
3762.98209,0.05775
3761.05335,0.05752
3759.12460,0.05736
3757.19586,0.05736
3755.26711,0.05743
3753.33837,0.05758
3751.40962,0.05767
3749.48088,0.05770
3747.55213,0.05771
3745.62339,0.05757
3743.69464,0.05734
3741.76590,0.05743
3739.83715,0.05780
3737.90841,0.05797
3735.97966,0.05780
3734.05091,0.05757
3732.12217,0.05739
3730.19342,0.05735
3728.26468,0.05746
3726.33593,0.05752
3724.40719,0.05740
3722.47844,0.05722
3720.54970,0.05716
3718.62095,0.05733
3716.69221,0.05759
3714.76346,0.05751
3712.83472,0.05716
3710.90597,0.05692
3708.97723,0.05682
3707.04848,0.05683
3705.11974,0.05687
3703.19099,0.05702
3701.26224,0.05742
3699.33350,0.05770
3697.40475,0.05753
3695.47601,0.05723
3693.54726,0.05717
3691.61852,0.05738
3689.68977,0.05770
3687.76103,0.05775
3685.83228,0.05748
3683.90354,0.05727
3681.97479,0.05715
3680.04605,0.05703
3678.11730,0.05708
3676.18856,0.05731
3674.25981,0.05754
3672.33107,0.05751
3670.40232,0.05714
3668.47357,0.05674
3666.54483,0.05655
3664.61608,0.05637
3662.68734,0.05624
3660.75859,0.05638
3658.82985,0.05682
3656.90110,0.05729
3654.97236,0.05746
3653.04361,0.05735
3651.11487,0.05719
3649.18612,0.05714
3647.25738,0.05710
3645.32863,0.05685
3643.39989,0.05655
3641.47114,0.05648
3639.54239,0.05671
3637.61365,0.05710
3635.68490,0.05738
3633.75616,0.05748
3631.82741,0.05754
3629.89867,0.05749
3627.96992,0.05722
3626.04118,0.05692
3624.11243,0.05675
3622.18369,0.05669
3620.25494,0.05673
3618.32620,0.05661
3616.39745,0.05637
3614.46871,0.05635
3612.53996,0.05644
3610.61122,0.05637
3608.68247,0.05636
3606.75372,0.05642
3604.82498,0.05644
3602.89623,0.05657
3600.96749,0.05672
3599.03874,0.05677
3597.11000,0.05691
3595.18125,0.05711
3593.25251,0.05726
3591.32376,0.05738
3589.39502,0.05743
3587.46627,0.05734
3585.53753,0.05708
3583.60878,0.05689
3581.68004,0.05719
3579.75129,0.05782
3577.82254,0.05803
3575.89380,0.05778
3573.96505,0.05769
3572.03631,0.05788
3570.10756,0.05798
3568.17882,0.05789
3566.25007,0.05788
3564.32133,0.05811
3562.39258,0.05834
3560.46384,0.05830
3558.53509,0.05803
3556.60635,0.05800
3554.67760,0.05843
3552.74886,0.05885
3550.82011,0.05892
3548.89137,0.05917
3546.96262,0.05974
3545.03387,0.05996
3543.10513,0.05968
3541.17638,0.05936
3539.24764,0.05934
3537.31889,0.05957
3535.39015,0.05991
3533.46140,0.06026
3531.53266,0.06029
3529.60391,0.06003
3527.67517,0.05994
3525.74642,0.05994
3523.81768,0.05994
3521.88893,0.06008
3519.96019,0.06019
3518.03144,0.06013
3516.10270,0.06001
3514.17395,0.05985
3512.24520,0.05970
3510.31646,0.05988
3508.38771,0.06025
3506.45897,0.06032
3504.53022,0.06014
3502.60148,0.06001
3500.67273,0.05989
3498.74399,0.05965
3496.81524,0.05947
3494.88650,0.05929
3492.95775,0.05891
3491.02901,0.05873
3489.10026,0.05904
3487.17152,0.05933
3485.24277,0.05931
3483.31402,0.05919
3481.38528,0.05900
3479.45653,0.05860
3477.52779,0.05833
3475.59904,0.05831
3473.67030,0.05822
3471.74155,0.05818
3469.81281,0.05839
3467.88406,0.05850
3465.95532,0.05822
3464.02657,0.05775
3462.09783,0.05750
3460.16908,0.05763
3458.24034,0.05777
3456.31159,0.05749
3454.38285,0.05689
3452.45410,0.05637
3450.52535,0.05622
3448.59661,0.05634
3446.66786,0.05649
3444.73912,0.05668
3442.81037,0.05689
3440.88163,0.05699
3438.95288,0.05690
3437.02414,0.05664
3435.09539,0.05640
3433.16665,0.05640
3431.23790,0.05652
3429.30916,0.05659
3427.38041,0.05667
3425.45167,0.05677
3423.52292,0.05672
3421.59418,0.05643
3419.66543,0.05611
3417.73668,0.05602
3415.80794,0.05621
3413.87919,0.05652
3411.95045,0.05673
3410.02170,0.05678
3408.09296,0.05669
3406.16421,0.05652
3404.23547,0.05618
3402.30672,0.05569
3400.37798,0.05557
3398.44923,0.05605
3396.52049,0.05672
3394.59174,0.05697
3392.66300,0.05663
3390.73425,0.05620
3388.80550,0.05629
3386.87676,0.05670
3384.94801,0.05670
3383.01927,0.05638
3381.09052,0.05621
3379.16178,0.05600
3377.23303,0.05546
3375.30429,0.05497
3373.37554,0.05500
3371.44680,0.05535
3369.51805,0.05558
3367.58931,0.05547
3365.66056,0.05520
3363.73182,0.05510
3361.80307,0.05533
3359.87433,0.05577
3357.94558,0.05603
3356.01683,0.05608
3354.08809,0.05628
3352.15934,0.05653
3350.23060,0.05636
3348.30185,0.05570
3346.37311,0.05518
3344.44436,0.05537
3342.51562,0.05578
3340.58687,0.05574
3338.65813,0.05554
3336.72938,0.05559
3334.80064,0.05567
3332.87189,0.05576
3330.94315,0.05616
3329.01440,0.05676
3327.08566,0.05710
3325.15691,0.05704
3323.22816,0.05677
3321.29942,0.05648
3319.37067,0.05630
3317.44193,0.05631
3315.51318,0.05653
3313.58444,0.05674
3311.65569,0.05675
3309.72695,0.05672
3307.79820,0.05671
3305.86946,0.05666
3303.94071,0.05678
3302.01197,0.05705
3300.08322,0.05703
3298.15448,0.05673
3296.22573,0.05656
3294.29698,0.05658
3292.36824,0.05648
3290.43949,0.05613
3288.51075,0.05576
3286.58200,0.05573
3284.65326,0.05601
3282.72451,0.05633
3280.79577,0.05658
3278.86702,0.05682
3276.93828,0.05692
3275.00953,0.05686
3273.08079,0.05681
3271.15204,0.05691
3269.22330,0.05698
3267.29455,0.05674
3265.36581,0.05633
3263.43706,0.05598
3261.50831,0.05563
3259.57957,0.05547
3257.65082,0.05565
3255.72208,0.05602
3253.79333,0.05636
3251.86459,0.05648
3249.93584,0.05634
3248.00710,0.05621
3246.07835,0.05638
3244.14961,0.05669
3242.22086,0.05667
3240.29212,0.05609
3238.36337,0.05553
3236.43463,0.05554
3234.50588,0.05577
3232.57713,0.05582
3230.64839,0.05580
3228.71964,0.05578
3226.79090,0.05553
3224.86215,0.05521
3222.93341,0.05522
3221.00466,0.05528
3219.07592,0.05506
3217.14717,0.05491
3215.21843,0.05507
3213.28968,0.05522
3211.36094,0.05502
3209.43219,0.05457
3207.50345,0.05429
3205.57470,0.05431
3203.64596,0.05437
3201.71721,0.05447
3199.78846,0.05472
3197.85972,0.05500
3195.93097,0.05526
3194.00223,0.05537
3192.07348,0.05528
3190.14474,0.05514
3188.21599,0.05492
3186.28725,0.05466
3184.35850,0.05451
3182.42976,0.05445
3180.50101,0.05453
3178.57227,0.05491
3176.64352,0.05543
3174.71478,0.05557
3172.78603,0.05516
3170.85729,0.05461
3168.92854,0.05436
3166.99979,0.05443
3165.07105,0.05467
3163.14230,0.05505
3161.21356,0.05535
3159.28481,0.05524
3157.35607,0.05481
3155.42732,0.05451
3153.49858,0.05451
3151.56983,0.05459
3149.64109,0.05446
3147.71234,0.05408
3145.78360,0.05377
3143.85485,0.05379
3141.92611,0.05412
3139.99736,0.05443
3138.06861,0.05451
3136.13987,0.05428
3134.21112,0.05402
3132.28238,0.05406
3130.35363,0.05417
3128.42489,0.05397
3126.49614,0.05361
3124.56740,0.05353
3122.63865,0.05365
3120.70991,0.05382
3118.78116,0.05413
3116.85242,0.05430
3114.92367,0.05413
3112.99493,0.05382
3111.06618,0.05342
3109.13744,0.05308
3107.20869,0.05311
3105.27994,0.05353
3103.35120,0.05375
3101.42245,0.05334
3099.49371,0.05282
3097.56496,0.05276
3095.63622,0.05298
3093.70747,0.05307
3091.77873,0.05288
3089.84998,0.05268
3087.92124,0.05266
3085.99249,0.05250
3084.06375,0.05224
3082.13500,0.05232
3080.20626,0.05248
3078.27751,0.05243
3076.34877,0.05242
3074.42002,0.05256
3072.49127,0.05257
3070.56253,0.05232
3068.63378,0.05203
3066.70504,0.05186
3064.77629,0.05191
3062.84755,0.05208
3060.91880,0.05217
3058.99006,0.05211
3057.06131,0.05195
3055.13257,0.05189
3053.20382,0.05197
3051.27508,0.05190
3049.34633,0.05164
3047.41759,0.05143
3045.48884,0.05141
3043.56009,0.05136
3041.63135,0.05123
3039.70260,0.05138
3037.77386,0.05185
3035.84511,0.05199
3033.91637,0.05154
3031.98762,0.05101
3030.05888,0.05081
3028.13013,0.05077
3026.20139,0.05076
3024.27264,0.05070
3022.34390,0.05044
3020.41515,0.05028
3018.48641,0.05050
3016.55766,0.05068
3014.62892,0.05050
3012.70017,0.05021
3010.77142,0.05002
3008.84268,0.04987
3006.91393,0.04956
3004.98519,0.04918
3003.05644,0.04900
3001.12770,0.04884
2999.19895,0.04858
2997.27021,0.04854
2995.34146,0.04873
2993.41272,0.04868
2991.48397,0.04825
2989.55523,0.04781
2987.62648,0.04757
2985.69774,0.04742
2983.76899,0.04729
2981.84025,0.04714
2979.91150,0.04684
2977.98275,0.04633
2976.05401,0.04575
2974.12526,0.04535
2972.19652,0.04524
2970.26777,0.04537
2968.33903,0.04543
2966.41028,0.04500
2964.48154,0.04424
2962.55279,0.04372
2960.62405,0.04352
2958.69530,0.04325
2956.76656,0.04292
2954.83781,0.04270
2952.90907,0.04244
2950.98032,0.04191
2949.05157,0.04110
2947.12283,0.04014
2945.19408,0.03913
2943.26534,0.03805
2941.33659,0.03704
2939.40785,0.03633
2937.47910,0.03578
2935.55036,0.03542
2933.62161,0.03541
2931.69287,0.03580
2929.76412,0.03698
2927.83538,0.03948
2925.90663,0.04352
2923.97789,0.04930
2922.04914,0.05701
2920.12040,0.06627
2918.19165,0.07546
2916.26290,0.08184
2914.33416,0.08338
2912.40541,0.08097
2910.47667,0.07736
2908.54792,0.07424
2906.61918,0.07170
2904.69043,0.06970
2902.76169,0.06841
2900.83294,0.06761
2898.90420,0.06676
2896.97545,0.06573
2895.04671,0.06494
2893.11796,0.06462
2891.18922,0.06447
2889.26047,0.06422
2887.33172,0.06368
2885.40298,0.06293
2883.47423,0.06230
2881.54549,0.06163
2879.61674,0.06072
2877.68800,0.05987
2875.75925,0.05907
2873.83051,0.05814
2871.90176,0.05725
2869.97302,0.05644
2868.04427,0.05558
2866.11553,0.05452
2864.18678,0.05324
2862.25804,0.05189
2860.32929,0.05079
2858.40055,0.05019
2856.47180,0.05034
2854.54305,0.05198
2852.61431,0.05667
2850.68556,0.06503
2848.75682,0.07400
2846.82807,0.07905
2844.89933,0.07927
2842.97058,0.07710
2841.04184,0.07467
2839.11309,0.07269
2837.18435,0.07116
2835.25560,0.06981
2833.32686,0.06849
2831.39811,0.06756
2829.46937,0.06712
2827.54062,0.06675
2825.61188,0.06610
2823.68313,0.06535
2821.75438,0.06487
2819.82564,0.06463
2817.89689,0.06428
2815.96815,0.06376
2814.03940,0.06329
2812.11066,0.06307
2810.18191,0.06316
2808.25317,0.06332
2806.32442,0.06334
2804.39568,0.06316
2802.46693,0.06280
2800.53819,0.06244
2798.60944,0.06225
2796.68070,0.06213
2794.75195,0.06194
2792.82320,0.06173
2790.89446,0.06164
2788.96571,0.06170
2787.03697,0.06173
2785.10822,0.06161
2783.17948,0.06155
2781.25073,0.06167
2779.32199,0.06170
2777.39324,0.06148
2775.46450,0.06115
2773.53575,0.06099
2771.60701,0.06100
2769.67826,0.06092
2767.74952,0.06086
2765.82077,0.06085
2763.89203,0.06065
2761.96328,0.06035
2760.03453,0.06026
2758.10579,0.06034
2756.17704,0.06033
2754.24830,0.06014
2752.31955,0.05987
2750.39081,0.05967
2748.46206,0.05967
2746.53332,0.05978
2744.60457,0.05980
2742.67583,0.05976
2740.74708,0.05979
2738.81834,0.05982
2736.88959,0.05982
2734.96085,0.05983
2733.03210,0.05982
2731.10336,0.05977
2729.17461,0.05969
2727.24586,0.05965
2725.31712,0.05968
2723.38837,0.05962
2721.45963,0.05955
2719.53088,0.05955
2717.60214,0.05951
2715.67339,0.05934
2713.74465,0.05919
2711.81590,0.05917
2709.88716,0.05918
2707.95841,0.05922
2706.02967,0.05933
2704.10092,0.05939
2702.17218,0.05936
2700.24343,0.05933
2698.31468,0.05931
2696.38594,0.05925
2694.45719,0.05913
2692.52845,0.05901
2690.59970,0.05891
2688.67096,0.05869
2686.74221,0.05850
2684.81347,0.05849
2682.88472,0.05841
2680.95598,0.05823
2679.02723,0.05833
2677.09849,0.05870
2675.16974,0.05898
2673.24100,0.05898
2671.31225,0.05887
2669.38351,0.05896
2667.45476,0.05928
2665.52601,0.05952
2663.59727,0.05941
2661.66852,0.05915
2659.73978,0.05895
2657.81103,0.05870
2655.88229,0.05837
2653.95354,0.05822
2652.02480,0.05848
2650.09605,0.05883
2648.16731,0.05882
2646.23856,0.05868
2644.30982,0.05866
2642.38107,0.05857
2640.45233,0.05839
2638.52358,0.05846
2636.59484,0.05873
2634.66609,0.05884
2632.73734,0.05883
2630.80860,0.05891
2628.87985,0.05888
2626.95111,0.05869
2625.02236,0.05860
2623.09362,0.05860
2621.16487,0.05849
2619.23613,0.05837
2617.30738,0.05849
2615.37864,0.05875
2613.44989,0.05888
2611.52115,0.05874
2609.59240,0.05847
2607.66366,0.05827
2605.73491,0.05832
2603.80616,0.05850
2601.87742,0.05862
2599.94867,0.05868
2598.01993,0.05863
2596.09118,0.05848
2594.16244,0.05846
2592.23369,0.05859
2590.30495,0.05869
2588.37620,0.05863
2586.44746,0.05848
2584.51871,0.05844
2582.58997,0.05849
2580.66122,0.05860
2578.73248,0.05873
2576.80373,0.05870
2574.87499,0.05861
2572.94624,0.05864
2571.01749,0.05873
2569.08875,0.05874
2567.16000,0.05865
2565.23126,0.05842
2563.30251,0.05819
2561.37377,0.05811
2559.44502,0.05811
2557.51628,0.05819
2555.58753,0.05836
2553.65879,0.05853
2551.73004,0.05858
2549.80130,0.05860
2547.87255,0.05865
2545.94381,0.05857
2544.01506,0.05838
2542.08631,0.05829
2540.15757,0.05823
2538.22882,0.05799
2536.30008,0.05773
2534.37133,0.05772
2532.44259,0.05787
2530.51384,0.05805
2528.58510,0.05830
2526.65635,0.05842
2524.72761,0.05822
2522.79886,0.05791
2520.87012,0.05783
2518.94137,0.05799
2517.01263,0.05816
2515.08388,0.05824
2513.15514,0.05831
2511.22639,0.05833
2509.29764,0.05821
2507.36890,0.05816
2505.44015,0.05827
2503.51141,0.05831
2501.58266,0.05820
2499.65392,0.05804
2497.72517,0.05800
2495.79643,0.05812
2493.86768,0.05825
2491.93894,0.05830
2490.01019,0.05828
2488.08145,0.05826
2486.15270,0.05830
2484.22396,0.05834
2482.29521,0.05829
2480.36647,0.05811
2478.43772,0.05794
2476.50897,0.05799
2474.58023,0.05819
2472.65148,0.05832
2470.72274,0.05828
2468.79399,0.05821
2466.86525,0.05816
2464.93650,0.05815
2463.00776,0.05828
2461.07901,0.05856
2459.15027,0.05879
2457.22152,0.05894
2455.29278,0.05906
2453.36403,0.05914
2451.43529,0.05904
2449.50654,0.05883
2447.57779,0.05869
2445.64905,0.05855
2443.72030,0.05831
2441.79156,0.05815
2439.86281,0.05827
2437.93407,0.05854
2436.00532,0.05870
2434.07658,0.05870
2432.14783,0.05852
2430.21909,0.05811
2428.29034,0.05774
2426.36160,0.05768
2424.43285,0.05780
2422.50411,0.05786
2420.57536,0.05794
2418.64662,0.05801
2416.71787,0.05789
2414.78912,0.05775
2412.86038,0.05779
2410.93163,0.05792
2409.00289,0.05798
2407.07414,0.05787
2405.14540,0.05771
2403.21665,0.05775
2401.28791,0.05797
2399.35916,0.05810
2397.43042,0.05811
2395.50167,0.05816
2393.57293,0.05827
2391.64418,0.05831
2389.71544,0.05828
2387.78669,0.05821
2385.85795,0.05803
2383.92920,0.05791
2382.00045,0.05796
2380.07171,0.05800
2378.14296,0.05788
2376.21422,0.05770
2374.28547,0.05775
2372.35673,0.05801
2370.42798,0.05809
2368.49924,0.05787
2366.57049,0.05765
2364.64175,0.05770
2362.71300,0.05784
2360.78426,0.05782
2358.85551,0.05780
2356.92677,0.05789
2354.99802,0.05797
2353.06927,0.05801
2351.14053,0.05790
2349.21178,0.05765
2347.28304,0.05760
2345.35429,0.05781
2343.42555,0.05791
2341.49680,0.05784
2339.56806,0.05788
2337.63931,0.05808
2335.71057,0.05814
2333.78182,0.05798
2331.85308,0.05786
2329.92433,0.05792
2327.99559,0.05806
2326.06684,0.05806
2324.13810,0.05788
2322.20935,0.05767
2320.28060,0.05755
2318.35186,0.05755
2316.42311,0.05763
2314.49437,0.05776
2312.56562,0.05793
2310.63688,0.05808
2308.70813,0.05803
2306.77939,0.05785
2304.85064,0.05777
2302.92190,0.05785
2300.99315,0.05792
2299.06441,0.05784
2297.13566,0.05774
2295.20692,0.05778
2293.27817,0.05794
2291.34943,0.05818
2289.42068,0.05841
2287.49193,0.05840
2285.56319,0.05811
2283.63444,0.05788
2281.70570,0.05796
2279.77695,0.05823
2277.84821,0.05834
2275.91946,0.05818
2273.99072,0.05806
2272.06197,0.05812
2270.13323,0.05811
2268.20448,0.05801
2266.27574,0.05805
2264.34699,0.05821
2262.41825,0.05835
2260.48950,0.05843
2258.56075,0.05848
2256.63201,0.05855
2254.70326,0.05866
2252.77452,0.05874
2250.84577,0.05867
2248.91703,0.05845
2246.98828,0.05831
2245.05954,0.05840
2243.13079,0.05852
2241.20205,0.05853
2239.27330,0.05848
2237.34456,0.05866
2235.41581,0.05924
2233.48707,0.05987
2231.55832,0.06016
2229.62958,0.06019
2227.70083,0.06006
2225.77208,0.05985
2223.84334,0.05969
2221.91459,0.05956
2219.98585,0.05947
2218.05710,0.05961
2216.12836,0.05998
2214.19961,0.06031
2212.27087,0.06040
2210.34212,0.06044
2208.41338,0.06064
2206.48463,0.06089
2204.55589,0.06098
2202.62714,0.06085
2200.69840,0.06066
2198.76965,0.06062
2196.84090,0.06062
2194.91216,0.06053
2192.98341,0.06036
2191.05467,0.06020
2189.12592,0.06009
2187.19718,0.05998
2185.26843,0.05994
2183.33969,0.05995
2181.41094,0.05989
2179.48220,0.05984
2177.55345,0.05988
2175.62471,0.05989
2173.69596,0.05980
2171.76722,0.05971
2169.83847,0.05964
2167.90973,0.05955
2165.98098,0.05950
2164.05223,0.05946
2162.12349,0.05932
2160.19474,0.05920
2158.26600,0.05918
2156.33725,0.05905
2154.40851,0.05878
2152.47976,0.05857
2150.55102,0.05843
2148.62227,0.05842
2146.69353,0.05857
2144.76478,0.05873
2142.83604,0.05887
2140.90729,0.05918
2138.97855,0.05968
2137.04980,0.06023
2135.12106,0.06080
2133.19231,0.06144
2131.26356,0.06206
2129.33482,0.06254
2127.40607,0.06295
2125.47733,0.06339
2123.54858,0.06390
2121.61984,0.06443
2119.69109,0.06489
2117.76235,0.06519
2115.83360,0.06534
2113.90486,0.06542
2111.97611,0.06548
2110.04737,0.06554
2108.11862,0.06558
2106.18988,0.06562
2104.26113,0.06572
2102.33238,0.06576
2100.40364,0.06564
2098.47489,0.06541
2096.54615,0.06510
2094.61740,0.06472
2092.68866,0.06446
2090.75991,0.06430
2088.83117,0.06398
2086.90242,0.06363
2084.97368,0.06348
2083.04493,0.06334
2081.11619,0.06309
2079.18744,0.06274
2077.25870,0.06234
2075.32995,0.06201
2073.40121,0.06172
2071.47246,0.06138
2069.54371,0.06112
2067.61497,0.06097
2065.68622,0.06074
2063.75748,0.06044
2061.82873,0.06023
2059.89999,0.06001
2057.97124,0.05969
2056.04250,0.05946
2054.11375,0.05940
2052.18501,0.05937
2050.25626,0.05926
2048.32752,0.05906
2046.39877,0.05873
2044.47003,0.05838
2042.54128,0.05811
2040.61254,0.05795
2038.68379,0.05790
2036.75504,0.05795
2034.82630,0.05805
2032.89755,0.05798
2030.96881,0.05772
2029.04006,0.05754
2027.11132,0.05754
2025.18257,0.05753
2023.25383,0.05757
2021.32508,0.05774
2019.39634,0.05785
2017.46759,0.05786
2015.53885,0.05787
2013.61010,0.05786
2011.68136,0.05795
2009.75261,0.05839
2007.82386,0.05910
2005.89512,0.05982
2003.96637,0.06049
2002.03763,0.06132
2000.10888,0.06244
1998.18014,0.06353
1996.25139,0.06432
1994.32265,0.06492
1992.39390,0.06549
1990.46516,0.06615
1988.53641,0.06684
1986.60767,0.06735
1984.67892,0.06764
1982.75018,0.06780
1980.82143,0.06794
1978.89269,0.06812
1976.96394,0.06826
1975.03519,0.06820
1973.10645,0.06798
1971.17770,0.06766
1969.24896,0.06718
1967.32021,0.06652
1965.39147,0.06585
1963.46272,0.06532
1961.53398,0.06497
1959.60523,0.06474
1957.67649,0.06469
1955.74774,0.06479
1953.81900,0.06490
1951.89025,0.06493
1949.96151,0.06496
1948.03276,0.06496
1946.10402,0.06488
1944.17527,0.06478
1942.24652,0.06459
1940.31778,0.06426
1938.38903,0.06392
1936.46029,0.06365
1934.53154,0.06344
1932.60280,0.06329
1930.67405,0.06317
1928.74531,0.06298
1926.81656,0.06266
1924.88782,0.06225
1922.95907,0.06183
1921.03033,0.06146
1919.10158,0.06115
1917.17284,0.06083
1915.24409,0.06038
1913.31534,0.05987
1911.38660,0.05948
1909.45785,0.05918
1907.52911,0.05888
1905.60036,0.05860
1903.67162,0.05834
1901.74287,0.05811
1899.81413,0.05801
1897.88538,0.05799
1895.95664,0.05791
1894.02789,0.05795
1892.09915,0.05830
1890.17040,0.05887
1888.24166,0.05973
1886.31291,0.06103
1884.38417,0.06261
1882.45542,0.06414
1880.52667,0.06553
1878.59793,0.06687
1876.66918,0.06812
1874.74044,0.06930
1872.81169,0.07051
1870.88295,0.07179
1868.95420,0.07299
1867.02546,0.07407
1865.09671,0.07514
1863.16797,0.07612
1861.23922,0.07702
1859.31048,0.07791
1857.38173,0.07870
1855.45299,0.07943
1853.52424,0.08028
1851.59549,0.08109
1849.66675,0.08166
1847.73800,0.08202
1845.80926,0.08217
1843.88051,0.08204
1841.95177,0.08171
1840.02302,0.08122
1838.09428,0.08059
1836.16553,0.07990
1834.23679,0.07906
1832.30804,0.07784
1830.37930,0.07606
1828.45055,0.07382
1826.52181,0.07142
1824.59306,0.06900
1822.66432,0.06682
1820.73557,0.06522
1818.80682,0.06448
1816.87808,0.06469
1814.94933,0.06541
1813.02059,0.06612
1811.09184,0.06677
1809.16310,0.06750
1807.23435,0.06830
1805.30561,0.06898
1803.37686,0.06943
1801.44812,0.06974
1799.51937,0.06994
1797.59063,0.07010
1795.66188,0.07030
1793.73314,0.07049
1791.80439,0.07053
1789.87565,0.07048
1787.94690,0.07056
1786.01815,0.07071
1784.08941,0.07078
1782.16066,0.07077
1780.23192,0.07075
1778.30317,0.07058
1776.37443,0.07030
1774.44568,0.07008
1772.51694,0.06984
1770.58819,0.06957
1768.65945,0.06937
1766.73070,0.06919
1764.80196,0.06896
1762.87321,0.06857
1760.94447,0.06802
1759.01572,0.06751
1757.08697,0.06707
1755.15823,0.06665
1753.22948,0.06626
1751.30074,0.06575
1749.37199,0.06511
1747.44325,0.06451
1745.51450,0.06382
1743.58576,0.06299
1741.65701,0.06224
1739.72827,0.06156
1737.79952,0.06076
1735.87078,0.05984
1733.94203,0.05893
1732.01329,0.05822
1730.08454,0.05774
1728.15580,0.05739
1726.22705,0.05700
1724.29830,0.05663
1722.36956,0.05646
1720.44081,0.05643
1718.51207,0.05641
1716.58332,0.05641
1714.65458,0.05663
1712.72583,0.05706
1710.79709,0.05744
1708.86834,0.05779
1706.93960,0.05823
1705.01085,0.05865
1703.08211,0.05882
1701.15336,0.05872
1699.22462,0.05856
1697.29587,0.05854
1695.36713,0.05868
1693.43838,0.05884
1691.50963,0.05885
1689.58089,0.05881
1687.65214,0.05883
1685.72340,0.05879
1683.79465,0.05862
1681.86591,0.05852
1679.93716,0.05851
1678.00842,0.05853
1676.07967,0.05859
1674.15093,0.05852
1672.22218,0.05830
1670.29344,0.05807
1668.36469,0.05790
1666.43595,0.05775
1664.50720,0.05752
1662.57845,0.05708
1660.64971,0.05667
1658.72096,0.05662
1656.79222,0.05680
1654.86347,0.05677
1652.93473,0.05637
1651.00598,0.05612
1649.07724,0.05618
1647.14849,0.05618
1645.21975,0.05600
1643.29100,0.05588
1641.36226,0.05599
1639.43351,0.05627
1637.50477,0.05647
1635.57602,0.05641
1633.64728,0.05624
1631.71853,0.05614
1629.78978,0.05616
1627.86104,0.05632
1625.93229,0.05647
1624.00355,0.05651
1622.07480,0.05646
1620.14606,0.05638
1618.21731,0.05634
1616.28857,0.05639
1614.35982,0.05638
1612.43108,0.05622
1610.50233,0.05603
1608.57359,0.05610
1606.64484,0.05643
1604.71610,0.05659
1602.78735,0.05631
1600.85861,0.05597
1598.92986,0.05594
1597.00111,0.05604
1595.07237,0.05611
1593.14362,0.05617
1591.21488,0.05611
1589.28613,0.05599
1587.35739,0.05600
1585.42864,0.05610
1583.49990,0.05616
1581.57115,0.05618
1579.64241,0.05623
1577.71366,0.05628
1575.78492,0.05616
1573.85617,0.05601
1571.92743,0.05610
1569.99868,0.05627
1568.06993,0.05625
1566.14119,0.05611
1564.21244,0.05613
1562.28370,0.05633
1560.35495,0.05644
1558.42621,0.05615
1556.49746,0.05558
1554.56872,0.05518
1552.63997,0.05532
1550.71123,0.05576
1548.78248,0.05593
1546.85374,0.05579
1544.92499,0.05567
1542.99625,0.05577
1541.06750,0.05598
1539.13876,0.05598
1537.21001,0.05580
1535.28126,0.05571
1533.35252,0.05565
1531.42377,0.05556
1529.49503,0.05555
1527.56628,0.05561
1525.63754,0.05560
1523.70879,0.05553
1521.78005,0.05542
1519.85130,0.05526
1517.92256,0.05520
1515.99381,0.05529
1514.06507,0.05542
1512.13632,0.05538
1510.20758,0.05520
1508.27883,0.05508
1506.35008,0.05491
1504.42134,0.05475
1502.49259,0.05473
1500.56385,0.05474
1498.63510,0.05464
1496.70636,0.05452
1494.77761,0.05448
1492.84887,0.05442
1490.92012,0.05424
1488.99138,0.05405
1487.06263,0.05391
1485.13389,0.05356
1483.20514,0.05297
1481.27640,0.05240
1479.34765,0.05167
1477.41891,0.05057
1475.49016,0.05001
1473.56141,0.05128
1471.63267,0.05350
1469.70392,0.05475
1467.77518,0.05516
1465.84643,0.05585
1463.91769,0.05738
1461.98894,0.05927
1460.06020,0.06033
1458.13145,0.06018
1456.20271,0.05969
1454.27396,0.05967
1452.34522,0.05974
1450.41647,0.05954
1448.48773,0.05923
1446.55898,0.05913
1444.63024,0.05910
1442.70149,0.05886
1440.77274,0.05857
1438.84400,0.05847
1436.91525,0.05842
1434.98651,0.05837
1433.05776,0.05841
1431.12902,0.05838
1429.20027,0.05822
1427.27153,0.05806
1425.34278,0.05783
1423.41404,0.05763
1421.48529,0.05776
1419.55655,0.05803
1417.62780,0.05808
1415.69906,0.05794
1413.77031,0.05784
1411.84156,0.05773
1409.91282,0.05761
1407.98407,0.05755
1406.05533,0.05747
1404.12658,0.05729
1402.19784,0.05726
1400.26909,0.05740
1398.34035,0.05741
1396.41160,0.05726
1394.48286,0.05724
1392.55411,0.05731
1390.62537,0.05725
1388.69662,0.05705
1386.76788,0.05684
1384.83913,0.05674
1382.91039,0.05681
1380.98164,0.05692
1379.05289,0.05689
1377.12415,0.05683
1375.19540,0.05695
1373.26666,0.05713
1371.33791,0.05719
1369.40917,0.05719
1367.48042,0.05727
1365.55168,0.05731
1363.62293,0.05715
1361.69419,0.05698
1359.76544,0.05712
1357.83670,0.05742
1355.90795,0.05752
1353.97921,0.05748
1352.05046,0.05749
1350.12172,0.05749
1348.19297,0.05735
1346.26422,0.05723
1344.33548,0.05727
1342.40673,0.05735
1340.47799,0.05725
1338.54924,0.05710
1336.62050,0.05718
1334.69175,0.05740
1332.76301,0.05747
1330.83426,0.05737
1328.90552,0.05719
1326.97677,0.05705
1325.04803,0.05705
1323.11928,0.05713
1321.19054,0.05705
1319.26179,0.05682
1317.33304,0.05666
1315.40430,0.05666
1313.47555,0.05675
1311.54681,0.05685
1309.61806,0.05688
1307.68932,0.05685
1305.76057,0.05684
1303.83183,0.05685
1301.90308,0.05684
1299.97434,0.05680
1298.04559,0.05675
1296.11685,0.05678
1294.18810,0.05700
1292.25936,0.05735
1290.33061,0.05755
1288.40187,0.05748
1286.47312,0.05732
1284.54437,0.05724
1282.61563,0.05727
1280.68688,0.05737
1278.75814,0.05749
1276.82939,0.05750
1274.90065,0.05731
1272.97190,0.05711
1271.04316,0.05713
1269.11441,0.05728
1267.18567,0.05734
1265.25692,0.05740
1263.32818,0.05735
1261.39943,0.05711
1259.47069,0.05702
1257.54194,0.05716
1255.61320,0.05713
1253.68445,0.05694
1251.75570,0.05691
1249.82696,0.05717
1247.89821,0.05751
1245.96947,0.05758
1244.04072,0.05739
1242.11198,0.05727
1240.18323,0.05729
1238.25449,0.05743
1236.32574,0.05760
1234.39700,0.05757
1232.46825,0.05734
1230.53951,0.05709
1228.61076,0.05687
1226.68202,0.05675
1224.75327,0.05687
1222.82452,0.05713
1220.89578,0.05735
1218.96703,0.05742
1217.03829,0.05735
1215.10954,0.05728
1213.18080,0.05723
1211.25205,0.05716
1209.32331,0.05700
1207.39456,0.05676
1205.46582,0.05670
1203.53707,0.05694
1201.60833,0.05720
1199.67958,0.05730
1197.75084,0.05735
1195.82209,0.05733
1193.89335,0.05717
1191.96460,0.05710
1190.03585,0.05715
1188.10711,0.05725
1186.17836,0.05736
1184.24962,0.05737
1182.32087,0.05735
1180.39213,0.05727
1178.46338,0.05709
1176.53464,0.05688
1174.60589,0.05675
1172.67715,0.05674
1170.74840,0.05679
1168.81966,0.05685
1166.89091,0.05710
1164.96217,0.05729
1163.03342,0.05710
1161.10467,0.05693
1159.17593,0.05702
1157.24718,0.05706
1155.31844,0.05693
1153.38969,0.05687
1151.46095,0.05696
1149.53220,0.05703
1147.60346,0.05701
1145.67471,0.05697
1143.74597,0.05700
1141.81722,0.05714
1139.88848,0.05725
1137.95973,0.05732
1136.03099,0.05745
1134.10224,0.05751
1132.17350,0.05738
1130.24475,0.05720
1128.31600,0.05708
1126.38726,0.05699
1124.45851,0.05694
1122.52977,0.05700
1120.60102,0.05709
1118.67228,0.05691
1116.74353,0.05652
1114.81479,0.05637
1112.88604,0.05660
1110.95730,0.05696
1109.02855,0.05713
1107.09981,0.05708
1105.17106,0.05701
1103.24232,0.05716
1101.31357,0.05751
1099.38483,0.05772
1097.45608,0.05758
1095.52733,0.05720
1093.59859,0.05676
1091.66984,0.05634
1089.74110,0.05623
1087.81235,0.05650
1085.88361,0.05673
1083.95486,0.05669
1082.02612,0.05646
1080.09737,0.05631
1078.16863,0.05648
1076.23988,0.05647
1074.31114,0.05616
1072.38239,0.05617
1070.45365,0.05652
1068.52490,0.05682
1066.59615,0.05697
1064.66741,0.05698
1062.73866,0.05695
1060.80992,0.05707
1058.88117,0.05724
1056.95243,0.05709
1055.02368,0.05675
1053.09494,0.05669
1051.16619,0.05675
1049.23745,0.05677
1047.30870,0.05703
1045.37996,0.05749
1043.45121,0.05777
1041.52247,0.05759
1039.59372,0.05716
1037.66498,0.05691
1035.73623,0.05675
1033.80748,0.05654
1031.87874,0.05661
1029.94999,0.05694
1028.02125,0.05721
1026.09250,0.05745
1024.16376,0.05767
1022.23501,0.05770
1020.30627,0.05751
1018.37752,0.05737
1016.44878,0.05756
1014.52003,0.05784
1012.59129,0.05793
1010.66254,0.05785
1008.73380,0.05768
1006.80505,0.05750
1004.87631,0.05741
1002.94756,0.05738
1001.01881,0.05730
999.09007,0.05724
997.16132,0.05723
995.23258,0.05729
993.30383,0.05756
991.37509,0.05791
989.44634,0.05788
987.51760,0.05749
985.58885,0.05717
983.66011,0.05697
981.73136,0.05688
979.80262,0.05715
977.87387,0.05764
975.94513,0.05781
974.01638,0.05776
972.08763,0.05786
970.15889,0.05780
968.23014,0.05752
966.30140,0.05727
964.37265,0.05708
962.44391,0.05710
960.51516,0.05746
958.58642,0.05776
956.65767,0.05782
954.72893,0.05781
952.80018,0.05767
950.87144,0.05743
948.94269,0.05739
947.01395,0.05757
945.08520,0.05766
943.15646,0.05744
941.22771,0.05705
939.29896,0.05683
937.37022,0.05685
935.44147,0.05693
933.51273,0.05704
931.58398,0.05735
929.65524,0.05765
927.72649,0.05755
925.79775,0.05720
923.86900,0.05692
921.94026,0.05676
920.01151,0.05684
918.08277,0.05709
916.15402,0.05710
914.22528,0.05688
912.29653,0.05683
910.36779,0.05693
908.43904,0.05696
906.51029,0.05679
904.58155,0.05664
902.65280,0.05684
900.72406,0.05712
898.79531,0.05713
896.86657,0.05707
894.93782,0.05719
893.00908,0.05732
891.08033,0.05718
889.15159,0.05689
887.22284,0.05667
885.29410,0.05657
883.36535,0.05656
881.43661,0.05664
879.50786,0.05677
877.57911,0.05682
875.65037,0.05686
873.72162,0.05718
871.79288,0.05758
869.86413,0.05773
867.93539,0.05767
866.00664,0.05762
864.07790,0.05758
862.14915,0.05746
860.22041,0.05744
858.29166,0.05769
856.36292,0.05794
854.43417,0.05787
852.50543,0.05743
850.57668,0.05697
848.64794,0.05693
846.71919,0.05719
844.79044,0.05739
842.86170,0.05722
840.93295,0.05678
839.00421,0.05656
837.07546,0.05672
835.14672,0.05696
833.21797,0.05718
831.28923,0.05723
829.36048,0.05703
827.43174,0.05694
825.50299,0.05712
823.57425,0.05704
821.64550,0.05665
819.71676,0.05649
817.78801,0.05665
815.85926,0.05687
813.93052,0.05688
812.00177,0.05663
810.07303,0.05672
808.14428,0.05736
806.21554,0.05791
804.28679,0.05778
802.35805,0.05707
800.42930,0.05655
798.50056,0.05674
796.57181,0.05719
794.64307,0.05726
792.71432,0.05687
790.78558,0.05654
788.85683,0.05646
786.92809,0.05635
784.99934,0.05636
783.07059,0.05680
781.14185,0.05713
779.21310,0.05684
777.28436,0.05649
775.35561,0.05654
773.42687,0.05665
771.49812,0.05655
769.56938,0.05614
767.64063,0.05557
765.71189,0.05557
763.78314,0.05622
761.85440,0.05672
759.92565,0.05665
757.99691,0.05628
756.06816,0.05592
754.13942,0.05572
752.21067,0.05552
750.28192,0.05513
748.35318,0.05473
746.42443,0.05449
744.49569,0.05435
742.56694,0.05426
740.63820,0.05408
738.70945,0.05356
736.78071,0.05272
734.85196,0.05179
732.92322,0.05133
730.99447,0.05238
729.06573,0.05463
727.13698,0.05613
725.20824,0.05596
723.27949,0.05566
721.35074,0.05734
719.42200,0.06058
717.49325,0.06294
715.56451,0.06334
713.63576,0.06249
711.70702,0.06140
709.77827,0.06077
707.84953,0.06066
705.92078,0.06035
703.99204,0.05953
702.06329,0.05876
700.13455,0.05857
698.20580,0.05904
696.27706,0.05966
694.34831,0.05960
692.41957,0.05866
690.49082,0.05765
688.56207,0.05711
686.63333,0.05691
684.70458,0.05710
682.77584,0.05764
680.84709,0.05820
678.91835,0.05875
676.98960,0.05939
675.06086,0.06017
673.13211,0.06108
671.20337,0.06218
669.27462,0.06334
667.34588,0.06448
665.41713,0.06542
663.48839,0.06576
661.55964,0.06592
659.63090,0.06707
657.70215,0.06974
655.77340,0.07355
653.84466,0.07740
651.91591,0.08071
649.98717,0.08362
648.05842,0.08591
646.12968,0.08773
644.20093,0.08984
642.27219,0.09218
640.34344,0.09460
638.41470,0.09701
636.48595,0.09886
634.55721,0.10013
632.62846,0.10175
630.69972,0.10383
628.77097,0.10531
626.84222,0.10616
624.91348,0.10773
622.98473,0.10996
621.05599,0.11145
619.12724,0.11176
617.19850,0.11139
615.26975,0.11078
613.34101,0.10982
611.41226,0.10836
609.48352,0.10633
607.55477,0.10324
605.62603,0.09905
603.69728,0.09461
601.76854,0.09086
599.83979,0.08825
