7497.03301,0.48615
7495.10426,0.48880
7493.17552,0.49178
7491.24677,0.49342
7489.31803,0.49352
7487.38928,0.48971
7485.46054,0.48742
7483.53179,0.49138
7481.60305,0.49351
7479.67430,0.49041
7477.74556,0.48779
7475.81681,0.48587
7473.88807,0.48411
7471.95932,0.48610
7470.03057,0.49041
7468.10183,0.49146
7466.17308,0.48943
7464.24434,0.48809
7462.31559,0.48709
7460.38685,0.48503
7458.45810,0.48270
7456.52936,0.48120
7454.60061,0.48209
7452.67187,0.48471
7450.74312,0.48465
7448.81438,0.48050
7446.88563,0.47614
7444.95689,0.47558
7443.02814,0.47880
7441.09940,0.48318
7439.17065,0.48649
7437.24190,0.48723
7435.31316,0.48751
7433.38441,0.49023
7431.45567,0.49236
7429.52692,0.49084
7427.59818,0.48978
7425.66943,0.49373
7423.74069,0.49880
7421.81194,0.49803
7419.88320,0.49020
7417.95445,0.48107
7416.02571,0.47842
7414.09696,0.48279
7412.16822,0.48716
7410.23947,0.48559
7408.31073,0.48178
7406.38198,0.48372
7404.45323,0.48734
7402.52449,0.48576
7400.59574,0.48155
7398.66700,0.47719
7396.73825,0.47469
7394.80951,0.47642
7392.88076,0.47845
7390.95202,0.47647
7389.02327,0.47440
7387.09453,0.47641
7385.16578,0.47785
7383.23704,0.47662
7381.30829,0.47668
7379.37955,0.47524
7377.45080,0.46922
7375.52205,0.46315
7373.59331,0.46027
7371.66456,0.46009
7369.73582,0.46157
7367.80707,0.46303
7365.87833,0.46338
7363.94958,0.46486
7362.02084,0.46809
7360.09209,0.46915
7358.16335,0.46713
7356.23460,0.46516
7354.30586,0.46518
7352.37711,0.46476
7350.44837,0.45900
7348.51962,0.45096
7346.59088,0.44970
7344.66213,0.45509
7342.73338,0.45765
7340.80464,0.45333
7338.87589,0.44820
7336.94715,0.44860
7335.01840,0.45205
7333.08966,0.45271
7331.16091,0.45174
7329.23217,0.45132
7327.30342,0.44981
7325.37468,0.44754
7323.44593,0.44484
7321.51719,0.44169
7319.58844,0.43800
7317.65970,0.43327
7315.73095,0.43030
7313.80221,0.42996
7311.87346,0.42970
7309.94471,0.42857
7308.01597,0.42690
7306.08722,0.42563
7304.15848,0.42556
7302.22973,0.42649
7300.30099,0.42644
7298.37224,0.42413
7296.44350,0.42167
7294.51475,0.41891
7292.58601,0.41319
7290.65726,0.40651
7288.72852,0.40316
7286.79977,0.40302
7284.87103,0.40273
7282.94228,0.39955
7281.01353,0.39432
7279.08479,0.39049
7277.15604,0.38778
7275.22730,0.38367
7273.29855,0.37925
7271.36981,0.37790
7269.44106,0.37987
7267.51232,0.38067
7265.58357,0.37835
7263.65483,0.37535
7261.72608,0.37213
7259.79734,0.36783
7257.86859,0.36224
7255.93985,0.35650
7254.01110,0.35278
7252.08236,0.35064
7250.15361,0.34792
7248.22486,0.34373
7246.29612,0.33921
7244.36737,0.33741
7242.43863,0.33840
7240.50988,0.33754
7238.58114,0.33183
7236.65239,0.32444
7234.72365,0.32068
7232.79490,0.32025
7230.86616,0.31924
7228.93741,0.31656
7227.00867,0.31174
7225.07992,0.30473
7223.15118,0.29951
7221.22243,0.29894
7219.29369,0.29869
7217.36494,0.29382
7215.43619,0.28547
7213.50745,0.27842
7211.57870,0.27537
7209.64996,0.27289
7207.72121,0.26765
7205.79247,0.26144
7203.86372,0.25526
7201.93498,0.24865
7200.00623,0.24303
7198.07749,0.23951
7196.14874,0.23657
7194.22000,0.23221
7192.29125,0.22607
7190.36251,0.21976
7188.43376,0.21394
7186.50501,0.20770
7184.57627,0.20025
7182.64752,0.19159
7180.71878,0.18519
7178.79003,0.18255
7176.86129,0.17939
7174.93254,0.17491
7173.00380,0.17286
7171.07505,0.17590
7169.14631,0.18304
7167.21756,0.19031
7165.28882,0.19636
7163.36007,0.20381
7161.43133,0.21321
7159.50258,0.22228
7157.57384,0.23056
7155.64509,0.23850
7153.71634,0.24618
7151.78760,0.25340
7149.85885,0.25754
7147.93011,0.25846
7146.00136,0.26023
7144.07262,0.26406
7142.14387,0.26682
7140.21513,0.26797
7138.28638,0.26996
7136.35764,0.27217
7134.42889,0.27367
7132.50015,0.27493
7130.57140,0.27433
7128.64266,0.27125
7126.71391,0.26837
7124.78516,0.26809
7122.85642,0.26905
7120.92767,0.26866
7118.99893,0.26684
7117.07018,0.26461
7115.14144,0.26310
7113.21269,0.26142
7111.28395,0.25693
7109.35520,0.25177
7107.42646,0.24992
7105.49771,0.24989
7103.56897,0.24883
7101.64022,0.24711
7099.71148,0.24556
7097.78273,0.24470
7095.85399,0.24453
7093.92524,0.24429
7091.99649,0.24290
7090.06775,0.23918
7088.13900,0.23426
7086.21026,0.23085
7084.28151,0.22993
7082.35277,0.23026
7080.42402,0.22876
7078.49528,0.22480
7076.56653,0.22102
7074.63779,0.21858
7072.70904,0.21713
7070.78030,0.21493
7068.85155,0.20929
7066.92281,0.20157
7064.99406,0.19690
7063.06532,0.19850
7061.13657,0.20326
7059.20782,0.20650
7057.27908,0.20945
7055.35033,0.21345
7053.42159,0.21679
7051.49284,0.22085
7049.56410,0.22497
7047.63535,0.22494
7045.70661,0.22236
7043.77786,0.22200
7041.84912,0.22397
7039.92037,0.22508
7037.99163,0.22369
7036.06288,0.22199
7034.13414,0.22261
7032.20539,0.22499
7030.27664,0.22718
7028.34790,0.22804
7026.41915,0.22750
7024.49041,0.22717
7022.56166,0.22774
7020.63292,0.22681
7018.70417,0.22416
7016.77543,0.22430
7014.84668,0.22955
7012.91794,0.23498
7010.98919,0.23515
7009.06045,0.23201
7007.13170,0.23033
7005.20296,0.23072
7003.27421,0.23173
7001.34547,0.23327
6999.41672,0.23553
6997.48797,0.23730
6995.55923,0.23809
6993.63048,0.24075
6991.70174,0.24471
6989.77299,0.24376
6987.84425,0.23860
6985.91550,0.23691
6983.98676,0.23935
6982.05801,0.24020
6980.12927,0.23878
6978.20052,0.23911
6976.27178,0.24089
6974.34303,0.24171
6972.41429,0.24204
6970.48554,0.24248
6968.55680,0.24301
6966.62805,0.24383
6964.69930,0.24451
6962.77056,0.24427
6960.84181,0.24310
6958.91307,0.24225
6956.98432,0.24290
6955.05558,0.24533
6953.12683,0.24753
6951.19809,0.24737
6949.26934,0.24756
6947.34060,0.25069
6945.41185,0.25372
6943.48311,0.25429
6941.55436,0.25457
6939.62562,0.25759
6937.69687,0.26224
6935.76812,0.26500
6933.83938,0.26685
6931.91063,0.26876
6929.98189,0.26926
6928.05314,0.27015
6926.12440,0.27253
6924.19565,0.27462
6922.26691,0.27610
6920.33816,0.27851
6918.40942,0.28195
6916.48067,0.28397
6914.55193,0.28453
6912.62318,0.28606
6910.69444,0.28787
6908.76569,0.28932
6906.83695,0.29058
6904.90820,0.28901
6902.97945,0.28584
6901.05071,0.28544
6899.12196,0.28715
6897.19322,0.29001
6895.26447,0.29387
6893.33573,0.29608
6891.40698,0.29606
6889.47824,0.29575
6887.54949,0.29589
6885.62075,0.29707
6883.69200,0.30037
6881.76326,0.30467
6879.83451,0.30746
6877.90577,0.30817
6875.97702,0.30892
6874.04828,0.31148
6872.11953,0.31337
6870.19078,0.31252
6868.26204,0.31093
6866.33329,0.31039
6864.40455,0.31155
6862.47580,0.31396
6860.54706,0.31576
6858.61831,0.31663
6856.68957,0.31844
6854.76082,0.32164
6852.83208,0.32442
6850.90333,0.32512
6848.97459,0.32495
6847.04584,0.32696
6845.11710,0.33016
6843.18835,0.33246
6841.25960,0.33427
6839.33086,0.33509
6837.40211,0.33590
6835.47337,0.33726
6833.54462,0.33629
6831.61588,0.33370
6829.68713,0.33378
6827.75839,0.33659
6825.82964,0.33950
6823.90090,0.34373
6821.97215,0.35007
6820.04341,0.35491
6818.11466,0.35681
6816.18592,0.35736
6814.25717,0.35730
6812.32843,0.35703
6810.39968,0.35715
6808.47093,0.35762
6806.54219,0.35823
6804.61344,0.35982
6802.68470,0.36340
6800.75595,0.36822
6798.82721,0.37169
6796.89846,0.37285
6794.96972,0.37325
6793.04097,0.37330
6791.11223,0.37391
6789.18348,0.37723
6787.25474,0.38224
6785.32599,0.38559
6783.39725,0.38665
6781.46850,0.38735
6779.53975,0.38804
6777.61101,0.38884
6775.68226,0.39022
6773.75352,0.39043
6771.82477,0.39033
6769.89603,0.39283
6767.96728,0.39600
6766.03854,0.39688
6764.10979,0.39612
6762.18105,0.39482
6760.25230,0.39346
6758.32356,0.39400
6756.39481,0.39748
6754.46607,0.40177
6752.53732,0.40411
6750.60858,0.40404
6748.67983,0.40415
6746.75108,0.40564
6744.82234,0.40669
6742.89359,0.40717
6740.96485,0.40810
6739.03610,0.40887
6737.10736,0.40929
6735.17861,0.41016
6733.24987,0.41047
6731.32112,0.41004
6729.39238,0.41087
6727.46363,0.41379
6725.53489,0.41732
6723.60614,0.41878
6721.67740,0.41841
6719.74865,0.41849
6717.81991,0.41885
6715.89116,0.41931
6713.96241,0.41978
6712.03367,0.42047
6710.10492,0.42213
6708.17618,0.42309
6706.24743,0.42279
6704.31869,0.42305
6702.38994,0.42381
6700.46120,0.42561
6698.53245,0.42891
6696.60371,0.43022
6694.67496,0.42791
6692.74622,0.42600
6690.81747,0.42776
6688.88873,0.43092
6686.95998,0.43188
6685.03123,0.43155
6683.10249,0.43162
6681.17374,0.43164
6679.24500,0.43278
6677.31625,0.43586
6675.38751,0.43904
6673.45876,0.44062
6671.53002,0.44007
6669.60127,0.43912
6667.67253,0.44113
6665.74378,0.44531
6663.81504,0.44711
6661.88629,0.44646
6659.95755,0.44636
6658.02880,0.44671
6656.10006,0.44707
6654.17131,0.44823
6652.24256,0.44914
6650.31382,0.44960
6648.38507,0.45021
6646.45633,0.44892
6644.52758,0.44568
6642.59884,0.44426
6640.67009,0.44578
6638.74135,0.44742
6636.81260,0.44660
6634.88386,0.44456
6632.95511,0.44512
6631.02637,0.44848
6629.09762,0.45109
6627.16888,0.45155
6625.24013,0.45104
6623.31139,0.45024
6621.38264,0.44963
6619.45389,0.45070
6617.52515,0.45319
6615.59640,0.45500
6613.66766,0.45597
6611.73891,0.45577
6609.81017,0.45307
6607.88142,0.45024
6605.95268,0.45032
6604.02393,0.45229
6602.09519,0.45364
6600.16644,0.45367
6598.23770,0.45353
6596.30895,0.45348
6594.38021,0.45306
6592.45146,0.45316
6590.52271,0.45424
6588.59397,0.45505
6586.66522,0.45422
6584.73648,0.45237
6582.80773,0.45129
6580.87899,0.45070
6578.95024,0.44984
6577.02150,0.44989
6575.09275,0.45139
6573.16401,0.45336
6571.23526,0.45386
6569.30652,0.45235
6567.37777,0.45109
6565.44903,0.45097
6563.52028,0.45087
6561.59154,0.45029
6559.66279,0.44988
6557.73404,0.45095
6555.80530,0.45208
6553.87655,0.45135
6551.94781,0.44973
6550.01906,0.44815
6548.09032,0.44725
6546.16157,0.44816
6544.23283,0.45001
6542.30408,0.44983
6540.37534,0.44665
6538.44659,0.44418
6536.51785,0.44520
6534.58910,0.44741
6532.66036,0.44835
6530.73161,0.44809
6528.80287,0.44707
6526.87412,0.44642
6524.94537,0.44677
6523.01663,0.44652
6521.08788,0.44594
6519.15914,0.44596
6517.23039,0.44402
6515.30165,0.44031
6513.37290,0.43929
6511.44416,0.44154
6509.51541,0.44369
6507.58667,0.44365
6505.65792,0.44270
6503.72918,0.44274
6501.80043,0.44194
6499.87169,0.43896
6497.94294,0.43614
6496.01419,0.43444
6494.08545,0.43288
6492.15670,0.43102
6490.22796,0.42966
6488.29921,0.42952
6486.37047,0.42907
6484.44172,0.42766
6482.51298,0.42781
6480.58423,0.43068
6478.65549,0.43423
6476.72674,0.43719
6474.79800,0.44079
6472.86925,0.44561
6470.94051,0.45017
6469.01176,0.45315
6467.08302,0.45534
6465.15427,0.45867
6463.22552,0.46260
6461.29678,0.46494
6459.36803,0.46683
6457.43929,0.46940
6455.51054,0.47041
6453.58180,0.46956
6451.65305,0.46977
6449.72431,0.47292
6447.79556,0.47724
6445.86682,0.47928
6443.93807,0.47921
6442.00933,0.48008
6440.08058,0.48275
6438.15184,0.48502
6436.22309,0.48466
6434.29434,0.48377
6432.36560,0.48534
6430.43685,0.48755
6428.50811,0.48816
6426.57936,0.48882
6424.65062,0.49058
6422.72187,0.49123
6420.79313,0.48945
6418.86438,0.48723
6416.93564,0.48674
6415.00689,0.48762
6413.07815,0.48827
6411.14940,0.48868
6409.22066,0.49000
6407.29191,0.49224
6405.36317,0.49480
6403.43442,0.49705
6401.50567,0.49848
6399.57693,0.49926
6397.64818,0.49977
6395.71944,0.50008
6393.79069,0.49913
6391.86195,0.49668
6389.93320,0.49600
6388.00446,0.49851
6386.07571,0.50111
6384.14697,0.50229
6382.21822,0.50289
6380.28948,0.50320
6378.36073,0.50346
6376.43199,0.50336
6374.50324,0.50311
6372.57450,0.50375
6370.64575,0.50562
6368.71700,0.50872
6366.78826,0.51107
6364.85951,0.51056
6362.93077,0.50894
6361.00202,0.50809
6359.07328,0.50751
6357.14453,0.50787
6355.21579,0.51005
6353.28704,0.51214
6351.35830,0.51253
6349.42955,0.51277
6347.50081,0.51425
6345.57206,0.51562
6343.64332,0.51569
6341.71457,0.51545
6339.78582,0.51590
6337.85708,0.51688
6335.92833,0.51799
6333.99959,0.51791
6332.07084,0.51534
6330.14210,0.51267
6328.21335,0.51300
6326.28461,0.51569
6324.35586,0.51879
6322.42712,0.52083
6320.49837,0.52103
6318.56963,0.51958
6316.64088,0.51754
6314.71214,0.51784
6312.78339,0.52038
6310.85465,0.52113
6308.92590,0.51977
6306.99715,0.51900
6305.06841,0.51885
6303.13966,0.51883
6301.21092,0.51942
6299.28217,0.51951
6297.35343,0.51916
6295.42468,0.51979
6293.49594,0.52096
6291.56719,0.52222
6289.63845,0.52226
6287.70970,0.51999
6285.78096,0.51770
6283.85221,0.51751
6281.92347,0.51832
6279.99472,0.51857
6278.06598,0.51833
6276.13723,0.51817
6274.20848,0.51868
6272.27974,0.51910
6270.35099,0.51796
6268.42225,0.51618
6266.49350,0.51552
6264.56476,0.51631
6262.63601,0.51766
6260.70727,0.51839
6258.77852,0.51814
6256.84978,0.51774
6254.92103,0.51850
6252.99229,0.51921
6251.06354,0.51735
6249.13480,0.51398
6247.20605,0.51265
6245.27730,0.51439
6243.34856,0.51673
6241.41981,0.51760
6239.49107,0.51747
6237.56232,0.51760
6235.63358,0.51847
6233.70483,0.51896
6231.77609,0.51797
6229.84734,0.51649
6227.91860,0.51626
6225.98985,0.51818
6224.06111,0.52105
6222.13236,0.52189
6220.20362,0.52030
6218.27487,0.51898
6216.34613,0.51947
6214.41738,0.52048
6212.48863,0.51988
6210.55989,0.51818
6208.63114,0.51756
6206.70240,0.51742
6204.77365,0.51631
6202.84491,0.51615
6200.91616,0.51791
6198.98742,0.51848
6197.05867,0.51665
6195.12993,0.51511
6193.20118,0.51536
6191.27244,0.51534
6189.34369,0.51393
6187.41495,0.51324
6185.48620,0.51344
6183.55746,0.51298
6181.62871,0.51187
6179.69996,0.51015
6177.77122,0.50845
6175.84247,0.50772
6173.91373,0.50763
6171.98498,0.50820
6170.05624,0.50892
6168.12749,0.50842
6166.19875,0.50698
6164.27000,0.50557
6162.34126,0.50489
6160.41251,0.50520
6158.48377,0.50505
6156.55502,0.50448
6154.62628,0.50511
6152.69753,0.50584
6150.76878,0.50555
6148.84004,0.50545
6146.91129,0.50550
6144.98255,0.50425
6143.05380,0.50189
6141.12506,0.49955
6139.19631,0.49791
6137.26757,0.49726
6135.33882,0.49647
6133.41008,0.49516
6131.48133,0.49495
6129.55259,0.49555
6127.62384,0.49556
6125.69510,0.49551
6123.76635,0.49609
6121.83761,0.49627
6119.90886,0.49438
6117.98011,0.49080
6116.05137,0.48835
6114.12262,0.48794
6112.19388,0.48819
6110.26513,0.48935
6108.33639,0.49157
6106.40764,0.49283
6104.47890,0.49169
6102.55015,0.48955
6100.62141,0.48909
6098.69266,0.48982
6096.76392,0.48900
6094.83517,0.48725
6092.90643,0.48711
6090.97768,0.48796
6089.04893,0.48767
6087.12019,0.48616
6085.19144,0.48471
6083.26270,0.48395
6081.33395,0.48306
6079.40521,0.48184
6077.47646,0.48094
6075.54772,0.48064
6073.61897,0.48133
6071.69023,0.48220
6069.76148,0.48153
6067.83274,0.47949
6065.90399,0.47750
6063.97525,0.47682
6062.04650,0.47778
6060.11776,0.47888
6058.18901,0.47869
6056.26026,0.47706
6054.33152,0.47428
6052.40277,0.47175
6050.47403,0.47109
6048.54528,0.47141
6046.61654,0.47105
6044.68779,0.46953
6042.75905,0.46695
6040.83030,0.46462
6038.90156,0.46398
6036.97281,0.46471
6035.04407,0.46481
6033.11532,0.46250
6031.18658,0.45860
6029.25783,0.45579
6027.32909,0.45530
6025.40034,0.45549
6023.47159,0.45423
6021.54285,0.45183
6019.61410,0.44980
6017.68536,0.44813
6015.75661,0.44621
6013.82787,0.44436
6011.89912,0.44265
6009.97038,0.44061
6008.04163,0.43867
6006.11289,0.43703
6004.18414,0.43501
6002.25540,0.43283
6000.32665,0.43131
5998.39791,0.43030
5996.46916,0.42849
5994.54041,0.42540
5992.61167,0.42219
5990.68292,0.41892
5988.75418,0.41545
5986.82543,0.41331
5984.89669,0.41214
5982.96794,0.40980
5981.03920,0.40614
5979.11045,0.40259
5977.18171,0.39975
5975.25296,0.39712
5973.32422,0.39406
5971.39547,0.39031
5969.46673,0.38599
5967.53798,0.38181
5965.60924,0.37821
5963.68049,0.37418
5961.75174,0.36919
5959.82300,0.36422
5957.89425,0.35974
5955.96551,0.35681
5954.03676,0.35588
5952.10802,0.35376
5950.17927,0.34886
5948.25053,0.34370
5946.32178,0.33899
5944.39304,0.33357
5942.46429,0.32835
5940.53555,0.32448
5938.60680,0.32101
5936.67806,0.31566
5934.74931,0.30811
5932.82057,0.30116
5930.89182,0.29569
5928.96307,0.28951
5927.03433,0.28215
5925.10558,0.27493
5923.17684,0.26802
5921.24809,0.26110
5919.31935,0.25430
5917.39060,0.24753
5915.46186,0.24085
5913.53311,0.23479
5911.60437,0.22923
5909.67562,0.22337
5907.74688,0.21722
5905.81813,0.21229
5903.88939,0.20924
5901.96064,0.20616
5900.03189,0.20206
5898.10315,0.19824
5896.17440,0.19500
5894.24566,0.19175
5892.31691,0.18861
5890.38817,0.18506
5888.45942,0.18001
5886.53068,0.17344
5884.60193,0.16594
5882.67319,0.15795
5880.74444,0.15043
5878.81570,0.14390
5876.88695,0.13745
5874.95821,0.13067
5873.02946,0.12435
5871.10072,0.11863
5869.17197,0.11292
5867.24322,0.10703
5865.31448,0.10104
5863.38573,0.09542
5861.45699,0.09129
5859.52824,0.08910
5857.59950,0.08711
5855.67075,0.08361
5853.74201,0.07984
5851.81326,0.07793
5849.88452,0.07697
5847.95577,0.07433
5846.02703,0.07043
5844.09828,0.06813
5842.16954,0.06779
5840.24079,0.06704
5838.31205,0.06505
5836.38330,0.06302
5834.45455,0.06206
5832.52581,0.06196
5830.59706,0.06120
5828.66832,0.05944
5826.73957,0.05841
5824.81083,0.05874
5822.88208,0.05897
5820.95334,0.05886
5819.02459,0.05936
5817.09585,0.05962
5815.16710,0.05875
5813.23836,0.05771
5811.30961,0.05717
5809.38087,0.05720
5807.45212,0.05787
5805.52337,0.05831
5803.59463,0.05766
5801.66588,0.05687
5799.73714,0.05723
5797.80839,0.05814
5795.87965,0.05826
5793.95090,0.05783
5792.02216,0.05771
5790.09341,0.05721
5788.16467,0.05587
5786.23592,0.05522
5784.30718,0.05609
5782.37843,0.05706
5780.44969,0.05692
5778.52094,0.05641
5776.59220,0.05618
5774.66345,0.05563
5772.73470,0.05493
5770.80596,0.05523
5768.87721,0.05610
5766.94847,0.05613
5765.01972,0.05573
5763.09098,0.05589
5761.16223,0.05616
5759.23349,0.05648
5757.30474,0.05734
5755.37600,0.05778
5753.44725,0.05732
5751.51851,0.05743
5749.58976,0.05830
5747.66102,0.05901
5745.73227,0.06016
5743.80352,0.06192
5741.87478,0.06339
5739.94603,0.06472
5738.01729,0.06571
5736.08854,0.06584
5734.15980,0.06615
5732.23105,0.06702
5730.30231,0.06758
5728.37356,0.06862
5726.44482,0.07124
5724.51607,0.07412
5722.58733,0.07582
5720.65858,0.07682
5718.72984,0.07768
5716.80109,0.07865
5714.87235,0.07927
5712.94360,0.07854
5711.01485,0.07712
5709.08611,0.07595
5707.15736,0.07428
5705.22862,0.07220
5703.29987,0.07079
5701.37113,0.06946
5699.44238,0.06773
5697.51364,0.06712
5695.58489,0.06787
5693.65615,0.06820
5691.72740,0.06697
5689.79866,0.06495
5687.86991,0.06374
5685.94117,0.06365
5684.01242,0.06401
5682.08368,0.06398
5680.15493,0.06277
5678.22618,0.06096
5676.29744,0.05997
5674.36869,0.05999
5672.43995,0.06008
5670.51120,0.05973
5668.58246,0.05945
5666.65371,0.05940
5664.72497,0.05867
5662.79622,0.05763
5660.86748,0.05781
5658.93873,0.05904
5657.00999,0.06029
5655.08124,0.06137
5653.15250,0.06241
5651.22375,0.06370
5649.29500,0.06546
5647.36626,0.06747
5645.43751,0.06923
5643.50877,0.07063
5641.58002,0.07221
5639.65128,0.07431
5637.72253,0.07628
5635.79379,0.07720
5633.86504,0.07723
5631.93630,0.07759
5630.00755,0.07874
5628.07881,0.08019
5626.15006,0.08167
5624.22132,0.08263
5622.29257,0.08262
5620.36383,0.08293
5618.43508,0.08455
5616.50633,0.08621
5614.57759,0.08723
5612.64884,0.08869
5610.72010,0.09071
5608.79135,0.09214
5606.86261,0.09261
5604.93386,0.09317
5603.00512,0.09476
5601.07637,0.09619
5599.14763,0.09636
5597.21888,0.09637
5595.29014,0.09686
5593.36139,0.09728
5591.43265,0.09760
5589.50390,0.09760
5587.57516,0.09704
5585.64641,0.09649
5583.71766,0.09600
5581.78892,0.09524
5579.86017,0.09467
5577.93143,0.09431
5576.00268,0.09337
5574.07394,0.09208
5572.14519,0.09123
5570.21645,0.09040
5568.28770,0.08896
5566.35896,0.08788
5564.43021,0.08795
5562.50147,0.08766
5560.57272,0.08609
5558.64398,0.08478
5556.71523,0.08476
5554.78648,0.08553
5552.85774,0.08601
5550.92899,0.08558
5549.00025,0.08533
5547.07150,0.08594
5545.14276,0.08638
5543.21401,0.08644
5541.28527,0.08667
5539.35652,0.08697
5537.42778,0.08747
5535.49903,0.08787
5533.57029,0.08724
5531.64154,0.08600
5529.71280,0.08570
5527.78405,0.08672
5525.85531,0.08785
5523.92656,0.08846
5521.99781,0.08840
5520.06907,0.08762
5518.14032,0.08715
5516.21158,0.08748
5514.28283,0.08772
5512.35409,0.08735
5510.42534,0.08652
5508.49660,0.08596
5506.56785,0.08590
5504.63911,0.08586
5502.71036,0.08617
5500.78162,0.08657
5498.85287,0.08565
5496.92413,0.08389
5494.99538,0.08303
5493.06664,0.08385
5491.13789,0.08555
5489.20914,0.08643
5487.28040,0.08660
5485.35165,0.08747
5483.42291,0.08892
5481.49416,0.08989
5479.56542,0.09000
5477.63667,0.08959
5475.70793,0.08950
5473.77918,0.09049
5471.85044,0.09193
5469.92169,0.09267
5467.99295,0.09272
5466.06420,0.09264
5464.13546,0.09305
5462.20671,0.09404
5460.27796,0.09480
5458.34922,0.09507
5456.42047,0.09544
5454.49173,0.09628
5452.56298,0.09719
5450.63424,0.09748
5448.70549,0.09740
5446.77675,0.09794
5444.84800,0.09911
5442.91926,0.09986
5440.99051,0.09994
5439.06177,0.09985
5437.13302,0.10004
5435.20428,0.10047
5433.27553,0.10046
5431.34679,0.10011
5429.41804,0.10027
5427.48929,0.10110
5425.56055,0.10250
5423.63180,0.10442
5421.70306,0.10631
5419.77431,0.10780
5417.84557,0.10909
5415.91682,0.10994
5413.98808,0.11047
5412.05933,0.11191
5410.13059,0.11416
5408.20184,0.11619
5406.27310,0.11798
5404.34435,0.11994
5402.41561,0.12191
5400.48686,0.12360
5398.55811,0.12517
5396.62937,0.12674
5394.70062,0.12786
5392.77188,0.12847
5390.84313,0.12928
5388.91439,0.13033
5386.98564,0.13093
5385.05690,0.13136
5383.12815,0.13273
5381.19941,0.13482
5379.27066,0.13647
5377.34192,0.13749
5375.41317,0.13808
5373.48443,0.13809
5371.55568,0.13823
5369.62694,0.13936
5367.69819,0.14099
5365.76944,0.14211
5363.84070,0.14297
5361.91195,0.14471
5359.98321,0.14704
5358.05446,0.14850
5356.12572,0.14878
5354.19697,0.14900
5352.26823,0.15023
5350.33948,0.15244
5348.41074,0.15454
5346.48199,0.15604
5344.55325,0.15773
5342.62450,0.15975
5340.69576,0.16158
5338.76701,0.16303
5336.83827,0.16360
5334.90952,0.16354
5332.98077,0.16403
5331.05203,0.16502
5329.12328,0.16574
5327.19454,0.16583
5325.26579,0.16522
5323.33705,0.16451
5321.40830,0.16415
5319.47956,0.16383
5317.55081,0.16307
5315.62207,0.16151
5313.69332,0.15978
5311.76458,0.15894
5309.83583,0.15887
5307.90709,0.15891
5305.97834,0.15888
5304.04959,0.15893
5302.12085,0.15925
5300.19210,0.16011
5298.26336,0.16113
5296.33461,0.16127
5294.40587,0.16072
5292.47712,0.16104
5290.54838,0.16242
5288.61963,0.16337
5286.69089,0.16334
5284.76214,0.16281
5282.83340,0.16215
5280.90465,0.16227
5278.97591,0.16329
5277.04716,0.16395
5275.11842,0.16351
5273.18967,0.16260
5271.26092,0.16227
5269.33218,0.16271
5267.40343,0.16309
5265.47469,0.16296
5263.54594,0.16296
5261.61720,0.16290
5259.68845,0.16238
5257.75971,0.16212
5255.83096,0.16210
5253.90222,0.16186
5251.97347,0.16191
5250.04473,0.16250
5248.11598,0.16307
5246.18724,0.16301
5244.25849,0.16229
5242.32975,0.16148
5240.40100,0.16097
5238.47225,0.16026
5236.54351,0.15952
5234.61476,0.15972
5232.68602,0.16026
5230.75727,0.16014
5228.82853,0.15984
5226.89978,0.15981
5224.97104,0.15960
5223.04229,0.15928
5221.11355,0.15915
5219.18480,0.15876
5217.25606,0.15826
5215.32731,0.15828
5213.39857,0.15858
5211.46982,0.15908
5209.54107,0.15983
5207.61233,0.15991
5205.68358,0.15928
5203.75484,0.15912
5201.82609,0.15949
5199.89735,0.15949
5197.96860,0.15892
5196.03986,0.15845
5194.11111,0.15847
5192.18237,0.15865
5190.25362,0.15890
5188.32488,0.15933
5186.39613,0.15931
5184.46739,0.15847
5182.53864,0.15800
5180.60990,0.15883
5178.68115,0.15984
5176.75240,0.15981
5174.82366,0.15967
5172.89491,0.16054
5170.96617,0.16094
5169.03742,0.15977
5167.10868,0.15878
5165.17993,0.15873
5163.25119,0.15880
5161.32244,0.15927
5159.39370,0.16028
5157.46495,0.16084
5155.53621,0.16089
5153.60746,0.16155
5151.67872,0.16283
5149.74997,0.16360
5147.82123,0.16375
5145.89248,0.16390
5143.96373,0.16418
5142.03499,0.16476
5140.10624,0.16568
5138.17750,0.16647
5136.24875,0.16690
5134.32001,0.16715
5132.39126,0.16727
5130.46252,0.16726
5128.53377,0.16710
5126.60503,0.16677
5124.67628,0.16624
5122.74754,0.16563
5120.81879,0.16541
5118.89005,0.16539
5116.96130,0.16500
5115.03255,0.16498
5113.10381,0.16568
5111.17506,0.16576
5109.24632,0.16480
5107.31757,0.16390
5105.38883,0.16342
5103.46008,0.16278
5101.53134,0.16203
5099.60259,0.16196
5097.67385,0.16246
5095.74510,0.16281
5093.81636,0.16321
5091.88761,0.16395
5089.95887,0.16457
5088.03012,0.16469
5086.10138,0.16463
5084.17263,0.16513
5082.24388,0.16602
5080.31514,0.16639
5078.38639,0.16630
5076.45765,0.16645
5074.52890,0.16673
5072.60016,0.16694
5070.67141,0.16746
5068.74267,0.16823
5066.81392,0.16874
5064.88518,0.16887
5062.95643,0.16892
5061.02769,0.16919
5059.09894,0.16960
5057.17020,0.17004
5055.24145,0.17066
5053.31270,0.17154
5051.38396,0.17228
5049.45521,0.17252
5047.52647,0.17256
5045.59772,0.17259
5043.66898,0.17258
5041.74023,0.17282
5039.81149,0.17333
5037.88274,0.17348
5035.95400,0.17292
5034.02525,0.17205
5032.09651,0.17139
5030.16776,0.17106
5028.23902,0.17097
5026.31027,0.17096
5024.38153,0.17081
5022.45278,0.17058
5020.52403,0.17023
5018.59529,0.16919
5016.66654,0.16791
5014.73780,0.16755
5012.80905,0.16796
5010.88031,0.16856
5008.95156,0.16901
5007.02282,0.16861
5005.09407,0.16733
5003.16533,0.16579
5001.23658,0.16409
4999.30784,0.16239
4997.37909,0.16118
4995.45035,0.16050
4993.52160,0.15966
4991.59286,0.15820
4989.66411,0.15647
4987.73536,0.15474
4985.80662,0.15307
4983.87787,0.15174
4981.94913,0.15069
4980.02038,0.14984
4978.09164,0.14923
4976.16289,0.14858
4974.23415,0.14768
4972.30540,0.14651
4970.37666,0.14531
4968.44791,0.14468
4966.51917,0.14441
4964.59042,0.14406
4962.66168,0.14480
4960.73293,0.14735
4958.80418,0.15020
4956.87544,0.15255
4954.94669,0.15541
4953.01795,0.15907
4951.08920,0.16224
4949.16046,0.16434
4947.23171,0.16584
4945.30297,0.16682
4943.37422,0.16751
4941.44548,0.16847
4939.51673,0.16938
4937.58799,0.16955
4935.65924,0.16930
4933.73050,0.16948
4931.80175,0.17038
4929.87301,0.17139
4927.94426,0.17152
4926.01551,0.17106
4924.08677,0.17116
4922.15802,0.17167
4920.22928,0.17186
4918.30053,0.17184
4916.37179,0.17170
4914.44304,0.17138
4912.51430,0.17110
4910.58555,0.17110
4908.65681,0.17118
4906.72806,0.17095
4904.79932,0.17042
4902.87057,0.16969
4900.94183,0.16885
4899.01308,0.16849
4897.08434,0.16892
4895.15559,0.16921
4893.22684,0.16886
4891.29810,0.16865
4889.36935,0.16881
4887.44061,0.16881
4885.51186,0.16853
4883.58312,0.16800
4881.65437,0.16705
4879.72563,0.16599
4877.79688,0.16534
4875.86814,0.16515
4873.93939,0.16528
4872.01065,0.16541
4870.08190,0.16544
4868.15316,0.16573
4866.22441,0.16624
4864.29566,0.16677
4862.36692,0.16739
4860.43817,0.16850
4858.50943,0.17012
4856.58068,0.17156
4854.65194,0.17287
4852.72319,0.17444
4850.79445,0.17616
4848.86570,0.17823
4846.93696,0.18055
4845.00821,0.18246
4843.07947,0.18380
4841.15072,0.18515
4839.22198,0.18695
4837.29323,0.18902
4835.36449,0.19086
4833.43574,0.19226
4831.50699,0.19325
4829.57825,0.19412
4827.64950,0.19530
4825.72076,0.19681
4823.79201,0.19854
4821.86327,0.20039
4819.93452,0.20189
4818.00578,0.20299
4816.07703,0.20406
4814.14829,0.20528
4812.21954,0.20676
4810.29080,0.20833
4808.36205,0.20980
4806.43331,0.21145
4804.50456,0.21309
4802.57582,0.21419
4800.64707,0.21492
4798.71832,0.21562
4796.78958,0.21642
4794.86083,0.21750
4792.93209,0.21853
4791.00334,0.21909
4789.07460,0.21911
4787.14585,0.21909
4785.21711,0.21994
4783.28836,0.22103
4781.35962,0.22123
4779.43087,0.22141
4777.50213,0.22264
4775.57338,0.22431
4773.64464,0.22550
4771.71589,0.22625
4769.78714,0.22735
4767.85840,0.22899
4765.92965,0.23052
4764.00091,0.23199
4762.07216,0.23386
4760.14342,0.23569
4758.21467,0.23679
4756.28593,0.23740
4754.35718,0.23814
4752.42844,0.23919
4750.49969,0.24018
4748.57095,0.24077
4746.64220,0.24131
4744.71346,0.24232
4742.78471,0.24336
4740.85597,0.24388
4738.92722,0.24418
4736.99847,0.24463
4735.06973,0.24528
4733.14098,0.24588
4731.21224,0.24624
4729.28349,0.24675
4727.35475,0.24784
4725.42600,0.24925
4723.49726,0.25063
4721.56851,0.25192
4719.63977,0.25318
4717.71102,0.25454
4715.78228,0.25568
4713.85353,0.25621
4711.92479,0.25641
4709.99604,0.25671
4708.06729,0.25707
4706.13855,0.25756
4704.20980,0.25832
4702.28106,0.25887
4700.35231,0.25894
4698.42357,0.25906
4696.49482,0.25955
4694.56608,0.25986
4692.63733,0.25959
4690.70859,0.25917
4688.77984,0.25907
4686.85110,0.25893
4684.92235,0.25820
4682.99361,0.25686
4681.06486,0.25512
4679.13612,0.25311
4677.20737,0.25101
4675.27862,0.24873
4673.34988,0.24629
4671.42113,0.24421
4669.49239,0.24284
4667.56364,0.24220
4665.63490,0.24242
4663.70615,0.24355
4661.77741,0.24518
4659.84866,0.24693
4657.91992,0.24862
4655.99117,0.25002
4654.06243,0.25127
4652.13368,0.25246
4650.20494,0.25336
4648.27619,0.25367
4646.34745,0.25326
4644.41870,0.25275
4642.48995,0.25267
4640.56121,0.25278
4638.63246,0.25280
4636.70372,0.25270
4634.77497,0.25246
4632.84623,0.25205
4630.91748,0.25154
4628.98874,0.25091
4627.05999,0.25011
4625.13125,0.24927
4623.20250,0.24855
4621.27376,0.24820
4619.34501,0.24806
4617.41627,0.24729
4615.48752,0.24573
4613.55877,0.24421
4611.63003,0.24324
4609.70128,0.24265
4607.77254,0.24215
4605.84379,0.24139
4603.91505,0.24061
4601.98630,0.24030
4600.05756,0.23996
4598.12881,0.23916
4596.20007,0.23823
4594.27132,0.23724
4592.34258,0.23623
4590.41383,0.23535
4588.48509,0.23427
4586.55634,0.23269
4584.62760,0.23126
4582.69885,0.23064
4580.77010,0.23014
4578.84136,0.22853
4576.91261,0.22607
4574.98387,0.22433
4573.05512,0.22365
4571.12638,0.22300
4569.19763,0.22205
4567.26889,0.22066
4565.34014,0.21847
4563.41140,0.21590
4561.48265,0.21357
4559.55391,0.21144
4557.62516,0.20944
4555.69642,0.20773
4553.76767,0.20599
4551.83893,0.20374
4549.91018,0.20139
4547.98143,0.19930
4546.05269,0.19704
4544.12394,0.19446
4542.19520,0.19199
4540.26645,0.18985
4538.33771,0.18788
4536.40896,0.18588
4534.48022,0.18376
4532.55147,0.18167
4530.62273,0.17976
4528.69398,0.17796
4526.76524,0.17633
4524.83649,0.17473
4522.90775,0.17269
4520.97900,0.17029
4519.05025,0.16802
4517.12151,0.16600
4515.19276,0.16403
4513.26402,0.16206
4511.33527,0.16008
4509.40653,0.15773
4507.47778,0.15475
4505.54904,0.15174
4503.62029,0.14932
4501.69155,0.14727
4499.76280,0.14523
4497.83406,0.14325
4495.90531,0.14131
4493.97657,0.13909
4492.04782,0.13633
4490.11908,0.13325
4488.19033,0.13049
4486.26158,0.12826
4484.33284,0.12636
4482.40409,0.12481
4480.47535,0.12329
4478.54660,0.12110
4476.61786,0.11822
4474.68911,0.11557
4472.76037,0.11364
4470.83162,0.11195
4468.90288,0.10988
4466.97413,0.10735
4465.04539,0.10495
4463.11664,0.10312
4461.18790,0.10143
4459.25915,0.09939
4457.33041,0.09704
4455.40166,0.09457
4453.47291,0.09213
4451.54417,0.08989
4449.61542,0.08789
4447.68668,0.08581
4445.75793,0.08351
4443.82919,0.08123
4441.90044,0.07938
4439.97170,0.07778
4438.04295,0.07603
4436.11421,0.07439
4434.18546,0.07308
4432.25672,0.07165
4430.32797,0.06992
4428.39923,0.06840
4426.47048,0.06719
4424.54173,0.06589
4422.61299,0.06454
4420.68424,0.06335
4418.75550,0.06232
4416.82675,0.06145
4414.89801,0.06061
4412.96926,0.05970
4411.04052,0.05910
4409.11177,0.05881
4407.18303,0.05837
4405.25428,0.05792
4403.32554,0.05792
4401.39679,0.05808
4399.46805,0.05799
4397.53930,0.05780
4395.61056,0.05769
4393.68181,0.05752
4391.75306,0.05732
4389.82432,0.05738
4387.89557,0.05768
4385.96683,0.05790
4384.03808,0.05784
4382.10934,0.05757
4380.18059,0.05725
4378.25185,0.05690
4376.32310,0.05648
4374.39436,0.05635
4372.46561,0.05661
4370.53687,0.05651
4368.60812,0.05594
4366.67938,0.05588
4364.75063,0.05652
4362.82189,0.05702
4360.89314,0.05704
4358.96439,0.05698
4357.03565,0.05721
4355.10690,0.05754
4353.17816,0.05748
4351.24941,0.05694
4349.32067,0.05626
4347.39192,0.05602
4345.46318,0.05623
4343.53443,0.05653
4341.60569,0.05676
4339.67694,0.05675
4337.74820,0.05662
4335.81945,0.05665
4333.89071,0.05670
4331.96196,0.05655
4330.03321,0.05630
4328.10447,0.05613
4326.17572,0.05594
4324.24698,0.05573
4322.31823,0.05577
4320.38949,0.05604
4318.46074,0.05610
4316.53200,0.05592
4314.60325,0.05586
4312.67451,0.05592
4310.74576,0.05590
4308.81702,0.05603
4306.88827,0.05640
4304.95953,0.05662
4303.03078,0.05651
4301.10204,0.05654
4299.17329,0.05683
4297.24454,0.05691
4295.31580,0.05686
4293.38705,0.05696
4291.45831,0.05707
4289.52956,0.05720
4287.60082,0.05743
4285.67207,0.05762
4283.74333,0.05769
4281.81458,0.05772
4279.88584,0.05753
4277.95709,0.05708
4276.02835,0.05670
4274.09960,0.05636
4272.17086,0.05621
4270.24211,0.05653
4268.31336,0.05699
4266.38462,0.05735
4264.45587,0.05741
4262.52713,0.05708
4260.59838,0.05689
4258.66964,0.05688
4256.74089,0.05660
4254.81215,0.05635
4252.88340,0.05646
4250.95466,0.05666
4249.02591,0.05673
4247.09717,0.05668
4245.16842,0.05649
4243.23968,0.05630
4241.31093,0.05621
4239.38219,0.05618
4237.45344,0.05634
4235.52469,0.05663
4233.59595,0.05664
4231.66720,0.05639
4229.73846,0.05629
4227.80971,0.05655
4225.88097,0.05690
4223.95222,0.05685
4222.02348,0.05652
4220.09473,0.05654
4218.16599,0.05668
4216.23724,0.05664
4214.30850,0.05665
4212.37975,0.05672
4210.45101,0.05680
4208.52226,0.05689
4206.59352,0.05662
4204.66477,0.05612
4202.73602,0.05610
4200.80728,0.05648
4198.87853,0.05655
4196.94979,0.05642
4195.02104,0.05657
4193.09230,0.05698
4191.16355,0.05720
4189.23481,0.05694
4187.30606,0.05661
4185.37732,0.05671
4183.44857,0.05694
4181.51983,0.05689
4179.59108,0.05663
4177.66234,0.05644
4175.73359,0.05632
4173.80484,0.05625
4171.87610,0.05638
4169.94735,0.05664
4168.01861,0.05667
4166.08986,0.05640
4164.16112,0.05621
4162.23237,0.05633
4160.30363,0.05662
4158.37488,0.05686
4156.44614,0.05696
4154.51739,0.05701
4152.58865,0.05703
4150.65990,0.05691
4148.73116,0.05661
4146.80241,0.05630
4144.87367,0.05633
4142.94492,0.05671
4141.01617,0.05705
4139.08743,0.05717
4137.15868,0.05708
4135.22994,0.05688
4133.30119,0.05674
4131.37245,0.05674
4129.44370,0.05674
4127.51496,0.05672
4125.58621,0.05680
4123.65747,0.05689
4121.72872,0.05675
4119.79998,0.05641
4117.87123,0.05606
4115.94249,0.05585
4114.01374,0.05589
4112.08500,0.05614
4110.15625,0.05639
4108.22750,0.05641
4106.29876,0.05621
4104.37001,0.05618
4102.44127,0.05645
4100.51252,0.05670
4098.58378,0.05663
4096.65503,0.05632
4094.72629,0.05603
4092.79754,0.05605
4090.86880,0.05629
4088.94005,0.05645
4087.01131,0.05653
4085.08256,0.05660
4083.15382,0.05681
4081.22507,0.05722
4079.29632,0.05740
4077.36758,0.05733
4075.43883,0.05741
4073.51009,0.05746
4071.58134,0.05732
4069.65260,0.05715
4067.72385,0.05700
4065.79511,0.05699
4063.86636,0.05717
4061.93762,0.05729
4060.00887,0.05706
4058.08013,0.05664
4056.15138,0.05637
4054.22264,0.05639
4052.29389,0.05664
4050.36515,0.05698
4048.43640,0.05718
4046.50765,0.05722
4044.57891,0.05742
4042.65016,0.05761
4040.72142,0.05744
4038.79267,0.05724
4036.86393,0.05711
4034.93518,0.05680
4033.00644,0.05665
4031.07769,0.05679
4029.14895,0.05682
4027.22020,0.05681
4025.29146,0.05699
4023.36271,0.05724
4021.43397,0.05721
4019.50522,0.05683
4017.57648,0.05660
4015.64773,0.05692
4013.71898,0.05738
4011.79024,0.05746
4009.86149,0.05729
4007.93275,0.05723
4006.00400,0.05732
4004.07526,0.05742
4002.14651,0.05734
4000.21777,0.05719
3998.28902,0.05717
3996.36028,0.05723
3994.43153,0.05720
3992.50279,0.05709
3990.57404,0.05712
3988.64530,0.05727
3986.71655,0.05725
3984.78780,0.05699
3982.85906,0.05677
3980.93031,0.05698
3979.00157,0.05752
3977.07282,0.05789
3975.14408,0.05787
3973.21533,0.05753
3971.28659,0.05713
3969.35784,0.05698
3967.42910,0.05697
3965.50035,0.05688
3963.57161,0.05686
3961.64286,0.05701
3959.71412,0.05708
3957.78537,0.05700
3955.85663,0.05703
3953.92788,0.05713
3951.99913,0.05701
3950.07039,0.05673
3948.14164,0.05653
3946.21290,0.05647
3944.28415,0.05650
3942.35541,0.05668
3940.42666,0.05702
3938.49792,0.05717
3936.56917,0.05701
3934.64043,0.05690
3932.71168,0.05697
3930.78294,0.05703
3928.85419,0.05692
3926.92545,0.05673
3924.99670,0.05660
3923.06795,0.05660
3921.13921,0.05663
3919.21046,0.05649
3917.28172,0.05629
3915.35297,0.05631
3913.42423,0.05657
3911.49548,0.05673
3909.56674,0.05670
3907.63799,0.05662
3905.70925,0.05656
3903.78050,0.05648
3901.85176,0.05658
3899.92301,0.05696
3897.99427,0.05738
3896.06552,0.05745
3894.13678,0.05724
3892.20803,0.05704
3890.27928,0.05685
3888.35054,0.05663
3886.42179,0.05660
3884.49305,0.05660
3882.56430,0.05637
3880.63556,0.05633
3878.70681,0.05668
3876.77807,0.05702
3874.84932,0.05723
3872.92058,0.05748
3870.99183,0.05762
3869.06309,0.05730
3867.13434,0.05698
3865.20560,0.05717
3863.27685,0.05736
3861.34811,0.05741
3859.41936,0.05777
3857.49061,0.05824
3855.56187,0.05817
3853.63312,0.05751
3851.70438,0.05705
3849.77563,0.05707
3847.84689,0.05731
3845.91814,0.05752
3843.98940,0.05753
3842.06065,0.05755
3840.13191,0.05757
3838.20316,0.05725
3836.27442,0.05690
3834.34567,0.05690
3832.41693,0.05700
3830.48818,0.05700
3828.55943,0.05693
3826.63069,0.05696
3824.70194,0.05720
3822.77320,0.05734
3820.84445,0.05718
3818.91571,0.05709
3816.98696,0.05726
3815.05822,0.05737
3813.12947,0.05727
3811.20073,0.05729
3809.27198,0.05752
3807.34324,0.05760
3805.41449,0.05729
3803.48575,0.05701
3801.55700,0.05700
3799.62826,0.05710
3797.69951,0.05717
3795.77076,0.05707
3793.84202,0.05688
3791.91327,0.05678
3789.98453,0.05690
3788.05578,0.05728
3786.12704,0.05763
3784.19829,0.05767
3782.26955,0.05748
3780.34080,0.05740
3778.41206,0.05760
3776.48331,0.05781
3774.55457,0.05782
3772.62582,0.05777
3770.69708,0.05780
3768.76833,0.05792
3766.83959,0.05791
3764.91084,0.05778
3762.98209,0.05764
3761.05335,0.05755
3759.12460,0.05754
3757.19586,0.05760
3755.26711,0.05771
3753.33837,0.05795
3751.40962,0.05798
3749.48088,0.05766
3747.55213,0.05758
3745.62339,0.05779
3743.69464,0.05781
3741.76590,0.05778
3739.83715,0.05804
3737.90841,0.05841
3735.97966,0.05854
3734.05091,0.05818
3732.12217,0.05766
3730.19342,0.05761
3728.26468,0.05793
3726.33593,0.05804
3724.40719,0.05774
3722.47844,0.05724
3720.54970,0.05694
3718.62095,0.05704
3716.69221,0.05729
3714.76346,0.05748
3712.83472,0.05768
3710.90597,0.05792
3708.97723,0.05791
3707.04848,0.05756
3705.11974,0.05731
3703.19099,0.05735
3701.26224,0.05738
3699.33350,0.05735
3697.40475,0.05730
3695.47601,0.05728
3693.54726,0.05737
3691.61852,0.05743
3689.68977,0.05729
3687.76103,0.05703
3685.83228,0.05676
3683.90354,0.05677
3681.97479,0.05709
3680.04605,0.05725
3678.11730,0.05718
3676.18856,0.05716
3674.25981,0.05708
3672.33107,0.05683
3670.40232,0.05661
3668.47357,0.05664
3666.54483,0.05680
3664.61608,0.05679
3662.68734,0.05670
3660.75859,0.05677
3658.82985,0.05707
3656.90110,0.05749
3654.97236,0.05771
3653.04361,0.05747
3651.11487,0.05718
3649.18612,0.05734
3647.25738,0.05735
3645.32863,0.05672
3643.39989,0.05612
3641.47114,0.05611
3639.54239,0.05645
3637.61365,0.05677
3635.68490,0.05724
3633.75616,0.05759
3631.82741,0.05738
3629.89867,0.05710
3627.96992,0.05726
3626.04118,0.05744
3624.11243,0.05719
3622.18369,0.05674
3620.25494,0.05649
3618.32620,0.05642
3616.39745,0.05625
3614.46871,0.05598
3612.53996,0.05585
3610.61122,0.05604
3608.68247,0.05643
3606.75372,0.05671
3604.82498,0.05684
3602.89623,0.05681
3600.96749,0.05650
3599.03874,0.05639
3597.11000,0.05678
3595.18125,0.05706
3593.25251,0.05701
3591.32376,0.05706
3589.39502,0.05722
3587.46627,0.05708
3585.53753,0.05669
3583.60878,0.05654
3581.68004,0.05684
3579.75129,0.05730
3577.82254,0.05754
3575.89380,0.05765
3573.96505,0.05788
3572.03631,0.05816
3570.10756,0.05828
3568.17882,0.05825
3566.25007,0.05829
3564.32133,0.05848
3562.39258,0.05858
3560.46384,0.05852
3558.53509,0.05847
3556.60635,0.05845
3554.67760,0.05838
3552.74886,0.05841
3550.82011,0.05871
3548.89137,0.05913
3546.96262,0.05941
3545.03387,0.05955
3543.10513,0.05965
3541.17638,0.05970
3539.24764,0.05949
3537.31889,0.05912
3535.39015,0.05903
3533.46140,0.05935
3531.53266,0.05972
3529.60391,0.05977
3527.67517,0.05965
3525.74642,0.05968
3523.81768,0.05987
3521.88893,0.06011
3519.96019,0.06030
3518.03144,0.06022
3516.10270,0.05981
3514.17395,0.05949
3512.24520,0.05968
3510.31646,0.06016
3508.38771,0.06038
3506.45897,0.06028
3504.53022,0.06013
3502.60148,0.05997
3500.67273,0.05994
3498.74399,0.06021
3496.81524,0.06039
3494.88650,0.06008
3492.95775,0.05953
3491.02901,0.05923
3489.10026,0.05913
3487.17152,0.05903
3485.24277,0.05907
3483.31402,0.05903
3481.38528,0.05868
3479.45653,0.05843
3477.52779,0.05839
3475.59904,0.05830
3473.67030,0.05816
3471.74155,0.05799
3469.81281,0.05777
3467.88406,0.05759
3465.95532,0.05761
3464.02657,0.05781
3462.09783,0.05787
3460.16908,0.05758
3458.24034,0.05729
3456.31159,0.05718
3454.38285,0.05716
3452.45410,0.05711
3450.52535,0.05680
3448.59661,0.05647
3446.66786,0.05658
3444.73912,0.05686
3442.81037,0.05691
3440.88163,0.05682
3438.95288,0.05677
3437.02414,0.05670
3435.09539,0.05665
3433.16665,0.05669
3431.23790,0.05662
3429.30916,0.05640
3427.38041,0.05635
3425.45167,0.05668
3423.52292,0.05718
3421.59418,0.05730
3419.66543,0.05680
3417.73668,0.05633
3415.80794,0.05639
3413.87919,0.05649
3411.95045,0.05614
3410.02170,0.05575
3408.09296,0.05579
3406.16421,0.05607
3404.23547,0.05621
3402.30672,0.05625
3400.37798,0.05631
3398.44923,0.05611
3396.52049,0.05579
3394.59174,0.05565
3392.66300,0.05560
3390.73425,0.05578
3388.80550,0.05615
3386.87676,0.05617
3384.94801,0.05583
3383.01927,0.05561
3381.09052,0.05567
3379.16178,0.05575
3377.23303,0.05557
3375.30429,0.05532
3373.37554,0.05534
3371.44680,0.05564
3369.51805,0.05593
3367.58931,0.05585
3365.66056,0.05555
3363.73182,0.05547
3361.80307,0.05552
3359.87433,0.05564
3357.94558,0.05575
3356.01683,0.05561
3354.08809,0.05552
3352.15934,0.05561
3350.23060,0.05541
3348.30185,0.05506
3346.37311,0.05507
3344.44436,0.05538
3342.51562,0.05573
3340.58687,0.05588
3338.65813,0.05577
3336.72938,0.05588
3334.80064,0.05637
3332.87189,0.05654
3330.94315,0.05633
3329.01440,0.05618
3327.08566,0.05604
3325.15691,0.05590
3323.22816,0.05595
3321.29942,0.05597
3319.37067,0.05589
3317.44193,0.05609
3315.51318,0.05642
3313.58444,0.05637
3311.65569,0.05616
3309.72695,0.05626
3307.79820,0.05659
3305.86946,0.05679
3303.94071,0.05665
3302.01197,0.05632
3300.08322,0.05627
3298.15448,0.05657
3296.22573,0.05682
3294.29698,0.05682
3292.36824,0.05677
3290.43949,0.05673
3288.51075,0.05656
3286.58200,0.05613
3284.65326,0.05564
3282.72451,0.05548
3280.79577,0.05575
3278.86702,0.05616
3276.93828,0.05626
3275.00953,0.05588
3273.08079,0.05548
3271.15204,0.05558
3269.22330,0.05597
3267.29455,0.05618
3265.36581,0.05609
3263.43706,0.05597
3261.50831,0.05600
3259.57957,0.05599
3257.65082,0.05592
3255.72208,0.05590
3253.79333,0.05582
3251.86459,0.05582
3249.93584,0.05596
3248.00710,0.05618
3246.07835,0.05633
3244.14961,0.05621
3242.22086,0.05602
3240.29212,0.05595
3238.36337,0.05594
3236.43463,0.05589
3234.50588,0.05574
3232.57713,0.05565
3230.64839,0.05572
3228.71964,0.05570
3226.79090,0.05556
3224.86215,0.05543
3222.93341,0.05541
3221.00466,0.05553
3219.07592,0.05560
3217.14717,0.05552
3215.21843,0.05542
3213.28968,0.05544
3211.36094,0.05569
3209.43219,0.05605
3207.50345,0.05617
3205.57470,0.05581
3203.64596,0.05514
3201.71721,0.05466
3199.78846,0.05448
3197.85972,0.05432
3195.93097,0.05428
3194.00223,0.05447
3192.07348,0.05469
3190.14474,0.05479
3188.21599,0.05475
3186.28725,0.05454
3184.35850,0.05435
3182.42976,0.05450
3180.50101,0.05479
3178.57227,0.05486
3176.64352,0.05470
3174.71478,0.05446
3172.78603,0.05432
3170.85729,0.05431
3168.92854,0.05437
3166.99979,0.05437
3165.07105,0.05412
3163.14230,0.05381
3161.21356,0.05388
3159.28481,0.05412
3157.35607,0.05403
3155.42732,0.05382
3153.49858,0.05396
3151.56983,0.05422
3149.64109,0.05428
3147.71234,0.05435
3145.78360,0.05451
3143.85485,0.05455
3141.92611,0.05446
3139.99736,0.05446
3138.06861,0.05452
3136.13987,0.05437
3134.21112,0.05411
3132.28238,0.05396
3130.35363,0.05386
3128.42489,0.05372
3126.49614,0.05359
3124.56740,0.05361
3122.63865,0.05384
3120.70991,0.05405
3118.78116,0.05402
3116.85242,0.05399
3114.92367,0.05407
3112.99493,0.05396
3111.06618,0.05360
3109.13744,0.05336
3107.20869,0.05331
3105.27994,0.05315
3103.35120,0.05303
3101.42245,0.05317
3099.49371,0.05324
3097.56496,0.05310
3095.63622,0.05307
3093.70747,0.05316
3091.77873,0.05305
3089.84998,0.05279
3087.92124,0.05272
3085.99249,0.05281
3084.06375,0.05282
3082.13500,0.05285
3080.20626,0.05289
3078.27751,0.05277
3076.34877,0.05275
3074.42002,0.05279
3072.49127,0.05267
3070.56253,0.05252
3068.63378,0.05237
3066.70504,0.05217
3064.77629,0.05201
3062.84755,0.05206
3060.91880,0.05229
3058.99006,0.05237
3057.06131,0.05223
3055.13257,0.05208
3053.20382,0.05189
3051.27508,0.05167
3049.34633,0.05167
3047.41759,0.05176
3045.48884,0.05167
3043.56009,0.05161
3041.63135,0.05172
3039.70260,0.05172
3037.77386,0.05139
3035.84511,0.05097
3033.91637,0.05067
3031.98762,0.05048
3030.05888,0.05055
3028.13013,0.05081
3026.20139,0.05079
3024.27264,0.05048
3022.34390,0.05031
3020.41515,0.05041
3018.48641,0.05064
3016.55766,0.05068
3014.62892,0.05036
3012.70017,0.04998
3010.77142,0.04988
3008.84268,0.04989
3006.91393,0.04969
3004.98519,0.04936
3003.05644,0.04916
3001.12770,0.04901
2999.19895,0.04892
2997.27021,0.04892
2995.34146,0.04892
2993.41272,0.04895
2991.48397,0.04893
2989.55523,0.04868
2987.62648,0.04835
2985.69774,0.04797
2983.76899,0.04738
2981.84025,0.04679
2979.91150,0.04652
2977.98275,0.04645
2976.05401,0.04632
2974.12526,0.04603
2972.19652,0.04559
2970.26777,0.04514
2968.33903,0.04491
2966.41028,0.04489
2964.48154,0.04484
2962.55279,0.04466
2960.62405,0.04424
2958.69530,0.04363
2956.76656,0.04313
2954.83781,0.04279
2952.90907,0.04237
2950.98032,0.04172
2949.05157,0.04076
2947.12283,0.03974
2945.19408,0.03895
2943.26534,0.03814
2941.33659,0.03707
2939.40785,0.03605
2937.47910,0.03531
2935.55036,0.03487
2933.62161,0.03497
2931.69287,0.03589
2929.76412,0.03761
2927.83538,0.03998
2925.90663,0.04343
2923.97789,0.04879
2922.04914,0.05647
2920.12040,0.06587
2918.19165,0.07511
2916.26290,0.08134
2914.33416,0.08294
2912.40541,0.08092
2910.47667,0.07744
2908.54792,0.07413
2906.61918,0.07171
2904.69043,0.07007
2902.76169,0.06884
2900.83294,0.06780
2898.90420,0.06681
2896.97545,0.06587
2895.04671,0.06517
2893.11796,0.06478
2891.18922,0.06450
2889.26047,0.06407
2887.33172,0.06359
2885.40298,0.06317
2883.47423,0.06270
2881.54549,0.06192
2879.61674,0.06085
2877.68800,0.05989
2875.75925,0.05926
2873.83051,0.05867
2871.90176,0.05770
2869.97302,0.05649
2868.04427,0.05542
2866.11553,0.05446
2864.18678,0.05348
2862.25804,0.05269
2860.32929,0.05197
2858.40055,0.05100
2856.47180,0.05054
2854.54305,0.05193
2852.61431,0.05641
2850.68556,0.06435
2848.75682,0.07320
2846.82807,0.07863
2844.89933,0.07912
2842.97058,0.07686
2841.04184,0.07435
2839.11309,0.07245
2837.18435,0.07084
2835.25560,0.06936
2833.32686,0.06833
2831.39811,0.06767
2829.46937,0.06694
2827.54062,0.06612
2825.61188,0.06557
2823.68313,0.06537
2821.75438,0.06514
2819.82564,0.06479
2817.89689,0.06447
2815.96815,0.06420
2814.03940,0.06395
2812.11066,0.06374
2810.18191,0.06354
2808.25317,0.06331
2806.32442,0.06300
2804.39568,0.06270
2802.46693,0.06246
2800.53819,0.06237
2798.60944,0.06254
2796.68070,0.06268
2794.75195,0.06246
2792.82320,0.06214
2790.89446,0.06202
2788.96571,0.06195
2787.03697,0.06175
2785.10822,0.06143
2783.17948,0.06119
2781.25073,0.06125
2779.32199,0.06142
2777.39324,0.06147
2775.46450,0.06139
2773.53575,0.06128
2771.60701,0.06121
2769.67826,0.06115
2767.74952,0.06096
2765.82077,0.06074
2763.89203,0.06076
2761.96328,0.06086
2760.03453,0.06072
2758.10579,0.06044
2756.17704,0.06028
2754.24830,0.06024
2752.31955,0.06015
2750.39081,0.06000
2748.46206,0.05990
2746.53332,0.05989
2744.60457,0.05986
2742.67583,0.05977
2740.74708,0.05968
2738.81834,0.05947
2736.88959,0.05922
2734.96085,0.05919
2733.03210,0.05938
2731.10336,0.05943
2729.17461,0.05934
2727.24586,0.05932
2725.31712,0.05936
2723.38837,0.05938
2721.45963,0.05940
2719.53088,0.05939
2717.60214,0.05945
2715.67339,0.05966
2713.74465,0.05982
2711.81590,0.05966
2709.88716,0.05923
2707.95841,0.05892
2706.02967,0.05902
2704.10092,0.05932
2702.17218,0.05932
2700.24343,0.05912
2698.31468,0.05902
2696.38594,0.05887
2694.45719,0.05880
2692.52845,0.05890
2690.59970,0.05896
2688.67096,0.05905
2686.74221,0.05926
2684.81347,0.05933
2682.88472,0.05914
2680.95598,0.05896
2679.02723,0.05892
2677.09849,0.05891
2675.16974,0.05891
2673.24100,0.05897
2671.31225,0.05894
2669.38351,0.05881
2667.45476,0.05875
2665.52601,0.05878
2663.59727,0.05876
2661.66852,0.05872
2659.73978,0.05873
2657.81103,0.05861
2655.88229,0.05832
2653.95354,0.05812
2652.02480,0.05807
2650.09605,0.05808
2648.16731,0.05808
2646.23856,0.05806
2644.30982,0.05818
2642.38107,0.05850
2640.45233,0.05879
2638.52358,0.05885
2636.59484,0.05870
2634.66609,0.05852
2632.73734,0.05851
2630.80860,0.05872
2628.87985,0.05892
2626.95111,0.05892
2625.02236,0.05881
2623.09362,0.05866
2621.16487,0.05847
2619.23613,0.05844
2617.30738,0.05853
2615.37864,0.05857
2613.44989,0.05864
2611.52115,0.05880
2609.59240,0.05876
2607.66366,0.05857
2605.73491,0.05854
2603.80616,0.05860
2601.87742,0.05851
2599.94867,0.05845
2598.01993,0.05852
2596.09118,0.05845
2594.16244,0.05829
2592.23369,0.05836
2590.30495,0.05860
2588.37620,0.05879
2586.44746,0.05892
2584.51871,0.05890
2582.58997,0.05868
2580.66122,0.05844
2578.73248,0.05832
2576.80373,0.05829
2574.87499,0.05835
2572.94624,0.05843
2571.01749,0.05846
2569.08875,0.05847
2567.16000,0.05841
2565.23126,0.05831
2563.30251,0.05835
2561.37377,0.05848
2559.44502,0.05857
2557.51628,0.05870
2555.58753,0.05878
2553.65879,0.05867
2551.73004,0.05852
2549.80130,0.05848
2547.87255,0.05841
2545.94381,0.05826
2544.01506,0.05818
2542.08631,0.05822
2540.15757,0.05824
2538.22882,0.05823
2536.30008,0.05826
2534.37133,0.05831
2532.44259,0.05844
2530.51384,0.05864
2528.58510,0.05875
2526.65635,0.05871
2524.72761,0.05853
2522.79886,0.05830
2520.87012,0.05818
2518.94137,0.05824
2517.01263,0.05832
2515.08388,0.05838
2513.15514,0.05843
2511.22639,0.05840
2509.29764,0.05834
2507.36890,0.05838
2505.44015,0.05842
2503.51141,0.05830
2501.58266,0.05810
2499.65392,0.05805
2497.72517,0.05814
2495.79643,0.05815
2493.86768,0.05808
2491.93894,0.05802
2490.01019,0.05808
2488.08145,0.05822
2486.15270,0.05830
2484.22396,0.05830
2482.29521,0.05816
2480.36647,0.05793
2478.43772,0.05790
2476.50897,0.05811
2474.58023,0.05822
2472.65148,0.05813
2470.72274,0.05803
2468.79399,0.05811
2466.86525,0.05831
2464.93650,0.05845
2463.00776,0.05846
2461.07901,0.05859
2459.15027,0.05883
2457.22152,0.05883
2455.29278,0.05864
2453.36403,0.05866
2451.43529,0.05888
2449.50654,0.05885
2447.57779,0.05861
2445.64905,0.05848
2443.72030,0.05846
2441.79156,0.05852
2439.86281,0.05855
2437.93407,0.05848
2436.00532,0.05843
2434.07658,0.05833
2432.14783,0.05818
2430.21909,0.05815
2428.29034,0.05824
2426.36160,0.05828
2424.43285,0.05815
2422.50411,0.05796
2420.57536,0.05785
2418.64662,0.05779
2416.71787,0.05773
2414.78912,0.05768
2412.86038,0.05781
2410.93163,0.05810
2409.00289,0.05838
2407.07414,0.05858
2405.14540,0.05864
2403.21665,0.05839
2401.28791,0.05800
2399.35916,0.05776
2397.43042,0.05772
2395.50167,0.05777
2393.57293,0.05785
2391.64418,0.05796
2389.71544,0.05812
2387.78669,0.05833
2385.85795,0.05845
2383.92920,0.05841
2382.00045,0.05836
2380.07171,0.05839
2378.14296,0.05842
2376.21422,0.05841
2374.28547,0.05837
2372.35673,0.05828
2370.42798,0.05817
2368.49924,0.05810
2366.57049,0.05809
2364.64175,0.05802
2362.71300,0.05785
2360.78426,0.05777
2358.85551,0.05792
2356.92677,0.05805
2354.99802,0.05798
2353.06927,0.05787
2351.14053,0.05783
2349.21178,0.05775
2347.28304,0.05774
2345.35429,0.05783
2343.42555,0.05789
2341.49680,0.05793
2339.56806,0.05794
2337.63931,0.05798
2335.71057,0.05801
2333.78182,0.05796
2331.85308,0.05789
2329.92433,0.05781
2327.99559,0.05767
2326.06684,0.05764
2324.13810,0.05782
2322.20935,0.05799
2320.28060,0.05806
2318.35186,0.05808
2316.42311,0.05807
2314.49437,0.05805
2312.56562,0.05805
2310.63688,0.05803
2308.70813,0.05804
2306.77939,0.05810
2304.85064,0.05812
2302.92190,0.05812
2300.99315,0.05808
2299.06441,0.05793
2297.13566,0.05779
2295.20692,0.05789
2293.27817,0.05806
2291.34943,0.05798
2289.42068,0.05763
2287.49193,0.05738
2285.56319,0.05744
2283.63444,0.05758
2281.70570,0.05765
2279.77695,0.05777
2277.84821,0.05794
2275.91946,0.05806
2273.99072,0.05815
2272.06197,0.05816
2270.13323,0.05807
2268.20448,0.05799
2266.27574,0.05807
2264.34699,0.05834
2262.41825,0.05860
2260.48950,0.05880
2258.56075,0.05893
2256.63201,0.05881
2254.70326,0.05852
2252.77452,0.05838
2250.84577,0.05837
2248.91703,0.05830
2246.98828,0.05827
2245.05954,0.05832
2243.13079,0.05822
2241.20205,0.05812
2239.27330,0.05830
2237.34456,0.05872
2235.41581,0.05922
2233.48707,0.05959
2231.55832,0.05975
2229.62958,0.05985
2227.70083,0.05990
2225.77208,0.05990
2223.84334,0.05993
2221.91459,0.05996
2219.98585,0.05994
2218.05710,0.05993
2216.12836,0.06004
2214.19961,0.06028
2212.27087,0.06050
2210.34212,0.06065
2208.41338,0.06071
2206.48463,0.06061
2204.55589,0.06045
2202.62714,0.06043
2200.69840,0.06048
2198.76965,0.06043
2196.84090,0.06028
2194.91216,0.06022
2192.98341,0.06023
2191.05467,0.06009
2189.12592,0.05991
2187.19718,0.05979
2185.26843,0.05973
2183.33969,0.05981
2181.41094,0.05991
2179.48220,0.05992
2177.55345,0.05990
2175.62471,0.05990
2173.69596,0.05997
2171.76722,0.06006
2169.83847,0.06001
2167.90973,0.05982
2165.98098,0.05966
2164.05223,0.05968
2162.12349,0.05964
2160.19474,0.05938
2158.26600,0.05899
2156.33725,0.05864
2154.40851,0.05838
2152.47976,0.05831
2150.55102,0.05850
2148.62227,0.05887
2146.69353,0.05910
2144.76478,0.05908
2142.83604,0.05912
2140.90729,0.05942
2138.97855,0.05990
2137.04980,0.06046
2135.12106,0.06104
2133.19231,0.06166
2131.26356,0.06229
2129.33482,0.06288
2127.40607,0.06342
2125.47733,0.06393
2123.54858,0.06441
2121.61984,0.06483
2119.69109,0.06512
2117.76235,0.06526
2115.83360,0.06533
2113.90486,0.06535
2111.97611,0.06528
2110.04737,0.06514
2108.11862,0.06500
2106.18988,0.06500
2104.26113,0.06520
2102.33238,0.06549
2100.40364,0.06564
2098.47489,0.06547
2096.54615,0.06510
2094.61740,0.06478
2092.68866,0.06464
2090.75991,0.06453
2088.83117,0.06433
2086.90242,0.06413
2084.97368,0.06392
2083.04493,0.06368
2081.11619,0.06349
2079.18744,0.06317
2077.25870,0.06256
2075.32995,0.06198
2073.40121,0.06166
2071.47246,0.06142
2069.54371,0.06115
2067.61497,0.06086
2065.68622,0.06059
2063.75748,0.06037
2061.82873,0.06026
2059.89999,0.06014
2057.97124,0.05976
2056.04250,0.05930
2054.11375,0.05908
2052.18501,0.05897
2050.25626,0.05883
2048.32752,0.05868
2046.39877,0.05852
2044.47003,0.05835
2042.54128,0.05820
2040.61254,0.05806
2038.68379,0.05800
2036.75504,0.05807
2034.82630,0.05803
2032.89755,0.05773
2030.96881,0.05747
2029.04006,0.05742
2027.11132,0.05755
2025.18257,0.05769
2023.25383,0.05770
2021.32508,0.05765
2019.39634,0.05769
2017.46759,0.05783
2015.53885,0.05794
2013.61010,0.05798
2011.68136,0.05807
2009.75261,0.05834
2007.82386,0.05886
2005.89512,0.05961
2003.96637,0.06050
2002.03763,0.06146
2000.10888,0.06245
1998.18014,0.06335
1996.25139,0.06412
1994.32265,0.06486
1992.39390,0.06562
1990.46516,0.06630
1988.53641,0.06683
1986.60767,0.06728
1984.67892,0.06762
1982.75018,0.06773
1980.82143,0.06766
1978.89269,0.06763
1976.96394,0.06778
1975.03519,0.06802
1973.10645,0.06805
1971.17770,0.06769
1969.24896,0.06720
1967.32021,0.06677
1965.39147,0.06625
1963.46272,0.06569
1961.53398,0.06533
1959.60523,0.06509
1957.67649,0.06493
1955.74774,0.06494
1953.81900,0.06504
1951.89025,0.06506
1949.96151,0.06502
1948.03276,0.06496
1946.10402,0.06480
1944.17527,0.06459
1942.24652,0.06450
1940.31778,0.06440
1938.38903,0.06424
1936.46029,0.06404
1934.53154,0.06374
1932.60280,0.06345
1930.67405,0.06323
1928.74531,0.06293
1926.81656,0.06255
1924.88782,0.06215
1922.95907,0.06173
1921.03033,0.06132
1919.10158,0.06093
1917.17284,0.06048
1915.24409,0.05993
1913.31534,0.05945
1911.38660,0.05915
1909.45785,0.05898
1907.52911,0.05887
1905.60036,0.05876
1903.67162,0.05855
1901.74287,0.05821
1899.81413,0.05791
1897.88538,0.05780
1895.95664,0.05789
1894.02789,0.05802
1892.09915,0.05826
1890.17040,0.05883
1888.24166,0.05985
1886.31291,0.06117
1884.38417,0.06258
1882.45542,0.06390
1880.52667,0.06509
1878.59793,0.06632
1876.66918,0.06773
1874.74044,0.06918
1872.81169,0.07041
1870.88295,0.07147
1868.95420,0.07264
1867.02546,0.07395
1865.09671,0.07505
1863.16797,0.07592
1861.23922,0.07682
1859.31048,0.07784
1857.38173,0.07890
1855.45299,0.07989
1853.52424,0.08064
1851.59549,0.08124
1849.66675,0.08184
1847.73800,0.08234
1845.80926,0.08255
1843.88051,0.08227
1841.95177,0.08163
1840.02302,0.08096
1838.09428,0.08028
1836.16553,0.07954
1834.23679,0.07876
1832.30804,0.07788
1830.37930,0.07652
1828.45055,0.07438
1826.52181,0.07168
1824.59306,0.06894
1822.66432,0.06672
1820.73557,0.06538
1818.80682,0.06498
1816.87808,0.06517
1814.94933,0.06552
1813.02059,0.06588
1811.09184,0.06638
1809.16310,0.06707
1807.23435,0.06775
1805.30561,0.06832
1803.37686,0.06888
1801.44812,0.06943
1799.51937,0.06986
1797.59063,0.07019
1795.66188,0.07044
1793.73314,0.07051
1791.80439,0.07046
1789.87565,0.07050
1787.94690,0.07060
1786.01815,0.07061
1784.08941,0.07059
1782.16066,0.07069
1780.23192,0.07080
1778.30317,0.07074
1776.37443,0.07054
1774.44568,0.07025
1772.51694,0.06990
1770.58819,0.06961
1768.65945,0.06940
1766.73070,0.06919
1764.80196,0.06890
1762.87321,0.06853
1760.94447,0.06813
1759.01572,0.06774
1757.08697,0.06723
1755.15823,0.06659
1753.22948,0.06600
1751.30074,0.06550
1749.37199,0.06498
1747.44325,0.06446
1745.51450,0.06384
1743.58576,0.06298
1741.65701,0.06204
1739.72827,0.06123
1737.79952,0.06045
1735.87078,0.05964
1733.94203,0.05881
1732.01329,0.05812
1730.08454,0.05771
1728.15580,0.05746
1726.22705,0.05719
1724.29830,0.05695
1722.36956,0.05682
1720.44081,0.05669
1718.51207,0.05655
1716.58332,0.05660
1714.65458,0.05694
1712.72583,0.05745
1710.79709,0.05791
1708.86834,0.05822
1706.93960,0.05841
1705.01085,0.05857
1703.08211,0.05871
1701.15336,0.05881
1699.22462,0.05891
1697.29587,0.05898
1695.36713,0.05900
1693.43838,0.05906
1691.50963,0.05912
1689.58089,0.05909
1687.65214,0.05896
1685.72340,0.05875
1683.79465,0.05856
1681.86591,0.05853
1679.93716,0.05847
1678.00842,0.05836
1676.07967,0.05830
1674.15093,0.05814
1672.22218,0.05782
1670.29344,0.05761
1668.36469,0.05769
1666.43595,0.05784
1664.50720,0.05784
1662.57845,0.05774
1660.64971,0.05761
1658.72096,0.05739
1656.79222,0.05704
1654.86347,0.05657
1652.93473,0.05626
1651.00598,0.05643
1649.07724,0.05660
1647.14849,0.05650
1645.21975,0.05626
1643.29100,0.05615
1641.36226,0.05622
1639.43351,0.05627
1637.50477,0.05609
1635.57602,0.05587
1633.64728,0.05593
1631.71853,0.05614
1629.78978,0.05626
1627.86104,0.05628
1625.93229,0.05632
1624.00355,0.05631
1622.07480,0.05623
1620.14606,0.05620
1618.21731,0.05630
1616.28857,0.05635
1614.35982,0.05625
1612.43108,0.05624
1610.50233,0.05637
1608.57359,0.05640
1606.64484,0.05629
1604.71610,0.05613
1602.78735,0.05603
1600.85861,0.05609
1598.92986,0.05617
1597.00111,0.05608
1595.07237,0.05595
1593.14362,0.05595
1591.21488,0.05609
1589.28613,0.05627
1587.35739,0.05632
1585.42864,0.05626
1583.49990,0.05627
1581.57115,0.05633
1579.64241,0.05635
1577.71366,0.05631
1575.78492,0.05623
1573.85617,0.05612
1571.92743,0.05603
1569.99868,0.05598
1568.06993,0.05588
1566.14119,0.05573
1564.21244,0.05562
1562.28370,0.05558
1560.35495,0.05558
1558.42621,0.05559
1556.49746,0.05563
1554.56872,0.05563
1552.63997,0.05554
1550.71123,0.05543
1548.78248,0.05541
1546.85374,0.05547
1544.92499,0.05547
1542.99625,0.05539
1541.06750,0.05536
1539.13876,0.05536
1537.21001,0.05531
1535.28126,0.05527
1533.35252,0.05527
1531.42377,0.05530
1529.49503,0.05537
1527.56628,0.05542
1525.63754,0.05539
1523.70879,0.05522
1521.78005,0.05503
1519.85130,0.05505
1517.92256,0.05515
1515.99381,0.05519
1514.06507,0.05526
1512.13632,0.05532
1510.20758,0.05530
1508.27883,0.05522
1506.35008,0.05511
1504.42134,0.05503
1502.49259,0.05500
1500.56385,0.05504
1498.63510,0.05506
1496.70636,0.05485
1494.77761,0.05450
1492.84887,0.05435
1490.92012,0.05431
1488.99138,0.05408
1487.06263,0.05376
1485.13389,0.05354
1483.20514,0.05328
1481.27640,0.05277
1479.34765,0.05185
1477.41891,0.05061
1475.49016,0.04997
1473.56141,0.05108
1471.63267,0.05309
1469.70392,0.05422
1467.77518,0.05469
1465.84643,0.05542
1463.91769,0.05691
1461.98894,0.05884
1460.06020,0.06007
1458.13145,0.06015
1456.20271,0.05978
1454.27396,0.05964
1452.34522,0.05952
1450.41647,0.05918
1448.48773,0.05878
1446.55898,0.05852
1444.63024,0.05844
1442.70149,0.05848
1440.77274,0.05852
1438.84400,0.05845
1436.91525,0.05832
1434.98651,0.05838
1433.05776,0.05860
1431.12902,0.05865
1429.20027,0.05839
1427.27153,0.05818
1425.34278,0.05822
1423.41404,0.05821
1421.48529,0.05811
1419.55655,0.05815
1417.62780,0.05812
1415.69906,0.05790
1413.77031,0.05764
1411.84156,0.05752
1409.91282,0.05754
1407.98407,0.05755
1406.05533,0.05744
1404.12658,0.05726
1402.19784,0.05722
1400.26909,0.05731
1398.34035,0.05727
1396.41160,0.05703
1394.48286,0.05683
1392.55411,0.05678
1390.62537,0.05676
1388.69662,0.05666
1386.76788,0.05661
1384.83913,0.05672
1382.91039,0.05672
1380.98164,0.05657
1379.05289,0.05645
1377.12415,0.05655
1375.19540,0.05684
1373.26666,0.05708
1371.33791,0.05717
1369.40917,0.05725
1367.48042,0.05728
1365.55168,0.05720
1363.62293,0.05718
1361.69419,0.05732
1359.76544,0.05738
1357.83670,0.05721
1355.90795,0.05709
1353.97921,0.05717
1352.05046,0.05725
1350.12172,0.05723
1348.19297,0.05715
1346.26422,0.05707
1344.33548,0.05707
1342.40673,0.05705
1340.47799,0.05701
1338.54924,0.05707
1336.62050,0.05724
1334.69175,0.05740
1332.76301,0.05743
1330.83426,0.05735
1328.90552,0.05741
1326.97677,0.05754
1325.04803,0.05741
1323.11928,0.05715
1321.19054,0.05707
1319.26179,0.05710
1317.33304,0.05717
1315.40430,0.05735
1313.47555,0.05745
1311.54681,0.05734
1309.61806,0.05719
1307.68932,0.05714
1305.76057,0.05716
1303.83183,0.05715
1301.90308,0.05710
1299.97434,0.05710
1298.04559,0.05722
1296.11685,0.05737
1294.18810,0.05736
1292.25936,0.05723
1290.33061,0.05720
1288.40187,0.05727
1286.47312,0.05735
1284.54437,0.05741
1282.61563,0.05736
1280.68688,0.05726
1278.75814,0.05727
1276.82939,0.05746
1274.90065,0.05765
1272.97190,0.05756
1271.04316,0.05719
1269.11441,0.05695
1267.18567,0.05701
1265.25692,0.05705
1263.32818,0.05698
1261.39943,0.05704
1259.47069,0.05726
1257.54194,0.05747
1255.61320,0.05755
1253.68445,0.05739
1251.75570,0.05707
1249.82696,0.05694
1247.89821,0.05714
1245.96947,0.05746
1244.04072,0.05762
1242.11198,0.05748
1240.18323,0.05713
1238.25449,0.05684
1236.32574,0.05688
1234.39700,0.05714
1232.46825,0.05728
1230.53951,0.05728
1228.61076,0.05729
1226.68202,0.05727
1224.75327,0.05722
1222.82452,0.05718
1220.89578,0.05719
1218.96703,0.05731
1217.03829,0.05752
1215.10954,0.05758
1213.18080,0.05748
1211.25205,0.05744
1209.32331,0.05746
1207.39456,0.05746
1205.46582,0.05730
1203.53707,0.05704
1201.60833,0.05698
1199.67958,0.05723
1197.75084,0.05739
1195.82209,0.05729
1193.89335,0.05724
1191.96460,0.05725
1190.03585,0.05706
1188.10711,0.05676
1186.17836,0.05669
1184.24962,0.05688
1182.32087,0.05712
1180.39213,0.05727
1178.46338,0.05723
1176.53464,0.05700
1174.60589,0.05671
1172.67715,0.05651
1170.74840,0.05649
1168.81966,0.05671
1166.89091,0.05701
1164.96217,0.05712
1163.03342,0.05703
1161.10467,0.05686
1159.17593,0.05675
1157.24718,0.05675
1155.31844,0.05669
1153.38969,0.05657
1151.46095,0.05653
1149.53220,0.05660
1147.60346,0.05677
1145.67471,0.05691
1143.74597,0.05698
1141.81722,0.05718
1139.88848,0.05738
1137.95973,0.05728
1136.03099,0.05714
1134.10224,0.05709
1132.17350,0.05684
1130.24475,0.05648
1128.31600,0.05634
1126.38726,0.05639
1124.45851,0.05654
1122.52977,0.05665
1120.60102,0.05661
1118.67228,0.05672
1116.74353,0.05703
1114.81479,0.05715
1112.88604,0.05702
1110.95730,0.05699
1109.02855,0.05712
1107.09981,0.05713
1105.17106,0.05704
1103.24232,0.05706
1101.31357,0.05708
1099.38483,0.05698
1097.45608,0.05683
1095.52733,0.05675
1093.59859,0.05677
1091.66984,0.05675
1089.74110,0.05663
1087.81235,0.05663
1085.88361,0.05667
1083.95486,0.05647
1082.02612,0.05626
1080.09737,0.05622
1078.16863,0.05618
1076.23988,0.05616
1074.31114,0.05629
1072.38239,0.05647
1070.45365,0.05661
1068.52490,0.05669
1066.59615,0.05672
1064.66741,0.05675
1062.73866,0.05683
1060.80992,0.05688
1058.88117,0.05686
1056.95243,0.05690
1055.02368,0.05704
1053.09494,0.05733
1051.16619,0.05751
1049.23745,0.05722
1047.30870,0.05677
1045.37996,0.05663
1043.45121,0.05663
1041.52247,0.05663
1039.59372,0.05686
1037.66498,0.05714
1035.73623,0.05696
1033.80748,0.05657
1031.87874,0.05656
1029.94999,0.05690
1028.02125,0.05717
1026.09250,0.05722
1024.16376,0.05731
1022.23501,0.05764
1020.30627,0.05778
1018.37752,0.05752
1016.44878,0.05735
1014.52003,0.05748
1012.59129,0.05734
1010.66254,0.05694
1008.73380,0.05691
1006.80505,0.05725
1004.87631,0.05757
1002.94756,0.05769
1001.01881,0.05748
999.09007,0.05695
997.16132,0.05664
995.23258,0.05682
993.30383,0.05711
991.37509,0.05719
989.44634,0.05716
987.51760,0.05718
985.58885,0.05725
983.66011,0.05729
981.73136,0.05733
979.80262,0.05731
977.87387,0.05732
975.94513,0.05748
974.01638,0.05763
972.08763,0.05751
970.15889,0.05724
968.23014,0.05714
966.30140,0.05730
964.37265,0.05754
962.44391,0.05765
960.51516,0.05767
958.58642,0.05780
956.65767,0.05798
954.72893,0.05797
952.80018,0.05766
950.87144,0.05726
948.94269,0.05715
947.01395,0.05740
945.08520,0.05764
943.15646,0.05761
941.22771,0.05749
939.29896,0.05751
937.37022,0.05748
935.44147,0.05713
933.51273,0.05670
931.58398,0.05656
929.65524,0.05668
927.72649,0.05682
925.79775,0.05692
923.86900,0.05696
921.94026,0.05697
920.01151,0.05718
918.08277,0.05756
916.15402,0.05766
914.22528,0.05733
912.29653,0.05707
910.36779,0.05716
908.43904,0.05735
906.51029,0.05733
904.58155,0.05722
902.65280,0.05726
900.72406,0.05726
898.79531,0.05706
896.86657,0.05696
894.93782,0.05690
893.00908,0.05669
891.08033,0.05660
889.15159,0.05665
887.22284,0.05666
885.29410,0.05663
883.36535,0.05659
881.43661,0.05666
879.50786,0.05671
877.57911,0.05655
875.65037,0.05642
873.72162,0.05655
871.79288,0.05668
869.86413,0.05681
867.93539,0.05700
866.00664,0.05703
864.07790,0.05696
862.14915,0.05695
860.22041,0.05696
858.29166,0.05703
856.36292,0.05726
854.43417,0.05754
852.50543,0.05766
850.57668,0.05754
848.64794,0.05733
846.71919,0.05721
844.79044,0.05726
842.86170,0.05714
840.93295,0.05682
839.00421,0.05683
837.07546,0.05718
835.14672,0.05740
833.21797,0.05727
831.28923,0.05693
829.36048,0.05665
827.43174,0.05652
825.50299,0.05669
823.57425,0.05702
821.64550,0.05716
819.71676,0.05717
817.78801,0.05714
815.85926,0.05694
813.93052,0.05677
812.00177,0.05676
810.07303,0.05667
808.14428,0.05654
806.21554,0.05672
804.28679,0.05707
802.35805,0.05705
800.42930,0.05669
798.50056,0.05641
796.57181,0.05641
794.64307,0.05663
792.71432,0.05687
790.78558,0.05692
788.85683,0.05685
786.92809,0.05705
784.99934,0.05750
783.07059,0.05760
781.14185,0.05709
779.21310,0.05663
777.28436,0.05659
775.35561,0.05664
773.42687,0.05654
771.49812,0.05646
769.56938,0.05668
767.64063,0.05700
765.71189,0.05672
763.78314,0.05602
761.85440,0.05578
759.92565,0.05606
757.99691,0.05619
756.06816,0.05576
754.13942,0.05518
752.21067,0.05519
750.28192,0.05570
748.35318,0.05607
746.42443,0.05611
744.49569,0.05584
742.56694,0.05525
740.63820,0.05455
738.70945,0.05375
736.78071,0.05275
734.85196,0.05178
732.92322,0.05154
730.99447,0.05299
729.06573,0.05534
727.13698,0.05639
725.20824,0.05595
723.27949,0.05583
721.35074,0.05762
719.42200,0.06096
717.49325,0.06327
715.56451,0.06335
713.63576,0.06269
711.70702,0.06206
709.77827,0.06114
707.84953,0.06021
705.92078,0.05935
703.99204,0.05846
702.06329,0.05792
700.13455,0.05780
698.20580,0.05799
696.27706,0.05831
694.34831,0.05825
692.41957,0.05787
690.49082,0.05795
688.56207,0.05851
686.63333,0.05874
684.70458,0.05859
682.77584,0.05859
680.84709,0.05883
678.91835,0.05930
676.98960,0.06006
675.06086,0.06068
673.13211,0.06088
671.20337,0.06145
669.27462,0.06277
667.34588,0.06403
665.41713,0.06496
663.48839,0.06601
661.55964,0.06728
659.63090,0.06912
657.70215,0.07194
655.77340,0.07541
653.84466,0.07882
651.91591,0.08143
649.98717,0.08344
648.05842,0.08592
646.12968,0.08871
644.20093,0.09126
642.27219,0.09418
640.34344,0.09709
638.41470,0.09850
636.48595,0.09887
634.55721,0.09952
632.62846,0.10055
630.69972,0.10203
628.77097,0.10389
626.84222,0.10534
624.91348,0.10657
622.98473,0.10814
621.05599,0.10960
619.12724,0.11068
617.19850,0.11137
615.26975,0.11080
613.34101,0.10857
611.41226,0.10606
609.48352,0.10442
607.55477,0.10268
605.62603,0.09941
603.69728,0.09522
601.76854,0.09219
599.83979,0.09070
