7497.03301,0.48285
7495.10426,0.48501
7493.17552,0.48674
7491.24677,0.49024
7489.31803,0.49405
7487.38928,0.49263
7485.46054,0.48826
7483.53179,0.48675
7481.60305,0.48762
7479.67430,0.48768
7477.74556,0.48591
7475.81681,0.48476
7473.88807,0.48670
7471.95932,0.48875
7470.03057,0.48820
7468.10183,0.48893
7466.17308,0.49195
7464.24434,0.49289
7462.31559,0.49116
7460.38685,0.48863
7458.45810,0.48768
7456.52936,0.48972
7454.60061,0.49048
7452.67187,0.48764
7450.74312,0.48528
7448.81438,0.48623
7446.88563,0.48921
7444.95689,0.49072
7443.02814,0.48818
7441.09940,0.48512
7439.17065,0.48707
7437.24190,0.49079
7435.31316,0.48908
7433.38441,0.48339
7431.45567,0.47985
7429.52692,0.48051
7427.59818,0.48348
7425.66943,0.48678
7423.74069,0.49019
7421.81194,0.49390
7419.88320,0.49609
7417.95445,0.49380
7416.02571,0.48854
7414.09696,0.48505
7412.16822,0.48374
7410.23947,0.48309
7408.31073,0.48298
7406.38198,0.48286
7404.45323,0.48366
7402.52449,0.48513
7400.59574,0.48474
7398.66700,0.48389
7396.73825,0.48500
7394.80951,0.48669
7392.88076,0.48704
7390.95202,0.48567
7389.02327,0.48391
7387.09453,0.48301
7385.16578,0.48046
7383.23704,0.47564
7381.30829,0.47173
7379.37955,0.47022
7377.45080,0.47199
7375.52205,0.47437
7373.59331,0.47314
7371.66456,0.47126
7369.73582,0.47067
7367.80707,0.46758
7365.87833,0.46254
7363.94958,0.46177
7362.02084,0.46715
7360.09209,0.47295
7358.16335,0.47460
7356.23460,0.47250
7354.30586,0.46878
7352.37711,0.46626
7350.44837,0.46492
7348.51962,0.46283
7346.59088,0.46046
7344.66213,0.45765
7342.73338,0.45450
7340.80464,0.45335
7338.87589,0.45295
7336.94715,0.45191
7335.01840,0.45218
7333.08966,0.45329
7331.16091,0.45378
7329.23217,0.45180
7327.30342,0.44457
7325.37468,0.43635
7323.44593,0.43476
7321.51719,0.43825
7319.58844,0.43972
7317.65970,0.43880
7315.73095,0.43929
7313.80221,0.43778
7311.87346,0.43033
7309.94471,0.42348
7308.01597,0.42155
7306.08722,0.42049
7304.15848,0.42049
7302.22973,0.42396
7300.30099,0.42646
7298.37224,0.42439
7296.44350,0.41979
7294.51475,0.41402
7292.58601,0.40775
7290.65726,0.40147
7288.72852,0.39490
7286.79977,0.38947
7284.87103,0.38715
7282.94228,0.38815
7281.01353,0.38873
7279.08479,0.38536
7277.15604,0.38076
7275.22730,0.37888
7273.29855,0.37951
7271.36981,0.38045
7269.44106,0.38061
7267.51232,0.37726
7265.58357,0.36870
7263.65483,0.36257
7261.72608,0.36247
7259.79734,0.36050
7257.86859,0.35519
7255.93985,0.35277
7254.01110,0.35307
7252.08236,0.35110
7250.15361,0.34544
7248.22486,0.33961
7246.29612,0.33749
7244.36737,0.33750
7242.43863,0.33577
7240.50988,0.33401
7238.58114,0.33331
7236.65239,0.33055
7234.72365,0.32523
7232.79490,0.31897
7230.86616,0.31275
7228.93741,0.30717
7227.00867,0.30313
7225.07992,0.30019
7223.15118,0.29571
7221.22243,0.28935
7219.29369,0.28382
7217.36494,0.28122
7215.43619,0.28005
7213.50745,0.27741
7211.57870,0.27320
7209.64996,0.26835
7207.72121,0.26335
7205.79247,0.25705
7203.86372,0.24899
7201.93498,0.24365
7200.00623,0.24185
7198.07749,0.23805
7196.14874,0.23101
7194.22000,0.22441
7192.29125,0.21902
7190.36251,0.21271
7188.43376,0.20565
7186.50501,0.19946
7184.57627,0.19309
7182.64752,0.18679
7180.71878,0.18337
7178.79003,0.18203
7176.86129,0.18011
7174.93254,0.17829
7173.00380,0.17943
7171.07505,0.18367
7169.14631,0.18683
7167.21756,0.18834
7165.28882,0.19440
7163.36007,0.20624
7161.43133,0.21732
7159.50258,0.22553
7157.57384,0.23320
7155.64509,0.24015
7153.71634,0.24562
7151.78760,0.24990
7149.85885,0.25481
7147.93011,0.26117
7146.00136,0.26541
7144.07262,0.26694
7142.14387,0.26912
7140.21513,0.27026
7138.28638,0.26782
7136.35764,0.26474
7134.42889,0.26388
7132.50015,0.26474
7130.57140,0.26664
7128.64266,0.26988
7126.71391,0.27242
7124.78516,0.27031
7122.85642,0.26513
7120.92767,0.26421
7118.99893,0.26862
7117.07018,0.27049
7115.14144,0.26711
7113.21269,0.26346
7111.28395,0.26075
7109.35520,0.25723
7107.42646,0.25430
7105.49771,0.25325
7103.56897,0.25157
7101.64022,0.24862
7099.71148,0.24654
7097.78273,0.24488
7095.85399,0.24242
7093.92524,0.23899
7091.99649,0.23578
7090.06775,0.23390
7088.13900,0.23295
7086.21026,0.23374
7084.28151,0.23519
7082.35277,0.23479
7080.42402,0.23289
7078.49528,0.22899
7076.56653,0.22200
7074.63779,0.21572
7072.70904,0.21443
7070.78030,0.21499
7068.85155,0.21190
7066.92281,0.20722
7064.99406,0.20509
7063.06532,0.20367
7061.13657,0.20242
7059.20782,0.20414
7057.27908,0.20717
7055.35033,0.21028
7053.42159,0.21514
7051.49284,0.21923
7049.56410,0.22022
7047.63535,0.22142
7045.70661,0.22481
7043.77786,0.22629
7041.84912,0.22421
7039.92037,0.22338
7037.99163,0.22484
7036.06288,0.22488
7034.13414,0.22378
7032.20539,0.22413
7030.27664,0.22515
7028.34790,0.22558
7026.41915,0.22632
7024.49041,0.22802
7022.56166,0.23007
7020.63292,0.23076
7018.70417,0.22890
7016.77543,0.22557
7014.84668,0.22425
7012.91794,0.22791
7010.98919,0.23358
7009.06045,0.23728
7007.13170,0.23927
7005.20296,0.23957
7003.27421,0.23891
7001.34547,0.23899
6999.41672,0.23877
6997.48797,0.23773
6995.55923,0.23746
6993.63048,0.23810
6991.70174,0.23775
6989.77299,0.23647
6987.84425,0.23703
6985.91550,0.23906
6983.98676,0.24005
6982.05801,0.24140
6980.12927,0.24426
6978.20052,0.24690
6976.27178,0.24925
6974.34303,0.25140
6972.41429,0.25095
6970.48554,0.24742
6968.55680,0.24379
6966.62805,0.24228
6964.69930,0.24352
6962.77056,0.24637
6960.84181,0.24818
6958.91307,0.24819
6956.98432,0.24678
6955.05558,0.24440
6953.12683,0.24353
6951.19809,0.24616
6949.26934,0.25001
6947.34060,0.25175
6945.41185,0.25191
6943.48311,0.25273
6941.55436,0.25439
6939.62562,0.25507
6937.69687,0.25408
6935.76812,0.25467
6933.83938,0.25997
6931.91063,0.26735
6929.98189,0.27165
6928.05314,0.27283
6926.12440,0.27364
6924.19565,0.27397
6922.26691,0.27390
6920.33816,0.27536
6918.40942,0.27832
6916.48067,0.28055
6914.55193,0.28155
6912.62318,0.28216
6910.69444,0.28252
6908.76569,0.28400
6906.83695,0.28693
6904.90820,0.28936
6902.97945,0.29023
6901.05071,0.28923
6899.12196,0.28774
6897.19322,0.28901
6895.26447,0.29298
6893.33573,0.29663
6891.40698,0.29883
6889.47824,0.30069
6887.54949,0.30272
6885.62075,0.30315
6883.69200,0.30230
6881.76326,0.30364
6879.83451,0.30611
6877.90577,0.30631
6875.97702,0.30610
6874.04828,0.30768
6872.11953,0.30965
6870.19078,0.31154
6868.26204,0.31383
6866.33329,0.31529
6864.40455,0.31597
6862.47580,0.31811
6860.54706,0.32144
6858.61831,0.32380
6856.68957,0.32493
6854.76082,0.32539
6852.83208,0.32506
6850.90333,0.32502
6848.97459,0.32669
6847.04584,0.32845
6845.11710,0.32819
6843.18835,0.32693
6841.25960,0.32622
6839.33086,0.32633
6837.40211,0.32732
6835.47337,0.32978
6833.54462,0.33350
6831.61588,0.33723
6829.68713,0.34077
6827.75839,0.34299
6825.82964,0.34184
6823.90090,0.33967
6821.97215,0.34023
6820.04341,0.34208
6818.11466,0.34388
6816.18592,0.34741
6814.25717,0.35145
6812.32843,0.35378
6810.39968,0.35510
6808.47093,0.35737
6806.54219,0.36146
6804.61344,0.36533
6802.68470,0.36788
6800.75595,0.37023
6798.82721,0.37279
6796.89846,0.37494
6794.96972,0.37508
6793.04097,0.37424
6791.11223,0.37477
6789.18348,0.37523
6787.25474,0.37483
6785.32599,0.37616
6783.39725,0.37968
6781.46850,0.38215
6779.53975,0.38228
6777.61101,0.38251
6775.68226,0.38518
6773.75352,0.38988
6771.82477,0.39287
6769.89603,0.39249
6767.96728,0.39233
6766.03854,0.39376
6764.10979,0.39428
6762.18105,0.39383
6760.25230,0.39386
6758.32356,0.39440
6756.39481,0.39538
6754.46607,0.39753
6752.53732,0.40084
6750.60858,0.40346
6748.67983,0.40452
6746.75108,0.40560
6744.82234,0.40653
6742.89359,0.40582
6740.96485,0.40516
6739.03610,0.40678
6737.10736,0.40870
6735.17861,0.40847
6733.24987,0.40683
6731.32112,0.40611
6729.39238,0.40897
6727.46363,0.41456
6725.53489,0.41807
6723.60614,0.41799
6721.67740,0.41768
6719.74865,0.41909
6717.81991,0.42019
6715.89116,0.42001
6713.96241,0.42011
6712.03367,0.42092
6710.10492,0.42236
6708.17618,0.42562
6706.24743,0.42939
6704.31869,0.43041
6702.38994,0.42993
6700.46120,0.43027
6698.53245,0.42987
6696.60371,0.42847
6694.67496,0.42708
6692.74622,0.42617
6690.81747,0.42773
6688.88873,0.43108
6686.95998,0.43213
6685.03123,0.43040
6683.10249,0.43019
6681.17374,0.43406
6679.24500,0.43859
6677.31625,0.43896
6675.38751,0.43659
6673.45876,0.43592
6671.53002,0.43716
6669.60127,0.43957
6667.67253,0.44302
6665.74378,0.44464
6663.81504,0.44358
6661.88629,0.44245
6659.95755,0.44217
6658.02880,0.44238
6656.10006,0.44229
6654.17131,0.44133
6652.24256,0.44057
6650.31382,0.44141
6648.38507,0.44474
6646.45633,0.44882
6644.52758,0.44997
6642.59884,0.44831
6640.67009,0.44663
6638.74135,0.44622
6636.81260,0.44670
6634.88386,0.44749
6632.95511,0.44898
6631.02637,0.45093
6629.09762,0.45222
6627.16888,0.45267
6625.24013,0.45293
6623.31139,0.45342
6621.38264,0.45334
6619.45389,0.45222
6617.52515,0.45164
6615.59640,0.45203
6613.66766,0.45161
6611.73891,0.45020
6609.81017,0.45012
6607.88142,0.45188
6605.95268,0.45262
6604.02393,0.45208
6602.09519,0.45332
6600.16644,0.45594
6598.23770,0.45648
6596.30895,0.45420
6594.38021,0.45201
6592.45146,0.45186
6590.52271,0.45324
6588.59397,0.45579
6586.66522,0.45804
6584.73648,0.45732
6582.80773,0.45413
6580.87899,0.45193
6578.95024,0.45182
6577.02150,0.45122
6575.09275,0.44900
6573.16401,0.44742
6571.23526,0.44827
6569.30652,0.45048
6567.37777,0.45204
6565.44903,0.45245
6563.52028,0.45134
6561.59154,0.44927
6559.66279,0.44823
6557.73404,0.44745
6555.80530,0.44563
6553.87655,0.44486
6551.94781,0.44572
6550.01906,0.44656
6548.09032,0.44865
6546.16157,0.45290
6544.23283,0.45581
6542.30408,0.45458
6540.37534,0.45148
6538.44659,0.44996
6536.51785,0.44900
6534.58910,0.44615
6532.66036,0.44393
6530.73161,0.44473
6528.80287,0.44570
6526.87412,0.44540
6524.94537,0.44563
6523.01663,0.44627
6521.08788,0.44599
6519.15914,0.44512
6517.23039,0.44419
6515.30165,0.44224
6513.37290,0.43998
6511.44416,0.43973
6509.51541,0.44058
6507.58667,0.43986
6505.65792,0.43813
6503.72918,0.43742
6501.80043,0.43703
6499.87169,0.43568
6497.94294,0.43366
6496.01419,0.43111
6494.08545,0.42885
6492.15670,0.42754
6490.22796,0.42679
6488.29921,0.42756
6486.37047,0.42994
6484.44172,0.43158
6482.51298,0.43224
6480.58423,0.43428
6478.65549,0.43806
6476.72674,0.44083
6474.79800,0.44204
6472.86925,0.44442
6470.94051,0.44902
6469.01176,0.45492
6467.08302,0.45985
6465.15427,0.46189
6463.22552,0.46352
6461.29678,0.46707
6459.36803,0.46988
6457.43929,0.47034
6455.51054,0.47079
6453.58180,0.47189
6451.65305,0.47301
6449.72431,0.47467
6447.79556,0.47619
6445.86682,0.47750
6443.93807,0.47947
6442.00933,0.48124
6440.08058,0.48255
6438.15184,0.48385
6436.22309,0.48453
6434.29434,0.48506
6432.36560,0.48661
6430.43685,0.48743
6428.50811,0.48621
6426.57936,0.48578
6424.65062,0.48715
6422.72187,0.48825
6420.79313,0.48878
6418.86438,0.48979
6416.93564,0.49195
6415.00689,0.49447
6413.07815,0.49572
6411.14940,0.49574
6409.22066,0.49500
6407.29191,0.49416
6405.36317,0.49519
6403.43442,0.49769
6401.50567,0.49880
6399.57693,0.49779
6397.64818,0.49698
6395.71944,0.49785
6393.79069,0.49877
6391.86195,0.49843
6389.93320,0.49701
6388.00446,0.49612
6386.07571,0.49841
6384.14697,0.50233
6382.21822,0.50415
6380.28948,0.50361
6378.36073,0.50238
6376.43199,0.50256
6374.50324,0.50445
6372.57450,0.50615
6370.64575,0.50701
6368.71700,0.50722
6366.78826,0.50714
6364.85951,0.50750
6362.93077,0.50873
6361.00202,0.51104
6359.07328,0.51299
6357.14453,0.51321
6355.21579,0.51236
6353.28704,0.51192
6351.35830,0.51332
6349.42955,0.51550
6347.50081,0.51610
6345.57206,0.51602
6343.64332,0.51672
6341.71457,0.51647
6339.78582,0.51469
6337.85708,0.51429
6335.92833,0.51604
6333.99959,0.51818
6332.07084,0.51988
6330.14210,0.52026
6328.21335,0.51895
6326.28461,0.51656
6324.35586,0.51456
6322.42712,0.51472
6320.49837,0.51605
6318.56963,0.51600
6316.64088,0.51467
6314.71214,0.51462
6312.78339,0.51682
6310.85465,0.51899
6308.92590,0.51902
6306.99715,0.51795
6305.06841,0.51780
6303.13966,0.51895
6301.21092,0.52084
6299.28217,0.52204
6297.35343,0.52061
6295.42468,0.51742
6293.49594,0.51622
6291.56719,0.51788
6289.63845,0.51918
6287.70970,0.51950
6285.78096,0.52145
6283.85221,0.52388
6281.92347,0.52359
6279.99472,0.52205
6278.06598,0.52193
6276.13723,0.52284
6274.20848,0.52324
6272.27974,0.52222
6270.35099,0.52042
6268.42225,0.51932
6266.49350,0.51952
6264.56476,0.52056
6262.63601,0.52103
6260.70727,0.52032
6258.77852,0.51996
6256.84978,0.52102
6254.92103,0.52179
6252.99229,0.52079
6251.06354,0.52012
6249.13480,0.52124
6247.20605,0.52214
6245.27730,0.52139
6243.34856,0.51962
6241.41981,0.51725
6239.49107,0.51533
6237.56232,0.51513
6235.63358,0.51549
6233.70483,0.51529
6231.77609,0.51563
6229.84734,0.51639
6227.91860,0.51664
6225.98985,0.51686
6224.06111,0.51745
6222.13236,0.51782
6220.20362,0.51739
6218.27487,0.51648
6216.34613,0.51636
6214.41738,0.51697
6212.48863,0.51743
6210.55989,0.51775
6208.63114,0.51724
6206.70240,0.51591
6204.77365,0.51572
6202.84491,0.51659
6200.91616,0.51623
6198.98742,0.51431
6197.05867,0.51293
6195.12993,0.51294
6193.20118,0.51323
6191.27244,0.51336
6189.34369,0.51349
6187.41495,0.51340
6185.48620,0.51325
6183.55746,0.51290
6181.62871,0.51175
6179.69996,0.51072
6177.77122,0.51142
6175.84247,0.51320
6173.91373,0.51400
6171.98498,0.51267
6170.05624,0.51003
6168.12749,0.50771
6166.19875,0.50626
6164.27000,0.50577
6162.34126,0.50592
6160.41251,0.50617
6158.48377,0.50576
6156.55502,0.50368
6154.62628,0.50192
6152.69753,0.50253
6150.76878,0.50289
6148.84004,0.50208
6146.91129,0.50247
6144.98255,0.50299
6143.05380,0.50172
6141.12506,0.49975
6139.19631,0.49741
6137.26757,0.49526
6135.33882,0.49511
6133.41008,0.49564
6131.48133,0.49468
6129.55259,0.49359
6127.62384,0.49405
6125.69510,0.49467
6123.76635,0.49376
6121.83761,0.49192
6119.90886,0.48985
6117.98011,0.48872
6116.05137,0.49019
6114.12262,0.49310
6112.19388,0.49443
6110.26513,0.49290
6108.33639,0.49021
6106.40764,0.48837
6104.47890,0.48728
6102.55015,0.48632
6100.62141,0.48606
6098.69266,0.48699
6096.76392,0.48766
6094.83517,0.48768
6092.90643,0.48898
6090.97768,0.49049
6089.04893,0.48900
6087.12019,0.48541
6085.19144,0.48313
6083.26270,0.48320
6081.33395,0.48477
6079.40521,0.48632
6077.47646,0.48632
6075.54772,0.48513
6073.61897,0.48426
6071.69023,0.48423
6069.76148,0.48451
6067.83274,0.48424
6065.90399,0.48301
6063.97525,0.48106
6062.04650,0.47920
6060.11776,0.47740
6058.18901,0.47503
6056.26026,0.47349
6054.33152,0.47325
6052.40277,0.47201
6050.47403,0.46978
6048.54528,0.46870
6046.61654,0.46830
6044.68779,0.46717
6042.75905,0.46624
6040.83030,0.46615
6038.90156,0.46520
6036.97281,0.46293
6035.04407,0.46098
6033.11532,0.46026
6031.18658,0.46025
6029.25783,0.45968
6027.32909,0.45841
6025.40034,0.45723
6023.47159,0.45564
6021.54285,0.45304
6019.61410,0.44981
6017.68536,0.44665
6015.75661,0.44467
6013.82787,0.44361
6011.89912,0.44224
6009.97038,0.44035
6008.04163,0.43822
6006.11289,0.43646
6004.18414,0.43502
6002.25540,0.43273
6000.32665,0.42998
5998.39791,0.42828
5996.46916,0.42720
5994.54041,0.42528
5992.61167,0.42281
5990.68292,0.42096
5988.75418,0.41908
5986.82543,0.41603
5984.89669,0.41270
5982.96794,0.40971
5981.03920,0.40599
5979.11045,0.40209
5977.18171,0.39926
5975.25296,0.39616
5973.32422,0.39158
5971.39547,0.38736
5969.46673,0.38463
5967.53798,0.38195
5965.60924,0.37855
5963.68049,0.37468
5961.75174,0.37054
5959.82300,0.36660
5957.89425,0.36265
5955.96551,0.35838
5954.03676,0.35485
5952.10802,0.35222
5950.17927,0.34855
5948.25053,0.34338
5946.32178,0.33816
5944.39304,0.33338
5942.46429,0.32863
5940.53555,0.32326
5938.60680,0.31742
5936.67806,0.31249
5934.74931,0.30856
5932.82057,0.30372
5930.89182,0.29713
5928.96307,0.28997
5927.03433,0.28279
5925.10558,0.27495
5923.17684,0.26696
5921.24809,0.25981
5919.31935,0.25287
5917.39060,0.24558
5915.46186,0.23889
5913.53311,0.23320
5911.60437,0.22757
5909.67562,0.22159
5907.74688,0.21610
5905.81813,0.21184
5903.88939,0.20881
5901.96064,0.20687
5900.03189,0.20529
5898.10315,0.20269
5896.17440,0.19890
5894.24566,0.19429
5892.31691,0.18869
5890.38817,0.18299
5888.45942,0.17782
5886.53068,0.17228
5884.60193,0.16649
5882.67319,0.16049
5880.74444,0.15365
5878.81570,0.14670
5876.88695,0.13971
5874.95821,0.13196
5873.02946,0.12506
5871.10072,0.12010
5869.17197,0.11523
5867.24322,0.10993
5865.31448,0.10515
5863.38573,0.09994
5861.45699,0.09395
5859.52824,0.08888
5857.59950,0.08510
5855.67075,0.08181
5853.74201,0.07915
5851.81326,0.07689
5849.88452,0.07386
5847.95577,0.07071
5846.02703,0.06882
5844.09828,0.06767
5842.16954,0.06633
5840.24079,0.06494
5838.31205,0.06424
5836.38330,0.06444
5834.45455,0.06467
5832.52581,0.06437
5830.59706,0.06381
5828.66832,0.06278
5826.73957,0.06153
5824.81083,0.06096
5822.88208,0.06104
5820.95334,0.06164
5819.02459,0.06217
5817.09585,0.06132
5815.16710,0.05926
5813.23836,0.05690
5811.30961,0.05508
5809.38087,0.05487
5807.45212,0.05574
5805.52337,0.05601
5803.59463,0.05527
5801.66588,0.05494
5799.73714,0.05573
5797.80839,0.05669
5795.87965,0.05738
5793.95090,0.05750
5792.02216,0.05657
5790.09341,0.05577
5788.16467,0.05611
5786.23592,0.05646
5784.30718,0.05617
5782.37843,0.05620
5780.44969,0.05705
5778.52094,0.05788
5776.59220,0.05757
5774.66345,0.05626
5772.73470,0.05550
5770.80596,0.05546
5768.87721,0.05464
5766.94847,0.05329
5765.01972,0.05309
5763.09098,0.05389
5761.16223,0.05471
5759.23349,0.05561
5757.30474,0.05665
5755.37600,0.05739
5753.44725,0.05782
5751.51851,0.05866
5749.58976,0.06007
5747.66102,0.06098
5745.73227,0.06101
5743.80352,0.06133
5741.87478,0.06229
5739.94603,0.06304
5738.01729,0.06338
5736.08854,0.06357
5734.15980,0.06377
5732.23105,0.06467
5730.30231,0.06632
5728.37356,0.06804
5726.44482,0.06988
5724.51607,0.07231
5722.58733,0.07510
5720.65858,0.07727
5718.72984,0.07805
5716.80109,0.07767
5714.87235,0.07683
5712.94360,0.07638
5711.01485,0.07629
5709.08611,0.07554
5707.15736,0.07396
5705.22862,0.07268
5703.29987,0.07178
5701.37113,0.07037
5699.44238,0.06852
5697.51364,0.06680
5695.58489,0.06588
5693.65615,0.06576
5691.72740,0.06559
5689.79866,0.06499
5687.86991,0.06405
5685.94117,0.06360
5684.01242,0.06378
5682.08368,0.06310
5680.15493,0.06162
5678.22618,0.06089
5676.29744,0.06102
5674.36869,0.06093
5672.43995,0.05980
5670.51120,0.05800
5668.58246,0.05671
5666.65371,0.05680
5664.72497,0.05763
5662.79622,0.05807
5660.86748,0.05828
5658.93873,0.05917
5657.00999,0.06075
5655.08124,0.06195
5653.15250,0.06242
5651.22375,0.06300
5649.29500,0.06426
5647.36626,0.06614
5645.43751,0.06824
5643.50877,0.07020
5641.58002,0.07175
5639.65128,0.07275
5637.72253,0.07391
5635.79379,0.07541
5633.86504,0.07623
5631.93630,0.07694
5630.00755,0.07888
5628.07881,0.08088
5626.15006,0.08179
5624.22132,0.08253
5622.29257,0.08316
5620.36383,0.08303
5618.43508,0.08282
5616.50633,0.08337
5614.57759,0.08452
5612.64884,0.08595
5610.72010,0.08760
5608.79135,0.08905
5606.86261,0.09006
5604.93386,0.09134
5603.00512,0.09281
5601.07637,0.09330
5599.14763,0.09298
5597.21888,0.09296
5595.29014,0.09393
5593.36139,0.09574
5591.43265,0.09706
5589.50390,0.09734
5587.57516,0.09742
5585.64641,0.09715
5583.71766,0.09622
5581.78892,0.09556
5579.86017,0.09527
5577.93143,0.09448
5576.00268,0.09282
5574.07394,0.09069
5572.14519,0.08901
5570.21645,0.08802
5568.28770,0.08724
5566.35896,0.08700
5564.43021,0.08776
5562.50147,0.08849
5560.57272,0.08797
5558.64398,0.08625
5556.71523,0.08449
5554.78648,0.08409
5552.85774,0.08491
5550.92899,0.08536
5549.00025,0.08488
5547.07150,0.08457
5545.14276,0.08537
5543.21401,0.08667
5541.28527,0.08738
5539.35652,0.08746
5537.42778,0.08712
5535.49903,0.08649
5533.57029,0.08644
5531.64154,0.08735
5529.71280,0.08809
5527.78405,0.08755
5525.85531,0.08638
5523.92656,0.08599
5521.99781,0.08663
5520.06907,0.08764
5518.14032,0.08820
5516.21158,0.08818
5514.28283,0.08840
5512.35409,0.08868
5510.42534,0.08866
5508.49660,0.08873
5506.56785,0.08880
5504.63911,0.08876
5502.71036,0.08852
5500.78162,0.08799
5498.85287,0.08738
5496.92413,0.08648
5494.99538,0.08549
5493.06664,0.08546
5491.13789,0.08675
5489.20914,0.08798
5487.28040,0.08764
5485.35165,0.08664
5483.42291,0.08679
5481.49416,0.08769
5479.56542,0.08788
5477.63667,0.08807
5475.70793,0.08962
5473.77918,0.09156
5471.85044,0.09245
5469.92169,0.09219
5467.99295,0.09165
5466.06420,0.09205
5464.13546,0.09348
5462.20671,0.09434
5460.27796,0.09411
5458.34922,0.09440
5456.42047,0.09567
5454.49173,0.09663
5452.56298,0.09700
5450.63424,0.09751
5448.70549,0.09828
5446.77675,0.09883
5444.84800,0.09906
5442.91926,0.09950
5440.99051,0.10007
5439.06177,0.10003
5437.13302,0.09981
5435.20428,0.10033
5433.27553,0.10112
5431.34679,0.10172
5429.41804,0.10261
5427.48929,0.10388
5425.56055,0.10508
5423.63180,0.10557
5421.70306,0.10537
5419.77431,0.10601
5417.84557,0.10814
5415.91682,0.11076
5413.98808,0.11316
5412.05933,0.11504
5410.13059,0.11599
5408.20184,0.11622
5406.27310,0.11669
5404.34435,0.11829
5402.41561,0.12054
5400.48686,0.12236
5398.55811,0.12356
5396.62937,0.12478
5394.70062,0.12633
5392.77188,0.12790
5390.84313,0.12920
5388.91439,0.13034
5386.98564,0.13153
5385.05690,0.13249
5383.12815,0.13327
5381.19941,0.13437
5379.27066,0.13546
5377.34192,0.13602
5375.41317,0.13633
5373.48443,0.13718
5371.55568,0.13882
5369.62694,0.14060
5367.69819,0.14192
5365.76944,0.14284
5363.84070,0.14383
5361.91195,0.14498
5359.98321,0.14597
5358.05446,0.14703
5356.12572,0.14858
5354.19697,0.15001
5352.26823,0.15113
5350.33948,0.15248
5348.41074,0.15378
5346.48199,0.15491
5344.55325,0.15636
5342.62450,0.15827
5340.69576,0.16034
5338.76701,0.16220
5336.83827,0.16373
5334.90952,0.16467
5332.98077,0.16518
5331.05203,0.16583
5329.12328,0.16643
5327.19454,0.16656
5325.26579,0.16631
5323.33705,0.16579
5321.40830,0.16486
5319.47956,0.16355
5317.55081,0.16227
5315.62207,0.16106
5313.69332,0.15983
5311.76458,0.15907
5309.83583,0.15892
5307.90709,0.15869
5305.97834,0.15836
5304.04959,0.15889
5302.12085,0.16024
5300.19210,0.16123
5298.26336,0.16154
5296.33461,0.16185
5294.40587,0.16234
5292.47712,0.16285
5290.54838,0.16344
5288.61963,0.16376
5286.69089,0.16324
5284.76214,0.16224
5282.83340,0.16165
5280.90465,0.16176
5278.97591,0.16230
5277.04716,0.16292
5275.11842,0.16329
5273.18967,0.16329
5271.26092,0.16305
5269.33218,0.16301
5267.40343,0.16345
5265.47469,0.16397
5263.54594,0.16398
5261.61720,0.16344
5259.68845,0.16312
5257.75971,0.16354
5255.83096,0.16383
5253.90222,0.16351
5251.97347,0.16343
5250.04473,0.16349
5248.11598,0.16310
5246.18724,0.16272
5244.25849,0.16269
5242.32975,0.16233
5240.40100,0.16111
5238.47225,0.16012
5236.54351,0.15998
5234.61476,0.15998
5232.68602,0.16016
5230.75727,0.16051
5228.82853,0.16046
5226.89978,0.16010
5224.97104,0.15951
5223.04229,0.15879
5221.11355,0.15856
5219.18480,0.15835
5217.25606,0.15768
5215.32731,0.15740
5213.39857,0.15755
5211.46982,0.15803
5209.54107,0.15920
5207.61233,0.16011
5205.68358,0.15987
5203.75484,0.15915
5201.82609,0.15893
5199.89735,0.15902
5197.96860,0.15866
5196.03986,0.15781
5194.11111,0.15725
5192.18237,0.15734
5190.25362,0.15758
5188.32488,0.15779
5186.39613,0.15839
5184.46739,0.15919
5182.53864,0.15955
5180.60990,0.15951
5178.68115,0.15948
5176.75240,0.15941
5174.82366,0.15930
5172.89491,0.15940
5170.96617,0.15976
5169.03742,0.16025
5167.10868,0.16049
5165.17993,0.16043
5163.25119,0.16029
5161.32244,0.16020
5159.39370,0.16032
5157.46495,0.16074
5155.53621,0.16148
5153.60746,0.16250
5151.67872,0.16348
5149.74997,0.16385
5147.82123,0.16340
5145.89248,0.16332
5143.96373,0.16440
5142.03499,0.16574
5140.10624,0.16673
5138.17750,0.16735
5136.24875,0.16740
5134.32001,0.16724
5132.39126,0.16749
5130.46252,0.16791
5128.53377,0.16800
5126.60503,0.16776
5124.67628,0.16726
5122.74754,0.16647
5120.81879,0.16579
5118.89005,0.16561
5116.96130,0.16584
5115.03255,0.16569
5113.10381,0.16472
5111.17506,0.16371
5109.24632,0.16307
5107.31757,0.16271
5105.38883,0.16258
5103.46008,0.16235
5101.53134,0.16226
5099.60259,0.16270
5097.67385,0.16333
5095.74510,0.16384
5093.81636,0.16397
5091.88761,0.16373
5089.95887,0.16391
5088.03012,0.16476
5086.10138,0.16559
5084.17263,0.16646
5082.24388,0.16739
5080.31514,0.16776
5078.38639,0.16774
5076.45765,0.16799
5074.52890,0.16844
5072.60016,0.16845
5070.67141,0.16820
5068.74267,0.16839
5066.81392,0.16880
5064.88518,0.16877
5062.95643,0.16868
5061.02769,0.16905
5059.09894,0.16930
5057.17020,0.16934
5055.24145,0.16996
5053.31270,0.17102
5051.38396,0.17178
5049.45521,0.17222
5047.52647,0.17260
5045.59772,0.17292
5043.66898,0.17319
5041.74023,0.17341
5039.81149,0.17357
5037.88274,0.17348
5035.95400,0.17301
5034.02525,0.17257
5032.09651,0.17236
5030.16776,0.17197
5028.23902,0.17136
5026.31027,0.17095
5024.38153,0.17065
5022.45278,0.17014
5020.52403,0.16959
5018.59529,0.16917
5016.66654,0.16885
5014.73780,0.16853
5012.80905,0.16824
5010.88031,0.16810
5008.95156,0.16787
5007.02282,0.16733
5005.09407,0.16688
5003.16533,0.16629
5001.23658,0.16470
4999.30784,0.16253
4997.37909,0.16102
4995.45035,0.15992
4993.52160,0.15829
4991.59286,0.15649
4989.66411,0.15519
4987.73536,0.15417
4985.80662,0.15310
4983.87787,0.15213
4981.94913,0.15121
4980.02038,0.15035
4978.09164,0.14974
4976.16289,0.14900
4974.23415,0.14794
4972.30540,0.14688
4970.37666,0.14554
4968.44791,0.14393
4966.51917,0.14298
4964.59042,0.14320
4962.66168,0.14446
4960.73293,0.14656
4958.80418,0.14948
4956.87544,0.15299
4954.94669,0.15652
4953.01795,0.15964
4951.08920,0.16220
4949.16046,0.16405
4947.23171,0.16532
4945.30297,0.16657
4943.37422,0.16806
4941.44548,0.16912
4939.51673,0.16930
4937.58799,0.16931
4935.65924,0.16978
4933.73050,0.17033
4931.80175,0.17070
4929.87301,0.17132
4927.94426,0.17197
4926.01551,0.17210
4924.08677,0.17206
4922.15802,0.17202
4920.22928,0.17196
4918.30053,0.17206
4916.37179,0.17211
4914.44304,0.17205
4912.51430,0.17218
4910.58555,0.17235
4908.65681,0.17187
4906.72806,0.17108
4904.79932,0.17104
4902.87057,0.17143
4900.94183,0.17138
4899.01308,0.17106
4897.08434,0.17058
4895.15559,0.16990
4893.22684,0.16938
4891.29810,0.16889
4889.36935,0.16829
4887.44061,0.16809
4885.51186,0.16805
4883.58312,0.16764
4881.65437,0.16720
4879.72563,0.16693
4877.79688,0.16670
4875.86814,0.16617
4873.93939,0.16534
4872.01065,0.16474
4870.08190,0.16452
4868.15316,0.16456
4866.22441,0.16512
4864.29566,0.16638
4862.36692,0.16770
4860.43817,0.16835
4858.50943,0.16898
4856.58068,0.17062
4854.65194,0.17304
4852.72319,0.17548
4850.79445,0.17765
4848.86570,0.17928
4846.93696,0.18051
4845.00821,0.18197
4843.07947,0.18396
4841.15072,0.18596
4839.22198,0.18759
4837.29323,0.18910
4835.36449,0.19045
4833.43574,0.19148
4831.50699,0.19272
4829.57825,0.19445
4827.64950,0.19624
4825.72076,0.19775
4823.79201,0.19899
4821.86327,0.20010
4819.93452,0.20138
4818.00578,0.20315
4816.07703,0.20495
4814.14829,0.20611
4812.21954,0.20701
4810.29080,0.20827
4808.36205,0.20987
4806.43331,0.21171
4804.50456,0.21340
4802.57582,0.21445
4800.64707,0.21504
4798.71832,0.21568
4796.78958,0.21655
4794.86083,0.21734
4792.93209,0.21788
4791.00334,0.21811
4789.07460,0.21788
4787.14585,0.21787
4785.21711,0.21873
4783.28836,0.22007
4781.35962,0.22151
4779.43087,0.22303
4777.50213,0.22419
4775.57338,0.22475
4773.64464,0.22550
4771.71589,0.22695
4769.78714,0.22858
4767.85840,0.22994
4765.92965,0.23123
4764.00091,0.23254
4762.07216,0.23377
4760.14342,0.23488
4758.21467,0.23594
4756.28593,0.23710
4754.35718,0.23830
4752.42844,0.23911
4750.49969,0.23957
4748.57095,0.24024
4746.64220,0.24116
4744.71346,0.24190
4742.78471,0.24254
4740.85597,0.24336
4738.92722,0.24411
4736.99847,0.24447
4735.06973,0.24458
4733.14098,0.24501
4731.21224,0.24595
4729.28349,0.24700
4727.35475,0.24781
4725.42600,0.24836
4723.49726,0.24882
4721.56851,0.24980
4719.63977,0.25161
4717.71102,0.25326
4715.78228,0.25413
4713.85353,0.25496
4711.92479,0.25625
4709.99604,0.25751
4708.06729,0.25826
4706.13855,0.25869
4704.20980,0.25913
4702.28106,0.25961
4700.35231,0.26004
4698.42357,0.26009
4696.49482,0.25961
4694.56608,0.25888
4692.63733,0.25836
4690.70859,0.25827
4688.77984,0.25844
4686.85110,0.25840
4684.92235,0.25760
4682.99361,0.25590
4681.06486,0.25394
4679.13612,0.25229
4677.20737,0.25061
4675.27862,0.24848
4673.34988,0.24602
4671.42113,0.24367
4669.49239,0.24212
4667.56364,0.24182
4665.63490,0.24243
4663.70615,0.24334
4661.77741,0.24459
4659.84866,0.24635
4657.91992,0.24825
4655.99117,0.24999
4654.06243,0.25157
4652.13368,0.25279
4650.20494,0.25332
4648.27619,0.25310
4646.34745,0.25275
4644.41870,0.25302
4642.48995,0.25354
4640.56121,0.25362
4638.63246,0.25349
4636.70372,0.25334
4634.77497,0.25301
4632.84623,0.25269
4630.91748,0.25257
4628.98874,0.25228
4627.05999,0.25127
4625.13125,0.24975
4623.20250,0.24835
4621.27376,0.24751
4619.34501,0.24730
4617.41627,0.24711
4615.48752,0.24621
4613.55877,0.24482
4611.63003,0.24368
4609.70128,0.24291
4607.77254,0.24223
4605.84379,0.24153
4603.91505,0.24095
4601.98630,0.24054
4600.05756,0.23987
4598.12881,0.23906
4596.20007,0.23829
4594.27132,0.23722
4592.34258,0.23594
4590.41383,0.23476
4588.48509,0.23388
4586.55634,0.23336
4584.62760,0.23271
4582.69885,0.23143
4580.77010,0.22962
4578.84136,0.22794
4576.91261,0.22669
4574.98387,0.22546
4573.05512,0.22413
4571.12638,0.22289
4569.19763,0.22161
4567.26889,0.22004
4565.34014,0.21798
4563.41140,0.21565
4561.48265,0.21343
4559.55391,0.21143
4557.62516,0.20953
4555.69642,0.20743
4553.76767,0.20497
4551.83893,0.20265
4549.91018,0.20070
4547.98143,0.19864
4546.05269,0.19644
4544.12394,0.19464
4542.19520,0.19297
4540.26645,0.19083
4538.33771,0.18843
4536.40896,0.18624
4534.48022,0.18428
4532.55147,0.18234
4530.62273,0.18036
4528.69398,0.17838
4526.76524,0.17629
4524.83649,0.17395
4522.90775,0.17154
4520.97900,0.16952
4519.05025,0.16802
4517.12151,0.16667
4515.19276,0.16493
4513.26402,0.16263
4511.33527,0.16006
4509.40653,0.15743
4507.47778,0.15482
4505.54904,0.15214
4503.62029,0.14951
4501.69155,0.14715
4499.76280,0.14484
4497.83406,0.14233
4495.90531,0.13989
4493.97657,0.13787
4492.04782,0.13591
4490.11908,0.13369
4488.19033,0.13149
4486.26158,0.12929
4484.33284,0.12697
4482.40409,0.12484
4480.47535,0.12283
4478.54660,0.12057
4476.61786,0.11821
4474.68911,0.11593
4472.76037,0.11361
4470.83162,0.11132
4468.90288,0.10940
4466.97413,0.10778
4465.04539,0.10593
4463.11664,0.10369
4461.18790,0.10141
4459.25915,0.09927
4457.33041,0.09710
4455.40166,0.09474
4453.47291,0.09238
4451.54417,0.09024
4449.61542,0.08823
4447.68668,0.08608
4445.75793,0.08386
4443.82919,0.08184
4441.90044,0.07986
4439.97170,0.07789
4438.04295,0.07629
4436.11421,0.07502
4434.18546,0.07368
4432.25672,0.07192
4430.32797,0.06986
4428.39923,0.06807
4426.47048,0.06686
4424.54173,0.06582
4422.61299,0.06466
4420.68424,0.06386
4418.75550,0.06342
4416.82675,0.06278
4414.89801,0.06181
4412.96926,0.06068
4411.04052,0.05942
4409.11177,0.05849
4407.18303,0.05806
4405.25428,0.05766
4403.32554,0.05724
4401.39679,0.05725
4399.46805,0.05758
4397.53930,0.05781
4395.61056,0.05783
4393.68181,0.05771
4391.75306,0.05752
4389.82432,0.05730
4387.89557,0.05711
4385.96683,0.05699
4384.03808,0.05687
4382.10934,0.05664
4380.18059,0.05647
4378.25185,0.05653
4376.32310,0.05672
4374.39436,0.05679
4372.46561,0.05659
4370.53687,0.05638
4368.60812,0.05643
4366.67938,0.05653
4364.75063,0.05649
4362.82189,0.05631
4360.89314,0.05621
4358.96439,0.05642
4357.03565,0.05672
4355.10690,0.05674
4353.17816,0.05666
4351.24941,0.05678
4349.32067,0.05678
4347.39192,0.05659
4345.46318,0.05659
4343.53443,0.05672
4341.60569,0.05680
4339.67694,0.05677
4337.74820,0.05650
4335.81945,0.05624
4333.89071,0.05619
4331.96196,0.05624
4330.03321,0.05623
4328.10447,0.05619
4326.17572,0.05635
4324.24698,0.05676
4322.31823,0.05710
4320.38949,0.05719
4318.46074,0.05717
4316.53200,0.05717
4314.60325,0.05725
4312.67451,0.05724
4310.74576,0.05698
4308.81702,0.05674
4306.88827,0.05685
4304.95953,0.05707
4303.03078,0.05707
4301.10204,0.05688
4299.17329,0.05674
4297.24454,0.05680
4295.31580,0.05702
4293.38705,0.05696
4291.45831,0.05661
4289.52956,0.05653
4287.60082,0.05688
4285.67207,0.05723
4283.74333,0.05725
4281.81458,0.05714
4279.88584,0.05705
4277.95709,0.05699
4276.02835,0.05709
4274.09960,0.05730
4272.17086,0.05725
4270.24211,0.05688
4268.31336,0.05666
4266.38462,0.05687
4264.45587,0.05709
4262.52713,0.05700
4260.59838,0.05692
4258.66964,0.05706
4256.74089,0.05705
4254.81215,0.05662
4252.88340,0.05603
4250.95466,0.05580
4249.02591,0.05596
4247.09717,0.05630
4245.16842,0.05665
4243.23968,0.05686
4241.31093,0.05707
4239.38219,0.05723
4237.45344,0.05711
4235.52469,0.05671
4233.59595,0.05615
4231.66720,0.05589
4229.73846,0.05628
4227.80971,0.05686
4225.88097,0.05707
4223.95222,0.05689
4222.02348,0.05653
4220.09473,0.05608
4218.16599,0.05580
4216.23724,0.05602
4214.30850,0.05643
4212.37975,0.05645
4210.45101,0.05618
4208.52226,0.05599
4206.59352,0.05616
4204.66477,0.05691
4202.73602,0.05757
4200.80728,0.05745
4198.87853,0.05705
4196.94979,0.05689
4195.02104,0.05673
4193.09230,0.05646
4191.16355,0.05642
4189.23481,0.05682
4187.30606,0.05699
4185.37732,0.05660
4183.44857,0.05625
4181.51983,0.05605
4179.59108,0.05578
4177.66234,0.05577
4175.73359,0.05595
4173.80484,0.05607
4171.87610,0.05634
4169.94735,0.05676
4168.01861,0.05711
4166.08986,0.05728
4164.16112,0.05716
4162.23237,0.05677
4160.30363,0.05627
4158.37488,0.05608
4156.44614,0.05644
4154.51739,0.05677
4152.58865,0.05674
4150.65990,0.05678
4148.73116,0.05711
4146.80241,0.05728
4144.87367,0.05694
4142.94492,0.05652
4141.01617,0.05647
4139.08743,0.05683
4137.15868,0.05734
4135.22994,0.05753
4133.30119,0.05723
4131.37245,0.05686
4129.44370,0.05665
4127.51496,0.05652
4125.58621,0.05650
4123.65747,0.05638
4121.72872,0.05602
4119.79998,0.05592
4117.87123,0.05614
4115.94249,0.05617
4114.01374,0.05618
4112.08500,0.05652
4110.15625,0.05690
4108.22750,0.05696
4106.29876,0.05672
4104.37001,0.05648
4102.44127,0.05640
4100.51252,0.05640
4098.58378,0.05653
4096.65503,0.05681
4094.72629,0.05703
4092.79754,0.05701
4090.86880,0.05681
4088.94005,0.05665
4087.01131,0.05672
4085.08256,0.05692
4083.15382,0.05694
4081.22507,0.05668
4079.29632,0.05634
4077.36758,0.05623
4075.43883,0.05631
4073.51009,0.05648
4071.58134,0.05669
4069.65260,0.05686
4067.72385,0.05694
4065.79511,0.05689
4063.86636,0.05669
4061.93762,0.05648
4060.00887,0.05635
4058.08013,0.05616
4056.15138,0.05592
4054.22264,0.05606
4052.29389,0.05666
4050.36515,0.05731
4048.43640,0.05758
4046.50765,0.05748
4044.57891,0.05726
4042.65016,0.05699
4040.72142,0.05658
4038.79267,0.05627
4036.86393,0.05640
4034.93518,0.05684
4033.00644,0.05701
4031.07769,0.05683
4029.14895,0.05679
4027.22020,0.05706
4025.29146,0.05727
4023.36271,0.05719
4021.43397,0.05706
4019.50522,0.05696
4017.57648,0.05681
4015.64773,0.05680
4013.71898,0.05703
4011.79024,0.05700
4009.86149,0.05662
4007.93275,0.05653
4006.00400,0.05689
4004.07526,0.05721
4002.14651,0.05728
4000.21777,0.05732
3998.28902,0.05733
3996.36028,0.05730
3994.43153,0.05737
3992.50279,0.05742
3990.57404,0.05727
3988.64530,0.05710
3986.71655,0.05693
3984.78780,0.05669
3982.85906,0.05651
3980.93031,0.05651
3979.00157,0.05682
3977.07282,0.05743
3975.14408,0.05783
3973.21533,0.05768
3971.28659,0.05726
3969.35784,0.05702
3967.42910,0.05726
3965.50035,0.05767
3963.57161,0.05774
3961.64286,0.05754
3959.71412,0.05735
3957.78537,0.05738
3955.85663,0.05759
3953.92788,0.05772
3951.99913,0.05758
3950.07039,0.05726
3948.14164,0.05706
3946.21290,0.05694
3944.28415,0.05684
3942.35541,0.05688
3940.42666,0.05694
3938.49792,0.05692
3936.56917,0.05702
3934.64043,0.05720
3932.71168,0.05729
3930.78294,0.05739
3928.85419,0.05747
3926.92545,0.05735
3924.99670,0.05723
3923.06795,0.05720
3921.13921,0.05712
3919.21046,0.05705
3917.28172,0.05705
3915.35297,0.05716
3913.42423,0.05741
3911.49548,0.05764
3909.56674,0.05757
3907.63799,0.05720
3905.70925,0.05690
3903.78050,0.05701
3901.85176,0.05731
3899.92301,0.05737
3897.99427,0.05727
3896.06552,0.05736
3894.13678,0.05759
3892.20803,0.05764
3890.27928,0.05738
3888.35054,0.05713
3886.42179,0.05708
3884.49305,0.05713
3882.56430,0.05718
3880.63556,0.05724
3878.70681,0.05729
3876.77807,0.05722
3874.84932,0.05700
3872.92058,0.05694
3870.99183,0.05699
3869.06309,0.05678
3867.13434,0.05671
3865.20560,0.05697
3863.27685,0.05702
3861.34811,0.05689
3859.41936,0.05703
3857.49061,0.05730
3855.56187,0.05747
3853.63312,0.05759
3851.70438,0.05769
3849.77563,0.05770
3847.84689,0.05770
3845.91814,0.05761
3843.98940,0.05731
3842.06065,0.05708
3840.13191,0.05716
3838.20316,0.05727
3836.27442,0.05713
3834.34567,0.05692
3832.41693,0.05677
3830.48818,0.05670
3828.55943,0.05680
3826.63069,0.05711
3824.70194,0.05758
3822.77320,0.05802
3820.84445,0.05814
3818.91571,0.05798
3816.98696,0.05761
3815.05822,0.05704
3813.12947,0.05678
3811.20073,0.05710
3809.27198,0.05746
3807.34324,0.05741
3805.41449,0.05714
3803.48575,0.05717
3801.55700,0.05761
3799.62826,0.05797
3797.69951,0.05774
3795.77076,0.05730
3793.84202,0.05726
3791.91327,0.05753
3789.98453,0.05771
3788.05578,0.05767
3786.12704,0.05756
3784.19829,0.05761
3782.26955,0.05775
3780.34080,0.05770
3778.41206,0.05737
3776.48331,0.05722
3774.55457,0.05752
3772.62582,0.05787
3770.69708,0.05796
3768.76833,0.05783
3766.83959,0.05767
3764.91084,0.05767
3762.98209,0.05772
3761.05335,0.05766
3759.12460,0.05747
3757.19586,0.05744
3755.26711,0.05757
3753.33837,0.05756
3751.40962,0.05737
3749.48088,0.05734
3747.55213,0.05756
3745.62339,0.05774
3743.69464,0.05766
3741.76590,0.05756
3739.83715,0.05762
3737.90841,0.05759
3735.97966,0.05734
3734.05091,0.05723
3732.12217,0.05740
3730.19342,0.05764
3728.26468,0.05798
3726.33593,0.05829
3724.40719,0.05833
3722.47844,0.05818
3720.54970,0.05780
3718.62095,0.05744
3716.69221,0.05750
3714.76346,0.05776
3712.83472,0.05782
3710.90597,0.05774
3708.97723,0.05762
3707.04848,0.05743
3705.11974,0.05718
3703.19099,0.05684
3701.26224,0.05667
3699.33350,0.05694
3697.40475,0.05737
3695.47601,0.05764
3693.54726,0.05754
3691.61852,0.05706
3689.68977,0.05673
3687.76103,0.05695
3685.83228,0.05742
3683.90354,0.05771
3681.97479,0.05758
3680.04605,0.05724
3678.11730,0.05723
3676.18856,0.05754
3674.25981,0.05771
3672.33107,0.05763
3670.40232,0.05740
3668.47357,0.05725
3666.54483,0.05732
3664.61608,0.05733
3662.68734,0.05720
3660.75859,0.05701
3658.82985,0.05678
3656.90110,0.05665
3654.97236,0.05667
3653.04361,0.05691
3651.11487,0.05727
3649.18612,0.05735
3647.25738,0.05691
3645.32863,0.05650
3643.39989,0.05658
3641.47114,0.05698
3639.54239,0.05737
3637.61365,0.05747
3635.68490,0.05716
3633.75616,0.05664
3631.82741,0.05635
3629.89867,0.05664
3627.96992,0.05725
3626.04118,0.05754
3624.11243,0.05745
3622.18369,0.05724
3620.25494,0.05708
3618.32620,0.05697
3616.39745,0.05678
3614.46871,0.05658
3612.53996,0.05643
3610.61122,0.05636
3608.68247,0.05642
3606.75372,0.05645
3604.82498,0.05616
3602.89623,0.05572
3600.96749,0.05561
3599.03874,0.05596
3597.11000,0.05637
3595.18125,0.05654
3593.25251,0.05647
3591.32376,0.05629
3589.39502,0.05628
3587.46627,0.05659
3585.53753,0.05700
3583.60878,0.05731
3581.68004,0.05739
3579.75129,0.05722
3577.82254,0.05714
3575.89380,0.05711
3573.96505,0.05686
3572.03631,0.05678
3570.10756,0.05709
3568.17882,0.05733
3566.25007,0.05750
3564.32133,0.05778
3562.39258,0.05801
3560.46384,0.05817
3558.53509,0.05837
3556.60635,0.05845
3554.67760,0.05835
3552.74886,0.05841
3550.82011,0.05887
3548.89137,0.05929
3546.96262,0.05921
3545.03387,0.05890
3543.10513,0.05885
3541.17638,0.05903
3539.24764,0.05934
3537.31889,0.05974
3535.39015,0.05995
3533.46140,0.05988
3531.53266,0.05977
3529.60391,0.05967
3527.67517,0.05958
3525.74642,0.05964
3523.81768,0.05981
3521.88893,0.06014
3519.96019,0.06056
3518.03144,0.06071
3516.10270,0.06049
3514.17395,0.06017
3512.24520,0.05987
3510.31646,0.05971
3508.38771,0.05968
3506.45897,0.05960
3504.53022,0.05950
3502.60148,0.05944
3500.67273,0.05942
3498.74399,0.05940
3496.81524,0.05940
3494.88650,0.05932
3492.95775,0.05911
3491.02901,0.05903
3489.10026,0.05921
3487.17152,0.05933
3485.24277,0.05923
3483.31402,0.05898
3481.38528,0.05866
3479.45653,0.05835
3477.52779,0.05800
3475.59904,0.05770
3473.67030,0.05779
3471.74155,0.05810
3469.81281,0.05829
3467.88406,0.05829
3465.95532,0.05797
3464.02657,0.05760
3462.09783,0.05751
3460.16908,0.05748
3458.24034,0.05728
3456.31159,0.05711
3454.38285,0.05709
3452.45410,0.05706
3450.52535,0.05689
3448.59661,0.05664
3446.66786,0.05651
3444.73912,0.05665
3442.81037,0.05683
3440.88163,0.05673
3438.95288,0.05647
3437.02414,0.05621
3435.09539,0.05607
3433.16665,0.05622
3431.23790,0.05653
3429.30916,0.05657
3427.38041,0.05623
3425.45167,0.05591
3423.52292,0.05606
3421.59418,0.05645
3419.66543,0.05656
3417.73668,0.05656
3415.80794,0.05678
3413.87919,0.05678
3411.95045,0.05623
3410.02170,0.05574
3408.09296,0.05586
3406.16421,0.05626
3404.23547,0.05647
3402.30672,0.05648
3400.37798,0.05624
3398.44923,0.05591
3396.52049,0.05590
3394.59174,0.05617
3392.66300,0.05625
3390.73425,0.05602
3388.80550,0.05580
3386.87676,0.05569
3384.94801,0.05563
3383.01927,0.05573
3381.09052,0.05593
3379.16178,0.05613
3377.23303,0.05630
3375.30429,0.05617
3373.37554,0.05571
3371.44680,0.05536
3369.51805,0.05530
3367.58931,0.05519
3365.66056,0.05498
3363.73182,0.05502
3361.80307,0.05534
3359.87433,0.05561
3357.94558,0.05572
3356.01683,0.05573
3354.08809,0.05566
3352.15934,0.05565
3350.23060,0.05571
3348.30185,0.05569
3346.37311,0.05567
3344.44436,0.05586
3342.51562,0.05613
3340.58687,0.05638
3338.65813,0.05648
3336.72938,0.05624
3334.80064,0.05596
3332.87189,0.05596
3330.94315,0.05609
3329.01440,0.05617
3327.08566,0.05616
3325.15691,0.05618
3323.22816,0.05636
3321.29942,0.05646
3319.37067,0.05633
3317.44193,0.05635
3315.51318,0.05647
3313.58444,0.05618
3311.65569,0.05586
3309.72695,0.05602
3307.79820,0.05626
3305.86946,0.05624
3303.94071,0.05618
3302.01197,0.05620
3300.08322,0.05612
3298.15448,0.05591
3296.22573,0.05570
3294.29698,0.05561
3292.36824,0.05581
3290.43949,0.05629
3288.51075,0.05672
3286.58200,0.05678
3284.65326,0.05645
3282.72451,0.05615
3280.79577,0.05625
3278.86702,0.05656
3276.93828,0.05668
3275.00953,0.05657
3273.08079,0.05625
3271.15204,0.05592
3269.22330,0.05579
3267.29455,0.05573
3265.36581,0.05580
3263.43706,0.05605
3261.50831,0.05624
3259.57957,0.05617
3257.65082,0.05588
3255.72208,0.05579
3253.79333,0.05613
3251.86459,0.05648
3249.93584,0.05645
3248.00710,0.05621
3246.07835,0.05600
3244.14961,0.05583
3242.22086,0.05577
3240.29212,0.05590
3238.36337,0.05603
3236.43463,0.05586
3234.50588,0.05544
3232.57713,0.05507
3230.64839,0.05498
3228.71964,0.05522
3226.79090,0.05546
3224.86215,0.05545
3222.93341,0.05541
3221.00466,0.05548
3219.07592,0.05540
3217.14717,0.05506
3215.21843,0.05476
3213.28968,0.05465
3211.36094,0.05473
3209.43219,0.05501
3207.50345,0.05527
3205.57470,0.05538
3203.64596,0.05547
3201.71721,0.05544
3199.78846,0.05509
3197.85972,0.05465
3195.93097,0.05437
3194.00223,0.05415
3192.07348,0.05413
3190.14474,0.05460
3188.21599,0.05505
3186.28725,0.05505
3184.35850,0.05500
3182.42976,0.05518
3180.50101,0.05520
3178.57227,0.05481
3176.64352,0.05438
3174.71478,0.05434
3172.78603,0.05464
3170.85729,0.05479
3168.92854,0.05458
3166.99979,0.05439
3165.07105,0.05433
3163.14230,0.05423
3161.21356,0.05424
3159.28481,0.05455
3157.35607,0.05490
3155.42732,0.05489
3153.49858,0.05468
3151.56983,0.05462
3149.64109,0.05460
3147.71234,0.05449
3145.78360,0.05434
3143.85485,0.05415
3141.92611,0.05405
3139.99736,0.05418
3138.06861,0.05428
3136.13987,0.05413
3134.21112,0.05396
3132.28238,0.05395
3130.35363,0.05380
3128.42489,0.05345
3126.49614,0.05332
3124.56740,0.05342
3122.63865,0.05342
3120.70991,0.05333
3118.78116,0.05318
3116.85242,0.05297
3114.92367,0.05293
3112.99493,0.05312
3111.06618,0.05339
3109.13744,0.05368
3107.20869,0.05379
3105.27994,0.05365
3103.35120,0.05342
3101.42245,0.05326
3099.49371,0.05316
3097.56496,0.05305
3095.63622,0.05295
3093.70747,0.05282
3091.77873,0.05261
3089.84998,0.05251
3087.92124,0.05277
3085.99249,0.05310
3084.06375,0.05307
3082.13500,0.05287
3080.20626,0.05279
3078.27751,0.05266
3076.34877,0.05231
3074.42002,0.05208
3072.49127,0.05205
3070.56253,0.05197
3068.63378,0.05195
3066.70504,0.05207
3064.77629,0.05201
3062.84755,0.05177
3060.91880,0.05175
3058.99006,0.05212
3057.06131,0.05241
3055.13257,0.05229
3053.20382,0.05199
3051.27508,0.05176
3049.34633,0.05164
3047.41759,0.05171
3045.48884,0.05180
3043.56009,0.05177
3041.63135,0.05160
3039.70260,0.05136
3037.77386,0.05127
3035.84511,0.05131
3033.91637,0.05131
3031.98762,0.05133
3030.05888,0.05136
3028.13013,0.05122
3026.20139,0.05092
3024.27264,0.05062
3022.34390,0.05047
3020.41515,0.05050
3018.48641,0.05054
3016.55766,0.05039
3014.62892,0.05010
3012.70017,0.04987
3010.77142,0.04975
3008.84268,0.04965
3006.91393,0.04961
3004.98519,0.04965
3003.05644,0.04976
3001.12770,0.04974
2999.19895,0.04950
2997.27021,0.04920
2995.34146,0.04881
2993.41272,0.04830
2991.48397,0.04789
2989.55523,0.04771
2987.62648,0.04761
2985.69774,0.04751
2983.76899,0.04739
2981.84025,0.04710
2979.91150,0.04686
2977.98275,0.04677
2976.05401,0.04649
2974.12526,0.04613
2972.19652,0.04589
2970.26777,0.04548
2968.33903,0.04489
2966.41028,0.04454
2964.48154,0.04444
2962.55279,0.04432
2960.62405,0.04410
2958.69530,0.04385
2956.76656,0.04358
2954.83781,0.04320
2952.90907,0.04271
2950.98032,0.04212
2949.05157,0.04133
2947.12283,0.04040
2945.19408,0.03953
2943.26534,0.03860
2941.33659,0.03739
2939.40785,0.03627
2937.47910,0.03570
2935.55036,0.03557
2933.62161,0.03569
2931.69287,0.03625
2929.76412,0.03760
2927.83538,0.04002
2925.90663,0.04388
2923.97789,0.04951
2922.04914,0.05708
2920.12040,0.06612
2918.19165,0.07505
2916.26290,0.08131
2914.33416,0.08297
2912.40541,0.08103
2910.47667,0.07799
2908.54792,0.07512
2906.61918,0.07258
2904.69043,0.07048
2902.76169,0.06887
2900.83294,0.06764
2898.90420,0.06667
2896.97545,0.06593
2895.04671,0.06542
2893.11796,0.06491
2891.18922,0.06429
2889.26047,0.06373
2887.33172,0.06325
2885.40298,0.06272
2883.47423,0.06206
2881.54549,0.06135
2879.61674,0.06076
2877.68800,0.06022
2875.75925,0.05950
2873.83051,0.05866
2871.90176,0.05781
2869.97302,0.05685
2868.04427,0.05573
2866.11553,0.05445
2864.18678,0.05297
2862.25804,0.05167
2860.32929,0.05084
2858.40055,0.05040
2856.47180,0.05062
2854.54305,0.05240
2852.61431,0.05700
2850.68556,0.06481
2848.75682,0.07330
2846.82807,0.07841
2844.89933,0.07885
2842.97058,0.07682
2841.04184,0.07439
2839.11309,0.07228
2837.18435,0.07069
2835.25560,0.06948
2833.32686,0.06850
2831.39811,0.06778
2829.46937,0.06724
2827.54062,0.06666
2825.61188,0.06605
2823.68313,0.06551
2821.75438,0.06507
2819.82564,0.06467
2817.89689,0.06419
2815.96815,0.06383
2814.03940,0.06383
2812.11066,0.06385
2810.18191,0.06354
2808.25317,0.06303
2806.32442,0.06252
2804.39568,0.06216
2802.46693,0.06204
2800.53819,0.06210
2798.60944,0.06222
2796.68070,0.06225
2794.75195,0.06208
2792.82320,0.06190
2790.89446,0.06189
2788.96571,0.06184
2787.03697,0.06156
2785.10822,0.06119
2783.17948,0.06097
2781.25073,0.06096
2779.32199,0.06103
2777.39324,0.06107
2775.46450,0.06117
2773.53575,0.06125
2771.60701,0.06120
2769.67826,0.06110
2767.74952,0.06097
2765.82077,0.06074
2763.89203,0.06050
2761.96328,0.06033
2760.03453,0.06023
2758.10579,0.06016
2756.17704,0.06018
2754.24830,0.06036
2752.31955,0.06058
2750.39081,0.06059
2748.46206,0.06042
2746.53332,0.06023
2744.60457,0.06004
2742.67583,0.05984
2740.74708,0.05979
2738.81834,0.05993
2736.88959,0.06008
2734.96085,0.06001
2733.03210,0.05976
2731.10336,0.05957
2729.17461,0.05947
2727.24586,0.05937
2725.31712,0.05926
2723.38837,0.05928
2721.45963,0.05939
2719.53088,0.05941
2717.60214,0.05943
2715.67339,0.05952
2713.74465,0.05952
2711.81590,0.05940
2709.88716,0.05926
2707.95841,0.05911
2706.02967,0.05897
2704.10092,0.05905
2702.17218,0.05932
2700.24343,0.05942
2698.31468,0.05920
2696.38594,0.05889
2694.45719,0.05865
2692.52845,0.05852
2690.59970,0.05861
2688.67096,0.05880
2686.74221,0.05882
2684.81347,0.05867
2682.88472,0.05859
2680.95598,0.05867
2679.02723,0.05893
2677.09849,0.05932
2675.16974,0.05953
2673.24100,0.05936
2671.31225,0.05904
2669.38351,0.05877
2667.45476,0.05867
2665.52601,0.05869
2663.59727,0.05867
2661.66852,0.05862
2659.73978,0.05856
2657.81103,0.05847
2655.88229,0.05834
2653.95354,0.05824
2652.02480,0.05831
2650.09605,0.05855
2648.16731,0.05875
2646.23856,0.05882
2644.30982,0.05876
2642.38107,0.05867
2640.45233,0.05857
2638.52358,0.05844
2636.59484,0.05842
2634.66609,0.05845
2632.73734,0.05847
2630.80860,0.05857
2628.87985,0.05874
2626.95111,0.05885
2625.02236,0.05884
2623.09362,0.05872
2621.16487,0.05863
2619.23613,0.05864
2617.30738,0.05861
2615.37864,0.05853
2613.44989,0.05850
2611.52115,0.05858
2609.59240,0.05876
2607.66366,0.05885
2605.73491,0.05864
2603.80616,0.05835
2601.87742,0.05826
2599.94867,0.05836
2598.01993,0.05854
2596.09118,0.05869
2594.16244,0.05874
2592.23369,0.05872
2590.30495,0.05863
2588.37620,0.05849
2586.44746,0.05832
2584.51871,0.05825
2582.58997,0.05837
2580.66122,0.05842
2578.73248,0.05823
2576.80373,0.05808
2574.87499,0.05816
2572.94624,0.05824
2571.01749,0.05820
2569.08875,0.05821
2567.16000,0.05827
2565.23126,0.05814
2563.30251,0.05801
2561.37377,0.05819
2559.44502,0.05844
2557.51628,0.05847
2555.58753,0.05846
2553.65879,0.05862
2551.73004,0.05875
2549.80130,0.05859
2547.87255,0.05843
2545.94381,0.05852
2544.01506,0.05855
2542.08631,0.05816
2540.15757,0.05764
2538.22882,0.05744
2536.30008,0.05762
2534.37133,0.05800
2532.44259,0.05831
2530.51384,0.05829
2528.58510,0.05800
2526.65635,0.05779
2524.72761,0.05780
2522.79886,0.05800
2520.87012,0.05823
2518.94137,0.05832
2517.01263,0.05832
2515.08388,0.05824
2513.15514,0.05804
2511.22639,0.05782
2509.29764,0.05775
2507.36890,0.05789
2505.44015,0.05811
2503.51141,0.05820
2501.58266,0.05817
2499.65392,0.05805
2497.72517,0.05792
2495.79643,0.05801
2493.86768,0.05826
2491.93894,0.05837
2490.01019,0.05844
2488.08145,0.05864
2486.15270,0.05878
2484.22396,0.05873
2482.29521,0.05863
2480.36647,0.05846
2478.43772,0.05820
2476.50897,0.05802
2474.58023,0.05802
2472.65148,0.05809
2470.72274,0.05823
2468.79399,0.05840
2466.86525,0.05847
2464.93650,0.05834
2463.00776,0.05815
2461.07901,0.05819
2459.15027,0.05842
2457.22152,0.05850
2455.29278,0.05839
2453.36403,0.05831
2451.43529,0.05830
2449.50654,0.05827
2447.57779,0.05822
2445.64905,0.05825
2443.72030,0.05836
2441.79156,0.05846
2439.86281,0.05853
2437.93407,0.05852
2436.00532,0.05833
2434.07658,0.05801
2432.14783,0.05778
2430.21909,0.05779
2428.29034,0.05789
2426.36160,0.05788
2424.43285,0.05792
2422.50411,0.05811
2420.57536,0.05819
2418.64662,0.05796
2416.71787,0.05768
2414.78912,0.05770
2412.86038,0.05788
2410.93163,0.05798
2409.00289,0.05810
2407.07414,0.05836
2405.14540,0.05850
2403.21665,0.05841
2401.28791,0.05833
2399.35916,0.05830
2397.43042,0.05820
2395.50167,0.05815
2393.57293,0.05829
2391.64418,0.05846
2389.71544,0.05846
2387.78669,0.05838
2385.85795,0.05843
2383.92920,0.05849
2382.00045,0.05833
2380.07171,0.05817
2378.14296,0.05825
2376.21422,0.05836
2374.28547,0.05838
2372.35673,0.05844
2370.42798,0.05839
2368.49924,0.05817
2366.57049,0.05799
2364.64175,0.05789
2362.71300,0.05787
2360.78426,0.05805
2358.85551,0.05823
2356.92677,0.05814
2354.99802,0.05799
2353.06927,0.05796
2351.14053,0.05796
2349.21178,0.05801
2347.28304,0.05816
2345.35429,0.05819
2343.42555,0.05800
2341.49680,0.05779
2339.56806,0.05763
2337.63931,0.05754
2335.71057,0.05757
2333.78182,0.05774
2331.85308,0.05789
2329.92433,0.05796
2327.99559,0.05793
2326.06684,0.05786
2324.13810,0.05781
2322.20935,0.05785
2320.28060,0.05795
2318.35186,0.05800
2316.42311,0.05798
2314.49437,0.05789
2312.56562,0.05784
2310.63688,0.05796
2308.70813,0.05814
2306.77939,0.05814
2304.85064,0.05796
2302.92190,0.05780
2300.99315,0.05781
2299.06441,0.05793
2297.13566,0.05800
2295.20692,0.05801
2293.27817,0.05800
2291.34943,0.05792
2289.42068,0.05779
2287.49193,0.05774
2285.56319,0.05784
2283.63444,0.05801
2281.70570,0.05805
2279.77695,0.05790
2277.84821,0.05778
2275.91946,0.05775
2273.99072,0.05769
2272.06197,0.05765
2270.13323,0.05773
2268.20448,0.05794
2266.27574,0.05812
2264.34699,0.05820
2262.41825,0.05819
2260.48950,0.05813
2258.56075,0.05809
2256.63201,0.05810
2254.70326,0.05820
2252.77452,0.05826
2250.84577,0.05823
2248.91703,0.05827
2246.98828,0.05843
2245.05954,0.05853
2243.13079,0.05850
2241.20205,0.05850
2239.27330,0.05871
2237.34456,0.05903
2235.41581,0.05928
2233.48707,0.05952
2231.55832,0.05979
2229.62958,0.05991
2227.70083,0.05986
2225.77208,0.05984
2223.84334,0.05985
2221.91459,0.05982
2219.98585,0.05984
2218.05710,0.05994
2216.12836,0.06003
2214.19961,0.06011
2212.27087,0.06022
2210.34212,0.06038
2208.41338,0.06057
2206.48463,0.06073
2204.55589,0.06085
2202.62714,0.06088
2200.69840,0.06077
2198.76965,0.06053
2196.84090,0.06023
2194.91216,0.06008
2192.98341,0.06017
2191.05467,0.06025
2189.12592,0.06008
2187.19718,0.05987
2185.26843,0.05981
2183.33969,0.05978
2181.41094,0.05973
2179.48220,0.05972
2177.55345,0.05984
2175.62471,0.05994
2173.69596,0.05991
2171.76722,0.05984
2169.83847,0.05978
2167.90973,0.05969
2165.98098,0.05949
2164.05223,0.05915
2162.12349,0.05888
2160.19474,0.05886
2158.26600,0.05893
2156.33725,0.05897
2154.40851,0.05897
2152.47976,0.05888
2150.55102,0.05871
2148.62227,0.05858
2146.69353,0.05866
2144.76478,0.05888
2142.83604,0.05904
2140.90729,0.05924
2138.97855,0.05971
2137.04980,0.06028
2135.12106,0.06077
2133.19231,0.06126
2131.26356,0.06179
2129.33482,0.06239
2127.40607,0.06308
2125.47733,0.06373
2123.54858,0.06421
2121.61984,0.06466
2119.69109,0.06508
2117.76235,0.06541
2115.83360,0.06568
2113.90486,0.06582
2111.97611,0.06582
2110.04737,0.06570
2108.11862,0.06563
2106.18988,0.06567
2104.26113,0.06555
2102.33238,0.06517
2100.40364,0.06493
2098.47489,0.06499
2096.54615,0.06508
2094.61740,0.06493
2092.68866,0.06461
2090.75991,0.06428
2088.83117,0.06394
2086.90242,0.06353
2084.97368,0.06323
2083.04493,0.06310
2081.11619,0.06294
2079.18744,0.06264
2077.25870,0.06237
2075.32995,0.06226
2073.40121,0.06217
2071.47246,0.06192
2069.54371,0.06148
2067.61497,0.06107
2065.68622,0.06080
2063.75748,0.06057
2061.82873,0.06028
2059.89999,0.05989
2057.97124,0.05954
2056.04250,0.05936
2054.11375,0.05924
2052.18501,0.05906
2050.25626,0.05874
2048.32752,0.05836
2046.39877,0.05818
2044.47003,0.05821
2042.54128,0.05816
2040.61254,0.05799
2038.68379,0.05792
2036.75504,0.05802
2034.82630,0.05817
2032.89755,0.05824
2030.96881,0.05820
2029.04006,0.05803
2027.11132,0.05791
2025.18257,0.05795
2023.25383,0.05803
2021.32508,0.05802
2019.39634,0.05788
2017.46759,0.05772
2015.53885,0.05768
2013.61010,0.05778
2011.68136,0.05812
2009.75261,0.05871
2007.82386,0.05933
2005.89512,0.05989
2003.96637,0.06056
2002.03763,0.06141
2000.10888,0.06239
1998.18014,0.06340
1996.25139,0.06435
1994.32265,0.06522
1992.39390,0.06581
1990.46516,0.06609
1988.53641,0.06643
1986.60767,0.06700
1984.67892,0.06748
1982.75018,0.06775
1980.82143,0.06789
1978.89269,0.06795
1976.96394,0.06783
1975.03519,0.06763
1973.10645,0.06753
1971.17770,0.06743
1969.24896,0.06709
1967.32021,0.06666
1965.39147,0.06620
1963.46272,0.06559
1961.53398,0.06504
1959.60523,0.06481
1957.67649,0.06482
1955.74774,0.06497
1953.81900,0.06517
1951.89025,0.06518
1949.96151,0.06499
1948.03276,0.06483
1946.10402,0.06472
1944.17527,0.06449
1942.24652,0.06421
1940.31778,0.06407
1938.38903,0.06403
1936.46029,0.06398
1934.53154,0.06378
1932.60280,0.06342
1930.67405,0.06308
1928.74531,0.06285
1926.81656,0.06261
1924.88782,0.06220
1922.95907,0.06168
1921.03033,0.06128
1919.10158,0.06102
1917.17284,0.06074
1915.24409,0.06040
1913.31534,0.06007
1911.38660,0.05975
1909.45785,0.05937
1907.52911,0.05898
1905.60036,0.05862
1903.67162,0.05826
1901.74287,0.05796
1899.81413,0.05778
1897.88538,0.05769
1895.95664,0.05765
1894.02789,0.05781
1892.09915,0.05825
1890.17040,0.05891
1888.24166,0.05980
1886.31291,0.06102
1884.38417,0.06245
1882.45542,0.06389
1880.52667,0.06526
1878.59793,0.06656
1876.66918,0.06781
1874.74044,0.06914
1872.81169,0.07043
1870.88295,0.07156
1868.95420,0.07272
1867.02546,0.07394
1865.09671,0.07507
1863.16797,0.07616
1861.23922,0.07717
1859.31048,0.07803
1857.38173,0.07880
1855.45299,0.07961
1853.52424,0.08051
1851.59549,0.08133
1849.66675,0.08183
1847.73800,0.08203
1845.80926,0.08207
1843.88051,0.08196
1841.95177,0.08161
1840.02302,0.08108
1838.09428,0.08054
1836.16553,0.07998
1834.23679,0.07921
1832.30804,0.07809
1830.37930,0.07640
1828.45055,0.07407
1826.52181,0.07138
1824.59306,0.06866
1822.66432,0.06643
1820.73557,0.06509
1818.80682,0.06463
1816.87808,0.06485
1814.94933,0.06544
1813.02059,0.06606
1811.09184,0.06659
1809.16310,0.06720
1807.23435,0.06796
1805.30561,0.06866
1803.37686,0.06914
1801.44812,0.06952
1799.51937,0.06995
1797.59063,0.07030
1795.66188,0.07056
1793.73314,0.07072
1791.80439,0.07079
1789.87565,0.07077
1787.94690,0.07071
1786.01815,0.07064
1784.08941,0.07062
1782.16066,0.07059
1780.23192,0.07047
1778.30317,0.07030
1776.37443,0.07026
1774.44568,0.07030
1772.51694,0.07020
1770.58819,0.06986
1768.65945,0.06944
1766.73070,0.06904
1764.80196,0.06863
1762.87321,0.06829
1760.94447,0.06806
1759.01572,0.06780
1757.08697,0.06733
1755.15823,0.06671
1753.22948,0.06612
1751.30074,0.06556
1749.37199,0.06489
1747.44325,0.06415
1745.51450,0.06347
1743.58576,0.06289
1741.65701,0.06229
1739.72827,0.06151
1737.79952,0.06057
1735.87078,0.05956
1733.94203,0.05856
1732.01329,0.05782
1730.08454,0.05739
1728.15580,0.05700
1726.22705,0.05666
1724.29830,0.05650
1722.36956,0.05647
1720.44081,0.05644
1718.51207,0.05653
1716.58332,0.05678
1714.65458,0.05695
1712.72583,0.05708
1710.79709,0.05740
1708.86834,0.05783
1706.93960,0.05816
1705.01085,0.05845
1703.08211,0.05885
1701.15336,0.05912
1699.22462,0.05901
1697.29587,0.05878
1695.36713,0.05864
1693.43838,0.05858
1691.50963,0.05856
1689.58089,0.05856
1687.65214,0.05868
1685.72340,0.05879
1683.79465,0.05868
1681.86591,0.05850
1679.93716,0.05845
1678.00842,0.05850
1676.07967,0.05851
1674.15093,0.05840
1672.22218,0.05818
1670.29344,0.05796
1668.36469,0.05780
1666.43595,0.05770
1664.50720,0.05758
1662.57845,0.05741
1660.64971,0.05725
1658.72096,0.05708
1656.79222,0.05681
1654.86347,0.05647
1652.93473,0.05622
1651.00598,0.05614
1649.07724,0.05608
1647.14849,0.05598
1645.21975,0.05597
1643.29100,0.05610
1641.36226,0.05622
1639.43351,0.05628
1637.50477,0.05643
1635.57602,0.05655
1633.64728,0.05641
1631.71853,0.05625
1629.78978,0.05622
1627.86104,0.05620
1625.93229,0.05619
1624.00355,0.05618
1622.07480,0.05618
1620.14606,0.05625
1618.21731,0.05628
1616.28857,0.05621
1614.35982,0.05619
1612.43108,0.05622
1610.50233,0.05631
1608.57359,0.05645
1606.64484,0.05646
1604.71610,0.05638
1602.78735,0.05629
1600.85861,0.05615
1598.92986,0.05606
1597.00111,0.05616
1595.07237,0.05622
1593.14362,0.05604
1591.21488,0.05579
1589.28613,0.05563
1587.35739,0.05565
1585.42864,0.05580
1583.49990,0.05588
1581.57115,0.05586
1579.64241,0.05583
1577.71366,0.05582
1575.78492,0.05583
1573.85617,0.05590
1571.92743,0.05593
1569.99868,0.05593
1568.06993,0.05589
1566.14119,0.05579
1564.21244,0.05577
1562.28370,0.05587
1560.35495,0.05590
1558.42621,0.05568
1556.49746,0.05550
1554.56872,0.05549
1552.63997,0.05545
1550.71123,0.05533
1548.78248,0.05519
1546.85374,0.05513
1544.92499,0.05522
1542.99625,0.05539
1541.06750,0.05540
1539.13876,0.05522
1537.21001,0.05509
1535.28126,0.05511
1533.35252,0.05526
1531.42377,0.05542
1529.49503,0.05543
1527.56628,0.05536
1525.63754,0.05538
1523.70879,0.05544
1521.78005,0.05534
1519.85130,0.05512
1517.92256,0.05501
1515.99381,0.05511
1514.06507,0.05522
1512.13632,0.05527
1510.20758,0.05538
1508.27883,0.05535
1506.35008,0.05506
1504.42134,0.05490
1502.49259,0.05491
1500.56385,0.05487
1498.63510,0.05476
1496.70636,0.05458
1494.77761,0.05450
1492.84887,0.05461
1490.92012,0.05463
1488.99138,0.05435
1487.06263,0.05394
1485.13389,0.05353
1483.20514,0.05309
1481.27640,0.05256
1479.34765,0.05170
1477.41891,0.05055
1475.49016,0.05003
1473.56141,0.05129
1471.63267,0.05343
1469.70392,0.05472
1467.77518,0.05529
1465.84643,0.05589
1463.91769,0.05715
1461.98894,0.05894
1460.06020,0.06016
1458.13145,0.06035
1456.20271,0.05989
1454.27396,0.05954
1452.34522,0.05952
1450.41647,0.05955
1448.48773,0.05930
1446.55898,0.05887
1444.63024,0.05864
1442.70149,0.05846
1440.77274,0.05823
1438.84400,0.05829
1436.91525,0.05863
1434.98651,0.05872
1433.05776,0.05850
1431.12902,0.05833
1429.20027,0.05835
1427.27153,0.05841
1425.34278,0.05828
1423.41404,0.05801
1421.48529,0.05784
1419.55655,0.05782
1417.62780,0.05770
1415.69906,0.05745
1413.77031,0.05731
1411.84156,0.05742
1409.91282,0.05757
1407.98407,0.05759
1406.05533,0.05747
1404.12658,0.05733
1402.19784,0.05726
1400.26909,0.05719
1398.34035,0.05715
1396.41160,0.05723
1394.48286,0.05730
1392.55411,0.05724
1390.62537,0.05714
1388.69662,0.05701
1386.76788,0.05680
1384.83913,0.05658
1382.91039,0.05643
1380.98164,0.05637
1379.05289,0.05641
1377.12415,0.05661
1375.19540,0.05684
1373.26666,0.05690
1371.33791,0.05687
1369.40917,0.05698
1367.48042,0.05720
1365.55168,0.05733
1363.62293,0.05731
1361.69419,0.05728
1359.76544,0.05741
1357.83670,0.05754
1355.90795,0.05750
1353.97921,0.05737
1352.05046,0.05728
1350.12172,0.05725
1348.19297,0.05725
1346.26422,0.05729
1344.33548,0.05730
1342.40673,0.05725
1340.47799,0.05728
1338.54924,0.05738
1336.62050,0.05740
1334.69175,0.05736
1332.76301,0.05736
1330.83426,0.05741
1328.90552,0.05744
1326.97677,0.05739
1325.04803,0.05742
1323.11928,0.05746
1321.19054,0.05723
1319.26179,0.05690
1317.33304,0.05674
1315.40430,0.05683
1313.47555,0.05711
1311.54681,0.05730
1309.61806,0.05719
1307.68932,0.05705
1305.76057,0.05715
1303.83183,0.05719
1301.90308,0.05699
1299.97434,0.05678
1298.04559,0.05671
1296.11685,0.05677
1294.18810,0.05690
1292.25936,0.05699
1290.33061,0.05707
1288.40187,0.05721
1286.47312,0.05729
1284.54437,0.05724
1282.61563,0.05722
1280.68688,0.05720
1278.75814,0.05709
1276.82939,0.05692
1274.90065,0.05677
1272.97190,0.05670
1271.04316,0.05677
1269.11441,0.05692
1267.18567,0.05710
1265.25692,0.05735
1263.32818,0.05758
1261.39943,0.05764
1259.47069,0.05752
1257.54194,0.05737
1255.61320,0.05738
1253.68445,0.05749
1251.75570,0.05742
1249.82696,0.05716
1247.89821,0.05706
1245.96947,0.05720
1244.04072,0.05726
1242.11198,0.05721
1240.18323,0.05718
1238.25449,0.05724
1236.32574,0.05734
1234.39700,0.05724
1232.46825,0.05692
1230.53951,0.05671
1228.61076,0.05675
1226.68202,0.05698
1224.75327,0.05713
1222.82452,0.05711
1220.89578,0.05717
1218.96703,0.05741
1217.03829,0.05746
1215.10954,0.05719
1213.18080,0.05694
1211.25205,0.05690
1209.32331,0.05689
1207.39456,0.05685
1205.46582,0.05680
1203.53707,0.05685
1201.60833,0.05701
1199.67958,0.05707
1197.75084,0.05698
1195.82209,0.05693
1193.89335,0.05705
1191.96460,0.05717
1190.03585,0.05712
1188.10711,0.05695
1186.17836,0.05674
1184.24962,0.05669
1182.32087,0.05694
1180.39213,0.05734
1178.46338,0.05751
1176.53464,0.05735
1174.60589,0.05711
1172.67715,0.05701
1170.74840,0.05698
1168.81966,0.05695
1166.89091,0.05692
1164.96217,0.05692
1163.03342,0.05695
1161.10467,0.05700
1159.17593,0.05702
1157.24718,0.05708
1155.31844,0.05720
1153.38969,0.05729
1151.46095,0.05724
1149.53220,0.05710
1147.60346,0.05703
1145.67471,0.05699
1143.74597,0.05690
1141.81722,0.05698
1139.88848,0.05718
1137.95973,0.05706
1136.03099,0.05659
1134.10224,0.05624
1132.17350,0.05624
1130.24475,0.05634
1128.31600,0.05653
1126.38726,0.05707
1124.45851,0.05754
1122.52977,0.05740
1120.60102,0.05694
1118.67228,0.05674
1116.74353,0.05687
1114.81479,0.05714
1112.88604,0.05746
1110.95730,0.05754
1109.02855,0.05728
1107.09981,0.05701
1105.17106,0.05690
1103.24232,0.05681
1101.31357,0.05675
1099.38483,0.05681
1097.45608,0.05694
1095.52733,0.05708
1093.59859,0.05730
1091.66984,0.05755
1089.74110,0.05749
1087.81235,0.05705
1085.88361,0.05656
1083.95486,0.05627
1082.02612,0.05627
1080.09737,0.05654
1078.16863,0.05680
1076.23988,0.05680
1074.31114,0.05661
1072.38239,0.05645
1070.45365,0.05645
1068.52490,0.05659
1066.59615,0.05683
1064.66741,0.05710
1062.73866,0.05716
1060.80992,0.05697
1058.88117,0.05699
1056.95243,0.05733
1055.02368,0.05752
1053.09494,0.05731
1051.16619,0.05691
1049.23745,0.05671
1047.30870,0.05691
1045.37996,0.05731
1043.45121,0.05763
1041.52247,0.05775
1039.59372,0.05762
1037.66498,0.05734
1035.73623,0.05702
1033.80748,0.05662
1031.87874,0.05644
1029.94999,0.05680
1028.02125,0.05712
1026.09250,0.05710
1024.16376,0.05724
1022.23501,0.05746
1020.30627,0.05730
1018.37752,0.05713
1016.44878,0.05729
1014.52003,0.05746
1012.59129,0.05741
1010.66254,0.05722
1008.73380,0.05700
1006.80505,0.05701
1004.87631,0.05721
1002.94756,0.05746
1001.01881,0.05780
999.09007,0.05811
997.16132,0.05807
995.23258,0.05765
993.30383,0.05729
991.37509,0.05729
989.44634,0.05739
987.51760,0.05727
985.58885,0.05708
983.66011,0.05703
981.73136,0.05695
979.80262,0.05685
977.87387,0.05698
975.94513,0.05721
974.01638,0.05728
972.08763,0.05740
970.15889,0.05771
968.23014,0.05787
966.30140,0.05775
964.37265,0.05757
962.44391,0.05742
960.51516,0.05731
958.58642,0.05721
956.65767,0.05710
954.72893,0.05711
952.80018,0.05730
950.87144,0.05744
948.94269,0.05751
947.01395,0.05765
945.08520,0.05763
943.15646,0.05739
941.22771,0.05726
939.29896,0.05729
937.37022,0.05743
935.44147,0.05753
933.51273,0.05741
931.58398,0.05720
929.65524,0.05713
927.72649,0.05725
925.79775,0.05733
923.86900,0.05722
921.94026,0.05713
920.01151,0.05715
918.08277,0.05727
916.15402,0.05736
914.22528,0.05707
912.29653,0.05663
910.36779,0.05660
908.43904,0.05683
906.51029,0.05687
904.58155,0.05687
902.65280,0.05706
900.72406,0.05720
898.79531,0.05697
896.86657,0.05655
894.93782,0.05638
893.00908,0.05644
891.08033,0.05646
889.15159,0.05653
887.22284,0.05677
885.29410,0.05708
883.36535,0.05731
881.43661,0.05715
879.50786,0.05667
877.57911,0.05644
875.65037,0.05677
873.72162,0.05734
871.79288,0.05748
869.86413,0.05713
867.93539,0.05687
866.00664,0.05693
864.07790,0.05701
862.14915,0.05690
860.22041,0.05661
858.29166,0.05655
856.36292,0.05702
854.43417,0.05755
852.50543,0.05766
850.57668,0.05749
848.64794,0.05716
846.71919,0.05667
844.79044,0.05650
842.86170,0.05674
840.93295,0.05690
839.00421,0.05706
837.07546,0.05735
835.14672,0.05736
833.21797,0.05705
831.28923,0.05659
829.36048,0.05623
827.43174,0.05647
825.50299,0.05710
823.57425,0.05731
821.64550,0.05710
819.71676,0.05700
817.78801,0.05706
815.85926,0.05705
813.93052,0.05695
812.00177,0.05679
810.07303,0.05677
808.14428,0.05718
806.21554,0.05761
804.28679,0.05752
802.35805,0.05725
800.42930,0.05727
798.50056,0.05749
796.57181,0.05745
794.64307,0.05717
792.71432,0.05703
790.78558,0.05706
788.85683,0.05700
786.92809,0.05675
784.99934,0.05649
783.07059,0.05662
781.14185,0.05690
779.21310,0.05679
777.28436,0.05662
775.35561,0.05668
773.42687,0.05642
771.49812,0.05581
769.56938,0.05554
767.64063,0.05557
765.71189,0.05556
763.78314,0.05559
761.85440,0.05557
759.92565,0.05562
757.99691,0.05603
756.06816,0.05648
754.13942,0.05644
752.21067,0.05598
750.28192,0.05557
748.35318,0.05531
746.42443,0.05506
744.49569,0.05490
742.56694,0.05474
740.63820,0.05424
738.70945,0.05364
736.78071,0.05330
734.85196,0.05265
732.92322,0.05189
730.99447,0.05264
729.06573,0.05474
727.13698,0.05600
725.20824,0.05581
723.27949,0.05550
721.35074,0.05660
719.42200,0.05942
717.49325,0.06207
715.56451,0.06274
713.63576,0.06183
711.70702,0.06055
709.77827,0.05975
707.84953,0.05961
705.92078,0.05967
703.99204,0.05970
702.06329,0.05971
700.13455,0.05939
698.20580,0.05873
696.27706,0.05828
694.34831,0.05807
692.41957,0.05809
690.49082,0.05841
688.56207,0.05841
686.63333,0.05804
684.70458,0.05801
682.77584,0.05844
680.84709,0.05891
678.91835,0.05927
676.98960,0.05982
675.06086,0.06081
673.13211,0.06187
671.20337,0.06266
669.27462,0.06354
667.34588,0.06475
665.41713,0.06608
663.48839,0.06718
661.55964,0.06773
659.63090,0.06842
657.70215,0.07051
655.77340,0.07389
653.84466,0.07745
651.91591,0.08059
649.98717,0.08302
648.05842,0.08519
646.12968,0.08755
644.20093,0.08967
642.27219,0.09177
640.34344,0.09416
638.41470,0.09646
636.48595,0.09874
634.55721,0.10085
632.62846,0.10235
630.69972,0.10339
628.77097,0.10437
626.84222,0.10545
624.91348,0.10663
622.98473,0.10772
621.05599,0.10888
619.12724,0.11015
617.19850,0.11052
615.26975,0.10973
613.34101,0.10872
611.41226,0.10753
609.48352,0.10573
607.55477,0.10256
605.62603,0.09748
603.69728,0.09232
601.76854,0.08974
599.83979,0.08957
