7497.03301,0.48825
7495.10426,0.48666
7493.17552,0.48897
7491.24677,0.49642
7489.31803,0.50025
7487.38928,0.49760
7485.46054,0.49530
7483.53179,0.49264
7481.60305,0.48668
7479.67430,0.48292
7477.74556,0.48535
7475.81681,0.49041
7473.88807,0.49460
7471.95932,0.49775
7470.03057,0.50043
7468.10183,0.50150
7466.17308,0.49932
7464.24434,0.49444
7462.31559,0.48793
7460.38685,0.48315
7458.45810,0.48366
7456.52936,0.48549
7454.60061,0.48491
7452.67187,0.48584
7450.74312,0.48962
7448.81438,0.49305
7446.88563,0.49634
7444.95689,0.49869
7443.02814,0.49716
7441.09940,0.49307
7439.17065,0.48874
7437.24190,0.48561
7435.31316,0.48221
7433.38441,0.47743
7431.45567,0.47864
7429.52692,0.48727
7427.59818,0.49336
7425.66943,0.49449
7423.74069,0.49424
7421.81194,0.49377
7419.88320,0.49356
7417.95445,0.49144
7416.02571,0.48832
7414.09696,0.48758
7412.16822,0.48595
7410.23947,0.48285
7408.31073,0.48389
7406.38198,0.48876
7404.45323,0.49089
7402.52449,0.48889
7400.59574,0.48823
7398.66700,0.48903
7396.73825,0.48646
7394.80951,0.48142
7392.88076,0.47830
7390.95202,0.47858
7389.02327,0.48102
7387.09453,0.48314
7385.16578,0.48289
7383.23704,0.48099
7381.30829,0.48061
7379.37955,0.48399
7377.45080,0.48913
7375.52205,0.48998
7373.59331,0.48308
7371.66456,0.47270
7369.73582,0.46608
7367.80707,0.46454
7365.87833,0.46494
7363.94958,0.46696
7362.02084,0.47013
7360.09209,0.47144
7358.16335,0.46908
7356.23460,0.46414
7354.30586,0.46021
7352.37711,0.45906
7350.44837,0.45781
7348.51962,0.45379
7346.59088,0.44949
7344.66213,0.44983
7342.73338,0.45571
7340.80464,0.46230
7338.87589,0.46256
7336.94715,0.45647
7335.01840,0.45154
7333.08966,0.45077
7331.16091,0.45141
7329.23217,0.45124
7327.30342,0.44788
7325.37468,0.44226
7323.44593,0.43893
7321.51719,0.43731
7319.58844,0.43614
7317.65970,0.43746
7315.73095,0.43878
7313.80221,0.43651
7311.87346,0.43404
7309.94471,0.43538
7308.01597,0.43750
7306.08722,0.43556
7304.15848,0.43057
7302.22973,0.42578
7300.30099,0.42186
7298.37224,0.42008
7296.44350,0.42054
7294.51475,0.41976
7292.58601,0.41652
7290.65726,0.41203
7288.72852,0.40663
7286.79977,0.40173
7284.87103,0.39817
7282.94228,0.39632
7281.01353,0.39610
7279.08479,0.39350
7277.15604,0.38634
7275.22730,0.37859
7273.29855,0.37359
7271.36981,0.37061
7269.44106,0.36739
7267.51232,0.36463
7265.58357,0.36448
7263.65483,0.36505
7261.72608,0.36447
7259.79734,0.36458
7257.86859,0.36584
7255.93985,0.36489
7254.01110,0.35955
7252.08236,0.35440
7250.15361,0.35219
7248.22486,0.34747
7246.29612,0.33834
7244.36737,0.33035
7242.43863,0.32734
7240.50988,0.32740
7238.58114,0.32653
7236.65239,0.32428
7234.72365,0.32318
7232.79490,0.32270
7230.86616,0.31832
7228.93741,0.30992
7227.00867,0.30480
7225.07992,0.30464
7223.15118,0.30244
7221.22243,0.29783
7219.29369,0.29541
7217.36494,0.29221
7215.43619,0.28509
7213.50745,0.27778
7211.57870,0.27251
7209.64996,0.26965
7207.72121,0.27024
7205.79247,0.27000
7203.86372,0.26350
7201.93498,0.25348
7200.00623,0.24426
7198.07749,0.23599
7196.14874,0.22972
7194.22000,0.22771
7192.29125,0.22756
7190.36251,0.22379
7188.43376,0.21527
7186.50501,0.20551
7184.57627,0.19646
7182.64752,0.18853
7180.71878,0.18417
7178.79003,0.18347
7176.86129,0.18131
7174.93254,0.17593
7173.00380,0.17374
7171.07505,0.17863
7169.14631,0.18508
7167.21756,0.18980
7165.28882,0.19714
7163.36007,0.20886
7161.43133,0.22173
7159.50258,0.23222
7157.57384,0.23732
7155.64509,0.23838
7153.71634,0.24126
7151.78760,0.24879
7149.85885,0.25809
7147.93011,0.26404
7146.00136,0.26559
7144.07262,0.26731
7142.14387,0.26977
7140.21513,0.27032
7138.28638,0.27077
7136.35764,0.26998
7134.42889,0.26671
7132.50015,0.26734
7130.57140,0.27146
7128.64266,0.27120
7126.71391,0.26699
7124.78516,0.26394
7122.85642,0.26299
7120.92767,0.26419
7118.99893,0.26680
7117.07018,0.26644
7115.14144,0.26115
7113.21269,0.25484
7111.28395,0.25155
7109.35520,0.25195
7107.42646,0.25374
7105.49771,0.25346
7103.56897,0.24920
7101.64022,0.24365
7099.71148,0.24123
7097.78273,0.24352
7095.85399,0.24712
7093.92524,0.24578
7091.99649,0.24056
7090.06775,0.23762
7088.13900,0.23518
7086.21026,0.23052
7084.28151,0.22879
7082.35277,0.23092
7080.42402,0.22999
7078.49528,0.22547
7076.56653,0.22154
7074.63779,0.21799
7072.70904,0.21346
7070.78030,0.20835
7068.85155,0.20304
7066.92281,0.19833
7064.99406,0.19639
7063.06532,0.19755
7061.13657,0.20107
7059.20782,0.20758
7057.27908,0.21487
7055.35033,0.22022
7053.42159,0.22258
7051.49284,0.22132
7049.56410,0.21978
7047.63535,0.22232
7045.70661,0.22659
7043.77786,0.22708
7041.84912,0.22507
7039.92037,0.22444
7037.99163,0.22425
7036.06288,0.22372
7034.13414,0.22381
7032.20539,0.22391
7030.27664,0.22291
7028.34790,0.22152
7026.41915,0.22055
7024.49041,0.21980
7022.56166,0.22098
7020.63292,0.22464
7018.70417,0.22786
7016.77543,0.22944
7014.84668,0.22934
7012.91794,0.22834
7010.98919,0.23063
7009.06045,0.23675
7007.13170,0.24109
7005.20296,0.24098
7003.27421,0.23880
7001.34547,0.23807
6999.41672,0.23889
6997.48797,0.23942
6995.55923,0.24014
6993.63048,0.24102
6991.70174,0.24198
6989.77299,0.24406
6987.84425,0.24684
6985.91550,0.24873
6983.98676,0.24840
6982.05801,0.24685
6980.12927,0.24577
6978.20052,0.24624
6976.27178,0.24795
6974.34303,0.24911
6972.41429,0.25039
6970.48554,0.25205
6968.55680,0.25122
6966.62805,0.24814
6964.69930,0.24593
6962.77056,0.24488
6960.84181,0.24473
6958.91307,0.24722
6956.98432,0.25105
6955.05558,0.25249
6953.12683,0.25127
6951.19809,0.24914
6949.26934,0.24769
6947.34060,0.24841
6945.41185,0.25063
6943.48311,0.25228
6941.55436,0.25285
6939.62562,0.25415
6937.69687,0.25777
6935.76812,0.26198
6933.83938,0.26404
6931.91063,0.26456
6929.98189,0.26640
6928.05314,0.26979
6926.12440,0.27148
6924.19565,0.27146
6922.26691,0.27257
6920.33816,0.27472
6918.40942,0.27737
6916.48067,0.28029
6914.55193,0.28210
6912.62318,0.28339
6910.69444,0.28502
6908.76569,0.28587
6906.83695,0.28656
6904.90820,0.28811
6902.97945,0.28981
6901.05071,0.29169
6899.12196,0.29300
6897.19322,0.29321
6895.26447,0.29426
6893.33573,0.29663
6891.40698,0.29834
6889.47824,0.29987
6887.54949,0.30284
6885.62075,0.30573
6883.69200,0.30735
6881.76326,0.30863
6879.83451,0.31052
6877.90577,0.31384
6875.97702,0.31644
6874.04828,0.31651
6872.11953,0.31540
6870.19078,0.31410
6868.26204,0.31334
6866.33329,0.31289
6864.40455,0.31223
6862.47580,0.31325
6860.54706,0.31791
6858.61831,0.32446
6856.68957,0.32720
6854.76082,0.32534
6852.83208,0.32479
6850.90333,0.32768
6848.97459,0.33159
6847.04584,0.33399
6845.11710,0.33341
6843.18835,0.33153
6841.25960,0.33092
6839.33086,0.33184
6837.40211,0.33282
6835.47337,0.33263
6833.54462,0.33349
6831.61588,0.33801
6829.68713,0.34358
6827.75839,0.34651
6825.82964,0.34713
6823.90090,0.34788
6821.97215,0.34938
6820.04341,0.34981
6818.11466,0.34992
6816.18592,0.35232
6814.25717,0.35526
6812.32843,0.35670
6810.39968,0.35856
6808.47093,0.36257
6806.54219,0.36751
6804.61344,0.37029
6802.68470,0.37017
6800.75595,0.36968
6798.82721,0.37069
6796.89846,0.37410
6794.96972,0.37882
6793.04097,0.38097
6791.11223,0.37954
6789.18348,0.37859
6787.25474,0.38043
6785.32599,0.38349
6783.39725,0.38669
6781.46850,0.38785
6779.53975,0.38549
6777.61101,0.38466
6775.68226,0.38799
6773.75352,0.39090
6771.82477,0.39193
6769.89603,0.39323
6767.96728,0.39515
6766.03854,0.39675
6764.10979,0.39679
6762.18105,0.39604
6760.25230,0.39664
6758.32356,0.39866
6756.39481,0.40051
6754.46607,0.40137
6752.53732,0.40237
6750.60858,0.40353
6748.67983,0.40457
6746.75108,0.40714
6744.82234,0.40858
6742.89359,0.40655
6740.96485,0.40599
6739.03610,0.40918
6737.10736,0.41222
6735.17861,0.41303
6733.24987,0.41297
6731.32112,0.41357
6729.39238,0.41453
6727.46363,0.41495
6725.53489,0.41557
6723.60614,0.41743
6721.67740,0.41938
6719.74865,0.41995
6717.81991,0.41858
6715.89116,0.41649
6713.96241,0.41740
6712.03367,0.42219
6710.10492,0.42658
6708.17618,0.42894
6706.24743,0.43110
6704.31869,0.43221
6702.38994,0.43196
6700.46120,0.43176
6698.53245,0.43043
6696.60371,0.42805
6694.67496,0.42771
6692.74622,0.42992
6690.81747,0.43190
6688.88873,0.43257
6686.95998,0.43361
6685.03123,0.43584
6683.10249,0.43803
6681.17374,0.43789
6679.24500,0.43554
6677.31625,0.43447
6675.38751,0.43576
6673.45876,0.43752
6671.53002,0.43843
6669.60127,0.43973
6667.67253,0.44271
6665.74378,0.44479
6663.81504,0.44439
6661.88629,0.44378
6659.95755,0.44382
6658.02880,0.44390
6656.10006,0.44463
6654.17131,0.44623
6652.24256,0.44723
6650.31382,0.44767
6648.38507,0.44917
6646.45633,0.45081
6644.52758,0.45128
6642.59884,0.45035
6640.67009,0.44785
6638.74135,0.44582
6636.81260,0.44601
6634.88386,0.44753
6632.95511,0.44872
6631.02637,0.44853
6629.09762,0.44841
6627.16888,0.44972
6625.24013,0.45048
6623.31139,0.45008
6621.38264,0.45116
6619.45389,0.45416
6617.52515,0.45686
6615.59640,0.45718
6613.66766,0.45536
6611.73891,0.45439
6609.81017,0.45500
6607.88142,0.45551
6605.95268,0.45550
6604.02393,0.45532
6602.09519,0.45545
6600.16644,0.45501
6598.23770,0.45472
6596.30895,0.45717
6594.38021,0.45975
6592.45146,0.45882
6590.52271,0.45599
6588.59397,0.45379
6586.66522,0.45263
6584.73648,0.45282
6582.80773,0.45473
6580.87899,0.45618
6578.95024,0.45528
6577.02150,0.45380
6575.09275,0.45329
6573.16401,0.45300
6571.23526,0.45261
6569.30652,0.45306
6567.37777,0.45467
6565.44903,0.45557
6563.52028,0.45474
6561.59154,0.45443
6559.66279,0.45475
6557.73404,0.45370
6555.80530,0.45274
6553.87655,0.45267
6551.94781,0.45195
6550.01906,0.45138
6548.09032,0.45195
6546.16157,0.45239
6544.23283,0.45243
6542.30408,0.45277
6540.37534,0.45210
6538.44659,0.45012
6536.51785,0.44982
6534.58910,0.45146
6532.66036,0.45184
6530.73161,0.45007
6528.80287,0.44782
6526.87412,0.44651
6524.94537,0.44582
6523.01663,0.44492
6521.08788,0.44395
6519.15914,0.44368
6517.23039,0.44461
6515.30165,0.44488
6513.37290,0.44268
6511.44416,0.43984
6509.51541,0.43881
6507.58667,0.44030
6505.65792,0.44264
6503.72918,0.44260
6501.80043,0.44036
6499.87169,0.43830
6497.94294,0.43688
6496.01419,0.43619
6494.08545,0.43563
6492.15670,0.43387
6490.22796,0.43166
6488.29921,0.43047
6486.37047,0.43111
6484.44172,0.43305
6482.51298,0.43476
6480.58423,0.43694
6478.65549,0.44037
6476.72674,0.44364
6474.79800,0.44692
6472.86925,0.45127
6470.94051,0.45499
6469.01176,0.45703
6467.08302,0.45926
6465.15427,0.46213
6463.22552,0.46455
6461.29678,0.46640
6459.36803,0.46804
6457.43929,0.47017
6455.51054,0.47252
6453.58180,0.47419
6451.65305,0.47548
6449.72431,0.47802
6447.79556,0.48220
6445.86682,0.48630
6443.93807,0.48897
6442.00933,0.48947
6440.08058,0.48877
6438.15184,0.48894
6436.22309,0.48986
6434.29434,0.49089
6432.36560,0.49106
6430.43685,0.49045
6428.50811,0.49124
6426.57936,0.49250
6424.65062,0.49213
6422.72187,0.49075
6420.79313,0.48904
6418.86438,0.48817
6416.93564,0.49005
6415.00689,0.49400
6413.07815,0.49720
6411.14940,0.49843
6409.22066,0.49869
6407.29191,0.49838
6405.36317,0.49790
6403.43442,0.49940
6401.50567,0.50219
6399.57693,0.50281
6397.64818,0.50249
6395.71944,0.50351
6393.79069,0.50396
6391.86195,0.50345
6389.93320,0.50382
6388.00446,0.50526
6386.07571,0.50667
6384.14697,0.50668
6382.21822,0.50573
6380.28948,0.50609
6378.36073,0.50719
6376.43199,0.50636
6374.50324,0.50519
6372.57450,0.50655
6370.64575,0.50866
6368.71700,0.50916
6366.78826,0.50869
6364.85951,0.50873
6362.93077,0.51007
6361.00202,0.51231
6359.07328,0.51439
6357.14453,0.51490
6355.21579,0.51383
6353.28704,0.51380
6351.35830,0.51611
6349.42955,0.51893
6347.50081,0.52088
6345.57206,0.52109
6343.64332,0.51897
6341.71457,0.51738
6339.78582,0.51882
6337.85708,0.52037
6335.92833,0.51966
6333.99959,0.51950
6332.07084,0.52137
6330.14210,0.52291
6328.21335,0.52289
6326.28461,0.52188
6324.35586,0.52040
6322.42712,0.51910
6320.49837,0.51927
6318.56963,0.52174
6316.64088,0.52339
6314.71214,0.52145
6312.78339,0.52012
6310.85465,0.52181
6308.92590,0.52275
6306.99715,0.52218
6305.06841,0.52166
6303.13966,0.52089
6301.21092,0.52070
6299.28217,0.52165
6297.35343,0.52267
6295.42468,0.52353
6293.49594,0.52466
6291.56719,0.52511
6289.63845,0.52333
6287.70970,0.52080
6285.78096,0.51992
6283.85221,0.52005
6281.92347,0.52009
6279.99472,0.51997
6278.06598,0.52005
6276.13723,0.52129
6274.20848,0.52323
6272.27974,0.52376
6270.35099,0.52223
6268.42225,0.52052
6266.49350,0.52068
6264.56476,0.52216
6262.63601,0.52333
6260.70727,0.52368
6258.77852,0.52255
6256.84978,0.52027
6254.92103,0.51959
6252.99229,0.52134
6251.06354,0.52295
6249.13480,0.52303
6247.20605,0.52279
6245.27730,0.52251
6243.34856,0.52085
6241.41981,0.51884
6239.49107,0.51900
6237.56232,0.52112
6235.63358,0.52297
6233.70483,0.52297
6231.77609,0.52160
6229.84734,0.52111
6227.91860,0.52180
6225.98985,0.52174
6224.06111,0.52148
6222.13236,0.52210
6220.20362,0.52122
6218.27487,0.51821
6216.34613,0.51659
6214.41738,0.51744
6212.48863,0.51813
6210.55989,0.51789
6208.63114,0.51800
6206.70240,0.51869
6204.77365,0.51928
6202.84491,0.51903
6200.91616,0.51863
6198.98742,0.51885
6197.05867,0.51802
6195.12993,0.51620
6193.20118,0.51602
6191.27244,0.51621
6189.34369,0.51421
6187.41495,0.51286
6185.48620,0.51484
6183.55746,0.51700
6181.62871,0.51665
6179.69996,0.51551
6177.77122,0.51496
6175.84247,0.51413
6173.91373,0.51321
6171.98498,0.51282
6170.05624,0.51192
6168.12749,0.50995
6166.19875,0.50799
6164.27000,0.50718
6162.34126,0.50717
6160.41251,0.50681
6158.48377,0.50603
6156.55502,0.50575
6154.62628,0.50666
6152.69753,0.50721
6150.76878,0.50538
6148.84004,0.50306
6146.91129,0.50346
6144.98255,0.50590
6143.05380,0.50682
6141.12506,0.50435
6139.19631,0.50088
6137.26757,0.49935
6135.33882,0.49930
6133.41008,0.49936
6131.48133,0.49896
6129.55259,0.49747
6127.62384,0.49599
6125.69510,0.49601
6123.76635,0.49635
6121.83761,0.49544
6119.90886,0.49439
6117.98011,0.49456
6116.05137,0.49457
6114.12262,0.49341
6112.19388,0.49274
6110.26513,0.49352
6108.33639,0.49429
6106.40764,0.49346
6104.47890,0.49210
6102.55015,0.49233
6100.62141,0.49345
6098.69266,0.49309
6096.76392,0.49175
6094.83517,0.49134
6092.90643,0.49073
6090.97768,0.48878
6089.04893,0.48721
6087.12019,0.48678
6085.19144,0.48654
6083.26270,0.48656
6081.33395,0.48686
6079.40521,0.48628
6077.47646,0.48483
6075.54772,0.48403
6073.61897,0.48415
6071.69023,0.48384
6069.76148,0.48253
6067.83274,0.48153
6065.90399,0.48207
6063.97525,0.48283
6062.04650,0.48167
6060.11776,0.47955
6058.18901,0.47848
6056.26026,0.47757
6054.33152,0.47609
6052.40277,0.47592
6050.47403,0.47715
6048.54528,0.47709
6046.61654,0.47453
6044.68779,0.47112
6042.75905,0.46930
6040.83030,0.46902
6038.90156,0.46869
6036.97281,0.46829
6035.04407,0.46734
6033.11532,0.46502
6031.18658,0.46303
6029.25783,0.46245
6027.32909,0.46208
6025.40034,0.46093
6023.47159,0.45867
6021.54285,0.45590
6019.61410,0.45301
6017.68536,0.44974
6015.75661,0.44783
6013.82787,0.44752
6011.89912,0.44588
6009.97038,0.44310
6008.04163,0.44113
6006.11289,0.43936
6004.18414,0.43719
6002.25540,0.43545
6000.32665,0.43411
5998.39791,0.43254
5996.46916,0.43089
5994.54041,0.42865
5992.61167,0.42519
5990.68292,0.42159
5988.75418,0.41873
5986.82543,0.41611
5984.89669,0.41355
5982.96794,0.41157
5981.03920,0.40947
5979.11045,0.40610
5977.18171,0.40181
5975.25296,0.39767
5973.32422,0.39419
5971.39547,0.39098
5969.46673,0.38775
5967.53798,0.38460
5965.60924,0.38089
5963.68049,0.37650
5961.75174,0.37216
5959.82300,0.36774
5957.89425,0.36303
5955.96551,0.35866
5954.03676,0.35490
5952.10802,0.35161
5950.17927,0.34845
5948.25053,0.34498
5946.32178,0.34176
5944.39304,0.33823
5942.46429,0.33302
5940.53555,0.32741
5938.60680,0.32197
5936.67806,0.31570
5934.74931,0.30967
5932.82057,0.30439
5930.89182,0.29871
5928.96307,0.29239
5927.03433,0.28541
5925.10558,0.27733
5923.17684,0.26851
5921.24809,0.26034
5919.31935,0.25320
5917.39060,0.24673
5915.46186,0.24107
5913.53311,0.23616
5911.60437,0.23121
5909.67562,0.22583
5907.74688,0.22080
5905.81813,0.21657
5903.88939,0.21310
5901.96064,0.21029
5900.03189,0.20675
5898.10315,0.20208
5896.17440,0.19742
5894.24566,0.19306
5892.31691,0.18875
5890.38817,0.18479
5888.45942,0.18117
5886.53068,0.17620
5884.60193,0.16874
5882.67319,0.16055
5880.74444,0.15344
5878.81570,0.14699
5876.88695,0.13997
5874.95821,0.13247
5873.02946,0.12562
5871.10072,0.12026
5869.17197,0.11562
5867.24322,0.11021
5865.31448,0.10430
5863.38573,0.09953
5861.45699,0.09592
5859.52824,0.09207
5857.59950,0.08741
5855.67075,0.08278
5853.74201,0.07945
5851.81326,0.07786
5849.88452,0.07592
5847.95577,0.07224
5846.02703,0.06911
5844.09828,0.06807
5842.16954,0.06775
5840.24079,0.06716
5838.31205,0.06651
5836.38330,0.06576
5834.45455,0.06490
5832.52581,0.06383
5830.59706,0.06259
5828.66832,0.06237
5826.73957,0.06302
5824.81083,0.06256
5822.88208,0.06083
5820.95334,0.05923
5819.02459,0.05810
5817.09585,0.05746
5815.16710,0.05762
5813.23836,0.05778
5811.30961,0.05722
5809.38087,0.05710
5807.45212,0.05827
5805.52337,0.05976
5803.59463,0.06019
5801.66588,0.05919
5799.73714,0.05759
5797.80839,0.05625
5795.87965,0.05562
5793.95090,0.05596
5792.02216,0.05627
5790.09341,0.05590
5788.16467,0.05574
5786.23592,0.05571
5784.30718,0.05491
5782.37843,0.05361
5780.44969,0.05324
5778.52094,0.05442
5776.59220,0.05560
5774.66345,0.05591
5772.73470,0.05619
5770.80596,0.05629
5768.87721,0.05540
5766.94847,0.05434
5765.01972,0.05466
5763.09098,0.05611
5761.16223,0.05682
5759.23349,0.05630
5757.30474,0.05590
5755.37600,0.05632
5753.44725,0.05699
5751.51851,0.05749
5749.58976,0.05863
5747.66102,0.06068
5745.73227,0.06237
5743.80352,0.06305
5741.87478,0.06298
5739.94603,0.06257
5738.01729,0.06248
5736.08854,0.06289
5734.15980,0.06390
5732.23105,0.06561
5730.30231,0.06708
5728.37356,0.06791
5726.44482,0.06931
5724.51607,0.07220
5722.58733,0.07589
5720.65858,0.07855
5718.72984,0.07930
5716.80109,0.07916
5714.87235,0.07899
5712.94360,0.07859
5711.01485,0.07763
5709.08611,0.07655
5707.15736,0.07555
5705.22862,0.07409
5703.29987,0.07286
5701.37113,0.07244
5699.44238,0.07143
5697.51364,0.06940
5695.58489,0.06744
5693.65615,0.06600
5691.72740,0.06507
5689.79866,0.06496
5687.86991,0.06502
5685.94117,0.06414
5684.01242,0.06279
5682.08368,0.06210
5680.15493,0.06209
5678.22618,0.06220
5676.29744,0.06247
5674.36869,0.06268
5672.43995,0.06177
5670.51120,0.05975
5668.58246,0.05806
5666.65371,0.05767
5664.72497,0.05809
5662.79622,0.05842
5660.86748,0.05834
5658.93873,0.05801
5657.00999,0.05880
5655.08124,0.06178
5653.15250,0.06496
5651.22375,0.06623
5649.29500,0.06656
5647.36626,0.06742
5645.43751,0.06898
5643.50877,0.07090
5641.58002,0.07224
5639.65128,0.07232
5637.72253,0.07224
5635.79379,0.07364
5633.86504,0.07614
5631.93630,0.07820
5630.00755,0.07917
5628.07881,0.07922
5626.15006,0.07916
5624.22132,0.07983
5622.29257,0.08095
5620.36383,0.08183
5618.43508,0.08284
5616.50633,0.08492
5614.57759,0.08763
5612.64884,0.08972
5610.72010,0.09078
5608.79135,0.09116
5606.86261,0.09160
5604.93386,0.09252
5603.00512,0.09348
5601.07637,0.09425
5599.14763,0.09511
5597.21888,0.09563
5595.29014,0.09582
5593.36139,0.09636
5591.43265,0.09693
5589.50390,0.09707
5587.57516,0.09682
5585.64641,0.09668
5583.71766,0.09672
5581.78892,0.09612
5579.86017,0.09508
5577.93143,0.09444
5576.00268,0.09389
5574.07394,0.09310
5572.14519,0.09200
5570.21645,0.09069
5568.28770,0.08937
5566.35896,0.08789
5564.43021,0.08671
5562.50147,0.08655
5560.57272,0.08702
5558.64398,0.08685
5556.71523,0.08613
5554.78648,0.08621
5552.85774,0.08685
5550.92899,0.08715
5549.00025,0.08709
5547.07150,0.08635
5545.14276,0.08497
5543.21401,0.08434
5541.28527,0.08542
5539.35652,0.08693
5537.42778,0.08760
5535.49903,0.08808
5533.57029,0.08873
5531.64154,0.08915
5529.71280,0.08921
5527.78405,0.08912
5525.85531,0.08945
5523.92656,0.09004
5521.99781,0.09008
5520.06907,0.08936
5518.14032,0.08840
5516.21158,0.08769
5514.28283,0.08760
5512.35409,0.08786
5510.42534,0.08758
5508.49660,0.08681
5506.56785,0.08619
5504.63911,0.08619
5502.71036,0.08658
5500.78162,0.08622
5498.85287,0.08528
5496.92413,0.08517
5494.99538,0.08612
5493.06664,0.08713
5491.13789,0.08715
5489.20914,0.08666
5487.28040,0.08716
5485.35165,0.08834
5483.42291,0.08905
5481.49416,0.08948
5479.56542,0.08997
5477.63667,0.09067
5475.70793,0.09184
5473.77918,0.09282
5471.85044,0.09293
5469.92169,0.09320
5467.99295,0.09452
5466.06420,0.09585
5464.13546,0.09630
5462.20671,0.09623
5460.27796,0.09614
5458.34922,0.09626
5456.42047,0.09637
5454.49173,0.09643
5452.56298,0.09713
5450.63424,0.09845
5448.70549,0.09936
5446.77675,0.09939
5444.84800,0.09937
5442.91926,0.10016
5440.99051,0.10112
5439.06177,0.10095
5437.13302,0.10020
5435.20428,0.10031
5433.27553,0.10118
5431.34679,0.10216
5429.41804,0.10312
5427.48929,0.10384
5425.56055,0.10470
5423.63180,0.10606
5421.70306,0.10721
5419.77431,0.10807
5417.84557,0.10926
5415.91682,0.11086
5413.98808,0.11245
5412.05933,0.11358
5410.13059,0.11456
5408.20184,0.11607
5406.27310,0.11779
5404.34435,0.11925
5402.41561,0.12081
5400.48686,0.12257
5398.55811,0.12426
5396.62937,0.12567
5394.70062,0.12692
5392.77188,0.12841
5390.84313,0.12958
5388.91439,0.12951
5386.98564,0.12929
5385.05690,0.13075
5383.12815,0.13382
5381.19941,0.13674
5379.27066,0.13820
5377.34192,0.13823
5375.41317,0.13808
5373.48443,0.13880
5371.55568,0.13984
5369.62694,0.14030
5367.69819,0.14047
5365.76944,0.14130
5363.84070,0.14312
5361.91195,0.14533
5359.98321,0.14739
5358.05446,0.14918
5356.12572,0.15046
5354.19697,0.15130
5352.26823,0.15252
5350.33948,0.15453
5348.41074,0.15673
5346.48199,0.15834
5344.55325,0.15968
5342.62450,0.16145
5340.69576,0.16288
5338.76701,0.16317
5336.83827,0.16342
5334.90952,0.16453
5332.98077,0.16545
5331.05203,0.16550
5329.12328,0.16533
5327.19454,0.16497
5325.26579,0.16437
5323.33705,0.16438
5321.40830,0.16514
5319.47956,0.16555
5317.55081,0.16475
5315.62207,0.16307
5313.69332,0.16127
5311.76458,0.15979
5309.83583,0.15876
5307.90709,0.15839
5305.97834,0.15893
5304.04959,0.16015
5302.12085,0.16139
5300.19210,0.16207
5298.26336,0.16238
5296.33461,0.16275
5294.40587,0.16294
5292.47712,0.16301
5290.54838,0.16334
5288.61963,0.16369
5286.69089,0.16361
5284.76214,0.16323
5282.83340,0.16289
5280.90465,0.16269
5278.97591,0.16256
5277.04716,0.16250
5275.11842,0.16247
5273.18967,0.16240
5271.26092,0.16260
5269.33218,0.16346
5267.40343,0.16424
5265.47469,0.16405
5263.54594,0.16318
5261.61720,0.16237
5259.68845,0.16222
5257.75971,0.16307
5255.83096,0.16449
5253.90222,0.16550
5251.97347,0.16577
5250.04473,0.16554
5248.11598,0.16473
5246.18724,0.16365
5244.25849,0.16294
5242.32975,0.16241
5240.40100,0.16191
5238.47225,0.16171
5236.54351,0.16179
5234.61476,0.16202
5232.68602,0.16228
5230.75727,0.16203
5228.82853,0.16123
5226.89978,0.16035
5224.97104,0.15992
5223.04229,0.15983
5221.11355,0.15932
5219.18480,0.15873
5217.25606,0.15887
5215.32731,0.15934
5213.39857,0.15935
5211.46982,0.15917
5209.54107,0.15959
5207.61233,0.16015
5205.68358,0.15959
5203.75484,0.15835
5201.82609,0.15787
5199.89735,0.15828
5197.96860,0.15866
5196.03986,0.15896
5194.11111,0.15961
5192.18237,0.16008
5190.25362,0.15978
5188.32488,0.15929
5186.39613,0.15954
5184.46739,0.16021
5182.53864,0.16056
5180.60990,0.16053
5178.68115,0.16045
5176.75240,0.16072
5174.82366,0.16119
5172.89491,0.16125
5170.96617,0.16099
5169.03742,0.16097
5167.10868,0.16138
5165.17993,0.16178
5163.25119,0.16156
5161.32244,0.16112
5159.39370,0.16132
5157.46495,0.16168
5155.53621,0.16167
5153.60746,0.16191
5151.67872,0.16278
5149.74997,0.16366
5147.82123,0.16378
5145.89248,0.16359
5143.96373,0.16430
5142.03499,0.16584
5140.10624,0.16689
5138.17750,0.16701
5136.24875,0.16671
5134.32001,0.16649
5132.39126,0.16674
5130.46252,0.16729
5128.53377,0.16738
5126.60503,0.16678
5124.67628,0.16640
5122.74754,0.16678
5120.81879,0.16701
5118.89005,0.16641
5116.96130,0.16544
5115.03255,0.16481
5113.10381,0.16487
5111.17506,0.16504
5109.24632,0.16448
5107.31757,0.16360
5105.38883,0.16331
5103.46008,0.16370
5101.53134,0.16410
5099.60259,0.16394
5097.67385,0.16369
5095.74510,0.16402
5093.81636,0.16454
5091.88761,0.16507
5089.95887,0.16597
5088.03012,0.16692
5086.10138,0.16729
5084.17263,0.16728
5082.24388,0.16707
5080.31514,0.16690
5078.38639,0.16729
5076.45765,0.16777
5074.52890,0.16772
5072.60016,0.16778
5070.67141,0.16833
5068.74267,0.16901
5066.81392,0.16951
5064.88518,0.16947
5062.95643,0.16905
5061.02769,0.16908
5059.09894,0.16982
5057.17020,0.17075
5055.24145,0.17138
5053.31270,0.17189
5051.38396,0.17260
5049.45521,0.17347
5047.52647,0.17423
5045.59772,0.17462
5043.66898,0.17484
5041.74023,0.17492
5039.81149,0.17436
5037.88274,0.17352
5035.95400,0.17331
5034.02525,0.17358
5032.09651,0.17370
5030.16776,0.17357
5028.23902,0.17314
5026.31027,0.17233
5024.38153,0.17144
5022.45278,0.17082
5020.52403,0.17043
5018.59529,0.17013
5016.66654,0.17004
5014.73780,0.17028
5012.80905,0.17033
5010.88031,0.16978
5008.95156,0.16912
5007.02282,0.16874
5005.09407,0.16800
5003.16533,0.16695
5001.23658,0.16638
4999.30784,0.16579
4997.37909,0.16428
4995.45035,0.16208
4993.52160,0.15973
4991.59286,0.15758
4989.66411,0.15582
4987.73536,0.15450
4985.80662,0.15381
4983.87787,0.15319
4981.94913,0.15186
4980.02038,0.15019
4978.09164,0.14871
4976.16289,0.14749
4974.23415,0.14678
4972.30540,0.14639
4970.37666,0.14571
4968.44791,0.14486
4966.51917,0.14463
4964.59042,0.14539
4962.66168,0.14663
4960.73293,0.14815
4958.80418,0.15041
4956.87544,0.15337
4954.94669,0.15661
4953.01795,0.16007
4951.08920,0.16345
4949.16046,0.16597
4947.23171,0.16748
4945.30297,0.16841
4943.37422,0.16889
4941.44548,0.16896
4939.51673,0.16896
4937.58799,0.16914
4935.65924,0.16942
4933.73050,0.16977
4931.80175,0.17018
4929.87301,0.17054
4927.94426,0.17073
4926.01551,0.17070
4924.08677,0.17061
4922.15802,0.17069
4920.22928,0.17120
4918.30053,0.17207
4916.37179,0.17263
4914.44304,0.17292
4912.51430,0.17327
4910.58555,0.17318
4908.65681,0.17237
4906.72806,0.17140
4904.79932,0.17074
4902.87057,0.17046
4900.94183,0.17059
4899.01308,0.17075
4897.08434,0.17052
4895.15559,0.17020
4893.22684,0.17000
4891.29810,0.16995
4889.36935,0.17008
4887.44061,0.16973
4885.51186,0.16868
4883.58312,0.16792
4881.65437,0.16777
4879.72563,0.16740
4877.79688,0.16659
4875.86814,0.16588
4873.93939,0.16573
4872.01065,0.16620
4870.08190,0.16692
4868.15316,0.16741
4866.22441,0.16755
4864.29566,0.16763
4862.36692,0.16808
4860.43817,0.16909
4858.50943,0.17027
4856.58068,0.17135
4854.65194,0.17277
4852.72319,0.17491
4850.79445,0.17741
4848.86570,0.17963
4846.93696,0.18135
4845.00821,0.18298
4843.07947,0.18498
4841.15072,0.18708
4839.22198,0.18867
4837.29323,0.18982
4835.36449,0.19101
4833.43574,0.19241
4831.50699,0.19396
4829.57825,0.19534
4827.64950,0.19638
4825.72076,0.19727
4823.79201,0.19835
4821.86327,0.20007
4819.93452,0.20232
4818.00578,0.20394
4816.07703,0.20442
4814.14829,0.20530
4812.21954,0.20735
4810.29080,0.20949
4808.36205,0.21101
4806.43331,0.21225
4804.50456,0.21357
4802.57582,0.21490
4800.64707,0.21617
4798.71832,0.21737
4796.78958,0.21835
4794.86083,0.21911
4792.93209,0.21961
4791.00334,0.21986
4789.07460,0.22002
4787.14585,0.22030
4785.21711,0.22065
4783.28836,0.22094
4781.35962,0.22139
4779.43087,0.22205
4777.50213,0.22296
4775.57338,0.22430
4773.64464,0.22605
4771.71589,0.22789
4769.78714,0.22950
4767.85840,0.23113
4765.92965,0.23270
4764.00091,0.23383
4762.07216,0.23486
4760.14342,0.23601
4758.21467,0.23722
4756.28593,0.23855
4754.35718,0.23979
4752.42844,0.24084
4750.49969,0.24161
4748.57095,0.24191
4746.64220,0.24213
4744.71346,0.24285
4742.78471,0.24385
4740.85597,0.24453
4738.92722,0.24504
4736.99847,0.24580
4735.06973,0.24660
4733.14098,0.24721
4731.21224,0.24810
4729.28349,0.24941
4727.35475,0.25044
4725.42600,0.25094
4723.49726,0.25167
4721.56851,0.25304
4719.63977,0.25440
4717.71102,0.25530
4715.78228,0.25612
4713.85353,0.25703
4711.92479,0.25751
4709.99604,0.25754
4708.06729,0.25810
4706.13855,0.25922
4704.20980,0.26007
4702.28106,0.26050
4700.35231,0.26059
4698.42357,0.26046
4696.49482,0.26056
4694.56608,0.26097
4692.63733,0.26128
4690.70859,0.26095
4688.77984,0.26003
4686.85110,0.25939
4684.92235,0.25900
4682.99361,0.25778
4681.06486,0.25562
4679.13612,0.25340
4677.20737,0.25155
4675.27862,0.24972
4673.34988,0.24742
4671.42113,0.24511
4669.49239,0.24382
4667.56364,0.24368
4665.63490,0.24420
4663.70615,0.24541
4661.77741,0.24722
4659.84866,0.24880
4657.91992,0.25005
4655.99117,0.25151
4654.06243,0.25282
4652.13368,0.25344
4650.20494,0.25402
4648.27619,0.25505
4646.34745,0.25583
4644.41870,0.25567
4642.48995,0.25496
4640.56121,0.25453
4638.63246,0.25443
4636.70372,0.25444
4634.77497,0.25434
4632.84623,0.25385
4630.91748,0.25314
4628.98874,0.25261
4627.05999,0.25224
4625.13125,0.25164
4623.20250,0.25089
4621.27376,0.25039
4619.34501,0.24977
4617.41627,0.24853
4615.48752,0.24702
4613.55877,0.24565
4611.63003,0.24445
4609.70128,0.24370
4607.77254,0.24337
4605.84379,0.24285
4603.91505,0.24211
4601.98630,0.24171
4600.05756,0.24159
4598.12881,0.24116
4596.20007,0.24015
4594.27132,0.23886
4592.34258,0.23776
4590.41383,0.23691
4588.48509,0.23589
4586.55634,0.23457
4584.62760,0.23309
4582.69885,0.23155
4580.77010,0.23035
4578.84136,0.22955
4576.91261,0.22853
4574.98387,0.22691
4573.05512,0.22510
4571.12638,0.22372
4569.19763,0.22247
4567.26889,0.22089
4565.34014,0.21907
4563.41140,0.21702
4561.48265,0.21478
4559.55391,0.21272
4557.62516,0.21083
4555.69642,0.20879
4553.76767,0.20657
4551.83893,0.20416
4549.91018,0.20159
4547.98143,0.19921
4546.05269,0.19732
4544.12394,0.19584
4542.19520,0.19404
4540.26645,0.19157
4538.33771,0.18906
4536.40896,0.18693
4534.48022,0.18513
4532.55147,0.18332
4530.62273,0.18122
4528.69398,0.17930
4526.76524,0.17767
4524.83649,0.17589
4522.90775,0.17394
4520.97900,0.17169
4519.05025,0.16894
4517.12151,0.16629
4515.19276,0.16417
4513.26402,0.16223
4511.33527,0.16022
4509.40653,0.15788
4507.47778,0.15507
4505.54904,0.15242
4503.62029,0.15023
4501.69155,0.14789
4499.76280,0.14543
4497.83406,0.14331
4495.90531,0.14144
4493.97657,0.13963
4492.04782,0.13759
4490.11908,0.13520
4488.19033,0.13279
4486.26158,0.13017
4484.33284,0.12733
4482.40409,0.12507
4480.47535,0.12310
4478.54660,0.12065
4476.61786,0.11825
4474.68911,0.11658
4472.76037,0.11493
4470.83162,0.11249
4468.90288,0.10973
4466.97413,0.10745
4465.04539,0.10546
4463.11664,0.10328
4461.18790,0.10084
4459.25915,0.09841
4457.33041,0.09633
4455.40166,0.09457
4453.47291,0.09271
4451.54417,0.09060
4449.61542,0.08835
4447.68668,0.08618
4445.75793,0.08420
4443.82919,0.08234
4441.90044,0.08068
4439.97170,0.07912
4438.04295,0.07744
4436.11421,0.07575
4434.18546,0.07403
4432.25672,0.07211
4430.32797,0.07016
4428.39923,0.06855
4426.47048,0.06734
4424.54173,0.06635
4422.61299,0.06531
4420.68424,0.06408
4418.75550,0.06287
4416.82675,0.06224
4414.89801,0.06198
4412.96926,0.06129
4411.04052,0.06027
4409.11177,0.05942
4407.18303,0.05884
4405.25428,0.05849
4403.32554,0.05835
4401.39679,0.05827
4399.46805,0.05831
4397.53930,0.05830
4395.61056,0.05780
4393.68181,0.05722
4391.75306,0.05716
4389.82432,0.05745
4387.89557,0.05778
4385.96683,0.05798
4384.03808,0.05794
4382.10934,0.05774
4380.18059,0.05756
4378.25185,0.05760
4376.32310,0.05767
4374.39436,0.05770
4372.46561,0.05762
4370.53687,0.05723
4368.60812,0.05681
4366.67938,0.05672
4364.75063,0.05673
4362.82189,0.05650
4360.89314,0.05624
4358.96439,0.05626
4357.03565,0.05640
4355.10690,0.05647
4353.17816,0.05656
4351.24941,0.05667
4349.32067,0.05674
4347.39192,0.05694
4345.46318,0.05702
4343.53443,0.05668
4341.60569,0.05657
4339.67694,0.05710
4337.74820,0.05756
4335.81945,0.05753
4333.89071,0.05726
4331.96196,0.05698
4330.03321,0.05662
4328.10447,0.05601
4326.17572,0.05562
4324.24698,0.05591
4322.31823,0.05640
4320.38949,0.05657
4318.46074,0.05663
4316.53200,0.05677
4314.60325,0.05691
4312.67451,0.05685
4310.74576,0.05655
4308.81702,0.05656
4306.88827,0.05693
4304.95953,0.05684
4303.03078,0.05640
4301.10204,0.05654
4299.17329,0.05724
4297.24454,0.05775
4295.31580,0.05768
4293.38705,0.05723
4291.45831,0.05694
4289.52956,0.05711
4287.60082,0.05730
4285.67207,0.05717
4283.74333,0.05695
4281.81458,0.05683
4279.88584,0.05690
4277.95709,0.05712
4276.02835,0.05728
4274.09960,0.05720
4272.17086,0.05691
4270.24211,0.05681
4268.31336,0.05699
4266.38462,0.05689
4264.45587,0.05643
4262.52713,0.05621
4260.59838,0.05648
4258.66964,0.05693
4256.74089,0.05719
4254.81215,0.05710
4252.88340,0.05690
4250.95466,0.05694
4249.02591,0.05696
4247.09717,0.05662
4245.16842,0.05636
4243.23968,0.05666
4241.31093,0.05713
4239.38219,0.05720
4237.45344,0.05685
4235.52469,0.05638
4233.59595,0.05621
4231.66720,0.05634
4229.73846,0.05649
4227.80971,0.05677
4225.88097,0.05726
4223.95222,0.05742
4222.02348,0.05699
4220.09473,0.05665
4218.16599,0.05688
4216.23724,0.05717
4214.30850,0.05706
4212.37975,0.05676
4210.45101,0.05668
4208.52226,0.05697
4206.59352,0.05737
4204.66477,0.05758
4202.73602,0.05752
4200.80728,0.05726
4198.87853,0.05709
4196.94979,0.05721
4195.02104,0.05744
4193.09230,0.05747
4191.16355,0.05732
4189.23481,0.05713
4187.30606,0.05689
4185.37732,0.05658
4183.44857,0.05645
4181.51983,0.05657
4179.59108,0.05685
4177.66234,0.05709
4175.73359,0.05707
4173.80484,0.05697
4171.87610,0.05688
4169.94735,0.05667
4168.01861,0.05643
4166.08986,0.05636
4164.16112,0.05645
4162.23237,0.05662
4160.30363,0.05679
4158.37488,0.05687
4156.44614,0.05681
4154.51739,0.05678
4152.58865,0.05692
4150.65990,0.05708
4148.73116,0.05708
4146.80241,0.05682
4144.87367,0.05645
4142.94492,0.05646
4141.01617,0.05684
4139.08743,0.05698
4137.15868,0.05680
4135.22994,0.05679
4133.30119,0.05698
4131.37245,0.05697
4129.44370,0.05687
4127.51496,0.05695
4125.58621,0.05706
4123.65747,0.05713
4121.72872,0.05714
4119.79998,0.05702
4117.87123,0.05698
4115.94249,0.05711
4114.01374,0.05705
4112.08500,0.05673
4110.15625,0.05652
4108.22750,0.05658
4106.29876,0.05681
4104.37001,0.05705
4102.44127,0.05710
4100.51252,0.05709
4098.58378,0.05715
4096.65503,0.05711
4094.72629,0.05693
4092.79754,0.05677
4090.86880,0.05678
4088.94005,0.05710
4087.01131,0.05753
4085.08256,0.05769
4083.15382,0.05775
4081.22507,0.05792
4079.29632,0.05793
4077.36758,0.05773
4075.43883,0.05754
4073.51009,0.05722
4071.58134,0.05667
4069.65260,0.05620
4067.72385,0.05608
4065.79511,0.05627
4063.86636,0.05650
4061.93762,0.05658
4060.00887,0.05666
4058.08013,0.05693
4056.15138,0.05738
4054.22264,0.05774
4052.29389,0.05768
4050.36515,0.05735
4048.43640,0.05709
4046.50765,0.05689
4044.57891,0.05675
4042.65016,0.05682
4040.72142,0.05697
4038.79267,0.05709
4036.86393,0.05728
4034.93518,0.05742
4033.00644,0.05740
4031.07769,0.05739
4029.14895,0.05755
4027.22020,0.05769
4025.29146,0.05755
4023.36271,0.05742
4021.43397,0.05759
4019.50522,0.05778
4017.57648,0.05772
4015.64773,0.05745
4013.71898,0.05722
4011.79024,0.05717
4009.86149,0.05715
4007.93275,0.05729
4006.00400,0.05767
4004.07526,0.05789
4002.14651,0.05770
4000.21777,0.05733
3998.28902,0.05692
3996.36028,0.05673
3994.43153,0.05690
3992.50279,0.05696
3990.57404,0.05681
3988.64530,0.05698
3986.71655,0.05738
3984.78780,0.05748
3982.85906,0.05731
3980.93031,0.05709
3979.00157,0.05691
3977.07282,0.05678
3975.14408,0.05674
3973.21533,0.05687
3971.28659,0.05704
3969.35784,0.05712
3967.42910,0.05726
3965.50035,0.05749
3963.57161,0.05758
3961.64286,0.05735
3959.71412,0.05716
3957.78537,0.05741
3955.85663,0.05772
3953.92788,0.05766
3951.99913,0.05752
3950.07039,0.05756
3948.14164,0.05769
3946.21290,0.05779
3944.28415,0.05766
3942.35541,0.05731
3940.42666,0.05715
3938.49792,0.05725
3936.56917,0.05734
3934.64043,0.05729
3932.71168,0.05712
3930.78294,0.05709
3928.85419,0.05747
3926.92545,0.05790
3924.99670,0.05791
3923.06795,0.05770
3921.13921,0.05751
3919.21046,0.05733
3917.28172,0.05722
3915.35297,0.05710
3913.42423,0.05677
3911.49548,0.05643
3909.56674,0.05656
3907.63799,0.05716
3905.70925,0.05764
3903.78050,0.05766
3901.85176,0.05745
3899.92301,0.05724
3897.99427,0.05700
3896.06552,0.05691
3894.13678,0.05703
3892.20803,0.05708
3890.27928,0.05717
3888.35054,0.05748
3886.42179,0.05773
3884.49305,0.05785
3882.56430,0.05795
3880.63556,0.05785
3878.70681,0.05762
3876.77807,0.05748
3874.84932,0.05742
3872.92058,0.05744
3870.99183,0.05742
3869.06309,0.05722
3867.13434,0.05701
3865.20560,0.05693
3863.27685,0.05707
3861.34811,0.05729
3859.41936,0.05734
3857.49061,0.05743
3855.56187,0.05761
3853.63312,0.05757
3851.70438,0.05743
3849.77563,0.05748
3847.84689,0.05748
3845.91814,0.05728
3843.98940,0.05723
3842.06065,0.05752
3840.13191,0.05784
3838.20316,0.05798
3836.27442,0.05802
3834.34567,0.05792
3832.41693,0.05771
3830.48818,0.05749
3828.55943,0.05731
3826.63069,0.05734
3824.70194,0.05750
3822.77320,0.05760
3820.84445,0.05760
3818.91571,0.05758
3816.98696,0.05754
3815.05822,0.05756
3813.12947,0.05766
3811.20073,0.05778
3809.27198,0.05770
3807.34324,0.05738
3805.41449,0.05719
3803.48575,0.05733
3801.55700,0.05761
3799.62826,0.05781
3797.69951,0.05778
3795.77076,0.05757
3793.84202,0.05747
3791.91327,0.05753
3789.98453,0.05769
3788.05578,0.05795
3786.12704,0.05807
3784.19829,0.05798
3782.26955,0.05786
3780.34080,0.05768
3778.41206,0.05749
3776.48331,0.05754
3774.55457,0.05775
3772.62582,0.05789
3770.69708,0.05794
3768.76833,0.05776
3766.83959,0.05739
3764.91084,0.05727
3762.98209,0.05750
3761.05335,0.05769
3759.12460,0.05784
3757.19586,0.05800
3755.26711,0.05795
3753.33837,0.05780
3751.40962,0.05784
3749.48088,0.05791
3747.55213,0.05789
3745.62339,0.05793
3743.69464,0.05809
3741.76590,0.05823
3739.83715,0.05821
3737.90841,0.05797
3735.97966,0.05776
3734.05091,0.05785
3732.12217,0.05801
3730.19342,0.05808
3728.26468,0.05806
3726.33593,0.05790
3724.40719,0.05762
3722.47844,0.05740
3720.54970,0.05743
3718.62095,0.05758
3716.69221,0.05757
3714.76346,0.05744
3712.83472,0.05751
3710.90597,0.05782
3708.97723,0.05803
3707.04848,0.05798
3705.11974,0.05786
3703.19099,0.05780
3701.26224,0.05774
3699.33350,0.05760
3697.40475,0.05742
3695.47601,0.05730
3693.54726,0.05728
3691.61852,0.05728
3689.68977,0.05710
3687.76103,0.05693
3685.83228,0.05718
3683.90354,0.05750
3681.97479,0.05746
3680.04605,0.05748
3678.11730,0.05780
3676.18856,0.05777
3674.25981,0.05742
3672.33107,0.05739
3670.40232,0.05753
3668.47357,0.05748
3666.54483,0.05725
3664.61608,0.05698
3662.68734,0.05676
3660.75859,0.05665
3658.82985,0.05672
3656.90110,0.05703
3654.97236,0.05740
3653.04361,0.05763
3651.11487,0.05751
3649.18612,0.05708
3647.25738,0.05682
3645.32863,0.05688
3643.39989,0.05715
3641.47114,0.05736
3639.54239,0.05719
3637.61365,0.05682
3635.68490,0.05671
3633.75616,0.05675
3631.82741,0.05670
3629.89867,0.05678
3627.96992,0.05715
3626.04118,0.05741
3624.11243,0.05731
3622.18369,0.05704
3620.25494,0.05682
3618.32620,0.05678
3616.39745,0.05689
3614.46871,0.05695
3612.53996,0.05689
3610.61122,0.05678
3608.68247,0.05674
3606.75372,0.05673
3604.82498,0.05657
3602.89623,0.05634
3600.96749,0.05635
3599.03874,0.05668
3597.11000,0.05689
3595.18125,0.05676
3593.25251,0.05669
3591.32376,0.05683
3589.39502,0.05694
3587.46627,0.05695
3585.53753,0.05697
3583.60878,0.05708
3581.68004,0.05738
3579.75129,0.05762
3577.82254,0.05760
3575.89380,0.05766
3573.96505,0.05800
3572.03631,0.05837
3570.10756,0.05862
3568.17882,0.05859
3566.25007,0.05834
3564.32133,0.05822
3562.39258,0.05831
3560.46384,0.05851
3558.53509,0.05879
3556.60635,0.05906
3554.67760,0.05930
3552.74886,0.05939
3550.82011,0.05928
3548.89137,0.05916
3546.96262,0.05924
3545.03387,0.05947
3543.10513,0.05954
3541.17638,0.05943
3539.24764,0.05951
3537.31889,0.05985
3535.39015,0.06006
3533.46140,0.05996
3531.53266,0.05980
3529.60391,0.05974
3527.67517,0.05973
3525.74642,0.05977
3523.81768,0.05983
3521.88893,0.06007
3519.96019,0.06043
3518.03144,0.06054
3516.10270,0.06025
3514.17395,0.05978
3512.24520,0.05960
3510.31646,0.05980
3508.38771,0.05986
3506.45897,0.05954
3504.53022,0.05934
3502.60148,0.05967
3500.67273,0.06013
3498.74399,0.06024
3496.81524,0.05990
3494.88650,0.05925
3492.95775,0.05890
3491.02901,0.05913
3489.10026,0.05949
3487.17152,0.05955
3485.24277,0.05921
3483.31402,0.05881
3481.38528,0.05883
3479.45653,0.05910
3477.52779,0.05907
3475.59904,0.05891
3473.67030,0.05890
3471.74155,0.05876
3469.81281,0.05830
3467.88406,0.05787
3465.95532,0.05790
3464.02657,0.05811
3462.09783,0.05797
3460.16908,0.05754
3458.24034,0.05727
3456.31159,0.05736
3454.38285,0.05752
3452.45410,0.05736
3450.52535,0.05686
3448.59661,0.05658
3446.66786,0.05685
3444.73912,0.05730
3442.81037,0.05739
3440.88163,0.05702
3438.95288,0.05654
3437.02414,0.05626
3435.09539,0.05615
3433.16665,0.05609
3431.23790,0.05599
3429.30916,0.05600
3427.38041,0.05631
3425.45167,0.05667
3423.52292,0.05688
3421.59418,0.05694
3419.66543,0.05693
3417.73668,0.05691
3415.80794,0.05688
3413.87919,0.05685
3411.95045,0.05671
3410.02170,0.05656
3408.09296,0.05657
3406.16421,0.05652
3404.23547,0.05648
3402.30672,0.05666
3400.37798,0.05676
3398.44923,0.05657
3396.52049,0.05628
3394.59174,0.05602
3392.66300,0.05604
3390.73425,0.05624
3388.80550,0.05620
3386.87676,0.05589
3384.94801,0.05573
3383.01927,0.05582
3381.09052,0.05587
3379.16178,0.05578
3377.23303,0.05571
3375.30429,0.05581
3373.37554,0.05585
3371.44680,0.05558
3369.51805,0.05536
3367.58931,0.05563
3365.66056,0.05605
3363.73182,0.05607
3361.80307,0.05579
3359.87433,0.05569
3357.94558,0.05593
3356.01683,0.05626
3354.08809,0.05639
3352.15934,0.05626
3350.23060,0.05607
3348.30185,0.05599
3346.37311,0.05611
3344.44436,0.05645
3342.51562,0.05675
3340.58687,0.05658
3338.65813,0.05613
3336.72938,0.05603
3334.80064,0.05636
3332.87189,0.05669
3330.94315,0.05681
3329.01440,0.05658
3327.08566,0.05605
3325.15691,0.05578
3323.22816,0.05602
3321.29942,0.05636
3319.37067,0.05650
3317.44193,0.05645
3315.51318,0.05626
3313.58444,0.05609
3311.65569,0.05621
3309.72695,0.05655
3307.79820,0.05676
3305.86946,0.05667
3303.94071,0.05643
3302.01197,0.05633
3300.08322,0.05649
3298.15448,0.05664
3296.22573,0.05653
3294.29698,0.05630
3292.36824,0.05630
3290.43949,0.05649
3288.51075,0.05666
3286.58200,0.05679
3284.65326,0.05686
3282.72451,0.05693
3280.79577,0.05695
3278.86702,0.05667
3276.93828,0.05639
3275.00953,0.05659
3273.08079,0.05706
3271.15204,0.05724
3269.22330,0.05704
3267.29455,0.05672
3265.36581,0.05656
3263.43706,0.05652
3261.50831,0.05632
3259.57957,0.05603
3257.65082,0.05590
3255.72208,0.05609
3253.79333,0.05635
3251.86459,0.05631
3249.93584,0.05625
3248.00710,0.05645
3246.07835,0.05668
3244.14961,0.05661
3242.22086,0.05624
3240.29212,0.05592
3238.36337,0.05580
3236.43463,0.05587
3234.50588,0.05603
3232.57713,0.05586
3230.64839,0.05545
3228.71964,0.05549
3226.79090,0.05594
3224.86215,0.05615
3222.93341,0.05598
3221.00466,0.05571
3219.07592,0.05531
3217.14717,0.05488
3215.21843,0.05479
3213.28968,0.05497
3211.36094,0.05516
3209.43219,0.05545
3207.50345,0.05565
3205.57470,0.05546
3203.64596,0.05510
3201.71721,0.05482
3199.78846,0.05473
3197.85972,0.05487
3195.93097,0.05488
3194.00223,0.05465
3192.07348,0.05466
3190.14474,0.05497
3188.21599,0.05514
3186.28725,0.05516
3184.35850,0.05520
3182.42976,0.05525
3180.50101,0.05522
3178.57227,0.05507
3176.64352,0.05474
3174.71478,0.05438
3172.78603,0.05430
3170.85729,0.05447
3168.92854,0.05455
3166.99979,0.05451
3165.07105,0.05466
3163.14230,0.05490
3161.21356,0.05485
3159.28481,0.05456
3157.35607,0.05446
3155.42732,0.05467
3153.49858,0.05488
3151.56983,0.05474
3149.64109,0.05426
3147.71234,0.05380
3145.78360,0.05370
3143.85485,0.05394
3141.92611,0.05431
3139.99736,0.05460
3138.06861,0.05457
3136.13987,0.05432
3134.21112,0.05416
3132.28238,0.05428
3130.35363,0.05450
3128.42489,0.05447
3126.49614,0.05413
3124.56740,0.05379
3122.63865,0.05368
3120.70991,0.05378
3118.78116,0.05407
3116.85242,0.05438
3114.92367,0.05439
3112.99493,0.05406
3111.06618,0.05373
3109.13744,0.05360
3107.20869,0.05346
3105.27994,0.05334
3103.35120,0.05339
3101.42245,0.05344
3099.49371,0.05336
3097.56496,0.05323
3095.63622,0.05304
3093.70747,0.05291
3091.77873,0.05297
3089.84998,0.05295
3087.92124,0.05273
3085.99249,0.05257
3084.06375,0.05259
3082.13500,0.05261
3080.20626,0.05259
3078.27751,0.05256
3076.34877,0.05248
3074.42002,0.05232
3072.49127,0.05221
3070.56253,0.05234
3068.63378,0.05255
3066.70504,0.05248
3064.77629,0.05220
3062.84755,0.05208
3060.91880,0.05209
3058.99006,0.05200
3057.06131,0.05189
3055.13257,0.05171
3053.20382,0.05143
3051.27508,0.05142
3049.34633,0.05168
3047.41759,0.05173
3045.48884,0.05156
3043.56009,0.05144
3041.63135,0.05148
3039.70260,0.05151
3037.77386,0.05130
3035.84511,0.05100
3033.91637,0.05093
3031.98762,0.05104
3030.05888,0.05110
3028.13013,0.05105
3026.20139,0.05103
3024.27264,0.05105
3022.34390,0.05092
3020.41515,0.05066
3018.48641,0.05052
3016.55766,0.05051
3014.62892,0.05038
3012.70017,0.05004
3010.77142,0.04971
3008.84268,0.04975
3006.91393,0.05006
3004.98519,0.05016
3003.05644,0.04989
3001.12770,0.04950
2999.19895,0.04917
2997.27021,0.04891
2995.34146,0.04875
2993.41272,0.04862
2991.48397,0.04842
2989.55523,0.04816
2987.62648,0.04789
2985.69774,0.04771
2983.76899,0.04770
2981.84025,0.04759
2979.91150,0.04719
2977.98275,0.04677
2976.05401,0.04645
2974.12526,0.04612
2972.19652,0.04572
2970.26777,0.04531
2968.33903,0.04505
2966.41028,0.04484
2964.48154,0.04462
2962.55279,0.04452
2960.62405,0.04437
2958.69530,0.04394
2956.76656,0.04335
2954.83781,0.04276
2952.90907,0.04227
2950.98032,0.04192
2949.05157,0.04154
2947.12283,0.04089
2945.19408,0.03997
2943.26534,0.03894
2941.33659,0.03780
2939.40785,0.03664
2937.47910,0.03586
2935.55036,0.03563
2933.62161,0.03575
2931.69287,0.03614
2929.76412,0.03722
2927.83538,0.03959
2925.90663,0.04364
2923.97789,0.04953
2922.04914,0.05724
2920.12040,0.06642
2918.19165,0.07553
2916.26290,0.08186
2914.33416,0.08368
2912.40541,0.08170
2910.47667,0.07818
2908.54792,0.07507
2906.61918,0.07279
2904.69043,0.07080
2902.76169,0.06894
2900.83294,0.06757
2898.90420,0.06674
2896.97545,0.06613
2895.04671,0.06561
2893.11796,0.06521
2891.18922,0.06485
2889.26047,0.06422
2887.33172,0.06331
2885.40298,0.06254
2883.47423,0.06203
2881.54549,0.06157
2879.61674,0.06110
2877.68800,0.06056
2875.75925,0.05986
2873.83051,0.05903
2871.90176,0.05804
2869.97302,0.05688
2868.04427,0.05579
2866.11553,0.05474
2864.18678,0.05351
2862.25804,0.05228
2860.32929,0.05123
2858.40055,0.05052
2856.47180,0.05058
2854.54305,0.05215
2852.61431,0.05658
2850.68556,0.06457
2848.75682,0.07361
2846.82807,0.07920
2844.89933,0.07983
2842.97058,0.07771
2841.04184,0.07517
2839.11309,0.07302
2837.18435,0.07122
2835.25560,0.06972
2833.32686,0.06854
2831.39811,0.06765
2829.46937,0.06704
2827.54062,0.06670
2825.61188,0.06643
2823.68313,0.06602
2821.75438,0.06554
2819.82564,0.06507
2817.89689,0.06461
2815.96815,0.06427
2814.03940,0.06403
2812.11066,0.06370
2810.18191,0.06328
2808.25317,0.06305
2806.32442,0.06308
2804.39568,0.06313
2802.46693,0.06289
2800.53819,0.06241
2798.60944,0.06205
2796.68070,0.06199
2794.75195,0.06211
2792.82320,0.06213
2790.89446,0.06191
2788.96571,0.06169
2787.03697,0.06161
2785.10822,0.06154
2783.17948,0.06154
2781.25073,0.06163
2779.32199,0.06175
2777.39324,0.06180
2775.46450,0.06164
2773.53575,0.06130
2771.60701,0.06095
2769.67826,0.06069
2767.74952,0.06068
2765.82077,0.06085
2763.89203,0.06092
2761.96328,0.06087
2760.03453,0.06073
2758.10579,0.06052
2756.17704,0.06046
2754.24830,0.06061
2752.31955,0.06072
2750.39081,0.06069
2748.46206,0.06048
2746.53332,0.06023
2744.60457,0.06011
2742.67583,0.05997
2740.74708,0.05971
2738.81834,0.05963
2736.88959,0.05988
2734.96085,0.06012
2733.03210,0.06007
2731.10336,0.05992
2729.17461,0.05991
2727.24586,0.06009
2725.31712,0.06021
2723.38837,0.05997
2721.45963,0.05953
2719.53088,0.05931
2717.60214,0.05933
2715.67339,0.05936
2713.74465,0.05937
2711.81590,0.05941
2709.88716,0.05944
2707.95841,0.05950
2706.02967,0.05958
2704.10092,0.05951
2702.17218,0.05925
2700.24343,0.05914
2698.31468,0.05918
2696.38594,0.05911
2694.45719,0.05900
2692.52845,0.05905
2690.59970,0.05924
2688.67096,0.05948
2686.74221,0.05952
2684.81347,0.05931
2682.88472,0.05928
2680.95598,0.05956
2679.02723,0.05963
2677.09849,0.05942
2675.16974,0.05932
2673.24100,0.05927
2671.31225,0.05911
2669.38351,0.05903
2667.45476,0.05912
2665.52601,0.05917
2663.59727,0.05904
2661.66852,0.05897
2659.73978,0.05908
2657.81103,0.05908
2655.88229,0.05893
2653.95354,0.05891
2652.02480,0.05906
2650.09605,0.05920
2648.16731,0.05919
2646.23856,0.05905
2644.30982,0.05903
2642.38107,0.05909
2640.45233,0.05911
2638.52358,0.05910
2636.59484,0.05900
2634.66609,0.05884
2632.73734,0.05870
2630.80860,0.05865
2628.87985,0.05867
2626.95111,0.05865
2625.02236,0.05865
2623.09362,0.05865
2621.16487,0.05856
2619.23613,0.05848
2617.30738,0.05855
2615.37864,0.05872
2613.44989,0.05883
2611.52115,0.05881
2609.59240,0.05883
2607.66366,0.05888
2605.73491,0.05882
2603.80616,0.05867
2601.87742,0.05862
2599.94867,0.05869
2598.01993,0.05876
2596.09118,0.05881
2594.16244,0.05882
2592.23369,0.05869
2590.30495,0.05846
2588.37620,0.05834
2586.44746,0.05834
2584.51871,0.05848
2582.58997,0.05876
2580.66122,0.05905
2578.73248,0.05919
2576.80373,0.05918
2574.87499,0.05901
2572.94624,0.05872
2571.01749,0.05844
2569.08875,0.05832
2567.16000,0.05833
2565.23126,0.05839
2563.30251,0.05853
2561.37377,0.05869
2559.44502,0.05874
2557.51628,0.05872
2555.58753,0.05865
2553.65879,0.05854
2551.73004,0.05860
2549.80130,0.05878
2547.87255,0.05883
2545.94381,0.05856
2544.01506,0.05828
2542.08631,0.05836
2540.15757,0.05856
2538.22882,0.05854
2536.30008,0.05843
2534.37133,0.05844
2532.44259,0.05858
2530.51384,0.05882
2528.58510,0.05888
2526.65635,0.05869
2524.72761,0.05856
2522.79886,0.05855
2520.87012,0.05850
2518.94137,0.05842
2517.01263,0.05846
2515.08388,0.05862
2513.15514,0.05867
2511.22639,0.05855
2509.29764,0.05838
2507.36890,0.05833
2505.44015,0.05846
2503.51141,0.05863
2501.58266,0.05872
2499.65392,0.05870
2497.72517,0.05857
2495.79643,0.05838
2493.86768,0.05829
2491.93894,0.05840
2490.01019,0.05857
2488.08145,0.05864
2486.15270,0.05855
2484.22396,0.05833
2482.29521,0.05820
2480.36647,0.05831
2478.43772,0.05848
2476.50897,0.05853
2474.58023,0.05859
2472.65148,0.05868
2470.72274,0.05859
2468.79399,0.05831
2466.86525,0.05812
2464.93650,0.05824
2463.00776,0.05860
2461.07901,0.05885
2459.15027,0.05874
2457.22152,0.05856
2455.29278,0.05860
2453.36403,0.05878
2451.43529,0.05892
2449.50654,0.05901
2447.57779,0.05904
2445.64905,0.05905
2443.72030,0.05908
2441.79156,0.05900
2439.86281,0.05876
2437.93407,0.05863
2436.00532,0.05873
2434.07658,0.05876
2432.14783,0.05861
2430.21909,0.05845
2428.29034,0.05838
2426.36160,0.05845
2424.43285,0.05856
2422.50411,0.05847
2420.57536,0.05825
2418.64662,0.05812
2416.71787,0.05810
2414.78912,0.05822
2412.86038,0.05842
2410.93163,0.05841
2409.00289,0.05820
2407.07414,0.05812
2405.14540,0.05823
2403.21665,0.05837
2401.28791,0.05845
2399.35916,0.05844
2397.43042,0.05832
2395.50167,0.05818
2393.57293,0.05809
2391.64418,0.05811
2389.71544,0.05820
2387.78669,0.05821
2385.85795,0.05811
2383.92920,0.05807
2382.00045,0.05825
2380.07171,0.05847
2378.14296,0.05840
2376.21422,0.05811
2374.28547,0.05797
2372.35673,0.05807
2370.42798,0.05822
2368.49924,0.05826
2366.57049,0.05816
2364.64175,0.05805
2362.71300,0.05804
2360.78426,0.05803
2358.85551,0.05804
2356.92677,0.05815
2354.99802,0.05830
2353.06927,0.05837
2351.14053,0.05830
2349.21178,0.05818
2347.28304,0.05810
2345.35429,0.05799
2343.42555,0.05791
2341.49680,0.05790
2339.56806,0.05789
2337.63931,0.05789
2335.71057,0.05785
2333.78182,0.05777
2331.85308,0.05789
2329.92433,0.05809
2327.99559,0.05812
2326.06684,0.05799
2324.13810,0.05791
2322.20935,0.05800
2320.28060,0.05810
2318.35186,0.05806
2316.42311,0.05802
2314.49437,0.05809
2312.56562,0.05811
2310.63688,0.05803
2308.70813,0.05796
2306.77939,0.05791
2304.85064,0.05781
2302.92190,0.05774
2300.99315,0.05781
2299.06441,0.05795
2297.13566,0.05798
2295.20692,0.05803
2293.27817,0.05822
2291.34943,0.05845
2289.42068,0.05859
2287.49193,0.05865
2285.56319,0.05858
2283.63444,0.05829
2281.70570,0.05806
2279.77695,0.05810
2277.84821,0.05817
2275.91946,0.05811
2273.99072,0.05805
2272.06197,0.05806
2270.13323,0.05819
2268.20448,0.05839
2266.27574,0.05863
2264.34699,0.05884
2262.41825,0.05887
2260.48950,0.05864
2258.56075,0.05836
2256.63201,0.05831
2254.70326,0.05845
2252.77452,0.05861
2250.84577,0.05864
2248.91703,0.05853
2246.98828,0.05840
2245.05954,0.05835
2243.13079,0.05839
2241.20205,0.05858
2239.27330,0.05893
2237.34456,0.05935
2235.41581,0.05974
2233.48707,0.06011
2231.55832,0.06044
2229.62958,0.06057
2227.70083,0.06044
2225.77208,0.06017
2223.84334,0.05990
2221.91459,0.05975
2219.98585,0.05976
2218.05710,0.06002
2216.12836,0.06042
2214.19961,0.06062
2212.27087,0.06059
2210.34212,0.06061
2208.41338,0.06070
2206.48463,0.06074
2204.55589,0.06068
2202.62714,0.06056
2200.69840,0.06052
2198.76965,0.06069
2196.84090,0.06091
2194.91216,0.06089
2192.98341,0.06065
2191.05467,0.06044
2189.12592,0.06032
2187.19718,0.06018
2185.26843,0.06010
2183.33969,0.06013
2181.41094,0.06003
2179.48220,0.05990
2177.55345,0.05996
2175.62471,0.06010
2173.69596,0.06014
2171.76722,0.06011
2169.83847,0.06004
2167.90973,0.06001
2165.98098,0.06007
2164.05223,0.06009
2162.12349,0.05987
2160.19474,0.05950
2158.26600,0.05918
2156.33725,0.05895
2154.40851,0.05876
2152.47976,0.05868
2150.55102,0.05882
2148.62227,0.05899
2146.69353,0.05903
2144.76478,0.05901
2142.83604,0.05915
2140.90729,0.05956
2138.97855,0.06009
2137.04980,0.06048
2135.12106,0.06086
2133.19231,0.06160
2131.26356,0.06254
2129.33482,0.06328
2127.40607,0.06384
2125.47733,0.06439
2123.54858,0.06480
2121.61984,0.06499
2119.69109,0.06520
2117.76235,0.06548
2115.83360,0.06572
2113.90486,0.06585
2111.97611,0.06586
2110.04737,0.06582
2108.11862,0.06592
2106.18988,0.06607
2104.26113,0.06603
2102.33238,0.06591
2100.40364,0.06590
2098.47489,0.06579
2096.54615,0.06546
2094.61740,0.06515
2092.68866,0.06499
2090.75991,0.06483
2088.83117,0.06462
2086.90242,0.06434
2084.97368,0.06406
2083.04493,0.06380
2081.11619,0.06351
2079.18744,0.06313
2077.25870,0.06280
2075.32995,0.06262
2073.40121,0.06241
2071.47246,0.06201
2069.54371,0.06157
2067.61497,0.06120
2065.68622,0.06093
2063.75748,0.06069
2061.82873,0.06050
2059.89999,0.06035
2057.97124,0.06007
2056.04250,0.05967
2054.11375,0.05942
2052.18501,0.05927
2050.25626,0.05911
2048.32752,0.05895
2046.39877,0.05880
2044.47003,0.05868
2042.54128,0.05850
2040.61254,0.05825
2038.68379,0.05808
2036.75504,0.05805
2034.82630,0.05810
2032.89755,0.05819
2030.96881,0.05824
2029.04006,0.05820
2027.11132,0.05804
2025.18257,0.05779
2023.25383,0.05760
2021.32508,0.05766
2019.39634,0.05783
2017.46759,0.05792
2015.53885,0.05798
2013.61010,0.05810
2011.68136,0.05828
2009.75261,0.05864
2007.82386,0.05927
2005.89512,0.06009
2003.96637,0.06098
2002.03763,0.06189
2000.10888,0.06281
1998.18014,0.06377
1996.25139,0.06470
1994.32265,0.06545
1992.39390,0.06609
1990.46516,0.06674
1988.53641,0.06730
1986.60767,0.06771
1984.67892,0.06802
1982.75018,0.06837
1980.82143,0.06872
1978.89269,0.06880
1976.96394,0.06861
1975.03519,0.06832
1973.10645,0.06802
1971.17770,0.06765
1969.24896,0.06719
1967.32021,0.06669
1965.39147,0.06618
1963.46272,0.06578
1961.53398,0.06555
1959.60523,0.06545
1957.67649,0.06542
1955.74774,0.06542
1953.81900,0.06536
1951.89025,0.06526
1949.96151,0.06517
1948.03276,0.06516
1946.10402,0.06515
1944.17527,0.06496
1942.24652,0.06463
1940.31778,0.06433
1938.38903,0.06411
1936.46029,0.06403
1934.53154,0.06391
1932.60280,0.06364
1930.67405,0.06338
1928.74531,0.06314
1926.81656,0.06282
1924.88782,0.06254
1922.95907,0.06220
1921.03033,0.06174
1919.10158,0.06139
1917.17284,0.06114
1915.24409,0.06069
1913.31534,0.06013
1911.38660,0.05976
1909.45785,0.05954
1907.52911,0.05933
1905.60036,0.05915
1903.67162,0.05892
1901.74287,0.05862
1899.81413,0.05840
1897.88538,0.05831
1895.95664,0.05825
1894.02789,0.05824
1892.09915,0.05849
1890.17040,0.05909
1888.24166,0.05994
1886.31291,0.06103
1884.38417,0.06248
1882.45542,0.06412
1880.52667,0.06572
1878.59793,0.06720
1876.66918,0.06851
1874.74044,0.06963
1872.81169,0.07071
1870.88295,0.07174
1868.95420,0.07275
1867.02546,0.07395
1865.09671,0.07530
1863.16797,0.07646
1861.23922,0.07734
1859.31048,0.07816
1857.38173,0.07906
1855.45299,0.07992
1853.52424,0.08061
1851.59549,0.08124
1849.66675,0.08185
1847.73800,0.08230
1845.80926,0.08243
1843.88051,0.08222
1841.95177,0.08181
1840.02302,0.08125
1838.09428,0.08064
1836.16553,0.08013
1834.23679,0.07949
1832.30804,0.07835
1830.37930,0.07659
1828.45055,0.07434
1826.52181,0.07180
1824.59306,0.06917
1822.66432,0.06694
1820.73557,0.06554
1818.80682,0.06502
1816.87808,0.06520
1814.94933,0.06576
1813.02059,0.06647
1811.09184,0.06722
1809.16310,0.06788
1807.23435,0.06843
1805.30561,0.06895
1803.37686,0.06947
1801.44812,0.06999
1799.51937,0.07045
1797.59063,0.07070
1795.66188,0.07079
1793.73314,0.07088
1791.80439,0.07101
1789.87565,0.07103
1787.94690,0.07103
1786.01815,0.07114
1784.08941,0.07119
1782.16066,0.07106
1780.23192,0.07089
1778.30317,0.07085
1776.37443,0.07086
1774.44568,0.07072
1772.51694,0.07042
1770.58819,0.07005
1768.65945,0.06971
1766.73070,0.06947
1764.80196,0.06932
1762.87321,0.06908
1760.94447,0.06866
1759.01572,0.06823
1757.08697,0.06771
1755.15823,0.06715
1753.22948,0.06681
1751.30074,0.06638
1749.37199,0.06550
1747.44325,0.06448
1745.51450,0.06375
1743.58576,0.06314
1741.65701,0.06237
1739.72827,0.06154
1737.79952,0.06081
1735.87078,0.06001
1733.94203,0.05907
1732.01329,0.05844
1730.08454,0.05812
1728.15580,0.05774
1726.22705,0.05727
1724.29830,0.05688
1722.36956,0.05668
1720.44081,0.05666
1718.51207,0.05682
1716.58332,0.05709
1714.65458,0.05726
1712.72583,0.05754
1710.79709,0.05794
1708.86834,0.05816
1706.93960,0.05825
1705.01085,0.05843
1703.08211,0.05866
1701.15336,0.05882
1699.22462,0.05888
1697.29587,0.05886
1695.36713,0.05882
1693.43838,0.05884
1691.50963,0.05888
1689.58089,0.05900
1687.65214,0.05921
1685.72340,0.05928
1683.79465,0.05912
1681.86591,0.05885
1679.93716,0.05857
1678.00842,0.05844
1676.07967,0.05860
1674.15093,0.05880
1672.22218,0.05881
1670.29344,0.05873
1668.36469,0.05852
1666.43595,0.05810
1664.50720,0.05764
1662.57845,0.05723
1660.64971,0.05697
1658.72096,0.05700
1656.79222,0.05724
1654.86347,0.05743
1652.93473,0.05728
1651.00598,0.05692
1649.07724,0.05665
1647.14849,0.05647
1645.21975,0.05642
1643.29100,0.05645
1641.36226,0.05645
1639.43351,0.05650
1637.50477,0.05672
1635.57602,0.05690
1633.64728,0.05679
1631.71853,0.05656
1629.78978,0.05654
1627.86104,0.05680
1625.93229,0.05710
1624.00355,0.05709
1622.07480,0.05673
1620.14606,0.05637
1618.21731,0.05631
1616.28857,0.05651
1614.35982,0.05663
1612.43108,0.05659
1610.50233,0.05659
1608.57359,0.05662
1606.64484,0.05653
1604.71610,0.05633
1602.78735,0.05615
1600.85861,0.05613
1598.92986,0.05628
1597.00111,0.05639
1595.07237,0.05637
1593.14362,0.05640
1591.21488,0.05648
1589.28613,0.05649
1587.35739,0.05648
1585.42864,0.05654
1583.49990,0.05653
1581.57115,0.05634
1579.64241,0.05617
1577.71366,0.05610
1575.78492,0.05608
1573.85617,0.05610
1571.92743,0.05624
1569.99868,0.05635
1568.06993,0.05631
1566.14119,0.05619
1564.21244,0.05603
1562.28370,0.05595
1560.35495,0.05601
1558.42621,0.05604
1556.49746,0.05593
1554.56872,0.05571
1552.63997,0.05554
1550.71123,0.05554
1548.78248,0.05556
1546.85374,0.05543
1544.92499,0.05530
1542.99625,0.05540
1541.06750,0.05571
1539.13876,0.05582
1537.21001,0.05571
1535.28126,0.05571
1533.35252,0.05569
1531.42377,0.05556
1529.49503,0.05550
1527.56628,0.05548
1525.63754,0.05549
1523.70879,0.05555
1521.78005,0.05555
1519.85130,0.05541
1517.92256,0.05524
1515.99381,0.05520
1514.06507,0.05532
1512.13632,0.05535
1510.20758,0.05526
1508.27883,0.05529
1506.35008,0.05545
1504.42134,0.05543
1502.49259,0.05520
1500.56385,0.05503
1498.63510,0.05504
1496.70636,0.05504
1494.77761,0.05486
1492.84887,0.05463
1490.92012,0.05444
1488.99138,0.05427
1487.06263,0.05412
1485.13389,0.05397
1483.20514,0.05371
1481.27640,0.05316
1479.34765,0.05221
1477.41891,0.05101
1475.49016,0.05034
1473.56141,0.05139
1471.63267,0.05361
1469.70392,0.05507
1467.77518,0.05554
1465.84643,0.05598
1463.91769,0.05727
1461.98894,0.05913
1460.06020,0.06029
1458.13145,0.06035
1456.20271,0.05994
1454.27396,0.05965
1452.34522,0.05950
1450.41647,0.05937
1448.48773,0.05918
1446.55898,0.05896
1444.63024,0.05886
1442.70149,0.05894
1440.77274,0.05899
1438.84400,0.05900
1436.91525,0.05895
1434.98651,0.05882
1433.05776,0.05874
1431.12902,0.05872
1429.20027,0.05863
1427.27153,0.05855
1425.34278,0.05854
1423.41404,0.05850
1421.48529,0.05839
1419.55655,0.05833
1417.62780,0.05820
1415.69906,0.05791
1413.77031,0.05764
1411.84156,0.05759
1409.91282,0.05764
1407.98407,0.05763
1406.05533,0.05765
1404.12658,0.05773
1402.19784,0.05763
1400.26909,0.05743
1398.34035,0.05738
1396.41160,0.05742
1394.48286,0.05739
1392.55411,0.05726
1390.62537,0.05711
1388.69662,0.05694
1386.76788,0.05678
1384.83913,0.05676
1382.91039,0.05694
1380.98164,0.05705
1379.05289,0.05693
1377.12415,0.05679
1375.19540,0.05673
1373.26666,0.05677
1371.33791,0.05704
1369.40917,0.05738
1367.48042,0.05757
1365.55168,0.05757
1363.62293,0.05738
1361.69419,0.05724
1359.76544,0.05733
1357.83670,0.05749
1355.90795,0.05758
1353.97921,0.05755
1352.05046,0.05740
1350.12172,0.05733
1348.19297,0.05745
1346.26422,0.05766
1344.33548,0.05784
1342.40673,0.05783
1340.47799,0.05761
1338.54924,0.05742
1336.62050,0.05747
1334.69175,0.05759
1332.76301,0.05752
1330.83426,0.05734
1328.90552,0.05726
1326.97677,0.05733
1325.04803,0.05743
1323.11928,0.05750
1321.19054,0.05747
1319.26179,0.05742
1317.33304,0.05745
1315.40430,0.05750
1313.47555,0.05744
1311.54681,0.05734
1309.61806,0.05729
1307.68932,0.05729
1305.76057,0.05727
1303.83183,0.05719
1301.90308,0.05712
1299.97434,0.05709
1298.04559,0.05710
1296.11685,0.05722
1294.18810,0.05741
1292.25936,0.05758
1290.33061,0.05768
1288.40187,0.05763
1286.47312,0.05750
1284.54437,0.05750
1282.61563,0.05759
1280.68688,0.05766
1278.75814,0.05761
1276.82939,0.05742
1274.90065,0.05730
1272.97190,0.05742
1271.04316,0.05757
1269.11441,0.05750
1267.18567,0.05742
1265.25692,0.05750
1263.32818,0.05754
1261.39943,0.05754
1259.47069,0.05752
1257.54194,0.05741
1255.61320,0.05737
1253.68445,0.05758
1251.75570,0.05785
1249.82696,0.05786
1247.89821,0.05758
1245.96947,0.05731
1244.04072,0.05733
1242.11198,0.05753
1240.18323,0.05762
1238.25449,0.05757
1236.32574,0.05764
1234.39700,0.05785
1232.46825,0.05798
1230.53951,0.05796
1228.61076,0.05785
1226.68202,0.05766
1224.75327,0.05744
1222.82452,0.05743
1220.89578,0.05760
1218.96703,0.05760
1217.03829,0.05741
1215.10954,0.05739
1213.18080,0.05759
1211.25205,0.05768
1209.32331,0.05764
1207.39456,0.05766
1205.46582,0.05771
1203.53707,0.05759
1201.60833,0.05727
1199.67958,0.05707
1197.75084,0.05718
1195.82209,0.05724
1193.89335,0.05706
1191.96460,0.05698
1190.03585,0.05704
1188.10711,0.05700
1186.17836,0.05700
1184.24962,0.05714
1182.32087,0.05725
1180.39213,0.05735
1178.46338,0.05746
1176.53464,0.05751
1174.60589,0.05745
1172.67715,0.05726
1170.74840,0.05713
1168.81966,0.05717
1166.89091,0.05718
1164.96217,0.05708
1163.03342,0.05701
1161.10467,0.05708
1159.17593,0.05734
1157.24718,0.05774
1155.31844,0.05798
1153.38969,0.05787
1151.46095,0.05757
1149.53220,0.05714
1147.60346,0.05656
1145.67471,0.05614
1143.74597,0.05621
1141.81722,0.05660
1139.88848,0.05684
1137.95973,0.05677
1136.03099,0.05675
1134.10224,0.05695
1132.17350,0.05722
1130.24475,0.05740
1128.31600,0.05734
1126.38726,0.05719
1124.45851,0.05721
1122.52977,0.05726
1120.60102,0.05713
1118.67228,0.05713
1116.74353,0.05739
1114.81479,0.05765
1112.88604,0.05761
1110.95730,0.05728
1109.02855,0.05701
1107.09981,0.05707
1105.17106,0.05721
1103.24232,0.05715
1101.31357,0.05697
1099.38483,0.05684
1097.45608,0.05681
1095.52733,0.05687
1093.59859,0.05684
1091.66984,0.05670
1089.74110,0.05656
1087.81235,0.05651
1085.88361,0.05656
1083.95486,0.05660
1082.02612,0.05654
1080.09737,0.05665
1078.16863,0.05695
1076.23988,0.05706
1074.31114,0.05693
1072.38239,0.05688
1070.45365,0.05692
1068.52490,0.05693
1066.59615,0.05692
1064.66741,0.05704
1062.73866,0.05740
1060.80992,0.05769
1058.88117,0.05760
1056.95243,0.05737
1055.02368,0.05723
1053.09494,0.05712
1051.16619,0.05709
1049.23745,0.05710
1047.30870,0.05702
1045.37996,0.05699
1043.45121,0.05728
1041.52247,0.05766
1039.59372,0.05763
1037.66498,0.05738
1035.73623,0.05755
1033.80748,0.05794
1031.87874,0.05801
1029.94999,0.05790
1028.02125,0.05790
1026.09250,0.05795
1024.16376,0.05795
1022.23501,0.05790
1020.30627,0.05782
1018.37752,0.05780
1016.44878,0.05789
1014.52003,0.05798
1012.59129,0.05805
1010.66254,0.05802
1008.73380,0.05774
1006.80505,0.05731
1004.87631,0.05714
1002.94756,0.05743
1001.01881,0.05785
999.09007,0.05801
997.16132,0.05789
995.23258,0.05777
993.30383,0.05780
991.37509,0.05792
989.44634,0.05800
987.51760,0.05795
985.58885,0.05791
983.66011,0.05800
981.73136,0.05806
979.80262,0.05781
977.87387,0.05738
975.94513,0.05719
974.01638,0.05725
972.08763,0.05725
970.15889,0.05730
968.23014,0.05754
966.30140,0.05779
964.37265,0.05787
962.44391,0.05780
960.51516,0.05759
958.58642,0.05743
956.65767,0.05754
954.72893,0.05780
952.80018,0.05799
950.87144,0.05803
948.94269,0.05791
947.01395,0.05772
945.08520,0.05755
943.15646,0.05727
941.22771,0.05692
939.29896,0.05673
937.37022,0.05673
935.44147,0.05688
933.51273,0.05719
931.58398,0.05756
929.65524,0.05795
927.72649,0.05828
925.79775,0.05843
923.86900,0.05848
921.94026,0.05855
920.01151,0.05844
918.08277,0.05806
916.15402,0.05773
914.22528,0.05764
912.29653,0.05759
910.36779,0.05747
908.43904,0.05736
906.51029,0.05737
904.58155,0.05744
902.65280,0.05737
900.72406,0.05714
898.79531,0.05699
896.86657,0.05702
894.93782,0.05704
893.00908,0.05688
891.08033,0.05683
889.15159,0.05711
887.22284,0.05750
885.29410,0.05748
883.36535,0.05704
881.43661,0.05675
879.50786,0.05676
877.57911,0.05672
875.65037,0.05645
873.72162,0.05634
871.79288,0.05657
869.86413,0.05694
867.93539,0.05736
866.00664,0.05771
864.07790,0.05775
862.14915,0.05757
860.22041,0.05751
858.29166,0.05769
856.36292,0.05787
854.43417,0.05781
852.50543,0.05757
850.57668,0.05732
848.64794,0.05699
846.71919,0.05654
844.79044,0.05637
842.86170,0.05666
840.93295,0.05696
839.00421,0.05684
837.07546,0.05650
835.14672,0.05633
833.21797,0.05657
831.28923,0.05728
829.36048,0.05794
827.43174,0.05810
825.50299,0.05793
823.57425,0.05758
821.64550,0.05721
819.71676,0.05689
817.78801,0.05672
815.85926,0.05686
813.93052,0.05711
812.00177,0.05725
810.07303,0.05731
808.14428,0.05712
806.21554,0.05674
804.28679,0.05677
802.35805,0.05718
800.42930,0.05735
798.50056,0.05738
796.57181,0.05755
794.64307,0.05754
792.71432,0.05717
790.78558,0.05697
788.85683,0.05710
786.92809,0.05701
784.99934,0.05669
783.07059,0.05656
781.14185,0.05652
779.21310,0.05633
777.28436,0.05616
775.35561,0.05608
773.42687,0.05613
771.49812,0.05647
769.56938,0.05701
767.64063,0.05732
765.71189,0.05699
763.78314,0.05639
761.85440,0.05614
759.92565,0.05611
757.99691,0.05615
756.06816,0.05624
754.13942,0.05607
752.21067,0.05561
750.28192,0.05495
748.35318,0.05435
746.42443,0.05427
744.49569,0.05458
742.56694,0.05463
740.63820,0.05431
738.70945,0.05392
736.78071,0.05323
734.85196,0.05222
732.92322,0.05193
730.99447,0.05317
729.06573,0.05515
727.13698,0.05630
725.20824,0.05618
723.27949,0.05565
721.35074,0.05640
719.42200,0.05907
717.49325,0.06178
715.56451,0.06253
713.63576,0.06147
711.70702,0.05997
709.77827,0.05933
707.84953,0.05957
705.92078,0.05980
703.99204,0.05975
702.06329,0.05946
700.13455,0.05914
698.20580,0.05910
696.27706,0.05900
694.34831,0.05834
692.41957,0.05756
690.49082,0.05761
688.56207,0.05823
686.63333,0.05828
684.70458,0.05786
682.77584,0.05803
680.84709,0.05874
678.91835,0.05932
676.98960,0.05984
675.06086,0.06052
673.13211,0.06120
671.20337,0.06209
669.27462,0.06345
667.34588,0.06480
665.41713,0.06563
663.48839,0.06610
661.55964,0.06640
659.63090,0.06723
657.70215,0.06965
655.77340,0.07341
653.84466,0.07734
651.91591,0.08077
649.98717,0.08341
648.05842,0.08524
646.12968,0.08674
644.20093,0.08880
642.27219,0.09159
640.34344,0.09434
638.41470,0.09668
636.48595,0.09892
634.55721,0.10104
632.62846,0.10300
630.69972,0.10484
628.77097,0.10593
626.84222,0.10640
624.91348,0.10753
622.98473,0.10918
621.05599,0.11023
619.12724,0.11052
617.19850,0.11066
615.26975,0.11074
613.34101,0.11007
611.41226,0.10851
609.48352,0.10661
607.55477,0.10461
605.62603,0.10174
603.69728,0.09744
601.76854,0.09311
599.83979,0.09019
