7497.03301,0.48972
7495.10426,0.49452
7493.17552,0.49788
7491.24677,0.49977
7489.31803,0.50178
7487.38928,0.50110
7485.46054,0.49505
7483.53179,0.48901
7481.60305,0.48877
7479.67430,0.49221
7477.74556,0.49512
7475.81681,0.49515
7473.88807,0.49196
7471.95932,0.49053
7470.03057,0.49273
7468.10183,0.49338
7466.17308,0.49060
7464.24434,0.48725
7462.31559,0.48698
7460.38685,0.48960
7458.45810,0.48932
7456.52936,0.48616
7454.60061,0.48519
7452.67187,0.48513
7450.74312,0.48627
7448.81438,0.49162
7446.88563,0.49458
7444.95689,0.49018
7443.02814,0.48768
7441.09940,0.49329
7439.17065,0.49742
7437.24190,0.49121
7435.31316,0.48174
7433.38441,0.47941
7431.45567,0.48382
7429.52692,0.48927
7427.59818,0.49397
7425.66943,0.49852
7423.74069,0.49950
7421.81194,0.49454
7419.88320,0.48803
7417.95445,0.48445
7416.02571,0.48485
7414.09696,0.48861
7412.16822,0.49168
7410.23947,0.49088
7408.31073,0.48977
7406.38198,0.49097
7404.45323,0.49068
7402.52449,0.48663
7400.59574,0.48263
7398.66700,0.48376
7396.73825,0.48886
7394.80951,0.49088
7392.88076,0.48834
7390.95202,0.48482
7389.02327,0.48047
7387.09453,0.47653
7385.16578,0.47549
7383.23704,0.47663
7381.30829,0.47834
7379.37955,0.47914
7377.45080,0.47841
7375.52205,0.47608
7373.59331,0.47325
7371.66456,0.47203
7369.73582,0.47091
7367.80707,0.46918
7365.87833,0.46899
7363.94958,0.46931
7362.02084,0.46952
7360.09209,0.46886
7358.16335,0.46478
7356.23460,0.46114
7354.30586,0.46270
7352.37711,0.46510
7350.44837,0.46250
7348.51962,0.45552
7346.59088,0.44831
7344.66213,0.44553
7342.73338,0.44875
7340.80464,0.45397
7338.87589,0.45555
7336.94715,0.45243
7335.01840,0.44930
7333.08966,0.44872
7331.16091,0.44694
7329.23217,0.44295
7327.30342,0.44082
7325.37468,0.44239
7323.44593,0.44570
7321.51719,0.44697
7319.58844,0.44406
7317.65970,0.43960
7315.73095,0.43561
7313.80221,0.43051
7311.87346,0.42554
7309.94471,0.42419
7308.01597,0.42524
7306.08722,0.42543
7304.15848,0.42559
7302.22973,0.42665
7300.30099,0.42587
7298.37224,0.42329
7296.44350,0.42077
7294.51475,0.41551
7292.58601,0.40760
7290.65726,0.40328
7288.72852,0.40299
7286.79977,0.40160
7284.87103,0.39873
7282.94228,0.39706
7281.01353,0.39646
7279.08479,0.39418
7277.15604,0.38839
7275.22730,0.38104
7273.29855,0.37447
7271.36981,0.37016
7269.44106,0.36946
7267.51232,0.37129
7265.58357,0.37269
7263.65483,0.37195
7261.72608,0.36964
7259.79734,0.36594
7257.86859,0.36138
7255.93985,0.35895
7254.01110,0.35859
7252.08236,0.35809
7250.15361,0.35679
7248.22486,0.35293
7246.29612,0.34653
7244.36737,0.34062
7242.43863,0.33546
7240.50988,0.32929
7238.58114,0.32365
7236.65239,0.32150
7234.72365,0.32140
7232.79490,0.31981
7230.86616,0.31651
7228.93741,0.31293
7227.00867,0.30872
7225.07992,0.30362
7223.15118,0.30059
7221.22243,0.30088
7219.29369,0.29898
7217.36494,0.29145
7215.43619,0.28201
7213.50745,0.27383
7211.57870,0.26937
7209.64996,0.26927
7207.72121,0.26828
7205.79247,0.26375
7203.86372,0.25642
7201.93498,0.24662
7200.00623,0.23969
7198.07749,0.23723
7196.14874,0.23347
7194.22000,0.22816
7192.29125,0.22372
7190.36251,0.21813
7188.43376,0.20981
7186.50501,0.20124
7184.57627,0.19576
7182.64752,0.19328
7180.71878,0.19135
7178.79003,0.18755
7176.86129,0.18055
7174.93254,0.17335
7173.00380,0.17193
7171.07505,0.17792
7169.14631,0.18737
7167.21756,0.19561
7165.28882,0.20212
7163.36007,0.20964
7161.43133,0.21721
7159.50258,0.22412
7157.57384,0.23260
7155.64509,0.24135
7153.71634,0.24817
7151.78760,0.25218
7149.85885,0.25425
7147.93011,0.25748
7146.00136,0.26207
7144.07262,0.26636
7142.14387,0.26915
7140.21513,0.26949
7138.28638,0.26791
7136.35764,0.26622
7134.42889,0.26742
7132.50015,0.27211
7130.57140,0.27622
7128.64266,0.27753
7126.71391,0.27710
7124.78516,0.27492
7122.85642,0.27238
7120.92767,0.27139
7118.99893,0.27108
7117.07018,0.26996
7115.14144,0.26727
7113.21269,0.26476
7111.28395,0.26356
7109.35520,0.26215
7107.42646,0.26069
7105.49771,0.25862
7103.56897,0.25456
7101.64022,0.25053
7099.71148,0.24792
7097.78273,0.24550
7095.85399,0.24304
7093.92524,0.24141
7091.99649,0.23888
7090.06775,0.23442
7088.13900,0.23120
7086.21026,0.22990
7084.28151,0.22780
7082.35277,0.22616
7080.42402,0.22707
7078.49528,0.22706
7076.56653,0.22280
7074.63779,0.21713
7072.70904,0.21288
7070.78030,0.20937
7068.85155,0.20683
7066.92281,0.20505
7064.99406,0.20242
7063.06532,0.20165
7061.13657,0.20635
7059.20782,0.21348
7057.27908,0.21745
7055.35033,0.21665
7053.42159,0.21343
7051.49284,0.21181
7049.56410,0.21387
7047.63535,0.21798
7045.70661,0.22071
7043.77786,0.22151
7041.84912,0.22288
7039.92037,0.22422
7037.99163,0.22355
7036.06288,0.22217
7034.13414,0.22158
7032.20539,0.22178
7030.27664,0.22268
7028.34790,0.22500
7026.41915,0.22853
7024.49041,0.23024
7022.56166,0.22851
7020.63292,0.22609
7018.70417,0.22480
7016.77543,0.22474
7014.84668,0.22683
7012.91794,0.23001
7010.98919,0.23237
7009.06045,0.23369
7007.13170,0.23322
7005.20296,0.23143
7003.27421,0.22940
7001.34547,0.22743
6999.41672,0.22916
6997.48797,0.23576
6995.55923,0.24137
6993.63048,0.24399
6991.70174,0.24668
6989.77299,0.24883
6987.84425,0.24855
6985.91550,0.24601
6983.98676,0.24300
6982.05801,0.24285
6980.12927,0.24436
6978.20052,0.24386
6976.27178,0.24275
6974.34303,0.24306
6972.41429,0.24253
6970.48554,0.23996
6968.55680,0.23873
6966.62805,0.24080
6964.69930,0.24286
6962.77056,0.24196
6960.84181,0.24064
6958.91307,0.24330
6956.98432,0.24750
6955.05558,0.24881
6953.12683,0.24892
6951.19809,0.24949
6949.26934,0.25045
6947.34060,0.25228
6945.41185,0.25386
6943.48311,0.25408
6941.55436,0.25418
6939.62562,0.25605
6937.69687,0.25852
6935.76812,0.25993
6933.83938,0.26148
6931.91063,0.26366
6929.98189,0.26570
6928.05314,0.26807
6926.12440,0.27039
6924.19565,0.27155
6922.26691,0.27352
6920.33816,0.27730
6918.40942,0.27932
6916.48067,0.27848
6914.55193,0.27791
6912.62318,0.27927
6910.69444,0.28139
6908.76569,0.28263
6906.83695,0.28273
6904.90820,0.28273
6902.97945,0.28441
6901.05071,0.28830
6899.12196,0.29232
6897.19322,0.29478
6895.26447,0.29579
6893.33573,0.29698
6891.40698,0.30041
6889.47824,0.30406
6887.54949,0.30469
6885.62075,0.30445
6883.69200,0.30627
6881.76326,0.30855
6879.83451,0.30960
6877.90577,0.31012
6875.97702,0.31027
6874.04828,0.31048
6872.11953,0.31253
6870.19078,0.31519
6868.26204,0.31500
6866.33329,0.31303
6864.40455,0.31444
6862.47580,0.31938
6860.54706,0.32333
6858.61831,0.32547
6856.68957,0.32652
6854.76082,0.32623
6852.83208,0.32612
6850.90333,0.32729
6848.97459,0.32919
6847.04584,0.33086
6845.11710,0.33135
6843.18835,0.33100
6841.25960,0.33111
6839.33086,0.33180
6837.40211,0.33225
6835.47337,0.33257
6833.54462,0.33439
6831.61588,0.33852
6829.68713,0.34153
6827.75839,0.34122
6825.82964,0.34117
6823.90090,0.34295
6821.97215,0.34420
6820.04341,0.34555
6818.11466,0.34908
6816.18592,0.35316
6814.25717,0.35564
6812.32843,0.35793
6810.39968,0.36091
6808.47093,0.36312
6806.54219,0.36403
6804.61344,0.36478
6802.68470,0.36699
6800.75595,0.36957
6798.82721,0.36972
6796.89846,0.37025
6794.96972,0.37530
6793.04097,0.38188
6791.11223,0.38637
6789.18348,0.38800
6787.25474,0.38581
6785.32599,0.38377
6783.39725,0.38620
6781.46850,0.38888
6779.53975,0.38823
6777.61101,0.38779
6775.68226,0.38956
6773.75352,0.39054
6771.82477,0.39001
6769.89603,0.39063
6767.96728,0.39192
6766.03854,0.39321
6764.10979,0.39603
6762.18105,0.39908
6760.25230,0.40012
6758.32356,0.39948
6756.39481,0.39960
6754.46607,0.40189
6752.53732,0.40360
6750.60858,0.40288
6748.67983,0.40241
6746.75108,0.40425
6744.82234,0.40642
6742.89359,0.40753
6740.96485,0.40926
6739.03610,0.41116
6737.10736,0.41107
6735.17861,0.41027
6733.24987,0.41099
6731.32112,0.41303
6729.39238,0.41509
6727.46363,0.41623
6725.53489,0.41744
6723.60614,0.42018
6721.67740,0.42279
6719.74865,0.42282
6717.81991,0.42090
6715.89116,0.42002
6713.96241,0.42155
6712.03367,0.42420
6710.10492,0.42666
6708.17618,0.42809
6706.24743,0.42840
6704.31869,0.42776
6702.38994,0.42596
6700.46120,0.42471
6698.53245,0.42612
6696.60371,0.42963
6694.67496,0.43329
6692.74622,0.43541
6690.81747,0.43515
6688.88873,0.43356
6686.95998,0.43322
6685.03123,0.43504
6683.10249,0.43735
6681.17374,0.43876
6679.24500,0.43932
6677.31625,0.43947
6675.38751,0.44003
6673.45876,0.44136
6671.53002,0.44255
6669.60127,0.44346
6667.67253,0.44410
6665.74378,0.44371
6663.81504,0.44260
6661.88629,0.44186
6659.95755,0.44290
6658.02880,0.44605
6656.10006,0.44872
6654.17131,0.44886
6652.24256,0.44837
6650.31382,0.44841
6648.38507,0.44807
6646.45633,0.44913
6644.52758,0.45159
6642.59884,0.45230
6640.67009,0.45160
6638.74135,0.45071
6636.81260,0.44895
6634.88386,0.44662
6632.95511,0.44578
6631.02637,0.44824
6629.09762,0.45217
6627.16888,0.45379
6625.24013,0.45269
6623.31139,0.45149
6621.38264,0.45160
6619.45389,0.45201
6617.52515,0.45205
6615.59640,0.45244
6613.66766,0.45356
6611.73891,0.45510
6609.81017,0.45532
6607.88142,0.45259
6605.95268,0.44960
6604.02393,0.44972
6602.09519,0.45169
6600.16644,0.45334
6598.23770,0.45499
6596.30895,0.45706
6594.38021,0.45853
6592.45146,0.45754
6590.52271,0.45447
6588.59397,0.45293
6586.66522,0.45415
6584.73648,0.45492
6582.80773,0.45358
6580.87899,0.45241
6578.95024,0.45302
6577.02150,0.45443
6575.09275,0.45623
6573.16401,0.45734
6571.23526,0.45552
6569.30652,0.45270
6567.37777,0.45152
6565.44903,0.45091
6563.52028,0.45133
6561.59154,0.45359
6559.66279,0.45532
6557.73404,0.45536
6555.80530,0.45420
6553.87655,0.45060
6551.94781,0.44697
6550.01906,0.44821
6548.09032,0.45147
6546.16157,0.45175
6544.23283,0.45100
6542.30408,0.45210
6540.37534,0.45317
6538.44659,0.45195
6536.51785,0.45024
6534.58910,0.45019
6532.66036,0.45053
6530.73161,0.44961
6528.80287,0.44835
6526.87412,0.44902
6524.94537,0.45091
6523.01663,0.45118
6521.08788,0.44950
6519.15914,0.44755
6517.23039,0.44655
6515.30165,0.44568
6513.37290,0.44365
6511.44416,0.44218
6509.51541,0.44311
6507.58667,0.44458
6505.65792,0.44410
6503.72918,0.44280
6501.80043,0.44289
6499.87169,0.44327
6497.94294,0.44172
6496.01419,0.43908
6494.08545,0.43737
6492.15670,0.43654
6490.22796,0.43545
6488.29921,0.43404
6486.37047,0.43320
6484.44172,0.43264
6482.51298,0.43160
6480.58423,0.43176
6478.65549,0.43427
6476.72674,0.43743
6474.79800,0.44128
6472.86925,0.44734
6470.94051,0.45400
6469.01176,0.45831
6467.08302,0.46037
6465.15427,0.46283
6463.22552,0.46599
6461.29678,0.46782
6459.36803,0.46890
6457.43929,0.47097
6455.51054,0.47337
6453.58180,0.47536
6451.65305,0.47748
6449.72431,0.47954
6447.79556,0.48084
6445.86682,0.48139
6443.93807,0.48145
6442.00933,0.48191
6440.08058,0.48360
6438.15184,0.48558
6436.22309,0.48712
6434.29434,0.48889
6432.36560,0.49065
6430.43685,0.49088
6428.50811,0.48970
6426.57936,0.48855
6424.65062,0.48770
6422.72187,0.48781
6420.79313,0.48896
6418.86438,0.48910
6416.93564,0.48855
6415.00689,0.49010
6413.07815,0.49413
6411.14940,0.49760
6409.22066,0.49866
6407.29191,0.49827
6405.36317,0.49716
6403.43442,0.49673
6401.50567,0.49793
6399.57693,0.49895
6397.64818,0.49905
6395.71944,0.49966
6393.79069,0.50134
6391.86195,0.50275
6389.93320,0.50312
6388.00446,0.50427
6386.07571,0.50645
6384.14697,0.50651
6382.21822,0.50305
6380.28948,0.49957
6378.36073,0.50092
6376.43199,0.50636
6374.50324,0.51027
6372.57450,0.51054
6370.64575,0.50940
6368.71700,0.50863
6366.78826,0.50841
6364.85951,0.50880
6362.93077,0.50969
6361.00202,0.51028
6359.07328,0.51114
6357.14453,0.51364
6355.21579,0.51629
6353.28704,0.51704
6351.35830,0.51680
6349.42955,0.51683
6347.50081,0.51710
6345.57206,0.51757
6343.64332,0.51836
6341.71457,0.52016
6339.78582,0.52255
6337.85708,0.52279
6335.92833,0.52087
6333.99959,0.51997
6332.07084,0.52108
6330.14210,0.52241
6328.21335,0.52243
6326.28461,0.52141
6324.35586,0.52011
6322.42712,0.51995
6320.49837,0.52197
6318.56963,0.52379
6316.64088,0.52281
6314.71214,0.51983
6312.78339,0.51710
6310.85465,0.51575
6308.92590,0.51568
6306.99715,0.51698
6305.06841,0.51880
6303.13966,0.51955
6301.21092,0.52077
6299.28217,0.52349
6297.35343,0.52444
6295.42468,0.52270
6293.49594,0.52090
6291.56719,0.52045
6289.63845,0.52158
6287.70970,0.52272
6285.78096,0.52242
6283.85221,0.52209
6281.92347,0.52207
6279.99472,0.52111
6278.06598,0.51933
6276.13723,0.51788
6274.20848,0.51800
6272.27974,0.51993
6270.35099,0.52255
6268.42225,0.52459
6266.49350,0.52472
6264.56476,0.52260
6262.63601,0.52040
6260.70727,0.52061
6258.77852,0.52288
6256.84978,0.52462
6254.92103,0.52409
6252.99229,0.52213
6251.06354,0.52114
6249.13480,0.52156
6247.20605,0.52164
6245.27730,0.52117
6243.34856,0.52092
6241.41981,0.52107
6239.49107,0.52182
6237.56232,0.52191
6235.63358,0.52026
6233.70483,0.51892
6231.77609,0.51887
6229.84734,0.51860
6227.91860,0.51841
6225.98985,0.51894
6224.06111,0.51950
6222.13236,0.52064
6220.20362,0.52237
6218.27487,0.52318
6216.34613,0.52295
6214.41738,0.52178
6212.48863,0.51934
6210.55989,0.51703
6208.63114,0.51668
6206.70240,0.51752
6204.77365,0.51808
6202.84491,0.51862
6200.91616,0.51883
6198.98742,0.51773
6197.05867,0.51656
6195.12993,0.51695
6193.20118,0.51776
6191.27244,0.51686
6189.34369,0.51433
6187.41495,0.51207
6185.48620,0.51206
6183.55746,0.51446
6181.62871,0.51714
6179.69996,0.51846
6177.77122,0.51781
6175.84247,0.51551
6173.91373,0.51396
6171.98498,0.51414
6170.05624,0.51442
6168.12749,0.51355
6166.19875,0.51180
6164.27000,0.51096
6162.34126,0.51112
6160.41251,0.51020
6158.48377,0.50797
6156.55502,0.50645
6154.62628,0.50663
6152.69753,0.50686
6150.76878,0.50585
6148.84004,0.50433
6146.91129,0.50324
6144.98255,0.50342
6143.05380,0.50461
6141.12506,0.50462
6139.19631,0.50219
6137.26757,0.49887
6135.33882,0.49666
6133.41008,0.49608
6131.48133,0.49632
6129.55259,0.49643
6127.62384,0.49669
6125.69510,0.49729
6123.76635,0.49755
6121.83761,0.49695
6119.90886,0.49541
6117.98011,0.49407
6116.05137,0.49420
6114.12262,0.49444
6112.19388,0.49312
6110.26513,0.49176
6108.33639,0.49191
6106.40764,0.49232
6104.47890,0.49177
6102.55015,0.49110
6100.62141,0.49163
6098.69266,0.49206
6096.76392,0.49073
6094.83517,0.48959
6092.90643,0.49028
6090.97768,0.49119
6089.04893,0.49108
6087.12019,0.48987
6085.19144,0.48794
6083.26270,0.48676
6081.33395,0.48629
6079.40521,0.48521
6077.47646,0.48462
6075.54772,0.48525
6073.61897,0.48506
6071.69023,0.48344
6069.76148,0.48164
6067.83274,0.48012
6065.90399,0.47888
6063.97525,0.47871
6062.04650,0.47958
6060.11776,0.47962
6058.18901,0.47840
6056.26026,0.47807
6054.33152,0.47918
6052.40277,0.47939
6050.47403,0.47735
6048.54528,0.47524
6046.61654,0.47486
6044.68779,0.47469
6042.75905,0.47351
6040.83030,0.47192
6038.90156,0.46968
6036.97281,0.46621
6035.04407,0.46356
6033.11532,0.46333
6031.18658,0.46320
6029.25783,0.46207
6027.32909,0.46074
6025.40034,0.45872
6023.47159,0.45593
6021.54285,0.45302
6019.61410,0.45090
6017.68536,0.44998
6015.75661,0.44937
6013.82787,0.44790
6011.89912,0.44471
6009.97038,0.44104
6008.04163,0.43931
6006.11289,0.43949
6004.18414,0.43942
6002.25540,0.43743
6000.32665,0.43434
5998.39791,0.43185
5996.46916,0.42947
5994.54041,0.42613
5992.61167,0.42191
5990.68292,0.41805
5988.75418,0.41612
5986.82543,0.41509
5984.89669,0.41289
5982.96794,0.40982
5981.03920,0.40702
5979.11045,0.40504
5977.18171,0.40272
5975.25296,0.39886
5973.32422,0.39432
5971.39547,0.38951
5969.46673,0.38462
5967.53798,0.38074
5965.60924,0.37736
5963.68049,0.37349
5961.75174,0.36977
5959.82300,0.36653
5957.89425,0.36305
5955.96551,0.35908
5954.03676,0.35462
5952.10802,0.35025
5950.17927,0.34765
5948.25053,0.34623
5946.32178,0.34339
5944.39304,0.33879
5942.46429,0.33332
5940.53555,0.32718
5938.60680,0.32149
5936.67806,0.31646
5934.74931,0.31077
5932.82057,0.30402
5930.89182,0.29644
5928.96307,0.28907
5927.03433,0.28327
5925.10558,0.27787
5923.17684,0.27129
5921.24809,0.26403
5919.31935,0.25675
5917.39060,0.24968
5915.46186,0.24259
5913.53311,0.23494
5911.60437,0.22806
5909.67562,0.22321
5907.74688,0.21893
5905.81813,0.21461
5903.88939,0.21099
5901.96064,0.20730
5900.03189,0.20321
5898.10315,0.19998
5896.17440,0.19720
5894.24566,0.19297
5892.31691,0.18728
5890.38817,0.18180
5888.45942,0.17692
5886.53068,0.17193
5884.60193,0.16678
5882.67319,0.16124
5880.74444,0.15465
5878.81570,0.14722
5876.88695,0.14018
5874.95821,0.13447
5873.02946,0.12846
5871.10072,0.12064
5869.17197,0.11304
5867.24322,0.10693
5865.31448,0.10126
5863.38573,0.09656
5861.45699,0.09316
5859.52824,0.08929
5857.59950,0.08468
5855.67075,0.08080
5853.74201,0.07800
5851.81326,0.07553
5849.88452,0.07309
5847.95577,0.07125
5846.02703,0.07022
5844.09828,0.06939
5842.16954,0.06848
5840.24079,0.06746
5838.31205,0.06580
5836.38330,0.06339
5834.45455,0.06126
5832.52581,0.06029
5830.59706,0.05992
5828.66832,0.05973
5826.73957,0.05942
5824.81083,0.05842
5822.88208,0.05760
5820.95334,0.05772
5819.02459,0.05801
5817.09585,0.05841
5815.16710,0.05915
5813.23836,0.05970
5811.30961,0.05999
5809.38087,0.05984
5807.45212,0.05912
5805.52337,0.05840
5803.59463,0.05765
5801.66588,0.05691
5799.73714,0.05675
5797.80839,0.05757
5795.87965,0.05910
5793.95090,0.06014
5792.02216,0.05979
5790.09341,0.05864
5788.16467,0.05723
5786.23592,0.05562
5784.30718,0.05488
5782.37843,0.05543
5780.44969,0.05571
5778.52094,0.05510
5776.59220,0.05454
5774.66345,0.05443
5772.73470,0.05478
5770.80596,0.05543
5768.87721,0.05571
5766.94847,0.05562
5765.01972,0.05603
5763.09098,0.05682
5761.16223,0.05660
5759.23349,0.05535
5757.30474,0.05509
5755.37600,0.05622
5753.44725,0.05721
5751.51851,0.05799
5749.58976,0.05907
5747.66102,0.06051
5745.73227,0.06241
5743.80352,0.06340
5741.87478,0.06281
5739.94603,0.06274
5738.01729,0.06434
5736.08854,0.06591
5734.15980,0.06617
5732.23105,0.06610
5730.30231,0.06671
5728.37356,0.06785
5726.44482,0.06945
5724.51607,0.07185
5722.58733,0.07464
5720.65858,0.07674
5718.72984,0.07779
5716.80109,0.07831
5714.87235,0.07872
5712.94360,0.07875
5711.01485,0.07771
5709.08611,0.07578
5707.15736,0.07395
5705.22862,0.07285
5703.29987,0.07259
5701.37113,0.07255
5699.44238,0.07191
5697.51364,0.07066
5695.58489,0.06943
5693.65615,0.06825
5691.72740,0.06640
5689.79866,0.06403
5687.86991,0.06249
5685.94117,0.06237
5684.01242,0.06271
5682.08368,0.06221
5680.15493,0.06101
5678.22618,0.06033
5676.29744,0.06032
5674.36869,0.05966
5672.43995,0.05817
5670.51120,0.05725
5668.58246,0.05708
5666.65371,0.05728
5664.72497,0.05795
5662.79622,0.05838
5660.86748,0.05801
5658.93873,0.05759
5657.00999,0.05801
5655.08124,0.05939
5653.15250,0.06137
5651.22375,0.06363
5649.29500,0.06568
5647.36626,0.06716
5645.43751,0.06863
5643.50877,0.07080
5641.58002,0.07293
5639.65128,0.07414
5637.72253,0.07506
5635.79379,0.07643
5633.86504,0.07795
5631.93630,0.07874
5630.00755,0.07855
5628.07881,0.07858
5626.15006,0.07958
5624.22132,0.08093
5622.29257,0.08196
5620.36383,0.08240
5618.43508,0.08287
5616.50633,0.08449
5614.57759,0.08697
5612.64884,0.08914
5610.72010,0.09076
5608.79135,0.09181
5606.86261,0.09204
5604.93386,0.09224
5603.00512,0.09319
5601.07637,0.09432
5599.14763,0.09533
5597.21888,0.09671
5595.29014,0.09807
5593.36139,0.09831
5591.43265,0.09795
5589.50390,0.09788
5587.57516,0.09726
5585.64641,0.09612
5583.71766,0.09581
5581.78892,0.09610
5579.86017,0.09565
5577.93143,0.09452
5576.00268,0.09399
5574.07394,0.09366
5572.14519,0.09193
5570.21645,0.08987
5568.28770,0.08926
5566.35896,0.08941
5564.43021,0.08915
5562.50147,0.08808
5560.57272,0.08653
5558.64398,0.08545
5556.71523,0.08537
5554.78648,0.08567
5552.85774,0.08581
5550.92899,0.08594
5549.00025,0.08588
5547.07150,0.08545
5545.14276,0.08544
5543.21401,0.08594
5541.28527,0.08599
5539.35652,0.08562
5537.42778,0.08583
5535.49903,0.08643
5533.57029,0.08671
5531.64154,0.08735
5529.71280,0.08869
5527.78405,0.08972
5525.85531,0.08975
5523.92656,0.08887
5521.99781,0.08761
5520.06907,0.08667
5518.14032,0.08646
5516.21158,0.08681
5514.28283,0.08736
5512.35409,0.08780
5510.42534,0.08779
5508.49660,0.08725
5506.56785,0.08678
5504.63911,0.08670
5502.71036,0.08659
5500.78162,0.08626
5498.85287,0.08600
5496.92413,0.08565
5494.99538,0.08486
5493.06664,0.08427
5491.13789,0.08475
5489.20914,0.08570
5487.28040,0.08598
5485.35165,0.08601
5483.42291,0.08693
5481.49416,0.08858
5479.56542,0.09009
5477.63667,0.09120
5475.70793,0.09184
5473.77918,0.09165
5471.85044,0.09122
5469.92169,0.09156
5467.99295,0.09264
5466.06420,0.09419
5464.13546,0.09571
5462.20671,0.09633
5460.27796,0.09636
5458.34922,0.09654
5456.42047,0.09665
5454.49173,0.09680
5452.56298,0.09722
5450.63424,0.09753
5448.70549,0.09777
5446.77675,0.09837
5444.84800,0.09899
5442.91926,0.09956
5440.99051,0.10066
5439.06177,0.10168
5437.13302,0.10201
5435.20428,0.10214
5433.27553,0.10226
5431.34679,0.10262
5429.41804,0.10339
5427.48929,0.10403
5425.56055,0.10450
5423.63180,0.10502
5421.70306,0.10550
5419.77431,0.10640
5417.84557,0.10769
5415.91682,0.10880
5413.98808,0.11039
5412.05933,0.11286
5410.13059,0.11538
5408.20184,0.11763
5406.27310,0.11935
5404.34435,0.12049
5402.41561,0.12172
5400.48686,0.12320
5398.55811,0.12468
5396.62937,0.12572
5394.70062,0.12634
5392.77188,0.12744
5390.84313,0.12923
5388.91439,0.13081
5386.98564,0.13182
5385.05690,0.13274
5383.12815,0.13355
5381.19941,0.13410
5379.27066,0.13506
5377.34192,0.13628
5375.41317,0.13705
5373.48443,0.13783
5371.55568,0.13881
5369.62694,0.13926
5367.69819,0.13940
5365.76944,0.14025
5363.84070,0.14201
5361.91195,0.14423
5359.98321,0.14631
5358.05446,0.14776
5356.12572,0.14917
5354.19697,0.15086
5352.26823,0.15227
5350.33948,0.15399
5348.41074,0.15675
5346.48199,0.15959
5344.55325,0.16131
5342.62450,0.16202
5340.69576,0.16266
5338.76701,0.16343
5336.83827,0.16406
5334.90952,0.16471
5332.98077,0.16524
5331.05203,0.16551
5329.12328,0.16592
5327.19454,0.16622
5325.26579,0.16601
5323.33705,0.16579
5321.40830,0.16546
5319.47956,0.16428
5317.55081,0.16249
5315.62207,0.16090
5313.69332,0.15973
5311.76458,0.15877
5309.83583,0.15834
5307.90709,0.15879
5305.97834,0.15950
5304.04959,0.16028
5302.12085,0.16140
5300.19210,0.16210
5298.26336,0.16206
5296.33461,0.16216
5294.40587,0.16273
5292.47712,0.16339
5290.54838,0.16383
5288.61963,0.16378
5286.69089,0.16359
5284.76214,0.16367
5282.83340,0.16353
5280.90465,0.16296
5278.97591,0.16267
5277.04716,0.16266
5275.11842,0.16261
5273.18967,0.16275
5271.26092,0.16320
5269.33218,0.16402
5267.40343,0.16499
5265.47469,0.16550
5263.54594,0.16546
5261.61720,0.16512
5259.68845,0.16473
5257.75971,0.16421
5255.83096,0.16335
5253.90222,0.16255
5251.97347,0.16240
5250.04473,0.16294
5248.11598,0.16367
5246.18724,0.16423
5244.25849,0.16444
5242.32975,0.16380
5240.40100,0.16267
5238.47225,0.16216
5236.54351,0.16225
5234.61476,0.16218
5232.68602,0.16200
5230.75727,0.16230
5228.82853,0.16262
5226.89978,0.16187
5224.97104,0.16052
5223.04229,0.15990
5221.11355,0.16024
5219.18480,0.16076
5217.25606,0.16061
5215.32731,0.15955
5213.39857,0.15832
5211.46982,0.15797
5209.54107,0.15857
5207.61233,0.15948
5205.68358,0.16027
5203.75484,0.16064
5201.82609,0.16061
5199.89735,0.16050
5197.96860,0.16025
5196.03986,0.15978
5194.11111,0.15954
5192.18237,0.15948
5190.25362,0.15926
5188.32488,0.15955
5186.39613,0.16033
5184.46739,0.16058
5182.53864,0.16032
5180.60990,0.16007
5178.68115,0.16001
5176.75240,0.16021
5174.82366,0.16057
5172.89491,0.16100
5170.96617,0.16140
5169.03742,0.16151
5167.10868,0.16136
5165.17993,0.16128
5163.25119,0.16146
5161.32244,0.16186
5159.39370,0.16211
5157.46495,0.16207
5155.53621,0.16222
5153.60746,0.16308
5151.67872,0.16454
5149.74997,0.16586
5147.82123,0.16616
5145.89248,0.16560
5143.96373,0.16546
5142.03499,0.16620
5140.10624,0.16721
5138.17750,0.16806
5136.24875,0.16864
5134.32001,0.16899
5132.39126,0.16891
5130.46252,0.16822
5128.53377,0.16750
5126.60503,0.16727
5124.67628,0.16710
5122.74754,0.16648
5120.81879,0.16600
5118.89005,0.16590
5116.96130,0.16584
5115.03255,0.16619
5113.10381,0.16681
5111.17506,0.16657
5109.24632,0.16557
5107.31757,0.16485
5105.38883,0.16441
5103.46008,0.16346
5101.53134,0.16230
5099.60259,0.16210
5097.67385,0.16304
5095.74510,0.16428
5093.81636,0.16514
5091.88761,0.16525
5089.95887,0.16482
5088.03012,0.16496
5086.10138,0.16596
5084.17263,0.16675
5082.24388,0.16702
5080.31514,0.16751
5078.38639,0.16809
5076.45765,0.16811
5074.52890,0.16786
5072.60016,0.16784
5070.67141,0.16800
5068.74267,0.16792
5066.81392,0.16757
5064.88518,0.16777
5062.95643,0.16843
5061.02769,0.16858
5059.09894,0.16878
5057.17020,0.17009
5055.24145,0.17186
5053.31270,0.17274
5051.38396,0.17278
5049.45521,0.17306
5047.52647,0.17373
5045.59772,0.17425
5043.66898,0.17457
5041.74023,0.17454
5039.81149,0.17399
5037.88274,0.17320
5035.95400,0.17268
5034.02525,0.17292
5032.09651,0.17351
5030.16776,0.17348
5028.23902,0.17280
5026.31027,0.17210
5024.38153,0.17132
5022.45278,0.17027
5020.52403,0.16957
5018.59529,0.16963
5016.66654,0.16997
5014.73780,0.17008
5012.80905,0.16976
5010.88031,0.16918
5008.95156,0.16884
5007.02282,0.16862
5005.09407,0.16815
5003.16533,0.16751
5001.23658,0.16637
4999.30784,0.16466
4997.37909,0.16279
4995.45035,0.16075
4993.52160,0.15903
4991.59286,0.15798
4989.66411,0.15688
4987.73536,0.15536
4985.80662,0.15365
4983.87787,0.15207
4981.94913,0.15059
4980.02038,0.14909
4978.09164,0.14812
4976.16289,0.14781
4974.23415,0.14772
4972.30540,0.14758
4970.37666,0.14698
4968.44791,0.14581
4966.51917,0.14492
4964.59042,0.14522
4962.66168,0.14663
4960.73293,0.14842
4958.80418,0.15045
4956.87544,0.15319
4954.94669,0.15650
4953.01795,0.15992
4951.08920,0.16313
4949.16046,0.16567
4947.23171,0.16733
4945.30297,0.16827
4943.37422,0.16868
4941.44548,0.16887
4939.51673,0.16920
4937.58799,0.16977
4935.65924,0.17009
4933.73050,0.17012
4931.80175,0.17081
4929.87301,0.17216
4927.94426,0.17266
4926.01551,0.17207
4924.08677,0.17146
4922.15802,0.17113
4920.22928,0.17117
4918.30053,0.17194
4916.37179,0.17310
4914.44304,0.17389
4912.51430,0.17399
4910.58555,0.17365
4908.65681,0.17336
4906.72806,0.17299
4904.79932,0.17220
4902.87057,0.17141
4900.94183,0.17093
4899.01308,0.17052
4897.08434,0.17041
4895.15559,0.17066
4893.22684,0.17044
4891.29810,0.16934
4889.36935,0.16821
4887.44061,0.16780
4885.51186,0.16763
4883.58312,0.16736
4881.65437,0.16728
4879.72563,0.16740
4877.79688,0.16731
4875.86814,0.16671
4873.93939,0.16594
4872.01065,0.16561
4870.08190,0.16568
4868.15316,0.16592
4866.22441,0.16641
4864.29566,0.16705
4862.36692,0.16768
4860.43817,0.16871
4858.50943,0.17023
4856.58068,0.17182
4854.65194,0.17364
4852.72319,0.17590
4850.79445,0.17811
4848.86570,0.18004
4846.93696,0.18194
4845.00821,0.18397
4843.07947,0.18610
4841.15072,0.18780
4839.22198,0.18883
4837.29323,0.18965
4835.36449,0.19065
4833.43574,0.19185
4831.50699,0.19317
4829.57825,0.19459
4827.64950,0.19597
4825.72076,0.19724
4823.79201,0.19857
4821.86327,0.20012
4819.93452,0.20193
4818.00578,0.20363
4816.07703,0.20508
4814.14829,0.20671
4812.21954,0.20826
4810.29080,0.20947
4808.36205,0.21076
4806.43331,0.21216
4804.50456,0.21326
4802.57582,0.21410
4800.64707,0.21496
4798.71832,0.21589
4796.78958,0.21671
4794.86083,0.21752
4792.93209,0.21856
4791.00334,0.21952
4789.07460,0.21988
4787.14585,0.21988
4785.21711,0.22021
4783.28836,0.22100
4781.35962,0.22192
4779.43087,0.22278
4777.50213,0.22367
4775.57338,0.22478
4773.64464,0.22641
4771.71589,0.22854
4769.78714,0.23058
4767.85840,0.23210
4765.92965,0.23343
4764.00091,0.23475
4762.07216,0.23590
4760.14342,0.23683
4758.21467,0.23753
4756.28593,0.23810
4754.35718,0.23885
4752.42844,0.23982
4750.49969,0.24085
4748.57095,0.24184
4746.64220,0.24284
4744.71346,0.24392
4742.78471,0.24463
4740.85597,0.24485
4738.92722,0.24544
4736.99847,0.24624
4735.06973,0.24660
4733.14098,0.24703
4731.21224,0.24799
4729.28349,0.24897
4727.35475,0.24978
4725.42600,0.25070
4723.49726,0.25169
4721.56851,0.25270
4719.63977,0.25407
4717.71102,0.25600
4715.78228,0.25806
4713.85353,0.25939
4711.92479,0.25962
4709.99604,0.25955
4708.06729,0.26004
4706.13855,0.26068
4704.20980,0.26082
4702.28106,0.26074
4700.35231,0.26087
4698.42357,0.26122
4696.49482,0.26160
4694.56608,0.26156
4692.63733,0.26104
4690.70859,0.26070
4688.77984,0.26051
4686.85110,0.25976
4684.92235,0.25828
4682.99361,0.25675
4681.06486,0.25548
4679.13612,0.25397
4677.20737,0.25182
4675.27862,0.24922
4673.34988,0.24670
4671.42113,0.24484
4669.49239,0.24402
4667.56364,0.24408
4665.63490,0.24457
4663.70615,0.24542
4661.77741,0.24688
4659.84866,0.24890
4657.91992,0.25085
4655.99117,0.25210
4654.06243,0.25282
4652.13368,0.25362
4650.20494,0.25447
4648.27619,0.25491
4646.34745,0.25500
4644.41870,0.25493
4642.48995,0.25472
4640.56121,0.25445
4638.63246,0.25416
4636.70372,0.25375
4634.77497,0.25350
4632.84623,0.25360
4630.91748,0.25347
4628.98874,0.25279
4627.05999,0.25191
4625.13125,0.25100
4623.20250,0.25013
4621.27376,0.24951
4619.34501,0.24917
4617.41627,0.24863
4615.48752,0.24755
4613.55877,0.24608
4611.63003,0.24478
4609.70128,0.24392
4607.77254,0.24299
4605.84379,0.24188
4603.91505,0.24115
4601.98630,0.24082
4600.05756,0.24045
4598.12881,0.23979
4596.20007,0.23891
4594.27132,0.23802
4592.34258,0.23716
4590.41383,0.23612
4588.48509,0.23490
4586.55634,0.23395
4584.62760,0.23335
4582.69885,0.23250
4580.77010,0.23129
4578.84136,0.23014
4576.91261,0.22886
4574.98387,0.22721
4573.05512,0.22568
4571.12638,0.22454
4569.19763,0.22354
4567.26889,0.22217
4565.34014,0.21998
4563.41140,0.21715
4561.48265,0.21467
4559.55391,0.21285
4557.62516,0.21096
4555.69642,0.20877
4553.76767,0.20669
4551.83893,0.20458
4549.91018,0.20204
4547.98143,0.19936
4546.05269,0.19711
4544.12394,0.19542
4542.19520,0.19393
4540.26645,0.19204
4538.33771,0.18955
4536.40896,0.18717
4534.48022,0.18545
4532.55147,0.18381
4530.62273,0.18174
4528.69398,0.17964
4526.76524,0.17783
4524.83649,0.17598
4522.90775,0.17384
4520.97900,0.17153
4519.05025,0.16912
4517.12151,0.16668
4515.19276,0.16448
4513.26402,0.16249
4511.33527,0.16013
4509.40653,0.15720
4507.47778,0.15429
4505.54904,0.15193
4503.62029,0.15006
4501.69155,0.14823
4499.76280,0.14590
4497.83406,0.14317
4495.90531,0.14055
4493.97657,0.13805
4492.04782,0.13565
4490.11908,0.13360
4488.19033,0.13180
4486.26158,0.12977
4484.33284,0.12748
4482.40409,0.12525
4480.47535,0.12301
4478.54660,0.12071
4476.61786,0.11854
4474.68911,0.11636
4472.76037,0.11416
4470.83162,0.11214
4468.90288,0.11012
4466.97413,0.10808
4465.04539,0.10611
4463.11664,0.10408
4461.18790,0.10199
4459.25915,0.09969
4457.33041,0.09728
4455.40166,0.09509
4453.47291,0.09294
4451.54417,0.09067
4449.61542,0.08875
4447.68668,0.08714
4445.75793,0.08511
4443.82919,0.08249
4441.90044,0.07998
4439.97170,0.07809
4438.04295,0.07659
4436.11421,0.07494
4434.18546,0.07317
4432.25672,0.07166
4430.32797,0.07040
4428.39923,0.06912
4426.47048,0.06784
4424.54173,0.06663
4422.61299,0.06557
4420.68424,0.06469
4418.75550,0.06369
4416.82675,0.06251
4414.89801,0.06146
4412.96926,0.06077
4411.04052,0.06043
4409.11177,0.06022
4407.18303,0.05995
4405.25428,0.05964
4403.32554,0.05914
4401.39679,0.05833
4399.46805,0.05784
4397.53930,0.05797
4395.61056,0.05817
4393.68181,0.05807
4391.75306,0.05774
4389.82432,0.05736
4387.89557,0.05692
4385.96683,0.05644
4384.03808,0.05616
4382.10934,0.05632
4380.18059,0.05692
4378.25185,0.05756
4376.32310,0.05796
4374.39436,0.05804
4372.46561,0.05774
4370.53687,0.05736
4368.60812,0.05710
4366.67938,0.05685
4364.75063,0.05659
4362.82189,0.05636
4360.89314,0.05641
4358.96439,0.05679
4357.03565,0.05715
4355.10690,0.05718
4353.17816,0.05676
4351.24941,0.05613
4349.32067,0.05594
4347.39192,0.05630
4345.46318,0.05666
4343.53443,0.05671
4341.60569,0.05666
4339.67694,0.05676
4337.74820,0.05680
4335.81945,0.05663
4333.89071,0.05665
4331.96196,0.05685
4330.03321,0.05677
4328.10447,0.05648
4326.17572,0.05628
4324.24698,0.05627
4322.31823,0.05655
4320.38949,0.05700
4318.46074,0.05717
4316.53200,0.05668
4314.60325,0.05601
4312.67451,0.05597
4310.74576,0.05635
4308.81702,0.05653
4306.88827,0.05666
4304.95953,0.05701
4303.03078,0.05730
4301.10204,0.05730
4299.17329,0.05723
4297.24454,0.05741
4295.31580,0.05761
4293.38705,0.05749
4291.45831,0.05701
4289.52956,0.05643
4287.60082,0.05601
4285.67207,0.05570
4283.74333,0.05560
4281.81458,0.05586
4279.88584,0.05618
4277.95709,0.05624
4276.02835,0.05622
4274.09960,0.05631
4272.17086,0.05626
4270.24211,0.05614
4268.31336,0.05631
4266.38462,0.05658
4264.45587,0.05671
4262.52713,0.05689
4260.59838,0.05698
4258.66964,0.05674
4256.74089,0.05653
4254.81215,0.05658
4252.88340,0.05666
4250.95466,0.05679
4249.02591,0.05696
4247.09717,0.05684
4245.16842,0.05665
4243.23968,0.05682
4241.31093,0.05724
4239.38219,0.05750
4237.45344,0.05739
4235.52469,0.05708
4233.59595,0.05699
4231.66720,0.05718
4229.73846,0.05710
4227.80971,0.05661
4225.88097,0.05651
4223.95222,0.05706
4222.02348,0.05753
4220.09473,0.05754
4218.16599,0.05722
4216.23724,0.05687
4214.30850,0.05685
4212.37975,0.05704
4210.45101,0.05701
4208.52226,0.05680
4206.59352,0.05664
4204.66477,0.05658
4202.73602,0.05661
4200.80728,0.05688
4198.87853,0.05730
4196.94979,0.05747
4195.02104,0.05721
4193.09230,0.05699
4191.16355,0.05711
4189.23481,0.05721
4187.30606,0.05711
4185.37732,0.05699
4183.44857,0.05665
4181.51983,0.05611
4179.59108,0.05605
4177.66234,0.05653
4175.73359,0.05682
4173.80484,0.05672
4171.87610,0.05660
4169.94735,0.05656
4168.01861,0.05664
4166.08986,0.05692
4164.16112,0.05718
4162.23237,0.05733
4160.30363,0.05743
4158.37488,0.05746
4156.44614,0.05732
4154.51739,0.05706
4152.58865,0.05712
4150.65990,0.05751
4148.73116,0.05765
4146.80241,0.05738
4144.87367,0.05719
4142.94492,0.05717
4141.01617,0.05695
4139.08743,0.05664
4137.15868,0.05648
4135.22994,0.05652
4133.30119,0.05665
4131.37245,0.05667
4129.44370,0.05675
4127.51496,0.05676
4125.58621,0.05646
4123.65747,0.05637
4121.72872,0.05666
4119.79998,0.05685
4117.87123,0.05683
4115.94249,0.05679
4114.01374,0.05674
4112.08500,0.05666
4110.15625,0.05669
4108.22750,0.05687
4106.29876,0.05698
4104.37001,0.05693
4102.44127,0.05689
4100.51252,0.05691
4098.58378,0.05690
4096.65503,0.05683
4094.72629,0.05667
4092.79754,0.05647
4090.86880,0.05651
4088.94005,0.05667
4087.01131,0.05669
4085.08256,0.05672
4083.15382,0.05684
4081.22507,0.05695
4079.29632,0.05703
4077.36758,0.05694
4075.43883,0.05689
4073.51009,0.05728
4071.58134,0.05768
4069.65260,0.05763
4067.72385,0.05739
4065.79511,0.05722
4063.86636,0.05704
4061.93762,0.05686
4060.00887,0.05692
4058.08013,0.05709
4056.15138,0.05686
4054.22264,0.05639
4052.29389,0.05641
4050.36515,0.05685
4048.43640,0.05716
4046.50765,0.05722
4044.57891,0.05711
4042.65016,0.05693
4040.72142,0.05694
4038.79267,0.05707
4036.86393,0.05693
4034.93518,0.05659
4033.00644,0.05656
4031.07769,0.05683
4029.14895,0.05679
4027.22020,0.05642
4025.29146,0.05649
4023.36271,0.05706
4021.43397,0.05744
4019.50522,0.05727
4017.57648,0.05694
4015.64773,0.05700
4013.71898,0.05735
4011.79024,0.05758
4009.86149,0.05760
4007.93275,0.05753
4006.00400,0.05756
4004.07526,0.05767
4002.14651,0.05751
4000.21777,0.05705
3998.28902,0.05672
3996.36028,0.05661
3994.43153,0.05663
3992.50279,0.05685
3990.57404,0.05713
3988.64530,0.05707
3986.71655,0.05682
3984.78780,0.05697
3982.85906,0.05743
3980.93031,0.05759
3979.00157,0.05750
3977.07282,0.05745
3975.14408,0.05732
3973.21533,0.05718
3971.28659,0.05723
3969.35784,0.05741
3967.42910,0.05744
3965.50035,0.05742
3963.57161,0.05761
3961.64286,0.05763
3959.71412,0.05736
3957.78537,0.05732
3955.85663,0.05741
3953.92788,0.05723
3951.99913,0.05700
3950.07039,0.05715
3948.14164,0.05758
3946.21290,0.05777
3944.28415,0.05742
3942.35541,0.05688
3940.42666,0.05658
3938.49792,0.05666
3936.56917,0.05691
3934.64043,0.05700
3932.71168,0.05690
3930.78294,0.05689
3928.85419,0.05704
3926.92545,0.05718
3924.99670,0.05706
3923.06795,0.05679
3921.13921,0.05675
3919.21046,0.05694
3917.28172,0.05718
3915.35297,0.05751
3913.42423,0.05775
3911.49548,0.05772
3909.56674,0.05737
3907.63799,0.05682
3905.70925,0.05664
3903.78050,0.05705
3901.85176,0.05735
3899.92301,0.05719
3897.99427,0.05695
3896.06552,0.05683
3894.13678,0.05686
3892.20803,0.05717
3890.27928,0.05754
3888.35054,0.05759
3886.42179,0.05742
3884.49305,0.05726
3882.56430,0.05704
3880.63556,0.05677
3878.70681,0.05680
3876.77807,0.05700
3874.84932,0.05712
3872.92058,0.05748
3870.99183,0.05806
3869.06309,0.05828
3867.13434,0.05799
3865.20560,0.05751
3863.27685,0.05733
3861.34811,0.05769
3859.41936,0.05796
3857.49061,0.05772
3855.56187,0.05737
3853.63312,0.05712
3851.70438,0.05692
3849.77563,0.05687
3847.84689,0.05702
3845.91814,0.05723
3843.98940,0.05734
3842.06065,0.05738
3840.13191,0.05750
3838.20316,0.05760
3836.27442,0.05766
3834.34567,0.05772
3832.41693,0.05748
3830.48818,0.05703
3828.55943,0.05684
3826.63069,0.05693
3824.70194,0.05703
3822.77320,0.05702
3820.84445,0.05704
3818.91571,0.05721
3816.98696,0.05732
3815.05822,0.05744
3813.12947,0.05767
3811.20073,0.05776
3809.27198,0.05769
3807.34324,0.05766
3805.41449,0.05757
3803.48575,0.05727
3801.55700,0.05714
3799.62826,0.05751
3797.69951,0.05780
3795.77076,0.05758
3793.84202,0.05730
3791.91327,0.05733
3789.98453,0.05760
3788.05578,0.05797
3786.12704,0.05822
3784.19829,0.05818
3782.26955,0.05789
3780.34080,0.05772
3778.41206,0.05803
3776.48331,0.05833
3774.55457,0.05814
3772.62582,0.05785
3770.69708,0.05779
3768.76833,0.05784
3766.83959,0.05795
3764.91084,0.05820
3762.98209,0.05833
3761.05335,0.05812
3759.12460,0.05782
3757.19586,0.05771
3755.26711,0.05767
3753.33837,0.05750
3751.40962,0.05745
3749.48088,0.05777
3747.55213,0.05791
3745.62339,0.05752
3743.69464,0.05720
3741.76590,0.05736
3739.83715,0.05770
3737.90841,0.05801
3735.97966,0.05826
3734.05091,0.05830
3732.12217,0.05819
3730.19342,0.05817
3728.26468,0.05819
3726.33593,0.05810
3724.40719,0.05791
3722.47844,0.05757
3720.54970,0.05728
3718.62095,0.05732
3716.69221,0.05764
3714.76346,0.05797
3712.83472,0.05814
3710.90597,0.05811
3708.97723,0.05789
3707.04848,0.05765
3705.11974,0.05749
3703.19099,0.05739
3701.26224,0.05748
3699.33350,0.05785
3697.40475,0.05823
3695.47601,0.05832
3693.54726,0.05814
3691.61852,0.05799
3689.68977,0.05791
3687.76103,0.05770
3685.83228,0.05755
3683.90354,0.05754
3681.97479,0.05750
3680.04605,0.05756
3678.11730,0.05782
3676.18856,0.05788
3674.25981,0.05752
3672.33107,0.05700
3670.40232,0.05667
3668.47357,0.05679
3666.54483,0.05704
3664.61608,0.05708
3662.68734,0.05711
3660.75859,0.05725
3658.82985,0.05748
3656.90110,0.05772
3654.97236,0.05780
3653.04361,0.05777
3651.11487,0.05762
3649.18612,0.05740
3647.25738,0.05724
3645.32863,0.05698
3643.39989,0.05661
3641.47114,0.05644
3639.54239,0.05664
3637.61365,0.05695
3635.68490,0.05719
3633.75616,0.05739
3631.82741,0.05735
3629.89867,0.05715
3627.96992,0.05708
3626.04118,0.05710
3624.11243,0.05711
3622.18369,0.05711
3620.25494,0.05697
3618.32620,0.05667
3616.39745,0.05626
3614.46871,0.05587
3612.53996,0.05585
3610.61122,0.05621
3608.68247,0.05653
3606.75372,0.05663
3604.82498,0.05661
3602.89623,0.05653
3600.96749,0.05639
3599.03874,0.05627
3597.11000,0.05623
3595.18125,0.05629
3593.25251,0.05661
3591.32376,0.05703
3589.39502,0.05720
3587.46627,0.05711
3585.53753,0.05714
3583.60878,0.05728
3581.68004,0.05726
3579.75129,0.05725
3577.82254,0.05732
3575.89380,0.05719
3573.96505,0.05696
3572.03631,0.05695
3570.10756,0.05731
3568.17882,0.05805
3566.25007,0.05878
3564.32133,0.05908
3562.39258,0.05894
3560.46384,0.05865
3558.53509,0.05857
3556.60635,0.05861
3554.67760,0.05862
3552.74886,0.05891
3550.82011,0.05947
3548.89137,0.05982
3546.96262,0.05982
3545.03387,0.05979
3543.10513,0.05995
3541.17638,0.06028
3539.24764,0.06044
3537.31889,0.06022
3535.39015,0.05989
3533.46140,0.05977
3531.53266,0.05989
3529.60391,0.06011
3527.67517,0.06029
3525.74642,0.06041
3523.81768,0.06043
3521.88893,0.06042
3519.96019,0.06039
3518.03144,0.06026
3516.10270,0.06016
3514.17395,0.06010
3512.24520,0.06003
3510.31646,0.05988
3508.38771,0.05965
3506.45897,0.05955
3504.53022,0.05968
3502.60148,0.05975
3500.67273,0.05978
3498.74399,0.05994
3496.81524,0.05990
3494.88650,0.05947
3492.95775,0.05917
3491.02901,0.05928
3489.10026,0.05945
3487.17152,0.05928
3485.24277,0.05887
3483.31402,0.05866
3481.38528,0.05881
3479.45653,0.05906
3477.52779,0.05900
3475.59904,0.05857
3473.67030,0.05824
3471.74155,0.05838
3469.81281,0.05859
3467.88406,0.05852
3465.95532,0.05847
3464.02657,0.05844
3462.09783,0.05800
3460.16908,0.05738
3458.24034,0.05703
3456.31159,0.05698
3454.38285,0.05704
3452.45410,0.05707
3450.52535,0.05715
3448.59661,0.05726
3446.66786,0.05717
3444.73912,0.05680
3442.81037,0.05657
3440.88163,0.05665
3438.95288,0.05673
3437.02414,0.05671
3435.09539,0.05665
3433.16665,0.05642
3431.23790,0.05613
3429.30916,0.05615
3427.38041,0.05646
3425.45167,0.05665
3423.52292,0.05674
3421.59418,0.05697
3419.66543,0.05716
3417.73668,0.05722
3415.80794,0.05729
3413.87919,0.05719
3411.95045,0.05661
3410.02170,0.05602
3408.09296,0.05595
3406.16421,0.05610
3404.23547,0.05623
3402.30672,0.05636
3400.37798,0.05634
3398.44923,0.05614
3396.52049,0.05602
3394.59174,0.05618
3392.66300,0.05652
3390.73425,0.05662
3388.80550,0.05640
3386.87676,0.05615
3384.94801,0.05586
3383.01927,0.05556
3381.09052,0.05550
3379.16178,0.05551
3377.23303,0.05545
3375.30429,0.05546
3373.37554,0.05555
3371.44680,0.05573
3369.51805,0.05596
3367.58931,0.05608
3365.66056,0.05610
3363.73182,0.05614
3361.80307,0.05617
3359.87433,0.05615
3357.94558,0.05602
3356.01683,0.05582
3354.08809,0.05576
3352.15934,0.05592
3350.23060,0.05601
3348.30185,0.05591
3346.37311,0.05586
3344.44436,0.05589
3342.51562,0.05584
3340.58687,0.05575
3338.65813,0.05568
3336.72938,0.05548
3334.80064,0.05537
3332.87189,0.05572
3330.94315,0.05624
3329.01440,0.05642
3327.08566,0.05625
3325.15691,0.05613
3323.22816,0.05630
3321.29942,0.05647
3319.37067,0.05646
3317.44193,0.05639
3315.51318,0.05637
3313.58444,0.05650
3311.65569,0.05662
3309.72695,0.05660
3307.79820,0.05651
3305.86946,0.05639
3303.94071,0.05650
3302.01197,0.05678
3300.08322,0.05699
3298.15448,0.05716
3296.22573,0.05724
3294.29698,0.05717
3292.36824,0.05706
3290.43949,0.05676
3288.51075,0.05644
3286.58200,0.05661
3284.65326,0.05701
3282.72451,0.05710
3280.79577,0.05683
3278.86702,0.05652
3276.93828,0.05641
3275.00953,0.05650
3273.08079,0.05651
3271.15204,0.05631
3269.22330,0.05603
3267.29455,0.05579
3265.36581,0.05573
3263.43706,0.05591
3261.50831,0.05597
3259.57957,0.05585
3257.65082,0.05601
3255.72208,0.05636
3253.79333,0.05643
3251.86459,0.05627
3249.93584,0.05605
3248.00710,0.05588
3246.07835,0.05602
3244.14961,0.05632
3242.22086,0.05635
3240.29212,0.05617
3238.36337,0.05609
3236.43463,0.05609
3234.50588,0.05601
3232.57713,0.05574
3230.64839,0.05543
3228.71964,0.05525
3226.79090,0.05522
3224.86215,0.05536
3222.93341,0.05552
3221.00466,0.05548
3219.07592,0.05535
3217.14717,0.05540
3215.21843,0.05564
3213.28968,0.05588
3211.36094,0.05581
3209.43219,0.05531
3207.50345,0.05485
3205.57470,0.05486
3203.64596,0.05520
3201.71721,0.05544
3199.78846,0.05543
3197.85972,0.05520
3195.93097,0.05487
3194.00223,0.05472
3192.07348,0.05486
3190.14474,0.05500
3188.21599,0.05491
3186.28725,0.05481
3184.35850,0.05485
3182.42976,0.05474
3180.50101,0.05444
3178.57227,0.05426
3176.64352,0.05431
3174.71478,0.05449
3172.78603,0.05476
3170.85729,0.05490
3168.92854,0.05476
3166.99979,0.05462
3165.07105,0.05455
3163.14230,0.05449
3161.21356,0.05451
3159.28481,0.05450
3157.35607,0.05438
3155.42732,0.05438
3153.49858,0.05457
3151.56983,0.05470
3149.64109,0.05451
3147.71234,0.05422
3145.78360,0.05426
3143.85485,0.05445
3141.92611,0.05425
3139.99736,0.05393
3138.06861,0.05395
3136.13987,0.05411
3134.21112,0.05421
3132.28238,0.05423
3130.35363,0.05400
3128.42489,0.05369
3126.49614,0.05366
3124.56740,0.05379
3122.63865,0.05372
3120.70991,0.05356
3118.78116,0.05364
3116.85242,0.05399
3114.92367,0.05422
3112.99493,0.05416
3111.06618,0.05410
3109.13744,0.05407
3107.20869,0.05386
3105.27994,0.05356
3103.35120,0.05337
3101.42245,0.05335
3099.49371,0.05335
3097.56496,0.05322
3095.63622,0.05310
3093.70747,0.05310
3091.77873,0.05316
3089.84998,0.05315
3087.92124,0.05302
3085.99249,0.05285
3084.06375,0.05279
3082.13500,0.05294
3080.20626,0.05303
3078.27751,0.05279
3076.34877,0.05241
3074.42002,0.05229
3072.49127,0.05243
3070.56253,0.05252
3068.63378,0.05244
3066.70504,0.05246
3064.77629,0.05260
3062.84755,0.05255
3060.91880,0.05227
3058.99006,0.05211
3057.06131,0.05205
3055.13257,0.05186
3053.20382,0.05178
3051.27508,0.05212
3049.34633,0.05245
3047.41759,0.05237
3045.48884,0.05208
3043.56009,0.05186
3041.63135,0.05168
3039.70260,0.05147
3037.77386,0.05135
3035.84511,0.05142
3033.91637,0.05157
3031.98762,0.05156
3030.05888,0.05143
3028.13013,0.05140
3026.20139,0.05133
3024.27264,0.05104
3022.34390,0.05074
3020.41515,0.05072
3018.48641,0.05093
3016.55766,0.05093
3014.62892,0.05052
3012.70017,0.05007
3010.77142,0.04992
3008.84268,0.04988
3006.91393,0.04986
3004.98519,0.04983
3003.05644,0.04959
3001.12770,0.04935
2999.19895,0.04956
2997.27021,0.04989
2995.34146,0.04975
2993.41272,0.04923
2991.48397,0.04886
2989.55523,0.04863
2987.62648,0.04833
2985.69774,0.04807
2983.76899,0.04778
2981.84025,0.04732
2979.91150,0.04693
2977.98275,0.04677
2976.05401,0.04665
2974.12526,0.04644
2972.19652,0.04621
2970.26777,0.04589
2968.33903,0.04541
2966.41028,0.04487
2964.48154,0.04454
2962.55279,0.04432
2960.62405,0.04400
2958.69530,0.04370
2956.76656,0.04350
2954.83781,0.04321
2952.90907,0.04275
2950.98032,0.04216
2949.05157,0.04147
2947.12283,0.04064
2945.19408,0.03953
2943.26534,0.03829
2941.33659,0.03728
2939.40785,0.03637
2937.47910,0.03558
2935.55036,0.03537
2933.62161,0.03566
2931.69287,0.03624
2929.76412,0.03748
2927.83538,0.03979
2925.90663,0.04345
2923.97789,0.04905
2922.04914,0.05688
2920.12040,0.06634
2918.19165,0.07561
2916.26290,0.08184
2914.33416,0.08338
2912.40541,0.08127
2910.47667,0.07779
2908.54792,0.07452
2906.61918,0.07195
2904.69043,0.07020
2902.76169,0.06914
2900.83294,0.06816
2898.90420,0.06702
2896.97545,0.06615
2895.04671,0.06572
2893.11796,0.06526
2891.18922,0.06457
2889.26047,0.06405
2887.33172,0.06377
2885.40298,0.06335
2883.47423,0.06260
2881.54549,0.06179
2879.61674,0.06105
2877.68800,0.06034
2875.75925,0.05966
2873.83051,0.05898
2871.90176,0.05810
2869.97302,0.05696
2868.04427,0.05579
2866.11553,0.05474
2864.18678,0.05347
2862.25804,0.05201
2860.32929,0.05094
2858.40055,0.05049
2856.47180,0.05066
2854.54305,0.05226
2852.61431,0.05673
2850.68556,0.06463
2848.75682,0.07349
2846.82807,0.07902
2844.89933,0.07969
2842.97058,0.07750
2841.04184,0.07481
2839.11309,0.07260
2837.18435,0.07096
2835.25560,0.06975
2833.32686,0.06880
2831.39811,0.06797
2829.46937,0.06729
2827.54062,0.06670
2825.61188,0.06604
2823.68313,0.06554
2821.75438,0.06537
2819.82564,0.06521
2817.89689,0.06478
2815.96815,0.06424
2814.03940,0.06388
2812.11066,0.06371
2810.18191,0.06357
2808.25317,0.06340
2806.32442,0.06320
2804.39568,0.06295
2802.46693,0.06274
2800.53819,0.06271
2798.60944,0.06275
2796.68070,0.06257
2794.75195,0.06231
2792.82320,0.06209
2790.89446,0.06195
2788.96571,0.06196
2787.03697,0.06199
2785.10822,0.06195
2783.17948,0.06177
2781.25073,0.06146
2779.32199,0.06132
2777.39324,0.06149
2775.46450,0.06168
2773.53575,0.06168
2771.60701,0.06152
2769.67826,0.06129
2767.74952,0.06100
2765.82077,0.06075
2763.89203,0.06067
2761.96328,0.06071
2760.03453,0.06057
2758.10579,0.06029
2756.17704,0.06018
2754.24830,0.06022
2752.31955,0.06031
2750.39081,0.06036
2748.46206,0.06034
2746.53332,0.06038
2744.60457,0.06042
2742.67583,0.06031
2740.74708,0.06019
2738.81834,0.06020
2736.88959,0.06026
2734.96085,0.06037
2733.03210,0.06046
2731.10336,0.06022
2729.17461,0.05976
2727.24586,0.05960
2725.31712,0.05981
2723.38837,0.05994
2721.45963,0.05981
2719.53088,0.05971
2717.60214,0.05982
2715.67339,0.05987
2713.74465,0.05965
2711.81590,0.05945
2709.88716,0.05954
2707.95841,0.05970
2706.02967,0.05970
2704.10092,0.05959
2702.17218,0.05958
2700.24343,0.05969
2698.31468,0.05975
2696.38594,0.05965
2694.45719,0.05944
2692.52845,0.05929
2690.59970,0.05935
2688.67096,0.05951
2686.74221,0.05964
2684.81347,0.05966
2682.88472,0.05949
2680.95598,0.05918
2679.02723,0.05891
2677.09849,0.05889
2675.16974,0.05920
2673.24100,0.05939
2671.31225,0.05914
2669.38351,0.05882
2667.45476,0.05886
2665.52601,0.05913
2663.59727,0.05932
2661.66852,0.05928
2659.73978,0.05911
2657.81103,0.05885
2655.88229,0.05868
2653.95354,0.05885
2652.02480,0.05906
2650.09605,0.05903
2648.16731,0.05898
2646.23856,0.05903
2644.30982,0.05905
2642.38107,0.05894
2640.45233,0.05868
2638.52358,0.05853
2636.59484,0.05866
2634.66609,0.05878
2632.73734,0.05874
2630.80860,0.05863
2628.87985,0.05848
2626.95111,0.05839
2625.02236,0.05842
2623.09362,0.05855
2621.16487,0.05865
2619.23613,0.05867
2617.30738,0.05867
2615.37864,0.05864
2613.44989,0.05863
2611.52115,0.05873
2609.59240,0.05884
2607.66366,0.05879
2605.73491,0.05868
2603.80616,0.05857
2601.87742,0.05855
2599.94867,0.05877
2598.01993,0.05895
2596.09118,0.05895
2594.16244,0.05897
2592.23369,0.05896
2590.30495,0.05878
2588.37620,0.05857
2586.44746,0.05851
2584.51871,0.05861
2582.58997,0.05874
2580.66122,0.05879
2578.73248,0.05871
2576.80373,0.05861
2574.87499,0.05854
2572.94624,0.05840
2571.01749,0.05823
2569.08875,0.05814
2567.16000,0.05817
2565.23126,0.05834
2563.30251,0.05844
2561.37377,0.05838
2559.44502,0.05839
2557.51628,0.05852
2555.58753,0.05860
2553.65879,0.05861
2551.73004,0.05861
2549.80130,0.05859
2547.87255,0.05856
2545.94381,0.05856
2544.01506,0.05860
2542.08631,0.05862
2540.15757,0.05858
2538.22882,0.05848
2536.30008,0.05832
2534.37133,0.05814
2532.44259,0.05802
2530.51384,0.05799
2528.58510,0.05808
2526.65635,0.05821
2524.72761,0.05831
2522.79886,0.05834
2520.87012,0.05824
2518.94137,0.05813
2517.01263,0.05816
2515.08388,0.05830
2513.15514,0.05844
2511.22639,0.05848
2509.29764,0.05845
2507.36890,0.05846
2505.44015,0.05853
2503.51141,0.05862
2501.58266,0.05865
2499.65392,0.05858
2497.72517,0.05847
2495.79643,0.05836
2493.86768,0.05833
2491.93894,0.05849
2490.01019,0.05875
2488.08145,0.05891
2486.15270,0.05893
2484.22396,0.05880
2482.29521,0.05859
2480.36647,0.05848
2478.43772,0.05848
2476.50897,0.05848
2474.58023,0.05844
2472.65148,0.05852
2470.72274,0.05872
2468.79399,0.05887
2466.86525,0.05890
2464.93650,0.05888
2463.00776,0.05884
2461.07901,0.05881
2459.15027,0.05881
2457.22152,0.05880
2455.29278,0.05879
2453.36403,0.05878
2451.43529,0.05878
2449.50654,0.05876
2447.57779,0.05874
2445.64905,0.05879
2443.72030,0.05894
2441.79156,0.05908
2439.86281,0.05906
2437.93407,0.05894
2436.00532,0.05885
2434.07658,0.05877
2432.14783,0.05872
2430.21909,0.05869
2428.29034,0.05860
2426.36160,0.05843
2424.43285,0.05833
2422.50411,0.05829
2420.57536,0.05823
2418.64662,0.05824
2416.71787,0.05835
2414.78912,0.05842
2412.86038,0.05836
2410.93163,0.05823
2409.00289,0.05821
2407.07414,0.05837
2405.14540,0.05850
2403.21665,0.05840
2401.28791,0.05823
2399.35916,0.05826
2397.43042,0.05835
2395.50167,0.05832
2393.57293,0.05828
2391.64418,0.05843
2389.71544,0.05864
2387.78669,0.05868
2385.85795,0.05853
2383.92920,0.05837
2382.00045,0.05832
2380.07171,0.05826
2378.14296,0.05818
2376.21422,0.05827
2374.28547,0.05847
2372.35673,0.05852
2370.42798,0.05851
2368.49924,0.05856
2366.57049,0.05865
2364.64175,0.05865
2362.71300,0.05844
2360.78426,0.05817
2358.85551,0.05797
2356.92677,0.05790
2354.99802,0.05802
2353.06927,0.05822
2351.14053,0.05837
2349.21178,0.05850
2347.28304,0.05854
2345.35429,0.05843
2343.42555,0.05827
2341.49680,0.05824
2339.56806,0.05840
2337.63931,0.05856
2335.71057,0.05852
2333.78182,0.05828
2331.85308,0.05799
2329.92433,0.05782
2327.99559,0.05781
2326.06684,0.05797
2324.13810,0.05817
2322.20935,0.05828
2320.28060,0.05839
2318.35186,0.05852
2316.42311,0.05848
2314.49437,0.05829
2312.56562,0.05809
2310.63688,0.05797
2308.70813,0.05791
2306.77939,0.05789
2304.85064,0.05795
2302.92190,0.05797
2300.99315,0.05787
2299.06441,0.05777
2297.13566,0.05786
2295.20692,0.05808
2293.27817,0.05833
2291.34943,0.05853
2289.42068,0.05855
2287.49193,0.05845
2285.56319,0.05840
2283.63444,0.05839
2281.70570,0.05834
2279.77695,0.05825
2277.84821,0.05821
2275.91946,0.05831
2273.99072,0.05845
2272.06197,0.05843
2270.13323,0.05825
2268.20448,0.05820
2266.27574,0.05841
2264.34699,0.05871
2262.41825,0.05887
2260.48950,0.05884
2258.56075,0.05881
2256.63201,0.05874
2254.70326,0.05848
2252.77452,0.05829
2250.84577,0.05840
2248.91703,0.05854
2246.98828,0.05851
2245.05954,0.05836
2243.13079,0.05826
2241.20205,0.05845
2239.27330,0.05892
2237.34456,0.05932
2235.41581,0.05947
2233.48707,0.05960
2231.55832,0.05988
2229.62958,0.06023
2227.70083,0.06047
2225.77208,0.06048
2223.84334,0.06024
2221.91459,0.05998
2219.98585,0.05992
2218.05710,0.06011
2216.12836,0.06044
2214.19961,0.06077
2212.27087,0.06101
2210.34212,0.06106
2208.41338,0.06093
2206.48463,0.06079
2204.55589,0.06068
2202.62714,0.06047
2200.69840,0.06028
2198.76965,0.06032
2196.84090,0.06041
2194.91216,0.06038
2192.98341,0.06029
2191.05467,0.06020
2189.12592,0.06015
2187.19718,0.06014
2185.26843,0.06011
2183.33969,0.06012
2181.41094,0.06022
2179.48220,0.06040
2177.55345,0.06049
2175.62471,0.06040
2173.69596,0.06035
2171.76722,0.06044
2169.83847,0.06043
2167.90973,0.06019
2165.98098,0.05990
2164.05223,0.05968
2162.12349,0.05944
2160.19474,0.05917
2158.26600,0.05898
2156.33725,0.05899
2154.40851,0.05916
2152.47976,0.05931
2150.55102,0.05929
2148.62227,0.05909
2146.69353,0.05883
2144.76478,0.05878
2142.83604,0.05918
2140.90729,0.05977
2138.97855,0.06021
2137.04980,0.06062
2135.12106,0.06109
2133.19231,0.06157
2131.26356,0.06205
2129.33482,0.06269
2127.40607,0.06343
2125.47733,0.06409
2123.54858,0.06457
2121.61984,0.06494
2119.69109,0.06532
2117.76235,0.06562
2115.83360,0.06587
2113.90486,0.06622
2111.97611,0.06639
2110.04737,0.06618
2108.11862,0.06601
2106.18988,0.06605
2104.26113,0.06598
2102.33238,0.06576
2100.40364,0.06566
2098.47489,0.06568
2096.54615,0.06562
2094.61740,0.06544
2092.68866,0.06515
2090.75991,0.06478
2088.83117,0.06438
2086.90242,0.06404
2084.97368,0.06377
2083.04493,0.06348
2081.11619,0.06315
2079.18744,0.06290
2077.25870,0.06266
2075.32995,0.06233
2073.40121,0.06202
2071.47246,0.06184
2069.54371,0.06160
2067.61497,0.06128
2065.68622,0.06105
2063.75748,0.06077
2061.82873,0.06033
2059.89999,0.05998
2057.97124,0.05987
2056.04250,0.05977
2054.11375,0.05958
2052.18501,0.05942
2050.25626,0.05924
2048.32752,0.05896
2046.39877,0.05872
2044.47003,0.05858
2042.54128,0.05843
2040.61254,0.05832
2038.68379,0.05835
2036.75504,0.05846
2034.82630,0.05847
2032.89755,0.05829
2030.96881,0.05804
2029.04006,0.05793
2027.11132,0.05787
2025.18257,0.05779
2023.25383,0.05785
2021.32508,0.05806
2019.39634,0.05817
2017.46759,0.05809
2015.53885,0.05797
2013.61010,0.05788
2011.68136,0.05796
2009.75261,0.05834
2007.82386,0.05895
2005.89512,0.05976
2003.96637,0.06074
2002.03763,0.06179
2000.10888,0.06272
1998.18014,0.06353
1996.25139,0.06433
1994.32265,0.06519
1992.39390,0.06598
1990.46516,0.06656
1988.53641,0.06695
1986.60767,0.06727
1984.67892,0.06757
1982.75018,0.06786
1980.82143,0.06812
1978.89269,0.06818
1976.96394,0.06807
1975.03519,0.06792
1973.10645,0.06782
1971.17770,0.06770
1969.24896,0.06740
1967.32021,0.06694
1965.39147,0.06646
1963.46272,0.06592
1961.53398,0.06542
1959.60523,0.06517
1957.67649,0.06514
1955.74774,0.06512
1953.81900,0.06510
1951.89025,0.06519
1949.96151,0.06529
1948.03276,0.06524
1946.10402,0.06505
1944.17527,0.06491
1942.24652,0.06482
1940.31778,0.06462
1938.38903,0.06433
1936.46029,0.06410
1934.53154,0.06390
1932.60280,0.06363
1930.67405,0.06333
1928.74531,0.06304
1926.81656,0.06281
1924.88782,0.06262
1922.95907,0.06232
1921.03033,0.06185
1919.10158,0.06137
1917.17284,0.06098
1915.24409,0.06066
1913.31534,0.06045
1911.38660,0.06028
1909.45785,0.05991
1907.52911,0.05922
1905.60036,0.05849
1903.67162,0.05807
1901.74287,0.05802
1899.81413,0.05810
1897.88538,0.05815
1895.95664,0.05831
1894.02789,0.05854
1892.09915,0.05864
1890.17040,0.05882
1888.24166,0.05946
1886.31291,0.06071
1884.38417,0.06240
1882.45542,0.06415
1880.52667,0.06570
1878.59793,0.06707
1876.66918,0.06840
1874.74044,0.06970
1872.81169,0.07091
1870.88295,0.07195
1868.95420,0.07285
1867.02546,0.07390
1865.09671,0.07523
1863.16797,0.07657
1861.23922,0.07763
1859.31048,0.07839
1857.38173,0.07909
1855.45299,0.07986
1853.52424,0.08067
1851.59549,0.08145
1849.66675,0.08201
1847.73800,0.08228
1845.80926,0.08233
1843.88051,0.08218
1841.95177,0.08188
1840.02302,0.08157
1838.09428,0.08110
1836.16553,0.08041
1834.23679,0.07961
1832.30804,0.07855
1830.37930,0.07684
1828.45055,0.07450
1826.52181,0.07192
1824.59306,0.06937
1822.66432,0.06720
1820.73557,0.06576
1818.80682,0.06510
1816.87808,0.06505
1814.94933,0.06544
1813.02059,0.06609
1811.09184,0.06682
1809.16310,0.06759
1807.23435,0.06832
1805.30561,0.06887
1803.37686,0.06930
1801.44812,0.06978
1799.51937,0.07021
1797.59063,0.07049
1795.66188,0.07068
1793.73314,0.07081
1791.80439,0.07090
1789.87565,0.07096
1787.94690,0.07095
1786.01815,0.07090
1784.08941,0.07088
1782.16066,0.07086
1780.23192,0.07086
1778.30317,0.07095
1776.37443,0.07098
1774.44568,0.07076
1772.51694,0.07031
1770.58819,0.06994
1768.65945,0.06973
1766.73070,0.06946
1764.80196,0.06902
1762.87321,0.06848
1760.94447,0.06804
1759.01572,0.06784
1757.08697,0.06771
1755.15823,0.06735
1753.22948,0.06673
1751.30074,0.06606
1749.37199,0.06544
1747.44325,0.06476
1745.51450,0.06400
1743.58576,0.06329
1741.65701,0.06254
1739.72827,0.06151
1737.79952,0.06039
1735.87078,0.05950
1733.94203,0.05891
1732.01329,0.05847
1730.08454,0.05805
1728.15580,0.05758
1726.22705,0.05715
1724.29830,0.05688
1722.36956,0.05684
1720.44081,0.05686
1718.51207,0.05673
1716.58332,0.05652
1714.65458,0.05671
1712.72583,0.05740
1710.79709,0.05809
1708.86834,0.05840
1706.93960,0.05859
1705.01085,0.05889
1703.08211,0.05916
1701.15336,0.05921
1699.22462,0.05917
1697.29587,0.05924
1695.36713,0.05933
1693.43838,0.05935
1691.50963,0.05931
1689.58089,0.05921
1687.65214,0.05902
1685.72340,0.05877
1683.79465,0.05863
1681.86591,0.05875
1679.93716,0.05884
1678.00842,0.05876
1676.07967,0.05859
1674.15093,0.05845
1672.22218,0.05829
1670.29344,0.05808
1668.36469,0.05795
1666.43595,0.05797
1664.50720,0.05799
1662.57845,0.05783
1660.64971,0.05750
1658.72096,0.05718
1656.79222,0.05706
1654.86347,0.05706
1652.93473,0.05687
1651.00598,0.05666
1649.07724,0.05669
1647.14849,0.05672
1645.21975,0.05662
1643.29100,0.05654
1641.36226,0.05659
1639.43351,0.05675
1637.50477,0.05688
1635.57602,0.05691
1633.64728,0.05684
1631.71853,0.05672
1629.78978,0.05663
1627.86104,0.05654
1625.93229,0.05649
1624.00355,0.05643
1622.07480,0.05637
1620.14606,0.05655
1618.21731,0.05682
1616.28857,0.05679
1614.35982,0.05661
1612.43108,0.05662
1610.50233,0.05665
1608.57359,0.05654
1606.64484,0.05642
1604.71610,0.05639
1602.78735,0.05641
1600.85861,0.05637
1598.92986,0.05622
1597.00111,0.05624
1595.07237,0.05647
1593.14362,0.05658
1591.21488,0.05648
1589.28613,0.05642
1587.35739,0.05644
1585.42864,0.05639
1583.49990,0.05624
1581.57115,0.05607
1579.64241,0.05590
1577.71366,0.05575
1575.78492,0.05582
1573.85617,0.05605
1571.92743,0.05610
1569.99868,0.05591
1568.06993,0.05578
1566.14119,0.05578
1564.21244,0.05579
1562.28370,0.05594
1560.35495,0.05610
1558.42621,0.05598
1556.49746,0.05578
1554.56872,0.05572
1552.63997,0.05568
1550.71123,0.05560
1548.78248,0.05555
1546.85374,0.05559
1544.92499,0.05558
1542.99625,0.05553
1541.06750,0.05556
1539.13876,0.05554
1537.21001,0.05545
1535.28126,0.05546
1533.35252,0.05552
1531.42377,0.05565
1529.49503,0.05581
1527.56628,0.05579
1525.63754,0.05559
1523.70879,0.05544
1521.78005,0.05527
1519.85130,0.05503
1517.92256,0.05494
1515.99381,0.05507
1514.06507,0.05524
1512.13632,0.05534
1510.20758,0.05538
1508.27883,0.05524
1506.35008,0.05496
1504.42134,0.05494
1502.49259,0.05510
1500.56385,0.05510
1498.63510,0.05492
1496.70636,0.05472
1494.77761,0.05456
1492.84887,0.05440
1490.92012,0.05430
1488.99138,0.05428
1487.06263,0.05411
1485.13389,0.05372
1483.20514,0.05322
1481.27640,0.05253
1479.34765,0.05154
1477.41891,0.05035
1475.49016,0.04986
1473.56141,0.05133
1471.63267,0.05381
1469.70392,0.05508
1467.77518,0.05532
1465.84643,0.05586
1463.91769,0.05739
1461.98894,0.05930
1460.06020,0.06030
1458.13145,0.06015
1456.20271,0.05978
1454.27396,0.05973
1452.34522,0.05962
1450.41647,0.05929
1448.48773,0.05903
1446.55898,0.05896
1444.63024,0.05888
1442.70149,0.05876
1440.77274,0.05870
1438.84400,0.05866
1436.91525,0.05860
1434.98651,0.05860
1433.05776,0.05865
1431.12902,0.05857
1429.20027,0.05839
1427.27153,0.05829
1425.34278,0.05824
1423.41404,0.05826
1421.48529,0.05839
1419.55655,0.05836
1417.62780,0.05805
1415.69906,0.05774
1413.77031,0.05761
1411.84156,0.05764
1409.91282,0.05781
1407.98407,0.05801
1406.05533,0.05805
1404.12658,0.05796
1402.19784,0.05779
1400.26909,0.05754
1398.34035,0.05733
1396.41160,0.05725
1394.48286,0.05725
1392.55411,0.05721
1390.62537,0.05704
1388.69662,0.05687
1386.76788,0.05676
1384.83913,0.05660
1382.91039,0.05646
1380.98164,0.05653
1379.05289,0.05670
1377.12415,0.05681
1375.19540,0.05694
1373.26666,0.05710
1371.33791,0.05722
1369.40917,0.05733
1367.48042,0.05752
1365.55168,0.05764
1363.62293,0.05746
1361.69419,0.05718
1359.76544,0.05712
1357.83670,0.05727
1355.90795,0.05744
1353.97921,0.05757
1352.05046,0.05768
1350.12172,0.05773
1348.19297,0.05756
1346.26422,0.05729
1344.33548,0.05722
1342.40673,0.05733
1340.47799,0.05741
1338.54924,0.05733
1336.62050,0.05713
1334.69175,0.05706
1332.76301,0.05724
1330.83426,0.05746
1328.90552,0.05750
1326.97677,0.05740
1325.04803,0.05733
1323.11928,0.05731
1321.19054,0.05719
1319.26179,0.05705
1317.33304,0.05705
1315.40430,0.05713
1313.47555,0.05723
1311.54681,0.05737
1309.61806,0.05754
1307.68932,0.05777
1305.76057,0.05785
1303.83183,0.05766
1301.90308,0.05745
1299.97434,0.05742
1298.04559,0.05751
1296.11685,0.05764
1294.18810,0.05765
1292.25936,0.05751
1290.33061,0.05744
1288.40187,0.05747
1286.47312,0.05747
1284.54437,0.05739
1282.61563,0.05735
1280.68688,0.05731
1278.75814,0.05725
1276.82939,0.05721
1274.90065,0.05721
1272.97190,0.05725
1271.04316,0.05743
1269.11441,0.05768
1267.18567,0.05777
1265.25692,0.05772
1263.32818,0.05770
1261.39943,0.05768
1259.47069,0.05761
1257.54194,0.05757
1255.61320,0.05753
1253.68445,0.05743
1251.75570,0.05735
1249.82696,0.05733
1247.89821,0.05731
1245.96947,0.05737
1244.04072,0.05749
1242.11198,0.05746
1240.18323,0.05735
1238.25449,0.05735
1236.32574,0.05738
1234.39700,0.05729
1232.46825,0.05717
1230.53951,0.05710
1228.61076,0.05720
1226.68202,0.05751
1224.75327,0.05771
1222.82452,0.05762
1220.89578,0.05745
1218.96703,0.05745
1217.03829,0.05759
1215.10954,0.05762
1213.18080,0.05743
1211.25205,0.05723
1209.32331,0.05720
1207.39456,0.05716
1205.46582,0.05703
1203.53707,0.05711
1201.60833,0.05737
1199.67958,0.05742
1197.75084,0.05733
1195.82209,0.05726
1193.89335,0.05702
1191.96460,0.05668
1190.03585,0.05675
1188.10711,0.05725
1186.17836,0.05771
1184.24962,0.05778
1182.32087,0.05749
1180.39213,0.05720
1178.46338,0.05727
1176.53464,0.05755
1174.60589,0.05770
1172.67715,0.05756
1170.74840,0.05715
1168.81966,0.05679
1166.89091,0.05681
1164.96217,0.05698
1163.03342,0.05692
1161.10467,0.05680
1159.17593,0.05702
1157.24718,0.05749
1155.31844,0.05772
1153.38969,0.05751
1151.46095,0.05720
1149.53220,0.05728
1147.60346,0.05769
1145.67471,0.05781
1143.74597,0.05747
1141.81722,0.05720
1139.88848,0.05719
1137.95973,0.05731
1136.03099,0.05748
1134.10224,0.05746
1132.17350,0.05730
1130.24475,0.05731
1128.31600,0.05725
1126.38726,0.05685
1124.45851,0.05659
1122.52977,0.05683
1120.60102,0.05711
1118.67228,0.05705
1116.74353,0.05700
1114.81479,0.05718
1112.88604,0.05732
1110.95730,0.05718
1109.02855,0.05696
1107.09981,0.05690
1105.17106,0.05692
1103.24232,0.05681
1101.31357,0.05652
1099.38483,0.05628
1097.45608,0.05631
1095.52733,0.05661
1093.59859,0.05692
1091.66984,0.05697
1089.74110,0.05674
1087.81235,0.05634
1085.88361,0.05601
1083.95486,0.05614
1082.02612,0.05675
1080.09737,0.05738
1078.16863,0.05773
1076.23988,0.05765
1074.31114,0.05710
1072.38239,0.05668
1070.45365,0.05676
1068.52490,0.05691
1066.59615,0.05685
1064.66741,0.05683
1062.73866,0.05689
1060.80992,0.05689
1058.88117,0.05681
1056.95243,0.05678
1055.02368,0.05681
1053.09494,0.05678
1051.16619,0.05671
1049.23745,0.05676
1047.30870,0.05690
1045.37996,0.05696
1043.45121,0.05688
1041.52247,0.05681
1039.59372,0.05699
1037.66498,0.05720
1035.73623,0.05720
1033.80748,0.05732
1031.87874,0.05763
1029.94999,0.05785
1028.02125,0.05794
1026.09250,0.05781
1024.16376,0.05760
1022.23501,0.05769
1020.30627,0.05805
1018.37752,0.05831
1016.44878,0.05817
1014.52003,0.05761
1012.59129,0.05713
1010.66254,0.05716
1008.73380,0.05746
1006.80505,0.05753
1004.87631,0.05737
1002.94756,0.05730
1001.01881,0.05741
999.09007,0.05744
997.16132,0.05729
995.23258,0.05717
993.30383,0.05719
991.37509,0.05727
989.44634,0.05739
987.51760,0.05751
985.58885,0.05756
983.66011,0.05750
981.73136,0.05744
979.80262,0.05757
977.87387,0.05775
975.94513,0.05763
974.01638,0.05729
972.08763,0.05704
970.15889,0.05700
968.23014,0.05725
966.30140,0.05760
964.37265,0.05773
962.44391,0.05761
960.51516,0.05731
958.58642,0.05715
956.65767,0.05746
954.72893,0.05791
952.80018,0.05807
950.87144,0.05798
948.94269,0.05793
947.01395,0.05790
945.08520,0.05768
943.15646,0.05734
941.22771,0.05715
939.29896,0.05720
937.37022,0.05753
935.44147,0.05779
933.51273,0.05756
931.58398,0.05713
929.65524,0.05696
927.72649,0.05705
925.79775,0.05722
923.86900,0.05740
921.94026,0.05743
920.01151,0.05731
918.08277,0.05720
916.15402,0.05727
914.22528,0.05747
912.29653,0.05753
910.36779,0.05746
908.43904,0.05749
906.51029,0.05739
904.58155,0.05705
902.65280,0.05666
900.72406,0.05638
898.79531,0.05649
896.86657,0.05684
894.93782,0.05687
893.00908,0.05668
891.08033,0.05674
889.15159,0.05699
887.22284,0.05701
885.29410,0.05680
883.36535,0.05670
881.43661,0.05683
879.50786,0.05710
877.57911,0.05730
875.65037,0.05729
873.72162,0.05707
871.79288,0.05667
869.86413,0.05647
867.93539,0.05689
866.00664,0.05759
864.07790,0.05797
862.14915,0.05794
860.22041,0.05763
858.29166,0.05721
856.36292,0.05707
854.43417,0.05732
852.50543,0.05758
850.57668,0.05764
848.64794,0.05749
846.71919,0.05726
844.79044,0.05715
842.86170,0.05714
840.93295,0.05705
839.00421,0.05695
837.07546,0.05691
835.14672,0.05696
833.21797,0.05711
831.28923,0.05724
829.36048,0.05726
827.43174,0.05739
825.50299,0.05750
823.57425,0.05716
821.64550,0.05677
819.71676,0.05694
817.78801,0.05728
815.85926,0.05715
813.93052,0.05673
812.00177,0.05650
810.07303,0.05667
808.14428,0.05709
806.21554,0.05721
804.28679,0.05690
802.35805,0.05664
800.42930,0.05666
798.50056,0.05689
796.57181,0.05725
794.64307,0.05756
792.71432,0.05767
790.78558,0.05765
788.85683,0.05752
786.92809,0.05725
784.99934,0.05679
783.07059,0.05618
781.14185,0.05580
779.21310,0.05599
777.28436,0.05653
775.35561,0.05688
773.42687,0.05696
771.49812,0.05702
769.56938,0.05710
767.64063,0.05706
765.71189,0.05685
763.78314,0.05666
761.85440,0.05642
759.92565,0.05611
757.99691,0.05595
756.06816,0.05588
754.13942,0.05565
752.21067,0.05532
750.28192,0.05522
748.35318,0.05533
746.42443,0.05526
744.49569,0.05512
742.56694,0.05507
740.63820,0.05494
738.70945,0.05466
736.78071,0.05397
734.85196,0.05252
732.92322,0.05141
730.99447,0.05225
729.06573,0.05439
727.13698,0.05575
725.20824,0.05566
723.27949,0.05532
721.35074,0.05654
719.42200,0.05956
717.49325,0.06222
715.56451,0.06284
713.63576,0.06204
711.70702,0.06093
709.77827,0.06021
707.84953,0.05992
705.92078,0.05968
703.99204,0.05954
702.06329,0.05948
700.13455,0.05933
698.20580,0.05916
696.27706,0.05906
694.34831,0.05894
692.41957,0.05864
690.49082,0.05828
688.56207,0.05807
686.63333,0.05816
684.70458,0.05863
682.77584,0.05916
680.84709,0.05913
678.91835,0.05873
676.98960,0.05876
675.06086,0.05950
673.13211,0.06054
671.20337,0.06137
669.27462,0.06217
667.34588,0.06346
665.41713,0.06492
663.48839,0.06619
661.55964,0.06757
659.63090,0.06935
657.70215,0.07165
655.77340,0.07450
653.84466,0.07759
651.91591,0.08030
649.98717,0.08267
648.05842,0.08520
646.12968,0.08766
644.20093,0.08978
642.27219,0.09207
640.34344,0.09479
638.41470,0.09718
636.48595,0.09909
634.55721,0.10162
632.62846,0.10449
630.69972,0.10642
628.77097,0.10760
626.84222,0.10832
624.91348,0.10885
622.98473,0.10994
621.05599,0.11127
619.12724,0.11226
617.19850,0.11247
615.26975,0.11129
613.34101,0.10910
611.41226,0.10706
609.48352,0.10524
607.55477,0.10262
605.62603,0.09910
603.69728,0.09557
601.76854,0.09270
599.83979,0.09109
