7497.03301,0.49291
7495.10426,0.49244
7493.17552,0.49452
7491.24677,0.49830
7489.31803,0.50021
7487.38928,0.49657
7485.46054,0.48971
7483.53179,0.48480
7481.60305,0.48283
7479.67430,0.48150
7477.74556,0.48016
7475.81681,0.48168
7473.88807,0.48665
7471.95932,0.48915
7470.03057,0.48728
7468.10183,0.48867
7466.17308,0.49322
7464.24434,0.49247
7462.31559,0.48772
7460.38685,0.48471
7458.45810,0.48400
7456.52936,0.48502
7454.60061,0.48523
7452.67187,0.48253
7450.74312,0.48167
7448.81438,0.48649
7446.88563,0.49134
7444.95689,0.49207
7443.02814,0.49171
7441.09940,0.49106
7439.17065,0.48857
7437.24190,0.48659
7435.31316,0.48729
7433.38441,0.48718
7431.45567,0.48546
7429.52692,0.48445
7427.59818,0.48373
7425.66943,0.48666
7423.74069,0.49157
7421.81194,0.48999
7419.88320,0.48478
7417.95445,0.48229
7416.02571,0.48182
7414.09696,0.48366
7412.16822,0.48743
7410.23947,0.48921
7408.31073,0.48913
7406.38198,0.48979
7404.45323,0.48957
7402.52449,0.48687
7400.59574,0.48382
7398.66700,0.48317
7396.73825,0.48474
7394.80951,0.48489
7392.88076,0.48207
7390.95202,0.47926
7389.02327,0.47827
7387.09453,0.47796
7385.16578,0.47789
7383.23704,0.47756
7381.30829,0.47613
7379.37955,0.47486
7377.45080,0.47496
7375.52205,0.47487
7373.59331,0.47487
7371.66456,0.47673
7369.73582,0.47669
7367.80707,0.47255
7365.87833,0.46772
7363.94958,0.46380
7362.02084,0.46367
7360.09209,0.46886
7358.16335,0.47276
7356.23460,0.46902
7354.30586,0.45974
7352.37711,0.45442
7350.44837,0.45684
7348.51962,0.45908
7346.59088,0.45785
7344.66213,0.45805
7342.73338,0.45904
7340.80464,0.45662
7338.87589,0.45252
7336.94715,0.45099
7335.01840,0.44998
7333.08966,0.44639
7331.16091,0.44408
7329.23217,0.44542
7327.30342,0.44554
7325.37468,0.44133
7323.44593,0.43583
7321.51719,0.43331
7319.58844,0.43598
7317.65970,0.44228
7315.73095,0.44611
7313.80221,0.44486
7311.87346,0.44155
7309.94471,0.43714
7308.01597,0.43244
7306.08722,0.42885
7304.15848,0.42506
7302.22973,0.42284
7300.30099,0.42527
7298.37224,0.42737
7296.44350,0.42375
7294.51475,0.41787
7292.58601,0.41208
7290.65726,0.40591
7288.72852,0.40288
7286.79977,0.40227
7284.87103,0.39946
7282.94228,0.39652
7281.01353,0.39495
7279.08479,0.39206
7277.15604,0.38957
7275.22730,0.38858
7273.29855,0.38420
7271.36981,0.37578
7269.44106,0.36827
7267.51232,0.36449
7265.58357,0.36493
7263.65483,0.36668
7261.72608,0.36557
7259.79734,0.36250
7257.86859,0.35991
7255.93985,0.35830
7254.01110,0.35681
7252.08236,0.35456
7250.15361,0.35280
7248.22486,0.35127
7246.29612,0.34756
7244.36737,0.34153
7242.43863,0.33590
7240.50988,0.33325
7238.58114,0.33230
7236.65239,0.33004
7234.72365,0.32648
7232.79490,0.32360
7230.86616,0.32057
7228.93741,0.31478
7227.00867,0.30675
7225.07992,0.29995
7223.15118,0.29607
7221.22243,0.29269
7219.29369,0.28851
7217.36494,0.28391
7215.43619,0.27821
7213.50745,0.27328
7211.57870,0.27030
7209.64996,0.26834
7207.72121,0.26599
7205.79247,0.26134
7203.86372,0.25552
7201.93498,0.25036
7200.00623,0.24589
7198.07749,0.24125
7196.14874,0.23600
7194.22000,0.23144
7192.29125,0.22655
7190.36251,0.22009
7188.43376,0.21379
7186.50501,0.20700
7184.57627,0.19864
7182.64752,0.19045
7180.71878,0.18337
7178.79003,0.17882
7176.86129,0.17760
7174.93254,0.17587
7173.00380,0.17204
7171.07505,0.17078
7169.14631,0.17528
7167.21756,0.18432
7165.28882,0.19449
7163.36007,0.20317
7161.43133,0.21217
7159.50258,0.22256
7157.57384,0.23048
7155.64509,0.23593
7153.71634,0.24148
7151.78760,0.24578
7149.85885,0.24912
7147.93011,0.25366
7146.00136,0.25819
7144.07262,0.26123
7142.14387,0.26430
7140.21513,0.26924
7138.28638,0.27391
7136.35764,0.27486
7134.42889,0.27220
7132.50015,0.26877
7130.57140,0.26723
7128.64266,0.26815
7126.71391,0.26962
7124.78516,0.26979
7122.85642,0.26896
7120.92767,0.26769
7118.99893,0.26496
7117.07018,0.26119
7115.14144,0.25911
7113.21269,0.25919
7111.28395,0.25951
7109.35520,0.25880
7107.42646,0.25594
7105.49771,0.25116
7103.56897,0.24632
7101.64022,0.24294
7099.71148,0.24115
7097.78273,0.23910
7095.85399,0.23656
7093.92524,0.23594
7091.99649,0.23681
7090.06775,0.23718
7088.13900,0.23574
7086.21026,0.23189
7084.28151,0.22932
7082.35277,0.22940
7080.42402,0.22735
7078.49528,0.22321
7076.56653,0.21967
7074.63779,0.21606
7072.70904,0.21343
7070.78030,0.21278
7068.85155,0.21131
7066.92281,0.20778
7064.99406,0.20531
7063.06532,0.20423
7061.13657,0.20217
7059.20782,0.20214
7057.27908,0.20668
7055.35033,0.21264
7053.42159,0.21666
7051.49284,0.21842
7049.56410,0.21968
7047.63535,0.22104
7045.70661,0.22255
7043.77786,0.22428
7041.84912,0.22454
7039.92037,0.22368
7037.99163,0.22432
7036.06288,0.22579
7034.13414,0.22477
7032.20539,0.22172
7030.27664,0.21948
7028.34790,0.21896
7026.41915,0.22031
7024.49041,0.22307
7022.56166,0.22547
7020.63292,0.22548
7018.70417,0.22358
7016.77543,0.22369
7014.84668,0.22688
7012.91794,0.22994
7010.98919,0.23125
7009.06045,0.23253
7007.13170,0.23538
7005.20296,0.23785
7003.27421,0.23770
7001.34547,0.23681
6999.41672,0.23721
6997.48797,0.23793
6995.55923,0.23727
6993.63048,0.23558
6991.70174,0.23576
6989.77299,0.23950
6987.84425,0.24395
6985.91550,0.24536
6983.98676,0.24468
6982.05801,0.24492
6980.12927,0.24568
6978.20052,0.24543
6976.27178,0.24368
6974.34303,0.24043
6972.41429,0.23787
6970.48554,0.23844
6968.55680,0.24080
6966.62805,0.24160
6964.69930,0.24176
6962.77056,0.24493
6960.84181,0.24913
6958.91307,0.24923
6956.98432,0.24585
6955.05558,0.24457
6953.12683,0.24589
6951.19809,0.24522
6949.26934,0.24478
6947.34060,0.24958
6945.41185,0.25572
6943.48311,0.25705
6941.55436,0.25539
6939.62562,0.25633
6937.69687,0.26056
6935.76812,0.26473
6933.83938,0.26790
6931.91063,0.27068
6929.98189,0.27146
6928.05314,0.27148
6926.12440,0.27439
6924.19565,0.27785
6922.26691,0.27879
6920.33816,0.27878
6918.40942,0.27790
6916.48067,0.27708
6914.55193,0.27976
6912.62318,0.28474
6910.69444,0.28823
6908.76569,0.29088
6906.83695,0.29328
6904.90820,0.29171
6902.97945,0.28682
6901.05071,0.28518
6899.12196,0.28747
6897.19322,0.28859
6895.26447,0.28831
6893.33573,0.29015
6891.40698,0.29427
6889.47824,0.29776
6887.54949,0.29895
6885.62075,0.29944
6883.69200,0.30046
6881.76326,0.30161
6879.83451,0.30320
6877.90577,0.30574
6875.97702,0.30906
6874.04828,0.31151
6872.11953,0.31184
6870.19078,0.31207
6868.26204,0.31385
6866.33329,0.31555
6864.40455,0.31537
6862.47580,0.31437
6860.54706,0.31520
6858.61831,0.31871
6856.68957,0.32237
6854.76082,0.32372
6852.83208,0.32408
6850.90333,0.32521
6848.97459,0.32566
6847.04584,0.32401
6845.11710,0.32250
6843.18835,0.32398
6841.25960,0.32678
6839.33086,0.32814
6837.40211,0.32920
6835.47337,0.33132
6833.54462,0.33257
6831.61588,0.33141
6829.68713,0.33015
6827.75839,0.33294
6825.82964,0.34062
6823.90090,0.34866
6821.97215,0.35303
6820.04341,0.35517
6818.11466,0.35686
6816.18592,0.35614
6814.25717,0.35234
6812.32843,0.35018
6810.39968,0.35419
6808.47093,0.36142
6806.54219,0.36523
6804.61344,0.36586
6802.68470,0.36860
6800.75595,0.37345
6798.82721,0.37565
6796.89846,0.37499
6794.96972,0.37652
6793.04097,0.37962
6791.11223,0.37968
6789.18348,0.37840
6787.25474,0.37817
6785.32599,0.37898
6783.39725,0.38200
6781.46850,0.38578
6779.53975,0.38795
6777.61101,0.38861
6775.68226,0.38965
6773.75352,0.39200
6771.82477,0.39397
6769.89603,0.39457
6767.96728,0.39298
6766.03854,0.39007
6764.10979,0.39020
6762.18105,0.39429
6760.25230,0.39903
6758.32356,0.40184
6756.39481,0.40172
6754.46607,0.40059
6752.53732,0.40190
6750.60858,0.40480
6748.67983,0.40673
6746.75108,0.40818
6744.82234,0.40883
6742.89359,0.40737
6740.96485,0.40581
6739.03610,0.40676
6737.10736,0.40821
6735.17861,0.40767
6733.24987,0.40680
6731.32112,0.40753
6729.39238,0.41008
6727.46363,0.41249
6725.53489,0.41223
6723.60614,0.41155
6721.67740,0.41340
6719.74865,0.41622
6717.81991,0.41818
6715.89116,0.41971
6713.96241,0.42107
6712.03367,0.42204
6710.10492,0.42339
6708.17618,0.42609
6706.24743,0.42957
6704.31869,0.43149
6702.38994,0.43112
6700.46120,0.43122
6698.53245,0.43264
6696.60371,0.43273
6694.67496,0.43129
6692.74622,0.43094
6690.81747,0.43178
6688.88873,0.43201
6686.95998,0.43349
6685.03123,0.43784
6683.10249,0.44072
6681.17374,0.44114
6679.24500,0.44298
6677.31625,0.44460
6675.38751,0.44304
6673.45876,0.44046
6671.53002,0.43891
6669.60127,0.43758
6667.67253,0.43658
6665.74378,0.43653
6663.81504,0.43726
6661.88629,0.43958
6659.95755,0.44237
6658.02880,0.44357
6656.10006,0.44368
6654.17131,0.44298
6652.24256,0.44236
6650.31382,0.44347
6648.38507,0.44578
6646.45633,0.44726
6644.52758,0.44706
6642.59884,0.44714
6640.67009,0.44869
6638.74135,0.44967
6636.81260,0.44932
6634.88386,0.44839
6632.95511,0.44750
6631.02637,0.44837
6629.09762,0.45080
6627.16888,0.45299
6625.24013,0.45558
6623.31139,0.45841
6621.38264,0.45846
6619.45389,0.45528
6617.52515,0.45259
6615.59640,0.45217
6613.66766,0.45297
6611.73891,0.45446
6609.81017,0.45508
6607.88142,0.45407
6605.95268,0.45376
6604.02393,0.45484
6602.09519,0.45541
6600.16644,0.45496
6598.23770,0.45440
6596.30895,0.45431
6594.38021,0.45454
6592.45146,0.45430
6590.52271,0.45352
6588.59397,0.45342
6586.66522,0.45502
6584.73648,0.45672
6582.80773,0.45580
6580.87899,0.45384
6578.95024,0.45407
6577.02150,0.45509
6575.09275,0.45423
6573.16401,0.45309
6571.23526,0.45335
6569.30652,0.45298
6567.37777,0.45052
6565.44903,0.44756
6563.52028,0.44717
6561.59154,0.45050
6559.66279,0.45451
6557.73404,0.45611
6555.80530,0.45511
6553.87655,0.45287
6551.94781,0.45127
6550.01906,0.45136
6548.09032,0.45217
6546.16157,0.45227
6544.23283,0.45124
6542.30408,0.44991
6540.37534,0.45021
6538.44659,0.45172
6536.51785,0.45145
6534.58910,0.44989
6532.66036,0.44868
6530.73161,0.44602
6528.80287,0.44259
6526.87412,0.44302
6524.94537,0.44751
6523.01663,0.45113
6521.08788,0.45055
6519.15914,0.44746
6517.23039,0.44629
6515.30165,0.44767
6513.37290,0.44847
6511.44416,0.44730
6509.51541,0.44462
6507.58667,0.44239
6505.65792,0.44146
6503.72918,0.43900
6501.80043,0.43490
6499.87169,0.43359
6497.94294,0.43557
6496.01419,0.43696
6494.08545,0.43561
6492.15670,0.43198
6490.22796,0.42873
6488.29921,0.42780
6486.37047,0.42786
6484.44172,0.42871
6482.51298,0.43043
6480.58423,0.43073
6478.65549,0.43095
6476.72674,0.43480
6474.79800,0.44076
6472.86925,0.44600
6470.94051,0.45073
6469.01176,0.45516
6467.08302,0.45875
6465.15427,0.46212
6463.22552,0.46616
6461.29678,0.46913
6459.36803,0.46949
6457.43929,0.46977
6455.51054,0.47159
6453.58180,0.47344
6451.65305,0.47526
6449.72431,0.47776
6447.79556,0.47922
6445.86682,0.47886
6443.93807,0.47884
6442.00933,0.48057
6440.08058,0.48428
6438.15184,0.48872
6436.22309,0.49093
6434.29434,0.49059
6432.36560,0.48952
6430.43685,0.48869
6428.50811,0.48895
6426.57936,0.48950
6424.65062,0.48858
6422.72187,0.48752
6420.79313,0.48853
6418.86438,0.49054
6416.93564,0.49187
6415.00689,0.49303
6413.07815,0.49363
6411.14940,0.49344
6409.22066,0.49402
6407.29191,0.49481
6405.36317,0.49545
6403.43442,0.49730
6401.50567,0.49886
6399.57693,0.49835
6397.64818,0.49758
6395.71944,0.49878
6393.79069,0.50070
6391.86195,0.50102
6389.93320,0.50107
6388.00446,0.50234
6386.07571,0.50367
6384.14697,0.50437
6382.21822,0.50425
6380.28948,0.50298
6378.36073,0.50231
6376.43199,0.50378
6374.50324,0.50528
6372.57450,0.50529
6370.64575,0.50562
6368.71700,0.50703
6366.78826,0.50838
6364.85951,0.50912
6362.93077,0.50931
6361.00202,0.50952
6359.07328,0.50997
6357.14453,0.51017
6355.21579,0.51057
6353.28704,0.51167
6351.35830,0.51348
6349.42955,0.51588
6347.50081,0.51698
6345.57206,0.51570
6343.64332,0.51375
6341.71457,0.51281
6339.78582,0.51412
6337.85708,0.51713
6335.92833,0.51921
6333.99959,0.51939
6332.07084,0.51852
6330.14210,0.51795
6328.21335,0.51890
6326.28461,0.52021
6324.35586,0.52012
6322.42712,0.51996
6320.49837,0.52118
6318.56963,0.52225
6316.64088,0.52196
6314.71214,0.52072
6312.78339,0.51884
6310.85465,0.51720
6308.92590,0.51670
6306.99715,0.51722
6305.06841,0.51825
6303.13966,0.51860
6301.21092,0.51816
6299.28217,0.51875
6297.35343,0.52096
6295.42468,0.52279
6293.49594,0.52268
6291.56719,0.52253
6289.63845,0.52389
6287.70970,0.52400
6285.78096,0.52159
6283.85221,0.51961
6281.92347,0.51909
6279.99472,0.51903
6278.06598,0.52023
6276.13723,0.52188
6274.20848,0.52139
6272.27974,0.52003
6270.35099,0.51993
6268.42225,0.51984
6266.49350,0.51874
6264.56476,0.51791
6262.63601,0.51858
6260.70727,0.51965
6258.77852,0.51923
6256.84978,0.51781
6254.92103,0.51753
6252.99229,0.51886
6251.06354,0.52041
6249.13480,0.52134
6247.20605,0.52176
6245.27730,0.52203
6243.34856,0.52248
6241.41981,0.52300
6239.49107,0.52281
6237.56232,0.52105
6235.63358,0.51850
6233.70483,0.51706
6231.77609,0.51694
6229.84734,0.51749
6227.91860,0.51898
6225.98985,0.52079
6224.06111,0.52066
6222.13236,0.51841
6220.20362,0.51695
6218.27487,0.51791
6216.34613,0.51929
6214.41738,0.51877
6212.48863,0.51689
6210.55989,0.51542
6208.63114,0.51556
6206.70240,0.51762
6204.77365,0.51969
6202.84491,0.51946
6200.91616,0.51796
6198.98742,0.51801
6197.05867,0.51933
6195.12993,0.51962
6193.20118,0.51827
6191.27244,0.51600
6189.34369,0.51375
6187.41495,0.51278
6185.48620,0.51300
6183.55746,0.51264
6181.62871,0.51136
6179.69996,0.50995
6177.77122,0.50870
6175.84247,0.50836
6173.91373,0.50903
6171.98498,0.50990
6170.05624,0.51055
6168.12749,0.51099
6166.19875,0.51103
6164.27000,0.51018
6162.34126,0.50895
6160.41251,0.50818
6158.48377,0.50803
6156.55502,0.50777
6154.62628,0.50603
6152.69753,0.50384
6150.76878,0.50308
6148.84004,0.50308
6146.91129,0.50230
6144.98255,0.50033
6143.05380,0.49885
6141.12506,0.49919
6139.19631,0.49987
6137.26757,0.49928
6135.33882,0.49778
6133.41008,0.49712
6131.48133,0.49807
6129.55259,0.49841
6127.62384,0.49706
6125.69510,0.49666
6123.76635,0.49732
6121.83761,0.49609
6119.90886,0.49363
6117.98011,0.49270
6116.05137,0.49322
6114.12262,0.49358
6112.19388,0.49320
6110.26513,0.49283
6108.33639,0.49286
6106.40764,0.49243
6104.47890,0.49104
6102.55015,0.48936
6100.62141,0.48836
6098.69266,0.48849
6096.76392,0.48870
6094.83517,0.48763
6092.90643,0.48602
6090.97768,0.48538
6089.04893,0.48560
6087.12019,0.48577
6085.19144,0.48569
6083.26270,0.48597
6081.33395,0.48663
6079.40521,0.48648
6077.47646,0.48491
6075.54772,0.48317
6073.61897,0.48223
6071.69023,0.48186
6069.76148,0.48170
6067.83274,0.48171
6065.90399,0.48204
6063.97525,0.48159
6062.04650,0.47972
6060.11776,0.47791
6058.18901,0.47662
6056.26026,0.47575
6054.33152,0.47583
6052.40277,0.47610
6050.47403,0.47501
6048.54528,0.47229
6046.61654,0.46969
6044.68779,0.46884
6042.75905,0.46982
6040.83030,0.47070
6038.90156,0.46864
6036.97281,0.46495
6035.04407,0.46331
6033.11532,0.46372
6031.18658,0.46357
6029.25783,0.46189
6027.32909,0.45935
6025.40034,0.45599
6023.47159,0.45286
6021.54285,0.45134
6019.61410,0.45074
6017.68536,0.45031
6015.75661,0.44932
6013.82787,0.44754
6011.89912,0.44586
6009.97038,0.44408
6008.04163,0.44244
6006.11289,0.44159
6004.18414,0.43970
6002.25540,0.43563
6000.32665,0.43155
5998.39791,0.42930
5996.46916,0.42771
5994.54041,0.42479
5992.61167,0.42125
5990.68292,0.41945
5988.75418,0.41885
5986.82543,0.41678
5984.89669,0.41279
5982.96794,0.40873
5981.03920,0.40546
5979.11045,0.40258
5977.18171,0.39988
5975.25296,0.39668
5973.32422,0.39283
5971.39547,0.38991
5969.46673,0.38788
5967.53798,0.38450
5965.60924,0.37976
5963.68049,0.37565
5961.75174,0.37265
5959.82300,0.36963
5957.89425,0.36571
5955.96551,0.36125
5954.03676,0.35646
5952.10802,0.35074
5950.17927,0.34501
5948.25053,0.34092
5946.32178,0.33784
5944.39304,0.33399
5942.46429,0.32928
5940.53555,0.32455
5938.60680,0.31969
5936.67806,0.31421
5934.74931,0.30802
5932.82057,0.30149
5930.89182,0.29493
5928.96307,0.28809
5927.03433,0.28078
5925.10558,0.27339
5923.17684,0.26689
5921.24809,0.26130
5919.31935,0.25527
5917.39060,0.24811
5915.46186,0.24091
5913.53311,0.23504
5911.60437,0.22976
5909.67562,0.22371
5907.74688,0.21783
5905.81813,0.21337
5903.88939,0.21036
5901.96064,0.20769
5900.03189,0.20408
5898.10315,0.20022
5896.17440,0.19667
5894.24566,0.19289
5892.31691,0.18898
5890.38817,0.18442
5888.45942,0.17860
5886.53068,0.17260
5884.60193,0.16731
5882.67319,0.16171
5880.74444,0.15465
5878.81570,0.14691
5876.88695,0.13957
5874.95821,0.13254
5873.02946,0.12521
5871.10072,0.11822
5869.17197,0.11282
5867.24322,0.10811
5865.31448,0.10255
5863.38573,0.09684
5861.45699,0.09208
5859.52824,0.08797
5857.59950,0.08406
5855.67075,0.08084
5853.74201,0.07863
5851.81326,0.07672
5849.88452,0.07396
5847.95577,0.07052
5846.02703,0.06799
5844.09828,0.06705
5842.16954,0.06665
5840.24079,0.06621
5838.31205,0.06547
5836.38330,0.06407
5834.45455,0.06271
5832.52581,0.06207
5830.59706,0.06205
5828.66832,0.06194
5826.73957,0.06082
5824.81083,0.05919
5822.88208,0.05827
5820.95334,0.05818
5819.02459,0.05806
5817.09585,0.05763
5815.16710,0.05735
5813.23836,0.05770
5811.30961,0.05852
5809.38087,0.05884
5807.45212,0.05863
5805.52337,0.05851
5803.59463,0.05824
5801.66588,0.05810
5799.73714,0.05796
5797.80839,0.05715
5795.87965,0.05654
5793.95090,0.05672
5792.02216,0.05732
5790.09341,0.05835
5788.16467,0.05889
5786.23592,0.05816
5784.30718,0.05696
5782.37843,0.05607
5780.44969,0.05599
5778.52094,0.05677
5776.59220,0.05689
5774.66345,0.05595
5772.73470,0.05535
5770.80596,0.05506
5768.87721,0.05429
5766.94847,0.05349
5765.01972,0.05308
5763.09098,0.05374
5761.16223,0.05597
5759.23349,0.05778
5757.30474,0.05750
5755.37600,0.05652
5753.44725,0.05625
5751.51851,0.05695
5749.58976,0.05855
5747.66102,0.06008
5745.73227,0.06088
5743.80352,0.06165
5741.87478,0.06271
5739.94603,0.06422
5738.01729,0.06590
5736.08854,0.06669
5734.15980,0.06638
5732.23105,0.06575
5730.30231,0.06585
5728.37356,0.06726
5726.44482,0.06960
5724.51607,0.07245
5722.58733,0.07508
5720.65858,0.07655
5718.72984,0.07736
5716.80109,0.07858
5714.87235,0.07965
5712.94360,0.07958
5711.01485,0.07828
5709.08611,0.07596
5707.15736,0.07334
5705.22862,0.07181
5703.29987,0.07157
5701.37113,0.07123
5699.44238,0.06974
5697.51364,0.06790
5695.58489,0.06700
5693.65615,0.06672
5691.72740,0.06602
5689.79866,0.06508
5687.86991,0.06458
5685.94117,0.06448
5684.01242,0.06413
5682.08368,0.06333
5680.15493,0.06295
5678.22618,0.06306
5676.29744,0.06219
5674.36869,0.06015
5672.43995,0.05846
5670.51120,0.05824
5668.58246,0.05906
5666.65371,0.05970
5664.72497,0.05939
5662.79622,0.05889
5660.86748,0.05901
5658.93873,0.05941
5657.00999,0.06022
5655.08124,0.06165
5653.15250,0.06295
5651.22375,0.06385
5649.29500,0.06489
5647.36626,0.06690
5645.43751,0.06975
5643.50877,0.07156
5641.58002,0.07189
5639.65128,0.07219
5637.72253,0.07304
5635.79379,0.07429
5633.86504,0.07558
5631.93630,0.07673
5630.00755,0.07828
5628.07881,0.07988
5626.15006,0.08059
5624.22132,0.08095
5622.29257,0.08174
5620.36383,0.08256
5618.43508,0.08341
5616.50633,0.08493
5614.57759,0.08690
5612.64884,0.08827
5610.72010,0.08879
5608.79135,0.08958
5606.86261,0.09127
5604.93386,0.09291
5603.00512,0.09374
5601.07637,0.09409
5599.14763,0.09446
5597.21888,0.09511
5595.29014,0.09604
5593.36139,0.09702
5591.43265,0.09789
5589.50390,0.09822
5587.57516,0.09755
5585.64641,0.09644
5583.71766,0.09538
5581.78892,0.09383
5579.86017,0.09188
5577.93143,0.09064
5576.00268,0.09059
5574.07394,0.09089
5572.14519,0.09064
5570.21645,0.09009
5568.28770,0.08966
5566.35896,0.08881
5564.43021,0.08719
5562.50147,0.08584
5560.57272,0.08564
5558.64398,0.08596
5556.71523,0.08590
5554.78648,0.08560
5552.85774,0.08559
5550.92899,0.08573
5549.00025,0.08565
5547.07150,0.08578
5545.14276,0.08644
5543.21401,0.08718
5541.28527,0.08767
5539.35652,0.08774
5537.42778,0.08723
5535.49903,0.08682
5533.57029,0.08693
5531.64154,0.08737
5529.71280,0.08817
5527.78405,0.08865
5525.85531,0.08820
5523.92656,0.08803
5521.99781,0.08921
5520.06907,0.09037
5518.14032,0.08974
5516.21158,0.08812
5514.28283,0.08783
5512.35409,0.08916
5510.42534,0.09003
5508.49660,0.08889
5506.56785,0.08702
5504.63911,0.08641
5502.71036,0.08635
5500.78162,0.08564
5498.85287,0.08515
5496.92413,0.08547
5494.99538,0.08555
5493.06664,0.08463
5491.13789,0.08387
5489.20914,0.08428
5487.28040,0.08461
5485.35165,0.08441
5483.42291,0.08507
5481.49416,0.08693
5479.56542,0.08851
5477.63667,0.08889
5475.70793,0.08895
5473.77918,0.08967
5471.85044,0.09122
5469.92169,0.09306
5467.99295,0.09406
5466.06420,0.09439
5464.13546,0.09479
5462.20671,0.09524
5460.27796,0.09616
5458.34922,0.09706
5456.42047,0.09695
5454.49173,0.09662
5452.56298,0.09666
5450.63424,0.09690
5448.70549,0.09768
5446.77675,0.09858
5444.84800,0.09893
5442.91926,0.09925
5440.99051,0.09978
5439.06177,0.09994
5437.13302,0.10006
5435.20428,0.10062
5433.27553,0.10109
5431.34679,0.10148
5429.41804,0.10248
5427.48929,0.10348
5425.56055,0.10350
5423.63180,0.10354
5421.70306,0.10499
5419.77431,0.10724
5417.84557,0.10910
5415.91682,0.11051
5413.98808,0.11183
5412.05933,0.11335
5410.13059,0.11516
5408.20184,0.11697
5406.27310,0.11859
5404.34435,0.12010
5402.41561,0.12180
5400.48686,0.12361
5398.55811,0.12506
5396.62937,0.12650
5394.70062,0.12803
5392.77188,0.12914
5390.84313,0.13002
5388.91439,0.13087
5386.98564,0.13193
5385.05690,0.13347
5383.12815,0.13488
5381.19941,0.13568
5379.27066,0.13621
5377.34192,0.13685
5375.41317,0.13759
5373.48443,0.13861
5371.55568,0.13992
5369.62694,0.14099
5367.69819,0.14184
5365.76944,0.14258
5363.84070,0.14272
5361.91195,0.14281
5359.98321,0.14416
5358.05446,0.14640
5356.12572,0.14832
5354.19697,0.15020
5352.26823,0.15258
5350.33948,0.15497
5348.41074,0.15691
5346.48199,0.15847
5344.55325,0.15975
5342.62450,0.16053
5340.69576,0.16120
5338.76701,0.16263
5336.83827,0.16438
5334.90952,0.16556
5332.98077,0.16644
5331.05203,0.16722
5329.12328,0.16723
5327.19454,0.16654
5325.26579,0.16601
5323.33705,0.16575
5321.40830,0.16494
5319.47956,0.16360
5317.55081,0.16258
5315.62207,0.16170
5313.69332,0.16042
5311.76458,0.15915
5309.83583,0.15860
5307.90709,0.15892
5305.97834,0.15943
5304.04959,0.15974
5302.12085,0.16017
5300.19210,0.16106
5298.26336,0.16209
5296.33461,0.16238
5294.40587,0.16207
5292.47712,0.16240
5290.54838,0.16326
5288.61963,0.16344
5286.69089,0.16297
5284.76214,0.16298
5282.83340,0.16332
5280.90465,0.16314
5278.97591,0.16290
5277.04716,0.16295
5275.11842,0.16274
5273.18967,0.16239
5271.26092,0.16237
5269.33218,0.16248
5267.40343,0.16252
5265.47469,0.16258
5263.54594,0.16253
5261.61720,0.16254
5259.68845,0.16322
5257.75971,0.16416
5255.83096,0.16398
5253.90222,0.16315
5251.97347,0.16318
5250.04473,0.16364
5248.11598,0.16337
5246.18724,0.16241
5244.25849,0.16174
5242.32975,0.16178
5240.40100,0.16181
5238.47225,0.16144
5236.54351,0.16143
5234.61476,0.16187
5232.68602,0.16157
5230.75727,0.16061
5228.82853,0.15998
5226.89978,0.15945
5224.97104,0.15912
5223.04229,0.15955
5221.11355,0.16001
5219.18480,0.15993
5217.25606,0.15970
5215.32731,0.15968
5213.39857,0.16020
5211.46982,0.16095
5209.54107,0.16094
5207.61233,0.16030
5205.68358,0.16016
5203.75484,0.16031
5201.82609,0.15978
5199.89735,0.15916
5197.96860,0.15937
5196.03986,0.15987
5194.11111,0.16002
5192.18237,0.15975
5190.25362,0.15905
5188.32488,0.15834
5186.39613,0.15829
5184.46739,0.15866
5182.53864,0.15873
5180.60990,0.15880
5178.68115,0.15933
5176.75240,0.15971
5174.82366,0.15946
5172.89491,0.15918
5170.96617,0.15948
5169.03742,0.15992
5167.10868,0.16001
5165.17993,0.16013
5163.25119,0.16054
5161.32244,0.16090
5159.39370,0.16093
5157.46495,0.16095
5155.53621,0.16137
5153.60746,0.16189
5151.67872,0.16205
5149.74997,0.16229
5147.82123,0.16352
5145.89248,0.16524
5143.96373,0.16610
5142.03499,0.16612
5140.10624,0.16616
5138.17750,0.16633
5136.24875,0.16649
5134.32001,0.16671
5132.39126,0.16702
5130.46252,0.16747
5128.53377,0.16782
5126.60503,0.16797
5124.67628,0.16815
5122.74754,0.16794
5120.81879,0.16718
5118.89005,0.16630
5116.96130,0.16534
5115.03255,0.16486
5113.10381,0.16507
5111.17506,0.16485
5109.24632,0.16415
5107.31757,0.16378
5105.38883,0.16371
5103.46008,0.16405
5101.53134,0.16470
5099.60259,0.16467
5097.67385,0.16412
5095.74510,0.16413
5093.81636,0.16449
5091.88761,0.16466
5089.95887,0.16481
5088.03012,0.16503
5086.10138,0.16553
5084.17263,0.16666
5082.24388,0.16789
5080.31514,0.16822
5078.38639,0.16787
5076.45765,0.16776
5074.52890,0.16815
5072.60016,0.16871
5070.67141,0.16881
5068.74267,0.16839
5066.81392,0.16823
5064.88518,0.16849
5062.95643,0.16888
5061.02769,0.16970
5059.09894,0.17100
5057.17020,0.17186
5055.24145,0.17196
5053.31270,0.17218
5051.38396,0.17266
5049.45521,0.17298
5047.52647,0.17305
5045.59772,0.17247
5043.66898,0.17188
5041.74023,0.17220
5039.81149,0.17264
5037.88274,0.17280
5035.95400,0.17342
5034.02525,0.17427
5032.09651,0.17460
5030.16776,0.17420
5028.23902,0.17330
5026.31027,0.17229
5024.38153,0.17141
5022.45278,0.17080
5020.52403,0.17051
5018.59529,0.17056
5016.66654,0.17063
5014.73780,0.17022
5012.80905,0.16947
5010.88031,0.16892
5008.95156,0.16873
5007.02282,0.16854
5005.09407,0.16792
5003.16533,0.16677
5001.23658,0.16519
4999.30784,0.16354
4997.37909,0.16224
4995.45035,0.16117
4993.52160,0.15972
4991.59286,0.15781
4989.66411,0.15607
4987.73536,0.15487
4985.80662,0.15384
4983.87787,0.15241
4981.94913,0.15075
4980.02038,0.14974
4978.09164,0.14954
4976.16289,0.14915
4974.23415,0.14809
4972.30540,0.14700
4970.37666,0.14599
4968.44791,0.14482
4966.51917,0.14422
4964.59042,0.14484
4962.66168,0.14618
4960.73293,0.14782
4958.80418,0.15022
4956.87544,0.15343
4954.94669,0.15684
4953.01795,0.16004
4951.08920,0.16286
4949.16046,0.16498
4947.23171,0.16637
4945.30297,0.16750
4943.37422,0.16851
4941.44548,0.16924
4939.51673,0.16984
4937.58799,0.17055
4935.65924,0.17125
4933.73050,0.17158
4931.80175,0.17147
4929.87301,0.17126
4927.94426,0.17129
4926.01551,0.17151
4924.08677,0.17161
4922.15802,0.17155
4920.22928,0.17165
4918.30053,0.17207
4916.37179,0.17237
4914.44304,0.17230
4912.51430,0.17212
4910.58555,0.17213
4908.65681,0.17238
4906.72806,0.17258
4904.79932,0.17263
4902.87057,0.17267
4900.94183,0.17250
4899.01308,0.17187
4897.08434,0.17112
4895.15559,0.17055
4893.22684,0.16984
4891.29810,0.16907
4889.36935,0.16865
4887.44061,0.16837
4885.51186,0.16782
4883.58312,0.16709
4881.65437,0.16655
4879.72563,0.16629
4877.79688,0.16614
4875.86814,0.16604
4873.93939,0.16580
4872.01065,0.16547
4870.08190,0.16534
4868.15316,0.16544
4866.22441,0.16571
4864.29566,0.16622
4862.36692,0.16715
4860.43817,0.16873
4858.50943,0.17054
4856.58068,0.17204
4854.65194,0.17358
4852.72319,0.17545
4850.79445,0.17739
4848.86570,0.17917
4846.93696,0.18092
4845.00821,0.18265
4843.07947,0.18414
4841.15072,0.18555
4839.22198,0.18711
4837.29323,0.18879
4835.36449,0.19041
4833.43574,0.19179
4831.50699,0.19294
4829.57825,0.19395
4827.64950,0.19512
4825.72076,0.19675
4823.79201,0.19859
4821.86327,0.20043
4819.93452,0.20235
4818.00578,0.20426
4816.07703,0.20591
4814.14829,0.20716
4812.21954,0.20819
4810.29080,0.20924
4808.36205,0.21045
4806.43331,0.21172
4804.50456,0.21274
4802.57582,0.21357
4800.64707,0.21425
4798.71832,0.21468
4796.78958,0.21550
4794.86083,0.21708
4792.93209,0.21862
4791.00334,0.21942
4789.07460,0.21973
4787.14585,0.22019
4785.21711,0.22079
4783.28836,0.22110
4781.35962,0.22128
4779.43087,0.22172
4777.50213,0.22254
4775.57338,0.22406
4773.64464,0.22609
4771.71589,0.22779
4769.78714,0.22898
4767.85840,0.23014
4765.92965,0.23152
4764.00091,0.23304
4762.07216,0.23440
4760.14342,0.23569
4758.21467,0.23704
4756.28593,0.23819
4754.35718,0.23905
4752.42844,0.23973
4750.49969,0.24062
4748.57095,0.24184
4746.64220,0.24275
4744.71346,0.24331
4742.78471,0.24392
4740.85597,0.24441
4738.92722,0.24480
4736.99847,0.24512
4735.06973,0.24520
4733.14098,0.24547
4731.21224,0.24627
4729.28349,0.24741
4727.35475,0.24867
4725.42600,0.24992
4723.49726,0.25108
4721.56851,0.25226
4719.63977,0.25336
4717.71102,0.25439
4715.78228,0.25559
4713.85353,0.25672
4711.92479,0.25744
4709.99604,0.25799
4708.06729,0.25869
4706.13855,0.25904
4704.20980,0.25861
4702.28106,0.25826
4700.35231,0.25868
4698.42357,0.25964
4696.49482,0.26050
4694.56608,0.26075
4692.63733,0.26077
4690.70859,0.26080
4688.77984,0.26036
4686.85110,0.25930
4684.92235,0.25800
4682.99361,0.25663
4681.06486,0.25488
4679.13612,0.25272
4677.20737,0.25057
4675.27862,0.24869
4673.34988,0.24693
4671.42113,0.24517
4669.49239,0.24387
4667.56364,0.24328
4665.63490,0.24312
4663.70615,0.24360
4661.77741,0.24529
4659.84866,0.24771
4657.91992,0.24963
4655.99117,0.25078
4654.06243,0.25165
4652.13368,0.25256
4650.20494,0.25349
4648.27619,0.25403
4646.34745,0.25404
4644.41870,0.25378
4642.48995,0.25354
4640.56121,0.25361
4638.63246,0.25399
4636.70372,0.25396
4634.77497,0.25333
4632.84623,0.25265
4630.91748,0.25212
4628.98874,0.25174
4627.05999,0.25137
4625.13125,0.25054
4623.20250,0.24959
4621.27376,0.24913
4619.34501,0.24859
4617.41627,0.24761
4615.48752,0.24664
4613.55877,0.24579
4611.63003,0.24484
4609.70128,0.24367
4607.77254,0.24249
4605.84379,0.24187
4603.91505,0.24177
4601.98630,0.24146
4600.05756,0.24087
4598.12881,0.24028
4596.20007,0.23918
4594.27132,0.23779
4592.34258,0.23689
4590.41383,0.23619
4588.48509,0.23530
4586.55634,0.23431
4584.62760,0.23314
4582.69885,0.23170
4580.77010,0.23005
4578.84136,0.22864
4576.91261,0.22761
4574.98387,0.22659
4573.05512,0.22538
4571.12638,0.22379
4569.19763,0.22187
4567.26889,0.22011
4565.34014,0.21836
4563.41140,0.21615
4561.48265,0.21359
4559.55391,0.21127
4557.62516,0.20961
4555.69642,0.20821
4553.76767,0.20646
4551.83893,0.20423
4549.91018,0.20173
4547.98143,0.19930
4546.05269,0.19730
4544.12394,0.19551
4542.19520,0.19347
4540.26645,0.19136
4538.33771,0.18946
4536.40896,0.18731
4534.48022,0.18481
4532.55147,0.18250
4530.62273,0.18049
4528.69398,0.17855
4526.76524,0.17664
4524.83649,0.17467
4522.90775,0.17266
4520.97900,0.17052
4519.05025,0.16816
4517.12151,0.16597
4515.19276,0.16401
4513.26402,0.16198
4511.33527,0.16004
4509.40653,0.15806
4507.47778,0.15557
4505.54904,0.15250
4503.62029,0.14928
4501.69155,0.14671
4499.76280,0.14481
4497.83406,0.14303
4495.90531,0.14121
4493.97657,0.13905
4492.04782,0.13645
4490.11908,0.13404
4488.19033,0.13178
4486.26158,0.12922
4484.33284,0.12676
4482.40409,0.12467
4480.47535,0.12269
4478.54660,0.12054
4476.61786,0.11819
4474.68911,0.11603
4472.76037,0.11428
4470.83162,0.11248
4468.90288,0.11029
4466.97413,0.10809
4465.04539,0.10614
4463.11664,0.10399
4461.18790,0.10159
4459.25915,0.09946
4457.33041,0.09734
4455.40166,0.09497
4453.47291,0.09279
4451.54417,0.09091
4449.61542,0.08883
4447.68668,0.08624
4445.75793,0.08355
4443.82919,0.08140
4441.90044,0.07977
4439.97170,0.07814
4438.04295,0.07624
4436.11421,0.07456
4434.18546,0.07333
4432.25672,0.07199
4430.32797,0.07044
4428.39923,0.06910
4426.47048,0.06788
4424.54173,0.06642
4422.61299,0.06485
4420.68424,0.06357
4418.75550,0.06261
4416.82675,0.06183
4414.89801,0.06112
4412.96926,0.06053
4411.04052,0.06005
4409.11177,0.05935
4407.18303,0.05854
4405.25428,0.05812
4403.32554,0.05808
4401.39679,0.05800
4399.46805,0.05778
4397.53930,0.05755
4395.61056,0.05743
4393.68181,0.05752
4391.75306,0.05763
4389.82432,0.05761
4387.89557,0.05754
4385.96683,0.05738
4384.03808,0.05720
4382.10934,0.05716
4380.18059,0.05711
4378.25185,0.05704
4376.32310,0.05706
4374.39436,0.05719
4372.46561,0.05745
4370.53687,0.05762
4368.60812,0.05753
4366.67938,0.05723
4364.75063,0.05685
4362.82189,0.05670
4360.89314,0.05687
4358.96439,0.05705
4357.03565,0.05710
4355.10690,0.05704
4353.17816,0.05691
4351.24941,0.05669
4349.32067,0.05637
4347.39192,0.05611
4345.46318,0.05607
4343.53443,0.05621
4341.60569,0.05642
4339.67694,0.05648
4337.74820,0.05637
4335.81945,0.05622
4333.89071,0.05604
4331.96196,0.05591
4330.03321,0.05593
4328.10447,0.05601
4326.17572,0.05617
4324.24698,0.05640
4322.31823,0.05656
4320.38949,0.05671
4318.46074,0.05682
4316.53200,0.05676
4314.60325,0.05672
4312.67451,0.05684
4310.74576,0.05680
4308.81702,0.05648
4306.88827,0.05626
4304.95953,0.05641
4303.03078,0.05665
4301.10204,0.05688
4299.17329,0.05732
4297.24454,0.05751
4295.31580,0.05731
4293.38705,0.05717
4291.45831,0.05699
4289.52956,0.05662
4287.60082,0.05633
4285.67207,0.05635
4283.74333,0.05664
4281.81458,0.05690
4279.88584,0.05681
4277.95709,0.05653
4276.02835,0.05644
4274.09960,0.05655
4272.17086,0.05669
4270.24211,0.05673
4268.31336,0.05661
4266.38462,0.05648
4264.45587,0.05648
4262.52713,0.05649
4260.59838,0.05647
4258.66964,0.05656
4256.74089,0.05679
4254.81215,0.05693
4252.88340,0.05689
4250.95466,0.05667
4249.02591,0.05654
4247.09717,0.05670
4245.16842,0.05671
4243.23968,0.05643
4241.31093,0.05642
4239.38219,0.05670
4237.45344,0.05677
4235.52469,0.05646
4233.59595,0.05607
4231.66720,0.05613
4229.73846,0.05666
4227.80971,0.05712
4225.88097,0.05728
4223.95222,0.05739
4222.02348,0.05761
4220.09473,0.05783
4218.16599,0.05771
4216.23724,0.05728
4214.30850,0.05703
4212.37975,0.05714
4210.45101,0.05710
4208.52226,0.05664
4206.59352,0.05636
4204.66477,0.05656
4202.73602,0.05669
4200.80728,0.05643
4198.87853,0.05620
4196.94979,0.05625
4195.02104,0.05636
4193.09230,0.05638
4191.16355,0.05643
4189.23481,0.05667
4187.30606,0.05693
4185.37732,0.05693
4183.44857,0.05672
4181.51983,0.05661
4179.59108,0.05655
4177.66234,0.05638
4175.73359,0.05633
4173.80484,0.05660
4171.87610,0.05689
4169.94735,0.05691
4168.01861,0.05678
4166.08986,0.05683
4164.16112,0.05710
4162.23237,0.05726
4160.30363,0.05715
4158.37488,0.05696
4156.44614,0.05670
4154.51739,0.05636
4152.58865,0.05613
4150.65990,0.05629
4148.73116,0.05681
4146.80241,0.05711
4144.87367,0.05692
4142.94492,0.05660
4141.01617,0.05643
4139.08743,0.05654
4137.15868,0.05689
4135.22994,0.05726
4133.30119,0.05747
4131.37245,0.05734
4129.44370,0.05693
4127.51496,0.05662
4125.58621,0.05658
4123.65747,0.05673
4121.72872,0.05677
4119.79998,0.05663
4117.87123,0.05652
4115.94249,0.05661
4114.01374,0.05700
4112.08500,0.05733
4110.15625,0.05715
4108.22750,0.05672
4106.29876,0.05647
4104.37001,0.05632
4102.44127,0.05624
4100.51252,0.05643
4098.58378,0.05677
4096.65503,0.05707
4094.72629,0.05727
4092.79754,0.05728
4090.86880,0.05713
4088.94005,0.05690
4087.01131,0.05653
4085.08256,0.05641
4083.15382,0.05692
4081.22507,0.05750
4079.29632,0.05745
4077.36758,0.05715
4075.43883,0.05727
4073.51009,0.05772
4071.58134,0.05786
4069.65260,0.05759
4067.72385,0.05727
4065.79511,0.05694
4063.86636,0.05674
4061.93762,0.05683
4060.00887,0.05692
4058.08013,0.05675
4056.15138,0.05651
4054.22264,0.05653
4052.29389,0.05672
4050.36515,0.05686
4048.43640,0.05709
4046.50765,0.05734
4044.57891,0.05716
4042.65016,0.05662
4040.72142,0.05628
4038.79267,0.05629
4036.86393,0.05645
4034.93518,0.05669
4033.00644,0.05699
4031.07769,0.05739
4029.14895,0.05778
4027.22020,0.05800
4025.29146,0.05812
4023.36271,0.05811
4021.43397,0.05774
4019.50522,0.05723
4017.57648,0.05688
4015.64773,0.05683
4013.71898,0.05700
4011.79024,0.05713
4009.86149,0.05719
4007.93275,0.05733
4006.00400,0.05758
4004.07526,0.05772
4002.14651,0.05758
4000.21777,0.05726
3998.28902,0.05706
3996.36028,0.05711
3994.43153,0.05719
3992.50279,0.05695
3990.57404,0.05664
3988.64530,0.05664
3986.71655,0.05695
3984.78780,0.05726
3982.85906,0.05727
3980.93031,0.05716
3979.00157,0.05727
3977.07282,0.05733
3975.14408,0.05711
3973.21533,0.05697
3971.28659,0.05721
3969.35784,0.05759
3967.42910,0.05771
3965.50035,0.05739
3963.57161,0.05695
3961.64286,0.05705
3959.71412,0.05754
3957.78537,0.05766
3955.85663,0.05741
3953.92788,0.05720
3951.99913,0.05720
3950.07039,0.05718
3948.14164,0.05694
3946.21290,0.05683
3944.28415,0.05703
3942.35541,0.05709
3940.42666,0.05681
3938.49792,0.05662
3936.56917,0.05686
3934.64043,0.05716
3932.71168,0.05726
3930.78294,0.05748
3928.85419,0.05785
3926.92545,0.05779
3924.99670,0.05739
3923.06795,0.05713
3921.13921,0.05706
3919.21046,0.05698
3917.28172,0.05701
3915.35297,0.05731
3913.42423,0.05763
3911.49548,0.05759
3909.56674,0.05742
3907.63799,0.05758
3905.70925,0.05782
3903.78050,0.05771
3901.85176,0.05743
3899.92301,0.05727
3897.99427,0.05733
3896.06552,0.05759
3894.13678,0.05755
3892.20803,0.05702
3890.27928,0.05655
3888.35054,0.05660
3886.42179,0.05699
3884.49305,0.05721
3882.56430,0.05706
3880.63556,0.05683
3878.70681,0.05671
3876.77807,0.05664
3874.84932,0.05666
3872.92058,0.05678
3870.99183,0.05680
3869.06309,0.05674
3867.13434,0.05692
3865.20560,0.05722
3863.27685,0.05732
3861.34811,0.05725
3859.41936,0.05724
3857.49061,0.05737
3855.56187,0.05738
3853.63312,0.05696
3851.70438,0.05665
3849.77563,0.05685
3847.84689,0.05721
3845.91814,0.05741
3843.98940,0.05739
3842.06065,0.05734
3840.13191,0.05738
3838.20316,0.05749
3836.27442,0.05762
3834.34567,0.05772
3832.41693,0.05778
3830.48818,0.05770
3828.55943,0.05733
3826.63069,0.05692
3824.70194,0.05701
3822.77320,0.05757
3820.84445,0.05800
3818.91571,0.05781
3816.98696,0.05710
3815.05822,0.05657
3813.12947,0.05675
3811.20073,0.05725
3809.27198,0.05754
3807.34324,0.05750
3805.41449,0.05736
3803.48575,0.05738
3801.55700,0.05748
3799.62826,0.05759
3797.69951,0.05758
3795.77076,0.05737
3793.84202,0.05724
3791.91327,0.05731
3789.98453,0.05750
3788.05578,0.05765
3786.12704,0.05746
3784.19829,0.05726
3782.26955,0.05756
3780.34080,0.05803
3778.41206,0.05809
3776.48331,0.05788
3774.55457,0.05780
3772.62582,0.05780
3770.69708,0.05769
3768.76833,0.05754
3766.83959,0.05764
3764.91084,0.05787
3762.98209,0.05773
3761.05335,0.05735
3759.12460,0.05730
3757.19586,0.05768
3755.26711,0.05814
3753.33837,0.05830
3751.40962,0.05801
3749.48088,0.05771
3747.55213,0.05772
3745.62339,0.05779
3743.69464,0.05798
3741.76590,0.05817
3739.83715,0.05801
3737.90841,0.05769
3735.97966,0.05760
3734.05091,0.05769
3732.12217,0.05768
3730.19342,0.05757
3728.26468,0.05755
3726.33593,0.05752
3724.40719,0.05732
3722.47844,0.05717
3720.54970,0.05727
3718.62095,0.05740
3716.69221,0.05743
3714.76346,0.05747
3712.83472,0.05740
3710.90597,0.05725
3708.97723,0.05730
3707.04848,0.05752
3705.11974,0.05772
3703.19099,0.05781
3701.26224,0.05777
3699.33350,0.05757
3697.40475,0.05732
3695.47601,0.05708
3693.54726,0.05687
3691.61852,0.05688
3689.68977,0.05701
3687.76103,0.05717
3685.83228,0.05748
3683.90354,0.05781
3681.97479,0.05800
3680.04605,0.05810
3678.11730,0.05808
3676.18856,0.05790
3674.25981,0.05762
3672.33107,0.05748
3670.40232,0.05743
3668.47357,0.05726
3666.54483,0.05704
3664.61608,0.05697
3662.68734,0.05702
3660.75859,0.05707
3658.82985,0.05713
3656.90110,0.05716
3654.97236,0.05706
3653.04361,0.05685
3651.11487,0.05676
3649.18612,0.05707
3647.25738,0.05749
3645.32863,0.05754
3643.39989,0.05729
3641.47114,0.05703
3639.54239,0.05681
3637.61365,0.05663
3635.68490,0.05659
3633.75616,0.05664
3631.82741,0.05659
3629.89867,0.05636
3627.96992,0.05615
3626.04118,0.05636
3624.11243,0.05675
3622.18369,0.05689
3620.25494,0.05691
3618.32620,0.05691
3616.39745,0.05676
3614.46871,0.05659
3612.53996,0.05649
3610.61122,0.05653
3608.68247,0.05666
3606.75372,0.05656
3604.82498,0.05636
3602.89623,0.05649
3600.96749,0.05656
3599.03874,0.05634
3597.11000,0.05627
3595.18125,0.05646
3593.25251,0.05673
3591.32376,0.05703
3589.39502,0.05738
3587.46627,0.05752
3585.53753,0.05717
3583.60878,0.05677
3581.68004,0.05687
3579.75129,0.05719
3577.82254,0.05719
3575.89380,0.05697
3573.96505,0.05691
3572.03631,0.05689
3570.10756,0.05688
3568.17882,0.05702
3566.25007,0.05733
3564.32133,0.05783
3562.39258,0.05828
3560.46384,0.05839
3558.53509,0.05848
3556.60635,0.05879
3554.67760,0.05902
3552.74886,0.05912
3550.82011,0.05928
3548.89137,0.05947
3546.96262,0.05944
3545.03387,0.05922
3543.10513,0.05915
3541.17638,0.05945
3539.24764,0.05990
3537.31889,0.06015
3535.39015,0.06011
3533.46140,0.05997
3531.53266,0.05985
3529.60391,0.05982
3527.67517,0.05994
3525.74642,0.06017
3523.81768,0.06031
3521.88893,0.06012
3519.96019,0.05970
3518.03144,0.05938
3516.10270,0.05924
3514.17395,0.05925
3512.24520,0.05942
3510.31646,0.05963
3508.38771,0.05971
3506.45897,0.05951
3504.53022,0.05916
3502.60148,0.05902
3500.67273,0.05898
3498.74399,0.05889
3496.81524,0.05901
3494.88650,0.05942
3492.95775,0.05977
3491.02901,0.05966
3489.10026,0.05930
3487.17152,0.05906
3485.24277,0.05883
3483.31402,0.05844
3481.38528,0.05822
3479.45653,0.05834
3477.52779,0.05850
3475.59904,0.05845
3473.67030,0.05809
3471.74155,0.05762
3469.81281,0.05751
3467.88406,0.05773
3465.95532,0.05785
3464.02657,0.05793
3462.09783,0.05802
3460.16908,0.05764
3458.24034,0.05703
3456.31159,0.05686
3454.38285,0.05686
3452.45410,0.05667
3450.52535,0.05664
3448.59661,0.05692
3446.66786,0.05714
3444.73912,0.05708
3442.81037,0.05692
3440.88163,0.05679
3438.95288,0.05673
3437.02414,0.05675
3435.09539,0.05670
3433.16665,0.05651
3431.23790,0.05612
3429.30916,0.05574
3427.38041,0.05590
3425.45167,0.05640
3423.52292,0.05651
3421.59418,0.05632
3419.66543,0.05635
3417.73668,0.05651
3415.80794,0.05648
3413.87919,0.05639
3411.95045,0.05636
3410.02170,0.05640
3408.09296,0.05658
3406.16421,0.05673
3404.23547,0.05653
3402.30672,0.05605
3400.37798,0.05583
3398.44923,0.05600
3396.52049,0.05611
3394.59174,0.05609
3392.66300,0.05629
3390.73425,0.05660
3388.80550,0.05666
3386.87676,0.05645
3384.94801,0.05608
3383.01927,0.05557
3381.09052,0.05521
3379.16178,0.05518
3377.23303,0.05534
3375.30429,0.05557
3373.37554,0.05562
3371.44680,0.05531
3369.51805,0.05500
3367.58931,0.05499
3365.66056,0.05517
3363.73182,0.05536
3361.80307,0.05557
3359.87433,0.05579
3357.94558,0.05584
3356.01683,0.05572
3354.08809,0.05568
3352.15934,0.05570
3350.23060,0.05570
3348.30185,0.05566
3346.37311,0.05571
3344.44436,0.05613
3342.51562,0.05667
3340.58687,0.05676
3338.65813,0.05644
3336.72938,0.05617
3334.80064,0.05614
3332.87189,0.05622
3330.94315,0.05622
3329.01440,0.05619
3327.08566,0.05627
3325.15691,0.05643
3323.22816,0.05661
3321.29942,0.05660
3319.37067,0.05649
3317.44193,0.05657
3315.51318,0.05656
3313.58444,0.05633
3311.65569,0.05628
3309.72695,0.05638
3307.79820,0.05645
3305.86946,0.05655
3303.94071,0.05665
3302.01197,0.05669
3300.08322,0.05679
3298.15448,0.05693
3296.22573,0.05689
3294.29698,0.05657
3292.36824,0.05626
3290.43949,0.05623
3288.51075,0.05635
3286.58200,0.05642
3284.65326,0.05642
3282.72451,0.05632
3280.79577,0.05628
3278.86702,0.05653
3276.93828,0.05671
3275.00953,0.05644
3273.08079,0.05600
3271.15204,0.05577
3269.22330,0.05588
3267.29455,0.05613
3265.36581,0.05625
3263.43706,0.05618
3261.50831,0.05586
3259.57957,0.05560
3257.65082,0.05577
3255.72208,0.05612
3253.79333,0.05639
3251.86459,0.05654
3249.93584,0.05636
3248.00710,0.05583
3246.07835,0.05554
3244.14961,0.05574
3242.22086,0.05605
3240.29212,0.05627
3238.36337,0.05643
3236.43463,0.05652
3234.50588,0.05634
3232.57713,0.05593
3230.64839,0.05568
3228.71964,0.05579
3226.79090,0.05591
3224.86215,0.05570
3222.93341,0.05526
3221.00466,0.05488
3219.07592,0.05469
3217.14717,0.05463
3215.21843,0.05480
3213.28968,0.05512
3211.36094,0.05514
3209.43219,0.05496
3207.50345,0.05490
3205.57470,0.05483
3203.64596,0.05476
3201.71721,0.05479
3199.78846,0.05473
3197.85972,0.05464
3195.93097,0.05473
3194.00223,0.05502
3192.07348,0.05526
3190.14474,0.05515
3188.21599,0.05481
3186.28725,0.05457
3184.35850,0.05459
3182.42976,0.05465
3180.50101,0.05454
3178.57227,0.05436
3176.64352,0.05425
3174.71478,0.05424
3172.78603,0.05421
3170.85729,0.05421
3168.92854,0.05441
3166.99979,0.05452
3165.07105,0.05439
3163.14230,0.05448
3161.21356,0.05483
3159.28481,0.05487
3157.35607,0.05462
3155.42732,0.05444
3153.49858,0.05435
3151.56983,0.05432
3149.64109,0.05451
3147.71234,0.05474
3145.78360,0.05459
3143.85485,0.05437
3141.92611,0.05437
3139.99736,0.05425
3138.06861,0.05405
3136.13987,0.05402
3134.21112,0.05409
3132.28238,0.05415
3130.35363,0.05415
3128.42489,0.05410
3126.49614,0.05394
3124.56740,0.05374
3122.63865,0.05369
3120.70991,0.05376
3118.78116,0.05376
3116.85242,0.05361
3114.92367,0.05356
3112.99493,0.05375
3111.06618,0.05391
3109.13744,0.05391
3107.20869,0.05383
3105.27994,0.05367
3103.35120,0.05342
3101.42245,0.05325
3099.49371,0.05308
3097.56496,0.05287
3095.63622,0.05294
3093.70747,0.05327
3091.77873,0.05341
3089.84998,0.05324
3087.92124,0.05298
3085.99249,0.05277
3084.06375,0.05256
3082.13500,0.05248
3080.20626,0.05275
3078.27751,0.05311
3076.34877,0.05312
3074.42002,0.05279
3072.49127,0.05256
3070.56253,0.05248
3068.63378,0.05217
3066.70504,0.05185
3064.77629,0.05193
3062.84755,0.05220
3060.91880,0.05218
3058.99006,0.05190
3057.06131,0.05168
3055.13257,0.05157
3053.20382,0.05157
3051.27508,0.05168
3049.34633,0.05180
3047.41759,0.05187
3045.48884,0.05186
3043.56009,0.05166
3041.63135,0.05141
3039.70260,0.05128
3037.77386,0.05127
3035.84511,0.05136
3033.91637,0.05147
3031.98762,0.05148
3030.05888,0.05146
3028.13013,0.05154
3026.20139,0.05160
3024.27264,0.05131
3022.34390,0.05071
3020.41515,0.05041
3018.48641,0.05068
3016.55766,0.05087
3014.62892,0.05065
3012.70017,0.05040
3010.77142,0.05019
3008.84268,0.04990
3006.91393,0.04977
3004.98519,0.04982
3003.05644,0.04978
3001.12770,0.04970
2999.19895,0.04976
2997.27021,0.04970
2995.34146,0.04922
2993.41272,0.04860
2991.48397,0.04825
2989.55523,0.04807
2987.62648,0.04785
2985.69774,0.04756
2983.76899,0.04712
2981.84025,0.04673
2979.91150,0.04659
2977.98275,0.04649
2976.05401,0.04621
2974.12526,0.04580
2972.19652,0.04550
2970.26777,0.04544
2968.33903,0.04543
2966.41028,0.04518
2964.48154,0.04479
2962.55279,0.04458
2960.62405,0.04451
2958.69530,0.04429
2956.76656,0.04381
2954.83781,0.04319
2952.90907,0.04248
2950.98032,0.04173
2949.05157,0.04108
2947.12283,0.04036
2945.19408,0.03941
2943.26534,0.03837
2941.33659,0.03739
2939.40785,0.03656
2937.47910,0.03608
2935.55036,0.03601
2933.62161,0.03620
2931.69287,0.03664
2929.76412,0.03767
2927.83538,0.03981
2925.90663,0.04344
2923.97789,0.04903
2922.04914,0.05685
2920.12040,0.06631
2918.19165,0.07539
2916.26290,0.08146
2914.33416,0.08303
2912.40541,0.08101
2910.47667,0.07765
2908.54792,0.07451
2906.61918,0.07211
2904.69043,0.07051
2902.76169,0.06917
2900.83294,0.06780
2898.90420,0.06681
2896.97545,0.06622
2895.04671,0.06566
2893.11796,0.06508
2891.18922,0.06451
2889.26047,0.06383
2887.33172,0.06318
2885.40298,0.06272
2883.47423,0.06222
2881.54549,0.06153
2879.61674,0.06075
2877.68800,0.05997
2875.75925,0.05924
2873.83051,0.05858
2871.90176,0.05798
2869.97302,0.05722
2868.04427,0.05620
2866.11553,0.05503
2864.18678,0.05373
2862.25804,0.05229
2860.32929,0.05101
2858.40055,0.05033
2856.47180,0.05057
2854.54305,0.05217
2852.61431,0.05653
2850.68556,0.06455
2848.75682,0.07357
2846.82807,0.07891
2844.89933,0.07926
2842.97058,0.07722
2841.04184,0.07499
2839.11309,0.07301
2837.18435,0.07137
2835.25560,0.07005
2833.32686,0.06887
2831.39811,0.06781
2829.46937,0.06697
2827.54062,0.06636
2825.61188,0.06598
2823.68313,0.06566
2821.75438,0.06529
2819.82564,0.06492
2817.89689,0.06455
2815.96815,0.06413
2814.03940,0.06374
2812.11066,0.06345
2810.18191,0.06321
2808.25317,0.06304
2806.32442,0.06310
2804.39568,0.06324
2802.46693,0.06303
2800.53819,0.06249
2798.60944,0.06203
2796.68070,0.06185
2794.75195,0.06193
2792.82320,0.06203
2790.89446,0.06191
2788.96571,0.06169
2787.03697,0.06163
2785.10822,0.06165
2783.17948,0.06156
2781.25073,0.06136
2779.32199,0.06119
2777.39324,0.06108
2775.46450,0.06095
2773.53575,0.06089
2771.60701,0.06107
2769.67826,0.06127
2767.74952,0.06109
2765.82077,0.06066
2763.89203,0.06037
2761.96328,0.06039
2760.03453,0.06065
2758.10579,0.06080
2756.17704,0.06059
2754.24830,0.06024
2752.31955,0.06001
2750.39081,0.05992
2748.46206,0.05988
2746.53332,0.05986
2744.60457,0.05992
2742.67583,0.06011
2740.74708,0.06023
2738.81834,0.06015
2736.88959,0.05996
2734.96085,0.05976
2733.03210,0.05963
2731.10336,0.05963
2729.17461,0.05963
2727.24586,0.05961
2725.31712,0.05973
2723.38837,0.05976
2721.45963,0.05961
2719.53088,0.05955
2717.60214,0.05964
2715.67339,0.05973
2713.74465,0.05971
2711.81590,0.05946
2709.88716,0.05926
2707.95841,0.05939
2706.02967,0.05959
2704.10092,0.05967
2702.17218,0.05960
2700.24343,0.05927
2698.31468,0.05901
2696.38594,0.05926
2694.45719,0.05957
2692.52845,0.05939
2690.59970,0.05908
2688.67096,0.05902
2686.74221,0.05915
2684.81347,0.05923
2682.88472,0.05915
2680.95598,0.05904
2679.02723,0.05897
2677.09849,0.05889
2675.16974,0.05891
2673.24100,0.05910
2671.31225,0.05927
2669.38351,0.05921
2667.45476,0.05912
2665.52601,0.05924
2663.59727,0.05942
2661.66852,0.05935
2659.73978,0.05905
2657.81103,0.05879
2655.88229,0.05875
2653.95354,0.05882
2652.02480,0.05873
2650.09605,0.05855
2648.16731,0.05866
2646.23856,0.05891
2644.30982,0.05876
2642.38107,0.05837
2640.45233,0.05829
2638.52358,0.05850
2636.59484,0.05867
2634.66609,0.05875
2632.73734,0.05885
2630.80860,0.05886
2628.87985,0.05865
2626.95111,0.05843
2625.02236,0.05847
2623.09362,0.05856
2621.16487,0.05845
2619.23613,0.05832
2617.30738,0.05845
2615.37864,0.05866
2613.44989,0.05868
2611.52115,0.05852
2609.59240,0.05836
2607.66366,0.05827
2605.73491,0.05824
2603.80616,0.05841
2601.87742,0.05873
2599.94867,0.05889
2598.01993,0.05884
2596.09118,0.05880
2594.16244,0.05880
2592.23369,0.05868
2590.30495,0.05835
2588.37620,0.05807
2586.44746,0.05814
2584.51871,0.05838
2582.58997,0.05853
2580.66122,0.05865
2578.73248,0.05880
2576.80373,0.05875
2574.87499,0.05851
2572.94624,0.05830
2571.01749,0.05815
2569.08875,0.05804
2567.16000,0.05796
2565.23126,0.05796
2563.30251,0.05813
2561.37377,0.05835
2559.44502,0.05842
2557.51628,0.05831
2555.58753,0.05811
2553.65879,0.05794
2551.73004,0.05801
2549.80130,0.05831
2547.87255,0.05848
2545.94381,0.05836
2544.01506,0.05815
2542.08631,0.05811
2540.15757,0.05826
2538.22882,0.05838
2536.30008,0.05832
2534.37133,0.05818
2532.44259,0.05819
2530.51384,0.05835
2528.58510,0.05846
2526.65635,0.05843
2524.72761,0.05838
2522.79886,0.05838
2520.87012,0.05836
2518.94137,0.05833
2517.01263,0.05831
2515.08388,0.05821
2513.15514,0.05808
2511.22639,0.05820
2509.29764,0.05849
2507.36890,0.05841
2505.44015,0.05807
2503.51141,0.05801
2501.58266,0.05805
2499.65392,0.05791
2497.72517,0.05785
2495.79643,0.05803
2493.86768,0.05822
2491.93894,0.05827
2490.01019,0.05820
2488.08145,0.05818
2486.15270,0.05819
2484.22396,0.05813
2482.29521,0.05814
2480.36647,0.05830
2478.43772,0.05841
2476.50897,0.05830
2474.58023,0.05791
2472.65148,0.05754
2470.72274,0.05765
2468.79399,0.05810
2466.86525,0.05843
2464.93650,0.05852
2463.00776,0.05843
2461.07901,0.05827
2459.15027,0.05825
2457.22152,0.05843
2455.29278,0.05862
2453.36403,0.05864
2451.43529,0.05856
2449.50654,0.05857
2447.57779,0.05875
2445.64905,0.05896
2443.72030,0.05899
2441.79156,0.05878
2439.86281,0.05845
2437.93407,0.05822
2436.00532,0.05825
2434.07658,0.05840
2432.14783,0.05851
2430.21909,0.05846
2428.29034,0.05823
2426.36160,0.05800
2424.43285,0.05790
2422.50411,0.05788
2420.57536,0.05792
2418.64662,0.05803
2416.71787,0.05816
2414.78912,0.05821
2412.86038,0.05820
2410.93163,0.05812
2409.00289,0.05799
2407.07414,0.05797
2405.14540,0.05820
2403.21665,0.05846
2401.28791,0.05844
2399.35916,0.05830
2397.43042,0.05826
2395.50167,0.05818
2393.57293,0.05811
2391.64418,0.05814
2389.71544,0.05829
2387.78669,0.05844
2385.85795,0.05838
2383.92920,0.05815
2382.00045,0.05808
2380.07171,0.05820
2378.14296,0.05823
2376.21422,0.05814
2374.28547,0.05804
2372.35673,0.05805
2370.42798,0.05822
2368.49924,0.05835
2366.57049,0.05830
2364.64175,0.05821
2362.71300,0.05813
2360.78426,0.05805
2358.85551,0.05801
2356.92677,0.05806
2354.99802,0.05804
2353.06927,0.05791
2351.14053,0.05792
2349.21178,0.05804
2347.28304,0.05808
2345.35429,0.05807
2343.42555,0.05813
2341.49680,0.05825
2339.56806,0.05832
2337.63931,0.05824
2335.71057,0.05816
2333.78182,0.05829
2331.85308,0.05843
2329.92433,0.05818
2327.99559,0.05786
2326.06684,0.05791
2324.13810,0.05800
2322.20935,0.05789
2320.28060,0.05784
2318.35186,0.05793
2316.42311,0.05799
2314.49437,0.05796
2312.56562,0.05799
2310.63688,0.05805
2308.70813,0.05800
2306.77939,0.05794
2304.85064,0.05799
2302.92190,0.05804
2300.99315,0.05803
2299.06441,0.05803
2297.13566,0.05815
2295.20692,0.05824
2293.27817,0.05811
2291.34943,0.05802
2289.42068,0.05811
2287.49193,0.05817
2285.56319,0.05819
2283.63444,0.05823
2281.70570,0.05814
2279.77695,0.05797
2277.84821,0.05798
2275.91946,0.05813
2273.99072,0.05816
2272.06197,0.05812
2270.13323,0.05820
2268.20448,0.05831
2266.27574,0.05833
2264.34699,0.05832
2262.41825,0.05828
2260.48950,0.05827
2258.56075,0.05832
2256.63201,0.05823
2254.70326,0.05808
2252.77452,0.05821
2250.84577,0.05852
2248.91703,0.05868
2246.98828,0.05860
2245.05954,0.05848
2243.13079,0.05853
2241.20205,0.05873
2239.27330,0.05891
2237.34456,0.05904
2235.41581,0.05920
2233.48707,0.05945
2231.55832,0.05974
2229.62958,0.05997
2227.70083,0.06012
2225.77208,0.06014
2223.84334,0.06004
2221.91459,0.05992
2219.98585,0.05994
2218.05710,0.06018
2216.12836,0.06049
2214.19961,0.06069
2212.27087,0.06069
2210.34212,0.06063
2208.41338,0.06060
2206.48463,0.06051
2204.55589,0.06037
2202.62714,0.06038
2200.69840,0.06046
2198.76965,0.06036
2196.84090,0.06025
2194.91216,0.06022
2192.98341,0.06015
2191.05467,0.06004
2189.12592,0.05993
2187.19718,0.05985
2185.26843,0.05977
2183.33969,0.05972
2181.41094,0.05984
2179.48220,0.06008
2177.55345,0.06028
2175.62471,0.06033
2173.69596,0.06029
2171.76722,0.06011
2169.83847,0.05981
2167.90973,0.05966
2165.98098,0.05975
2164.05223,0.05980
2162.12349,0.05964
2160.19474,0.05936
2158.26600,0.05906
2156.33725,0.05888
2154.40851,0.05885
2152.47976,0.05886
2150.55102,0.05881
2148.62227,0.05878
2146.69353,0.05894
2144.76478,0.05922
2142.83604,0.05950
2140.90729,0.05978
2138.97855,0.06006
2137.04980,0.06042
2135.12106,0.06098
2133.19231,0.06167
2131.26356,0.06227
2129.33482,0.06273
2127.40607,0.06322
2125.47733,0.06376
2123.54858,0.06424
2121.61984,0.06468
2119.69109,0.06508
2117.76235,0.06535
2115.83360,0.06556
2113.90486,0.06571
2111.97611,0.06567
2110.04737,0.06551
2108.11862,0.06538
2106.18988,0.06528
2104.26113,0.06517
2102.33238,0.06518
2100.40364,0.06534
2098.47489,0.06549
2096.54615,0.06550
2094.61740,0.06538
2092.68866,0.06510
2090.75991,0.06475
2088.83117,0.06446
2086.90242,0.06420
2084.97368,0.06386
2083.04493,0.06354
2081.11619,0.06329
2079.18744,0.06306
2077.25870,0.06280
2075.32995,0.06244
2073.40121,0.06202
2071.47246,0.06172
2069.54371,0.06147
2067.61497,0.06118
2065.68622,0.06095
2063.75748,0.06068
2061.82873,0.06035
2059.89999,0.06019
2057.97124,0.06012
2056.04250,0.05988
2054.11375,0.05957
2052.18501,0.05935
2050.25626,0.05920
2048.32752,0.05897
2046.39877,0.05863
2044.47003,0.05829
2042.54128,0.05808
2040.61254,0.05806
2038.68379,0.05819
2036.75504,0.05834
2034.82630,0.05840
2032.89755,0.05830
2030.96881,0.05817
2029.04006,0.05815
2027.11132,0.05813
2025.18257,0.05803
2023.25383,0.05802
2021.32508,0.05809
2019.39634,0.05804
2017.46759,0.05783
2015.53885,0.05768
2013.61010,0.05776
2011.68136,0.05801
2009.75261,0.05831
2007.82386,0.05875
2005.89512,0.05954
2003.96637,0.06054
2002.03763,0.06150
2000.10888,0.06231
1998.18014,0.06320
1996.25139,0.06431
1994.32265,0.06532
1992.39390,0.06599
1990.46516,0.06649
1988.53641,0.06699
1986.60767,0.06747
1984.67892,0.06776
1982.75018,0.06781
1980.82143,0.06781
1978.89269,0.06793
1976.96394,0.06812
1975.03519,0.06816
1973.10645,0.06798
1971.17770,0.06769
1969.24896,0.06728
1967.32021,0.06671
1965.39147,0.06612
1963.46272,0.06567
1961.53398,0.06521
1959.60523,0.06483
1957.67649,0.06478
1955.74774,0.06497
1953.81900,0.06512
1951.89025,0.06525
1949.96151,0.06535
1948.03276,0.06524
1946.10402,0.06501
1944.17527,0.06485
1942.24652,0.06474
1940.31778,0.06460
1938.38903,0.06440
1936.46029,0.06420
1934.53154,0.06397
1932.60280,0.06358
1930.67405,0.06314
1928.74531,0.06288
1926.81656,0.06277
1924.88782,0.06255
1922.95907,0.06211
1921.03033,0.06156
1919.10158,0.06103
1917.17284,0.06060
1915.24409,0.06037
1913.31534,0.06025
1911.38660,0.06003
1909.45785,0.05959
1907.52911,0.05912
1905.60036,0.05882
1903.67162,0.05853
1901.74287,0.05823
1899.81413,0.05805
1897.88538,0.05786
1895.95664,0.05768
1894.02789,0.05779
1892.09915,0.05827
1890.17040,0.05903
1888.24166,0.06003
1886.31291,0.06122
1884.38417,0.06257
1882.45542,0.06410
1880.52667,0.06556
1878.59793,0.06677
1876.66918,0.06789
1874.74044,0.06909
1872.81169,0.07034
1870.88295,0.07155
1868.95420,0.07267
1867.02546,0.07373
1865.09671,0.07481
1863.16797,0.07591
1861.23922,0.07703
1859.31048,0.07815
1857.38173,0.07914
1855.45299,0.07992
1853.52424,0.08056
1851.59549,0.08114
1849.66675,0.08175
1847.73800,0.08230
1845.80926,0.08245
1843.88051,0.08213
1841.95177,0.08164
1840.02302,0.08117
1838.09428,0.08062
1836.16553,0.07978
1834.23679,0.07884
1832.30804,0.07788
1830.37930,0.07635
1828.45055,0.07406
1826.52181,0.07155
1824.59306,0.06915
1822.66432,0.06709
1820.73557,0.06562
1818.80682,0.06490
1816.87808,0.06494
1814.94933,0.06540
1813.02059,0.06593
1811.09184,0.06648
1809.16310,0.06720
1807.23435,0.06806
1805.30561,0.06881
1803.37686,0.06930
1801.44812,0.06970
1799.51937,0.07022
1797.59063,0.07071
1795.66188,0.07101
1793.73314,0.07109
1791.80439,0.07091
1789.87565,0.07067
1787.94690,0.07057
1786.01815,0.07063
1784.08941,0.07076
1782.16066,0.07086
1780.23192,0.07094
1778.30317,0.07093
1776.37443,0.07076
1774.44568,0.07051
1772.51694,0.07033
1770.58819,0.07015
1768.65945,0.06980
1766.73070,0.06928
1764.80196,0.06884
1762.87321,0.06861
1760.94447,0.06832
1759.01572,0.06782
1757.08697,0.06727
1755.15823,0.06675
1753.22948,0.06623
1751.30074,0.06576
1749.37199,0.06521
1747.44325,0.06451
1745.51450,0.06382
1743.58576,0.06309
1741.65701,0.06217
1739.72827,0.06123
1737.79952,0.06051
1735.87078,0.05983
1733.94203,0.05893
1732.01329,0.05811
1730.08454,0.05765
1728.15580,0.05735
1726.22705,0.05704
1724.29830,0.05681
1722.36956,0.05667
1720.44081,0.05659
1718.51207,0.05669
1716.58332,0.05700
1714.65458,0.05727
1712.72583,0.05746
1710.79709,0.05777
1708.86834,0.05826
1706.93960,0.05869
1705.01085,0.05884
1703.08211,0.05880
1701.15336,0.05873
1699.22462,0.05872
1697.29587,0.05873
1695.36713,0.05872
1693.43838,0.05871
1691.50963,0.05877
1689.58089,0.05890
1687.65214,0.05907
1685.72340,0.05906
1683.79465,0.05885
1681.86591,0.05869
1679.93716,0.05855
1678.00842,0.05842
1676.07967,0.05836
1674.15093,0.05825
1672.22218,0.05810
1670.29344,0.05809
1668.36469,0.05805
1666.43595,0.05783
1664.50720,0.05756
1662.57845,0.05738
1660.64971,0.05740
1658.72096,0.05764
1656.79222,0.05778
1654.86347,0.05753
1652.93473,0.05694
1651.00598,0.05637
1649.07724,0.05608
1647.14849,0.05596
1645.21975,0.05587
1643.29100,0.05592
1641.36226,0.05617
1639.43351,0.05641
1637.50477,0.05640
1635.57602,0.05619
1633.64728,0.05611
1631.71853,0.05617
1629.78978,0.05620
1627.86104,0.05624
1625.93229,0.05635
1624.00355,0.05653
1622.07480,0.05668
1620.14606,0.05667
1618.21731,0.05653
1616.28857,0.05645
1614.35982,0.05647
1612.43108,0.05633
1610.50233,0.05606
1608.57359,0.05596
1606.64484,0.05609
1604.71610,0.05622
1602.78735,0.05622
1600.85861,0.05608
1598.92986,0.05593
1597.00111,0.05600
1595.07237,0.05618
1593.14362,0.05621
1591.21488,0.05607
1589.28613,0.05599
1587.35739,0.05612
1585.42864,0.05633
1583.49990,0.05648
1581.57115,0.05654
1579.64241,0.05648
1577.71366,0.05634
1575.78492,0.05611
1573.85617,0.05592
1571.92743,0.05586
1569.99868,0.05585
1568.06993,0.05587
1566.14119,0.05586
1564.21244,0.05578
1562.28370,0.05566
1560.35495,0.05553
1558.42621,0.05551
1556.49746,0.05558
1554.56872,0.05562
1552.63997,0.05564
1550.71123,0.05574
1548.78248,0.05587
1546.85374,0.05594
1544.92499,0.05593
1542.99625,0.05589
1541.06750,0.05584
1539.13876,0.05567
1537.21001,0.05547
1535.28126,0.05549
1533.35252,0.05570
1531.42377,0.05583
1529.49503,0.05577
1527.56628,0.05569
1525.63754,0.05563
1523.70879,0.05554
1521.78005,0.05541
1519.85130,0.05527
1517.92256,0.05516
1515.99381,0.05516
1514.06507,0.05531
1512.13632,0.05547
1510.20758,0.05548
1508.27883,0.05529
1506.35008,0.05501
1504.42134,0.05486
1502.49259,0.05481
1500.56385,0.05479
1498.63510,0.05473
1496.70636,0.05460
1494.77761,0.05456
1492.84887,0.05466
1490.92012,0.05475
1488.99138,0.05459
1487.06263,0.05414
1485.13389,0.05363
1483.20514,0.05318
1481.27640,0.05266
1479.34765,0.05182
1477.41891,0.05059
1475.49016,0.04986
1473.56141,0.05105
1471.63267,0.05339
1469.70392,0.05473
1467.77518,0.05511
1465.84643,0.05566
1463.91769,0.05709
1461.98894,0.05906
1460.06020,0.06029
1458.13145,0.06034
1456.20271,0.06000
1454.27396,0.05991
1452.34522,0.05983
1450.41647,0.05960
1448.48773,0.05937
1446.55898,0.05912
1444.63024,0.05884
1442.70149,0.05864
1440.77274,0.05852
1438.84400,0.05844
1436.91525,0.05848
1434.98651,0.05863
1433.05776,0.05865
1431.12902,0.05848
1429.20027,0.05831
1427.27153,0.05827
1425.34278,0.05823
1423.41404,0.05814
1421.48529,0.05810
1419.55655,0.05810
1417.62780,0.05811
1415.69906,0.05815
1413.77031,0.05805
1411.84156,0.05777
1409.91282,0.05753
1407.98407,0.05747
1406.05533,0.05751
1404.12658,0.05756
1402.19784,0.05759
1400.26909,0.05759
1398.34035,0.05750
1396.41160,0.05732
1394.48286,0.05715
1392.55411,0.05709
1390.62537,0.05706
1388.69662,0.05701
1386.76788,0.05696
1384.83913,0.05690
1382.91039,0.05681
1380.98164,0.05678
1379.05289,0.05691
1377.12415,0.05703
1375.19540,0.05706
1373.26666,0.05710
1371.33791,0.05720
1369.40917,0.05724
1367.48042,0.05724
1365.55168,0.05729
1363.62293,0.05739
1361.69419,0.05749
1359.76544,0.05756
1357.83670,0.05757
1355.90795,0.05751
1353.97921,0.05743
1352.05046,0.05742
1350.12172,0.05751
1348.19297,0.05767
1346.26422,0.05778
1344.33548,0.05779
1342.40673,0.05771
1340.47799,0.05754
1338.54924,0.05731
1336.62050,0.05712
1334.69175,0.05705
1332.76301,0.05712
1330.83426,0.05721
1328.90552,0.05714
1326.97677,0.05699
1325.04803,0.05700
1323.11928,0.05708
1321.19054,0.05703
1319.26179,0.05702
1317.33304,0.05718
1315.40430,0.05731
1313.47555,0.05727
1311.54681,0.05711
1309.61806,0.05695
1307.68932,0.05689
1305.76057,0.05697
1303.83183,0.05708
1301.90308,0.05715
1299.97434,0.05719
1298.04559,0.05726
1296.11685,0.05732
1294.18810,0.05728
1292.25936,0.05726
1290.33061,0.05738
1288.40187,0.05759
1286.47312,0.05776
1284.54437,0.05780
1282.61563,0.05764
1280.68688,0.05748
1278.75814,0.05749
1276.82939,0.05755
1274.90065,0.05762
1272.97190,0.05774
1271.04316,0.05775
1269.11441,0.05762
1267.18567,0.05750
1265.25692,0.05747
1263.32818,0.05750
1261.39943,0.05753
1259.47069,0.05756
1257.54194,0.05757
1255.61320,0.05747
1253.68445,0.05722
1251.75570,0.05704
1249.82696,0.05709
1247.89821,0.05721
1245.96947,0.05722
1244.04072,0.05720
1242.11198,0.05729
1240.18323,0.05746
1238.25449,0.05763
1236.32574,0.05766
1234.39700,0.05748
1232.46825,0.05731
1230.53951,0.05730
1228.61076,0.05738
1226.68202,0.05740
1224.75327,0.05729
1222.82452,0.05718
1220.89578,0.05717
1218.96703,0.05711
1217.03829,0.05703
1215.10954,0.05700
1213.18080,0.05692
1211.25205,0.05691
1209.32331,0.05714
1207.39456,0.05735
1205.46582,0.05733
1203.53707,0.05721
1201.60833,0.05713
1199.67958,0.05714
1197.75084,0.05711
1195.82209,0.05685
1193.89335,0.05656
1191.96460,0.05657
1190.03585,0.05677
1188.10711,0.05691
1186.17836,0.05704
1184.24962,0.05719
1182.32087,0.05728
1180.39213,0.05709
1178.46338,0.05671
1176.53464,0.05650
1174.60589,0.05653
1172.67715,0.05667
1170.74840,0.05689
1168.81966,0.05706
1166.89091,0.05703
1164.96217,0.05682
1163.03342,0.05660
1161.10467,0.05646
1159.17593,0.05645
1157.24718,0.05659
1155.31844,0.05666
1153.38969,0.05668
1151.46095,0.05680
1149.53220,0.05679
1147.60346,0.05658
1145.67471,0.05645
1143.74597,0.05653
1141.81722,0.05674
1139.88848,0.05695
1137.95973,0.05699
1136.03099,0.05681
1134.10224,0.05672
1132.17350,0.05686
1130.24475,0.05697
1128.31600,0.05684
1126.38726,0.05670
1124.45851,0.05681
1122.52977,0.05703
1120.60102,0.05719
1118.67228,0.05750
1116.74353,0.05785
1114.81479,0.05775
1112.88604,0.05726
1110.95730,0.05688
1109.02855,0.05691
1107.09981,0.05708
1105.17106,0.05708
1103.24232,0.05688
1101.31357,0.05665
1099.38483,0.05660
1097.45608,0.05675
1095.52733,0.05689
1093.59859,0.05685
1091.66984,0.05669
1089.74110,0.05666
1087.81235,0.05665
1085.88361,0.05639
1083.95486,0.05625
1082.02612,0.05655
1080.09737,0.05687
1078.16863,0.05677
1076.23988,0.05645
1074.31114,0.05629
1072.38239,0.05643
1070.45365,0.05679
1068.52490,0.05726
1066.59615,0.05776
1064.66741,0.05787
1062.73866,0.05741
1060.80992,0.05704
1058.88117,0.05709
1056.95243,0.05722
1055.02368,0.05725
1053.09494,0.05717
1051.16619,0.05701
1049.23745,0.05710
1047.30870,0.05748
1045.37996,0.05772
1043.45121,0.05761
1041.52247,0.05728
1039.59372,0.05689
1037.66498,0.05673
1035.73623,0.05689
1033.80748,0.05724
1031.87874,0.05772
1029.94999,0.05801
1028.02125,0.05799
1026.09250,0.05805
1024.16376,0.05819
1022.23501,0.05798
1020.30627,0.05747
1018.37752,0.05713
1016.44878,0.05714
1014.52003,0.05735
1012.59129,0.05764
1010.66254,0.05767
1008.73380,0.05718
1006.80505,0.05674
1004.87631,0.05677
1002.94756,0.05687
1001.01881,0.05691
999.09007,0.05698
997.16132,0.05700
995.23258,0.05703
993.30383,0.05712
991.37509,0.05706
989.44634,0.05698
987.51760,0.05707
985.58885,0.05715
983.66011,0.05706
981.73136,0.05705
979.80262,0.05712
977.87387,0.05711
975.94513,0.05722
974.01638,0.05738
972.08763,0.05726
970.15889,0.05708
968.23014,0.05706
966.30140,0.05705
964.37265,0.05698
962.44391,0.05697
960.51516,0.05712
958.58642,0.05739
956.65767,0.05768
954.72893,0.05783
952.80018,0.05769
950.87144,0.05750
948.94269,0.05758
947.01395,0.05773
945.08520,0.05771
943.15646,0.05766
941.22771,0.05774
939.29896,0.05787
937.37022,0.05773
935.44147,0.05727
933.51273,0.05694
931.58398,0.05717
929.65524,0.05766
927.72649,0.05787
925.79775,0.05776
923.86900,0.05765
921.94026,0.05748
920.01151,0.05701
918.08277,0.05657
916.15402,0.05651
914.22528,0.05667
912.29653,0.05695
910.36779,0.05737
908.43904,0.05766
906.51029,0.05754
904.58155,0.05731
902.65280,0.05727
900.72406,0.05716
898.79531,0.05692
896.86657,0.05676
894.93782,0.05672
893.00908,0.05675
891.08033,0.05677
889.15159,0.05679
887.22284,0.05688
885.29410,0.05707
883.36535,0.05731
881.43661,0.05746
879.50786,0.05741
877.57911,0.05734
875.65037,0.05749
873.72162,0.05759
871.79288,0.05733
869.86413,0.05723
867.93539,0.05754
866.00664,0.05762
864.07790,0.05722
862.14915,0.05672
860.22041,0.05660
858.29166,0.05710
856.36292,0.05757
854.43417,0.05748
852.50543,0.05711
850.57668,0.05681
848.64794,0.05673
846.71919,0.05686
844.79044,0.05707
842.86170,0.05736
840.93295,0.05759
839.00421,0.05776
837.07546,0.05778
835.14672,0.05754
833.21797,0.05739
831.28923,0.05755
829.36048,0.05753
827.43174,0.05730
825.50299,0.05752
823.57425,0.05800
821.64550,0.05809
819.71676,0.05780
817.78801,0.05751
815.85926,0.05728
813.93052,0.05712
812.00177,0.05720
810.07303,0.05734
808.14428,0.05725
806.21554,0.05696
804.28679,0.05660
802.35805,0.05656
800.42930,0.05693
798.50056,0.05723
796.57181,0.05711
794.64307,0.05667
792.71432,0.05631
790.78558,0.05624
788.85683,0.05632
786.92809,0.05640
784.99934,0.05651
783.07059,0.05674
781.14185,0.05695
779.21310,0.05683
777.28436,0.05644
775.35561,0.05626
773.42687,0.05650
771.49812,0.05666
769.56938,0.05645
767.64063,0.05623
765.71189,0.05611
763.78314,0.05594
761.85440,0.05595
759.92565,0.05622
757.99691,0.05623
756.06816,0.05574
754.13942,0.05534
752.21067,0.05529
750.28192,0.05514
748.35318,0.05478
746.42443,0.05462
744.49569,0.05458
742.56694,0.05425
740.63820,0.05390
738.70945,0.05373
736.78071,0.05337
734.85196,0.05253
732.92322,0.05199
730.99447,0.05311
729.06573,0.05522
727.13698,0.05646
725.20824,0.05662
723.27949,0.05659
721.35074,0.05769
719.42200,0.06032
717.49325,0.06230
715.56451,0.06214
713.63576,0.06141
711.70702,0.06123
709.77827,0.06100
707.84953,0.06054
705.92078,0.05996
703.99204,0.05917
702.06329,0.05859
700.13455,0.05849
698.20580,0.05820
696.27706,0.05765
694.34831,0.05757
692.41957,0.05786
690.49082,0.05812
688.56207,0.05833
686.63333,0.05842
684.70458,0.05834
682.77584,0.05821
680.84709,0.05811
678.91835,0.05825
676.98960,0.05901
675.06086,0.06010
673.13211,0.06109
671.20337,0.06209
669.27462,0.06321
667.34588,0.06445
665.41713,0.06560
663.48839,0.06639
661.55964,0.06721
659.63090,0.06888
657.70215,0.07150
655.77340,0.07460
653.84466,0.07782
651.91591,0.08064
649.98717,0.08292
648.05842,0.08541
646.12968,0.08850
644.20093,0.09137
642.27219,0.09321
640.34344,0.09455
638.41470,0.09625
636.48595,0.09821
634.55721,0.09987
632.62846,0.10140
630.69972,0.10342
628.77097,0.10511
626.84222,0.10599
624.91348,0.10754
622.98473,0.10987
621.05599,0.11120
619.12724,0.11123
617.19850,0.11099
615.26975,0.11067
613.34101,0.11006
611.41226,0.10877
609.48352,0.10588
607.55477,0.10167
605.62603,0.09803
603.69728,0.09597
601.76854,0.09454
599.83979,0.09199
