7497.03301,0.84849
7495.10426,0.84639
7493.17552,0.84573
7491.24677,0.84398
7489.31803,0.84121
7487.38928,0.83774
7485.46054,0.83334
7483.53179,0.82878
7481.60305,0.82635
7479.67430,0.82858
7477.74556,0.83287
7475.81681,0.83744
7473.88807,0.84411
7471.95932,0.84974
7470.03057,0.84937
7468.10183,0.84305
7466.17308,0.83439
7464.24434,0.82734
7462.31559,0.82434
7460.38685,0.82424
7458.45810,0.82336
7456.52936,0.82304
7454.60061,0.82646
7452.67187,0.83002
7450.74312,0.83097
7448.81438,0.83085
7446.88563,0.82925
7444.95689,0.82541
7443.02814,0.82149
7441.09940,0.81988
7439.17065,0.81881
7437.24190,0.81654
7435.31316,0.81587
7433.38441,0.81879
7431.45567,0.82349
7429.52692,0.82665
7427.59818,0.82761
7425.66943,0.82709
7423.74069,0.82374
7421.81194,0.81808
7419.88320,0.81282
7417.95445,0.81111
7416.02571,0.81317
7414.09696,0.81179
7412.16822,0.80488
7410.23947,0.80292
7408.31073,0.80888
7406.38198,0.81148
7404.45323,0.80828
7402.52449,0.80834
7400.59574,0.81089
7398.66700,0.81090
7396.73825,0.81126
7394.80951,0.81218
7392.88076,0.80983
7390.95202,0.80674
7389.02327,0.80618
7387.09453,0.80655
7385.16578,0.80672
7383.23704,0.80708
7381.30829,0.80802
7379.37955,0.80767
7377.45080,0.80446
7375.52205,0.80322
7373.59331,0.80574
7371.66456,0.80655
7369.73582,0.80549
7367.80707,0.80704
7365.87833,0.81032
7363.94958,0.81144
7362.02084,0.80834
7360.09209,0.80133
7358.16335,0.79719
7356.23460,0.80012
7354.30586,0.80247
7352.37711,0.79856
7350.44837,0.79088
7348.51962,0.78454
7346.59088,0.78485
7344.66213,0.79111
7342.73338,0.79844
7340.80464,0.80245
7338.87589,0.80167
7336.94715,0.79952
7335.01840,0.79748
7333.08966,0.79309
7331.16091,0.78584
7329.23217,0.77940
7327.30342,0.77986
7325.37468,0.78821
7323.44593,0.79556
7321.51719,0.79559
7319.58844,0.79084
7317.65970,0.78522
7315.73095,0.78319
7313.80221,0.78471
7311.87346,0.78404
7309.94471,0.78233
7308.01597,0.78313
7306.08722,0.78298
7304.15848,0.78053
7302.22973,0.77917
7300.30099,0.77924
7298.37224,0.77966
7296.44350,0.78034
7294.51475,0.78051
7292.58601,0.78051
7290.65726,0.78090
7288.72852,0.78117
7286.79977,0.78135
7284.87103,0.78183
7282.94228,0.78376
7281.01353,0.78671
7279.08479,0.78639
7277.15604,0.78230
7275.22730,0.77923
7273.29855,0.77848
7271.36981,0.77687
7269.44106,0.77153
7267.51232,0.76692
7265.58357,0.77020
7263.65483,0.77724
7261.72608,0.77989
7259.79734,0.77879
7257.86859,0.77800
7255.93985,0.77863
7254.01110,0.78102
7252.08236,0.78594
7250.15361,0.78930
7248.22486,0.78661
7246.29612,0.78140
7244.36737,0.77850
7242.43863,0.77778
7240.50988,0.77588
7238.58114,0.77181
7236.65239,0.76795
7234.72365,0.76669
7232.79490,0.77127
7230.86616,0.77876
7228.93741,0.78033
7227.00867,0.77729
7225.07992,0.77654
7223.15118,0.77795
7221.22243,0.77864
7219.29369,0.77957
7217.36494,0.78126
7215.43619,0.78195
7213.50745,0.78071
7211.57870,0.77632
7209.64996,0.77193
7207.72121,0.77271
7205.79247,0.77514
7203.86372,0.77358
7201.93498,0.76812
7200.00623,0.76208
7198.07749,0.75887
7196.14874,0.75849
7194.22000,0.76137
7192.29125,0.76805
7190.36251,0.77162
7188.43376,0.76704
7186.50501,0.75993
7184.57627,0.75676
7182.64752,0.75789
7180.71878,0.75863
7178.79003,0.75716
7176.86129,0.75804
7174.93254,0.76047
7173.00380,0.75959
7171.07505,0.75766
7169.14631,0.75826
7167.21756,0.75984
7165.28882,0.76043
7163.36007,0.75913
7161.43133,0.75495
7159.50258,0.74945
7157.57384,0.74534
7155.64509,0.74214
7153.71634,0.73874
7151.78760,0.73653
7149.85885,0.73549
7147.93011,0.73345
7146.00136,0.73303
7144.07262,0.73577
7142.14387,0.73749
7140.21513,0.73777
7138.28638,0.73642
7136.35764,0.73235
7134.42889,0.72836
7132.50015,0.72645
7130.57140,0.72850
7128.64266,0.73285
7126.71391,0.73375
7124.78516,0.73188
7122.85642,0.72999
7120.92767,0.72709
7118.99893,0.72407
7117.07018,0.72257
7115.14144,0.72144
7113.21269,0.72006
7111.28395,0.71922
7109.35520,0.71858
7107.42646,0.71756
7105.49771,0.71532
7103.56897,0.70961
7101.64022,0.70412
7099.71148,0.70588
7097.78273,0.71146
7095.85399,0.71307
7093.92524,0.71064
7091.99649,0.70797
7090.06775,0.70606
7088.13900,0.70248
7086.21026,0.69649
7084.28151,0.69306
7082.35277,0.69508
7080.42402,0.69549
7078.49528,0.68981
7076.56653,0.68594
7074.63779,0.68949
7072.70904,0.69550
7070.78030,0.69649
7068.85155,0.69096
7066.92281,0.68499
7064.99406,0.68092
7063.06532,0.67595
7061.13657,0.67222
7059.20782,0.67284
7057.27908,0.67565
7055.35033,0.67647
7053.42159,0.67393
7051.49284,0.67045
7049.56410,0.66792
7047.63535,0.66624
7045.70661,0.66478
7043.77786,0.66295
7041.84912,0.66127
7039.92037,0.66027
7037.99163,0.66012
7036.06288,0.66023
7034.13414,0.65879
7032.20539,0.65626
7030.27664,0.65540
7028.34790,0.65614
7026.41915,0.65639
7024.49041,0.65561
7022.56166,0.65349
7020.63292,0.65063
7018.70417,0.64818
7016.77543,0.64564
7014.84668,0.64310
7012.91794,0.64138
7010.98919,0.64150
7009.06045,0.64352
7007.13170,0.64449
7005.20296,0.64236
7003.27421,0.63767
7001.34547,0.63405
6999.41672,0.63543
6997.48797,0.63805
6995.55923,0.63650
6993.63048,0.63454
6991.70174,0.63570
6989.77299,0.63568
6987.84425,0.63292
6985.91550,0.63119
6983.98676,0.63172
6982.05801,0.63214
6980.12927,0.63115
6978.20052,0.62935
6976.27178,0.62787
6974.34303,0.62932
6972.41429,0.63264
6970.48554,0.63328
6968.55680,0.63173
6966.62805,0.63037
6964.69930,0.62908
6962.77056,0.62812
6960.84181,0.62770
6958.91307,0.62577
6956.98432,0.62194
6955.05558,0.62003
6953.12683,0.62165
6951.19809,0.62333
6949.26934,0.62277
6947.34060,0.62319
6945.41185,0.62500
6943.48311,0.62379
6941.55436,0.62205
6939.62562,0.62357
6937.69687,0.62558
6935.76812,0.62585
6933.83938,0.62456
6931.91063,0.62214
6929.98189,0.61940
6928.05314,0.61801
6926.12440,0.61946
6924.19565,0.62181
6922.26691,0.62147
6920.33816,0.61923
6918.40942,0.61834
6916.48067,0.61860
6914.55193,0.61870
6912.62318,0.61844
6910.69444,0.61854
6908.76569,0.62068
6906.83695,0.62449
6904.90820,0.62729
6902.97945,0.62672
6901.05071,0.62288
6899.12196,0.61959
6897.19322,0.61918
6895.26447,0.61830
6893.33573,0.61668
6891.40698,0.61791
6889.47824,0.61969
6887.54949,0.61944
6885.62075,0.61989
6883.69200,0.62198
6881.76326,0.62271
6879.83451,0.62024
6877.90577,0.61741
6875.97702,0.61751
6874.04828,0.61834
6872.11953,0.61677
6870.19078,0.61585
6868.26204,0.61862
6866.33329,0.62142
6864.40455,0.62197
6862.47580,0.62233
6860.54706,0.62178
6858.61831,0.61932
6856.68957,0.61780
6854.76082,0.61823
6852.83208,0.61814
6850.90333,0.61731
6848.97459,0.61868
6847.04584,0.62151
6845.11710,0.61981
6843.18835,0.61432
6841.25960,0.61304
6839.33086,0.61644
6837.40211,0.61815
6835.47337,0.61671
6833.54462,0.61616
6831.61588,0.61889
6829.68713,0.62182
6827.75839,0.62161
6825.82964,0.62039
6823.90090,0.62040
6821.97215,0.62014
6820.04341,0.61866
6818.11466,0.61726
6816.18592,0.61768
6814.25717,0.61949
6812.32843,0.62031
6810.39968,0.61926
6808.47093,0.61836
6806.54219,0.61970
6804.61344,0.62160
6802.68470,0.62088
6800.75595,0.61818
6798.82721,0.61695
6796.89846,0.61720
6794.96972,0.61567
6793.04097,0.61367
6791.11223,0.61454
6789.18348,0.61628
6787.25474,0.61691
6785.32599,0.61814
6783.39725,0.61934
6781.46850,0.61861
6779.53975,0.61681
6777.61101,0.61571
6775.68226,0.61612
6773.75352,0.61631
6771.82477,0.61503
6769.89603,0.61377
6767.96728,0.61414
6766.03854,0.61638
6764.10979,0.61850
6762.18105,0.61924
6760.25230,0.61871
6758.32356,0.61676
6756.39481,0.61527
6754.46607,0.61606
6752.53732,0.61866
6750.60858,0.62227
6748.67983,0.62543
6746.75108,0.62626
6744.82234,0.62543
6742.89359,0.62499
6740.96485,0.62464
6739.03610,0.62360
6737.10736,0.62213
6735.17861,0.61943
6733.24987,0.61654
6731.32112,0.61725
6729.39238,0.62111
6727.46363,0.62450
6725.53489,0.62658
6723.60614,0.62666
6721.67740,0.62487
6719.74865,0.62426
6717.81991,0.62522
6715.89116,0.62604
6713.96241,0.62713
6712.03367,0.62883
6710.10492,0.62988
6708.17618,0.63015
6706.24743,0.62904
6704.31869,0.62584
6702.38994,0.62465
6700.46120,0.62777
6698.53245,0.63005
6696.60371,0.62818
6694.67496,0.62507
6692.74622,0.62465
6690.81747,0.62730
6688.88873,0.62935
6686.95998,0.62861
6685.03123,0.62718
6683.10249,0.62783
6681.17374,0.63001
6679.24500,0.62981
6677.31625,0.62615
6675.38751,0.62371
6673.45876,0.62600
6671.53002,0.62970
6669.60127,0.63005
6667.67253,0.63004
6665.74378,0.63249
6663.81504,0.63256
6661.88629,0.62989
6659.95755,0.62885
6658.02880,0.62964
6656.10006,0.63109
6654.17131,0.63198
6652.24256,0.63258
6650.31382,0.63376
6648.38507,0.63367
6646.45633,0.63267
6644.52758,0.63321
6642.59884,0.63494
6640.67009,0.63563
6638.74135,0.63486
6636.81260,0.63475
6634.88386,0.63594
6632.95511,0.63640
6631.02637,0.63510
6629.09762,0.63416
6627.16888,0.63610
6625.24013,0.64021
6623.31139,0.64226
6621.38264,0.63955
6619.45389,0.63623
6617.52515,0.63629
6615.59640,0.63737
6613.66766,0.63793
6611.73891,0.63915
6609.81017,0.64030
6607.88142,0.64009
6605.95268,0.63987
6604.02393,0.64134
6602.09519,0.64253
6600.16644,0.64174
6598.23770,0.64145
6596.30895,0.64259
6594.38021,0.64304
6592.45146,0.64306
6590.52271,0.64305
6588.59397,0.64235
6586.66522,0.64230
6584.73648,0.64269
6582.80773,0.64242
6580.87899,0.64207
6578.95024,0.64090
6577.02150,0.63924
6575.09275,0.63928
6573.16401,0.64056
6571.23526,0.64133
6569.30652,0.64185
6567.37777,0.64307
6565.44903,0.64505
6563.52028,0.64682
6561.59154,0.64800
6559.66279,0.64951
6557.73404,0.65086
6555.80530,0.65017
6553.87655,0.64754
6551.94781,0.64587
6550.01906,0.64717
6548.09032,0.64935
6546.16157,0.64892
6544.23283,0.64532
6542.30408,0.64187
6540.37534,0.64190
6538.44659,0.64447
6536.51785,0.64667
6534.58910,0.64760
6532.66036,0.64757
6530.73161,0.64678
6528.80287,0.64598
6526.87412,0.64589
6524.94537,0.64637
6523.01663,0.64757
6521.08788,0.64991
6519.15914,0.65276
6517.23039,0.65492
6515.30165,0.65564
6513.37290,0.65354
6511.44416,0.64922
6509.51541,0.64669
6507.58667,0.64622
6505.65792,0.64539
6503.72918,0.64523
6501.80043,0.64670
6499.87169,0.64823
6497.94294,0.64872
6496.01419,0.64886
6494.08545,0.64946
6492.15670,0.64975
6490.22796,0.64885
6488.29921,0.64791
6486.37047,0.64854
6484.44172,0.65007
6482.51298,0.65100
6480.58423,0.65069
6478.65549,0.64932
6476.72674,0.64889
6474.79800,0.65057
6472.86925,0.65270
6470.94051,0.65396
6469.01176,0.65426
6467.08302,0.65348
6465.15427,0.65263
6463.22552,0.65332
6461.29678,0.65365
6459.36803,0.65160
6457.43929,0.65056
6455.51054,0.65176
6453.58180,0.65151
6451.65305,0.64986
6449.72431,0.64969
6447.79556,0.65112
6445.86682,0.65290
6443.93807,0.65381
6442.00933,0.65336
6440.08058,0.65294
6438.15184,0.65352
6436.22309,0.65469
6434.29434,0.65632
6432.36560,0.65809
6430.43685,0.65984
6428.50811,0.66157
6426.57936,0.66170
6424.65062,0.65957
6422.72187,0.65736
6420.79313,0.65705
6418.86438,0.65800
6416.93564,0.65808
6415.00689,0.65608
6413.07815,0.65446
6411.14940,0.65530
6409.22066,0.65463
6407.29191,0.65204
6405.36317,0.65287
6403.43442,0.65669
6401.50567,0.65941
6399.57693,0.65957
6397.64818,0.65778
6395.71944,0.65605
6393.79069,0.65618
6391.86195,0.65849
6389.93320,0.66064
6388.00446,0.66034
6386.07571,0.65910
6384.14697,0.65893
6382.21822,0.65909
6380.28948,0.65818
6378.36073,0.65684
6376.43199,0.65646
6374.50324,0.65740
6372.57450,0.65895
6370.64575,0.65983
6368.71700,0.65958
6366.78826,0.65874
6364.85951,0.65837
6362.93077,0.65898
6361.00202,0.66008
6359.07328,0.66128
6357.14453,0.66286
6355.21579,0.66483
6353.28704,0.66522
6351.35830,0.66262
6349.42955,0.65961
6347.50081,0.65898
6345.57206,0.66045
6343.64332,0.66245
6341.71457,0.66413
6339.78582,0.66585
6337.85708,0.66681
6335.92833,0.66551
6333.99959,0.66398
6332.07084,0.66453
6330.14210,0.66543
6328.21335,0.66502
6326.28461,0.66385
6324.35586,0.66281
6322.42712,0.66242
6320.49837,0.66339
6318.56963,0.66567
6316.64088,0.66636
6314.71214,0.66344
6312.78339,0.65986
6310.85465,0.65922
6308.92590,0.66097
6306.99715,0.66339
6305.06841,0.66580
6303.13966,0.66641
6301.21092,0.66489
6299.28217,0.66381
6297.35343,0.66410
6295.42468,0.66398
6293.49594,0.66285
6291.56719,0.66258
6289.63845,0.66383
6287.70970,0.66540
6285.78096,0.66606
6283.85221,0.66630
6281.92347,0.66857
6279.99472,0.67164
6278.06598,0.67120
6276.13723,0.66817
6274.20848,0.66682
6272.27974,0.66845
6270.35099,0.67178
6268.42225,0.67445
6266.49350,0.67469
6264.56476,0.67384
6262.63601,0.67389
6260.70727,0.67442
6258.77852,0.67427
6256.84978,0.67459
6254.92103,0.67648
6252.99229,0.67727
6251.06354,0.67569
6249.13480,0.67460
6247.20605,0.67495
6245.27730,0.67484
6243.34856,0.67434
6241.41981,0.67486
6239.49107,0.67604
6237.56232,0.67761
6235.63358,0.67928
6233.70483,0.67988
6231.77609,0.68056
6229.84734,0.68285
6227.91860,0.68476
6225.98985,0.68427
6224.06111,0.68281
6222.13236,0.68186
6220.20362,0.68138
6218.27487,0.68273
6216.34613,0.68548
6214.41738,0.68691
6212.48863,0.68720
6210.55989,0.68716
6208.63114,0.68645
6206.70240,0.68628
6204.77365,0.68775
6202.84491,0.69049
6200.91616,0.69375
6198.98742,0.69558
6197.05867,0.69390
6195.12993,0.69071
6193.20118,0.68981
6191.27244,0.69088
6189.34369,0.69196
6187.41495,0.69299
6185.48620,0.69414
6183.55746,0.69493
6181.62871,0.69495
6179.69996,0.69403
6177.77122,0.69307
6175.84247,0.69380
6173.91373,0.69533
6171.98498,0.69548
6170.05624,0.69550
6168.12749,0.69725
6166.19875,0.69919
6164.27000,0.69971
6162.34126,0.70012
6160.41251,0.70125
6158.48377,0.70186
6156.55502,0.70166
6154.62628,0.70127
6152.69753,0.70067
6150.76878,0.70002
6148.84004,0.69992
6146.91129,0.70064
6144.98255,0.70183
6143.05380,0.70293
6141.12506,0.70418
6139.19631,0.70553
6137.26757,0.70547
6135.33882,0.70412
6133.41008,0.70338
6131.48133,0.70381
6129.55259,0.70464
6127.62384,0.70490
6125.69510,0.70406
6123.76635,0.70297
6121.83761,0.70398
6119.90886,0.70764
6117.98011,0.71052
6116.05137,0.71070
6114.12262,0.71023
6112.19388,0.71034
6110.26513,0.71025
6108.33639,0.70963
6106.40764,0.70869
6104.47890,0.70796
6102.55015,0.70787
6100.62141,0.70807
6098.69266,0.70851
6096.76392,0.70935
6094.83517,0.71011
6092.90643,0.71034
6090.97768,0.70984
6089.04893,0.70867
6087.12019,0.70784
6085.19144,0.70783
6083.26270,0.70812
6081.33395,0.70862
6079.40521,0.70891
6077.47646,0.70902
6075.54772,0.70908
6073.61897,0.70845
6071.69023,0.70819
6069.76148,0.70953
6067.83274,0.71142
6065.90399,0.71171
6063.97525,0.70983
6062.04650,0.70782
6060.11776,0.70710
6058.18901,0.70740
6056.26026,0.70762
6054.33152,0.70724
6052.40277,0.70767
6050.47403,0.70864
6048.54528,0.70822
6046.61654,0.70737
6044.68779,0.70763
6042.75905,0.70817
6040.83030,0.70792
6038.90156,0.70660
6036.97281,0.70486
6035.04407,0.70369
6033.11532,0.70336
6031.18658,0.70381
6029.25783,0.70387
6027.32909,0.70271
6025.40034,0.70195
6023.47159,0.70238
6021.54285,0.70240
6019.61410,0.70156
6017.68536,0.70080
6015.75661,0.69999
6013.82787,0.69929
6011.89912,0.69940
6009.97038,0.70026
6008.04163,0.70056
6006.11289,0.69932
6004.18414,0.69828
6002.25540,0.69801
6000.32665,0.69707
5998.39791,0.69650
5996.46916,0.69767
5994.54041,0.69878
5992.61167,0.69756
5990.68292,0.69552
5988.75418,0.69462
5986.82543,0.69382
5984.89669,0.69263
5982.96794,0.69198
5981.03920,0.69234
5979.11045,0.69338
5977.18171,0.69394
5975.25296,0.69350
5973.32422,0.69305
5971.39547,0.69308
5969.46673,0.69259
5967.53798,0.69182
5965.60924,0.69239
5963.68049,0.69389
5961.75174,0.69455
5959.82300,0.69443
5957.89425,0.69381
5955.96551,0.69236
5954.03676,0.69175
5952.10802,0.69324
5950.17927,0.69580
5948.25053,0.69808
5946.32178,0.69876
5944.39304,0.69790
5942.46429,0.69722
5940.53555,0.69713
5938.60680,0.69707
5936.67806,0.69729
5934.74931,0.69772
5932.82057,0.69764
5930.89182,0.69698
5928.96307,0.69607
5927.03433,0.69532
5925.10558,0.69523
5923.17684,0.69530
5921.24809,0.69500
5919.31935,0.69561
5917.39060,0.69734
5915.46186,0.69777
5913.53311,0.69607
5911.60437,0.69390
5909.67562,0.69272
5907.74688,0.69241
5905.81813,0.69200
5903.88939,0.69127
5901.96064,0.69030
5900.03189,0.68958
5898.10315,0.68996
5896.17440,0.69092
5894.24566,0.69127
5892.31691,0.69119
5890.38817,0.69131
5888.45942,0.69159
5886.53068,0.69185
5884.60193,0.69158
5882.67319,0.69088
5880.74444,0.69068
5878.81570,0.69069
5876.88695,0.69062
5874.95821,0.69041
5873.02946,0.68920
5871.10072,0.68795
5869.17197,0.68849
5867.24322,0.68972
5865.31448,0.68951
5863.38573,0.68847
5861.45699,0.68809
5859.52824,0.68834
5857.59950,0.68895
5855.67075,0.68970
5853.74201,0.69013
5851.81326,0.69028
5849.88452,0.69068
5847.95577,0.69120
5846.02703,0.69104
5844.09828,0.69003
5842.16954,0.68916
5840.24079,0.68960
5838.31205,0.68980
5836.38330,0.68790
5834.45455,0.68619
5832.52581,0.68590
5830.59706,0.68493
5828.66832,0.68340
5826.73957,0.68301
5824.81083,0.68383
5822.88208,0.68427
5820.95334,0.68354
5819.02459,0.68334
5817.09585,0.68464
5815.16710,0.68585
5813.23836,0.68544
5811.30961,0.68361
5809.38087,0.68138
5807.45212,0.68011
5805.52337,0.68094
5803.59463,0.68274
5801.66588,0.68361
5799.73714,0.68321
5797.80839,0.68200
5795.87965,0.68140
5793.95090,0.68291
5792.02216,0.68540
5790.09341,0.68630
5788.16467,0.68546
5786.23592,0.68489
5784.30718,0.68489
5782.37843,0.68439
5780.44969,0.68341
5778.52094,0.68290
5776.59220,0.68370
5774.66345,0.68505
5772.73470,0.68544
5770.80596,0.68524
5768.87721,0.68522
5766.94847,0.68506
5765.01972,0.68465
5763.09098,0.68462
5761.16223,0.68544
5759.23349,0.68655
5757.30474,0.68757
5755.37600,0.68863
5753.44725,0.68883
5751.51851,0.68788
5749.58976,0.68683
5747.66102,0.68593
5745.73227,0.68484
5743.80352,0.68397
5741.87478,0.68358
5739.94603,0.68396
5738.01729,0.68511
5736.08854,0.68585
5734.15980,0.68578
5732.23105,0.68574
5730.30231,0.68606
5728.37356,0.68608
5726.44482,0.68528
5724.51607,0.68506
5722.58733,0.68598
5720.65858,0.68635
5718.72984,0.68617
5716.80109,0.68586
5714.87235,0.68450
5712.94360,0.68333
5711.01485,0.68356
5709.08611,0.68345
5707.15736,0.68257
5705.22862,0.68229
5703.29987,0.68233
5701.37113,0.68255
5699.44238,0.68336
5697.51364,0.68377
5695.58489,0.68305
5693.65615,0.68220
5691.72740,0.68244
5689.79866,0.68291
5687.86991,0.68232
5685.94117,0.68157
5684.01242,0.68151
5682.08368,0.68160
5680.15493,0.68184
5678.22618,0.68245
5676.29744,0.68287
5674.36869,0.68284
5672.43995,0.68244
5670.51120,0.68154
5668.58246,0.68049
5666.65371,0.68043
5664.72497,0.68157
5662.79622,0.68250
5660.86748,0.68187
5658.93873,0.67995
5657.00999,0.67868
5655.08124,0.67918
5653.15250,0.67994
5651.22375,0.67949
5649.29500,0.67861
5647.36626,0.67844
5645.43751,0.67875
5643.50877,0.67886
5641.58002,0.67869
5639.65128,0.67860
5637.72253,0.67888
5635.79379,0.67942
5633.86504,0.67945
5631.93630,0.67884
5630.00755,0.67860
5628.07881,0.67900
5626.15006,0.67943
5624.22132,0.67947
5622.29257,0.67920
5620.36383,0.67952
5618.43508,0.67998
5616.50633,0.67909
5614.57759,0.67794
5612.64884,0.67817
5610.72010,0.67869
5608.79135,0.67833
5606.86261,0.67787
5604.93386,0.67848
5603.00512,0.67957
5601.07637,0.67960
5599.14763,0.67866
5597.21888,0.67771
5595.29014,0.67730
5593.36139,0.67763
5591.43265,0.67796
5589.50390,0.67758
5587.57516,0.67732
5585.64641,0.67841
5583.71766,0.68044
5581.78892,0.68177
5579.86017,0.68190
5577.93143,0.68178
5576.00268,0.68152
5574.07394,0.68076
5572.14519,0.68017
5570.21645,0.68012
5568.28770,0.68054
5566.35896,0.68143
5564.43021,0.68188
5562.50147,0.68130
5560.57272,0.68046
5558.64398,0.68019
5556.71523,0.68093
5554.78648,0.68248
5552.85774,0.68376
5550.92899,0.68363
5549.00025,0.68259
5547.07150,0.68226
5545.14276,0.68282
5543.21401,0.68314
5541.28527,0.68317
5539.35652,0.68366
5537.42778,0.68438
5535.49903,0.68463
5533.57029,0.68459
5531.64154,0.68427
5529.71280,0.68359
5527.78405,0.68328
5525.85531,0.68368
5523.92656,0.68439
5521.99781,0.68487
5520.06907,0.68477
5518.14032,0.68423
5516.21158,0.68341
5514.28283,0.68286
5512.35409,0.68334
5510.42534,0.68453
5508.49660,0.68564
5506.56785,0.68652
5504.63911,0.68688
5502.71036,0.68653
5500.78162,0.68619
5498.85287,0.68608
5496.92413,0.68565
5494.99538,0.68525
5493.06664,0.68540
5491.13789,0.68590
5489.20914,0.68646
5487.28040,0.68671
5485.35165,0.68646
5483.42291,0.68612
5481.49416,0.68613
5479.56542,0.68654
5477.63667,0.68687
5475.70793,0.68709
5473.77918,0.68759
5471.85044,0.68811
5469.92169,0.68850
5467.99295,0.68863
5466.06420,0.68837
5464.13546,0.68857
5462.20671,0.68968
5460.27796,0.69052
5458.34922,0.69040
5456.42047,0.69006
5454.49173,0.69002
5452.56298,0.69043
5450.63424,0.69108
5448.70549,0.69143
5446.77675,0.69162
5444.84800,0.69184
5442.91926,0.69206
5440.99051,0.69235
5439.06177,0.69303
5437.13302,0.69443
5435.20428,0.69545
5433.27553,0.69448
5431.34679,0.69270
5429.41804,0.69264
5427.48929,0.69369
5425.56055,0.69402
5423.63180,0.69431
5421.70306,0.69511
5419.77431,0.69581
5417.84557,0.69619
5415.91682,0.69598
5413.98808,0.69538
5412.05933,0.69552
5410.13059,0.69615
5408.20184,0.69681
5406.27310,0.69812
5404.34435,0.69947
5402.41561,0.69966
5400.48686,0.69911
5398.55811,0.69879
5396.62937,0.69880
5394.70062,0.69881
5392.77188,0.69884
5390.84313,0.69868
5388.91439,0.69806
5386.98564,0.69756
5385.05690,0.69760
5383.12815,0.69826
5381.19941,0.69930
5379.27066,0.69992
5377.34192,0.69989
5375.41317,0.69919
5373.48443,0.69789
5371.55568,0.69712
5369.62694,0.69744
5367.69819,0.69787
5365.76944,0.69754
5363.84070,0.69638
5361.91195,0.69510
5359.98321,0.69445
5358.05446,0.69426
5356.12572,0.69443
5354.19697,0.69487
5352.26823,0.69486
5350.33948,0.69433
5348.41074,0.69362
5346.48199,0.69273
5344.55325,0.69177
5342.62450,0.69085
5340.69576,0.69044
5338.76701,0.69068
5336.83827,0.69011
5334.90952,0.68836
5332.98077,0.68739
5331.05203,0.68765
5329.12328,0.68730
5327.19454,0.68555
5325.26579,0.68331
5323.33705,0.68118
5321.40830,0.67897
5319.47956,0.67682
5317.55081,0.67494
5315.62207,0.67325
5313.69332,0.67161
5311.76458,0.66979
5309.83583,0.66756
5307.90709,0.66479
5305.97834,0.66221
5304.04959,0.66054
5302.12085,0.65886
5300.19210,0.65613
5298.26336,0.65271
5296.33461,0.64985
5294.40587,0.64760
5292.47712,0.64447
5290.54838,0.64082
5288.61963,0.63770
5286.69089,0.63427
5284.76214,0.63058
5282.83340,0.62747
5280.90465,0.62414
5278.97591,0.61966
5277.04716,0.61416
5275.11842,0.60862
5273.18967,0.60446
5271.26092,0.60136
5269.33218,0.59798
5267.40343,0.59454
5265.47469,0.59115
5263.54594,0.58681
5261.61720,0.58139
5259.68845,0.57621
5257.75971,0.57252
5255.83096,0.56962
5253.90222,0.56631
5251.97347,0.56267
5250.04473,0.55896
5248.11598,0.55568
5246.18724,0.55321
5244.25849,0.55059
5242.32975,0.54719
5240.40100,0.54360
5238.47225,0.54048
5236.54351,0.53779
5234.61476,0.53530
5232.68602,0.53318
5230.75727,0.53142
5228.82853,0.52938
5226.89978,0.52679
5224.97104,0.52395
5223.04229,0.52131
5221.11355,0.51922
5219.18480,0.51785
5217.25606,0.51693
5215.32731,0.51630
5213.39857,0.51600
5211.46982,0.51571
5209.54107,0.51518
5207.61233,0.51431
5205.68358,0.51324
5203.75484,0.51252
5201.82609,0.51176
5199.89735,0.51021
5197.96860,0.50845
5196.03986,0.50776
5194.11111,0.50844
5192.18237,0.50932
5190.25362,0.50928
5188.32488,0.50893
5186.39613,0.50926
5184.46739,0.50957
5182.53864,0.50939
5180.60990,0.50968
5178.68115,0.51048
5176.75240,0.51110
5174.82366,0.51134
5172.89491,0.51127
5170.96617,0.51163
5169.03742,0.51272
5167.10868,0.51415
5165.17993,0.51534
5163.25119,0.51571
5161.32244,0.51594
5159.39370,0.51706
5157.46495,0.51865
5155.53621,0.51991
5153.60746,0.52080
5151.67872,0.52152
5149.74997,0.52210
5147.82123,0.52287
5145.89248,0.52409
5143.96373,0.52551
5142.03499,0.52684
5140.10624,0.52790
5138.17750,0.52890
5136.24875,0.53014
5134.32001,0.53142
5132.39126,0.53256
5130.46252,0.53378
5128.53377,0.53522
5126.60503,0.53673
5124.67628,0.53817
5122.74754,0.53969
5120.81879,0.54104
5118.89005,0.54188
5116.96130,0.54263
5115.03255,0.54359
5113.10381,0.54449
5111.17506,0.54554
5109.24632,0.54717
5107.31757,0.54872
5105.38883,0.54932
5103.46008,0.54947
5101.53134,0.55036
5099.60259,0.55236
5097.67385,0.55444
5095.74510,0.55539
5093.81636,0.55579
5091.88761,0.55672
5089.95887,0.55799
5088.03012,0.55910
5086.10138,0.55988
5084.17263,0.56076
5082.24388,0.56236
5080.31514,0.56419
5078.38639,0.56536
5076.45765,0.56614
5074.52890,0.56712
5072.60016,0.56814
5070.67141,0.56885
5068.74267,0.56937
5066.81392,0.57004
5064.88518,0.57086
5062.95643,0.57170
5061.02769,0.57230
5059.09894,0.57301
5057.17020,0.57451
5055.24145,0.57627
5053.31270,0.57736
5051.38396,0.57804
5049.45521,0.57902
5047.52647,0.58047
5045.59772,0.58181
5043.66898,0.58235
5041.74023,0.58231
5039.81149,0.58249
5037.88274,0.58316
5035.95400,0.58395
5034.02525,0.58478
5032.09651,0.58592
5030.16776,0.58710
5028.23902,0.58804
5026.31027,0.58877
5024.38153,0.58920
5022.45278,0.58965
5020.52403,0.59052
5018.59529,0.59123
5016.66654,0.59130
5014.73780,0.59143
5012.80905,0.59237
5010.88031,0.59381
5008.95156,0.59489
5007.02282,0.59549
5005.09407,0.59591
5003.16533,0.59606
5001.23658,0.59621
4999.30784,0.59697
4997.37909,0.59797
4995.45035,0.59834
4993.52160,0.59824
4991.59286,0.59816
4989.66411,0.59804
4987.73536,0.59790
4985.80662,0.59754
4983.87787,0.59697
4981.94913,0.59690
4980.02038,0.59740
4978.09164,0.59758
4976.16289,0.59702
4974.23415,0.59632
4972.30540,0.59590
4970.37666,0.59544
4968.44791,0.59488
4966.51917,0.59457
4964.59042,0.59442
4962.66168,0.59411
4960.73293,0.59351
4958.80418,0.59276
4956.87544,0.59205
4954.94669,0.59111
4953.01795,0.58991
4951.08920,0.58875
4949.16046,0.58769
4947.23171,0.58676
4945.30297,0.58581
4943.37422,0.58458
4941.44548,0.58333
4939.51673,0.58252
4937.58799,0.58205
4935.65924,0.58126
4933.73050,0.57990
4931.80175,0.57837
4929.87301,0.57689
4927.94426,0.57529
4926.01551,0.57363
4924.08677,0.57204
4922.15802,0.57044
4920.22928,0.56906
4918.30053,0.56815
4916.37179,0.56729
4914.44304,0.56583
4912.51430,0.56377
4910.58555,0.56193
4908.65681,0.56091
4906.72806,0.56022
4904.79932,0.55910
4902.87057,0.55766
4900.94183,0.55606
4899.01308,0.55414
4897.08434,0.55201
4895.15559,0.54981
4893.22684,0.54784
4891.29810,0.54654
4889.36935,0.54559
4887.44061,0.54443
4885.51186,0.54282
4883.58312,0.54101
4881.65437,0.53982
4879.72563,0.53921
4877.79688,0.53798
4875.86814,0.53577
4873.93939,0.53346
4872.01065,0.53186
4870.08190,0.53088
4868.15316,0.52997
4866.22441,0.52855
4864.29566,0.52660
4862.36692,0.52502
4860.43817,0.52424
4858.50943,0.52325
4856.58068,0.52161
4854.65194,0.52000
4852.72319,0.51874
4850.79445,0.51780
4848.86570,0.51715
4846.93696,0.51623
4845.00821,0.51475
4843.07947,0.51328
4841.15072,0.51203
4839.22198,0.51088
4837.29323,0.51024
4835.36449,0.50990
4833.43574,0.50896
4831.50699,0.50767
4829.57825,0.50659
4827.64950,0.50548
4825.72076,0.50419
4823.79201,0.50295
4821.86327,0.50186
4819.93452,0.50106
4818.00578,0.50085
4816.07703,0.50107
4814.14829,0.50100
4812.21954,0.50024
4810.29080,0.49896
4808.36205,0.49757
4806.43331,0.49657
4804.50456,0.49587
4802.57582,0.49524
4800.64707,0.49479
4798.71832,0.49433
4796.78958,0.49363
4794.86083,0.49310
4792.93209,0.49296
4791.00334,0.49260
4789.07460,0.49196
4787.14585,0.49161
4785.21711,0.49162
4783.28836,0.49185
4781.35962,0.49186
4779.43087,0.49147
4777.50213,0.49117
4775.57338,0.49112
4773.64464,0.49096
4771.71589,0.49052
4769.78714,0.48993
4767.85840,0.48940
4765.92965,0.48920
4764.00091,0.48932
4762.07216,0.48946
4760.14342,0.48957
4758.21467,0.48948
4756.28593,0.48920
4754.35718,0.48942
4752.42844,0.49012
4750.49969,0.49031
4748.57095,0.48978
4746.64220,0.48955
4744.71346,0.48993
4742.78471,0.49025
4740.85597,0.49026
4738.92722,0.49020
4736.99847,0.49030
4735.06973,0.49071
4733.14098,0.49105
4731.21224,0.49127
4729.28349,0.49174
4727.35475,0.49215
4725.42600,0.49221
4723.49726,0.49207
4721.56851,0.49195
4719.63977,0.49229
4717.71102,0.49310
4715.78228,0.49371
4713.85353,0.49411
4711.92479,0.49476
4709.99604,0.49527
4708.06729,0.49515
4706.13855,0.49470
4704.20980,0.49448
4702.28106,0.49504
4700.35231,0.49610
4698.42357,0.49674
4696.49482,0.49685
4694.56608,0.49687
4692.63733,0.49707
4690.70859,0.49767
4688.77984,0.49868
4686.85110,0.49950
4684.92235,0.49978
4682.99361,0.49956
4681.06486,0.49931
4679.13612,0.49971
4677.20737,0.50070
4675.27862,0.50174
4673.34988,0.50250
4671.42113,0.50302
4669.49239,0.50388
4667.56364,0.50526
4665.63490,0.50653
4663.70615,0.50704
4661.77741,0.50700
4659.84866,0.50723
4657.91992,0.50790
4655.99117,0.50861
4654.06243,0.50934
4652.13368,0.51018
4650.20494,0.51104
4648.27619,0.51220
4646.34745,0.51343
4644.41870,0.51393
4642.48995,0.51411
4640.56121,0.51494
4638.63246,0.51602
4636.70372,0.51663
4634.77497,0.51694
4632.84623,0.51742
4630.91748,0.51859
4628.98874,0.51998
4627.05999,0.52082
4625.13125,0.52161
4623.20250,0.52281
4621.27376,0.52388
4619.34501,0.52455
4617.41627,0.52516
4615.48752,0.52624
4613.55877,0.52779
4611.63003,0.52914
4609.70128,0.53023
4607.77254,0.53136
4605.84379,0.53237
4603.91505,0.53330
4601.98630,0.53435
4600.05756,0.53527
4598.12881,0.53612
4596.20007,0.53702
4594.27132,0.53782
4592.34258,0.53860
4590.41383,0.53939
4588.48509,0.54009
4586.55634,0.54078
4584.62760,0.54150
4582.69885,0.54210
4580.77010,0.54266
4578.84136,0.54336
4576.91261,0.54403
4574.98387,0.54463
4573.05512,0.54529
4571.12638,0.54585
4569.19763,0.54632
4567.26889,0.54680
4565.34014,0.54724
4563.41140,0.54766
4561.48265,0.54824
4559.55391,0.54907
4557.62516,0.55012
4555.69642,0.55077
4553.76767,0.55072
4551.83893,0.55065
4549.91018,0.55086
4547.98143,0.55113
4546.05269,0.55151
4544.12394,0.55212
4542.19520,0.55281
4540.26645,0.55324
4538.33771,0.55343
4536.40896,0.55389
4534.48022,0.55468
4532.55147,0.55533
4530.62273,0.55555
4528.69398,0.55554
4526.76524,0.55575
4524.83649,0.55613
4522.90775,0.55637
4520.97900,0.55653
4519.05025,0.55634
4517.12151,0.55572
4515.19276,0.55527
4513.26402,0.55512
4511.33527,0.55501
4509.40653,0.55491
4507.47778,0.55475
4505.54904,0.55449
4503.62029,0.55412
4501.69155,0.55362
4499.76280,0.55323
4497.83406,0.55297
4495.90531,0.55207
4493.97657,0.55028
4492.04782,0.54860
4490.11908,0.54777
4488.19033,0.54715
4486.26158,0.54589
4484.33284,0.54419
4482.40409,0.54263
4480.47535,0.54138
4478.54660,0.54010
4476.61786,0.53855
4474.68911,0.53670
4472.76037,0.53451
4470.83162,0.53217
4468.90288,0.53002
4466.97413,0.52833
4465.04539,0.52686
4463.11664,0.52516
4461.18790,0.52310
4459.25915,0.52063
4457.33041,0.51788
4455.40166,0.51542
4453.47291,0.51339
4451.54417,0.51141
4449.61542,0.50960
4447.68668,0.50796
4445.75793,0.50591
4443.82919,0.50333
4441.90044,0.50062
4439.97170,0.49785
4438.04295,0.49496
4436.11421,0.49215
4434.18546,0.48987
4432.25672,0.48798
4430.32797,0.48575
4428.39923,0.48295
4426.47048,0.48005
4424.54173,0.47741
4422.61299,0.47511
4420.68424,0.47306
4418.75550,0.47097
4416.82675,0.46880
4414.89801,0.46684
4412.96926,0.46519
4411.04052,0.46350
4409.11177,0.46156
4407.18303,0.45986
4405.25428,0.45874
4403.32554,0.45787
4401.39679,0.45716
4399.46805,0.45685
4397.53930,0.45690
4395.61056,0.45698
4393.68181,0.45694
4391.75306,0.45697
4389.82432,0.45710
4387.89557,0.45738
4385.96683,0.45811
4384.03808,0.45909
4382.10934,0.45990
4380.18059,0.46059
4378.25185,0.46125
4376.32310,0.46200
4374.39436,0.46279
4372.46561,0.46333
4370.53687,0.46393
4368.60812,0.46508
4366.67938,0.46635
4364.75063,0.46710
4362.82189,0.46771
4360.89314,0.46851
4358.96439,0.46891
4357.03565,0.46881
4355.10690,0.46860
4353.17816,0.46845
4351.24941,0.46849
4349.32067,0.46861
4347.39192,0.46816
4345.46318,0.46704
4343.53443,0.46609
4341.60569,0.46584
4339.67694,0.46587
4337.74820,0.46562
4335.81945,0.46503
4333.89071,0.46443
4331.96196,0.46402
4330.03321,0.46356
4328.10447,0.46269
4326.17572,0.46145
4324.24698,0.46013
4322.31823,0.45897
4320.38949,0.45805
4318.46074,0.45716
4316.53200,0.45618
4314.60325,0.45521
4312.67451,0.45436
4310.74576,0.45383
4308.81702,0.45354
4306.88827,0.45294
4304.95953,0.45184
4303.03078,0.45085
4301.10204,0.45028
4299.17329,0.44970
4297.24454,0.44884
4295.31580,0.44788
4293.38705,0.44694
4291.45831,0.44609
4289.52956,0.44556
4287.60082,0.44545
4285.67207,0.44551
4283.74333,0.44538
4281.81458,0.44498
4279.88584,0.44455
4277.95709,0.44424
4276.02835,0.44409
4274.09960,0.44416
4272.17086,0.44450
4270.24211,0.44490
4268.31336,0.44506
4266.38462,0.44516
4264.45587,0.44548
4262.52713,0.44605
4260.59838,0.44663
4258.66964,0.44710
4256.74089,0.44776
4254.81215,0.44853
4252.88340,0.44875
4250.95466,0.44844
4249.02591,0.44833
4247.09717,0.44884
4245.16842,0.44931
4243.23968,0.44918
4241.31093,0.44910
4239.38219,0.44937
4237.45344,0.44943
4235.52469,0.44915
4233.59595,0.44892
4231.66720,0.44911
4229.73846,0.44951
4227.80971,0.44963
4225.88097,0.44962
4223.95222,0.44964
4222.02348,0.44952
4220.09473,0.44916
4218.16599,0.44865
4216.23724,0.44830
4214.30850,0.44839
4212.37975,0.44861
4210.45101,0.44859
4208.52226,0.44860
4206.59352,0.44881
4204.66477,0.44902
4202.73602,0.44927
4200.80728,0.44961
4198.87853,0.44965
4196.94979,0.44944
4195.02104,0.44958
4193.09230,0.44995
4191.16355,0.45009
4189.23481,0.45012
4187.30606,0.45019
4185.37732,0.45045
4183.44857,0.45101
4181.51983,0.45166
4179.59108,0.45223
4177.66234,0.45249
4175.73359,0.45239
4173.80484,0.45252
4171.87610,0.45327
4169.94735,0.45400
4168.01861,0.45416
4166.08986,0.45425
4164.16112,0.45457
4162.23237,0.45461
4160.30363,0.45421
4158.37488,0.45376
4156.44614,0.45349
4154.51739,0.45335
4152.58865,0.45303
4150.65990,0.45229
4148.73116,0.45147
4146.80241,0.45093
4144.87367,0.45048
4142.94492,0.44970
4141.01617,0.44847
4139.08743,0.44722
4137.15868,0.44637
4135.22994,0.44552
4133.30119,0.44426
4131.37245,0.44278
4129.44370,0.44153
4127.51496,0.44053
4125.58621,0.43920
4123.65747,0.43740
4121.72872,0.43579
4119.79998,0.43441
4117.87123,0.43266
4115.94249,0.43070
4114.01374,0.42927
4112.08500,0.42836
4110.15625,0.42732
4108.22750,0.42585
4106.29876,0.42408
4104.37001,0.42226
4102.44127,0.42069
4100.51252,0.41914
4098.58378,0.41726
4096.65503,0.41530
4094.72629,0.41340
4092.79754,0.41141
4090.86880,0.40949
4088.94005,0.40772
4087.01131,0.40605
4085.08256,0.40438
4083.15382,0.40263
4081.22507,0.40090
4079.29632,0.39912
4077.36758,0.39706
4075.43883,0.39484
4073.51009,0.39270
4071.58134,0.39079
4069.65260,0.38896
4067.72385,0.38689
4065.79511,0.38476
4063.86636,0.38311
4061.93762,0.38178
4060.00887,0.38017
4058.08013,0.37819
4056.15138,0.37619
4054.22264,0.37448
4052.29389,0.37296
4050.36515,0.37118
4048.43640,0.36917
4046.50765,0.36749
4044.57891,0.36611
4042.65016,0.36463
4040.72142,0.36311
4038.79267,0.36190
4036.86393,0.36095
4034.93518,0.35989
4033.00644,0.35872
4031.07769,0.35773
4029.14895,0.35688
4027.22020,0.35596
4025.29146,0.35510
4023.36271,0.35445
4021.43397,0.35394
4019.50522,0.35347
4017.57648,0.35296
4015.64773,0.35259
4013.71898,0.35243
4011.79024,0.35218
4009.86149,0.35188
4007.93275,0.35182
4006.00400,0.35201
4004.07526,0.35240
4002.14651,0.35292
4000.21777,0.35322
3998.28902,0.35328
3996.36028,0.35346
3994.43153,0.35386
3992.50279,0.35431
3990.57404,0.35483
3988.64530,0.35541
3986.71655,0.35593
3984.78780,0.35643
3982.85906,0.35692
3980.93031,0.35741
3979.00157,0.35790
3977.07282,0.35835
3975.14408,0.35896
3973.21533,0.35982
3971.28659,0.36060
3969.35784,0.36114
3967.42910,0.36156
3965.50035,0.36212
3963.57161,0.36316
3961.64286,0.36447
3959.71412,0.36547
3957.78537,0.36616
3955.85663,0.36689
3953.92788,0.36774
3951.99913,0.36861
3950.07039,0.36952
3948.14164,0.37035
3946.21290,0.37111
3944.28415,0.37206
3942.35541,0.37311
3940.42666,0.37381
3938.49792,0.37423
3936.56917,0.37490
3934.64043,0.37589
3932.71168,0.37695
3930.78294,0.37813
3928.85419,0.37938
3926.92545,0.38051
3924.99670,0.38157
3923.06795,0.38251
3921.13921,0.38337
3919.21046,0.38425
3917.28172,0.38509
3915.35297,0.38586
3913.42423,0.38656
3911.49548,0.38725
3909.56674,0.38805
3907.63799,0.38879
3905.70925,0.38956
3903.78050,0.39086
3901.85176,0.39227
3899.92301,0.39289
3897.99427,0.39311
3896.06552,0.39362
3894.13678,0.39445
3892.20803,0.39539
3890.27928,0.39632
3888.35054,0.39720
3886.42179,0.39788
3884.49305,0.39827
3882.56430,0.39872
3880.63556,0.39941
3878.70681,0.39998
3876.77807,0.40047
3874.84932,0.40109
3872.92058,0.40167
3870.99183,0.40217
3869.06309,0.40274
3867.13434,0.40360
3865.20560,0.40487
3863.27685,0.40613
3861.34811,0.40694
3859.41936,0.40749
3857.49061,0.40811
3855.56187,0.40906
3853.63312,0.41046
3851.70438,0.41157
3849.77563,0.41203
3847.84689,0.41250
3845.91814,0.41326
3843.98940,0.41403
3842.06065,0.41462
3840.13191,0.41522
3838.20316,0.41598
3836.27442,0.41664
3834.34567,0.41693
3832.41693,0.41688
3830.48818,0.41666
3828.55943,0.41646
3826.63069,0.41640
3824.70194,0.41658
3822.77320,0.41695
3820.84445,0.41714
3818.91571,0.41706
3816.98696,0.41690
3815.05822,0.41629
3813.12947,0.41539
3811.20073,0.41496
3809.27198,0.41508
3807.34324,0.41542
3805.41449,0.41556
3803.48575,0.41560
3801.55700,0.41569
3799.62826,0.41531
3797.69951,0.41458
3795.77076,0.41405
3793.84202,0.41385
3791.91327,0.41373
3789.98453,0.41334
3788.05578,0.41265
3786.12704,0.41194
3784.19829,0.41139
3782.26955,0.41102
3780.34080,0.41084
3778.41206,0.41053
3776.48331,0.40982
3774.55457,0.40904
3772.62582,0.40850
3770.69708,0.40808
3768.76833,0.40745
3766.83959,0.40657
3764.91084,0.40562
3762.98209,0.40471
3761.05335,0.40403
3759.12460,0.40330
3757.19586,0.40233
3755.26711,0.40142
3753.33837,0.40077
3751.40962,0.40015
3749.48088,0.39902
3747.55213,0.39770
3745.62339,0.39658
3743.69464,0.39505
3741.76590,0.39315
3739.83715,0.39150
3737.90841,0.39015
3735.97966,0.38881
3734.05091,0.38707
3732.12217,0.38502
3730.19342,0.38305
3728.26468,0.38128
3726.33593,0.37956
3724.40719,0.37763
3722.47844,0.37528
3720.54970,0.37265
3718.62095,0.37012
3716.69221,0.36782
3714.76346,0.36543
3712.83472,0.36262
3710.90597,0.35932
3708.97723,0.35585
3707.04848,0.35239
3705.11974,0.34891
3703.19099,0.34531
3701.26224,0.34120
3699.33350,0.33683
3697.40475,0.33258
3695.47601,0.32812
3693.54726,0.32339
3691.61852,0.31854
3689.68977,0.31303
3687.76103,0.30649
3685.83228,0.29992
3683.90354,0.29371
3681.97479,0.28732
3680.04605,0.28093
3678.11730,0.27481
3676.18856,0.26771
3674.25981,0.25953
3672.33107,0.25230
3670.40232,0.24504
3668.47357,0.23708
3666.54483,0.22987
3664.61608,0.22307
3662.68734,0.21607
3660.75859,0.20946
3658.82985,0.20357
3656.90110,0.19760
3654.97236,0.19146
3653.04361,0.18628
3651.11487,0.18131
3649.18612,0.17531
3647.25738,0.16941
3645.32863,0.16455
3643.39989,0.16033
3641.47114,0.15663
3639.54239,0.15317
3637.61365,0.14941
3635.68490,0.14552
3633.75616,0.14205
3631.82741,0.13924
3629.89867,0.13641
3627.96992,0.13284
3626.04118,0.12931
3624.11243,0.12649
3622.18369,0.12417
3620.25494,0.12185
3618.32620,0.11921
3616.39745,0.11644
3614.46871,0.11363
3612.53996,0.11077
3610.61122,0.10806
3608.68247,0.10578
3606.75372,0.10402
3604.82498,0.10256
3602.89623,0.10097
3600.96749,0.09884
3599.03874,0.09643
3597.11000,0.09428
3595.18125,0.09223
3593.25251,0.09022
3591.32376,0.08861
3589.39502,0.08717
3587.46627,0.08546
3585.53753,0.08380
3583.60878,0.08253
3581.68004,0.08140
3579.75129,0.08016
3577.82254,0.07892
3575.89380,0.07770
3573.96505,0.07639
3572.03631,0.07502
3570.10756,0.07386
3568.17882,0.07312
3566.25007,0.07253
3564.32133,0.07160
3562.39258,0.07038
3560.46384,0.06916
3558.53509,0.06799
3556.60635,0.06682
3554.67760,0.06588
3552.74886,0.06527
3550.82011,0.06473
3548.89137,0.06423
3546.96262,0.06385
3545.03387,0.06335
3543.10513,0.06253
3541.17638,0.06165
3539.24764,0.06112
3537.31889,0.06085
3535.39015,0.06043
3533.46140,0.05965
3531.53266,0.05873
3529.60391,0.05817
3527.67517,0.05784
3525.74642,0.05710
3523.81768,0.05616
3521.88893,0.05568
3519.96019,0.05560
3518.03144,0.05555
3516.10270,0.05546
3514.17395,0.05521
3512.24520,0.05461
3510.31646,0.05377
3508.38771,0.05297
3506.45897,0.05236
3504.53022,0.05192
3502.60148,0.05167
3500.67273,0.05157
3498.74399,0.05143
3496.81524,0.05108
3494.88650,0.05069
3492.95775,0.05041
3491.02901,0.05016
3489.10026,0.04999
3487.17152,0.04986
3485.24277,0.04963
3483.31402,0.04945
3481.38528,0.04945
3479.45653,0.04946
3477.52779,0.04924
3475.59904,0.04883
3473.67030,0.04842
3471.74155,0.04781
3469.81281,0.04716
3467.88406,0.04691
3465.95532,0.04686
3464.02657,0.04681
3462.09783,0.04700
3460.16908,0.04730
3458.24034,0.04751
3456.31159,0.04762
3454.38285,0.04763
3452.45410,0.04754
3450.52535,0.04735
3448.59661,0.04719
3446.66786,0.04726
3444.73912,0.04756
3442.81037,0.04786
3440.88163,0.04803
3438.95288,0.04811
3437.02414,0.04791
3435.09539,0.04739
3433.16665,0.04710
3431.23790,0.04723
3429.30916,0.04737
3427.38041,0.04729
3425.45167,0.04738
3423.52292,0.04776
3421.59418,0.04793
3419.66543,0.04777
3417.73668,0.04768
3415.80794,0.04775
3413.87919,0.04788
3411.95045,0.04817
3410.02170,0.04853
3408.09296,0.04857
3406.16421,0.04826
3404.23547,0.04808
3402.30672,0.04824
3400.37798,0.04837
3398.44923,0.04823
3396.52049,0.04815
3394.59174,0.04828
3392.66300,0.04841
3390.73425,0.04844
3388.80550,0.04848
3386.87676,0.04856
3384.94801,0.04858
3383.01927,0.04855
3381.09052,0.04869
3379.16178,0.04910
3377.23303,0.04949
3375.30429,0.04948
3373.37554,0.04915
3371.44680,0.04900
3369.51805,0.04927
3367.58931,0.04950
3365.66056,0.04933
3363.73182,0.04926
3361.80307,0.04974
3359.87433,0.05029
3357.94558,0.05054
3356.01683,0.05069
3354.08809,0.05105
3352.15934,0.05156
3350.23060,0.05185
3348.30185,0.05190
3346.37311,0.05207
3344.44436,0.05245
3342.51562,0.05288
3340.58687,0.05314
3338.65813,0.05311
3336.72938,0.05301
3334.80064,0.05317
3332.87189,0.05372
3330.94315,0.05430
3329.01440,0.05451
3327.08566,0.05459
3325.15691,0.05488
3323.22816,0.05521
3321.29942,0.05532
3319.37067,0.05540
3317.44193,0.05579
3315.51318,0.05626
3313.58444,0.05635
3311.65569,0.05626
3309.72695,0.05640
3307.79820,0.05679
3305.86946,0.05722
3303.94071,0.05750
3302.01197,0.05759
3300.08322,0.05747
3298.15448,0.05734
3296.22573,0.05767
3294.29698,0.05833
3292.36824,0.05890
3290.43949,0.05928
3288.51075,0.05948
3286.58200,0.05957
3284.65326,0.05982
3282.72451,0.06030
3280.79577,0.06097
3278.86702,0.06163
3276.93828,0.06172
3275.00953,0.06125
3273.08079,0.06116
3271.15204,0.06187
3269.22330,0.06280
3267.29455,0.06340
3265.36581,0.06383
3263.43706,0.06434
3261.50831,0.06475
3259.57957,0.06485
3257.65082,0.06484
3255.72208,0.06515
3253.79333,0.06574
3251.86459,0.06645
3249.93584,0.06721
3248.00710,0.06775
3246.07835,0.06803
3244.14961,0.06839
3242.22086,0.06887
3240.29212,0.06931
3238.36337,0.06981
3236.43463,0.07051
3234.50588,0.07133
3232.57713,0.07204
3230.64839,0.07242
3228.71964,0.07259
3226.79090,0.07286
3224.86215,0.07347
3222.93341,0.07430
3221.00466,0.07482
3219.07592,0.07496
3217.14717,0.07543
3215.21843,0.07626
3213.28968,0.07682
3211.36094,0.07703
3209.43219,0.07734
3207.50345,0.07794
3205.57470,0.07858
3203.64596,0.07923
3201.71721,0.08006
3199.78846,0.08102
3197.85972,0.08195
3195.93097,0.08252
3194.00223,0.08276
3192.07348,0.08327
3190.14474,0.08419
3188.21599,0.08498
3186.28725,0.08545
3184.35850,0.08602
3182.42976,0.08671
3180.50101,0.08728
3178.57227,0.08786
3176.64352,0.08867
3174.71478,0.08969
3172.78603,0.09074
3170.85729,0.09160
3168.92854,0.09220
3166.99979,0.09266
3165.07105,0.09318
3163.14230,0.09384
3161.21356,0.09454
3159.28481,0.09537
3157.35607,0.09649
3155.42732,0.09777
3153.49858,0.09878
3151.56983,0.09921
3149.64109,0.09929
3147.71234,0.09964
3145.78360,0.10054
3143.85485,0.10172
3141.92611,0.10281
3139.99736,0.10371
3138.06861,0.10453
3136.13987,0.10535
3134.21112,0.10619
3132.28238,0.10698
3130.35363,0.10764
3128.42489,0.10830
3126.49614,0.10910
3124.56740,0.11003
3122.63865,0.11108
3120.70991,0.11206
3118.78116,0.11287
3116.85242,0.11385
3114.92367,0.11486
3112.99493,0.11545
3111.06618,0.11584
3109.13744,0.11659
3107.20869,0.11766
3105.27994,0.11869
3103.35120,0.11952
3101.42245,0.12020
3099.49371,0.12084
3097.56496,0.12148
3095.63622,0.12211
3093.70747,0.12288
3091.77873,0.12382
3089.84998,0.12472
3087.92124,0.12548
3085.99249,0.12625
3084.06375,0.12695
3082.13500,0.12748
3080.20626,0.12807
3078.27751,0.12887
3076.34877,0.12972
3074.42002,0.13043
3072.49127,0.13111
3070.56253,0.13186
3068.63378,0.13260
3066.70504,0.13325
3064.77629,0.13398
3062.84755,0.13489
3060.91880,0.13595
3058.99006,0.13701
3057.06131,0.13788
3055.13257,0.13871
3053.20382,0.13950
3051.27508,0.14012
3049.34633,0.14069
3047.41759,0.14139
3045.48884,0.14214
3043.56009,0.14283
3041.63135,0.14336
3039.70260,0.14374
3037.77386,0.14414
3035.84511,0.14467
3033.91637,0.14517
3031.98762,0.14554
3030.05888,0.14572
3028.13013,0.14576
3026.20139,0.14587
3024.27264,0.14613
3022.34390,0.14625
3020.41515,0.14592
3018.48641,0.14525
3016.55766,0.14459
3014.62892,0.14401
3012.70017,0.14345
3010.77142,0.14275
3008.84268,0.14182
3006.91393,0.14088
3004.98519,0.14012
3003.05644,0.13939
3001.12770,0.13860
2999.19895,0.13787
2997.27021,0.13726
2995.34146,0.13668
2993.41272,0.13604
2991.48397,0.13521
2989.55523,0.13395
2987.62648,0.13225
2985.69774,0.13036
2983.76899,0.12832
2981.84025,0.12598
2979.91150,0.12327
2977.98275,0.12026
2976.05401,0.11716
2974.12526,0.11419
2972.19652,0.11155
2970.26777,0.10917
2968.33903,0.10697
2966.41028,0.10527
2964.48154,0.10406
2962.55279,0.10278
2960.62405,0.10126
2958.69530,0.09995
2956.76656,0.09892
2954.83781,0.09764
2952.90907,0.09604
2950.98032,0.09443
2949.05157,0.09293
2947.12283,0.09155
2945.19408,0.09038
2943.26534,0.08945
2941.33659,0.08864
2939.40785,0.08794
2937.47910,0.08734
2935.55036,0.08688
2933.62161,0.08677
2931.69287,0.08690
2929.76412,0.08680
2927.83538,0.08630
2925.90663,0.08572
2923.97789,0.08549
2922.04914,0.08555
2920.12040,0.08560
2918.19165,0.08553
2916.26290,0.08542
2914.33416,0.08536
2912.40541,0.08541
2910.47667,0.08554
2908.54792,0.08558
2906.61918,0.08557
2904.69043,0.08567
2902.76169,0.08586
2900.83294,0.08595
2898.90420,0.08594
2896.97545,0.08604
2895.04671,0.08640
2893.11796,0.08700
2891.18922,0.08765
2889.26047,0.08830
2887.33172,0.08896
2885.40298,0.08944
2883.47423,0.08974
2881.54549,0.09006
2879.61674,0.09051
2877.68800,0.09107
2875.75925,0.09164
2873.83051,0.09220
2871.90176,0.09282
2869.97302,0.09367
2868.04427,0.09479
2866.11553,0.09599
2864.18678,0.09718
2862.25804,0.09840
2860.32929,0.09947
2858.40055,0.10025
2856.47180,0.10094
2854.54305,0.10184
2852.61431,0.10309
2850.68556,0.10462
2848.75682,0.10632
2846.82807,0.10820
2844.89933,0.11019
2842.97058,0.11211
2841.04184,0.11402
2839.11309,0.11616
2837.18435,0.11856
2835.25560,0.12116
2833.32686,0.12387
2831.39811,0.12640
2829.46937,0.12873
2827.54062,0.13107
2825.61188,0.13360
2823.68313,0.13631
2821.75438,0.13895
2819.82564,0.14132
2817.89689,0.14360
2815.96815,0.14594
2814.03940,0.14809
2812.11066,0.14992
2810.18191,0.15157
2808.25317,0.15316
2806.32442,0.15474
2804.39568,0.15634
2802.46693,0.15790
2800.53819,0.15928
2798.60944,0.16054
2796.68070,0.16187
2794.75195,0.16314
2792.82320,0.16414
2790.89446,0.16497
2788.96571,0.16579
2787.03697,0.16664
2785.10822,0.16745
2783.17948,0.16812
2781.25073,0.16868
2779.32199,0.16917
2777.39324,0.16978
2775.46450,0.17055
2773.53575,0.17114
2771.60701,0.17148
2769.67826,0.17188
2767.74952,0.17234
2765.82077,0.17277
2763.89203,0.17318
2761.96328,0.17353
2760.03453,0.17394
2758.10579,0.17441
2756.17704,0.17476
2754.24830,0.17494
2752.31955,0.17514
2750.39081,0.17547
2748.46206,0.17578
2746.53332,0.17590
2744.60457,0.17591
2742.67583,0.17598
2740.74708,0.17619
2738.81834,0.17656
2736.88959,0.17697
2734.96085,0.17735
2733.03210,0.17775
2731.10336,0.17823
2729.17461,0.17877
2727.24586,0.17934
2725.31712,0.18003
2723.38837,0.18078
2721.45963,0.18142
2719.53088,0.18203
2717.60214,0.18273
2715.67339,0.18350
2713.74465,0.18436
2711.81590,0.18520
2709.88716,0.18608
2707.95841,0.18710
2706.02967,0.18823
2704.10092,0.18939
2702.17218,0.19041
2700.24343,0.19122
2698.31468,0.19201
2696.38594,0.19280
2694.45719,0.19352
2692.52845,0.19435
2690.59970,0.19533
2688.67096,0.19637
2686.74221,0.19736
2684.81347,0.19822
2682.88472,0.19912
2680.95598,0.20004
2679.02723,0.20081
2677.09849,0.20158
2675.16974,0.20244
2673.24100,0.20327
2671.31225,0.20406
2669.38351,0.20473
2667.45476,0.20533
2665.52601,0.20597
2663.59727,0.20652
2661.66852,0.20702
2659.73978,0.20765
2657.81103,0.20837
2655.88229,0.20910
2653.95354,0.20971
2652.02480,0.21013
2650.09605,0.21058
2648.16731,0.21129
2646.23856,0.21219
2644.30982,0.21304
2642.38107,0.21376
2640.45233,0.21447
2638.52358,0.21532
2636.59484,0.21633
2634.66609,0.21729
2632.73734,0.21801
2630.80860,0.21867
2628.87985,0.21945
2626.95111,0.22018
2625.02236,0.22077
2623.09362,0.22136
2621.16487,0.22205
2619.23613,0.22276
2617.30738,0.22338
2615.37864,0.22406
2613.44989,0.22483
2611.52115,0.22556
2609.59240,0.22619
2607.66366,0.22690
2605.73491,0.22773
2603.80616,0.22842
2601.87742,0.22888
2599.94867,0.22932
2598.01993,0.22980
2596.09118,0.23019
2594.16244,0.23054
2592.23369,0.23099
2590.30495,0.23155
2588.37620,0.23211
2586.44746,0.23248
2584.51871,0.23273
2582.58997,0.23313
2580.66122,0.23367
2578.73248,0.23421
2576.80373,0.23467
2574.87499,0.23505
2572.94624,0.23526
2571.01749,0.23536
2569.08875,0.23550
2567.16000,0.23571
2565.23126,0.23598
2563.30251,0.23620
2561.37377,0.23620
2559.44502,0.23614
2557.51628,0.23625
2555.58753,0.23650
2553.65879,0.23661
2551.73004,0.23655
2549.80130,0.23651
2547.87255,0.23654
2545.94381,0.23664
2544.01506,0.23678
2542.08631,0.23698
2540.15757,0.23723
2538.22882,0.23744
2536.30008,0.23776
2534.37133,0.23846
2532.44259,0.23941
2530.51384,0.24035
2528.58510,0.24118
2526.65635,0.24186
2524.72761,0.24242
2522.79886,0.24296
2520.87012,0.24344
2518.94137,0.24389
2517.01263,0.24445
2515.08388,0.24512
2513.15514,0.24585
2511.22639,0.24671
2509.29764,0.24761
2507.36890,0.24844
2505.44015,0.24935
2503.51141,0.25044
2501.58266,0.25161
2499.65392,0.25273
2497.72517,0.25377
2495.79643,0.25475
2493.86768,0.25570
2491.93894,0.25658
2490.01019,0.25734
2488.08145,0.25802
2486.15270,0.25872
2484.22396,0.25956
2482.29521,0.26050
2480.36647,0.26138
2478.43772,0.26223
2476.50897,0.26322
2474.58023,0.26426
2472.65148,0.26506
2470.72274,0.26568
2468.79399,0.26637
2466.86525,0.26707
2464.93650,0.26765
2463.00776,0.26833
2461.07901,0.26913
2459.15027,0.26975
2457.22152,0.27036
2455.29278,0.27133
2453.36403,0.27245
2451.43529,0.27335
2449.50654,0.27419
2447.57779,0.27508
2445.64905,0.27592
2443.72030,0.27674
2441.79156,0.27764
2439.86281,0.27854
2437.93407,0.27940
2436.00532,0.28034
2434.07658,0.28128
2432.14783,0.28216
2430.21909,0.28313
2428.29034,0.28432
2426.36160,0.28565
2424.43285,0.28691
2422.50411,0.28798
2420.57536,0.28894
2418.64662,0.28992
2416.71787,0.29093
2414.78912,0.29187
2412.86038,0.29274
2410.93163,0.29363
2409.00289,0.29450
2407.07414,0.29534
2405.14540,0.29630
2403.21665,0.29738
2401.28791,0.29843
2399.35916,0.29942
2397.43042,0.30045
2395.50167,0.30147
2393.57293,0.30228
2391.64418,0.30293
2389.71544,0.30362
2387.78669,0.30445
2385.85795,0.30541
2383.92920,0.30626
2382.00045,0.30679
2380.07171,0.30722
2378.14296,0.30793
2376.21422,0.30884
2374.28547,0.30976
2372.35673,0.31051
2370.42798,0.31101
2368.49924,0.31161
2366.57049,0.31249
2364.64175,0.31322
2362.71300,0.31363
2360.78426,0.31403
2358.85551,0.31454
2356.92677,0.31500
2354.99802,0.31545
2353.06927,0.31597
2351.14053,0.31641
2349.21178,0.31676
2347.28304,0.31711
2345.35429,0.31750
2343.42555,0.31793
2341.49680,0.31844
2339.56806,0.31892
2337.63931,0.31920
2335.71057,0.31944
2333.78182,0.31963
2331.85308,0.31966
2329.92433,0.31972
2327.99559,0.32007
2326.06684,0.32040
2324.13810,0.32044
2322.20935,0.32050
2320.28060,0.32065
2318.35186,0.32068
2316.42311,0.32069
2314.49437,0.32072
2312.56562,0.32066
2310.63688,0.32041
2308.70813,0.31996
2306.77939,0.31951
2304.85064,0.31924
2302.92190,0.31905
2300.99315,0.31878
2299.06441,0.31846
2297.13566,0.31812
2295.20692,0.31765
2293.27817,0.31714
2291.34943,0.31676
2289.42068,0.31650
2287.49193,0.31634
2285.56319,0.31625
2283.63444,0.31605
2281.70570,0.31562
2279.77695,0.31518
2277.84821,0.31488
2275.91946,0.31451
2273.99072,0.31381
2272.06197,0.31294
2270.13323,0.31209
2268.20448,0.31122
2266.27574,0.31030
2264.34699,0.30948
2262.41825,0.30882
2260.48950,0.30831
2258.56075,0.30783
2256.63201,0.30723
2254.70326,0.30660
2252.77452,0.30606
2250.84577,0.30556
2248.91703,0.30514
2246.98828,0.30483
2245.05954,0.30456
2243.13079,0.30425
2241.20205,0.30385
2239.27330,0.30339
2237.34456,0.30291
2235.41581,0.30244
2233.48707,0.30201
2231.55832,0.30157
2229.62958,0.30117
2227.70083,0.30090
2225.77208,0.30070
2223.84334,0.30045
2221.91459,0.30012
2219.98585,0.29983
2218.05710,0.29966
2216.12836,0.29951
2214.19961,0.29933
2212.27087,0.29901
2210.34212,0.29848
2208.41338,0.29788
2206.48463,0.29728
2204.55589,0.29664
2202.62714,0.29599
2200.69840,0.29532
2198.76965,0.29466
2196.84090,0.29400
2194.91216,0.29318
2192.98341,0.29211
2191.05467,0.29090
2189.12592,0.28970
2187.19718,0.28858
2185.26843,0.28751
2183.33969,0.28626
2181.41094,0.28483
2179.48220,0.28348
2177.55345,0.28227
2175.62471,0.28108
2173.69596,0.27995
2171.76722,0.27892
2169.83847,0.27788
2167.90973,0.27681
2165.98098,0.27583
2164.05223,0.27501
2162.12349,0.27432
2160.19474,0.27362
2158.26600,0.27288
2156.33725,0.27219
2154.40851,0.27150
2152.47976,0.27083
2150.55102,0.27036
2148.62227,0.26994
2146.69353,0.26935
2144.76478,0.26864
2142.83604,0.26810
2140.90729,0.26782
2138.97855,0.26773
2137.04980,0.26767
2135.12106,0.26765
2133.19231,0.26773
2131.26356,0.26779
2129.33482,0.26777
2127.40607,0.26771
2125.47733,0.26773
2123.54858,0.26793
2121.61984,0.26833
2119.69109,0.26881
2117.76235,0.26931
2115.83360,0.26975
2113.90486,0.27003
2111.97611,0.27022
2110.04737,0.27059
2108.11862,0.27118
2106.18988,0.27176
2104.26113,0.27218
2102.33238,0.27247
2100.40364,0.27269
2098.47489,0.27289
2096.54615,0.27313
2094.61740,0.27344
2092.68866,0.27375
2090.75991,0.27394
2088.83117,0.27401
2086.90242,0.27398
2084.97368,0.27394
2083.04493,0.27388
2081.11619,0.27367
2079.18744,0.27333
2077.25870,0.27298
2075.32995,0.27263
2073.40121,0.27230
2071.47246,0.27205
2069.54371,0.27177
2067.61497,0.27126
2065.68622,0.27061
2063.75748,0.27017
2061.82873,0.27000
2059.89999,0.27000
2057.97124,0.27009
2056.04250,0.27015
2054.11375,0.27023
2052.18501,0.27050
2050.25626,0.27086
2048.32752,0.27121
2046.39877,0.27164
2044.47003,0.27222
2042.54128,0.27294
2040.61254,0.27372
2038.68379,0.27448
2036.75504,0.27533
2034.82630,0.27639
2032.89755,0.27761
2030.96881,0.27883
2029.04006,0.28004
2027.11132,0.28132
2025.18257,0.28261
2023.25383,0.28383
2021.32508,0.28502
2019.39634,0.28624
2017.46759,0.28745
2015.53885,0.28875
2013.61010,0.29014
2011.68136,0.29127
2009.75261,0.29199
2007.82386,0.29265
2005.89512,0.29337
2003.96637,0.29404
2002.03763,0.29476
2000.10888,0.29567
1998.18014,0.29656
1996.25139,0.29722
1994.32265,0.29778
1992.39390,0.29847
1990.46516,0.29935
1988.53641,0.30025
1986.60767,0.30094
1984.67892,0.30156
1982.75018,0.30233
1980.82143,0.30311
1978.89269,0.30367
1976.96394,0.30419
1975.03519,0.30488
1973.10645,0.30567
1971.17770,0.30642
1969.24896,0.30710
1967.32021,0.30777
1965.39147,0.30856
1963.46272,0.30954
1961.53398,0.31051
1959.60523,0.31139
1957.67649,0.31239
1955.74774,0.31352
1953.81900,0.31469
1951.89025,0.31595
1949.96151,0.31724
1948.03276,0.31843
1946.10402,0.31959
1944.17527,0.32074
1942.24652,0.32173
1940.31778,0.32255
1938.38903,0.32349
1936.46029,0.32450
1934.53154,0.32524
1932.60280,0.32578
1930.67405,0.32633
1928.74531,0.32690
1926.81656,0.32744
1924.88782,0.32805
1922.95907,0.32864
1921.03033,0.32899
1919.10158,0.32924
1917.17284,0.32952
1915.24409,0.32964
1913.31534,0.32964
1911.38660,0.32977
1909.45785,0.32997
1907.52911,0.33005
1905.60036,0.33001
1903.67162,0.32994
1901.74287,0.32989
1899.81413,0.32983
1897.88538,0.32975
1895.95664,0.32965
1894.02789,0.32950
1892.09915,0.32940
1890.17040,0.32936
1888.24166,0.32924
1886.31291,0.32908
1884.38417,0.32897
1882.45542,0.32886
1880.52667,0.32876
1878.59793,0.32868
1876.66918,0.32855
1874.74044,0.32836
1872.81169,0.32825
1870.88295,0.32823
1868.95420,0.32815
1867.02546,0.32790
1865.09671,0.32760
1863.16797,0.32731
1861.23922,0.32698
1859.31048,0.32663
1857.38173,0.32628
1855.45299,0.32580
1853.52424,0.32514
1851.59549,0.32444
1849.66675,0.32386
1847.73800,0.32343
1845.80926,0.32298
1843.88051,0.32222
1841.95177,0.32113
1840.02302,0.32019
1838.09428,0.31958
1836.16553,0.31892
1834.23679,0.31805
1832.30804,0.31722
1830.37930,0.31649
1828.45055,0.31557
1826.52181,0.31445
1824.59306,0.31322
1822.66432,0.31190
1820.73557,0.31063
1818.80682,0.30949
1816.87808,0.30837
1814.94933,0.30706
1813.02059,0.30550
1811.09184,0.30375
1809.16310,0.30187
1807.23435,0.29998
1805.30561,0.29810
1803.37686,0.29620
1801.44812,0.29413
1799.51937,0.29174
1797.59063,0.28927
1795.66188,0.28695
1793.73314,0.28449
1791.80439,0.28141
1789.87565,0.27793
1787.94690,0.27436
1786.01815,0.27049
1784.08941,0.26618
1782.16066,0.26144
1780.23192,0.25612
1778.30317,0.25018
1776.37443,0.24391
1774.44568,0.23698
1772.51694,0.22864
1770.58819,0.21932
1768.65945,0.20956
1766.73070,0.19929
1764.80196,0.18945
1762.87321,0.17966
1760.94447,0.16935
1759.01572,0.15976
1757.08697,0.15090
1755.15823,0.14287
1753.22948,0.13620
1751.30074,0.13015
1749.37199,0.12461
1747.44325,0.12032
1745.51450,0.11715
1743.58576,0.11473
1741.65701,0.11307
1739.72827,0.11213
1737.79952,0.11183
1735.87078,0.11212
1733.94203,0.11287
1732.01329,0.11375
1730.08454,0.11473
1728.15580,0.11610
1726.22705,0.11790
1724.29830,0.12018
1722.36956,0.12291
1720.44081,0.12589
1718.51207,0.12934
1716.58332,0.13347
1714.65458,0.13758
1712.72583,0.14125
1710.79709,0.14462
1708.86834,0.14777
1706.93960,0.15064
1705.01085,0.15288
1703.08211,0.15431
1701.15336,0.15512
1699.22462,0.15522
1697.29587,0.15458
1695.36713,0.15313
1693.43838,0.15103
1691.50963,0.14882
1689.58089,0.14656
1687.65214,0.14438
1685.72340,0.14167
1683.79465,0.13733
1681.86591,0.13265
1679.93716,0.12865
1678.00842,0.12485
1676.07967,0.12080
1674.15093,0.11654
1672.22218,0.11283
1670.29344,0.10940
1668.36469,0.10591
1666.43595,0.10320
1664.50720,0.10130
1662.57845,0.09976
1660.64971,0.09870
1658.72096,0.09833
1656.79222,0.09853
1654.86347,0.09922
1652.93473,0.10029
1651.00598,0.10091
1649.07724,0.10125
1647.14849,0.10148
1645.21975,0.10121
1643.29100,0.10076
1641.36226,0.10055
1639.43351,0.10058
1637.50477,0.10067
1635.57602,0.10074
1633.64728,0.10082
1631.71853,0.10109
1629.78978,0.10166
1627.86104,0.10226
1625.93229,0.10246
1624.00355,0.10228
1622.07480,0.10213
1620.14606,0.10223
1618.21731,0.10226
1616.28857,0.10165
1614.35982,0.10056
1612.43108,0.09960
1610.50233,0.09870
1608.57359,0.09769
1606.64484,0.09681
1604.71610,0.09645
1602.78735,0.09670
1600.85861,0.09725
1598.92986,0.09765
1597.00111,0.09774
1595.07237,0.09783
1593.14362,0.09840
1591.21488,0.09966
1589.28613,0.10151
1587.35739,0.10383
1585.42864,0.10680
1583.49990,0.11050
1581.57115,0.11483
1579.64241,0.11966
1577.71366,0.12533
1575.78492,0.13215
1573.85617,0.13843
1571.92743,0.14381
1569.99868,0.14926
1568.06993,0.15420
1566.14119,0.15797
1564.21244,0.16105
1562.28370,0.16367
1560.35495,0.16611
1558.42621,0.16783
1556.49746,0.16808
1554.56872,0.16799
1552.63997,0.16781
1550.71123,0.16734
1548.78248,0.16665
1546.85374,0.16587
1544.92499,0.16498
1542.99625,0.16367
1541.06750,0.16136
1539.13876,0.15741
1537.21001,0.15323
1535.28126,0.14900
1533.35252,0.14330
1531.42377,0.13646
1529.49503,0.12936
1527.56628,0.12144
1525.63754,0.11282
1523.70879,0.10396
1521.78005,0.09373
1519.85130,0.08364
1517.92256,0.07629
1515.99381,0.07109
1514.06507,0.06789
1512.13632,0.06661
1510.20758,0.06653
1508.27883,0.06749
1506.35008,0.06990
1504.42134,0.07309
1502.49259,0.07634
1500.56385,0.07988
1498.63510,0.08360
1496.70636,0.08722
1494.77761,0.09023
1492.84887,0.09238
1490.92012,0.09371
1488.99138,0.09398
1487.06263,0.09323
1485.13389,0.09200
1483.20514,0.09049
1481.27640,0.08860
1479.34765,0.08630
1477.41891,0.08355
1475.49016,0.08046
1473.56141,0.07683
1471.63267,0.07275
1469.70392,0.06948
1467.77518,0.06752
1465.84643,0.06641
1463.91769,0.06582
1461.98894,0.06566
1460.06020,0.06577
1458.13145,0.06568
1456.20271,0.06516
1454.27396,0.06486
1452.34522,0.06496
1450.41647,0.06531
1448.48773,0.06597
1446.55898,0.06674
1444.63024,0.06717
1442.70149,0.06708
1440.77274,0.06646
1438.84400,0.06542
1436.91525,0.06399
1434.98651,0.06252
1433.05776,0.06143
1431.12902,0.06062
1429.20027,0.06015
1427.27153,0.06023
1425.34278,0.06081
1423.41404,0.06161
1421.48529,0.06251
1419.55655,0.06369
1417.62780,0.06507
1415.69906,0.06638
1413.77031,0.06756
1411.84156,0.06852
1409.91282,0.06936
1407.98407,0.07015
1406.05533,0.07069
1404.12658,0.07092
1402.19784,0.07099
1400.26909,0.07090
1398.34035,0.07051
1396.41160,0.06982
1394.48286,0.06878
1392.55411,0.06756
1390.62537,0.06629
1388.69662,0.06480
1386.76788,0.06309
1384.83913,0.06139
1382.91039,0.05987
1380.98164,0.05865
1379.05289,0.05783
1377.12415,0.05740
1375.19540,0.05733
1373.26666,0.05759
1371.33791,0.05807
1369.40917,0.05866
1367.48042,0.05930
1365.55168,0.06005
1363.62293,0.06096
1361.69419,0.06182
1359.76544,0.06255
1357.83670,0.06315
1355.90795,0.06353
1353.97921,0.06382
1352.05046,0.06420
1350.12172,0.06447
1348.19297,0.06438
1346.26422,0.06402
1344.33548,0.06343
1342.40673,0.06275
1340.47799,0.06220
1338.54924,0.06182
1336.62050,0.06159
1334.69175,0.06149
1332.76301,0.06135
1330.83426,0.06113
1328.90552,0.06093
1326.97677,0.06080
1325.04803,0.06057
1323.11928,0.06022
1321.19054,0.05996
1319.26179,0.06004
1317.33304,0.06051
1315.40430,0.06109
1313.47555,0.06153
1311.54681,0.06199
1309.61806,0.06266
1307.68932,0.06330
1305.76057,0.06361
1303.83183,0.06365
1301.90308,0.06367
1299.97434,0.06366
1298.04559,0.06333
1296.11685,0.06258
1294.18810,0.06158
1292.25936,0.06055
1290.33061,0.05940
1288.40187,0.05798
1286.47312,0.05652
1284.54437,0.05532
1282.61563,0.05441
1280.68688,0.05367
1278.75814,0.05306
1276.82939,0.05258
1274.90065,0.05215
1272.97190,0.05186
1271.04316,0.05181
1269.11441,0.05193
1267.18567,0.05216
1265.25692,0.05254
1263.32818,0.05305
1261.39943,0.05361
1259.47069,0.05421
1257.54194,0.05498
1255.61320,0.05575
1253.68445,0.05624
1251.75570,0.05647
1249.82696,0.05667
1247.89821,0.05690
1245.96947,0.05706
1244.04072,0.05699
1242.11198,0.05670
1240.18323,0.05645
1238.25449,0.05649
1236.32574,0.05666
1234.39700,0.05663
1232.46825,0.05650
1230.53951,0.05649
1228.61076,0.05656
1226.68202,0.05665
1224.75327,0.05678
1222.82452,0.05693
1220.89578,0.05706
1218.96703,0.05720
1217.03829,0.05747
1215.10954,0.05767
1213.18080,0.05757
1211.25205,0.05736
1209.32331,0.05746
1207.39456,0.05790
1205.46582,0.05839
1203.53707,0.05879
1201.60833,0.05909
1199.67958,0.05929
1197.75084,0.05936
1195.82209,0.05927
1193.89335,0.05913
1191.96460,0.05894
1190.03585,0.05834
1188.10711,0.05702
1186.17836,0.05519
1184.24962,0.05340
1182.32087,0.05190
1180.39213,0.05037
1178.46338,0.04857
1176.53464,0.04695
1174.60589,0.04580
1172.67715,0.04506
1170.74840,0.04479
1168.81966,0.04513
1166.89091,0.04614
1164.96217,0.04748
1163.03342,0.04846
1161.10467,0.04892
1159.17593,0.04934
1157.24718,0.04987
1155.31844,0.05005
1153.38969,0.04974
1151.46095,0.04914
1149.53220,0.04840
1147.60346,0.04771
1145.67471,0.04707
1143.74597,0.04628
1141.81722,0.04549
1139.88848,0.04483
1137.95973,0.04418
1136.03099,0.04358
1134.10224,0.04309
1132.17350,0.04260
1130.24475,0.04214
1128.31600,0.04190
1126.38726,0.04211
1124.45851,0.04273
1122.52977,0.04310
1120.60102,0.04299
1118.67228,0.04308
1116.74353,0.04373
1114.81479,0.04477
1112.88604,0.04582
1110.95730,0.04666
1109.02855,0.04744
1107.09981,0.04810
1105.17106,0.04839
1103.24232,0.04853
1101.31357,0.04875
1099.38483,0.04888
1097.45608,0.04864
1095.52733,0.04812
1093.59859,0.04775
1091.66984,0.04799
1089.74110,0.04857
1087.81235,0.04894
1085.88361,0.04919
1083.95486,0.04980
1082.02612,0.05083
1080.09737,0.05215
1078.16863,0.05378
1076.23988,0.05546
1074.31114,0.05709
1072.38239,0.05883
1070.45365,0.06058
1068.52490,0.06238
1066.59615,0.06451
1064.66741,0.06692
1062.73866,0.06947
1060.80992,0.07204
1058.88117,0.07431
1056.95243,0.07580
1055.02368,0.07623
1053.09494,0.07573
1051.16619,0.07483
1049.23745,0.07402
1047.30870,0.07345
1045.37996,0.07305
1043.45121,0.07284
1041.52247,0.07321
1039.59372,0.07457
1037.66498,0.07647
1035.73623,0.07832
1033.80748,0.08004
1031.87874,0.08168
1029.94999,0.08294
1028.02125,0.08374
1026.09250,0.08434
1024.16376,0.08482
1022.23501,0.08531
1020.30627,0.08589
1018.37752,0.08637
1016.44878,0.08687
1014.52003,0.08757
1012.59129,0.08810
1010.66254,0.08817
1008.73380,0.08794
1006.80505,0.08789
1004.87631,0.08835
1002.94756,0.08913
1001.01881,0.08995
999.09007,0.09084
997.16132,0.09172
995.23258,0.09247
993.30383,0.09337
991.37509,0.09479
989.44634,0.09672
987.51760,0.09891
985.58885,0.10129
983.66011,0.10403
981.73136,0.10681
979.80262,0.10903
977.87387,0.11047
975.94513,0.11117
974.01638,0.11149
972.08763,0.11198
970.15889,0.11266
968.23014,0.11336
966.30140,0.11417
964.37265,0.11516
962.44391,0.11632
960.51516,0.11762
958.58642,0.11910
956.65767,0.12078
954.72893,0.12241
952.80018,0.12388
950.87144,0.12537
948.94269,0.12662
947.01395,0.12737
945.08520,0.12795
943.15646,0.12864
941.22771,0.12923
939.29896,0.12978
937.37022,0.13045
935.44147,0.13112
933.51273,0.13180
931.58398,0.13246
929.65524,0.13307
927.72649,0.13385
925.79775,0.13457
923.86900,0.13476
921.94026,0.13440
920.01151,0.13361
918.08277,0.13238
916.15402,0.13076
914.22528,0.12889
912.29653,0.12673
910.36779,0.12422
908.43904,0.12153
906.51029,0.11892
904.58155,0.11643
902.65280,0.11414
900.72406,0.11250
898.79531,0.11173
896.86657,0.11176
894.93782,0.11262
893.00908,0.11428
891.08033,0.11631
889.15159,0.11819
887.22284,0.11967
885.29410,0.12073
883.36535,0.12146
881.43661,0.12196
879.50786,0.12227
877.57911,0.12259
875.65037,0.12299
873.72162,0.12310
871.79288,0.12293
869.86413,0.12296
867.93539,0.12327
866.00664,0.12386
864.07790,0.12468
862.14915,0.12536
860.22041,0.12580
858.29166,0.12638
856.36292,0.12730
854.43417,0.12844
852.50543,0.12976
850.57668,0.13119
848.64794,0.13226
846.71919,0.13267
844.79044,0.13264
842.86170,0.13228
840.93295,0.13147
839.00421,0.13044
837.07546,0.12953
835.14672,0.12860
833.21797,0.12754
831.28923,0.12636
829.36048,0.12502
827.43174,0.12364
825.50299,0.12221
823.57425,0.12036
821.64550,0.11827
819.71676,0.11638
817.78801,0.11468
815.85926,0.11310
813.93052,0.11185
812.00177,0.11110
810.07303,0.11078
808.14428,0.11081
806.21554,0.11131
804.28679,0.11212
802.35805,0.11285
800.42930,0.11351
798.50056,0.11413
796.57181,0.11439
794.64307,0.11425
792.71432,0.11400
790.78558,0.11371
788.85683,0.11332
786.92809,0.11289
784.99934,0.11247
783.07059,0.11191
781.14185,0.11110
779.21310,0.11017
777.28436,0.10928
775.35561,0.10847
773.42687,0.10772
771.49812,0.10708
769.56938,0.10664
767.64063,0.10628
765.71189,0.10581
763.78314,0.10524
761.85440,0.10474
759.92565,0.10432
757.99691,0.10402
756.06816,0.10381
754.13942,0.10346
752.21067,0.10291
750.28192,0.10217
748.35318,0.10123
746.42443,0.10035
744.49569,0.09969
742.56694,0.09912
740.63820,0.09853
738.70945,0.09789
736.78071,0.09684
734.85196,0.09550
732.92322,0.09459
730.99447,0.09422
729.06573,0.09387
727.13698,0.09320
725.20824,0.09214
723.27949,0.09102
721.35074,0.09027
719.42200,0.08994
717.49325,0.08972
715.56451,0.08933
713.63576,0.08888
711.70702,0.08861
709.77827,0.08857
707.84953,0.08842
705.92078,0.08777
703.99204,0.08708
702.06329,0.08696
700.13455,0.08710
698.20580,0.08674
696.27706,0.08585
694.34831,0.08497
692.41957,0.08432
690.49082,0.08376
688.56207,0.08313
686.63333,0.08241
684.70458,0.08165
682.77584,0.08101
680.84709,0.08065
678.91835,0.08028
676.98960,0.07957
675.06086,0.07873
673.13211,0.07817
671.20337,0.07819
669.27462,0.07879
667.34588,0.07926
665.41713,0.07896
663.48839,0.07843
661.55964,0.07836
659.63090,0.07872
657.70215,0.07887
655.77340,0.07871
653.84466,0.07884
651.91591,0.07954
649.98717,0.08026
648.05842,0.08037
646.12968,0.07960
644.20093,0.07832
642.27219,0.07730
640.34344,0.07678
638.41470,0.07642
636.48595,0.07593
634.55721,0.07512
632.62846,0.07444
630.69972,0.07462
628.77097,0.07505
626.84222,0.07487
624.91348,0.07446
622.98473,0.07419
621.05599,0.07416
619.12724,0.07456
617.19850,0.07513
615.26975,0.07620
613.34101,0.07762
611.41226,0.07817
609.48352,0.07834
607.55477,0.07874
605.62603,0.07857
603.69728,0.07803
601.76854,0.07786
599.83979,0.07799
