7497.03301,0.85416
7495.10426,0.85143
7493.17552,0.84801
7491.24677,0.84684
7489.31803,0.84721
7487.38928,0.84493
7485.46054,0.84168
7483.53179,0.84324
7481.60305,0.84724
7479.67430,0.85058
7477.74556,0.85226
7475.81681,0.84873
7473.88807,0.84345
7471.95932,0.84225
7470.03057,0.84335
7468.10183,0.84307
7466.17308,0.84014
7464.24434,0.83496
7462.31559,0.82956
7460.38685,0.82788
7458.45810,0.83218
7456.52936,0.83551
7454.60061,0.83023
7452.67187,0.82342
7450.74312,0.82229
7448.81438,0.82222
7446.88563,0.82294
7444.95689,0.82617
7443.02814,0.82700
7441.09940,0.82614
7439.17065,0.82741
7437.24190,0.82808
7435.31316,0.82618
7433.38441,0.82465
7431.45567,0.82552
7429.52692,0.82784
7427.59818,0.82975
7425.66943,0.83015
7423.74069,0.83024
7421.81194,0.82866
7419.88320,0.82255
7417.95445,0.81687
7416.02571,0.81657
7414.09696,0.81849
7412.16822,0.81874
7410.23947,0.81584
7408.31073,0.81205
7406.38198,0.81175
7404.45323,0.81367
7402.52449,0.81257
7400.59574,0.81113
7398.66700,0.81470
7396.73825,0.81705
7394.80951,0.81391
7392.88076,0.81171
7390.95202,0.81129
7389.02327,0.80904
7387.09453,0.80620
7385.16578,0.80508
7383.23704,0.80478
7381.30829,0.80344
7379.37955,0.80435
7377.45080,0.80987
7375.52205,0.81387
7373.59331,0.81212
7371.66456,0.80718
7369.73582,0.80331
7367.80707,0.80411
7365.87833,0.80596
7363.94958,0.80255
7362.02084,0.79833
7360.09209,0.80127
7358.16335,0.80594
7356.23460,0.80427
7354.30586,0.80285
7352.37711,0.80752
7350.44837,0.81286
7348.51962,0.81290
7346.59088,0.80694
7344.66213,0.79992
7342.73338,0.79649
7340.80464,0.79726
7338.87589,0.79865
7336.94715,0.79453
7335.01840,0.78498
7333.08966,0.77753
7331.16091,0.77902
7329.23217,0.78793
7327.30342,0.79373
7325.37468,0.78971
7323.44593,0.78294
7321.51719,0.78125
7319.58844,0.78335
7317.65970,0.78710
7315.73095,0.79254
7313.80221,0.79476
7311.87346,0.78915
7309.94471,0.78299
7308.01597,0.78250
7306.08722,0.78267
7304.15848,0.78321
7302.22973,0.78792
7300.30099,0.79203
7298.37224,0.79057
7296.44350,0.78846
7294.51475,0.78905
7292.58601,0.78772
7290.65726,0.78604
7288.72852,0.78865
7286.79977,0.79023
7284.87103,0.78547
7282.94228,0.78001
7281.01353,0.78065
7279.08479,0.78653
7277.15604,0.79278
7275.22730,0.79401
7273.29855,0.79111
7271.36981,0.79197
7269.44106,0.79579
7267.51232,0.79621
7265.58357,0.79463
7263.65483,0.79323
7261.72608,0.78914
7259.79734,0.78394
7257.86859,0.78476
7255.93985,0.79132
7254.01110,0.79405
7252.08236,0.78836
7250.15361,0.78075
7248.22486,0.77827
7246.29612,0.77941
7244.36737,0.77957
7242.43863,0.77970
7240.50988,0.78321
7238.58114,0.78656
7236.65239,0.78341
7234.72365,0.77653
7232.79490,0.77454
7230.86616,0.77826
7228.93741,0.78156
7227.00867,0.78244
7225.07992,0.78285
7223.15118,0.78355
7221.22243,0.78213
7219.29369,0.77693
7217.36494,0.77269
7215.43619,0.77279
7213.50745,0.77289
7211.57870,0.77045
7209.64996,0.76860
7207.72121,0.77070
7205.79247,0.77567
7203.86372,0.77745
7201.93498,0.77503
7200.00623,0.77368
7198.07749,0.77361
7196.14874,0.77215
7194.22000,0.77057
7192.29125,0.76920
7190.36251,0.76794
7188.43376,0.77057
7186.50501,0.77646
7184.57627,0.77864
7182.64752,0.77570
7180.71878,0.77259
7178.79003,0.77209
7176.86129,0.77383
7174.93254,0.77547
7173.00380,0.77200
7171.07505,0.76525
7169.14631,0.76143
7167.21756,0.75790
7165.28882,0.75410
7163.36007,0.75566
7161.43133,0.75935
7159.50258,0.75864
7157.57384,0.75573
7155.64509,0.75463
7153.71634,0.75333
7151.78760,0.75114
7149.85885,0.75150
7147.93011,0.75279
7146.00136,0.75062
7144.07262,0.74773
7142.14387,0.74831
7140.21513,0.74953
7138.28638,0.74821
7136.35764,0.74566
7134.42889,0.74413
7132.50015,0.74445
7130.57140,0.74653
7128.64266,0.74987
7126.71391,0.74990
7124.78516,0.74352
7122.85642,0.73625
7120.92767,0.73325
7118.99893,0.73383
7117.07018,0.73563
7115.14144,0.73603
7113.21269,0.73440
7111.28395,0.73190
7109.35520,0.72759
7107.42646,0.72118
7105.49771,0.71722
7103.56897,0.71843
7101.64022,0.72013
7099.71148,0.71894
7097.78273,0.71794
7095.85399,0.71745
7093.92524,0.71462
7091.99649,0.71171
7090.06775,0.71183
7088.13900,0.71214
7086.21026,0.70898
7084.28151,0.70540
7082.35277,0.70498
7080.42402,0.70564
7078.49528,0.70571
7076.56653,0.70433
7074.63779,0.70062
7072.70904,0.69661
7070.78030,0.69410
7068.85155,0.69304
7066.92281,0.69286
7064.99406,0.69293
7063.06532,0.69406
7061.13657,0.69505
7059.20782,0.69315
7057.27908,0.69078
7055.35033,0.69073
7053.42159,0.69011
7051.49284,0.68554
7049.56410,0.67842
7047.63535,0.67501
7045.70661,0.67743
7043.77786,0.67869
7041.84912,0.67446
7039.92037,0.66941
7037.99163,0.66906
7036.06288,0.67289
7034.13414,0.67531
7032.20539,0.67217
7030.27664,0.66597
7028.34790,0.66123
7026.41915,0.65886
7024.49041,0.65925
7022.56166,0.66166
7020.63292,0.66141
7018.70417,0.65786
7016.77543,0.65517
7014.84668,0.65307
7012.91794,0.65137
7010.98919,0.65298
7009.06045,0.65556
7007.13170,0.65453
7005.20296,0.65048
7003.27421,0.64614
7001.34547,0.64191
6999.41672,0.63807
6997.48797,0.63686
6995.55923,0.63802
6993.63048,0.63783
6991.70174,0.63513
6989.77299,0.63376
6987.84425,0.63651
6985.91550,0.64177
6983.98676,0.64571
6982.05801,0.64477
6980.12927,0.64201
6978.20052,0.64313
6976.27178,0.64508
6974.34303,0.64352
6972.41429,0.64069
6970.48554,0.63947
6968.55680,0.63950
6966.62805,0.63883
6964.69930,0.63861
6962.77056,0.64125
6960.84181,0.64270
6958.91307,0.63855
6956.98432,0.63315
6955.05558,0.63146
6953.12683,0.63262
6951.19809,0.63362
6949.26934,0.63355
6947.34060,0.63482
6945.41185,0.63684
6943.48311,0.63592
6941.55436,0.63358
6939.62562,0.63378
6937.69687,0.63485
6935.76812,0.63312
6933.83938,0.62974
6931.91063,0.62752
6929.98189,0.62649
6928.05314,0.62562
6926.12440,0.62561
6924.19565,0.62719
6922.26691,0.62849
6920.33816,0.62898
6918.40942,0.62990
6916.48067,0.63143
6914.55193,0.63398
6912.62318,0.63652
6910.69444,0.63637
6908.76569,0.63308
6906.83695,0.62962
6904.90820,0.62806
6902.97945,0.62700
6901.05071,0.62604
6899.12196,0.62583
6897.19322,0.62568
6895.26447,0.62653
6893.33573,0.62947
6891.40698,0.63223
6889.47824,0.63184
6887.54949,0.62869
6885.62075,0.62688
6883.69200,0.62724
6881.76326,0.62621
6879.83451,0.62482
6877.90577,0.62640
6875.97702,0.62971
6874.04828,0.63216
6872.11953,0.63332
6870.19078,0.63421
6868.26204,0.63528
6866.33329,0.63678
6864.40455,0.63791
6862.47580,0.63576
6860.54706,0.63078
6858.61831,0.62696
6856.68957,0.62578
6854.76082,0.62526
6852.83208,0.62324
6850.90333,0.62104
6848.97459,0.62268
6847.04584,0.62731
6845.11710,0.62803
6843.18835,0.62364
6841.25960,0.62127
6839.33086,0.62425
6837.40211,0.62944
6835.47337,0.63364
6833.54462,0.63443
6831.61588,0.63133
6829.68713,0.62726
6827.75839,0.62421
6825.82964,0.62263
6823.90090,0.62372
6821.97215,0.62736
6820.04341,0.63113
6818.11466,0.63257
6816.18592,0.63166
6814.25717,0.62965
6812.32843,0.62667
6810.39968,0.62378
6808.47093,0.62423
6806.54219,0.62764
6804.61344,0.62927
6802.68470,0.62843
6800.75595,0.62855
6798.82721,0.62940
6796.89846,0.62848
6794.96972,0.62764
6793.04097,0.62926
6791.11223,0.63047
6789.18348,0.62930
6787.25474,0.62729
6785.32599,0.62536
6783.39725,0.62374
6781.46850,0.62441
6779.53975,0.62877
6777.61101,0.63226
6775.68226,0.63189
6773.75352,0.63111
6771.82477,0.63055
6769.89603,0.62975
6767.96728,0.63022
6766.03854,0.63073
6764.10979,0.63034
6762.18105,0.63038
6760.25230,0.62964
6758.32356,0.62618
6756.39481,0.62318
6754.46607,0.62486
6752.53732,0.62896
6750.60858,0.63222
6748.67983,0.63600
6746.75108,0.63840
6744.82234,0.63608
6742.89359,0.63172
6740.96485,0.62873
6739.03610,0.62893
6737.10736,0.63253
6735.17861,0.63546
6733.24987,0.63442
6731.32112,0.63259
6729.39238,0.63394
6727.46363,0.63661
6725.53489,0.63675
6723.60614,0.63406
6721.67740,0.63106
6719.74865,0.62880
6717.81991,0.62669
6715.89116,0.62621
6713.96241,0.62840
6712.03367,0.63090
6710.10492,0.63238
6708.17618,0.63326
6706.24743,0.63222
6704.31869,0.63007
6702.38994,0.62988
6700.46120,0.63006
6698.53245,0.62902
6696.60371,0.63022
6694.67496,0.63423
6692.74622,0.63631
6690.81747,0.63500
6688.88873,0.63426
6686.95998,0.63601
6685.03123,0.63762
6683.10249,0.63728
6681.17374,0.63653
6679.24500,0.63725
6677.31625,0.63901
6675.38751,0.63997
6673.45876,0.63951
6671.53002,0.63814
6669.60127,0.63664
6667.67253,0.63649
6665.74378,0.63797
6663.81504,0.63930
6661.88629,0.63914
6659.95755,0.63827
6658.02880,0.63811
6656.10006,0.63847
6654.17131,0.63822
6652.24256,0.63734
6650.31382,0.63789
6648.38507,0.64055
6646.45633,0.64258
6644.52758,0.64289
6642.59884,0.64191
6640.67009,0.63987
6638.74135,0.63914
6636.81260,0.64107
6634.88386,0.64361
6632.95511,0.64545
6631.02637,0.64708
6629.09762,0.64698
6627.16888,0.64458
6625.24013,0.64290
6623.31139,0.64315
6621.38264,0.64358
6619.45389,0.64268
6617.52515,0.64122
6615.59640,0.64124
6613.66766,0.64252
6611.73891,0.64387
6609.81017,0.64593
6607.88142,0.64875
6605.95268,0.65060
6604.02393,0.65129
6602.09519,0.65190
6600.16644,0.65201
6598.23770,0.65029
6596.30895,0.64635
6594.38021,0.64356
6592.45146,0.64530
6590.52271,0.64844
6588.59397,0.65010
6586.66522,0.65196
6584.73648,0.65388
6582.80773,0.65439
6580.87899,0.65389
6578.95024,0.65317
6577.02150,0.65312
6575.09275,0.65404
6573.16401,0.65498
6571.23526,0.65462
6569.30652,0.65265
6567.37777,0.65096
6565.44903,0.65171
6563.52028,0.65392
6561.59154,0.65490
6559.66279,0.65493
6557.73404,0.65517
6555.80530,0.65518
6553.87655,0.65568
6551.94781,0.65588
6550.01906,0.65505
6548.09032,0.65580
6546.16157,0.65776
6544.23283,0.65895
6542.30408,0.65893
6540.37534,0.65731
6538.44659,0.65604
6536.51785,0.65627
6534.58910,0.65584
6532.66036,0.65501
6530.73161,0.65631
6528.80287,0.65815
6526.87412,0.65721
6524.94537,0.65573
6523.01663,0.65652
6521.08788,0.65767
6519.15914,0.65785
6517.23039,0.65790
6515.30165,0.65814
6513.37290,0.65823
6511.44416,0.65863
6509.51541,0.65908
6507.58667,0.65805
6505.65792,0.65609
6503.72918,0.65554
6501.80043,0.65740
6499.87169,0.66016
6497.94294,0.66232
6496.01419,0.66325
6494.08545,0.66165
6492.15670,0.65898
6490.22796,0.65824
6488.29921,0.65914
6486.37047,0.66064
6484.44172,0.66112
6482.51298,0.65861
6480.58423,0.65553
6478.65549,0.65422
6476.72674,0.65407
6474.79800,0.65577
6472.86925,0.65886
6470.94051,0.66045
6469.01176,0.66022
6467.08302,0.66064
6465.15427,0.66306
6463.22552,0.66552
6461.29678,0.66581
6459.36803,0.66444
6457.43929,0.66286
6455.51054,0.66106
6453.58180,0.65885
6451.65305,0.65808
6449.72431,0.65982
6447.79556,0.66252
6445.86682,0.66508
6443.93807,0.66670
6442.00933,0.66589
6440.08058,0.66292
6438.15184,0.66086
6436.22309,0.66155
6434.29434,0.66283
6432.36560,0.66314
6430.43685,0.66428
6428.50811,0.66619
6426.57936,0.66621
6424.65062,0.66386
6422.72187,0.66155
6420.79313,0.66165
6418.86438,0.66352
6416.93564,0.66501
6415.00689,0.66564
6413.07815,0.66564
6411.14940,0.66532
6409.22066,0.66512
6407.29191,0.66525
6405.36317,0.66613
6403.43442,0.66797
6401.50567,0.66884
6399.57693,0.66687
6397.64818,0.66486
6395.71944,0.66551
6393.79069,0.66610
6391.86195,0.66523
6389.93320,0.66571
6388.00446,0.66706
6386.07571,0.66664
6384.14697,0.66546
6382.21822,0.66486
6380.28948,0.66523
6378.36073,0.66690
6376.43199,0.66850
6374.50324,0.66825
6372.57450,0.66633
6370.64575,0.66540
6368.71700,0.66581
6366.78826,0.66485
6364.85951,0.66345
6362.93077,0.66406
6361.00202,0.66514
6359.07328,0.66506
6357.14453,0.66611
6355.21579,0.66897
6353.28704,0.67051
6351.35830,0.67051
6349.42955,0.67056
6347.50081,0.67042
6345.57206,0.67049
6343.64332,0.67037
6341.71457,0.66919
6339.78582,0.66805
6337.85708,0.66818
6335.92833,0.67014
6333.99959,0.67317
6332.07084,0.67460
6330.14210,0.67412
6328.21335,0.67416
6326.28461,0.67447
6324.35586,0.67351
6322.42712,0.67224
6320.49837,0.67192
6318.56963,0.67226
6316.64088,0.67248
6314.71214,0.67293
6312.78339,0.67356
6310.85465,0.67323
6308.92590,0.67246
6306.99715,0.67202
6305.06841,0.67184
6303.13966,0.67248
6301.21092,0.67372
6299.28217,0.67499
6297.35343,0.67577
6295.42468,0.67595
6293.49594,0.67681
6291.56719,0.67841
6289.63845,0.67933
6287.70970,0.67928
6285.78096,0.67891
6283.85221,0.67856
6281.92347,0.67798
6279.99472,0.67732
6278.06598,0.67743
6276.13723,0.67804
6274.20848,0.67800
6272.27974,0.67774
6270.35099,0.67812
6268.42225,0.67845
6266.49350,0.67874
6264.56476,0.67971
6262.63601,0.68081
6260.70727,0.68163
6258.77852,0.68222
6256.84978,0.68279
6254.92103,0.68398
6252.99229,0.68633
6251.06354,0.68943
6249.13480,0.69033
6247.20605,0.68745
6245.27730,0.68408
6243.34856,0.68313
6241.41981,0.68485
6239.49107,0.68757
6237.56232,0.68884
6235.63358,0.68860
6233.70483,0.68867
6231.77609,0.68980
6229.84734,0.69090
6227.91860,0.69075
6225.98985,0.68991
6224.06111,0.69031
6222.13236,0.69195
6220.20362,0.69279
6218.27487,0.69369
6216.34613,0.69580
6214.41738,0.69749
6212.48863,0.69869
6210.55989,0.69946
6208.63114,0.69864
6206.70240,0.69744
6204.77365,0.69777
6202.84491,0.69906
6200.91616,0.70012
6198.98742,0.70055
6197.05867,0.70040
6195.12993,0.70034
6193.20118,0.70103
6191.27244,0.70233
6189.34369,0.70307
6187.41495,0.70278
6185.48620,0.70247
6183.55746,0.70307
6181.62871,0.70400
6179.69996,0.70309
6177.77122,0.70090
6175.84247,0.70126
6173.91373,0.70430
6171.98498,0.70605
6170.05624,0.70527
6168.12749,0.70479
6166.19875,0.70563
6164.27000,0.70599
6162.34126,0.70528
6160.41251,0.70372
6158.48377,0.70229
6156.55502,0.70294
6154.62628,0.70542
6152.69753,0.70879
6150.76878,0.71270
6148.84004,0.71500
6146.91129,0.71426
6144.98255,0.71260
6143.05380,0.71280
6141.12506,0.71409
6139.19631,0.71384
6137.26757,0.71263
6135.33882,0.71258
6133.41008,0.71368
6131.48133,0.71399
6129.55259,0.71274
6127.62384,0.71240
6125.69510,0.71371
6123.76635,0.71418
6121.83761,0.71426
6119.90886,0.71561
6117.98011,0.71573
6116.05137,0.71332
6114.12262,0.71188
6112.19388,0.71338
6110.26513,0.71572
6108.33639,0.71611
6106.40764,0.71497
6104.47890,0.71509
6102.55015,0.71634
6100.62141,0.71720
6098.69266,0.71855
6096.76392,0.72054
6094.83517,0.72117
6092.90643,0.72027
6090.97768,0.71930
6089.04893,0.71842
6087.12019,0.71834
6085.19144,0.71891
6083.26270,0.71825
6081.33395,0.71695
6079.40521,0.71692
6077.47646,0.71811
6075.54772,0.71980
6073.61897,0.72069
6071.69023,0.71908
6069.76148,0.71665
6067.83274,0.71637
6065.90399,0.71718
6063.97525,0.71752
6062.04650,0.71810
6060.11776,0.71917
6058.18901,0.72027
6056.26026,0.72036
6054.33152,0.71830
6052.40277,0.71435
6050.47403,0.71055
6048.54528,0.70984
6046.61654,0.71198
6044.68779,0.71292
6042.75905,0.71133
6040.83030,0.71030
6038.90156,0.71176
6036.97281,0.71388
6035.04407,0.71419
6033.11532,0.71243
6031.18658,0.71000
6029.25783,0.70886
6027.32909,0.70976
6025.40034,0.71061
6023.47159,0.70978
6021.54285,0.70857
6019.61410,0.70804
6017.68536,0.70808
6015.75661,0.70833
6013.82787,0.70790
6011.89912,0.70679
6009.97038,0.70587
6008.04163,0.70577
6006.11289,0.70649
6004.18414,0.70635
6002.25540,0.70451
6000.32665,0.70224
5998.39791,0.70011
5996.46916,0.69890
5994.54041,0.69944
5992.61167,0.69995
5990.68292,0.69965
5988.75418,0.70022
5986.82543,0.70092
5984.89669,0.69997
5982.96794,0.69825
5981.03920,0.69745
5979.11045,0.69817
5977.18171,0.69919
5975.25296,0.69907
5973.32422,0.69879
5971.39547,0.69914
5969.46673,0.69908
5967.53798,0.69867
5965.60924,0.69903
5963.68049,0.69988
5961.75174,0.70035
5959.82300,0.70057
5957.89425,0.70086
5955.96551,0.70174
5954.03676,0.70317
5952.10802,0.70317
5950.17927,0.70160
5948.25053,0.70101
5946.32178,0.70167
5944.39304,0.70215
5942.46429,0.70240
5940.53555,0.70278
5938.60680,0.70264
5936.67806,0.70168
5934.74931,0.70124
5932.82057,0.70183
5930.89182,0.70242
5928.96307,0.70260
5927.03433,0.70319
5925.10558,0.70422
5923.17684,0.70393
5921.24809,0.70220
5919.31935,0.70096
5917.39060,0.70056
5915.46186,0.70009
5913.53311,0.69933
5911.60437,0.69891
5909.67562,0.69881
5907.74688,0.69793
5905.81813,0.69634
5903.88939,0.69559
5901.96064,0.69624
5900.03189,0.69691
5898.10315,0.69666
5896.17440,0.69573
5894.24566,0.69447
5892.31691,0.69409
5890.38817,0.69537
5888.45942,0.69686
5886.53068,0.69653
5884.60193,0.69447
5882.67319,0.69262
5880.74444,0.69245
5878.81570,0.69354
5876.88695,0.69455
5874.95821,0.69458
5873.02946,0.69306
5871.10072,0.69123
5869.17197,0.69158
5867.24322,0.69310
5865.31448,0.69319
5863.38573,0.69252
5861.45699,0.69291
5859.52824,0.69467
5857.59950,0.69684
5855.67075,0.69718
5853.74201,0.69472
5851.81326,0.69194
5849.88452,0.69106
5847.95577,0.69189
5846.02703,0.69362
5844.09828,0.69495
5842.16954,0.69539
5840.24079,0.69527
5838.31205,0.69441
5836.38330,0.69358
5834.45455,0.69350
5832.52581,0.69333
5830.59706,0.69246
5828.66832,0.69103
5826.73957,0.68974
5824.81083,0.68960
5822.88208,0.69058
5820.95334,0.69177
5819.02459,0.69179
5817.09585,0.68986
5815.16710,0.68767
5813.23836,0.68716
5811.30961,0.68760
5809.38087,0.68761
5807.45212,0.68738
5805.52337,0.68752
5803.59463,0.68774
5801.66588,0.68759
5799.73714,0.68719
5797.80839,0.68675
5795.87965,0.68631
5793.95090,0.68578
5792.02216,0.68565
5790.09341,0.68635
5788.16467,0.68715
5786.23592,0.68718
5784.30718,0.68693
5782.37843,0.68753
5780.44969,0.68820
5778.52094,0.68805
5776.59220,0.68836
5774.66345,0.68942
5772.73470,0.69011
5770.80596,0.69005
5768.87721,0.68958
5766.94847,0.68972
5765.01972,0.69112
5763.09098,0.69276
5761.16223,0.69326
5759.23349,0.69242
5757.30474,0.69122
5755.37600,0.69047
5753.44725,0.68986
5751.51851,0.68919
5749.58976,0.68903
5747.66102,0.68947
5745.73227,0.68987
5743.80352,0.69051
5741.87478,0.69169
5739.94603,0.69190
5738.01729,0.69038
5736.08854,0.68894
5734.15980,0.68890
5732.23105,0.68967
5730.30231,0.69061
5728.37356,0.69163
5726.44482,0.69285
5724.51607,0.69405
5722.58733,0.69417
5720.65858,0.69277
5718.72984,0.69122
5716.80109,0.69097
5714.87235,0.69126
5712.94360,0.69119
5711.01485,0.69169
5709.08611,0.69225
5707.15736,0.69115
5705.22862,0.68993
5703.29987,0.69062
5701.37113,0.69175
5699.44238,0.69114
5697.51364,0.68932
5695.58489,0.68851
5693.65615,0.68945
5691.72740,0.69055
5689.79866,0.69004
5687.86991,0.68851
5685.94117,0.68794
5684.01242,0.68816
5682.08368,0.68760
5680.15493,0.68668
5678.22618,0.68669
5676.29744,0.68733
5674.36869,0.68789
5672.43995,0.68831
5670.51120,0.68842
5668.58246,0.68813
5666.65371,0.68750
5664.72497,0.68696
5662.79622,0.68698
5660.86748,0.68710
5658.93873,0.68718
5657.00999,0.68766
5655.08124,0.68805
5653.15250,0.68792
5651.22375,0.68768
5649.29500,0.68744
5647.36626,0.68713
5645.43751,0.68631
5643.50877,0.68481
5641.58002,0.68433
5639.65128,0.68563
5637.72253,0.68636
5635.79379,0.68535
5633.86504,0.68468
5631.93630,0.68540
5630.00755,0.68573
5628.07881,0.68512
5626.15006,0.68495
5624.22132,0.68566
5622.29257,0.68639
5620.36383,0.68635
5618.43508,0.68597
5616.50633,0.68570
5614.57759,0.68541
5612.64884,0.68562
5610.72010,0.68645
5608.79135,0.68691
5606.86261,0.68662
5604.93386,0.68651
5603.00512,0.68654
5601.07637,0.68575
5599.14763,0.68495
5597.21888,0.68513
5595.29014,0.68557
5593.36139,0.68573
5591.43265,0.68607
5589.50390,0.68637
5587.57516,0.68600
5585.64641,0.68580
5583.71766,0.68612
5581.78892,0.68596
5579.86017,0.68541
5577.93143,0.68527
5576.00268,0.68568
5574.07394,0.68610
5572.14519,0.68629
5570.21645,0.68702
5568.28770,0.68845
5566.35896,0.68893
5564.43021,0.68759
5562.50147,0.68625
5560.57272,0.68684
5558.64398,0.68863
5556.71523,0.69001
5554.78648,0.69048
5552.85774,0.69012
5550.92899,0.68931
5549.00025,0.68869
5547.07150,0.68883
5545.14276,0.69002
5543.21401,0.69133
5541.28527,0.69167
5539.35652,0.69143
5537.42778,0.69113
5535.49903,0.69096
5533.57029,0.69150
5531.64154,0.69210
5529.71280,0.69130
5527.78405,0.69019
5525.85531,0.69040
5523.92656,0.69111
5521.99781,0.69166
5520.06907,0.69177
5518.14032,0.69072
5516.21158,0.68981
5514.28283,0.69061
5512.35409,0.69199
5510.42534,0.69279
5508.49660,0.69351
5506.56785,0.69395
5504.63911,0.69341
5502.71036,0.69230
5500.78162,0.69172
5498.85287,0.69208
5496.92413,0.69241
5494.99538,0.69223
5493.06664,0.69241
5491.13789,0.69305
5489.20914,0.69346
5487.28040,0.69347
5485.35165,0.69345
5483.42291,0.69379
5481.49416,0.69424
5479.56542,0.69420
5477.63667,0.69373
5475.70793,0.69325
5473.77918,0.69325
5471.85044,0.69381
5469.92169,0.69426
5467.99295,0.69442
5466.06420,0.69478
5464.13546,0.69538
5462.20671,0.69597
5460.27796,0.69630
5458.34922,0.69644
5456.42047,0.69673
5454.49173,0.69716
5452.56298,0.69742
5450.63424,0.69729
5448.70549,0.69683
5446.77675,0.69669
5444.84800,0.69733
5442.91926,0.69778
5440.99051,0.69738
5439.06177,0.69738
5437.13302,0.69818
5435.20428,0.69891
5433.27553,0.69957
5431.34679,0.70061
5429.41804,0.70172
5427.48929,0.70223
5425.56055,0.70193
5423.63180,0.70132
5421.70306,0.70144
5419.77431,0.70262
5417.84557,0.70409
5415.91682,0.70505
5413.98808,0.70500
5412.05933,0.70424
5410.13059,0.70420
5408.20184,0.70516
5406.27310,0.70539
5404.34435,0.70448
5402.41561,0.70426
5400.48686,0.70547
5398.55811,0.70665
5396.62937,0.70671
5394.70062,0.70674
5392.77188,0.70749
5390.84313,0.70766
5388.91439,0.70693
5386.98564,0.70652
5385.05690,0.70680
5383.12815,0.70727
5381.19941,0.70767
5379.27066,0.70786
5377.34192,0.70807
5375.41317,0.70849
5373.48443,0.70866
5371.55568,0.70833
5369.62694,0.70756
5367.69819,0.70646
5365.76944,0.70569
5363.84070,0.70593
5361.91195,0.70659
5359.98321,0.70672
5358.05446,0.70639
5356.12572,0.70576
5354.19697,0.70500
5352.26823,0.70495
5350.33948,0.70534
5348.41074,0.70473
5346.48199,0.70340
5344.55325,0.70265
5342.62450,0.70221
5340.69576,0.70142
5338.76701,0.70035
5336.83827,0.69951
5334.90952,0.69927
5332.98077,0.69907
5331.05203,0.69816
5329.12328,0.69688
5327.19454,0.69589
5325.26579,0.69485
5323.33705,0.69365
5321.40830,0.69288
5319.47956,0.69175
5317.55081,0.68954
5315.62207,0.68732
5313.69332,0.68578
5311.76458,0.68432
5309.83583,0.68253
5307.90709,0.68041
5305.97834,0.67787
5304.04959,0.67540
5302.12085,0.67375
5300.19210,0.67236
5298.26336,0.67017
5296.33461,0.66736
5294.40587,0.66426
5292.47712,0.66091
5290.54838,0.65837
5288.61963,0.65681
5286.69089,0.65457
5284.76214,0.65147
5282.83340,0.64872
5280.90465,0.64616
5278.97591,0.64252
5277.04716,0.63807
5275.11842,0.63426
5273.18967,0.63114
5271.26092,0.62808
5269.33218,0.62482
5267.40343,0.62110
5265.47469,0.61722
5263.54594,0.61338
5261.61720,0.60959
5259.68845,0.60647
5257.75971,0.60371
5255.83096,0.60012
5253.90222,0.59581
5251.97347,0.59216
5250.04473,0.58927
5248.11598,0.58612
5246.18724,0.58313
5244.25849,0.58111
5242.32975,0.57919
5240.40100,0.57642
5238.47225,0.57326
5236.54351,0.57093
5234.61476,0.56928
5232.68602,0.56716
5230.75727,0.56462
5228.82853,0.56236
5226.89978,0.56064
5224.97104,0.55955
5223.04229,0.55843
5221.11355,0.55676
5219.18480,0.55554
5217.25606,0.55511
5215.32731,0.55412
5213.39857,0.55231
5211.46982,0.55093
5209.54107,0.55011
5207.61233,0.54923
5205.68358,0.54862
5203.75484,0.54857
5201.82609,0.54836
5199.89735,0.54766
5197.96860,0.54722
5196.03986,0.54726
5194.11111,0.54740
5192.18237,0.54768
5190.25362,0.54832
5188.32488,0.54889
5186.39613,0.54895
5184.46739,0.54923
5182.53864,0.54959
5180.60990,0.54878
5178.68115,0.54761
5176.75240,0.54753
5174.82366,0.54819
5172.89491,0.54939
5170.96617,0.55104
5169.03742,0.55206
5167.10868,0.55229
5165.17993,0.55292
5163.25119,0.55438
5161.32244,0.55563
5159.39370,0.55581
5157.46495,0.55592
5155.53621,0.55684
5153.60746,0.55807
5151.67872,0.55914
5149.74997,0.55965
5147.82123,0.55993
5145.89248,0.56112
5143.96373,0.56285
5142.03499,0.56409
5140.10624,0.56521
5138.17750,0.56645
5136.24875,0.56728
5134.32001,0.56793
5132.39126,0.56893
5130.46252,0.56983
5128.53377,0.57051
5126.60503,0.57195
5124.67628,0.57436
5122.74754,0.57625
5120.81879,0.57696
5118.89005,0.57756
5116.96130,0.57826
5115.03255,0.57885
5113.10381,0.57970
5111.17506,0.58065
5109.24632,0.58157
5107.31757,0.58267
5105.38883,0.58378
5103.46008,0.58480
5101.53134,0.58592
5099.60259,0.58721
5097.67385,0.58808
5095.74510,0.58823
5093.81636,0.58853
5091.88761,0.58988
5089.95887,0.59186
5088.03012,0.59339
5086.10138,0.59412
5084.17263,0.59427
5082.24388,0.59436
5080.31514,0.59495
5078.38639,0.59565
5076.45765,0.59624
5074.52890,0.59719
5072.60016,0.59851
5070.67141,0.60005
5068.74267,0.60162
5066.81392,0.60258
5064.88518,0.60279
5062.95643,0.60301
5061.02769,0.60363
5059.09894,0.60440
5057.17020,0.60525
5055.24145,0.60639
5053.31270,0.60775
5051.38396,0.60887
5049.45521,0.60959
5047.52647,0.61029
5045.59772,0.61112
5043.66898,0.61185
5041.74023,0.61204
5039.81149,0.61195
5037.88274,0.61233
5035.95400,0.61325
5034.02525,0.61433
5032.09651,0.61524
5030.16776,0.61571
5028.23902,0.61573
5026.31027,0.61575
5024.38153,0.61646
5022.45278,0.61778
5020.52403,0.61880
5018.59529,0.61909
5016.66654,0.61909
5014.73780,0.61923
5012.80905,0.61942
5010.88031,0.61948
5008.95156,0.61971
5007.02282,0.62008
5005.09407,0.62007
5003.16533,0.61983
5001.23658,0.61987
4999.30784,0.62040
4997.37909,0.62099
4995.45035,0.62096
4993.52160,0.62055
4991.59286,0.62036
4989.66411,0.62014
4987.73536,0.61975
4985.80662,0.61979
4983.87787,0.62009
4981.94913,0.61979
4980.02038,0.61893
4978.09164,0.61789
4976.16289,0.61671
4974.23415,0.61580
4972.30540,0.61525
4970.37666,0.61468
4968.44791,0.61406
4966.51917,0.61340
4964.59042,0.61240
4962.66168,0.61087
4960.73293,0.60913
4958.80418,0.60803
4956.87544,0.60757
4954.94669,0.60678
4953.01795,0.60570
4951.08920,0.60473
4949.16046,0.60344
4947.23171,0.60189
4945.30297,0.60043
4943.37422,0.59882
4941.44548,0.59717
4939.51673,0.59573
4937.58799,0.59412
4935.65924,0.59216
4933.73050,0.59023
4931.80175,0.58824
4929.87301,0.58646
4927.94426,0.58557
4926.01551,0.58488
4924.08677,0.58355
4922.15802,0.58198
4920.22928,0.58016
4918.30053,0.57782
4916.37179,0.57562
4914.44304,0.57380
4912.51430,0.57206
4910.58555,0.57033
4908.65681,0.56858
4906.72806,0.56687
4904.79932,0.56527
4902.87057,0.56357
4900.94183,0.56187
4899.01308,0.56053
4897.08434,0.55901
4895.15559,0.55677
4893.22684,0.55442
4891.29810,0.55263
4889.36935,0.55116
4887.44061,0.54949
4885.51186,0.54799
4883.58312,0.54709
4881.65437,0.54618
4879.72563,0.54473
4877.79688,0.54294
4875.86814,0.54112
4873.93939,0.53960
4872.01065,0.53814
4870.08190,0.53631
4868.15316,0.53474
4866.22441,0.53389
4864.29566,0.53312
4862.36692,0.53186
4860.43817,0.53032
4858.50943,0.52859
4856.58068,0.52666
4854.65194,0.52507
4852.72319,0.52421
4850.79445,0.52355
4848.86570,0.52254
4846.93696,0.52102
4845.00821,0.51917
4843.07947,0.51768
4841.15072,0.51688
4839.22198,0.51615
4837.29323,0.51510
4835.36449,0.51410
4833.43574,0.51328
4831.50699,0.51237
4829.57825,0.51120
4827.64950,0.50972
4825.72076,0.50820
4823.79201,0.50695
4821.86327,0.50595
4819.93452,0.50517
4818.00578,0.50448
4816.07703,0.50374
4814.14829,0.50301
4812.21954,0.50232
4810.29080,0.50182
4808.36205,0.50156
4806.43331,0.50126
4804.50456,0.50081
4802.57582,0.50041
4800.64707,0.50005
4798.71832,0.49955
4796.78958,0.49896
4794.86083,0.49832
4792.93209,0.49794
4791.00334,0.49814
4789.07460,0.49814
4787.14585,0.49741
4785.21711,0.49642
4783.28836,0.49571
4781.35962,0.49554
4779.43087,0.49561
4777.50213,0.49554
4775.57338,0.49558
4773.64464,0.49565
4771.71589,0.49533
4769.78714,0.49484
4767.85840,0.49451
4765.92965,0.49416
4764.00091,0.49402
4762.07216,0.49438
4760.14342,0.49464
4758.21467,0.49442
4756.28593,0.49404
4754.35718,0.49382
4752.42844,0.49410
4750.49969,0.49483
4748.57095,0.49542
4746.64220,0.49555
4744.71346,0.49560
4742.78471,0.49593
4740.85597,0.49605
4738.92722,0.49574
4736.99847,0.49563
4735.06973,0.49597
4733.14098,0.49633
4731.21224,0.49642
4729.28349,0.49643
4727.35475,0.49655
4725.42600,0.49665
4723.49726,0.49688
4721.56851,0.49754
4719.63977,0.49818
4717.71102,0.49841
4715.78228,0.49871
4713.85353,0.49921
4711.92479,0.49947
4709.99604,0.49954
4708.06729,0.49992
4706.13855,0.50059
4704.20980,0.50098
4702.28106,0.50114
4700.35231,0.50157
4698.42357,0.50190
4696.49482,0.50172
4694.56608,0.50162
4692.63733,0.50204
4690.70859,0.50280
4688.77984,0.50362
4686.85110,0.50452
4684.92235,0.50564
4682.99361,0.50643
4681.06486,0.50647
4679.13612,0.50652
4677.20737,0.50687
4675.27862,0.50682
4673.34988,0.50652
4671.42113,0.50690
4669.49239,0.50808
4667.56364,0.50956
4665.63490,0.51089
4663.70615,0.51176
4661.77741,0.51236
4659.84866,0.51311
4657.91992,0.51393
4655.99117,0.51443
4654.06243,0.51470
4652.13368,0.51531
4650.20494,0.51649
4648.27619,0.51776
4646.34745,0.51870
4644.41870,0.51958
4642.48995,0.52030
4640.56121,0.52068
4638.63246,0.52135
4636.70372,0.52258
4634.77497,0.52367
4632.84623,0.52445
4630.91748,0.52524
4628.98874,0.52586
4627.05999,0.52654
4625.13125,0.52777
4623.20250,0.52892
4621.27376,0.52966
4619.34501,0.53039
4617.41627,0.53126
4615.48752,0.53234
4613.55877,0.53373
4611.63003,0.53528
4609.70128,0.53670
4607.77254,0.53785
4605.84379,0.53865
4603.91505,0.53913
4601.98630,0.53980
4600.05756,0.54073
4598.12881,0.54155
4596.20007,0.54224
4594.27132,0.54305
4592.34258,0.54419
4590.41383,0.54536
4588.48509,0.54618
4586.55634,0.54695
4584.62760,0.54799
4582.69885,0.54912
4580.77010,0.55023
4578.84136,0.55103
4576.91261,0.55121
4574.98387,0.55117
4573.05512,0.55140
4571.12638,0.55200
4569.19763,0.55270
4567.26889,0.55312
4565.34014,0.55347
4563.41140,0.55433
4561.48265,0.55567
4559.55391,0.55681
4557.62516,0.55722
4555.69642,0.55713
4553.76767,0.55721
4551.83893,0.55763
4549.91018,0.55802
4547.98143,0.55816
4546.05269,0.55811
4544.12394,0.55836
4542.19520,0.55931
4540.26645,0.56029
4538.33771,0.56053
4536.40896,0.56048
4534.48022,0.56092
4532.55147,0.56170
4530.62273,0.56228
4528.69398,0.56261
4526.76524,0.56265
4524.83649,0.56255
4522.90775,0.56277
4520.97900,0.56302
4519.05025,0.56267
4517.12151,0.56221
4515.19276,0.56247
4513.26402,0.56313
4511.33527,0.56328
4509.40653,0.56242
4507.47778,0.56123
4505.54904,0.56091
4503.62029,0.56108
4501.69155,0.56058
4499.76280,0.55938
4497.83406,0.55814
4495.90531,0.55711
4493.97657,0.55646
4492.04782,0.55603
4490.11908,0.55535
4488.19033,0.55430
4486.26158,0.55299
4484.33284,0.55154
4482.40409,0.55002
4480.47535,0.54833
4478.54660,0.54651
4476.61786,0.54460
4474.68911,0.54230
4472.76037,0.53982
4470.83162,0.53778
4468.90288,0.53605
4466.97413,0.53414
4465.04539,0.53194
4463.11664,0.52966
4461.18790,0.52742
4459.25915,0.52514
4457.33041,0.52293
4455.40166,0.52093
4453.47291,0.51894
4451.54417,0.51671
4449.61542,0.51416
4447.68668,0.51164
4445.75793,0.50944
4443.82919,0.50731
4441.90044,0.50506
4439.97170,0.50285
4438.04295,0.50064
4436.11421,0.49810
4434.18546,0.49529
4432.25672,0.49258
4430.32797,0.48994
4428.39923,0.48723
4426.47048,0.48467
4424.54173,0.48227
4422.61299,0.47977
4420.68424,0.47722
4418.75550,0.47488
4416.82675,0.47280
4414.89801,0.47064
4412.96926,0.46835
4411.04052,0.46643
4409.11177,0.46505
4407.18303,0.46403
4405.25428,0.46337
4403.32554,0.46266
4401.39679,0.46164
4399.46805,0.46063
4397.53930,0.46002
4395.61056,0.46005
4393.68181,0.46039
4391.75306,0.46041
4389.82432,0.46049
4387.89557,0.46126
4385.96683,0.46220
4384.03808,0.46271
4382.10934,0.46320
4380.18059,0.46413
4378.25185,0.46506
4376.32310,0.46564
4374.39436,0.46630
4372.46561,0.46729
4370.53687,0.46828
4368.60812,0.46907
4366.67938,0.46983
4364.75063,0.47053
4362.82189,0.47106
4360.89314,0.47157
4358.96439,0.47199
4357.03565,0.47201
4355.10690,0.47168
4353.17816,0.47159
4351.24941,0.47189
4349.32067,0.47181
4347.39192,0.47118
4345.46318,0.47081
4343.53443,0.47082
4341.60569,0.47061
4339.67694,0.47021
4337.74820,0.46973
4335.81945,0.46882
4333.89071,0.46770
4331.96196,0.46687
4330.03321,0.46633
4328.10447,0.46574
4326.17572,0.46498
4324.24698,0.46428
4322.31823,0.46365
4320.38949,0.46274
4318.46074,0.46151
4316.53200,0.46043
4314.60325,0.45980
4312.67451,0.45923
4310.74576,0.45840
4308.81702,0.45752
4306.88827,0.45666
4304.95953,0.45574
4303.03078,0.45470
4301.10204,0.45372
4299.17329,0.45297
4297.24454,0.45226
4295.31580,0.45144
4293.38705,0.45062
4291.45831,0.44990
4289.52956,0.44937
4287.60082,0.44896
4285.67207,0.44850
4283.74333,0.44806
4281.81458,0.44792
4279.88584,0.44796
4277.95709,0.44790
4276.02835,0.44798
4274.09960,0.44837
4272.17086,0.44884
4270.24211,0.44915
4268.31336,0.44930
4266.38462,0.44964
4264.45587,0.45030
4262.52713,0.45100
4260.59838,0.45158
4258.66964,0.45193
4256.74089,0.45226
4254.81215,0.45287
4252.88340,0.45349
4250.95466,0.45380
4249.02591,0.45384
4247.09717,0.45381
4245.16842,0.45397
4243.23968,0.45427
4241.31093,0.45451
4239.38219,0.45479
4237.45344,0.45515
4235.52469,0.45525
4233.59595,0.45495
4231.66720,0.45477
4229.73846,0.45488
4227.80971,0.45479
4225.88097,0.45462
4223.95222,0.45481
4222.02348,0.45495
4220.09473,0.45476
4218.16599,0.45455
4216.23724,0.45448
4214.30850,0.45440
4212.37975,0.45441
4210.45101,0.45465
4208.52226,0.45484
4206.59352,0.45494
4204.66477,0.45526
4202.73602,0.45563
4200.80728,0.45570
4198.87853,0.45559
4196.94979,0.45570
4195.02104,0.45603
4193.09230,0.45618
4191.16355,0.45604
4189.23481,0.45608
4187.30606,0.45632
4185.37732,0.45641
4183.44857,0.45673
4181.51983,0.45749
4179.59108,0.45808
4177.66234,0.45849
4175.73359,0.45906
4173.80484,0.45971
4171.87610,0.46049
4169.94735,0.46133
4168.01861,0.46182
4166.08986,0.46200
4164.16112,0.46221
4162.23237,0.46235
4160.30363,0.46228
4158.37488,0.46204
4156.44614,0.46171
4154.51739,0.46145
4152.58865,0.46111
4150.65990,0.46046
4148.73116,0.45972
4146.80241,0.45896
4144.87367,0.45826
4142.94492,0.45783
4141.01617,0.45711
4139.08743,0.45580
4137.15868,0.45460
4135.22994,0.45376
4133.30119,0.45283
4131.37245,0.45163
4129.44370,0.45040
4127.51496,0.44931
4125.58621,0.44804
4123.65747,0.44641
4121.72872,0.44478
4119.79998,0.44335
4117.87123,0.44188
4115.94249,0.44021
4114.01374,0.43850
4112.08500,0.43681
4110.15625,0.43511
4108.22750,0.43352
4106.29876,0.43195
4104.37001,0.43028
4102.44127,0.42859
4100.51252,0.42681
4098.58378,0.42488
4096.65503,0.42298
4094.72629,0.42113
4092.79754,0.41922
4090.86880,0.41728
4088.94005,0.41539
4087.01131,0.41361
4085.08256,0.41173
4083.15382,0.40974
4081.22507,0.40785
4079.29632,0.40587
4077.36758,0.40378
4075.43883,0.40194
4073.51009,0.40051
4071.58134,0.39901
4069.65260,0.39683
4067.72385,0.39418
4065.79511,0.39191
4063.86636,0.39044
4061.93762,0.38905
4060.00887,0.38702
4058.08013,0.38471
4056.15138,0.38276
4054.22264,0.38120
4052.29389,0.37966
4050.36515,0.37802
4048.43640,0.37630
4046.50765,0.37451
4044.57891,0.37284
4042.65016,0.37142
4040.72142,0.37008
4038.79267,0.36868
4036.86393,0.36734
4034.93518,0.36622
4033.00644,0.36531
4031.07769,0.36450
4029.14895,0.36348
4027.22020,0.36234
4025.29146,0.36156
4023.36271,0.36100
4021.43397,0.36030
4019.50522,0.35957
4017.57648,0.35911
4015.64773,0.35884
4013.71898,0.35861
4011.79024,0.35847
4009.86149,0.35844
4007.93275,0.35851
4006.00400,0.35866
4004.07526,0.35882
4002.14651,0.35912
4000.21777,0.35977
3998.28902,0.36035
3996.36028,0.36058
3994.43153,0.36081
3992.50279,0.36132
3990.57404,0.36208
3988.64530,0.36300
3986.71655,0.36375
3984.78780,0.36428
3982.85906,0.36479
3980.93031,0.36510
3979.00157,0.36517
3977.07282,0.36561
3975.14408,0.36647
3973.21533,0.36712
3971.28659,0.36741
3969.35784,0.36772
3967.42910,0.36838
3965.50035,0.36942
3963.57161,0.37049
3961.64286,0.37157
3959.71412,0.37269
3957.78537,0.37357
3955.85663,0.37435
3953.92788,0.37525
3951.99913,0.37604
3950.07039,0.37678
3948.14164,0.37764
3946.21290,0.37868
3944.28415,0.37988
3942.35541,0.38111
3940.42666,0.38221
3938.49792,0.38320
3936.56917,0.38416
3934.64043,0.38524
3932.71168,0.38645
3930.78294,0.38751
3928.85419,0.38831
3926.92545,0.38915
3924.99670,0.39032
3923.06795,0.39170
3921.13921,0.39296
3919.21046,0.39397
3917.28172,0.39461
3915.35297,0.39507
3913.42423,0.39570
3911.49548,0.39633
3909.56674,0.39687
3907.63799,0.39777
3905.70925,0.39919
3903.78050,0.40049
3901.85176,0.40124
3899.92301,0.40187
3897.99427,0.40271
3896.06552,0.40357
3894.13678,0.40429
3892.20803,0.40500
3890.27928,0.40585
3888.35054,0.40677
3886.42179,0.40755
3884.49305,0.40813
3882.56430,0.40891
3880.63556,0.40990
3878.70681,0.41052
3876.77807,0.41077
3874.84932,0.41103
3872.92058,0.41151
3870.99183,0.41242
3869.06309,0.41351
3867.13434,0.41430
3865.20560,0.41511
3863.27685,0.41612
3861.34811,0.41706
3859.41936,0.41800
3857.49061,0.41897
3855.56187,0.41983
3853.63312,0.42091
3851.70438,0.42226
3849.77563,0.42315
3847.84689,0.42384
3845.91814,0.42487
3843.98940,0.42600
3842.06065,0.42675
3840.13191,0.42713
3838.20316,0.42728
3836.27442,0.42734
3834.34567,0.42773
3832.41693,0.42846
3830.48818,0.42897
3828.55943,0.42917
3826.63069,0.42942
3824.70194,0.42965
3822.77320,0.42968
3820.84445,0.42980
3818.91571,0.43010
3816.98696,0.43015
3815.05822,0.42990
3813.12947,0.42956
3811.20073,0.42928
3809.27198,0.42927
3807.34324,0.42948
3805.41449,0.42947
3803.48575,0.42920
3801.55700,0.42904
3799.62826,0.42893
3797.69951,0.42857
3795.77076,0.42819
3793.84202,0.42817
3791.91327,0.42838
3789.98453,0.42857
3788.05578,0.42859
3786.12704,0.42835
3784.19829,0.42801
3782.26955,0.42756
3780.34080,0.42696
3778.41206,0.42653
3776.48331,0.42622
3774.55457,0.42577
3772.62582,0.42531
3770.69708,0.42513
3768.76833,0.42493
3766.83959,0.42435
3764.91084,0.42367
3762.98209,0.42311
3761.05335,0.42261
3759.12460,0.42199
3757.19586,0.42126
3755.26711,0.42059
3753.33837,0.41987
3751.40962,0.41876
3749.48088,0.41747
3747.55213,0.41648
3745.62339,0.41535
3743.69464,0.41386
3741.76590,0.41266
3739.83715,0.41178
3737.90841,0.41078
3735.97966,0.40951
3734.05091,0.40811
3732.12217,0.40668
3730.19342,0.40532
3728.26468,0.40392
3726.33593,0.40223
3724.40719,0.40027
3722.47844,0.39829
3720.54970,0.39620
3718.62095,0.39374
3716.69221,0.39111
3714.76346,0.38868
3712.83472,0.38639
3710.90597,0.38391
3708.97723,0.38112
3707.04848,0.37830
3705.11974,0.37556
3703.19099,0.37236
3701.26224,0.36821
3699.33350,0.36384
3697.40475,0.35973
3695.47601,0.35553
3693.54726,0.35138
3691.61852,0.34710
3689.68977,0.34189
3687.76103,0.33587
3685.83228,0.32995
3683.90354,0.32423
3681.97479,0.31831
3680.04605,0.31220
3678.11730,0.30606
3676.18856,0.29921
3674.25981,0.29174
3672.33107,0.28468
3670.40232,0.27705
3668.47357,0.26916
3666.54483,0.26245
3664.61608,0.25604
3662.68734,0.24928
3660.75859,0.24262
3658.82985,0.23636
3656.90110,0.23006
3654.97236,0.22366
3653.04361,0.21799
3651.11487,0.21261
3649.18612,0.20678
3647.25738,0.20111
3645.32863,0.19604
3643.39989,0.19123
3641.47114,0.18639
3639.54239,0.18154
3637.61365,0.17692
3635.68490,0.17275
3633.75616,0.16893
3631.82741,0.16532
3629.89867,0.16151
3627.96992,0.15718
3626.04118,0.15315
3624.11243,0.14975
3622.18369,0.14648
3620.25494,0.14297
3618.32620,0.13961
3616.39745,0.13680
3614.46871,0.13377
3612.53996,0.13030
3610.61122,0.12709
3608.68247,0.12414
3606.75372,0.12107
3604.82498,0.11803
3602.89623,0.11524
3600.96749,0.11262
3599.03874,0.10998
3597.11000,0.10736
3595.18125,0.10496
3593.25251,0.10283
3591.32376,0.10088
3589.39502,0.09875
3587.46627,0.09628
3585.53753,0.09398
3583.60878,0.09225
3581.68004,0.09098
3579.75129,0.08961
3577.82254,0.08780
3575.89380,0.08578
3573.96505,0.08395
3572.03631,0.08250
3570.10756,0.08132
3568.17882,0.08001
3566.25007,0.07849
3564.32133,0.07718
3562.39258,0.07597
3560.46384,0.07464
3558.53509,0.07352
3556.60635,0.07276
3554.67760,0.07193
3552.74886,0.07086
3550.82011,0.06983
3548.89137,0.06899
3546.96262,0.06825
3545.03387,0.06754
3543.10513,0.06676
3541.17638,0.06583
3539.24764,0.06472
3537.31889,0.06367
3535.39015,0.06298
3533.46140,0.06233
3531.53266,0.06163
3529.60391,0.06112
3527.67517,0.06048
3525.74642,0.05969
3523.81768,0.05911
3521.88893,0.05876
3519.96019,0.05847
3518.03144,0.05808
3516.10270,0.05757
3514.17395,0.05704
3512.24520,0.05651
3510.31646,0.05603
3508.38771,0.05554
3506.45897,0.05519
3504.53022,0.05491
3502.60148,0.05451
3500.67273,0.05414
3498.74399,0.05379
3496.81524,0.05341
3494.88650,0.05316
3492.95775,0.05294
3491.02901,0.05257
3489.10026,0.05217
3487.17152,0.05182
3485.24277,0.05138
3483.31402,0.05094
3481.38528,0.05047
3479.45653,0.04993
3477.52779,0.04955
3475.59904,0.04953
3473.67030,0.04981
3471.74155,0.05008
3469.81281,0.05003
3467.88406,0.04966
3465.95532,0.04941
3464.02657,0.04943
3462.09783,0.04948
3460.16908,0.04944
3458.24034,0.04938
3456.31159,0.04916
3454.38285,0.04881
3452.45410,0.04868
3450.52535,0.04870
3448.59661,0.04866
3446.66786,0.04856
3444.73912,0.04830
3442.81037,0.04806
3440.88163,0.04828
3438.95288,0.04883
3437.02414,0.04908
3435.09539,0.04888
3433.16665,0.04861
3431.23790,0.04845
3429.30916,0.04832
3427.38041,0.04832
3425.45167,0.04863
3423.52292,0.04896
3421.59418,0.04897
3419.66543,0.04885
3417.73668,0.04877
3415.80794,0.04873
3413.87919,0.04894
3411.95045,0.04933
3410.02170,0.04938
3408.09296,0.04916
3406.16421,0.04913
3404.23547,0.04924
3402.30672,0.04935
3400.37798,0.04950
3398.44923,0.04950
3396.52049,0.04933
3394.59174,0.04926
3392.66300,0.04920
3390.73425,0.04919
3388.80550,0.04956
3386.87676,0.05016
3384.94801,0.05062
3383.01927,0.05085
3381.09052,0.05082
3379.16178,0.05067
3377.23303,0.05063
3375.30429,0.05055
3373.37554,0.05041
3371.44680,0.05033
3369.51805,0.05028
3367.58931,0.05037
3365.66056,0.05059
3363.73182,0.05071
3361.80307,0.05079
3359.87433,0.05093
3357.94558,0.05106
3356.01683,0.05138
3354.08809,0.05206
3352.15934,0.05276
3350.23060,0.05297
3348.30185,0.05273
3346.37311,0.05260
3344.44436,0.05273
3342.51562,0.05302
3340.58687,0.05326
3338.65813,0.05319
3336.72938,0.05326
3334.80064,0.05396
3332.87189,0.05487
3330.94315,0.05538
3329.01440,0.05558
3327.08566,0.05589
3325.15691,0.05626
3323.22816,0.05647
3321.29942,0.05670
3319.37067,0.05710
3317.44193,0.05761
3315.51318,0.05807
3313.58444,0.05833
3311.65569,0.05845
3309.72695,0.05852
3307.79820,0.05853
3305.86946,0.05855
3303.94071,0.05870
3302.01197,0.05900
3300.08322,0.05930
3298.15448,0.05938
3296.22573,0.05952
3294.29698,0.06017
3292.36824,0.06107
3290.43949,0.06164
3288.51075,0.06181
3286.58200,0.06196
3284.65326,0.06215
3282.72451,0.06227
3280.79577,0.06246
3278.86702,0.06281
3276.93828,0.06313
3275.00953,0.06333
3273.08079,0.06356
3271.15204,0.06399
3269.22330,0.06466
3267.29455,0.06546
3265.36581,0.06616
3263.43706,0.06681
3261.50831,0.06747
3259.57957,0.06783
3257.65082,0.06801
3255.72208,0.06852
3253.79333,0.06934
3251.86459,0.07022
3249.93584,0.07090
3248.00710,0.07127
3246.07835,0.07149
3244.14961,0.07182
3242.22086,0.07248
3240.29212,0.07340
3238.36337,0.07418
3236.43463,0.07470
3234.50588,0.07518
3232.57713,0.07567
3230.64839,0.07629
3228.71964,0.07713
3226.79090,0.07784
3224.86215,0.07818
3222.93341,0.07863
3221.00466,0.07939
3219.07592,0.07999
3217.14717,0.08056
3215.21843,0.08151
3213.28968,0.08230
3211.36094,0.08259
3209.43219,0.08314
3207.50345,0.08432
3205.57470,0.08542
3203.64596,0.08596
3201.71721,0.08621
3199.78846,0.08657
3197.85972,0.08733
3195.93097,0.08835
3194.00223,0.08926
3192.07348,0.09001
3190.14474,0.09075
3188.21599,0.09151
3186.28725,0.09209
3184.35850,0.09246
3182.42976,0.09302
3180.50101,0.09397
3178.57227,0.09523
3176.64352,0.09658
3174.71478,0.09770
3172.78603,0.09861
3170.85729,0.09942
3168.92854,0.10011
3166.99979,0.10076
3165.07105,0.10151
3163.14230,0.10233
3161.21356,0.10319
3159.28481,0.10404
3157.35607,0.10490
3155.42732,0.10580
3153.49858,0.10656
3151.56983,0.10734
3149.64109,0.10838
3147.71234,0.10950
3145.78360,0.11045
3143.85485,0.11130
3141.92611,0.11215
3139.99736,0.11300
3138.06861,0.11396
3136.13987,0.11503
3134.21112,0.11617
3132.28238,0.11729
3130.35363,0.11820
3128.42489,0.11893
3126.49614,0.11967
3124.56740,0.12061
3122.63865,0.12171
3120.70991,0.12276
3118.78116,0.12364
3116.85242,0.12440
3114.92367,0.12509
3112.99493,0.12588
3111.06618,0.12685
3109.13744,0.12789
3107.20869,0.12887
3105.27994,0.12983
3103.35120,0.13087
3101.42245,0.13195
3099.49371,0.13288
3097.56496,0.13362
3095.63622,0.13434
3093.70747,0.13518
3091.77873,0.13608
3089.84998,0.13684
3087.92124,0.13745
3085.99249,0.13812
3084.06375,0.13889
3082.13500,0.13962
3080.20626,0.14030
3078.27751,0.14094
3076.34877,0.14159
3074.42002,0.14234
3072.49127,0.14325
3070.56253,0.14414
3068.63378,0.14487
3066.70504,0.14554
3064.77629,0.14632
3062.84755,0.14728
3060.91880,0.14827
3058.99006,0.14914
3057.06131,0.14994
3055.13257,0.15072
3053.20382,0.15146
3051.27508,0.15211
3049.34633,0.15265
3047.41759,0.15313
3045.48884,0.15370
3043.56009,0.15446
3041.63135,0.15518
3039.70260,0.15560
3037.77386,0.15595
3035.84511,0.15650
3033.91637,0.15700
3031.98762,0.15713
3030.05888,0.15703
3028.13013,0.15707
3026.20139,0.15718
3024.27264,0.15698
3022.34390,0.15661
3020.41515,0.15619
3018.48641,0.15544
3016.55766,0.15444
3014.62892,0.15354
3012.70017,0.15265
3010.77142,0.15160
3008.84268,0.15050
3006.91393,0.14929
3004.98519,0.14790
3003.05644,0.14669
3001.12770,0.14571
2999.19895,0.14475
2997.27021,0.14395
2995.34146,0.14327
2993.41272,0.14236
2991.48397,0.14110
2989.55523,0.13959
2987.62648,0.13785
2985.69774,0.13571
2983.76899,0.13303
2981.84025,0.13003
2979.91150,0.12715
2977.98275,0.12425
2976.05401,0.12119
2974.12526,0.11802
2972.19652,0.11477
2970.26777,0.11181
2968.33903,0.10952
2966.41028,0.10765
2964.48154,0.10594
2962.55279,0.10449
2960.62405,0.10307
2958.69530,0.10137
2956.76656,0.09962
2954.83781,0.09809
2952.90907,0.09673
2950.98032,0.09547
2949.05157,0.09415
2947.12283,0.09268
2945.19408,0.09127
2943.26534,0.09012
2941.33659,0.08922
2939.40785,0.08858
2937.47910,0.08817
2935.55036,0.08790
2933.62161,0.08773
2931.69287,0.08747
2929.76412,0.08710
2927.83538,0.08686
2925.90663,0.08671
2923.97789,0.08636
2922.04914,0.08581
2920.12040,0.08536
2918.19165,0.08512
2916.26290,0.08522
2914.33416,0.08557
2912.40541,0.08589
2910.47667,0.08604
2908.54792,0.08600
2906.61918,0.08584
2904.69043,0.08580
2902.76169,0.08604
2900.83294,0.08636
2898.90420,0.08662
2896.97545,0.08685
2895.04671,0.08711
2893.11796,0.08756
2891.18922,0.08829
2889.26047,0.08906
2887.33172,0.08958
2885.40298,0.08986
2883.47423,0.09005
2881.54549,0.09029
2879.61674,0.09074
2877.68800,0.09147
2875.75925,0.09222
2873.83051,0.09282
2871.90176,0.09340
2869.97302,0.09413
2868.04427,0.09510
2866.11553,0.09625
2864.18678,0.09740
2862.25804,0.09857
2860.32929,0.09983
2858.40055,0.10116
2856.47180,0.10238
2854.54305,0.10343
2852.61431,0.10453
2850.68556,0.10575
2848.75682,0.10725
2846.82807,0.10927
2844.89933,0.11167
2842.97058,0.11404
2841.04184,0.11618
2839.11309,0.11826
2837.18435,0.12053
2835.25560,0.12299
2833.32686,0.12555
2831.39811,0.12818
2829.46937,0.13089
2827.54062,0.13372
2825.61188,0.13660
2823.68313,0.13939
2821.75438,0.14198
2819.82564,0.14429
2817.89689,0.14648
2815.96815,0.14879
2814.03940,0.15117
2812.11066,0.15340
2810.18191,0.15538
2808.25317,0.15715
2806.32442,0.15873
2804.39568,0.16013
2802.46693,0.16157
2800.53819,0.16322
2798.60944,0.16486
2796.68070,0.16617
2794.75195,0.16722
2792.82320,0.16823
2790.89446,0.16925
2788.96571,0.17030
2787.03697,0.17148
2785.10822,0.17271
2783.17948,0.17361
2781.25073,0.17405
2779.32199,0.17440
2777.39324,0.17502
2775.46450,0.17576
2773.53575,0.17633
2771.60701,0.17681
2769.67826,0.17720
2767.74952,0.17741
2765.82077,0.17770
2763.89203,0.17812
2761.96328,0.17834
2760.03453,0.17851
2758.10579,0.17891
2756.17704,0.17942
2754.24830,0.17975
2752.31955,0.17990
2750.39081,0.18015
2748.46206,0.18055
2746.53332,0.18095
2744.60457,0.18119
2742.67583,0.18120
2740.74708,0.18117
2738.81834,0.18140
2736.88959,0.18180
2734.96085,0.18215
2733.03210,0.18232
2731.10336,0.18251
2729.17461,0.18306
2727.24586,0.18390
2725.31712,0.18463
2723.38837,0.18518
2721.45963,0.18578
2719.53088,0.18654
2717.60214,0.18733
2715.67339,0.18807
2713.74465,0.18890
2711.81590,0.18989
2709.88716,0.19093
2707.95841,0.19195
2706.02967,0.19297
2704.10092,0.19407
2702.17218,0.19516
2700.24343,0.19602
2698.31468,0.19672
2696.38594,0.19753
2694.45719,0.19855
2692.52845,0.19965
2690.59970,0.20066
2688.67096,0.20161
2686.74221,0.20255
2684.81347,0.20340
2682.88472,0.20418
2680.95598,0.20502
2679.02723,0.20598
2677.09849,0.20696
2675.16974,0.20771
2673.24100,0.20823
2671.31225,0.20866
2669.38351,0.20903
2667.45476,0.20951
2665.52601,0.21019
2663.59727,0.21093
2661.66852,0.21163
2659.73978,0.21226
2657.81103,0.21285
2655.88229,0.21354
2653.95354,0.21435
2652.02480,0.21511
2650.09605,0.21575
2648.16731,0.21635
2646.23856,0.21691
2644.30982,0.21745
2642.38107,0.21812
2640.45233,0.21900
2638.52358,0.21994
2636.59484,0.22078
2634.66609,0.22151
2632.73734,0.22220
2630.80860,0.22288
2628.87985,0.22356
2626.95111,0.22426
2625.02236,0.22506
2623.09362,0.22596
2621.16487,0.22679
2619.23613,0.22749
2617.30738,0.22811
2615.37864,0.22864
2613.44989,0.22925
2611.52115,0.23011
2609.59240,0.23097
2607.66366,0.23152
2605.73491,0.23192
2603.80616,0.23251
2601.87742,0.23325
2599.94867,0.23390
2598.01993,0.23438
2596.09118,0.23483
2594.16244,0.23537
2592.23369,0.23586
2590.30495,0.23625
2588.37620,0.23674
2586.44746,0.23741
2584.51871,0.23801
2582.58997,0.23837
2580.66122,0.23854
2578.73248,0.23874
2576.80373,0.23908
2574.87499,0.23939
2572.94624,0.23959
2571.01749,0.23982
2569.08875,0.24015
2567.16000,0.24055
2565.23126,0.24087
2563.30251,0.24096
2561.37377,0.24093
2559.44502,0.24099
2557.51628,0.24108
2555.58753,0.24110
2553.65879,0.24119
2551.73004,0.24132
2549.80130,0.24138
2547.87255,0.24152
2545.94381,0.24167
2544.01506,0.24180
2542.08631,0.24212
2540.15757,0.24260
2538.22882,0.24298
2536.30008,0.24325
2534.37133,0.24364
2532.44259,0.24423
2530.51384,0.24496
2528.58510,0.24582
2526.65635,0.24669
2524.72761,0.24730
2522.79886,0.24770
2520.87012,0.24810
2518.94137,0.24866
2517.01263,0.24932
2515.08388,0.24986
2513.15514,0.25039
2511.22639,0.25115
2509.29764,0.25202
2507.36890,0.25292
2505.44015,0.25404
2503.51141,0.25528
2501.58266,0.25641
2499.65392,0.25742
2497.72517,0.25836
2495.79643,0.25926
2493.86768,0.26016
2491.93894,0.26117
2490.01019,0.26226
2488.08145,0.26327
2486.15270,0.26407
2484.22396,0.26478
2482.29521,0.26561
2480.36647,0.26654
2478.43772,0.26743
2476.50897,0.26818
2474.58023,0.26876
2472.65148,0.26935
2470.72274,0.27016
2468.79399,0.27108
2466.86525,0.27200
2464.93650,0.27287
2463.00776,0.27362
2461.07901,0.27428
2459.15027,0.27495
2457.22152,0.27568
2455.29278,0.27652
2453.36403,0.27740
2451.43529,0.27832
2449.50654,0.27932
2447.57779,0.28033
2445.64905,0.28133
2443.72030,0.28235
2441.79156,0.28322
2439.86281,0.28401
2437.93407,0.28494
2436.00532,0.28598
2434.07658,0.28696
2432.14783,0.28791
2430.21909,0.28893
2428.29034,0.28993
2426.36160,0.29091
2424.43285,0.29205
2422.50411,0.29333
2420.57536,0.29452
2418.64662,0.29557
2416.71787,0.29669
2414.78912,0.29782
2412.86038,0.29884
2410.93163,0.29991
2409.00289,0.30110
2407.07414,0.30237
2405.14540,0.30360
2403.21665,0.30459
2401.28791,0.30539
2399.35916,0.30625
2397.43042,0.30707
2395.50167,0.30776
2393.57293,0.30860
2391.64418,0.30964
2389.71544,0.31069
2387.78669,0.31162
2385.85795,0.31242
2383.92920,0.31324
2382.00045,0.31417
2380.07171,0.31513
2378.14296,0.31610
2376.21422,0.31711
2374.28547,0.31813
2372.35673,0.31917
2370.42798,0.32002
2368.49924,0.32053
2366.57049,0.32091
2364.64175,0.32144
2362.71300,0.32213
2360.78426,0.32280
2358.85551,0.32328
2356.92677,0.32366
2354.99802,0.32412
2353.06927,0.32475
2351.14053,0.32545
2349.21178,0.32612
2347.28304,0.32669
2345.35429,0.32722
2343.42555,0.32770
2341.49680,0.32809
2339.56806,0.32855
2337.63931,0.32908
2335.71057,0.32947
2333.78182,0.32976
2331.85308,0.33008
2329.92433,0.33048
2327.99559,0.33086
2326.06684,0.33097
2324.13810,0.33096
2322.20935,0.33116
2320.28060,0.33144
2318.35186,0.33156
2316.42311,0.33154
2314.49437,0.33153
2312.56562,0.33159
2310.63688,0.33159
2308.70813,0.33145
2306.77939,0.33121
2304.85064,0.33089
2302.92190,0.33047
2300.99315,0.33004
2299.06441,0.32971
2297.13566,0.32954
2295.20692,0.32950
2293.27817,0.32946
2291.34943,0.32928
2289.42068,0.32905
2287.49193,0.32881
2285.56319,0.32860
2283.63444,0.32842
2281.70570,0.32821
2279.77695,0.32791
2277.84821,0.32745
2275.91946,0.32682
2273.99072,0.32617
2272.06197,0.32550
2270.13323,0.32469
2268.20448,0.32376
2266.27574,0.32285
2264.34699,0.32216
2262.41825,0.32161
2260.48950,0.32096
2258.56075,0.32028
2256.63201,0.31984
2254.70326,0.31953
2252.77452,0.31911
2250.84577,0.31869
2248.91703,0.31846
2246.98828,0.31826
2245.05954,0.31791
2243.13079,0.31750
2241.20205,0.31705
2239.27330,0.31650
2237.34456,0.31603
2235.41581,0.31573
2233.48707,0.31545
2231.55832,0.31520
2229.62958,0.31505
2227.70083,0.31490
2225.77208,0.31472
2223.84334,0.31454
2221.91459,0.31444
2219.98585,0.31447
2218.05710,0.31448
2216.12836,0.31430
2214.19961,0.31404
2212.27087,0.31376
2210.34212,0.31340
2208.41338,0.31295
2206.48463,0.31241
2204.55589,0.31177
2202.62714,0.31115
2200.69840,0.31061
2198.76965,0.30999
2196.84090,0.30921
2194.91216,0.30828
2192.98341,0.30722
2191.05467,0.30600
2189.12592,0.30469
2187.19718,0.30346
2185.26843,0.30233
2183.33969,0.30113
2181.41094,0.29987
2179.48220,0.29867
2177.55345,0.29756
2175.62471,0.29639
2173.69596,0.29503
2171.76722,0.29365
2169.83847,0.29251
2167.90973,0.29156
2165.98098,0.29058
2164.05223,0.28961
2162.12349,0.28877
2160.19474,0.28802
2158.26600,0.28739
2156.33725,0.28685
2154.40851,0.28624
2152.47976,0.28567
2150.55102,0.28511
2148.62227,0.28448
2146.69353,0.28396
2144.76478,0.28354
2142.83604,0.28314
2140.90729,0.28288
2138.97855,0.28265
2137.04980,0.28235
2135.12106,0.28213
2133.19231,0.28207
2131.26356,0.28209
2129.33482,0.28208
2127.40607,0.28211
2125.47733,0.28236
2123.54858,0.28281
2121.61984,0.28324
2119.69109,0.28356
2117.76235,0.28395
2115.83360,0.28449
2113.90486,0.28502
2111.97611,0.28547
2110.04737,0.28595
2108.11862,0.28653
2106.18988,0.28706
2104.26113,0.28749
2102.33238,0.28785
2100.40364,0.28815
2098.47489,0.28845
2096.54615,0.28882
2094.61740,0.28918
2092.68866,0.28944
2090.75991,0.28955
2088.83117,0.28956
2086.90242,0.28950
2084.97368,0.28942
2083.04493,0.28932
2081.11619,0.28915
2079.18744,0.28878
2077.25870,0.28823
2075.32995,0.28776
2073.40121,0.28738
2071.47246,0.28691
2069.54371,0.28639
2067.61497,0.28589
2065.68622,0.28544
2063.75748,0.28505
2061.82873,0.28472
2059.89999,0.28444
2057.97124,0.28428
2056.04250,0.28429
2054.11375,0.28444
2052.18501,0.28468
2050.25626,0.28497
2048.32752,0.28538
2046.39877,0.28599
2044.47003,0.28664
2042.54128,0.28724
2040.61254,0.28801
2038.68379,0.28907
2036.75504,0.29020
2034.82630,0.29132
2032.89755,0.29243
2030.96881,0.29355
2029.04006,0.29473
2027.11132,0.29592
2025.18257,0.29702
2023.25383,0.29820
2021.32508,0.29955
2019.39634,0.30085
2017.46759,0.30203
2015.53885,0.30323
2013.61010,0.30449
2011.68136,0.30559
2009.75261,0.30642
2007.82386,0.30727
2005.89512,0.30826
2003.96637,0.30909
2002.03763,0.30968
2000.10888,0.31026
1998.18014,0.31105
1996.25139,0.31198
1994.32265,0.31284
1992.39390,0.31354
1990.46516,0.31417
1988.53641,0.31486
1986.60767,0.31565
1984.67892,0.31649
1982.75018,0.31735
1980.82143,0.31807
1978.89269,0.31862
1976.96394,0.31915
1975.03519,0.31976
1973.10645,0.32048
1971.17770,0.32138
1969.24896,0.32228
1967.32021,0.32293
1965.39147,0.32348
1963.46272,0.32421
1961.53398,0.32524
1959.60523,0.32641
1957.67649,0.32746
1955.74774,0.32833
1953.81900,0.32924
1951.89025,0.33033
1949.96151,0.33163
1948.03276,0.33306
1946.10402,0.33437
1944.17527,0.33550
1942.24652,0.33656
1940.31778,0.33742
1938.38903,0.33820
1936.46029,0.33923
1934.53154,0.34035
1932.60280,0.34110
1930.67405,0.34157
1928.74531,0.34211
1926.81656,0.34272
1924.88782,0.34325
1922.95907,0.34371
1921.03033,0.34413
1919.10158,0.34459
1917.17284,0.34500
1915.24409,0.34507
1913.31534,0.34498
1911.38660,0.34507
1909.45785,0.34527
1907.52911,0.34532
1905.60036,0.34521
1903.67162,0.34508
1901.74287,0.34492
1899.81413,0.34463
1897.88538,0.34432
1895.95664,0.34408
1894.02789,0.34392
1892.09915,0.34386
1890.17040,0.34378
1888.24166,0.34358
1886.31291,0.34344
1884.38417,0.34347
1882.45542,0.34350
1880.52667,0.34341
1878.59793,0.34321
1876.66918,0.34302
1874.74044,0.34291
1872.81169,0.34281
1870.88295,0.34268
1868.95420,0.34248
1867.02546,0.34216
1865.09671,0.34180
1863.16797,0.34142
1861.23922,0.34098
1859.31048,0.34048
1857.38173,0.34001
1855.45299,0.33955
1853.52424,0.33903
1851.59549,0.33838
1849.66675,0.33769
1847.73800,0.33709
1845.80926,0.33662
1843.88051,0.33595
1841.95177,0.33488
1840.02302,0.33385
1838.09428,0.33306
1836.16553,0.33227
1834.23679,0.33141
1832.30804,0.33077
1830.37930,0.33015
1828.45055,0.32918
1826.52181,0.32805
1824.59306,0.32689
1822.66432,0.32567
1820.73557,0.32431
1818.80682,0.32270
1816.87808,0.32101
1814.94933,0.31950
1813.02059,0.31811
1811.09184,0.31650
1809.16310,0.31455
1807.23435,0.31250
1805.30561,0.31049
1803.37686,0.30844
1801.44812,0.30621
1799.51937,0.30372
1797.59063,0.30100
1795.66188,0.29822
1793.73314,0.29522
1791.80439,0.29164
1789.87565,0.28774
1787.94690,0.28367
1786.01815,0.27913
1784.08941,0.27411
1782.16066,0.26868
1780.23192,0.26259
1778.30317,0.25581
1776.37443,0.24867
1774.44568,0.24081
1772.51694,0.23132
1770.58819,0.22083
1768.65945,0.21040
1766.73070,0.19994
1764.80196,0.18982
1762.87321,0.17945
1760.94447,0.16859
1759.01572,0.15881
1757.08697,0.14997
1755.15823,0.14202
1753.22948,0.13549
1751.30074,0.12968
1749.37199,0.12452
1747.44325,0.12071
1745.51450,0.11805
1743.58576,0.11614
1741.65701,0.11473
1739.72827,0.11374
1737.79952,0.11344
1735.87078,0.11391
1733.94203,0.11502
1732.01329,0.11641
1730.08454,0.11795
1728.15580,0.11982
1726.22705,0.12207
1724.29830,0.12485
1722.36956,0.12798
1720.44081,0.13122
1718.51207,0.13508
1716.58332,0.13976
1714.65458,0.14441
1712.72583,0.14872
1710.79709,0.15263
1708.86834,0.15602
1706.93960,0.15911
1705.01085,0.16189
1703.08211,0.16399
1701.15336,0.16545
1699.22462,0.16623
1697.29587,0.16611
1695.36713,0.16504
1693.43838,0.16345
1691.50963,0.16175
1689.58089,0.15958
1687.65214,0.15698
1685.72340,0.15382
1683.79465,0.14939
1681.86591,0.14471
1679.93716,0.14057
1678.00842,0.13638
1676.07967,0.13156
1674.15093,0.12647
1672.22218,0.12226
1670.29344,0.11851
1668.36469,0.11487
1666.43595,0.11230
1664.50720,0.11079
1662.57845,0.10982
1660.64971,0.10921
1658.72096,0.10906
1656.79222,0.10943
1654.86347,0.11015
1652.93473,0.11114
1651.00598,0.11209
1649.07724,0.11283
1647.14849,0.11319
1645.21975,0.11295
1643.29100,0.11255
1641.36226,0.11219
1639.43351,0.11199
1637.50477,0.11203
1635.57602,0.11221
1633.64728,0.11238
1631.71853,0.11248
1629.78978,0.11251
1627.86104,0.11245
1625.93229,0.11233
1624.00355,0.11204
1622.07480,0.11151
1620.14606,0.11100
1618.21731,0.11043
1616.28857,0.10916
1614.35982,0.10738
1612.43108,0.10568
1610.50233,0.10393
1608.57359,0.10228
1606.64484,0.10106
1604.71610,0.10043
1602.78735,0.10043
1600.85861,0.10077
1598.92986,0.10108
1597.00111,0.10125
1595.07237,0.10145
1593.14362,0.10201
1591.21488,0.10314
1589.28613,0.10479
1587.35739,0.10703
1585.42864,0.11001
1583.49990,0.11381
1581.57115,0.11841
1579.64241,0.12356
1577.71366,0.12956
1575.78492,0.13692
1573.85617,0.14375
1571.92743,0.14942
1569.99868,0.15524
1568.06993,0.16072
1566.14119,0.16500
1564.21244,0.16855
1562.28370,0.17147
1560.35495,0.17391
1558.42621,0.17576
1556.49746,0.17628
1554.56872,0.17630
1552.63997,0.17626
1550.71123,0.17586
1548.78248,0.17502
1546.85374,0.17398
1544.92499,0.17278
1542.99625,0.17111
1541.06750,0.16847
1539.13876,0.16440
1537.21001,0.16022
1535.28126,0.15571
1533.35252,0.14926
1531.42377,0.14168
1529.49503,0.13423
1527.56628,0.12578
1525.63754,0.11603
1523.70879,0.10608
1521.78005,0.09533
1519.85130,0.08483
1517.92256,0.07701
1515.99381,0.07166
1514.06507,0.06826
1512.13632,0.06648
1510.20758,0.06608
1508.27883,0.06713
1506.35008,0.06972
1504.42134,0.07289
1502.49259,0.07601
1500.56385,0.07945
1498.63510,0.08322
1496.70636,0.08700
1494.77761,0.09028
1492.84887,0.09273
1490.92012,0.09421
1488.99138,0.09444
1487.06263,0.09368
1485.13389,0.09249
1483.20514,0.09097
1481.27640,0.08909
1479.34765,0.08701
1477.41891,0.08464
1475.49016,0.08157
1473.56141,0.07743
1471.63267,0.07290
1469.70392,0.06965
1467.77518,0.06776
1465.84643,0.06648
1463.91769,0.06570
1461.98894,0.06556
1460.06020,0.06572
1458.13145,0.06572
1456.20271,0.06533
1454.27396,0.06492
1452.34522,0.06486
1450.41647,0.06525
1448.48773,0.06602
1446.55898,0.06687
1444.63024,0.06750
1442.70149,0.06763
1440.77274,0.06700
1438.84400,0.06567
1436.91525,0.06393
1434.98651,0.06244
1433.05776,0.06143
1431.12902,0.06063
1429.20027,0.06016
1427.27153,0.06025
1425.34278,0.06080
1423.41404,0.06159
1421.48529,0.06253
1419.55655,0.06371
1417.62780,0.06498
1415.69906,0.06623
1413.77031,0.06754
1411.84156,0.06866
1409.91282,0.06929
1407.98407,0.06974
1406.05533,0.07037
1404.12658,0.07097
1402.19784,0.07116
1400.26909,0.07093
1398.34035,0.07045
1396.41160,0.06974
1394.48286,0.06862
1392.55411,0.06723
1390.62537,0.06593
1388.69662,0.06470
1386.76788,0.06321
1384.83913,0.06144
1382.91039,0.05977
1380.98164,0.05846
1379.05289,0.05769
1377.12415,0.05743
1375.19540,0.05737
1373.26666,0.05744
1371.33791,0.05785
1369.40917,0.05853
1367.48042,0.05936
1365.55168,0.06034
1363.62293,0.06120
1361.69419,0.06171
1359.76544,0.06211
1357.83670,0.06267
1355.90795,0.06333
1353.97921,0.06390
1352.05046,0.06425
1350.12172,0.06442
1348.19297,0.06443
1346.26422,0.06412
1344.33548,0.06340
1342.40673,0.06251
1340.47799,0.06179
1338.54924,0.06139
1336.62050,0.06135
1334.69175,0.06154
1332.76301,0.06166
1330.83426,0.06153
1328.90552,0.06122
1326.97677,0.06081
1325.04803,0.06037
1323.11928,0.06011
1321.19054,0.06010
1319.26179,0.06030
1317.33304,0.06054
1315.40430,0.06083
1313.47555,0.06133
1311.54681,0.06197
1309.61806,0.06263
1307.68932,0.06320
1305.76057,0.06359
1303.83183,0.06379
1301.90308,0.06375
1299.97434,0.06333
1298.04559,0.06267
1296.11685,0.06193
1294.18810,0.06108
1292.25936,0.05999
1290.33061,0.05870
1288.40187,0.05746
1286.47312,0.05632
1284.54437,0.05517
1282.61563,0.05418
1280.68688,0.05350
1278.75814,0.05293
1276.82939,0.05244
1274.90065,0.05210
1272.97190,0.05178
1271.04316,0.05163
1269.11441,0.05183
1267.18567,0.05231
1265.25692,0.05285
1263.32818,0.05344
1261.39943,0.05412
1259.47069,0.05487
1257.54194,0.05555
1255.61320,0.05604
1253.68445,0.05635
1251.75570,0.05658
1249.82696,0.05676
1247.89821,0.05681
1245.96947,0.05686
1244.04072,0.05699
1242.11198,0.05696
1240.18323,0.05680
1238.25449,0.05672
1236.32574,0.05661
1234.39700,0.05644
1232.46825,0.05629
1230.53951,0.05629
1228.61076,0.05647
1226.68202,0.05667
1224.75327,0.05674
1222.82452,0.05681
1220.89578,0.05703
1218.96703,0.05731
1217.03829,0.05746
1215.10954,0.05742
1213.18080,0.05735
1211.25205,0.05738
1209.32331,0.05752
1207.39456,0.05775
1205.46582,0.05813
1203.53707,0.05853
1201.60833,0.05870
1199.67958,0.05878
1197.75084,0.05893
1195.82209,0.05904
1193.89335,0.05894
1191.96460,0.05847
1190.03585,0.05758
1188.10711,0.05649
1186.17836,0.05528
1184.24962,0.05367
1182.32087,0.05163
1180.39213,0.04968
1178.46338,0.04805
1176.53464,0.04669
1174.60589,0.04570
1172.67715,0.04512
1170.74840,0.04498
1168.81966,0.04546
1166.89091,0.04641
1164.96217,0.04739
1163.03342,0.04821
1161.10467,0.04889
1159.17593,0.04940
1157.24718,0.04969
1155.31844,0.04973
1153.38969,0.04945
1151.46095,0.04895
1149.53220,0.04844
1147.60346,0.04796
1145.67471,0.04748
1143.74597,0.04698
1141.81722,0.04633
1139.88848,0.04553
1137.95973,0.04469
1136.03099,0.04384
1134.10224,0.04301
1132.17350,0.04240
1130.24475,0.04208
1128.31600,0.04204
1126.38726,0.04225
1124.45851,0.04267
1122.52977,0.04326
1120.60102,0.04380
1118.67228,0.04414
1116.74353,0.04456
1114.81479,0.04534
1112.88604,0.04629
1110.95730,0.04713
1109.02855,0.04787
1107.09981,0.04849
1105.17106,0.04881
1103.24232,0.04879
1101.31357,0.04875
1099.38483,0.04884
1097.45608,0.04888
1095.52733,0.04868
1093.59859,0.04831
1091.66984,0.04813
1089.74110,0.04842
1087.81235,0.04902
1085.88361,0.04974
1083.95486,0.05063
1082.02612,0.05184
1080.09737,0.05319
1078.16863,0.05448
1076.23988,0.05584
1074.31114,0.05736
1072.38239,0.05907
1070.45365,0.06112
1068.52490,0.06352
1066.59615,0.06599
1064.66741,0.06843
1062.73866,0.07099
1060.80992,0.07348
1058.88117,0.07543
1056.95243,0.07656
1055.02368,0.07682
1053.09494,0.07645
1051.16619,0.07575
1049.23745,0.07497
1047.30870,0.07432
1045.37996,0.07379
1043.45121,0.07350
1041.52247,0.07392
1039.59372,0.07544
1037.66498,0.07779
1035.73623,0.08021
1033.80748,0.08207
1031.87874,0.08326
1029.94999,0.08402
1028.02125,0.08442
1026.09250,0.08464
1024.16376,0.08507
1022.23501,0.08574
1020.30627,0.08633
1018.37752,0.08687
1016.44878,0.08758
1014.52003,0.08833
1012.59129,0.08891
1010.66254,0.08917
1008.73380,0.08908
1006.80505,0.08900
1004.87631,0.08924
1002.94756,0.08982
1001.01881,0.09069
999.09007,0.09161
997.16132,0.09245
995.23258,0.09344
993.30383,0.09467
991.37509,0.09593
989.44634,0.09722
987.51760,0.09900
985.58885,0.10152
983.66011,0.10435
981.73136,0.10692
979.80262,0.10903
977.87387,0.11056
975.94513,0.11150
974.01638,0.11208
972.08763,0.11255
970.15889,0.11306
968.23014,0.11376
966.30140,0.11476
964.37265,0.11599
962.44391,0.11727
960.51516,0.11859
958.58642,0.12026
956.65767,0.12216
954.72893,0.12377
952.80018,0.12516
950.87144,0.12650
948.94269,0.12760
947.01395,0.12854
945.08520,0.12949
943.15646,0.13025
941.22771,0.13088
939.29896,0.13170
937.37022,0.13277
935.44147,0.13390
933.51273,0.13474
931.58398,0.13528
929.65524,0.13595
927.72649,0.13667
925.79775,0.13699
923.86900,0.13712
921.94026,0.13720
920.01151,0.13683
918.08277,0.13583
916.15402,0.13444
914.22528,0.13282
912.29653,0.13087
910.36779,0.12856
908.43904,0.12590
906.51029,0.12285
904.58155,0.11974
902.65280,0.11732
900.72406,0.11595
898.79531,0.11540
896.86657,0.11546
894.93782,0.11638
893.00908,0.11808
891.08033,0.11997
889.15159,0.12169
887.22284,0.12342
885.29410,0.12499
883.36535,0.12591
881.43661,0.12637
879.50786,0.12685
877.57911,0.12713
875.65037,0.12711
873.72162,0.12735
871.79288,0.12795
869.86413,0.12871
867.93539,0.12943
866.00664,0.12987
864.07790,0.13018
862.14915,0.13072
860.22041,0.13147
858.29166,0.13249
856.36292,0.13392
854.43417,0.13552
852.50543,0.13706
850.57668,0.13867
848.64794,0.14024
846.71919,0.14136
844.79044,0.14178
842.86170,0.14166
840.93295,0.14122
839.00421,0.14034
837.07546,0.13903
835.14672,0.13769
833.21797,0.13639
831.28923,0.13501
829.36048,0.13393
827.43174,0.13318
825.50299,0.13199
823.57425,0.12982
821.64550,0.12724
819.71676,0.12497
817.78801,0.12292
815.85926,0.12111
813.93052,0.11976
812.00177,0.11887
810.07303,0.11844
808.14428,0.11857
806.21554,0.11922
804.28679,0.12021
802.35805,0.12134
800.42930,0.12247
798.50056,0.12342
796.57181,0.12410
794.64307,0.12456
792.71432,0.12481
790.78558,0.12486
788.85683,0.12478
786.92809,0.12441
784.99934,0.12358
783.07059,0.12263
781.14185,0.12171
779.21310,0.12057
777.28436,0.11947
775.35561,0.11865
773.42687,0.11778
771.49812,0.11694
769.56938,0.11643
767.64063,0.11616
765.71189,0.11582
763.78314,0.11522
761.85440,0.11448
759.92565,0.11393
757.99691,0.11376
756.06816,0.11383
754.13942,0.11355
752.21067,0.11245
750.28192,0.11096
748.35318,0.10970
746.42443,0.10869
744.49569,0.10778
742.56694,0.10708
740.63820,0.10659
738.70945,0.10602
736.78071,0.10534
734.85196,0.10476
732.92322,0.10414
730.99447,0.10313
729.06573,0.10183
727.13698,0.10077
725.20824,0.10019
723.27949,0.09979
721.35074,0.09923
719.42200,0.09838
717.49325,0.09736
715.56451,0.09633
713.63576,0.09548
711.70702,0.09508
709.77827,0.09493
707.84953,0.09456
705.92078,0.09391
703.99204,0.09330
702.06329,0.09302
700.13455,0.09276
698.20580,0.09205
696.27706,0.09156
694.34831,0.09167
692.41957,0.09137
690.49082,0.09033
688.56207,0.08916
686.63333,0.08815
684.70458,0.08741
682.77584,0.08678
680.84709,0.08575
678.91835,0.08416
676.98960,0.08238
675.06086,0.08138
673.13211,0.08133
671.20337,0.08115
669.27462,0.08070
667.34588,0.08093
665.41713,0.08141
663.48839,0.08149
661.55964,0.08187
659.63090,0.08272
657.70215,0.08350
655.77340,0.08408
653.84466,0.08400
651.91591,0.08319
649.98717,0.08245
648.05842,0.08231
646.12968,0.08252
644.20093,0.08230
642.27219,0.08128
640.34344,0.08004
638.41470,0.07889
636.48595,0.07755
634.55721,0.07628
632.62846,0.07588
630.69972,0.07645
628.77097,0.07735
626.84222,0.07751
624.91348,0.07731
622.98473,0.07789
621.05599,0.07830
619.12724,0.07774
617.19850,0.07733
615.26975,0.07763
613.34101,0.07799
611.41226,0.07795
609.48352,0.07807
607.55477,0.07880
605.62603,0.07984
603.69728,0.08077
601.76854,0.08112
599.83979,0.08088
