7497.03301,0.83232
7495.10426,0.83314
7493.17552,0.84314
7491.24677,0.85001
7489.31803,0.84930
7487.38928,0.84915
7485.46054,0.84993
7483.53179,0.84385
7481.60305,0.83540
7479.67430,0.83719
7477.74556,0.84798
7475.81681,0.85602
7473.88807,0.85839
7471.95932,0.85619
7470.03057,0.84759
7468.10183,0.83990
7466.17308,0.83982
7464.24434,0.84032
7462.31559,0.83665
7460.38685,0.83330
7458.45810,0.83224
7456.52936,0.83198
7454.60061,0.83345
7452.67187,0.83510
7450.74312,0.83120
7448.81438,0.82525
7446.88563,0.82607
7444.95689,0.83022
7443.02814,0.82972
7441.09940,0.82643
7439.17065,0.82461
7437.24190,0.82235
7435.31316,0.81779
7433.38441,0.81459
7431.45567,0.81404
7429.52692,0.81432
7427.59818,0.81715
7425.66943,0.82024
7423.74069,0.81719
7421.81194,0.81223
7419.88320,0.81385
7417.95445,0.81771
7416.02571,0.81775
7414.09696,0.81833
7412.16822,0.82029
7410.23947,0.82047
7408.31073,0.82020
7406.38198,0.81692
7404.45323,0.80957
7402.52449,0.80673
7400.59574,0.81017
7398.66700,0.81283
7396.73825,0.81203
7394.80951,0.80802
7392.88076,0.80228
7390.95202,0.79925
7389.02327,0.80174
7387.09453,0.80721
7385.16578,0.81017
7383.23704,0.80828
7381.30829,0.80553
7379.37955,0.80541
7377.45080,0.80302
7375.52205,0.79508
7373.59331,0.78884
7371.66456,0.78918
7369.73582,0.79275
7367.80707,0.79629
7365.87833,0.79857
7363.94958,0.79801
7362.02084,0.79734
7360.09209,0.80002
7358.16335,0.80009
7356.23460,0.79599
7354.30586,0.79487
7352.37711,0.79610
7350.44837,0.79701
7348.51962,0.79790
7346.59088,0.79677
7344.66213,0.79572
7342.73338,0.79801
7340.80464,0.80016
7338.87589,0.80102
7336.94715,0.80320
7335.01840,0.80394
7333.08966,0.80218
7331.16091,0.80240
7329.23217,0.80404
7327.30342,0.80066
7325.37468,0.79269
7323.44593,0.78806
7321.51719,0.78806
7319.58844,0.78654
7317.65970,0.78282
7315.73095,0.78236
7313.80221,0.78472
7311.87346,0.78564
7309.94471,0.78629
7308.01597,0.78659
7306.08722,0.78468
7304.15848,0.78568
7302.22973,0.79099
7300.30099,0.79263
7298.37224,0.78990
7296.44350,0.79020
7294.51475,0.79259
7292.58601,0.79117
7290.65726,0.78688
7288.72852,0.78262
7286.79977,0.77814
7284.87103,0.77628
7282.94228,0.78052
7281.01353,0.78739
7279.08479,0.79240
7277.15604,0.79293
7275.22730,0.78867
7273.29855,0.78497
7271.36981,0.78496
7269.44106,0.78694
7267.51232,0.78785
7265.58357,0.78459
7263.65483,0.78021
7261.72608,0.77920
7259.79734,0.77976
7257.86859,0.77991
7255.93985,0.78069
7254.01110,0.78201
7252.08236,0.78308
7250.15361,0.78320
7248.22486,0.78222
7246.29612,0.78339
7244.36737,0.78781
7242.43863,0.79097
7240.50988,0.79110
7238.58114,0.78972
7236.65239,0.78666
7234.72365,0.78315
7232.79490,0.78252
7230.86616,0.78485
7228.93741,0.78720
7227.00867,0.78878
7225.07992,0.78828
7223.15118,0.78511
7221.22243,0.78298
7219.29369,0.78140
7217.36494,0.77729
7215.43619,0.77323
7213.50745,0.77062
7211.57870,0.76890
7209.64996,0.77029
7207.72121,0.77317
7205.79247,0.77234
7203.86372,0.77192
7201.93498,0.77883
7200.00623,0.78671
7198.07749,0.78802
7196.14874,0.78623
7194.22000,0.78603
7192.29125,0.78607
7190.36251,0.78135
7188.43376,0.77066
7186.50501,0.75991
7184.57627,0.75448
7182.64752,0.75385
7180.71878,0.75490
7178.79003,0.75723
7176.86129,0.76187
7174.93254,0.76622
7173.00380,0.76586
7171.07505,0.75975
7169.14631,0.75284
7167.21756,0.75117
7165.28882,0.75298
7163.36007,0.75614
7161.43133,0.76134
7159.50258,0.76273
7157.57384,0.75868
7155.64509,0.75561
7153.71634,0.75452
7151.78760,0.75348
7149.85885,0.75326
7147.93011,0.75361
7146.00136,0.75305
7144.07262,0.75149
7142.14387,0.74813
7140.21513,0.74377
7138.28638,0.74302
7136.35764,0.74648
7134.42889,0.75001
7132.50015,0.74940
7130.57140,0.74548
7128.64266,0.74386
7126.71391,0.74397
7124.78516,0.74225
7122.85642,0.74150
7120.92767,0.74189
7118.99893,0.73825
7117.07018,0.73188
7115.14144,0.72768
7113.21269,0.72580
7111.28395,0.72529
7109.35520,0.72555
7107.42646,0.72533
7105.49771,0.72380
7103.56897,0.72182
7101.64022,0.72046
7099.71148,0.72003
7097.78273,0.72186
7095.85399,0.72345
7093.92524,0.72105
7091.99649,0.71798
7090.06775,0.71754
7088.13900,0.71741
7086.21026,0.71497
7084.28151,0.71086
7082.35277,0.70825
7080.42402,0.70822
7078.49528,0.70706
7076.56653,0.70213
7074.63779,0.69574
7072.70904,0.69104
7070.78030,0.69117
7068.85155,0.69585
7066.92281,0.69912
7064.99406,0.69767
7063.06532,0.69401
7061.13657,0.69107
7059.20782,0.68938
7057.27908,0.68812
7055.35033,0.68600
7053.42159,0.68212
7051.49284,0.67851
7049.56410,0.67778
7047.63535,0.67788
7045.70661,0.67546
7043.77786,0.67165
7041.84912,0.66952
7039.92037,0.67004
7037.99163,0.67026
7036.06288,0.66747
7034.13414,0.66441
7032.20539,0.66375
7030.27664,0.66570
7028.34790,0.66930
7026.41915,0.67205
7024.49041,0.67245
7022.56166,0.66863
7020.63292,0.66157
7018.70417,0.65683
7016.77543,0.65452
7014.84668,0.65145
7012.91794,0.64952
7010.98919,0.64961
7009.06045,0.64898
7007.13170,0.64896
7005.20296,0.65180
7003.27421,0.65468
7001.34547,0.65496
6999.41672,0.65293
6997.48797,0.64928
6995.55923,0.64564
6993.63048,0.64401
6991.70174,0.64376
6989.77299,0.64360
6987.84425,0.64412
6985.91550,0.64401
6983.98676,0.64109
6982.05801,0.63962
6980.12927,0.64385
6978.20052,0.64778
6976.27178,0.64546
6974.34303,0.63933
6972.41429,0.63324
6970.48554,0.63021
6968.55680,0.63051
6966.62805,0.63053
6964.69930,0.63012
6962.77056,0.63211
6960.84181,0.63480
6958.91307,0.63494
6956.98432,0.63278
6955.05558,0.63010
6953.12683,0.62876
6951.19809,0.62912
6949.26934,0.63029
6947.34060,0.63286
6945.41185,0.63648
6943.48311,0.63739
6941.55436,0.63411
6939.62562,0.63022
6937.69687,0.62762
6935.76812,0.62655
6933.83938,0.62694
6931.91063,0.62661
6929.98189,0.62639
6928.05314,0.62673
6926.12440,0.62458
6924.19565,0.62235
6922.26691,0.62413
6920.33816,0.62752
6918.40942,0.62970
6916.48067,0.63035
6914.55193,0.62818
6912.62318,0.62365
6910.69444,0.62095
6908.76569,0.62336
6906.83695,0.62893
6904.90820,0.63289
6902.97945,0.63314
6901.05071,0.63118
6899.12196,0.62970
6897.19322,0.62888
6895.26447,0.62802
6893.33573,0.62979
6891.40698,0.63467
6889.47824,0.63866
6887.54949,0.63877
6885.62075,0.63575
6883.69200,0.63205
6881.76326,0.62905
6879.83451,0.62898
6877.90577,0.63187
6875.97702,0.63294
6874.04828,0.63037
6872.11953,0.62707
6870.19078,0.62596
6868.26204,0.62788
6866.33329,0.63075
6864.40455,0.63221
6862.47580,0.63158
6860.54706,0.62873
6858.61831,0.62684
6856.68957,0.62895
6854.76082,0.63065
6852.83208,0.62952
6850.90333,0.63018
6848.97459,0.63350
6847.04584,0.63550
6845.11710,0.63487
6843.18835,0.63301
6841.25960,0.62940
6839.33086,0.62499
6837.40211,0.62376
6835.47337,0.62546
6833.54462,0.62644
6831.61588,0.62518
6829.68713,0.62282
6827.75839,0.62238
6825.82964,0.62564
6823.90090,0.63012
6821.97215,0.63085
6820.04341,0.62645
6818.11466,0.62229
6816.18592,0.62267
6814.25717,0.62497
6812.32843,0.62583
6810.39968,0.62607
6808.47093,0.62767
6806.54219,0.62967
6804.61344,0.62885
6802.68470,0.62629
6800.75595,0.62659
6798.82721,0.62888
6796.89846,0.62834
6794.96972,0.62550
6793.04097,0.62489
6791.11223,0.62692
6789.18348,0.62913
6787.25474,0.63047
6785.32599,0.63066
6783.39725,0.63043
6781.46850,0.63088
6779.53975,0.63153
6777.61101,0.63108
6775.68226,0.62921
6773.75352,0.62781
6771.82477,0.62836
6769.89603,0.62912
6767.96728,0.62869
6766.03854,0.63011
6764.10979,0.63371
6762.18105,0.63399
6760.25230,0.63159
6758.32356,0.63108
6756.39481,0.63082
6754.46607,0.62947
6752.53732,0.62822
6750.60858,0.62754
6748.67983,0.62782
6746.75108,0.62831
6744.82234,0.62917
6742.89359,0.63041
6740.96485,0.63065
6739.03610,0.63011
6737.10736,0.62953
6735.17861,0.62963
6733.24987,0.63013
6731.32112,0.62911
6729.39238,0.62807
6727.46363,0.63019
6725.53489,0.63256
6723.60614,0.63097
6721.67740,0.62826
6719.74865,0.62877
6717.81991,0.63155
6715.89116,0.63290
6713.96241,0.63185
6712.03367,0.63124
6710.10492,0.63178
6708.17618,0.63071
6706.24743,0.62851
6704.31869,0.62898
6702.38994,0.63228
6700.46120,0.63455
6698.53245,0.63344
6696.60371,0.63035
6694.67496,0.62939
6692.74622,0.63253
6690.81747,0.63539
6688.88873,0.63450
6686.95998,0.63268
6685.03123,0.63200
6683.10249,0.63131
6681.17374,0.63071
6679.24500,0.63127
6677.31625,0.63271
6675.38751,0.63353
6673.45876,0.63298
6671.53002,0.63238
6669.60127,0.63329
6667.67253,0.63547
6665.74378,0.63732
6663.81504,0.63850
6661.88629,0.64018
6659.95755,0.64190
6658.02880,0.64175
6656.10006,0.63979
6654.17131,0.63709
6652.24256,0.63469
6650.31382,0.63375
6648.38507,0.63407
6646.45633,0.63511
6644.52758,0.63655
6642.59884,0.63856
6640.67009,0.64203
6638.74135,0.64468
6636.81260,0.64405
6634.88386,0.64244
6632.95511,0.64187
6631.02637,0.64189
6629.09762,0.64278
6627.16888,0.64473
6625.24013,0.64664
6623.31139,0.64726
6621.38264,0.64596
6619.45389,0.64517
6617.52515,0.64745
6615.59640,0.64994
6613.66766,0.64884
6611.73891,0.64535
6609.81017,0.64366
6607.88142,0.64450
6605.95268,0.64509
6604.02393,0.64515
6602.09519,0.64690
6600.16644,0.65043
6598.23770,0.65315
6596.30895,0.65443
6594.38021,0.65583
6592.45146,0.65654
6590.52271,0.65473
6588.59397,0.65159
6586.66522,0.65044
6584.73648,0.65173
6582.80773,0.65255
6580.87899,0.65057
6578.95024,0.64751
6577.02150,0.64761
6575.09275,0.64991
6573.16401,0.65084
6571.23526,0.65066
6569.30652,0.65050
6567.37777,0.65077
6565.44903,0.65119
6563.52028,0.65160
6561.59154,0.65295
6559.66279,0.65456
6557.73404,0.65453
6555.80530,0.65366
6553.87655,0.65453
6551.94781,0.65648
6550.01906,0.65699
6548.09032,0.65683
6546.16157,0.65753
6544.23283,0.65799
6542.30408,0.65698
6540.37534,0.65535
6538.44659,0.65533
6536.51785,0.65725
6534.58910,0.65954
6532.66036,0.66155
6530.73161,0.66243
6528.80287,0.66116
6526.87412,0.65823
6524.94537,0.65520
6523.01663,0.65389
6521.08788,0.65394
6519.15914,0.65384
6517.23039,0.65441
6515.30165,0.65575
6513.37290,0.65653
6511.44416,0.65786
6509.51541,0.66026
6507.58667,0.66157
6505.65792,0.66126
6503.72918,0.66001
6501.80043,0.65807
6499.87169,0.65646
6497.94294,0.65537
6496.01419,0.65521
6494.08545,0.65800
6492.15670,0.66247
6490.22796,0.66424
6488.29921,0.66265
6486.37047,0.66014
6484.44172,0.65770
6482.51298,0.65622
6480.58423,0.65637
6478.65549,0.65625
6476.72674,0.65532
6474.79800,0.65657
6472.86925,0.66068
6470.94051,0.66469
6469.01176,0.66658
6467.08302,0.66596
6465.15427,0.66425
6463.22552,0.66306
6461.29678,0.66091
6459.36803,0.65809
6457.43929,0.65768
6455.51054,0.65882
6453.58180,0.65905
6451.65305,0.65921
6449.72431,0.66028
6447.79556,0.66262
6445.86682,0.66595
6443.93807,0.66707
6442.00933,0.66469
6440.08058,0.66244
6438.15184,0.66205
6436.22309,0.66184
6434.29434,0.66131
6432.36560,0.66148
6430.43685,0.66221
6428.50811,0.66254
6426.57936,0.66188
6424.65062,0.66125
6422.72187,0.66292
6420.79313,0.66549
6418.86438,0.66552
6416.93564,0.66396
6415.00689,0.66378
6413.07815,0.66516
6411.14940,0.66641
6409.22066,0.66648
6407.29191,0.66483
6405.36317,0.66214
6403.43442,0.66088
6401.50567,0.66163
6399.57693,0.66263
6397.64818,0.66258
6395.71944,0.66218
6393.79069,0.66326
6391.86195,0.66608
6389.93320,0.66893
6388.00446,0.66922
6386.07571,0.66645
6384.14697,0.66382
6382.21822,0.66398
6380.28948,0.66597
6378.36073,0.66684
6376.43199,0.66607
6374.50324,0.66590
6372.57450,0.66668
6370.64575,0.66706
6368.71700,0.66661
6366.78826,0.66628
6364.85951,0.66696
6362.93077,0.66673
6361.00202,0.66415
6359.07328,0.66234
6357.14453,0.66372
6355.21579,0.66692
6353.28704,0.66981
6351.35830,0.67012
6349.42955,0.66746
6347.50081,0.66440
6345.57206,0.66315
6343.64332,0.66454
6341.71457,0.66786
6339.78582,0.67075
6337.85708,0.67216
6335.92833,0.67269
6333.99959,0.67184
6332.07084,0.66903
6330.14210,0.66586
6328.21335,0.66483
6326.28461,0.66658
6324.35586,0.66883
6322.42712,0.66996
6320.49837,0.67058
6318.56963,0.67076
6316.64088,0.67048
6314.71214,0.67056
6312.78339,0.67096
6310.85465,0.67112
6308.92590,0.67140
6306.99715,0.67316
6305.06841,0.67560
6303.13966,0.67593
6301.21092,0.67563
6299.28217,0.67693
6297.35343,0.67735
6295.42468,0.67692
6293.49594,0.67688
6291.56719,0.67548
6289.63845,0.67412
6287.70970,0.67515
6285.78096,0.67645
6283.85221,0.67595
6281.92347,0.67451
6279.99472,0.67412
6278.06598,0.67602
6276.13723,0.67863
6274.20848,0.67893
6272.27974,0.67669
6270.35099,0.67491
6268.42225,0.67609
6266.49350,0.67922
6264.56476,0.68169
6262.63601,0.68343
6260.70727,0.68501
6258.77852,0.68462
6256.84978,0.68210
6254.92103,0.67986
6252.99229,0.67901
6251.06354,0.67956
6249.13480,0.68117
6247.20605,0.68307
6245.27730,0.68517
6243.34856,0.68641
6241.41981,0.68539
6239.49107,0.68346
6237.56232,0.68255
6235.63358,0.68338
6233.70483,0.68563
6231.77609,0.68857
6229.84734,0.69190
6227.91860,0.69370
6225.98985,0.69233
6224.06111,0.69074
6222.13236,0.69178
6220.20362,0.69347
6218.27487,0.69303
6216.34613,0.69146
6214.41738,0.69177
6212.48863,0.69358
6210.55989,0.69397
6208.63114,0.69334
6206.70240,0.69398
6204.77365,0.69544
6202.84491,0.69614
6200.91616,0.69592
6198.98742,0.69562
6197.05867,0.69624
6195.12993,0.69734
6193.20118,0.69816
6191.27244,0.69928
6189.34369,0.70019
6187.41495,0.69949
6185.48620,0.69757
6183.55746,0.69697
6181.62871,0.69962
6179.69996,0.70364
6177.77122,0.70609
6175.84247,0.70554
6173.91373,0.70251
6171.98498,0.70082
6170.05624,0.70224
6168.12749,0.70441
6166.19875,0.70614
6164.27000,0.70637
6162.34126,0.70524
6160.41251,0.70564
6158.48377,0.70749
6156.55502,0.70878
6154.62628,0.70916
6152.69753,0.70831
6150.76878,0.70691
6148.84004,0.70674
6146.91129,0.70821
6144.98255,0.71049
6143.05380,0.71233
6141.12506,0.71220
6139.19631,0.70992
6137.26757,0.70823
6135.33882,0.70985
6133.41008,0.71329
6131.48133,0.71513
6129.55259,0.71530
6127.62384,0.71523
6125.69510,0.71450
6123.76635,0.71422
6121.83761,0.71521
6119.90886,0.71557
6117.98011,0.71524
6116.05137,0.71519
6114.12262,0.71511
6112.19388,0.71510
6110.26513,0.71539
6108.33639,0.71530
6106.40764,0.71397
6104.47890,0.71332
6102.55015,0.71533
6100.62141,0.71726
6098.69266,0.71743
6096.76392,0.71786
6094.83517,0.71817
6092.90643,0.71737
6090.97768,0.71719
6089.04893,0.71790
6087.12019,0.71780
6085.19144,0.71621
6083.26270,0.71446
6081.33395,0.71532
6079.40521,0.71868
6077.47646,0.72062
6075.54772,0.71956
6073.61897,0.71799
6071.69023,0.71749
6069.76148,0.71707
6067.83274,0.71654
6065.90399,0.71659
6063.97525,0.71679
6062.04650,0.71698
6060.11776,0.71767
6058.18901,0.71832
6056.26026,0.71785
6054.33152,0.71639
6052.40277,0.71570
6050.47403,0.71656
6048.54528,0.71727
6046.61654,0.71704
6044.68779,0.71656
6042.75905,0.71558
6040.83030,0.71374
6038.90156,0.71190
6036.97281,0.71132
6035.04407,0.71152
6033.11532,0.71137
6031.18658,0.71148
6029.25783,0.71152
6027.32909,0.71061
6025.40034,0.70994
6023.47159,0.71027
6021.54285,0.71061
6019.61410,0.70952
6017.68536,0.70728
6015.75661,0.70653
6013.82787,0.70726
6011.89912,0.70675
6009.97038,0.70520
6008.04163,0.70461
6006.11289,0.70554
6004.18414,0.70700
6002.25540,0.70675
6000.32665,0.70462
5998.39791,0.70341
5996.46916,0.70435
5994.54041,0.70503
5992.61167,0.70303
5990.68292,0.69983
5988.75418,0.69801
5986.82543,0.69751
5984.89669,0.69736
5982.96794,0.69751
5981.03920,0.69861
5979.11045,0.70028
5977.18171,0.70111
5975.25296,0.70084
5973.32422,0.70015
5971.39547,0.69974
5969.46673,0.69982
5967.53798,0.69966
5965.60924,0.69922
5963.68049,0.69931
5961.75174,0.69959
5959.82300,0.69922
5957.89425,0.69898
5955.96551,0.70000
5954.03676,0.70128
5952.10802,0.70191
5950.17927,0.70213
5948.25053,0.70180
5946.32178,0.70127
5944.39304,0.70075
5942.46429,0.69993
5940.53555,0.69978
5938.60680,0.70060
5936.67806,0.70105
5934.74931,0.70118
5932.82057,0.70143
5930.89182,0.70076
5928.96307,0.69988
5927.03433,0.70058
5925.10558,0.70212
5923.17684,0.70266
5921.24809,0.70212
5919.31935,0.70153
5917.39060,0.70038
5915.46186,0.69783
5913.53311,0.69616
5911.60437,0.69773
5909.67562,0.70046
5907.74688,0.70135
5905.81813,0.70012
5903.88939,0.69811
5901.96064,0.69726
5900.03189,0.69796
5898.10315,0.69869
5896.17440,0.69866
5894.24566,0.69822
5892.31691,0.69777
5890.38817,0.69661
5888.45942,0.69468
5886.53068,0.69384
5884.60193,0.69420
5882.67319,0.69360
5880.74444,0.69195
5878.81570,0.69109
5876.88695,0.69107
5874.95821,0.69108
5873.02946,0.69140
5871.10072,0.69212
5869.17197,0.69294
5867.24322,0.69288
5865.31448,0.69140
5863.38573,0.69016
5861.45699,0.69033
5859.52824,0.69140
5857.59950,0.69362
5855.67075,0.69612
5853.74201,0.69678
5851.81326,0.69573
5849.88452,0.69454
5847.95577,0.69376
5846.02703,0.69274
5844.09828,0.69121
5842.16954,0.69094
5840.24079,0.69229
5838.31205,0.69314
5836.38330,0.69267
5834.45455,0.69150
5832.52581,0.68990
5830.59706,0.68841
5828.66832,0.68786
5826.73957,0.68761
5824.81083,0.68676
5822.88208,0.68638
5820.95334,0.68715
5819.02459,0.68852
5817.09585,0.69037
5815.16710,0.69150
5813.23836,0.69056
5811.30961,0.68880
5809.38087,0.68777
5807.45212,0.68786
5805.52337,0.68925
5803.59463,0.69041
5801.66588,0.68982
5799.73714,0.68821
5797.80839,0.68637
5795.87965,0.68530
5793.95090,0.68619
5792.02216,0.68785
5790.09341,0.68826
5788.16467,0.68799
5786.23592,0.68877
5784.30718,0.68994
5782.37843,0.68990
5780.44969,0.68938
5778.52094,0.68977
5776.59220,0.69055
5774.66345,0.69070
5772.73470,0.69092
5770.80596,0.69171
5768.87721,0.69199
5766.94847,0.69179
5765.01972,0.69192
5763.09098,0.69182
5761.16223,0.69146
5759.23349,0.69175
5757.30474,0.69226
5755.37600,0.69259
5753.44725,0.69305
5751.51851,0.69298
5749.58976,0.69215
5747.66102,0.69157
5745.73227,0.69121
5743.80352,0.69054
5741.87478,0.69029
5739.94603,0.69102
5738.01729,0.69210
5736.08854,0.69317
5734.15980,0.69350
5732.23105,0.69226
5730.30231,0.69072
5728.37356,0.69065
5726.44482,0.69136
5724.51607,0.69139
5722.58733,0.69070
5720.65858,0.68944
5718.72984,0.68824
5716.80109,0.68857
5714.87235,0.68991
5712.94360,0.69060
5711.01485,0.69005
5709.08611,0.68844
5707.15736,0.68664
5705.22862,0.68601
5703.29987,0.68687
5701.37113,0.68829
5699.44238,0.68963
5697.51364,0.69062
5695.58489,0.69088
5693.65615,0.69032
5691.72740,0.68952
5689.79866,0.68910
5687.86991,0.68854
5685.94117,0.68768
5684.01242,0.68747
5682.08368,0.68768
5680.15493,0.68730
5678.22618,0.68629
5676.29744,0.68540
5674.36869,0.68568
5672.43995,0.68694
5670.51120,0.68754
5668.58246,0.68731
5666.65371,0.68723
5664.72497,0.68691
5662.79622,0.68608
5660.86748,0.68566
5658.93873,0.68623
5657.00999,0.68746
5655.08124,0.68865
5653.15250,0.68879
5651.22375,0.68719
5649.29500,0.68508
5647.36626,0.68471
5645.43751,0.68575
5643.50877,0.68618
5641.58002,0.68595
5639.65128,0.68609
5637.72253,0.68670
5635.79379,0.68763
5633.86504,0.68856
5631.93630,0.68860
5630.00755,0.68726
5628.07881,0.68565
5626.15006,0.68516
5624.22132,0.68579
5622.29257,0.68697
5620.36383,0.68762
5618.43508,0.68704
5616.50633,0.68626
5614.57759,0.68623
5612.64884,0.68654
5610.72010,0.68680
5608.79135,0.68677
5606.86261,0.68612
5604.93386,0.68500
5603.00512,0.68430
5601.07637,0.68445
5599.14763,0.68514
5597.21888,0.68603
5595.29014,0.68638
5593.36139,0.68576
5591.43265,0.68506
5589.50390,0.68549
5587.57516,0.68701
5585.64641,0.68812
5583.71766,0.68766
5581.78892,0.68629
5579.86017,0.68547
5577.93143,0.68616
5576.00268,0.68771
5574.07394,0.68872
5572.14519,0.68869
5570.21645,0.68817
5568.28770,0.68754
5566.35896,0.68738
5564.43021,0.68848
5562.50147,0.68941
5560.57272,0.68862
5558.64398,0.68788
5556.71523,0.68855
5554.78648,0.68925
5552.85774,0.68936
5550.92899,0.68971
5549.00025,0.69018
5547.07150,0.69011
5545.14276,0.68943
5543.21401,0.68886
5541.28527,0.68952
5539.35652,0.69058
5537.42778,0.69029
5535.49903,0.68935
5533.57029,0.68931
5531.64154,0.69005
5529.71280,0.69072
5527.78405,0.69132
5525.85531,0.69225
5523.92656,0.69332
5521.99781,0.69398
5520.06907,0.69379
5518.14032,0.69256
5516.21158,0.69140
5514.28283,0.69120
5512.35409,0.69103
5510.42534,0.69083
5508.49660,0.69120
5506.56785,0.69176
5504.63911,0.69246
5502.71036,0.69319
5500.78162,0.69345
5498.85287,0.69368
5496.92413,0.69416
5494.99538,0.69436
5493.06664,0.69434
5491.13789,0.69450
5489.20914,0.69453
5487.28040,0.69409
5485.35165,0.69334
5483.42291,0.69251
5481.49416,0.69215
5479.56542,0.69263
5477.63667,0.69354
5475.70793,0.69480
5473.77918,0.69655
5471.85044,0.69783
5469.92169,0.69775
5467.99295,0.69665
5466.06420,0.69556
5464.13546,0.69564
5462.20671,0.69674
5460.27796,0.69735
5458.34922,0.69700
5456.42047,0.69689
5454.49173,0.69766
5452.56298,0.69828
5450.63424,0.69822
5448.70549,0.69805
5446.77675,0.69787
5444.84800,0.69789
5442.91926,0.69848
5440.99051,0.69910
5439.06177,0.69960
5437.13302,0.70036
5435.20428,0.70059
5433.27553,0.70023
5431.34679,0.70048
5429.41804,0.70110
5427.48929,0.70151
5425.56055,0.70190
5423.63180,0.70194
5421.70306,0.70208
5419.77431,0.70331
5417.84557,0.70503
5415.91682,0.70591
5413.98808,0.70549
5412.05933,0.70436
5410.13059,0.70397
5408.20184,0.70498
5406.27310,0.70613
5404.34435,0.70629
5402.41561,0.70616
5400.48686,0.70660
5398.55811,0.70718
5396.62937,0.70745
5394.70062,0.70759
5392.77188,0.70720
5390.84313,0.70659
5388.91439,0.70720
5386.98564,0.70829
5385.05690,0.70776
5383.12815,0.70630
5381.19941,0.70553
5379.27066,0.70532
5377.34192,0.70568
5375.41317,0.70691
5373.48443,0.70857
5371.55568,0.70958
5369.62694,0.70898
5367.69819,0.70772
5365.76944,0.70697
5363.84070,0.70604
5361.91195,0.70518
5359.98321,0.70541
5358.05446,0.70575
5356.12572,0.70516
5354.19697,0.70413
5352.26823,0.70353
5350.33948,0.70352
5348.41074,0.70369
5346.48199,0.70389
5344.55325,0.70401
5342.62450,0.70348
5340.69576,0.70263
5338.76701,0.70257
5336.83827,0.70254
5334.90952,0.70098
5332.98077,0.69904
5331.05203,0.69801
5329.12328,0.69699
5327.19454,0.69574
5325.26579,0.69450
5323.33705,0.69290
5321.40830,0.69141
5319.47956,0.69017
5317.55081,0.68869
5315.62207,0.68733
5313.69332,0.68627
5311.76458,0.68499
5309.83583,0.68374
5307.90709,0.68267
5305.97834,0.68046
5304.04959,0.67707
5302.12085,0.67440
5300.19210,0.67248
5298.26336,0.67037
5296.33461,0.66813
5294.40587,0.66533
5292.47712,0.66183
5290.54838,0.65854
5288.61963,0.65562
5286.69089,0.65279
5284.76214,0.64970
5282.83340,0.64599
5280.90465,0.64261
5278.97591,0.64016
5277.04716,0.63766
5275.11842,0.63437
5273.18967,0.63041
5271.26092,0.62620
5269.33218,0.62212
5267.40343,0.61827
5265.47469,0.61450
5263.54594,0.61092
5261.61720,0.60797
5259.68845,0.60527
5257.75971,0.60216
5255.83096,0.59880
5253.90222,0.59551
5251.97347,0.59234
5250.04473,0.58919
5248.11598,0.58584
5246.18724,0.58214
5244.25849,0.57844
5242.32975,0.57571
5240.40100,0.57401
5238.47225,0.57225
5236.54351,0.56993
5234.61476,0.56764
5232.68602,0.56588
5230.75727,0.56438
5228.82853,0.56264
5226.89978,0.56040
5224.97104,0.55797
5223.04229,0.55596
5221.11355,0.55443
5219.18480,0.55314
5217.25606,0.55192
5215.32731,0.55093
5213.39857,0.55031
5211.46982,0.54981
5209.54107,0.54916
5207.61233,0.54830
5205.68358,0.54753
5203.75484,0.54709
5201.82609,0.54679
5199.89735,0.54636
5197.96860,0.54587
5196.03986,0.54585
5194.11111,0.54627
5192.18237,0.54599
5190.25362,0.54495
5188.32488,0.54456
5186.39613,0.54506
5184.46739,0.54566
5182.53864,0.54594
5180.60990,0.54591
5178.68115,0.54576
5176.75240,0.54554
5174.82366,0.54575
5172.89491,0.54661
5170.96617,0.54764
5169.03742,0.54855
5167.10868,0.54907
5165.17993,0.54925
5163.25119,0.54990
5161.32244,0.55118
5159.39370,0.55219
5157.46495,0.55270
5155.53621,0.55368
5153.60746,0.55545
5151.67872,0.55671
5149.74997,0.55723
5147.82123,0.55811
5145.89248,0.55908
5143.96373,0.55957
5142.03499,0.56025
5140.10624,0.56157
5138.17750,0.56319
5136.24875,0.56479
5134.32001,0.56626
5132.39126,0.56727
5130.46252,0.56798
5128.53377,0.56921
5126.60503,0.57089
5124.67628,0.57200
5122.74754,0.57223
5120.81879,0.57243
5118.89005,0.57330
5116.96130,0.57453
5115.03255,0.57561
5113.10381,0.57675
5111.17506,0.57797
5109.24632,0.57898
5107.31757,0.57962
5105.38883,0.58019
5103.46008,0.58139
5101.53134,0.58302
5099.60259,0.58423
5097.67385,0.58497
5095.74510,0.58569
5093.81636,0.58654
5091.88761,0.58750
5089.95887,0.58841
5088.03012,0.58902
5086.10138,0.58986
5084.17263,0.59148
5082.24388,0.59307
5080.31514,0.59400
5078.38639,0.59469
5076.45765,0.59540
5074.52890,0.59602
5072.60016,0.59648
5070.67141,0.59705
5068.74267,0.59786
5066.81392,0.59865
5064.88518,0.59928
5062.95643,0.60015
5061.02769,0.60153
5059.09894,0.60315
5057.17020,0.60449
5055.24145,0.60499
5053.31270,0.60487
5051.38396,0.60537
5049.45521,0.60672
5047.52647,0.60807
5045.59772,0.60920
5043.66898,0.61037
5041.74023,0.61115
5039.81149,0.61109
5037.88274,0.61121
5035.95400,0.61223
5034.02525,0.61325
5032.09651,0.61379
5030.16776,0.61431
5028.23902,0.61480
5026.31027,0.61522
5024.38153,0.61569
5022.45278,0.61597
5020.52403,0.61599
5018.59529,0.61625
5016.66654,0.61699
5014.73780,0.61792
5012.80905,0.61865
5010.88031,0.61904
5008.95156,0.61945
5007.02282,0.61984
5005.09407,0.61983
5003.16533,0.61952
5001.23658,0.61940
4999.30784,0.61975
4997.37909,0.61989
4995.45035,0.61941
4993.52160,0.61902
4991.59286,0.61893
4989.66411,0.61882
4987.73536,0.61868
4985.80662,0.61860
4983.87787,0.61887
4981.94913,0.61896
4980.02038,0.61826
4978.09164,0.61716
4976.16289,0.61581
4974.23415,0.61448
4972.30540,0.61418
4970.37666,0.61477
4968.44791,0.61486
4966.51917,0.61405
4964.59042,0.61271
4962.66168,0.61100
4960.73293,0.60961
4958.80418,0.60880
4956.87544,0.60777
4954.94669,0.60637
4953.01795,0.60506
4951.08920,0.60381
4949.16046,0.60243
4947.23171,0.60097
4945.30297,0.59939
4943.37422,0.59768
4941.44548,0.59625
4939.51673,0.59518
4937.58799,0.59408
4935.65924,0.59261
4933.73050,0.59090
4931.80175,0.58931
4929.87301,0.58761
4927.94426,0.58567
4926.01551,0.58377
4924.08677,0.58204
4922.15802,0.58069
4920.22928,0.57970
4918.30053,0.57836
4916.37179,0.57636
4914.44304,0.57432
4912.51430,0.57254
4910.58555,0.57073
4908.65681,0.56870
4906.72806,0.56654
4904.79932,0.56455
4902.87057,0.56310
4900.94183,0.56203
4899.01308,0.56070
4897.08434,0.55894
4895.15559,0.55703
4893.22684,0.55507
4891.29810,0.55311
4889.36935,0.55115
4887.44061,0.54956
4885.51186,0.54865
4883.58312,0.54753
4881.65437,0.54573
4879.72563,0.54386
4877.79688,0.54226
4875.86814,0.54103
4873.93939,0.53984
4872.01065,0.53831
4870.08190,0.53665
4868.15316,0.53516
4866.22441,0.53409
4864.29566,0.53320
4862.36692,0.53194
4860.43817,0.53029
4858.50943,0.52850
4856.58068,0.52692
4854.65194,0.52597
4852.72319,0.52521
4850.79445,0.52401
4848.86570,0.52247
4846.93696,0.52101
4845.00821,0.51982
4843.07947,0.51866
4841.15072,0.51744
4839.22198,0.51651
4837.29323,0.51563
4835.36449,0.51424
4833.43574,0.51263
4831.50699,0.51161
4829.57825,0.51120
4827.64950,0.51064
4825.72076,0.50957
4823.79201,0.50803
4821.86327,0.50635
4819.93452,0.50519
4818.00578,0.50462
4816.07703,0.50391
4814.14829,0.50296
4812.21954,0.50231
4810.29080,0.50195
4808.36205,0.50143
4806.43331,0.50089
4804.50456,0.50082
4802.57582,0.50082
4800.64707,0.50041
4798.71832,0.50005
4796.78958,0.49974
4794.86083,0.49913
4792.93209,0.49863
4791.00334,0.49817
4789.07460,0.49748
4787.14585,0.49700
4785.21711,0.49662
4783.28836,0.49575
4781.35962,0.49499
4779.43087,0.49490
4777.50213,0.49489
4775.57338,0.49479
4773.64464,0.49491
4771.71589,0.49502
4769.78714,0.49489
4767.85840,0.49464
4765.92965,0.49449
4764.00091,0.49444
4762.07216,0.49446
4760.14342,0.49436
4758.21467,0.49400
4756.28593,0.49385
4754.35718,0.49415
4752.42844,0.49454
4750.49969,0.49468
4748.57095,0.49457
4746.64220,0.49457
4744.71346,0.49494
4742.78471,0.49514
4740.85597,0.49468
4738.92722,0.49428
4736.99847,0.49471
4735.06973,0.49529
4733.14098,0.49526
4731.21224,0.49532
4729.28349,0.49637
4727.35475,0.49785
4725.42600,0.49856
4723.49726,0.49857
4721.56851,0.49882
4719.63977,0.49952
4717.71102,0.50010
4715.78228,0.50019
4713.85353,0.49997
4711.92479,0.49975
4709.99604,0.49953
4708.06729,0.49923
4706.13855,0.49934
4704.20980,0.50016
4702.28106,0.50102
4700.35231,0.50137
4698.42357,0.50130
4696.49482,0.50125
4694.56608,0.50154
4692.63733,0.50192
4690.70859,0.50237
4688.77984,0.50325
4686.85110,0.50415
4684.92235,0.50481
4682.99361,0.50540
4681.06486,0.50573
4679.13612,0.50600
4677.20737,0.50654
4675.27862,0.50741
4673.34988,0.50840
4671.42113,0.50904
4669.49239,0.50952
4667.56364,0.51021
4665.63490,0.51096
4663.70615,0.51168
4661.77741,0.51239
4659.84866,0.51308
4657.91992,0.51409
4655.99117,0.51534
4654.06243,0.51634
4652.13368,0.51717
4650.20494,0.51798
4648.27619,0.51884
4646.34745,0.51998
4644.41870,0.52098
4642.48995,0.52119
4640.56121,0.52111
4638.63246,0.52148
4636.70372,0.52228
4634.77497,0.52327
4632.84623,0.52443
4630.91748,0.52552
4628.98874,0.52626
4627.05999,0.52667
4625.13125,0.52705
4623.20250,0.52792
4621.27376,0.52951
4619.34501,0.53118
4617.41627,0.53226
4615.48752,0.53306
4613.55877,0.53391
4611.63003,0.53470
4609.70128,0.53573
4607.77254,0.53703
4605.84379,0.53824
4603.91505,0.53969
4601.98630,0.54135
4600.05756,0.54247
4598.12881,0.54299
4596.20007,0.54330
4594.27132,0.54364
4592.34258,0.54413
4590.41383,0.54470
4588.48509,0.54543
4586.55634,0.54643
4584.62760,0.54732
4582.69885,0.54817
4580.77010,0.54939
4578.84136,0.55036
4576.91261,0.55075
4574.98387,0.55117
4573.05512,0.55179
4571.12638,0.55239
4569.19763,0.55297
4567.26889,0.55368
4565.34014,0.55445
4563.41140,0.55499
4561.48265,0.55536
4559.55391,0.55596
4557.62516,0.55703
4555.69642,0.55799
4553.76767,0.55816
4551.83893,0.55804
4549.91018,0.55817
4547.98143,0.55831
4546.05269,0.55863
4544.12394,0.55951
4542.19520,0.56035
4540.26645,0.56034
4538.33771,0.55997
4536.40896,0.56014
4534.48022,0.56068
4532.55147,0.56101
4530.62273,0.56129
4528.69398,0.56190
4526.76524,0.56248
4524.83649,0.56257
4522.90775,0.56242
4520.97900,0.56248
4519.05025,0.56282
4517.12151,0.56294
4515.19276,0.56256
4513.26402,0.56230
4511.33527,0.56228
4509.40653,0.56202
4507.47778,0.56155
4505.54904,0.56107
4503.62029,0.56057
4501.69155,0.55994
4499.76280,0.55913
4497.83406,0.55820
4495.90531,0.55738
4493.97657,0.55682
4492.04782,0.55624
4490.11908,0.55524
4488.19033,0.55384
4486.26158,0.55242
4484.33284,0.55119
4482.40409,0.54978
4480.47535,0.54768
4478.54660,0.54532
4476.61786,0.54338
4474.68911,0.54144
4472.76037,0.53948
4470.83162,0.53819
4468.90288,0.53693
4466.97413,0.53484
4465.04539,0.53240
4463.11664,0.53003
4461.18790,0.52760
4459.25915,0.52513
4457.33041,0.52280
4455.40166,0.52075
4453.47291,0.51874
4451.54417,0.51625
4449.61542,0.51347
4447.68668,0.51110
4445.75793,0.50917
4443.82919,0.50712
4441.90044,0.50500
4439.97170,0.50301
4438.04295,0.50067
4436.11421,0.49794
4434.18546,0.49563
4432.25672,0.49367
4430.32797,0.49125
4428.39923,0.48847
4426.47048,0.48586
4424.54173,0.48330
4422.61299,0.48048
4420.68424,0.47762
4418.75550,0.47518
4416.82675,0.47309
4414.89801,0.47083
4412.96926,0.46849
4411.04052,0.46665
4409.11177,0.46522
4407.18303,0.46390
4405.25428,0.46292
4403.32554,0.46224
4401.39679,0.46171
4399.46805,0.46153
4397.53930,0.46158
4395.61056,0.46135
4393.68181,0.46081
4391.75306,0.46043
4389.82432,0.46043
4387.89557,0.46065
4385.96683,0.46103
4384.03808,0.46166
4382.10934,0.46269
4380.18059,0.46394
4378.25185,0.46502
4376.32310,0.46594
4374.39436,0.46671
4372.46561,0.46739
4370.53687,0.46825
4368.60812,0.46912
4366.67938,0.46965
4364.75063,0.46999
4362.82189,0.47041
4360.89314,0.47110
4358.96439,0.47190
4357.03565,0.47235
4355.10690,0.47242
4353.17816,0.47241
4351.24941,0.47240
4349.32067,0.47228
4347.39192,0.47198
4345.46318,0.47158
4343.53443,0.47127
4341.60569,0.47087
4339.67694,0.47013
4337.74820,0.46941
4335.81945,0.46900
4333.89071,0.46850
4331.96196,0.46759
4330.03321,0.46662
4328.10447,0.46591
4326.17572,0.46530
4324.24698,0.46459
4322.31823,0.46379
4320.38949,0.46290
4318.46074,0.46195
4316.53200,0.46105
4314.60325,0.46024
4312.67451,0.45931
4310.74576,0.45830
4308.81702,0.45731
4306.88827,0.45636
4304.95953,0.45549
4303.03078,0.45457
4301.10204,0.45364
4299.17329,0.45288
4297.24454,0.45210
4295.31580,0.45118
4293.38705,0.45037
4291.45831,0.44983
4289.52956,0.44963
4287.60082,0.44958
4285.67207,0.44943
4283.74333,0.44927
4281.81458,0.44906
4279.88584,0.44871
4277.95709,0.44872
4276.02835,0.44905
4274.09960,0.44905
4272.17086,0.44886
4270.24211,0.44911
4268.31336,0.44976
4266.38462,0.45037
4264.45587,0.45088
4262.52713,0.45150
4260.59838,0.45225
4258.66964,0.45283
4256.74089,0.45308
4254.81215,0.45317
4252.88340,0.45327
4250.95466,0.45327
4249.02591,0.45335
4247.09717,0.45368
4245.16842,0.45404
4243.23968,0.45444
4241.31093,0.45483
4239.38219,0.45488
4237.45344,0.45471
4235.52469,0.45463
4233.59595,0.45467
4231.66720,0.45494
4229.73846,0.45532
4227.80971,0.45535
4225.88097,0.45492
4223.95222,0.45476
4222.02348,0.45515
4220.09473,0.45529
4218.16599,0.45486
4216.23724,0.45452
4214.30850,0.45462
4212.37975,0.45493
4210.45101,0.45513
4208.52226,0.45520
4206.59352,0.45525
4204.66477,0.45524
4202.73602,0.45511
4200.80728,0.45489
4198.87853,0.45470
4196.94979,0.45466
4195.02104,0.45494
4193.09230,0.45553
4191.16355,0.45606
4189.23481,0.45636
4187.30606,0.45667
4185.37732,0.45699
4183.44857,0.45717
4181.51983,0.45743
4179.59108,0.45788
4177.66234,0.45829
4175.73359,0.45880
4173.80484,0.45951
4171.87610,0.46010
4169.94735,0.46043
4168.01861,0.46072
4166.08986,0.46120
4164.16112,0.46155
4162.23237,0.46160
4160.30363,0.46185
4158.37488,0.46219
4156.44614,0.46198
4154.51739,0.46126
4152.58865,0.46052
4150.65990,0.46018
4148.73116,0.45995
4146.80241,0.45909
4144.87367,0.45788
4142.94492,0.45705
4141.01617,0.45646
4139.08743,0.45581
4137.15868,0.45498
4135.22994,0.45382
4133.30119,0.45252
4131.37245,0.45134
4129.44370,0.45036
4127.51496,0.44934
4125.58621,0.44799
4123.65747,0.44642
4121.72872,0.44490
4119.79998,0.44346
4117.87123,0.44204
4115.94249,0.44064
4114.01374,0.43920
4112.08500,0.43758
4110.15625,0.43570
4108.22750,0.43363
4106.29876,0.43158
4104.37001,0.42982
4102.44127,0.42815
4100.51252,0.42635
4098.58378,0.42460
4096.65503,0.42309
4094.72629,0.42162
4092.79754,0.41998
4090.86880,0.41823
4088.94005,0.41628
4087.01131,0.41397
4085.08256,0.41160
4083.15382,0.40951
4081.22507,0.40764
4079.29632,0.40573
4077.36758,0.40375
4075.43883,0.40184
4073.51009,0.39990
4071.58134,0.39793
4069.65260,0.39613
4067.72385,0.39454
4065.79511,0.39300
4063.86636,0.39116
4061.93762,0.38890
4060.00887,0.38654
4058.08013,0.38444
4056.15138,0.38268
4054.22264,0.38117
4052.29389,0.37971
4050.36515,0.37791
4048.43640,0.37593
4046.50765,0.37429
4044.57891,0.37276
4042.65016,0.37093
4040.72142,0.36913
4038.79267,0.36780
4036.86393,0.36688
4034.93518,0.36618
4033.00644,0.36545
4031.07769,0.36451
4029.14895,0.36343
4027.22020,0.36219
4025.29146,0.36083
4023.36271,0.35970
4021.43397,0.35905
4019.50522,0.35885
4017.57648,0.35875
4015.64773,0.35839
4013.71898,0.35810
4011.79024,0.35829
4009.86149,0.35863
4007.93275,0.35871
4006.00400,0.35873
4004.07526,0.35894
4002.14651,0.35931
4000.21777,0.35979
3998.28902,0.36030
3996.36028,0.36082
3994.43153,0.36131
3992.50279,0.36158
3990.57404,0.36179
3988.64530,0.36224
3986.71655,0.36292
3984.78780,0.36365
3982.85906,0.36419
3980.93031,0.36443
3979.00157,0.36468
3977.07282,0.36514
3975.14408,0.36554
3973.21533,0.36595
3971.28659,0.36672
3969.35784,0.36777
3967.42910,0.36870
3965.50035,0.36928
3963.57161,0.36997
3961.64286,0.37116
3959.71412,0.37237
3957.78537,0.37350
3955.85663,0.37486
3953.92788,0.37603
3951.99913,0.37664
3950.07039,0.37696
3948.14164,0.37744
3946.21290,0.37825
3944.28415,0.37926
3942.35541,0.38037
3940.42666,0.38150
3938.49792,0.38258
3936.56917,0.38366
3934.64043,0.38482
3932.71168,0.38599
3930.78294,0.38705
3928.85419,0.38795
3926.92545,0.38894
3924.99670,0.39005
3923.06795,0.39101
3921.13921,0.39192
3919.21046,0.39283
3917.28172,0.39355
3915.35297,0.39427
3913.42423,0.39515
3911.49548,0.39604
3909.56674,0.39694
3907.63799,0.39804
3905.70925,0.39927
3903.78050,0.40031
3901.85176,0.40119
3899.92301,0.40197
3897.99427,0.40253
3896.06552,0.40299
3894.13678,0.40364
3892.20803,0.40466
3890.27928,0.40580
3888.35054,0.40664
3886.42179,0.40727
3884.49305,0.40783
3882.56430,0.40828
3880.63556,0.40883
3878.70681,0.40953
3876.77807,0.41012
3874.84932,0.41066
3872.92058,0.41135
3870.99183,0.41227
3869.06309,0.41331
3867.13434,0.41423
3865.20560,0.41508
3863.27685,0.41590
3861.34811,0.41695
3859.41936,0.41816
3857.49061,0.41909
3855.56187,0.41973
3853.63312,0.42034
3851.70438,0.42114
3849.77563,0.42211
3847.84689,0.42314
3845.91814,0.42407
3843.98940,0.42490
3842.06065,0.42568
3840.13191,0.42641
3838.20316,0.42710
3836.27442,0.42759
3834.34567,0.42803
3832.41693,0.42853
3830.48818,0.42871
3828.55943,0.42854
3826.63069,0.42854
3824.70194,0.42892
3822.77320,0.42942
3820.84445,0.42975
3818.91571,0.42981
3816.98696,0.42959
3815.05822,0.42908
3813.12947,0.42848
3811.20073,0.42824
3809.27198,0.42841
3807.34324,0.42852
3805.41449,0.42826
3803.48575,0.42795
3801.55700,0.42798
3799.62826,0.42819
3797.69951,0.42821
3795.77076,0.42817
3793.84202,0.42831
3791.91327,0.42840
3789.98453,0.42822
3788.05578,0.42775
3786.12704,0.42700
3784.19829,0.42623
3782.26955,0.42586
3780.34080,0.42590
3778.41206,0.42589
3776.48331,0.42549
3774.55457,0.42492
3772.62582,0.42461
3770.69708,0.42443
3768.76833,0.42403
3766.83959,0.42343
3764.91084,0.42283
3762.98209,0.42223
3761.05335,0.42156
3759.12460,0.42073
3757.19586,0.42004
3755.26711,0.41961
3753.33837,0.41909
3751.40962,0.41812
3749.48088,0.41680
3747.55213,0.41571
3745.62339,0.41479
3743.69464,0.41384
3741.76590,0.41294
3739.83715,0.41191
3737.90841,0.41063
3735.97966,0.40926
3734.05091,0.40774
3732.12217,0.40577
3730.19342,0.40370
3728.26468,0.40189
3726.33593,0.40020
3724.40719,0.39852
3722.47844,0.39690
3720.54970,0.39505
3718.62095,0.39271
3716.69221,0.39033
3714.76346,0.38814
3712.83472,0.38567
3710.90597,0.38270
3708.97723,0.37970
3707.04848,0.37673
3705.11974,0.37350
3703.19099,0.37006
3701.26224,0.36644
3699.33350,0.36247
3697.40475,0.35802
3695.47601,0.35359
3693.54726,0.34962
3691.61852,0.34557
3689.68977,0.34048
3687.76103,0.33423
3685.83228,0.32790
3683.90354,0.32189
3681.97479,0.31584
3680.04605,0.30974
3678.11730,0.30346
3676.18856,0.29606
3674.25981,0.28835
3672.33107,0.28189
3670.40232,0.27500
3668.47357,0.26706
3666.54483,0.25980
3664.61608,0.25312
3662.68734,0.24646
3660.75859,0.23992
3658.82985,0.23368
3656.90110,0.22744
3654.97236,0.22126
3653.04361,0.21592
3651.11487,0.21079
3649.18612,0.20477
3647.25738,0.19849
3645.32863,0.19309
3643.39989,0.18845
3641.47114,0.18397
3639.54239,0.17949
3637.61365,0.17517
3635.68490,0.17093
3633.75616,0.16682
3631.82741,0.16328
3629.89867,0.15990
3627.96992,0.15597
3626.04118,0.15207
3624.11243,0.14861
3622.18369,0.14523
3620.25494,0.14147
3618.32620,0.13773
3616.39745,0.13476
3614.46871,0.13210
3612.53996,0.12928
3610.61122,0.12636
3608.68247,0.12319
3606.75372,0.11986
3604.82498,0.11706
3602.89623,0.11456
3600.96749,0.11169
3599.03874,0.10877
3597.11000,0.10634
3595.18125,0.10419
3593.25251,0.10192
3591.32376,0.09976
3589.39502,0.09781
3587.46627,0.09581
3585.53753,0.09395
3583.60878,0.09228
3581.68004,0.09050
3579.75129,0.08849
3577.82254,0.08650
3575.89380,0.08468
3573.96505,0.08301
3572.03631,0.08168
3570.10756,0.08081
3568.17882,0.08009
3566.25007,0.07915
3564.32133,0.07794
3562.39258,0.07639
3560.46384,0.07485
3558.53509,0.07372
3556.60635,0.07280
3554.67760,0.07188
3552.74886,0.07092
3550.82011,0.06991
3548.89137,0.06890
3546.96262,0.06801
3545.03387,0.06722
3543.10513,0.06635
3541.17638,0.06554
3539.24764,0.06490
3537.31889,0.06426
3535.39015,0.06352
3533.46140,0.06266
3531.53266,0.06178
3529.60391,0.06109
3527.67517,0.06061
3525.74642,0.06025
3523.81768,0.05989
3521.88893,0.05927
3519.96019,0.05860
3518.03144,0.05808
3516.10270,0.05742
3514.17395,0.05681
3512.24520,0.05668
3510.31646,0.05665
3508.38771,0.05618
3506.45897,0.05535
3504.53022,0.05449
3502.60148,0.05382
3500.67273,0.05343
3498.74399,0.05312
3496.81524,0.05288
3494.88650,0.05278
3492.95775,0.05271
3491.02901,0.05259
3489.10026,0.05233
3487.17152,0.05187
3485.24277,0.05144
3483.31402,0.05114
3481.38528,0.05078
3479.45653,0.05050
3477.52779,0.05048
3475.59904,0.05042
3473.67030,0.04999
3471.74155,0.04944
3469.81281,0.04917
3467.88406,0.04913
3465.95532,0.04914
3464.02657,0.04926
3462.09783,0.04937
3460.16908,0.04909
3458.24034,0.04851
3456.31159,0.04802
3454.38285,0.04785
3452.45410,0.04805
3450.52535,0.04838
3448.59661,0.04875
3446.66786,0.04896
3444.73912,0.04872
3442.81037,0.04834
3440.88163,0.04815
3438.95288,0.04808
3437.02414,0.04818
3435.09539,0.04840
3433.16665,0.04853
3431.23790,0.04846
3429.30916,0.04842
3427.38041,0.04848
3425.45167,0.04853
3423.52292,0.04867
3421.59418,0.04891
3419.66543,0.04906
3417.73668,0.04905
3415.80794,0.04894
3413.87919,0.04895
3411.95045,0.04942
3410.02170,0.04994
3408.09296,0.04976
3406.16421,0.04918
3404.23547,0.04920
3402.30672,0.04981
3400.37798,0.05035
3398.44923,0.05053
3396.52049,0.05028
3394.59174,0.04982
3392.66300,0.04968
3390.73425,0.05001
3388.80550,0.05041
3386.87676,0.05065
3384.94801,0.05061
3383.01927,0.05030
3381.09052,0.05011
3379.16178,0.05011
3377.23303,0.05003
3375.30429,0.05001
3373.37554,0.05018
3371.44680,0.05031
3369.51805,0.05037
3367.58931,0.05069
3365.66056,0.05110
3363.73182,0.05121
3361.80307,0.05101
3359.87433,0.05074
3357.94558,0.05084
3356.01683,0.05134
3354.08809,0.05171
3352.15934,0.05176
3350.23060,0.05172
3348.30185,0.05177
3346.37311,0.05199
3344.44436,0.05241
3342.51562,0.05292
3340.58687,0.05340
3338.65813,0.05382
3336.72938,0.05402
3334.80064,0.05400
3332.87189,0.05417
3330.94315,0.05478
3329.01440,0.05537
3327.08566,0.05562
3325.15691,0.05566
3323.22816,0.05573
3321.29942,0.05588
3319.37067,0.05606
3317.44193,0.05635
3315.51318,0.05677
3313.58444,0.05711
3311.65569,0.05725
3309.72695,0.05745
3307.79820,0.05801
3305.86946,0.05864
3303.94071,0.05890
3302.01197,0.05878
3300.08322,0.05850
3298.15448,0.05848
3296.22573,0.05911
3294.29698,0.06011
3292.36824,0.06069
3290.43949,0.06069
3288.51075,0.06074
3286.58200,0.06106
3284.65326,0.06140
3282.72451,0.06182
3280.79577,0.06233
3278.86702,0.06279
3276.93828,0.06320
3275.00953,0.06356
3273.08079,0.06404
3271.15204,0.06480
3269.22330,0.06544
3267.29455,0.06568
3265.36581,0.06589
3263.43706,0.06629
3261.50831,0.06676
3259.57957,0.06732
3257.65082,0.06800
3255.72208,0.06860
3253.79333,0.06915
3251.86459,0.06980
3249.93584,0.07032
3248.00710,0.07063
3246.07835,0.07111
3244.14961,0.07170
3242.22086,0.07207
3240.29212,0.07247
3238.36337,0.07316
3236.43463,0.07392
3234.50588,0.07441
3232.57713,0.07465
3230.64839,0.07507
3228.71964,0.07577
3226.79090,0.07664
3224.86215,0.07760
3222.93341,0.07842
3221.00466,0.07906
3219.07592,0.07968
3217.14717,0.08040
3215.21843,0.08113
3213.28968,0.08154
3211.36094,0.08166
3209.43219,0.08201
3207.50345,0.08288
3205.57470,0.08410
3203.64596,0.08533
3201.71721,0.08619
3199.78846,0.08663
3197.85972,0.08720
3195.93097,0.08811
3194.00223,0.08889
3192.07348,0.08951
3190.14474,0.09036
3188.21599,0.09127
3186.28725,0.09184
3184.35850,0.09223
3182.42976,0.09284
3180.50101,0.09374
3178.57227,0.09475
3176.64352,0.09566
3174.71478,0.09644
3172.78603,0.09739
3170.85729,0.09861
3168.92854,0.09944
3166.99979,0.09973
3165.07105,0.10025
3163.14230,0.10127
3161.21356,0.10245
3159.28481,0.10370
3157.35607,0.10484
3155.42732,0.10557
3153.49858,0.10620
3151.56983,0.10704
3149.64109,0.10797
3147.71234,0.10890
3145.78360,0.10986
3143.85485,0.11074
3141.92611,0.11155
3139.99736,0.11228
3138.06861,0.11310
3136.13987,0.11412
3134.21112,0.11529
3132.28238,0.11647
3130.35363,0.11760
3128.42489,0.11863
3126.49614,0.11947
3124.56740,0.12016
3122.63865,0.12073
3120.70991,0.12148
3118.78116,0.12270
3116.85242,0.12395
3114.92367,0.12486
3112.99493,0.12585
3111.06618,0.12708
3109.13744,0.12809
3107.20869,0.12872
3105.27994,0.12938
3103.35120,0.13037
3101.42245,0.13147
3099.49371,0.13221
3097.56496,0.13271
3095.63622,0.13337
3093.70747,0.13421
3091.77873,0.13505
3089.84998,0.13584
3087.92124,0.13654
3085.99249,0.13712
3084.06375,0.13767
3082.13500,0.13856
3080.20626,0.13981
3078.27751,0.14077
3076.34877,0.14127
3074.42002,0.14184
3072.49127,0.14266
3070.56253,0.14345
3068.63378,0.14401
3066.70504,0.14464
3064.77629,0.14562
3062.84755,0.14666
3060.91880,0.14749
3058.99006,0.14823
3057.06131,0.14916
3055.13257,0.15025
3053.20382,0.15109
3051.27508,0.15159
3049.34633,0.15209
3047.41759,0.15275
3045.48884,0.15343
3043.56009,0.15397
3041.63135,0.15431
3039.70260,0.15455
3037.77386,0.15499
3035.84511,0.15557
3033.91637,0.15592
3031.98762,0.15603
3030.05888,0.15619
3028.13013,0.15647
3026.20139,0.15667
3024.27264,0.15666
3022.34390,0.15630
3020.41515,0.15556
3018.48641,0.15467
3016.55766,0.15396
3014.62892,0.15325
3012.70017,0.15225
3010.77142,0.15118
3008.84268,0.15022
3006.91393,0.14909
3004.98519,0.14779
3003.05644,0.14662
3001.12770,0.14554
2999.19895,0.14458
2997.27021,0.14394
2995.34146,0.14328
2993.41272,0.14218
2991.48397,0.14083
2989.55523,0.13929
2987.62648,0.13733
2985.69774,0.13510
2983.76899,0.13281
2981.84025,0.13023
2979.91150,0.12727
2977.98275,0.12413
2976.05401,0.12078
2974.12526,0.11727
2972.19652,0.11405
2970.26777,0.11153
2968.33903,0.10955
2966.41028,0.10784
2964.48154,0.10629
2962.55279,0.10480
2960.62405,0.10317
2958.69530,0.10144
2956.76656,0.09990
2954.83781,0.09855
2952.90907,0.09715
2950.98032,0.09572
2949.05157,0.09432
2947.12283,0.09287
2945.19408,0.09143
2943.26534,0.09012
2941.33659,0.08908
2939.40785,0.08826
2937.47910,0.08760
2935.55036,0.08728
2933.62161,0.08725
2931.69287,0.08717
2929.76412,0.08696
2927.83538,0.08677
2925.90663,0.08665
2923.97789,0.08640
2922.04914,0.08609
2920.12040,0.08586
2918.19165,0.08558
2916.26290,0.08551
2914.33416,0.08581
2912.40541,0.08607
2910.47667,0.08615
2908.54792,0.08620
2906.61918,0.08630
2904.69043,0.08639
2902.76169,0.08634
2900.83294,0.08620
2898.90420,0.08624
2896.97545,0.08649
2895.04671,0.08692
2893.11796,0.08755
2891.18922,0.08831
2889.26047,0.08897
2887.33172,0.08935
2885.40298,0.08962
2883.47423,0.09009
2881.54549,0.09067
2879.61674,0.09101
2877.68800,0.09127
2875.75925,0.09178
2873.83051,0.09240
2871.90176,0.09308
2869.97302,0.09417
2868.04427,0.09554
2866.11553,0.09678
2864.18678,0.09784
2862.25804,0.09891
2860.32929,0.10006
2858.40055,0.10128
2856.47180,0.10249
2854.54305,0.10355
2852.61431,0.10456
2850.68556,0.10574
2848.75682,0.10724
2846.82807,0.10915
2844.89933,0.11147
2842.97058,0.11398
2841.04184,0.11632
2839.11309,0.11840
2837.18435,0.12046
2835.25560,0.12277
2833.32686,0.12532
2831.39811,0.12792
2829.46937,0.13059
2827.54062,0.13351
2825.61188,0.13658
2823.68313,0.13956
2821.75438,0.14223
2819.82564,0.14462
2817.89689,0.14696
2815.96815,0.14921
2814.03940,0.15115
2812.11066,0.15294
2810.18191,0.15488
2808.25317,0.15685
2806.32442,0.15859
2804.39568,0.16024
2802.46693,0.16191
2800.53819,0.16336
2798.60944,0.16451
2796.68070,0.16560
2794.75195,0.16673
2792.82320,0.16797
2790.89446,0.16931
2788.96571,0.17048
2787.03697,0.17131
2785.10822,0.17198
2783.17948,0.17259
2781.25073,0.17318
2779.32199,0.17384
2777.39324,0.17455
2775.46450,0.17519
2773.53575,0.17574
2771.60701,0.17609
2769.67826,0.17636
2767.74952,0.17682
2765.82077,0.17733
2763.89203,0.17778
2761.96328,0.17840
2760.03453,0.17903
2758.10579,0.17935
2756.17704,0.17946
2754.24830,0.17966
2752.31955,0.17997
2750.39081,0.18020
2748.46206,0.18026
2746.53332,0.18039
2744.60457,0.18068
2742.67583,0.18093
2740.74708,0.18111
2738.81834,0.18125
2736.88959,0.18143
2734.96085,0.18181
2733.03210,0.18229
2731.10336,0.18271
2729.17461,0.18317
2727.24586,0.18374
2725.31712,0.18433
2723.38837,0.18499
2721.45963,0.18570
2719.53088,0.18637
2717.60214,0.18712
2715.67339,0.18799
2713.74465,0.18890
2711.81590,0.18987
2709.88716,0.19084
2707.95841,0.19160
2706.02967,0.19241
2704.10092,0.19358
2702.17218,0.19481
2700.24343,0.19581
2698.31468,0.19683
2696.38594,0.19787
2694.45719,0.19870
2692.52845,0.19951
2690.59970,0.20050
2688.67096,0.20154
2686.74221,0.20250
2684.81347,0.20339
2682.88472,0.20415
2680.95598,0.20480
2679.02723,0.20559
2677.09849,0.20645
2675.16974,0.20724
2673.24100,0.20811
2671.31225,0.20905
2669.38351,0.20975
2667.45476,0.21012
2665.52601,0.21050
2663.59727,0.21103
2661.66852,0.21163
2659.73978,0.21227
2657.81103,0.21291
2655.88229,0.21359
2653.95354,0.21427
2652.02480,0.21479
2650.09605,0.21520
2648.16731,0.21575
2646.23856,0.21648
2644.30982,0.21722
2642.38107,0.21797
2640.45233,0.21876
2638.52358,0.21949
2636.59484,0.22026
2634.66609,0.22114
2632.73734,0.22197
2630.80860,0.22268
2628.87985,0.22341
2626.95111,0.22421
2625.02236,0.22505
2623.09362,0.22592
2621.16487,0.22684
2619.23613,0.22777
2617.30738,0.22857
2615.37864,0.22908
2613.44989,0.22949
2611.52115,0.23006
2609.59240,0.23070
2607.66366,0.23134
2605.73491,0.23209
2603.80616,0.23286
2601.87742,0.23354
2599.94867,0.23401
2598.01993,0.23429
2596.09118,0.23460
2594.16244,0.23515
2592.23369,0.23588
2590.30495,0.23655
2588.37620,0.23702
2586.44746,0.23738
2584.51871,0.23775
2582.58997,0.23812
2580.66122,0.23858
2578.73248,0.23908
2576.80373,0.23955
2574.87499,0.23992
2572.94624,0.24009
2571.01749,0.24010
2569.08875,0.24019
2567.16000,0.24043
2565.23126,0.24061
2563.30251,0.24062
2561.37377,0.24067
2559.44502,0.24085
2557.51628,0.24099
2555.58753,0.24110
2553.65879,0.24128
2551.73004,0.24137
2549.80130,0.24136
2547.87255,0.24144
2545.94381,0.24172
2544.01506,0.24216
2542.08631,0.24247
2540.15757,0.24257
2538.22882,0.24273
2536.30008,0.24319
2534.37133,0.24390
2532.44259,0.24463
2530.51384,0.24529
2528.58510,0.24592
2526.65635,0.24649
2524.72761,0.24693
2522.79886,0.24736
2520.87012,0.24789
2518.94137,0.24844
2517.01263,0.24906
2515.08388,0.24983
2513.15514,0.25064
2511.22639,0.25141
2509.29764,0.25227
2507.36890,0.25323
2505.44015,0.25418
2503.51141,0.25514
2501.58266,0.25613
2499.65392,0.25716
2497.72517,0.25826
2495.79643,0.25930
2493.86768,0.26022
2491.93894,0.26109
2490.01019,0.26204
2488.08145,0.26299
2486.15270,0.26394
2484.22396,0.26485
2482.29521,0.26566
2480.36647,0.26646
2478.43772,0.26735
2476.50897,0.26828
2474.58023,0.26914
2472.65148,0.26991
2470.72274,0.27062
2468.79399,0.27127
2466.86525,0.27200
2464.93650,0.27288
2463.00776,0.27366
2461.07901,0.27427
2459.15027,0.27488
2457.22152,0.27551
2455.29278,0.27622
2453.36403,0.27710
2451.43529,0.27798
2449.50654,0.27894
2447.57779,0.28011
2445.64905,0.28123
2443.72030,0.28212
2441.79156,0.28296
2439.86281,0.28393
2437.93407,0.28503
2436.00532,0.28610
2434.07658,0.28705
2432.14783,0.28797
2430.21909,0.28894
2428.29034,0.29000
2426.36160,0.29118
2424.43285,0.29240
2422.50411,0.29362
2420.57536,0.29474
2418.64662,0.29573
2416.71787,0.29681
2414.78912,0.29794
2412.86038,0.29899
2410.93163,0.30006
2409.00289,0.30108
2407.07414,0.30193
2405.14540,0.30286
2403.21665,0.30396
2401.28791,0.30504
2399.35916,0.30602
2397.43042,0.30696
2395.50167,0.30798
2393.57293,0.30901
2391.64418,0.30991
2389.71544,0.31078
2387.78669,0.31170
2385.85795,0.31257
2383.92920,0.31336
2382.00045,0.31409
2380.07171,0.31493
2378.14296,0.31597
2376.21422,0.31709
2374.28547,0.31812
2372.35673,0.31898
2370.42798,0.31964
2368.49924,0.32017
2366.57049,0.32066
2364.64175,0.32113
2362.71300,0.32168
2360.78426,0.32232
2358.85551,0.32295
2356.92677,0.32345
2354.99802,0.32396
2353.06927,0.32461
2351.14053,0.32519
2349.21178,0.32567
2347.28304,0.32628
2345.35429,0.32699
2343.42555,0.32755
2341.49680,0.32794
2339.56806,0.32839
2337.63931,0.32891
2335.71057,0.32927
2333.78182,0.32941
2331.85308,0.32966
2329.92433,0.33012
2327.99559,0.33052
2326.06684,0.33064
2324.13810,0.33067
2322.20935,0.33084
2320.28060,0.33108
2318.35186,0.33135
2316.42311,0.33157
2314.49437,0.33150
2312.56562,0.33123
2310.63688,0.33108
2308.70813,0.33095
2306.77939,0.33064
2304.85064,0.33030
2302.92190,0.33004
2300.99315,0.32977
2299.06441,0.32948
2297.13566,0.32920
2295.20692,0.32886
2293.27817,0.32854
2291.34943,0.32840
2289.42068,0.32832
2287.49193,0.32814
2285.56319,0.32790
2283.63444,0.32760
2281.70570,0.32727
2279.77695,0.32690
2277.84821,0.32637
2275.91946,0.32573
2273.99072,0.32510
2272.06197,0.32453
2270.13323,0.32397
2268.20448,0.32331
2266.27574,0.32254
2264.34699,0.32183
2262.41825,0.32118
2260.48950,0.32047
2258.56075,0.31970
2256.63201,0.31915
2254.70326,0.31887
2252.77452,0.31853
2250.84577,0.31810
2248.91703,0.31769
2246.98828,0.31732
2245.05954,0.31699
2243.13079,0.31669
2241.20205,0.31633
2239.27330,0.31590
2237.34456,0.31546
2235.41581,0.31507
2233.48707,0.31480
2231.55832,0.31478
2229.62958,0.31487
2227.70083,0.31468
2225.77208,0.31428
2223.84334,0.31398
2221.91459,0.31387
2219.98585,0.31394
2218.05710,0.31400
2216.12836,0.31385
2214.19961,0.31361
2212.27087,0.31340
2210.34212,0.31312
2208.41338,0.31273
2206.48463,0.31222
2204.55589,0.31152
2202.62714,0.31081
2200.69840,0.31019
2198.76965,0.30948
2196.84090,0.30854
2194.91216,0.30744
2192.98341,0.30627
2191.05467,0.30513
2189.12592,0.30408
2187.19718,0.30299
2185.26843,0.30179
2183.33969,0.30055
2181.41094,0.29933
2179.48220,0.29817
2177.55345,0.29697
2175.62471,0.29561
2173.69596,0.29427
2171.76722,0.29308
2169.83847,0.29200
2167.90973,0.29097
2165.98098,0.29000
2164.05223,0.28908
2162.12349,0.28822
2160.19474,0.28740
2158.26600,0.28654
2156.33725,0.28579
2154.40851,0.28527
2152.47976,0.28480
2150.55102,0.28422
2148.62227,0.28361
2146.69353,0.28300
2144.76478,0.28238
2142.83604,0.28191
2140.90729,0.28169
2138.97855,0.28160
2137.04980,0.28149
2135.12106,0.28133
2133.19231,0.28128
2131.26356,0.28141
2129.33482,0.28164
2127.40607,0.28189
2125.47733,0.28208
2123.54858,0.28231
2121.61984,0.28266
2119.69109,0.28300
2117.76235,0.28330
2115.83360,0.28369
2113.90486,0.28411
2111.97611,0.28449
2110.04737,0.28492
2108.11862,0.28539
2106.18988,0.28588
2104.26113,0.28645
2102.33238,0.28700
2100.40364,0.28747
2098.47489,0.28791
2096.54615,0.28824
2094.61740,0.28843
2092.68866,0.28866
2090.75991,0.28898
2088.83117,0.28919
2086.90242,0.28918
2084.97368,0.28903
2083.04493,0.28880
2081.11619,0.28844
2079.18744,0.28799
2077.25870,0.28754
2075.32995,0.28706
2073.40121,0.28650
2071.47246,0.28590
2069.54371,0.28539
2067.61497,0.28505
2065.68622,0.28478
2063.75748,0.28441
2061.82873,0.28401
2059.89999,0.28382
2057.97124,0.28377
2056.04250,0.28368
2054.11375,0.28369
2052.18501,0.28397
2050.25626,0.28451
2048.32752,0.28507
2046.39877,0.28542
2044.47003,0.28577
2042.54128,0.28644
2040.61254,0.28736
2038.68379,0.28832
2036.75504,0.28922
2034.82630,0.29016
2032.89755,0.29123
2030.96881,0.29241
2029.04006,0.29364
2027.11132,0.29483
2025.18257,0.29599
2023.25383,0.29725
2021.32508,0.29868
2019.39634,0.30018
2017.46759,0.30163
2015.53885,0.30291
2013.61010,0.30389
2011.68136,0.30468
2009.75261,0.30554
2007.82386,0.30652
2005.89512,0.30739
2003.96637,0.30808
2002.03763,0.30879
2000.10888,0.30958
1998.18014,0.31042
1996.25139,0.31126
1994.32265,0.31209
1992.39390,0.31297
1990.46516,0.31377
1988.53641,0.31445
1986.60767,0.31512
1984.67892,0.31585
1982.75018,0.31658
1980.82143,0.31723
1978.89269,0.31790
1976.96394,0.31865
1975.03519,0.31937
1973.10645,0.32000
1971.17770,0.32060
1969.24896,0.32128
1967.32021,0.32210
1965.39147,0.32290
1963.46272,0.32373
1961.53398,0.32469
1959.60523,0.32567
1957.67649,0.32664
1955.74774,0.32769
1953.81900,0.32880
1951.89025,0.33002
1949.96151,0.33133
1948.03276,0.33252
1946.10402,0.33354
1944.17527,0.33459
1942.24652,0.33577
1940.31778,0.33687
1938.38903,0.33784
1936.46029,0.33884
1934.53154,0.33977
1932.60280,0.34046
1930.67405,0.34102
1928.74531,0.34155
1926.81656,0.34204
1924.88782,0.34256
1922.95907,0.34301
1921.03033,0.34325
1919.10158,0.34342
1917.17284,0.34367
1915.24409,0.34402
1913.31534,0.34440
1911.38660,0.34459
1909.45785,0.34452
1907.52911,0.34436
1905.60036,0.34429
1903.67162,0.34433
1901.74287,0.34429
1899.81413,0.34403
1897.88538,0.34368
1895.95664,0.34335
1894.02789,0.34307
1892.09915,0.34299
1890.17040,0.34311
1888.24166,0.34316
1886.31291,0.34297
1884.38417,0.34271
1882.45542,0.34250
1880.52667,0.34237
1878.59793,0.34224
1876.66918,0.34214
1874.74044,0.34206
1872.81169,0.34192
1870.88295,0.34181
1868.95420,0.34171
1867.02546,0.34146
1865.09671,0.34103
1863.16797,0.34056
1861.23922,0.34023
1859.31048,0.33999
1857.38173,0.33963
1855.45299,0.33911
1853.52424,0.33858
1851.59549,0.33804
1849.66675,0.33741
1847.73800,0.33669
1845.80926,0.33595
1843.88051,0.33520
1841.95177,0.33435
1840.02302,0.33343
1838.09428,0.33261
1836.16553,0.33191
1834.23679,0.33120
1832.30804,0.33043
1830.37930,0.32961
1828.45055,0.32855
1826.52181,0.32733
1824.59306,0.32601
1822.66432,0.32466
1820.73557,0.32336
1818.80682,0.32197
1816.87808,0.32046
1814.94933,0.31891
1813.02059,0.31736
1811.09184,0.31565
1809.16310,0.31375
1807.23435,0.31184
1805.30561,0.30991
1803.37686,0.30785
1801.44812,0.30552
1799.51937,0.30295
1797.59063,0.30022
1795.66188,0.29748
1793.73314,0.29456
1791.80439,0.29101
1789.87565,0.28706
1787.94690,0.28314
1786.01815,0.27900
1784.08941,0.27419
1782.16066,0.26855
1780.23192,0.26223
1778.30317,0.25550
1776.37443,0.24858
1774.44568,0.24098
1772.51694,0.23166
1770.58819,0.22112
1768.65945,0.21048
1766.73070,0.19981
1764.80196,0.18970
1762.87321,0.17953
1760.94447,0.16886
1759.01572,0.15913
1757.08697,0.15026
1755.15823,0.14224
1753.22948,0.13563
1751.30074,0.12986
1749.37199,0.12479
1747.44325,0.12080
1745.51450,0.11775
1743.58576,0.11545
1741.65701,0.11392
1739.72827,0.11316
1737.79952,0.11309
1735.87078,0.11356
1733.94203,0.11461
1732.01329,0.11618
1730.08454,0.11795
1728.15580,0.11995
1726.22705,0.12230
1724.29830,0.12504
1722.36956,0.12793
1720.44081,0.13093
1718.51207,0.13471
1716.58332,0.13942
1714.65458,0.14395
1712.72583,0.14793
1710.79709,0.15172
1708.86834,0.15538
1706.93960,0.15880
1705.01085,0.16162
1703.08211,0.16359
1701.15336,0.16488
1699.22462,0.16539
1697.29587,0.16492
1695.36713,0.16366
1693.43838,0.16221
1691.50963,0.16076
1689.58089,0.15871
1687.65214,0.15604
1685.72340,0.15263
1683.79465,0.14800
1681.86591,0.14343
1679.93716,0.13952
1678.00842,0.13555
1676.07967,0.13097
1674.15093,0.12596
1672.22218,0.12160
1670.29344,0.11772
1668.36469,0.11412
1666.43595,0.11157
1664.50720,0.10984
1662.57845,0.10853
1660.64971,0.10791
1658.72096,0.10804
1656.79222,0.10870
1654.86347,0.10974
1652.93473,0.11100
1651.00598,0.11169
1649.07724,0.11199
1647.14849,0.11223
1645.21975,0.11216
1643.29100,0.11187
1641.36226,0.11158
1639.43351,0.11143
1637.50477,0.11147
1635.57602,0.11155
1633.64728,0.11147
1631.71853,0.11143
1629.78978,0.11161
1627.86104,0.11181
1625.93229,0.11195
1624.00355,0.11182
1622.07480,0.11119
1620.14606,0.11037
1618.21731,0.10948
1616.28857,0.10817
1614.35982,0.10656
1612.43108,0.10503
1610.50233,0.10361
1608.57359,0.10228
1606.64484,0.10118
1604.71610,0.10064
1602.78735,0.10065
1600.85861,0.10090
1598.92986,0.10115
1597.00111,0.10120
1595.07237,0.10127
1593.14362,0.10177
1591.21488,0.10286
1589.28613,0.10453
1587.35739,0.10683
1585.42864,0.10992
1583.49990,0.11377
1581.57115,0.11820
1579.64241,0.12305
1577.71366,0.12884
1575.78492,0.13603
1573.85617,0.14292
1571.92743,0.14906
1569.99868,0.15540
1568.06993,0.16092
1566.14119,0.16489
1564.21244,0.16820
1562.28370,0.17102
1560.35495,0.17333
1558.42621,0.17501
1556.49746,0.17551
1554.56872,0.17560
1552.63997,0.17565
1550.71123,0.17540
1548.78248,0.17463
1546.85374,0.17351
1544.92499,0.17221
1542.99625,0.17054
1541.06750,0.16792
1539.13876,0.16380
1537.21001,0.15966
1535.28126,0.15540
1533.35252,0.14925
1531.42377,0.14172
1529.49503,0.13413
1527.56628,0.12569
1525.63754,0.11615
1523.70879,0.10633
1521.78005,0.09546
1519.85130,0.08486
1517.92256,0.07708
1515.99381,0.07155
1514.06507,0.06785
1512.13632,0.06609
1510.20758,0.06599
1508.27883,0.06725
1506.35008,0.06971
1504.42134,0.07265
1502.49259,0.07569
1500.56385,0.07923
1498.63510,0.08325
1496.70636,0.08721
1494.77761,0.09038
1492.84887,0.09250
1490.92012,0.09376
1488.99138,0.09424
1487.06263,0.09395
1485.13389,0.09293
1483.20514,0.09128
1481.27640,0.08914
1479.34765,0.08670
1477.41891,0.08406
1475.49016,0.08109
1473.56141,0.07733
1471.63267,0.07309
1469.70392,0.06982
1467.77518,0.06776
1465.84643,0.06659
1463.91769,0.06620
1461.98894,0.06623
1460.06020,0.06634
1458.13145,0.06635
1456.20271,0.06587
1454.27396,0.06524
1452.34522,0.06506
1450.41647,0.06528
1448.48773,0.06583
1446.55898,0.06667
1444.63024,0.06739
1442.70149,0.06748
1440.77274,0.06685
1438.84400,0.06570
1436.91525,0.06403
1434.98651,0.06240
1433.05776,0.06137
1431.12902,0.06077
1429.20027,0.06041
1427.27153,0.06042
1425.34278,0.06084
1423.41404,0.06150
1421.48529,0.06238
1419.55655,0.06361
1417.62780,0.06504
1415.69906,0.06633
1413.77031,0.06746
1411.84156,0.06844
1409.91282,0.06926
1407.98407,0.06989
1406.05533,0.07031
1404.12658,0.07056
1402.19784,0.07076
1400.26909,0.07081
1398.34035,0.07048
1396.41160,0.06982
1394.48286,0.06883
1392.55411,0.06751
1390.62537,0.06612
1388.69662,0.06463
1386.76788,0.06294
1384.83913,0.06123
1382.91039,0.05967
1380.98164,0.05843
1379.05289,0.05772
1377.12415,0.05745
1375.19540,0.05739
1373.26666,0.05743
1371.33791,0.05768
1369.40917,0.05822
1367.48042,0.05900
1365.55168,0.05988
1363.62293,0.06073
1361.69419,0.06155
1359.76544,0.06229
1357.83670,0.06286
1355.90795,0.06328
1353.97921,0.06379
1352.05046,0.06431
1350.12172,0.06447
1348.19297,0.06418
1346.26422,0.06363
1344.33548,0.06288
1342.40673,0.06224
1340.47799,0.06196
1338.54924,0.06178
1336.62050,0.06145
1334.69175,0.06109
1332.76301,0.06092
1330.83426,0.06088
1328.90552,0.06071
1326.97677,0.06039
1325.04803,0.06012
1323.11928,0.05994
1321.19054,0.05978
1319.26179,0.05974
1317.33304,0.06004
1315.40430,0.06067
1313.47555,0.06144
1311.54681,0.06207
1309.61806,0.06243
1307.68932,0.06273
1305.76057,0.06305
1303.83183,0.06330
1301.90308,0.06338
1299.97434,0.06318
1298.04559,0.06271
1296.11685,0.06218
1294.18810,0.06154
1292.25936,0.06057
1290.33061,0.05936
1288.40187,0.05811
1286.47312,0.05686
1284.54437,0.05558
1282.61563,0.05447
1280.68688,0.05369
1278.75814,0.05309
1276.82939,0.05255
1274.90065,0.05208
1272.97190,0.05170
1271.04316,0.05145
1269.11441,0.05150
1267.18567,0.05201
1265.25692,0.05276
1263.32818,0.05342
1261.39943,0.05404
1259.47069,0.05465
1257.54194,0.05512
1255.61320,0.05555
1253.68445,0.05612
1251.75570,0.05676
1249.82696,0.05727
1247.89821,0.05746
1245.96947,0.05739
1244.04072,0.05727
1242.11198,0.05705
1240.18323,0.05660
1238.25449,0.05609
1236.32574,0.05579
1234.39700,0.05571
1232.46825,0.05583
1230.53951,0.05608
1228.61076,0.05634
1226.68202,0.05654
1224.75327,0.05664
1222.82452,0.05678
1220.89578,0.05704
1218.96703,0.05730
1217.03829,0.05751
1215.10954,0.05772
1213.18080,0.05778
1211.25205,0.05756
1209.32331,0.05729
1207.39456,0.05722
1205.46582,0.05747
1203.53707,0.05793
1201.60833,0.05850
1199.67958,0.05916
1197.75084,0.05965
1195.82209,0.05969
1193.89335,0.05923
1191.96460,0.05839
1190.03585,0.05740
1188.10711,0.05636
1186.17836,0.05524
1184.24962,0.05380
1182.32087,0.05191
1180.39213,0.04990
1178.46338,0.04797
1176.53464,0.04625
1174.60589,0.04504
1172.67715,0.04457
1170.74840,0.04468
1168.81966,0.04519
1166.89091,0.04606
1164.96217,0.04713
1163.03342,0.04813
1161.10467,0.04882
1159.17593,0.04918
1157.24718,0.04940
1155.31844,0.04948
1153.38969,0.04932
1151.46095,0.04902
1149.53220,0.04854
1147.60346,0.04784
1145.67471,0.04700
1143.74597,0.04617
1141.81722,0.04550
1139.88848,0.04492
1137.95973,0.04420
1136.03099,0.04340
1134.10224,0.04278
1132.17350,0.04239
1130.24475,0.04199
1128.31600,0.04171
1126.38726,0.04197
1124.45851,0.04272
1122.52977,0.04342
1120.60102,0.04374
1118.67228,0.04380
1116.74353,0.04407
1114.81479,0.04491
1112.88604,0.04613
1110.95730,0.04726
1109.02855,0.04811
1107.09981,0.04872
1105.17106,0.04905
1103.24232,0.04914
1101.31357,0.04914
1099.38483,0.04892
1097.45608,0.04840
1095.52733,0.04782
1093.59859,0.04753
1091.66984,0.04776
1089.74110,0.04830
1087.81235,0.04885
1085.88361,0.04945
1083.95486,0.05035
1082.02612,0.05164
1080.09737,0.05309
1078.16863,0.05452
1076.23988,0.05587
1074.31114,0.05730
1072.38239,0.05911
1070.45365,0.06138
1068.52490,0.06381
1066.59615,0.06610
1064.66741,0.06836
1062.73866,0.07067
1060.80992,0.07289
1058.88117,0.07487
1056.95243,0.07632
1055.02368,0.07674
1053.09494,0.07627
1051.16619,0.07561
1049.23745,0.07500
1047.30870,0.07418
1045.37996,0.07327
1043.45121,0.07293
1041.52247,0.07367
1039.59372,0.07530
1037.66498,0.07726
1035.73623,0.07920
1033.80748,0.08100
1031.87874,0.08249
1029.94999,0.08347
1028.02125,0.08399
1026.09250,0.08431
1024.16376,0.08471
1022.23501,0.08530
1020.30627,0.08605
1018.37752,0.08678
1016.44878,0.08752
1014.52003,0.08830
1012.59129,0.08881
1010.66254,0.08897
1008.73380,0.08900
1006.80505,0.08899
1004.87631,0.08926
1002.94756,0.09003
1001.01881,0.09098
999.09007,0.09171
997.16132,0.09230
995.23258,0.09316
993.30383,0.09440
991.37509,0.09577
989.44634,0.09734
987.51760,0.09928
985.58885,0.10157
983.66011,0.10409
981.73136,0.10670
979.80262,0.10911
977.87387,0.11090
975.94513,0.11185
974.01638,0.11224
972.08763,0.11265
970.15889,0.11337
968.23014,0.11427
966.30140,0.11520
964.37265,0.11619
962.44391,0.11732
960.51516,0.11868
958.58642,0.12032
956.65767,0.12216
954.72893,0.12400
952.80018,0.12563
950.87144,0.12707
948.94269,0.12826
947.01395,0.12890
945.08520,0.12918
943.15646,0.12966
941.22771,0.13057
939.29896,0.13187
937.37022,0.13326
935.44147,0.13427
933.51273,0.13496
931.58398,0.13577
929.65524,0.13658
927.72649,0.13716
925.79775,0.13757
923.86900,0.13770
921.94026,0.13735
920.01151,0.13665
918.08277,0.13580
916.15402,0.13467
914.22528,0.13285
912.29653,0.13038
910.36779,0.12777
908.43904,0.12521
906.51029,0.12262
904.58155,0.12001
902.65280,0.11752
900.72406,0.11560
898.79531,0.11475
896.86657,0.11485
894.93782,0.11576
893.00908,0.11740
891.08033,0.11948
889.15159,0.12171
887.22284,0.12368
885.29410,0.12505
883.36535,0.12590
881.43661,0.12637
879.50786,0.12654
877.57911,0.12672
875.65037,0.12702
873.72162,0.12738
871.79288,0.12794
869.86413,0.12869
867.93539,0.12920
866.00664,0.12929
864.07790,0.12944
862.14915,0.13010
860.22041,0.13111
858.29166,0.13229
856.36292,0.13357
854.43417,0.13483
852.50543,0.13620
850.57668,0.13772
848.64794,0.13915
846.71919,0.14037
844.79044,0.14115
842.86170,0.14124
840.93295,0.14078
839.00421,0.13991
837.07546,0.13872
835.14672,0.13743
833.21797,0.13621
831.28923,0.13496
829.36048,0.13350
827.43174,0.13212
825.50299,0.13095
823.57425,0.12943
821.64550,0.12732
819.71676,0.12505
817.78801,0.12306
815.85926,0.12129
813.93052,0.11985
812.00177,0.11916
810.07303,0.11896
808.14428,0.11851
806.21554,0.11830
804.28679,0.11905
802.35805,0.12028
800.42930,0.12137
798.50056,0.12239
796.57181,0.12331
794.64307,0.12395
792.71432,0.12436
790.78558,0.12445
788.85683,0.12384
786.92809,0.12256
784.99934,0.12139
783.07059,0.12090
781.14185,0.12053
779.21310,0.11962
777.28436,0.11852
775.35561,0.11752
773.42687,0.11646
771.49812,0.11560
769.56938,0.11531
767.64063,0.11528
765.71189,0.11493
763.78314,0.11423
761.85440,0.11356
759.92565,0.11300
757.99691,0.11247
756.06816,0.11214
754.13942,0.11191
752.21067,0.11132
750.28192,0.11045
748.35318,0.10951
746.42443,0.10847
744.49569,0.10760
742.56694,0.10707
740.63820,0.10644
738.70945,0.10548
736.78071,0.10436
734.85196,0.10326
732.92322,0.10231
730.99447,0.10135
729.06573,0.10031
727.13698,0.09951
725.20824,0.09885
723.27949,0.09818
721.35074,0.09782
719.42200,0.09758
717.49325,0.09679
715.56451,0.09546
713.63576,0.09465
711.70702,0.09465
709.77827,0.09436
707.84953,0.09366
705.92078,0.09323
703.99204,0.09286
702.06329,0.09234
700.13455,0.09204
698.20580,0.09174
696.27706,0.09100
694.34831,0.08991
692.41957,0.08896
690.49082,0.08846
688.56207,0.08825
686.63333,0.08799
684.70458,0.08735
682.77584,0.08629
680.84709,0.08518
678.91835,0.08438
676.98960,0.08352
675.06086,0.08222
673.13211,0.08113
671.20337,0.08073
669.27462,0.08089
667.34588,0.08137
665.41713,0.08174
663.48839,0.08193
661.55964,0.08214
659.63090,0.08242
657.70215,0.08278
655.77340,0.08329
653.84466,0.08357
651.91591,0.08292
649.98717,0.08169
648.05842,0.08124
646.12968,0.08179
644.20093,0.08174
642.27219,0.08068
640.34344,0.07989
638.41470,0.07913
636.48595,0.07772
634.55721,0.07644
632.62846,0.07598
630.69972,0.07581
628.77097,0.07550
626.84222,0.07524
624.91348,0.07555
622.98473,0.07675
621.05599,0.07767
619.12724,0.07749
617.19850,0.07702
615.26975,0.07690
613.34101,0.07774
611.41226,0.07938
609.48352,0.08035
607.55477,0.08047
605.62603,0.08063
603.69728,0.08102
601.76854,0.08165
599.83979,0.08271
