7497.03301,0.84121
7495.10426,0.83417
7493.17552,0.83311
7491.24677,0.83170
7489.31803,0.83029
7487.38928,0.83074
7485.46054,0.83026
7483.53179,0.82853
7481.60305,0.82887
7479.67430,0.83015
7477.74556,0.82946
7475.81681,0.82893
7473.88807,0.83144
7471.95932,0.83634
7470.03057,0.83949
7468.10183,0.83886
7466.17308,0.83763
7464.24434,0.83696
7462.31559,0.83821
7460.38685,0.84170
7458.45810,0.84081
7456.52936,0.83559
7454.60061,0.83352
7452.67187,0.83502
7450.74312,0.83587
7448.81438,0.83591
7446.88563,0.83636
7444.95689,0.83331
7443.02814,0.82699
7441.09940,0.82214
7439.17065,0.81899
7437.24190,0.81931
7435.31316,0.82278
7433.38441,0.82482
7431.45567,0.82484
7429.52692,0.82475
7427.59818,0.82576
7425.66943,0.82708
7423.74069,0.82784
7421.81194,0.82577
7419.88320,0.81994
7417.95445,0.81512
7416.02571,0.81225
7414.09696,0.81153
7412.16822,0.81466
7410.23947,0.81805
7408.31073,0.82006
7406.38198,0.82153
7404.45323,0.82043
7402.52449,0.81425
7400.59574,0.80539
7398.66700,0.80219
7396.73825,0.80665
7394.80951,0.81144
7392.88076,0.81416
7390.95202,0.81689
7389.02327,0.81565
7387.09453,0.80932
7385.16578,0.80744
7383.23704,0.81176
7381.30829,0.81320
7379.37955,0.81082
7377.45080,0.80821
7375.52205,0.80507
7373.59331,0.80289
7371.66456,0.80291
7369.73582,0.80257
7367.80707,0.80095
7365.87833,0.80142
7363.94958,0.80376
7362.02084,0.80284
7360.09209,0.80093
7358.16335,0.80313
7356.23460,0.80563
7354.30586,0.80606
7352.37711,0.80632
7350.44837,0.80354
7348.51962,0.79836
7346.59088,0.79613
7344.66213,0.79577
7342.73338,0.79625
7340.80464,0.80148
7338.87589,0.80826
7336.94715,0.80878
7335.01840,0.80323
7333.08966,0.79765
7331.16091,0.79647
7329.23217,0.79704
7327.30342,0.79605
7325.37468,0.79681
7323.44593,0.79880
7321.51719,0.79700
7319.58844,0.79233
7317.65970,0.78887
7315.73095,0.78960
7313.80221,0.79373
7311.87346,0.79439
7309.94471,0.78894
7308.01597,0.78289
7306.08722,0.77876
7304.15848,0.77887
7302.22973,0.78492
7300.30099,0.78834
7298.37224,0.78567
7296.44350,0.78506
7294.51475,0.78749
7292.58601,0.78878
7290.65726,0.78927
7288.72852,0.78969
7286.79977,0.79018
7284.87103,0.79110
7282.94228,0.79043
7281.01353,0.78671
7279.08479,0.78350
7277.15604,0.78231
7275.22730,0.78056
7273.29855,0.77999
7271.36981,0.78273
7269.44106,0.78488
7267.51232,0.78330
7265.58357,0.77928
7263.65483,0.77665
7261.72608,0.77980
7259.79734,0.78635
7257.86859,0.78791
7255.93985,0.78409
7254.01110,0.78125
7252.08236,0.78091
7250.15361,0.78193
7248.22486,0.78430
7246.29612,0.78578
7244.36737,0.78596
7242.43863,0.78784
7240.50988,0.78867
7238.58114,0.78513
7236.65239,0.78085
7234.72365,0.77962
7232.79490,0.78122
7230.86616,0.78210
7228.93741,0.78110
7227.00867,0.78042
7225.07992,0.78083
7223.15118,0.78238
7221.22243,0.78372
7219.29369,0.78253
7217.36494,0.77883
7215.43619,0.77531
7213.50745,0.77526
7211.57870,0.77717
7209.64996,0.77727
7207.72121,0.77664
7205.79247,0.77678
7203.86372,0.77764
7201.93498,0.77837
7200.00623,0.77568
7198.07749,0.77093
7196.14874,0.76753
7194.22000,0.76524
7192.29125,0.76583
7190.36251,0.76827
7188.43376,0.76933
7186.50501,0.77053
7184.57627,0.77090
7182.64752,0.76768
7180.71878,0.76317
7178.79003,0.76055
7176.86129,0.76096
7174.93254,0.76415
7173.00380,0.76620
7171.07505,0.76368
7169.14631,0.76059
7167.21756,0.76085
7165.28882,0.76203
7163.36007,0.76263
7161.43133,0.76338
7159.50258,0.76218
7157.57384,0.75764
7155.64509,0.75431
7153.71634,0.75580
7151.78760,0.75690
7149.85885,0.75145
7147.93011,0.74316
7146.00136,0.73938
7144.07262,0.74077
7142.14387,0.74435
7140.21513,0.74863
7138.28638,0.75129
7136.35764,0.75081
7134.42889,0.75009
7132.50015,0.75026
7130.57140,0.74740
7128.64266,0.74210
7126.71391,0.74094
7124.78516,0.74313
7122.85642,0.74190
7120.92767,0.73953
7118.99893,0.73912
7117.07018,0.73599
7115.14144,0.73062
7113.21269,0.72748
7111.28395,0.72698
7109.35520,0.72701
7107.42646,0.72563
7105.49771,0.72455
7103.56897,0.72555
7101.64022,0.72797
7099.71148,0.72960
7097.78273,0.72715
7095.85399,0.72143
7093.92524,0.71677
7091.99649,0.71666
7090.06775,0.72076
7088.13900,0.72464
7086.21026,0.72428
7084.28151,0.71879
7082.35277,0.71282
7080.42402,0.71064
7078.49528,0.70782
7076.56653,0.70164
7074.63779,0.69701
7072.70904,0.69519
7070.78030,0.69287
7068.85155,0.69052
7066.92281,0.69150
7064.99406,0.69505
7063.06532,0.69539
7061.13657,0.69106
7059.20782,0.68827
7057.27908,0.69050
7055.35033,0.69274
7053.42159,0.68844
7051.49284,0.68004
7049.56410,0.67514
7047.63535,0.67484
7045.70661,0.67426
7043.77786,0.67097
7041.84912,0.66715
7039.92037,0.66539
7037.99163,0.66623
7036.06288,0.66714
7034.13414,0.66460
7032.20539,0.66091
7030.27664,0.66079
7028.34790,0.66255
7026.41915,0.66184
7024.49041,0.65940
7022.56166,0.65885
7020.63292,0.66119
7018.70417,0.66363
7016.77543,0.66208
7014.84668,0.65671
7012.91794,0.65264
7010.98919,0.65368
7009.06045,0.65856
7007.13170,0.66162
7005.20296,0.65947
7003.27421,0.65525
7001.34547,0.65236
6999.41672,0.65020
6997.48797,0.64753
6995.55923,0.64448
6993.63048,0.64221
6991.70174,0.64228
6989.77299,0.64337
6987.84425,0.64218
6985.91550,0.64006
6983.98676,0.64018
6982.05801,0.64099
6980.12927,0.64044
6978.20052,0.63901
6976.27178,0.63740
6974.34303,0.63658
6972.41429,0.63690
6970.48554,0.63683
6968.55680,0.63469
6966.62805,0.63254
6964.69930,0.63409
6962.77056,0.63728
6960.84181,0.63785
6958.91307,0.63590
6956.98432,0.63345
6955.05558,0.63223
6953.12683,0.63380
6951.19809,0.63710
6949.26934,0.63847
6947.34060,0.63771
6945.41185,0.63739
6943.48311,0.63718
6941.55436,0.63577
6939.62562,0.63295
6937.69687,0.62974
6935.76812,0.62808
6933.83938,0.62776
6931.91063,0.62797
6929.98189,0.62851
6928.05314,0.62966
6926.12440,0.63250
6924.19565,0.63431
6922.26691,0.63203
6920.33816,0.62996
6918.40942,0.63102
6916.48067,0.63263
6914.55193,0.63321
6912.62318,0.63232
6910.69444,0.63117
6908.76569,0.62994
6906.83695,0.62685
6904.90820,0.62551
6902.97945,0.62836
6901.05071,0.63044
6899.12196,0.62999
6897.19322,0.62926
6895.26447,0.62811
6893.33573,0.62743
6891.40698,0.62848
6889.47824,0.63011
6887.54949,0.63128
6885.62075,0.63120
6883.69200,0.63038
6881.76326,0.62995
6879.83451,0.62907
6877.90577,0.62768
6875.97702,0.62735
6874.04828,0.62747
6872.11953,0.62665
6870.19078,0.62658
6868.26204,0.62754
6866.33329,0.62693
6864.40455,0.62546
6862.47580,0.62462
6860.54706,0.62368
6858.61831,0.62293
6856.68957,0.62378
6854.76082,0.62640
6852.83208,0.62905
6850.90333,0.63046
6848.97459,0.63071
6847.04584,0.63006
6845.11710,0.62882
6843.18835,0.62748
6841.25960,0.62604
6839.33086,0.62272
6837.40211,0.61771
6835.47337,0.61591
6833.54462,0.61922
6831.61588,0.62349
6829.68713,0.62539
6827.75839,0.62492
6825.82964,0.62488
6823.90090,0.62823
6821.97215,0.63161
6820.04341,0.63088
6818.11466,0.62850
6816.18592,0.62676
6814.25717,0.62537
6812.32843,0.62514
6810.39968,0.62693
6808.47093,0.63001
6806.54219,0.63231
6804.61344,0.63252
6802.68470,0.63107
6800.75595,0.62803
6798.82721,0.62487
6796.89846,0.62585
6794.96972,0.62939
6793.04097,0.62930
6791.11223,0.62693
6789.18348,0.62701
6787.25474,0.62852
6785.32599,0.62877
6783.39725,0.62736
6781.46850,0.62485
6779.53975,0.62325
6777.61101,0.62337
6775.68226,0.62340
6773.75352,0.62458
6771.82477,0.62842
6769.89603,0.63112
6767.96728,0.63046
6766.03854,0.62887
6764.10979,0.62728
6762.18105,0.62502
6760.25230,0.62340
6758.32356,0.62340
6756.39481,0.62530
6754.46607,0.62903
6752.53732,0.63065
6750.60858,0.62807
6748.67983,0.62502
6746.75108,0.62429
6744.82234,0.62541
6742.89359,0.62540
6740.96485,0.62388
6739.03610,0.62512
6737.10736,0.62847
6735.17861,0.63061
6733.24987,0.63215
6731.32112,0.63218
6729.39238,0.63082
6727.46363,0.63175
6725.53489,0.63457
6723.60614,0.63556
6721.67740,0.63425
6719.74865,0.63199
6717.81991,0.62937
6715.89116,0.62814
6713.96241,0.62973
6712.03367,0.63169
6710.10492,0.63130
6708.17618,0.62977
6706.24743,0.62947
6704.31869,0.63132
6702.38994,0.63494
6700.46120,0.63786
6698.53245,0.63769
6696.60371,0.63518
6694.67496,0.63413
6692.74622,0.63680
6690.81747,0.63926
6688.88873,0.63850
6686.95998,0.63777
6685.03123,0.63824
6683.10249,0.63725
6681.17374,0.63547
6679.24500,0.63583
6677.31625,0.63752
6675.38751,0.63829
6673.45876,0.63866
6671.53002,0.63930
6669.60127,0.64021
6667.67253,0.64202
6665.74378,0.64293
6663.81504,0.64067
6661.88629,0.63826
6659.95755,0.63838
6658.02880,0.63917
6656.10006,0.63959
6654.17131,0.64000
6652.24256,0.64026
6650.31382,0.64034
6648.38507,0.64132
6646.45633,0.64385
6644.52758,0.64587
6642.59884,0.64554
6640.67009,0.64406
6638.74135,0.64390
6636.81260,0.64538
6634.88386,0.64699
6632.95511,0.64742
6631.02637,0.64618
6629.09762,0.64442
6627.16888,0.64411
6625.24013,0.64581
6623.31139,0.64804
6621.38264,0.64944
6619.45389,0.64979
6617.52515,0.64784
6615.59640,0.64556
6613.66766,0.64760
6611.73891,0.65083
6609.81017,0.64947
6607.88142,0.64705
6605.95268,0.64813
6604.02393,0.65051
6602.09519,0.65158
6600.16644,0.65077
6598.23770,0.64948
6596.30895,0.64997
6594.38021,0.65103
6592.45146,0.65099
6590.52271,0.65038
6588.59397,0.64995
6586.66522,0.65103
6584.73648,0.65309
6582.80773,0.65329
6580.87899,0.65246
6578.95024,0.65290
6577.02150,0.65283
6575.09275,0.65159
6573.16401,0.65118
6571.23526,0.65189
6569.30652,0.65300
6567.37777,0.65346
6565.44903,0.65270
6563.52028,0.65172
6561.59154,0.65106
6559.66279,0.65101
6557.73404,0.65220
6555.80530,0.65395
6553.87655,0.65538
6551.94781,0.65636
6550.01906,0.65675
6548.09032,0.65692
6546.16157,0.65630
6544.23283,0.65436
6542.30408,0.65386
6540.37534,0.65549
6538.44659,0.65551
6536.51785,0.65357
6534.58910,0.65302
6532.66036,0.65325
6530.73161,0.65247
6528.80287,0.65284
6526.87412,0.65463
6524.94537,0.65603
6523.01663,0.65749
6521.08788,0.65853
6519.15914,0.65773
6517.23039,0.65514
6515.30165,0.65317
6513.37290,0.65418
6511.44416,0.65598
6509.51541,0.65718
6507.58667,0.65878
6505.65792,0.65861
6503.72918,0.65674
6501.80043,0.65638
6499.87169,0.65745
6497.94294,0.65907
6496.01419,0.66036
6494.08545,0.66043
6492.15670,0.66080
6490.22796,0.66108
6488.29921,0.65865
6486.37047,0.65537
6484.44172,0.65487
6482.51298,0.65645
6480.58423,0.65847
6478.65549,0.66043
6476.72674,0.66133
6474.79800,0.66128
6472.86925,0.66149
6470.94051,0.66275
6469.01176,0.66410
6467.08302,0.66353
6465.15427,0.66160
6463.22552,0.65976
6461.29678,0.65845
6459.36803,0.65858
6457.43929,0.66014
6455.51054,0.66182
6453.58180,0.66292
6451.65305,0.66292
6449.72431,0.66195
6447.79556,0.66239
6445.86682,0.66374
6443.93807,0.66301
6442.00933,0.66264
6440.08058,0.66471
6438.15184,0.66605
6436.22309,0.66517
6434.29434,0.66319
6432.36560,0.66127
6430.43685,0.66022
6428.50811,0.66010
6426.57936,0.66068
6424.65062,0.66185
6422.72187,0.66286
6420.79313,0.66293
6418.86438,0.66362
6416.93564,0.66637
6415.00689,0.66937
6413.07815,0.66964
6411.14940,0.66734
6409.22066,0.66618
6407.29191,0.66761
6405.36317,0.66907
6403.43442,0.66926
6401.50567,0.66882
6399.57693,0.66757
6397.64818,0.66539
6395.71944,0.66370
6393.79069,0.66356
6391.86195,0.66422
6389.93320,0.66430
6388.00446,0.66387
6386.07571,0.66437
6384.14697,0.66563
6382.21822,0.66678
6380.28948,0.66824
6378.36073,0.66955
6376.43199,0.67031
6374.50324,0.67148
6372.57450,0.67157
6370.64575,0.66815
6368.71700,0.66422
6366.78826,0.66422
6364.85951,0.66672
6362.93077,0.66816
6361.00202,0.66828
6359.07328,0.66841
6357.14453,0.66898
6355.21579,0.67010
6353.28704,0.67160
6351.35830,0.67248
6349.42955,0.67176
6347.50081,0.66991
6345.57206,0.66915
6343.64332,0.66981
6341.71457,0.66930
6339.78582,0.66726
6337.85708,0.66614
6335.92833,0.66675
6333.99959,0.66792
6332.07084,0.66864
6330.14210,0.66880
6328.21335,0.66911
6326.28461,0.67006
6324.35586,0.67076
6322.42712,0.67038
6320.49837,0.66933
6318.56963,0.66789
6316.64088,0.66654
6314.71214,0.66720
6312.78339,0.66897
6310.85465,0.66969
6308.92590,0.67115
6306.99715,0.67333
6305.06841,0.67415
6303.13966,0.67470
6301.21092,0.67558
6299.28217,0.67496
6297.35343,0.67207
6295.42468,0.66987
6293.49594,0.67083
6291.56719,0.67263
6289.63845,0.67358
6287.70970,0.67568
6285.78096,0.67848
6283.85221,0.67908
6281.92347,0.67857
6279.99472,0.67900
6278.06598,0.67848
6276.13723,0.67623
6274.20848,0.67480
6272.27974,0.67519
6270.35099,0.67596
6268.42225,0.67670
6266.49350,0.67807
6264.56476,0.67976
6262.63601,0.68138
6260.70727,0.68266
6258.77852,0.68280
6256.84978,0.68264
6254.92103,0.68335
6252.99229,0.68312
6251.06354,0.68143
6249.13480,0.68127
6247.20605,0.68328
6245.27730,0.68514
6243.34856,0.68608
6241.41981,0.68654
6239.49107,0.68665
6237.56232,0.68681
6235.63358,0.68657
6233.70483,0.68690
6231.77609,0.68960
6229.84734,0.69184
6227.91860,0.69122
6225.98985,0.69014
6224.06111,0.69018
6222.13236,0.69089
6220.20362,0.69159
6218.27487,0.69131
6216.34613,0.69105
6214.41738,0.69251
6212.48863,0.69347
6210.55989,0.69286
6208.63114,0.69394
6206.70240,0.69696
6204.77365,0.69913
6202.84491,0.69948
6200.91616,0.69861
6198.98742,0.69696
6197.05867,0.69515
6195.12993,0.69451
6193.20118,0.69605
6191.27244,0.69899
6189.34369,0.70101
6187.41495,0.70106
6185.48620,0.70017
6183.55746,0.69977
6181.62871,0.70064
6179.69996,0.70196
6177.77122,0.70257
6175.84247,0.70298
6173.91373,0.70349
6171.98498,0.70385
6170.05624,0.70453
6168.12749,0.70479
6166.19875,0.70481
6164.27000,0.70648
6162.34126,0.70799
6160.41251,0.70715
6158.48377,0.70630
6156.55502,0.70764
6154.62628,0.70920
6152.69753,0.70899
6150.76878,0.70871
6148.84004,0.70927
6146.91129,0.70907
6144.98255,0.70802
6143.05380,0.70830
6141.12506,0.70988
6139.19631,0.70917
6137.26757,0.70699
6135.33882,0.70821
6133.41008,0.71209
6131.48133,0.71365
6129.55259,0.71211
6127.62384,0.71111
6125.69510,0.71241
6123.76635,0.71421
6121.83761,0.71470
6119.90886,0.71385
6117.98011,0.71264
6116.05137,0.71280
6114.12262,0.71511
6112.19388,0.71728
6110.26513,0.71709
6108.33639,0.71598
6106.40764,0.71613
6104.47890,0.71656
6102.55015,0.71575
6100.62141,0.71506
6098.69266,0.71614
6096.76392,0.71800
6094.83517,0.71799
6092.90643,0.71587
6090.97768,0.71415
6089.04893,0.71387
6087.12019,0.71480
6085.19144,0.71694
6083.26270,0.71915
6081.33395,0.72014
6079.40521,0.72050
6077.47646,0.72041
6075.54772,0.71909
6073.61897,0.71804
6071.69023,0.71848
6069.76148,0.71907
6067.83274,0.71942
6065.90399,0.71968
6063.97525,0.71961
6062.04650,0.71944
6060.11776,0.71900
6058.18901,0.71862
6056.26026,0.71868
6054.33152,0.71759
6052.40277,0.71477
6050.47403,0.71286
6048.54528,0.71331
6046.61654,0.71416
6044.68779,0.71393
6042.75905,0.71304
6040.83030,0.71172
6038.90156,0.71015
6036.97281,0.70891
6035.04407,0.70818
6033.11532,0.70780
6031.18658,0.70804
6029.25783,0.70949
6027.32909,0.71123
6025.40034,0.71148
6023.47159,0.71045
6021.54285,0.70964
6019.61410,0.70900
6017.68536,0.70717
6015.75661,0.70514
6013.82787,0.70521
6011.89912,0.70656
6009.97038,0.70698
6008.04163,0.70624
6006.11289,0.70533
6004.18414,0.70466
6002.25540,0.70375
6000.32665,0.70323
5998.39791,0.70418
5996.46916,0.70466
5994.54041,0.70281
5992.61167,0.70105
5990.68292,0.70136
5988.75418,0.70158
5986.82543,0.70015
5984.89669,0.69802
5982.96794,0.69653
5981.03920,0.69678
5979.11045,0.69792
5977.18171,0.69898
5975.25296,0.70053
5973.32422,0.70106
5971.39547,0.69965
5969.46673,0.69860
5967.53798,0.69884
5965.60924,0.69946
5963.68049,0.70028
5961.75174,0.70124
5959.82300,0.70169
5957.89425,0.70138
5955.96551,0.70080
5954.03676,0.70007
5952.10802,0.69927
5950.17927,0.69961
5948.25053,0.70095
5946.32178,0.70182
5944.39304,0.70298
5942.46429,0.70433
5940.53555,0.70356
5938.60680,0.70126
5936.67806,0.69993
5934.74931,0.70047
5932.82057,0.70172
5930.89182,0.70181
5928.96307,0.70113
5927.03433,0.70143
5925.10558,0.70226
5923.17684,0.70223
5921.24809,0.70129
5919.31935,0.70010
5917.39060,0.69946
5915.46186,0.69881
5913.53311,0.69782
5911.60437,0.69754
5909.67562,0.69762
5907.74688,0.69745
5905.81813,0.69754
5903.88939,0.69778
5901.96064,0.69742
5900.03189,0.69696
5898.10315,0.69732
5896.17440,0.69725
5894.24566,0.69646
5892.31691,0.69654
5890.38817,0.69668
5888.45942,0.69598
5886.53068,0.69545
5884.60193,0.69509
5882.67319,0.69443
5880.74444,0.69422
5878.81570,0.69484
5876.88695,0.69551
5874.95821,0.69527
5873.02946,0.69402
5871.10072,0.69301
5869.17197,0.69272
5867.24322,0.69224
5865.31448,0.69158
5863.38573,0.69192
5861.45699,0.69316
5859.52824,0.69356
5857.59950,0.69257
5855.67075,0.69140
5853.74201,0.69128
5851.81326,0.69206
5849.88452,0.69238
5847.95577,0.69151
5846.02703,0.69004
5844.09828,0.68943
5842.16954,0.69014
5840.24079,0.69061
5838.31205,0.69049
5836.38330,0.69113
5834.45455,0.69206
5832.52581,0.69226
5830.59706,0.69244
5828.66832,0.69279
5826.73957,0.69291
5824.81083,0.69296
5822.88208,0.69268
5820.95334,0.69158
5819.02459,0.69013
5817.09585,0.68935
5815.16710,0.68925
5813.23836,0.68877
5811.30961,0.68783
5809.38087,0.68657
5807.45212,0.68516
5805.52337,0.68511
5803.59463,0.68648
5801.66588,0.68796
5799.73714,0.68920
5797.80839,0.68910
5795.87965,0.68776
5793.95090,0.68739
5792.02216,0.68730
5790.09341,0.68633
5788.16467,0.68643
5786.23592,0.68799
5784.30718,0.68901
5782.37843,0.68884
5780.44969,0.68764
5778.52094,0.68619
5776.59220,0.68602
5774.66345,0.68678
5772.73470,0.68705
5770.80596,0.68733
5768.87721,0.68864
5766.94847,0.69025
5765.01972,0.69103
5763.09098,0.69111
5761.16223,0.69094
5759.23349,0.69048
5757.30474,0.69001
5755.37600,0.68976
5753.44725,0.68968
5751.51851,0.68962
5749.58976,0.68903
5747.66102,0.68843
5745.73227,0.68911
5743.80352,0.69057
5741.87478,0.69093
5739.94603,0.68990
5738.01729,0.68974
5736.08854,0.69099
5734.15980,0.69160
5732.23105,0.69181
5730.30231,0.69292
5728.37356,0.69362
5726.44482,0.69275
5724.51607,0.69154
5722.58733,0.69090
5720.65858,0.69064
5718.72984,0.69102
5716.80109,0.69146
5714.87235,0.69065
5712.94360,0.68911
5711.01485,0.68862
5709.08611,0.68920
5707.15736,0.68906
5705.22862,0.68827
5703.29987,0.68843
5701.37113,0.68942
5699.44238,0.68985
5697.51364,0.68934
5695.58489,0.68857
5693.65615,0.68788
5691.72740,0.68742
5689.79866,0.68744
5687.86991,0.68766
5685.94117,0.68741
5684.01242,0.68651
5682.08368,0.68584
5680.15493,0.68633
5678.22618,0.68734
5676.29744,0.68764
5674.36869,0.68686
5672.43995,0.68598
5670.51120,0.68644
5668.58246,0.68753
5666.65371,0.68742
5664.72497,0.68692
5662.79622,0.68720
5660.86748,0.68737
5658.93873,0.68671
5657.00999,0.68592
5655.08124,0.68572
5653.15250,0.68548
5651.22375,0.68453
5649.29500,0.68428
5647.36626,0.68581
5645.43751,0.68711
5643.50877,0.68628
5641.58002,0.68499
5639.65128,0.68488
5637.72253,0.68503
5635.79379,0.68551
5633.86504,0.68654
5631.93630,0.68661
5630.00755,0.68613
5628.07881,0.68653
5626.15006,0.68725
5624.22132,0.68775
5622.29257,0.68839
5620.36383,0.68881
5618.43508,0.68837
5616.50633,0.68766
5614.57759,0.68746
5612.64884,0.68754
5610.72010,0.68740
5608.79135,0.68647
5606.86261,0.68504
5604.93386,0.68407
5603.00512,0.68394
5601.07637,0.68456
5599.14763,0.68490
5597.21888,0.68463
5595.29014,0.68499
5593.36139,0.68539
5591.43265,0.68460
5589.50390,0.68419
5587.57516,0.68564
5585.64641,0.68802
5583.71766,0.68951
5581.78892,0.68925
5579.86017,0.68815
5577.93143,0.68721
5576.00268,0.68647
5574.07394,0.68625
5572.14519,0.68662
5570.21645,0.68704
5568.28770,0.68754
5566.35896,0.68793
5564.43021,0.68744
5562.50147,0.68691
5560.57272,0.68810
5558.64398,0.68994
5556.71523,0.69006
5554.78648,0.68922
5552.85774,0.68924
5550.92899,0.69005
5549.00025,0.69098
5547.07150,0.69148
5545.14276,0.69129
5543.21401,0.69101
5541.28527,0.69125
5539.35652,0.69125
5537.42778,0.69048
5535.49903,0.68978
5533.57029,0.68974
5531.64154,0.68975
5529.71280,0.68947
5527.78405,0.68965
5525.85531,0.69071
5523.92656,0.69187
5521.99781,0.69242
5520.06907,0.69233
5518.14032,0.69220
5516.21158,0.69196
5514.28283,0.69100
5512.35409,0.69060
5510.42534,0.69179
5508.49660,0.69236
5506.56785,0.69091
5504.63911,0.68958
5502.71036,0.69030
5500.78162,0.69219
5498.85287,0.69356
5496.92413,0.69369
5494.99538,0.69328
5493.06664,0.69357
5491.13789,0.69419
5489.20914,0.69398
5487.28040,0.69304
5485.35165,0.69235
5483.42291,0.69248
5481.49416,0.69289
5479.56542,0.69327
5477.63667,0.69395
5475.70793,0.69430
5473.77918,0.69397
5471.85044,0.69418
5469.92169,0.69524
5467.99295,0.69590
5466.06420,0.69568
5464.13546,0.69514
5462.20671,0.69496
5460.27796,0.69545
5458.34922,0.69591
5456.42047,0.69627
5454.49173,0.69716
5452.56298,0.69776
5450.63424,0.69739
5448.70549,0.69702
5446.77675,0.69732
5444.84800,0.69813
5442.91926,0.69902
5440.99051,0.69933
5439.06177,0.69937
5437.13302,0.69972
5435.20428,0.69956
5433.27553,0.69860
5431.34679,0.69821
5429.41804,0.69931
5427.48929,0.70134
5425.56055,0.70295
5423.63180,0.70371
5421.70306,0.70417
5419.77431,0.70449
5417.84557,0.70473
5415.91682,0.70504
5413.98808,0.70494
5412.05933,0.70424
5410.13059,0.70376
5408.20184,0.70376
5406.27310,0.70406
5404.34435,0.70505
5402.41561,0.70642
5400.48686,0.70684
5398.55811,0.70600
5396.62937,0.70504
5394.70062,0.70505
5392.77188,0.70558
5390.84313,0.70573
5388.91439,0.70568
5386.98564,0.70584
5385.05690,0.70624
5383.12815,0.70667
5381.19941,0.70705
5379.27066,0.70776
5377.34192,0.70855
5375.41317,0.70821
5373.48443,0.70703
5371.55568,0.70647
5369.62694,0.70662
5367.69819,0.70705
5365.76944,0.70755
5363.84070,0.70746
5361.91195,0.70658
5359.98321,0.70572
5358.05446,0.70562
5356.12572,0.70600
5354.19697,0.70591
5352.26823,0.70502
5350.33948,0.70400
5348.41074,0.70366
5346.48199,0.70389
5344.55325,0.70406
5342.62450,0.70376
5340.69576,0.70274
5338.76701,0.70147
5336.83827,0.70051
5334.90952,0.69947
5332.98077,0.69789
5331.05203,0.69634
5329.12328,0.69586
5327.19454,0.69637
5325.26579,0.69630
5323.33705,0.69434
5321.40830,0.69138
5319.47956,0.68937
5317.55081,0.68870
5315.62207,0.68814
5313.69332,0.68666
5311.76458,0.68467
5309.83583,0.68314
5307.90709,0.68156
5305.97834,0.67930
5304.04959,0.67713
5302.12085,0.67532
5300.19210,0.67317
5298.26336,0.67045
5296.33461,0.66758
5294.40587,0.66523
5292.47712,0.66314
5290.54838,0.66051
5288.61963,0.65790
5286.69089,0.65552
5284.76214,0.65247
5282.83340,0.64907
5280.90465,0.64583
5278.97591,0.64232
5277.04716,0.63834
5275.11842,0.63417
5273.18967,0.63011
5271.26092,0.62640
5269.33218,0.62320
5267.40343,0.62008
5265.47469,0.61637
5263.54594,0.61206
5261.61720,0.60780
5259.68845,0.60427
5257.75971,0.60156
5255.83096,0.59900
5253.90222,0.59616
5251.97347,0.59306
5250.04473,0.58952
5248.11598,0.58578
5246.18724,0.58249
5244.25849,0.57990
5242.32975,0.57793
5240.40100,0.57636
5238.47225,0.57499
5236.54351,0.57316
5234.61476,0.57078
5232.68602,0.56894
5230.75727,0.56765
5228.82853,0.56609
5226.89978,0.56379
5224.97104,0.56113
5223.04229,0.55932
5221.11355,0.55851
5219.18480,0.55732
5217.25606,0.55539
5215.32731,0.55419
5213.39857,0.55383
5211.46982,0.55323
5209.54107,0.55250
5207.61233,0.55185
5205.68358,0.55100
5203.75484,0.54992
5201.82609,0.54909
5199.89735,0.54914
5197.96860,0.54949
5196.03986,0.54896
5194.11111,0.54819
5192.18237,0.54831
5190.25362,0.54861
5188.32488,0.54810
5186.39613,0.54747
5184.46739,0.54816
5182.53864,0.54973
5180.60990,0.55040
5178.68115,0.55039
5176.75240,0.55091
5174.82366,0.55138
5172.89491,0.55104
5170.96617,0.55049
5169.03742,0.55058
5167.10868,0.55157
5165.17993,0.55294
5163.25119,0.55386
5161.32244,0.55415
5159.39370,0.55436
5157.46495,0.55510
5155.53621,0.55610
5153.60746,0.55712
5151.67872,0.55865
5149.74997,0.56067
5147.82123,0.56201
5145.89248,0.56207
5143.96373,0.56231
5142.03499,0.56350
5140.10624,0.56440
5138.17750,0.56513
5136.24875,0.56668
5134.32001,0.56824
5132.39126,0.56933
5130.46252,0.57072
5128.53377,0.57218
5126.60503,0.57292
5124.67628,0.57345
5122.74754,0.57428
5120.81879,0.57498
5118.89005,0.57588
5116.96130,0.57771
5115.03255,0.57975
5113.10381,0.58111
5111.17506,0.58222
5109.24632,0.58336
5107.31757,0.58384
5105.38883,0.58363
5103.46008,0.58376
5101.53134,0.58472
5099.60259,0.58611
5097.67385,0.58765
5095.74510,0.58892
5093.81636,0.58973
5091.88761,0.59080
5089.95887,0.59242
5088.03012,0.59379
5086.10138,0.59437
5084.17263,0.59487
5082.24388,0.59598
5080.31514,0.59704
5078.38639,0.59740
5076.45765,0.59743
5074.52890,0.59793
5072.60016,0.59911
5070.67141,0.60018
5068.74267,0.60088
5066.81392,0.60202
5064.88518,0.60368
5062.95643,0.60495
5061.02769,0.60531
5059.09894,0.60521
5057.17020,0.60574
5055.24145,0.60742
5053.31270,0.60914
5051.38396,0.60985
5049.45521,0.61001
5047.52647,0.61024
5045.59772,0.61060
5043.66898,0.61128
5041.74023,0.61237
5039.81149,0.61372
5037.88274,0.61478
5035.95400,0.61531
5034.02525,0.61570
5032.09651,0.61616
5030.16776,0.61690
5028.23902,0.61784
5026.31027,0.61852
5024.38153,0.61880
5022.45278,0.61881
5020.52403,0.61870
5018.59529,0.61861
5016.66654,0.61884
5014.73780,0.61985
5012.80905,0.62113
5010.88031,0.62146
5008.95156,0.62067
5007.02282,0.61976
5005.09407,0.61950
5003.16533,0.62009
5001.23658,0.62097
4999.30784,0.62113
4997.37909,0.62079
4995.45035,0.62102
4993.52160,0.62156
4991.59286,0.62141
4989.66411,0.62084
4987.73536,0.62074
4985.80662,0.62098
4983.87787,0.62058
4981.94913,0.61934
4980.02038,0.61843
4978.09164,0.61845
4976.16289,0.61841
4974.23415,0.61764
4972.30540,0.61660
4970.37666,0.61565
4968.44791,0.61486
4966.51917,0.61407
4964.59042,0.61275
4962.66168,0.61090
4960.73293,0.60928
4958.80418,0.60865
4956.87544,0.60866
4954.94669,0.60782
4953.01795,0.60569
4951.08920,0.60346
4949.16046,0.60180
4947.23171,0.60047
4945.30297,0.59925
4943.37422,0.59782
4941.44548,0.59615
4939.51673,0.59484
4937.58799,0.59401
4935.65924,0.59274
4933.73050,0.59058
4931.80175,0.58832
4929.87301,0.58675
4927.94426,0.58568
4926.01551,0.58460
4924.08677,0.58306
4922.15802,0.58093
4920.22928,0.57885
4918.30053,0.57743
4916.37179,0.57642
4914.44304,0.57514
4912.51430,0.57333
4910.58555,0.57148
4908.65681,0.56966
4906.72806,0.56745
4904.79932,0.56520
4902.87057,0.56340
4900.94183,0.56172
4899.01308,0.55990
4897.08434,0.55812
4895.15559,0.55671
4893.22684,0.55567
4891.29810,0.55433
4889.36935,0.55237
4887.44061,0.55023
4885.51186,0.54836
4883.58312,0.54684
4881.65437,0.54536
4879.72563,0.54373
4877.79688,0.54233
4875.86814,0.54137
4873.93939,0.54036
4872.01065,0.53891
4870.08190,0.53726
4868.15316,0.53568
4866.22441,0.53401
4864.29566,0.53219
4862.36692,0.53049
4860.43817,0.52918
4858.50943,0.52812
4856.58068,0.52704
4854.65194,0.52565
4852.72319,0.52380
4850.79445,0.52189
4848.86570,0.52041
4846.93696,0.51945
4845.00821,0.51872
4843.07947,0.51765
4841.15072,0.51648
4839.22198,0.51589
4837.29323,0.51530
4835.36449,0.51405
4833.43574,0.51259
4831.50699,0.51113
4829.57825,0.50976
4827.64950,0.50884
4825.72076,0.50828
4823.79201,0.50760
4821.86327,0.50668
4819.93452,0.50585
4818.00578,0.50509
4816.07703,0.50405
4814.14829,0.50290
4812.21954,0.50219
4810.29080,0.50165
4808.36205,0.50091
4806.43331,0.50050
4804.50456,0.50057
4802.57582,0.50034
4800.64707,0.49944
4798.71832,0.49838
4796.78958,0.49751
4794.86083,0.49699
4792.93209,0.49700
4791.00334,0.49703
4789.07460,0.49647
4787.14585,0.49585
4785.21711,0.49567
4783.28836,0.49577
4781.35962,0.49584
4779.43087,0.49565
4777.50213,0.49539
4775.57338,0.49543
4773.64464,0.49529
4771.71589,0.49470
4769.78714,0.49415
4767.85840,0.49395
4765.92965,0.49399
4764.00091,0.49401
4762.07216,0.49401
4760.14342,0.49410
4758.21467,0.49411
4756.28593,0.49402
4754.35718,0.49411
4752.42844,0.49428
4750.49969,0.49424
4748.57095,0.49429
4746.64220,0.49467
4744.71346,0.49495
4742.78471,0.49492
4740.85597,0.49475
4738.92722,0.49467
4736.99847,0.49525
4735.06973,0.49636
4733.14098,0.49683
4731.21224,0.49651
4729.28349,0.49649
4727.35475,0.49694
4725.42600,0.49724
4723.49726,0.49748
4721.56851,0.49784
4719.63977,0.49802
4717.71102,0.49813
4715.78228,0.49842
4713.85353,0.49871
4711.92479,0.49896
4709.99604,0.49933
4708.06729,0.49989
4706.13855,0.50028
4704.20980,0.50031
4702.28106,0.50040
4700.35231,0.50089
4698.42357,0.50169
4696.49482,0.50233
4694.56608,0.50249
4692.63733,0.50273
4690.70859,0.50335
4688.77984,0.50378
4686.85110,0.50397
4684.92235,0.50413
4682.99361,0.50415
4681.06486,0.50426
4679.13612,0.50475
4677.20737,0.50578
4675.27862,0.50719
4673.34988,0.50826
4671.42113,0.50881
4669.49239,0.50912
4667.56364,0.50929
4665.63490,0.50965
4663.70615,0.51044
4661.77741,0.51140
4659.84866,0.51242
4657.91992,0.51364
4655.99117,0.51487
4654.06243,0.51562
4652.13368,0.51606
4650.20494,0.51678
4648.27619,0.51779
4646.34745,0.51868
4644.41870,0.51928
4642.48995,0.51975
4640.56121,0.52046
4638.63246,0.52148
4636.70372,0.52252
4634.77497,0.52331
4632.84623,0.52399
4630.91748,0.52490
4628.98874,0.52606
4627.05999,0.52720
4625.13125,0.52803
4623.20250,0.52864
4621.27376,0.52955
4619.34501,0.53054
4617.41627,0.53144
4615.48752,0.53278
4613.55877,0.53433
4611.63003,0.53545
4609.70128,0.53626
4607.77254,0.53724
4605.84379,0.53844
4603.91505,0.53949
4601.98630,0.54034
4600.05756,0.54138
4598.12881,0.54254
4596.20007,0.54326
4594.27132,0.54348
4592.34258,0.54371
4590.41383,0.54437
4588.48509,0.54562
4586.55634,0.54732
4584.62760,0.54888
4582.69885,0.54956
4580.77010,0.54955
4578.84136,0.54999
4576.91261,0.55107
4574.98387,0.55172
4573.05512,0.55164
4571.12638,0.55166
4569.19763,0.55226
4567.26889,0.55299
4565.34014,0.55345
4563.41140,0.55393
4561.48265,0.55473
4559.55391,0.55571
4557.62516,0.55663
4555.69642,0.55734
4553.76767,0.55770
4551.83893,0.55768
4549.91018,0.55767
4547.98143,0.55801
4546.05269,0.55842
4544.12394,0.55862
4542.19520,0.55889
4540.26645,0.55952
4538.33771,0.56038
4536.40896,0.56117
4534.48022,0.56174
4532.55147,0.56191
4530.62273,0.56180
4528.69398,0.56187
4526.76524,0.56212
4524.83649,0.56222
4522.90775,0.56217
4520.97900,0.56215
4519.05025,0.56220
4517.12151,0.56232
4515.19276,0.56238
4513.26402,0.56208
4511.33527,0.56155
4509.40653,0.56134
4507.47778,0.56131
4505.54904,0.56105
4503.62029,0.56061
4501.69155,0.55993
4499.76280,0.55894
4497.83406,0.55795
4495.90531,0.55698
4493.97657,0.55590
4492.04782,0.55500
4490.11908,0.55444
4488.19033,0.55384
4486.26158,0.55278
4484.33284,0.55127
4482.40409,0.54955
4480.47535,0.54780
4478.54660,0.54608
4476.61786,0.54437
4474.68911,0.54239
4472.76037,0.54018
4470.83162,0.53807
4468.90288,0.53597
4466.97413,0.53363
4465.04539,0.53126
4463.11664,0.52926
4461.18790,0.52743
4459.25915,0.52525
4457.33041,0.52288
4455.40166,0.52072
4453.47291,0.51860
4451.54417,0.51608
4449.61542,0.51334
4447.68668,0.51090
4445.75793,0.50885
4443.82919,0.50681
4441.90044,0.50446
4439.97170,0.50222
4438.04295,0.50033
4436.11421,0.49794
4434.18546,0.49497
4432.25672,0.49225
4430.32797,0.49002
4428.39923,0.48781
4426.47048,0.48523
4424.54173,0.48243
4422.61299,0.47967
4420.68424,0.47694
4418.75550,0.47437
4416.82675,0.47227
4414.89801,0.47052
4412.96926,0.46862
4411.04052,0.46662
4409.11177,0.46489
4407.18303,0.46348
4405.25428,0.46223
4403.32554,0.46092
4401.39679,0.45982
4399.46805,0.45961
4397.53930,0.45990
4395.61056,0.45966
4393.68181,0.45914
4391.75306,0.45927
4389.82432,0.46006
4387.89557,0.46093
4385.96683,0.46146
4384.03808,0.46162
4382.10934,0.46174
4380.18059,0.46222
4378.25185,0.46322
4376.32310,0.46434
4374.39436,0.46523
4372.46561,0.46623
4370.53687,0.46772
4368.60812,0.46941
4366.67938,0.47067
4364.75063,0.47126
4362.82189,0.47153
4360.89314,0.47167
4358.96439,0.47188
4357.03565,0.47227
4355.10690,0.47230
4353.17816,0.47182
4351.24941,0.47139
4349.32067,0.47102
4347.39192,0.47060
4345.46318,0.47043
4343.53443,0.47035
4341.60569,0.47001
4339.67694,0.46958
4337.74820,0.46905
4335.81945,0.46835
4333.89071,0.46772
4331.96196,0.46721
4330.03321,0.46663
4328.10447,0.46595
4326.17572,0.46496
4324.24698,0.46367
4322.31823,0.46261
4320.38949,0.46186
4318.46074,0.46105
4316.53200,0.46023
4314.60325,0.45959
4312.67451,0.45913
4310.74576,0.45861
4308.81702,0.45783
4306.88827,0.45688
4304.95953,0.45580
4303.03078,0.45458
4301.10204,0.45339
4299.17329,0.45231
4297.24454,0.45148
4295.31580,0.45116
4293.38705,0.45119
4291.45831,0.45083
4289.52956,0.44986
4287.60082,0.44889
4285.67207,0.44846
4283.74333,0.44842
4281.81458,0.44841
4279.88584,0.44832
4277.95709,0.44821
4276.02835,0.44823
4274.09960,0.44847
4272.17086,0.44889
4270.24211,0.44927
4268.31336,0.44939
4266.38462,0.44936
4264.45587,0.44967
4262.52713,0.45036
4260.59838,0.45103
4258.66964,0.45157
4256.74089,0.45195
4254.81215,0.45221
4252.88340,0.45272
4250.95466,0.45339
4249.02591,0.45370
4247.09717,0.45361
4245.16842,0.45364
4243.23968,0.45385
4241.31093,0.45398
4239.38219,0.45428
4237.45344,0.45460
4235.52469,0.45449
4233.59595,0.45426
4231.66720,0.45445
4229.73846,0.45491
4227.80971,0.45523
4225.88097,0.45525
4223.95222,0.45496
4222.02348,0.45448
4220.09473,0.45419
4218.16599,0.45428
4216.23724,0.45452
4214.30850,0.45453
4212.37975,0.45428
4210.45101,0.45398
4208.52226,0.45390
4206.59352,0.45406
4204.66477,0.45427
4202.73602,0.45466
4200.80728,0.45529
4198.87853,0.45573
4196.94979,0.45580
4195.02104,0.45574
4193.09230,0.45575
4191.16355,0.45591
4189.23481,0.45607
4187.30606,0.45624
4185.37732,0.45658
4183.44857,0.45712
4181.51983,0.45786
4179.59108,0.45853
4177.66234,0.45874
4175.73359,0.45865
4173.80484,0.45879
4171.87610,0.45944
4169.94735,0.46041
4168.01861,0.46127
4166.08986,0.46164
4164.16112,0.46156
4162.23237,0.46149
4160.30363,0.46164
4158.37488,0.46157
4156.44614,0.46118
4154.51739,0.46103
4152.58865,0.46104
4150.65990,0.46064
4148.73116,0.45977
4146.80241,0.45867
4144.87367,0.45761
4142.94492,0.45686
4141.01617,0.45630
4139.08743,0.45564
4137.15868,0.45472
4135.22994,0.45352
4133.30119,0.45230
4131.37245,0.45142
4129.44370,0.45062
4127.51496,0.44951
4125.58621,0.44829
4123.65747,0.44716
4121.72872,0.44581
4119.79998,0.44401
4117.87123,0.44183
4115.94249,0.43970
4114.01374,0.43813
4112.08500,0.43713
4110.15625,0.43615
4108.22750,0.43459
4106.29876,0.43249
4104.37001,0.43033
4102.44127,0.42834
4100.51252,0.42655
4098.58378,0.42489
4096.65503,0.42316
4094.72629,0.42126
4092.79754,0.41927
4090.86880,0.41721
4088.94005,0.41515
4087.01131,0.41326
4085.08256,0.41149
4083.15382,0.40978
4081.22507,0.40815
4079.29632,0.40642
4077.36758,0.40433
4075.43883,0.40201
4073.51009,0.39975
4071.58134,0.39763
4069.65260,0.39576
4067.72385,0.39406
4065.79511,0.39238
4063.86636,0.39075
4061.93762,0.38900
4060.00887,0.38701
4058.08013,0.38489
4056.15138,0.38273
4054.22264,0.38059
4052.29389,0.37870
4050.36515,0.37726
4048.43640,0.37608
4046.50765,0.37473
4044.57891,0.37308
4042.65016,0.37131
4040.72142,0.36963
4038.79267,0.36822
4036.86393,0.36710
4034.93518,0.36600
4033.00644,0.36477
4031.07769,0.36361
4029.14895,0.36284
4027.22020,0.36235
4025.29146,0.36189
4023.36271,0.36123
4021.43397,0.36030
4019.50522,0.35956
4017.57648,0.35916
4015.64773,0.35874
4013.71898,0.35849
4011.79024,0.35852
4009.86149,0.35843
4007.93275,0.35832
4006.00400,0.35847
4004.07526,0.35877
4002.14651,0.35925
4000.21777,0.35969
3998.28902,0.35987
3996.36028,0.36012
3994.43153,0.36068
3992.50279,0.36140
3990.57404,0.36208
3988.64530,0.36274
3986.71655,0.36333
3984.78780,0.36379
3982.85906,0.36441
3980.93031,0.36503
3979.00157,0.36537
3977.07282,0.36570
3975.14408,0.36617
3973.21533,0.36669
3971.28659,0.36741
3969.35784,0.36822
3967.42910,0.36896
3965.50035,0.36983
3963.57161,0.37081
3961.64286,0.37166
3959.71412,0.37241
3957.78537,0.37326
3955.85663,0.37417
3953.92788,0.37489
3951.99913,0.37561
3950.07039,0.37666
3948.14164,0.37783
3946.21290,0.37883
3944.28415,0.37977
3942.35541,0.38082
3940.42666,0.38178
3938.49792,0.38273
3936.56917,0.38390
3934.64043,0.38503
3932.71168,0.38607
3930.78294,0.38719
3928.85419,0.38810
3926.92545,0.38876
3924.99670,0.38960
3923.06795,0.39060
3921.13921,0.39159
3919.21046,0.39272
3917.28172,0.39389
3915.35297,0.39482
3913.42423,0.39563
3911.49548,0.39651
3909.56674,0.39762
3907.63799,0.39875
3905.70925,0.39977
3903.78050,0.40072
3901.85176,0.40124
3899.92301,0.40134
3897.99427,0.40178
3896.06552,0.40274
3894.13678,0.40378
3892.20803,0.40473
3890.27928,0.40572
3888.35054,0.40661
3886.42179,0.40732
3884.49305,0.40795
3882.56430,0.40857
3880.63556,0.40928
3878.70681,0.40993
3876.77807,0.41046
3874.84932,0.41107
3872.92058,0.41167
3870.99183,0.41232
3869.06309,0.41325
3867.13434,0.41421
3865.20560,0.41517
3863.27685,0.41625
3861.34811,0.41730
3859.41936,0.41834
3857.49061,0.41953
3855.56187,0.42093
3853.63312,0.42226
3851.70438,0.42297
3849.77563,0.42343
3847.84689,0.42409
3845.91814,0.42486
3843.98940,0.42565
3842.06065,0.42636
3840.13191,0.42696
3838.20316,0.42761
3836.27442,0.42823
3834.34567,0.42854
3832.41693,0.42859
3830.48818,0.42863
3828.55943,0.42887
3826.63069,0.42922
3824.70194,0.42952
3822.77320,0.42994
3820.84445,0.43049
3818.91571,0.43061
3816.98696,0.43027
3815.05822,0.42990
3813.12947,0.42972
3811.20073,0.42970
3809.27198,0.42966
3807.34324,0.42957
3805.41449,0.42954
3803.48575,0.42962
3801.55700,0.42983
3799.62826,0.42979
3797.69951,0.42937
3795.77076,0.42889
3793.84202,0.42850
3791.91327,0.42827
3789.98453,0.42814
3788.05578,0.42805
3786.12704,0.42808
3784.19829,0.42817
3782.26955,0.42807
3780.34080,0.42774
3778.41206,0.42730
3776.48331,0.42687
3774.55457,0.42650
3772.62582,0.42607
3770.69708,0.42571
3768.76833,0.42547
3766.83959,0.42497
3764.91084,0.42405
3762.98209,0.42317
3761.05335,0.42263
3759.12460,0.42214
3757.19586,0.42128
3755.26711,0.42026
3753.33837,0.41926
3751.40962,0.41818
3749.48088,0.41733
3747.55213,0.41682
3745.62339,0.41595
3743.69464,0.41473
3741.76590,0.41372
3739.83715,0.41287
3737.90841,0.41197
3735.97966,0.41070
3734.05091,0.40903
3732.12217,0.40736
3730.19342,0.40575
3728.26468,0.40399
3726.33593,0.40225
3724.40719,0.40064
3722.47844,0.39875
3720.54970,0.39648
3718.62095,0.39407
3716.69221,0.39184
3714.76346,0.38977
3712.83472,0.38739
3710.90597,0.38440
3708.97723,0.38124
3707.04848,0.37835
3705.11974,0.37562
3703.19099,0.37243
3701.26224,0.36843
3699.33350,0.36417
3697.40475,0.36007
3695.47601,0.35611
3693.54726,0.35219
3691.61852,0.34775
3689.68977,0.34226
3687.76103,0.33614
3685.83228,0.33046
3683.90354,0.32503
3681.97479,0.31913
3680.04605,0.31297
3678.11730,0.30674
3676.18856,0.29937
3674.25981,0.29152
3672.33107,0.28506
3670.40232,0.27839
3668.47357,0.27070
3666.54483,0.26355
3664.61608,0.25688
3662.68734,0.25014
3660.75859,0.24346
3658.82985,0.23709
3656.90110,0.23078
3654.97236,0.22467
3653.04361,0.21938
3651.11487,0.21398
3649.18612,0.20765
3647.25738,0.20172
3645.32863,0.19666
3643.39989,0.19154
3641.47114,0.18630
3639.54239,0.18164
3637.61365,0.17768
3635.68490,0.17386
3633.75616,0.17009
3631.82741,0.16658
3629.89867,0.16257
3627.96992,0.15782
3626.04118,0.15378
3624.11243,0.15043
3622.18369,0.14702
3620.25494,0.14343
3618.32620,0.13988
3616.39745,0.13679
3614.46871,0.13395
3612.53996,0.13082
3610.61122,0.12750
3608.68247,0.12423
3606.75372,0.12116
3604.82498,0.11846
3602.89623,0.11597
3600.96749,0.11336
3599.03874,0.11069
3597.11000,0.10813
3595.18125,0.10565
3593.25251,0.10333
3591.32376,0.10134
3589.39502,0.09953
3587.46627,0.09767
3585.53753,0.09575
3583.60878,0.09379
3581.68004,0.09170
3579.75129,0.08954
3577.82254,0.08774
3575.89380,0.08623
3573.96505,0.08465
3572.03631,0.08309
3570.10756,0.08175
3568.17882,0.08048
3566.25007,0.07902
3564.32133,0.07766
3562.39258,0.07666
3560.46384,0.07566
3558.53509,0.07442
3556.60635,0.07328
3554.67760,0.07242
3552.74886,0.07164
3550.82011,0.07080
3548.89137,0.06976
3546.96262,0.06855
3545.03387,0.06741
3543.10513,0.06652
3541.17638,0.06584
3539.24764,0.06515
3537.31889,0.06445
3535.39015,0.06399
3533.46140,0.06362
3531.53266,0.06281
3529.60391,0.06162
3527.67517,0.06082
3525.74642,0.06045
3523.81768,0.05981
3521.88893,0.05882
3519.96019,0.05803
3518.03144,0.05760
3516.10270,0.05731
3514.17395,0.05698
3512.24520,0.05653
3510.31646,0.05614
3508.38771,0.05586
3506.45897,0.05534
3504.53022,0.05449
3502.60148,0.05376
3500.67273,0.05347
3498.74399,0.05337
3496.81524,0.05312
3494.88650,0.05278
3492.95775,0.05255
3491.02901,0.05235
3489.10026,0.05204
3487.17152,0.05163
3485.24277,0.05118
3483.31402,0.05087
3481.38528,0.05075
3479.45653,0.05056
3477.52779,0.05023
3475.59904,0.04998
3473.67030,0.04983
3471.74155,0.04948
3469.81281,0.04896
3467.88406,0.04874
3465.95532,0.04900
3464.02657,0.04919
3462.09783,0.04905
3460.16908,0.04889
3458.24034,0.04882
3456.31159,0.04864
3454.38285,0.04834
3452.45410,0.04819
3450.52535,0.04838
3448.59661,0.04857
3446.66786,0.04834
3444.73912,0.04793
3442.81037,0.04791
3440.88163,0.04823
3438.95288,0.04845
3437.02414,0.04836
3435.09539,0.04821
3433.16665,0.04843
3431.23790,0.04891
3429.30916,0.04923
3427.38041,0.04918
3425.45167,0.04888
3423.52292,0.04870
3421.59418,0.04873
3419.66543,0.04875
3417.73668,0.04877
3415.80794,0.04882
3413.87919,0.04901
3411.95045,0.04948
3410.02170,0.04968
3408.09296,0.04931
3406.16421,0.04905
3404.23547,0.04911
3402.30672,0.04917
3400.37798,0.04920
3398.44923,0.04931
3396.52049,0.04947
3394.59174,0.04957
3392.66300,0.04960
3390.73425,0.04974
3388.80550,0.04992
3386.87676,0.05001
3384.94801,0.05000
3383.01927,0.04978
3381.09052,0.04961
3379.16178,0.04983
3377.23303,0.05015
3375.30429,0.05034
3373.37554,0.05046
3371.44680,0.05062
3369.51805,0.05087
3367.58931,0.05116
3365.66056,0.05129
3363.73182,0.05117
3361.80307,0.05110
3359.87433,0.05129
3357.94558,0.05146
3356.01683,0.05165
3354.08809,0.05192
3352.15934,0.05217
3350.23060,0.05249
3348.30185,0.05294
3346.37311,0.05325
3344.44436,0.05316
3342.51562,0.05309
3340.58687,0.05361
3338.65813,0.05438
3336.72938,0.05476
3334.80064,0.05481
3332.87189,0.05499
3330.94315,0.05535
3329.01440,0.05565
3327.08566,0.05594
3325.15691,0.05628
3323.22816,0.05643
3321.29942,0.05639
3319.37067,0.05661
3317.44193,0.05737
3315.51318,0.05808
3313.58444,0.05813
3311.65569,0.05779
3309.72695,0.05779
3307.79820,0.05817
3305.86946,0.05832
3303.94071,0.05834
3302.01197,0.05876
3300.08322,0.05942
3298.15448,0.05998
3296.22573,0.06034
3294.29698,0.06052
3292.36824,0.06069
3290.43949,0.06100
3288.51075,0.06127
3286.58200,0.06139
3284.65326,0.06167
3282.72451,0.06232
3280.79577,0.06290
3278.86702,0.06312
3276.93828,0.06323
3275.00953,0.06345
3273.08079,0.06387
3271.15204,0.06464
3269.22330,0.06557
3267.29455,0.06620
3265.36581,0.06653
3263.43706,0.06702
3261.50831,0.06766
3259.57957,0.06825
3257.65082,0.06876
3255.72208,0.06921
3253.79333,0.06967
3251.86459,0.07017
3249.93584,0.07072
3248.00710,0.07139
3246.07835,0.07189
3244.14961,0.07200
3242.22086,0.07222
3240.29212,0.07300
3238.36337,0.07396
3236.43463,0.07458
3234.50588,0.07489
3232.57713,0.07537
3230.64839,0.07611
3228.71964,0.07684
3226.79090,0.07739
3224.86215,0.07791
3222.93341,0.07850
3221.00466,0.07905
3219.07592,0.07976
3217.14717,0.08069
3215.21843,0.08146
3213.28968,0.08217
3211.36094,0.08304
3209.43219,0.08373
3207.50345,0.08406
3205.57470,0.08454
3203.64596,0.08544
3201.71721,0.08610
3199.78846,0.08630
3197.85972,0.08680
3195.93097,0.08782
3194.00223,0.08877
3192.07348,0.08958
3190.14474,0.09053
3188.21599,0.09155
3186.28725,0.09249
3184.35850,0.09336
3182.42976,0.09421
3180.50101,0.09505
3178.57227,0.09581
3176.64352,0.09640
3174.71478,0.09698
3172.78603,0.09786
3170.85729,0.09898
3168.92854,0.10015
3166.99979,0.10122
3165.07105,0.10182
3163.14230,0.10217
3161.21356,0.10304
3159.28481,0.10433
3157.35607,0.10519
3155.42732,0.10580
3153.49858,0.10685
3151.56983,0.10810
3149.64109,0.10916
3147.71234,0.11012
3145.78360,0.11098
3143.85485,0.11179
3141.92611,0.11273
3139.99736,0.11368
3138.06861,0.11450
3136.13987,0.11532
3134.21112,0.11624
3132.28238,0.11722
3130.35363,0.11819
3128.42489,0.11923
3126.49614,0.12044
3124.56740,0.12156
3122.63865,0.12238
3120.70991,0.12312
3118.78116,0.12388
3116.85242,0.12457
3114.92367,0.12538
3112.99493,0.12642
3111.06618,0.12755
3109.13744,0.12872
3107.20869,0.12986
3105.27994,0.13078
3103.35120,0.13152
3101.42245,0.13236
3099.49371,0.13323
3097.56496,0.13381
3095.63622,0.13430
3093.70747,0.13507
3091.77873,0.13614
3089.84998,0.13721
3087.92124,0.13815
3085.99249,0.13893
3084.06375,0.13949
3082.13500,0.13998
3080.20626,0.14064
3078.27751,0.14142
3076.34877,0.14226
3074.42002,0.14312
3072.49127,0.14379
3070.56253,0.14440
3068.63378,0.14526
3066.70504,0.14617
3064.77629,0.14685
3062.84755,0.14740
3060.91880,0.14807
3058.99006,0.14890
3057.06131,0.14982
3055.13257,0.15072
3053.20382,0.15152
3051.27508,0.15224
3049.34633,0.15293
3047.41759,0.15369
3045.48884,0.15441
3043.56009,0.15495
3041.63135,0.15534
3039.70260,0.15578
3037.77386,0.15634
3035.84511,0.15683
3033.91637,0.15715
3031.98762,0.15739
3030.05888,0.15748
3028.13013,0.15727
3026.20139,0.15706
3024.27264,0.15703
3022.34390,0.15694
3020.41515,0.15665
3018.48641,0.15599
3016.55766,0.15493
3014.62892,0.15387
3012.70017,0.15298
3010.77142,0.15205
3008.84268,0.15100
3006.91393,0.14987
3004.98519,0.14852
3003.05644,0.14702
3001.12770,0.14578
2999.19895,0.14498
2997.27021,0.14425
2995.34146,0.14337
2993.41272,0.14237
2991.48397,0.14119
2989.55523,0.13962
2987.62648,0.13771
2985.69774,0.13556
2983.76899,0.13309
2981.84025,0.13027
2979.91150,0.12717
2977.98275,0.12387
2976.05401,0.12059
2974.12526,0.11766
2972.19652,0.11489
2970.26777,0.11208
2968.33903,0.10961
2966.41028,0.10762
2964.48154,0.10586
2962.55279,0.10426
2960.62405,0.10290
2958.69530,0.10177
2956.76656,0.10053
2954.83781,0.09887
2952.90907,0.09701
2950.98032,0.09537
2949.05157,0.09390
2947.12283,0.09253
2945.19408,0.09124
2943.26534,0.08983
2941.33659,0.08857
2939.40785,0.08791
2937.47910,0.08768
2935.55036,0.08750
2933.62161,0.08728
2931.69287,0.08711
2929.76412,0.08706
2927.83538,0.08690
2925.90663,0.08648
2923.97789,0.08615
2922.04914,0.08611
2920.12040,0.08599
2918.19165,0.08585
2916.26290,0.08597
2914.33416,0.08612
2912.40541,0.08602
2910.47667,0.08587
2908.54792,0.08597
2906.61918,0.08627
2904.69043,0.08641
2902.76169,0.08631
2900.83294,0.08633
2898.90420,0.08664
2896.97545,0.08708
2895.04671,0.08761
2893.11796,0.08815
2891.18922,0.08860
2889.26047,0.08895
2887.33172,0.08926
2885.40298,0.08968
2883.47423,0.09021
2881.54549,0.09072
2879.61674,0.09109
2877.68800,0.09140
2875.75925,0.09191
2873.83051,0.09263
2871.90176,0.09341
2869.97302,0.09426
2868.04427,0.09520
2866.11553,0.09629
2864.18678,0.09754
2862.25804,0.09885
2860.32929,0.10004
2858.40055,0.10107
2856.47180,0.10215
2854.54305,0.10329
2852.61431,0.10438
2850.68556,0.10560
2848.75682,0.10724
2846.82807,0.10929
2844.89933,0.11152
2842.97058,0.11378
2841.04184,0.11607
2839.11309,0.11831
2837.18435,0.12054
2835.25560,0.12286
2833.32686,0.12538
2831.39811,0.12820
2829.46937,0.13119
2827.54062,0.13397
2825.61188,0.13643
2823.68313,0.13881
2821.75438,0.14137
2819.82564,0.14412
2817.89689,0.14691
2815.96815,0.14941
2814.03940,0.15147
2812.11066,0.15333
2810.18191,0.15518
2808.25317,0.15694
2806.32442,0.15855
2804.39568,0.16015
2802.46693,0.16184
2800.53819,0.16344
2798.60944,0.16478
2796.68070,0.16602
2794.75195,0.16726
2792.82320,0.16849
2790.89446,0.16975
2788.96571,0.17091
2787.03697,0.17180
2785.10822,0.17249
2783.17948,0.17306
2781.25073,0.17346
2779.32199,0.17389
2777.39324,0.17457
2775.46450,0.17533
2773.53575,0.17595
2771.60701,0.17637
2769.67826,0.17677
2767.74952,0.17732
2765.82077,0.17788
2763.89203,0.17818
2761.96328,0.17838
2760.03453,0.17878
2758.10579,0.17933
2756.17704,0.17975
2754.24830,0.17996
2752.31955,0.18015
2750.39081,0.18043
2748.46206,0.18062
2746.53332,0.18065
2744.60457,0.18065
2742.67583,0.18076
2740.74708,0.18100
2738.81834,0.18131
2736.88959,0.18156
2734.96085,0.18180
2733.03210,0.18224
2731.10336,0.18289
2729.17461,0.18352
2727.24586,0.18404
2725.31712,0.18450
2723.38837,0.18501
2721.45963,0.18565
2719.53088,0.18641
2717.60214,0.18718
2715.67339,0.18791
2713.74465,0.18869
2711.81590,0.18971
2709.88716,0.19080
2707.95841,0.19179
2706.02967,0.19276
2704.10092,0.19372
2702.17218,0.19463
2700.24343,0.19565
2698.31468,0.19685
2696.38594,0.19794
2694.45719,0.19877
2692.52845,0.19956
2690.59970,0.20046
2688.67096,0.20147
2686.74221,0.20250
2684.81347,0.20343
2682.88472,0.20431
2680.95598,0.20517
2679.02723,0.20595
2677.09849,0.20666
2675.16974,0.20744
2673.24100,0.20836
2671.31225,0.20924
2669.38351,0.20984
2667.45476,0.21016
2665.52601,0.21040
2663.59727,0.21082
2661.66852,0.21148
2659.73978,0.21229
2657.81103,0.21308
2655.88229,0.21370
2653.95354,0.21423
2652.02480,0.21489
2650.09605,0.21559
2648.16731,0.21621
2646.23856,0.21680
2644.30982,0.21749
2642.38107,0.21836
2640.45233,0.21922
2638.52358,0.21986
2636.59484,0.22036
2634.66609,0.22097
2632.73734,0.22173
2630.80860,0.22259
2628.87985,0.22353
2626.95111,0.22444
2625.02236,0.22520
2623.09362,0.22589
2621.16487,0.22665
2619.23613,0.22741
2617.30738,0.22816
2615.37864,0.22883
2613.44989,0.22935
2611.52115,0.22989
2609.59240,0.23046
2607.66366,0.23104
2605.73491,0.23168
2603.80616,0.23232
2601.87742,0.23285
2599.94867,0.23341
2598.01993,0.23418
2596.09118,0.23494
2594.16244,0.23543
2592.23369,0.23586
2590.30495,0.23650
2588.37620,0.23711
2586.44746,0.23752
2584.51871,0.23796
2582.58997,0.23841
2580.66122,0.23875
2578.73248,0.23914
2576.80373,0.23951
2574.87499,0.23968
2572.94624,0.23975
2571.01749,0.23987
2569.08875,0.24011
2567.16000,0.24032
2565.23126,0.24039
2563.30251,0.24044
2561.37377,0.24063
2559.44502,0.24081
2557.51628,0.24080
2555.58753,0.24076
2553.65879,0.24097
2551.73004,0.24141
2549.80130,0.24181
2547.87255,0.24181
2545.94381,0.24158
2544.01506,0.24157
2542.08631,0.24186
2540.15757,0.24231
2538.22882,0.24283
2536.30008,0.24331
2534.37133,0.24379
2532.44259,0.24438
2530.51384,0.24510
2528.58510,0.24587
2526.65635,0.24652
2524.72761,0.24699
2522.79886,0.24750
2520.87012,0.24811
2518.94137,0.24865
2517.01263,0.24909
2515.08388,0.24957
2513.15514,0.25023
2511.22639,0.25105
2509.29764,0.25197
2507.36890,0.25298
2505.44015,0.25403
2503.51141,0.25511
2501.58266,0.25622
2499.65392,0.25732
2497.72517,0.25834
2495.79643,0.25930
2493.86768,0.26030
2491.93894,0.26140
2490.01019,0.26243
2488.08145,0.26325
2486.15270,0.26401
2484.22396,0.26485
2482.29521,0.26573
2480.36647,0.26651
2478.43772,0.26720
2476.50897,0.26794
2474.58023,0.26881
2472.65148,0.26971
2470.72274,0.27053
2468.79399,0.27127
2466.86525,0.27201
2464.93650,0.27283
2463.00776,0.27365
2461.07901,0.27433
2459.15027,0.27489
2457.22152,0.27558
2455.29278,0.27657
2453.36403,0.27764
2451.43529,0.27849
2449.50654,0.27919
2447.57779,0.28001
2445.64905,0.28108
2443.72030,0.28225
2441.79156,0.28329
2439.86281,0.28414
2437.93407,0.28496
2436.00532,0.28589
2434.07658,0.28699
2432.14783,0.28817
2430.21909,0.28913
2428.29034,0.28989
2426.36160,0.29086
2424.43285,0.29208
2422.50411,0.29328
2420.57536,0.29444
2418.64662,0.29565
2416.71787,0.29688
2414.78912,0.29812
2412.86038,0.29931
2410.93163,0.30037
2409.00289,0.30135
2407.07414,0.30233
2405.14540,0.30325
2403.21665,0.30412
2401.28791,0.30506
2399.35916,0.30606
2397.43042,0.30701
2395.50167,0.30792
2393.57293,0.30883
2391.64418,0.30974
2389.71544,0.31067
2387.78669,0.31163
2385.85795,0.31257
2383.92920,0.31351
2382.00045,0.31441
2380.07171,0.31516
2378.14296,0.31593
2376.21422,0.31683
2374.28547,0.31771
2372.35673,0.31855
2370.42798,0.31942
2368.49924,0.32033
2366.57049,0.32106
2364.64175,0.32153
2362.71300,0.32203
2360.78426,0.32264
2358.85551,0.32325
2356.92677,0.32402
2354.99802,0.32471
2353.06927,0.32512
2351.14053,0.32558
2349.21178,0.32629
2347.28304,0.32707
2345.35429,0.32770
2343.42555,0.32811
2341.49680,0.32836
2339.56806,0.32865
2337.63931,0.32913
2335.71057,0.32973
2333.78182,0.33026
2331.85308,0.33050
2329.92433,0.33050
2327.99559,0.33062
2326.06684,0.33089
2324.13810,0.33108
2322.20935,0.33130
2320.28060,0.33157
2318.35186,0.33162
2316.42311,0.33152
2314.49437,0.33164
2312.56562,0.33187
2310.63688,0.33188
2308.70813,0.33168
2306.77939,0.33149
2304.85064,0.33125
2302.92190,0.33079
2300.99315,0.33022
2299.06441,0.32981
2297.13566,0.32957
2295.20692,0.32930
2293.27817,0.32902
2291.34943,0.32874
2289.42068,0.32846
2287.49193,0.32825
2285.56319,0.32809
2283.63444,0.32791
2281.70570,0.32779
2279.77695,0.32760
2277.84821,0.32717
2275.91946,0.32659
2273.99072,0.32597
2272.06197,0.32530
2270.13323,0.32464
2268.20448,0.32401
2266.27574,0.32327
2264.34699,0.32247
2262.41825,0.32173
2260.48950,0.32103
2258.56075,0.32042
2256.63201,0.32000
2254.70326,0.31971
2252.77452,0.31928
2250.84577,0.31873
2248.91703,0.31836
2246.98828,0.31814
2245.05954,0.31784
2243.13079,0.31758
2241.20205,0.31746
2239.27330,0.31733
2237.34456,0.31700
2235.41581,0.31645
2233.48707,0.31584
2231.55832,0.31532
2229.62958,0.31502
2227.70083,0.31501
2225.77208,0.31509
2223.84334,0.31497
2221.91459,0.31468
2219.98585,0.31451
2218.05710,0.31448
2216.12836,0.31442
2214.19961,0.31429
2212.27087,0.31401
2210.34212,0.31361
2208.41338,0.31329
2206.48463,0.31293
2204.55589,0.31243
2202.62714,0.31189
2200.69840,0.31123
2198.76965,0.31031
2196.84090,0.30930
2194.91216,0.30827
2192.98341,0.30723
2191.05467,0.30623
2189.12592,0.30520
2187.19718,0.30401
2185.26843,0.30270
2183.33969,0.30147
2181.41094,0.30038
2179.48220,0.29909
2177.55345,0.29756
2175.62471,0.29612
2173.69596,0.29491
2171.76722,0.29377
2169.83847,0.29274
2167.90973,0.29183
2165.98098,0.29098
2164.05223,0.29010
2162.12349,0.28911
2160.19474,0.28811
2158.26600,0.28730
2156.33725,0.28668
2154.40851,0.28615
2152.47976,0.28557
2150.55102,0.28497
2148.62227,0.28446
2146.69353,0.28399
2144.76478,0.28348
2142.83604,0.28297
2140.90729,0.28267
2138.97855,0.28262
2137.04980,0.28261
2135.12106,0.28253
2133.19231,0.28251
2131.26356,0.28260
2129.33482,0.28263
2127.40607,0.28269
2125.47733,0.28292
2123.54858,0.28325
2121.61984,0.28370
2119.69109,0.28430
2117.76235,0.28492
2115.83360,0.28540
2113.90486,0.28570
2111.97611,0.28606
2110.04737,0.28652
2108.11862,0.28689
2106.18988,0.28725
2104.26113,0.28761
2102.33238,0.28786
2100.40364,0.28814
2098.47489,0.28854
2096.54615,0.28890
2094.61740,0.28920
2092.68866,0.28951
2090.75991,0.28980
2088.83117,0.29002
2086.90242,0.29008
2084.97368,0.28993
2083.04493,0.28958
2081.11619,0.28913
2079.18744,0.28876
2077.25870,0.28842
2075.32995,0.28795
2073.40121,0.28746
2071.47246,0.28701
2069.54371,0.28663
2067.61497,0.28627
2065.68622,0.28583
2063.75748,0.28537
2061.82873,0.28498
2059.89999,0.28465
2057.97124,0.28445
2056.04250,0.28440
2054.11375,0.28450
2052.18501,0.28477
2050.25626,0.28513
2048.32752,0.28557
2046.39877,0.28615
2044.47003,0.28678
2042.54128,0.28736
2040.61254,0.28803
2038.68379,0.28897
2036.75504,0.29001
2034.82630,0.29103
2032.89755,0.29218
2030.96881,0.29349
2029.04006,0.29486
2027.11132,0.29616
2025.18257,0.29724
2023.25383,0.29821
2021.32508,0.29936
2019.39634,0.30081
2017.46759,0.30235
2015.53885,0.30366
2013.61010,0.30470
2011.68136,0.30558
2009.75261,0.30645
2007.82386,0.30737
2005.89512,0.30821
2003.96637,0.30895
2002.03763,0.30975
2000.10888,0.31062
1998.18014,0.31146
1996.25139,0.31229
1994.32265,0.31315
1992.39390,0.31415
1990.46516,0.31520
1988.53641,0.31595
1986.60767,0.31643
1984.67892,0.31694
1982.75018,0.31751
1980.82143,0.31805
1978.89269,0.31857
1976.96394,0.31918
1975.03519,0.31985
1973.10645,0.32054
1971.17770,0.32123
1969.24896,0.32190
1967.32021,0.32265
1965.39147,0.32354
1963.46272,0.32444
1961.53398,0.32537
1959.60523,0.32640
1957.67649,0.32757
1955.74774,0.32879
1953.81900,0.32996
1951.89025,0.33117
1949.96151,0.33242
1948.03276,0.33355
1946.10402,0.33457
1944.17527,0.33570
1942.24652,0.33686
1940.31778,0.33783
1938.38903,0.33877
1936.46029,0.33978
1934.53154,0.34060
1932.60280,0.34121
1930.67405,0.34173
1928.74531,0.34226
1926.81656,0.34288
1924.88782,0.34354
1922.95907,0.34402
1921.03033,0.34430
1919.10158,0.34463
1917.17284,0.34496
1915.24409,0.34507
1913.31534,0.34503
1911.38660,0.34510
1909.45785,0.34533
1907.52911,0.34554
1905.60036,0.34545
1903.67162,0.34513
1901.74287,0.34489
1899.81413,0.34481
1897.88538,0.34471
1895.95664,0.34441
1894.02789,0.34406
1892.09915,0.34396
1890.17040,0.34411
1888.24166,0.34422
1886.31291,0.34410
1884.38417,0.34387
1882.45542,0.34359
1880.52667,0.34333
1878.59793,0.34318
1876.66918,0.34313
1874.74044,0.34302
1872.81169,0.34283
1870.88295,0.34269
1868.95420,0.34251
1867.02546,0.34228
1865.09671,0.34203
1863.16797,0.34170
1861.23922,0.34130
1859.31048,0.34082
1857.38173,0.34031
1855.45299,0.33986
1853.52424,0.33942
1851.59549,0.33887
1849.66675,0.33818
1847.73800,0.33742
1845.80926,0.33673
1843.88051,0.33606
1841.95177,0.33525
1840.02302,0.33439
1838.09428,0.33353
1836.16553,0.33260
1834.23679,0.33175
1832.30804,0.33107
1830.37930,0.33035
1828.45055,0.32928
1826.52181,0.32802
1824.59306,0.32674
1822.66432,0.32546
1820.73557,0.32417
1818.80682,0.32284
1816.87808,0.32139
1814.94933,0.31974
1813.02059,0.31801
1811.09184,0.31630
1809.16310,0.31450
1807.23435,0.31257
1805.30561,0.31057
1803.37686,0.30850
1801.44812,0.30623
1799.51937,0.30366
1797.59063,0.30085
1795.66188,0.29800
1793.73314,0.29508
1791.80439,0.29173
1789.87565,0.28799
1787.94690,0.28399
1786.01815,0.27944
1784.08941,0.27416
1782.16066,0.26847
1780.23192,0.26237
1778.30317,0.25574
1776.37443,0.24873
1774.44568,0.24089
1772.51694,0.23128
1770.58819,0.22076
1768.65945,0.21038
1766.73070,0.19988
1764.80196,0.18973
1762.87321,0.17939
1760.94447,0.16853
1759.01572,0.15863
1757.08697,0.14969
1755.15823,0.14175
1753.22948,0.13522
1751.30074,0.12931
1749.37199,0.12400
1747.44325,0.12000
1745.51450,0.11734
1743.58576,0.11556
1741.65701,0.11424
1739.72827,0.11341
1737.79952,0.11329
1735.87078,0.11379
1733.94203,0.11489
1732.01329,0.11632
1730.08454,0.11789
1728.15580,0.11984
1726.22705,0.12212
1724.29830,0.12482
1722.36956,0.12784
1720.44081,0.13101
1718.51207,0.13488
1716.58332,0.13965
1714.65458,0.14430
1712.72583,0.14846
1710.79709,0.15241
1708.86834,0.15611
1706.93960,0.15949
1705.01085,0.16233
1703.08211,0.16434
1701.15336,0.16568
1699.22462,0.16644
1697.29587,0.16637
1695.36713,0.16534
1693.43838,0.16369
1691.50963,0.16188
1689.58089,0.15980
1687.65214,0.15744
1685.72340,0.15428
1683.79465,0.14963
1681.86591,0.14488
1679.93716,0.14060
1678.00842,0.13628
1676.07967,0.13170
1674.15093,0.12689
1672.22218,0.12265
1670.29344,0.11896
1668.36469,0.11549
1666.43595,0.11284
1664.50720,0.11105
1662.57845,0.10976
1660.64971,0.10895
1658.72096,0.10881
1656.79222,0.10943
1654.86347,0.11057
1652.93473,0.11175
1651.00598,0.11243
1649.07724,0.11299
1647.14849,0.11339
1645.21975,0.11326
1643.29100,0.11294
1641.36226,0.11274
1639.43351,0.11263
1637.50477,0.11265
1635.57602,0.11277
1633.64728,0.11269
1631.71853,0.11252
1629.78978,0.11262
1627.86104,0.11291
1625.93229,0.11294
1624.00355,0.11242
1622.07480,0.11162
1620.14606,0.11092
1618.21731,0.11019
1616.28857,0.10899
1614.35982,0.10737
1612.43108,0.10566
1610.50233,0.10382
1608.57359,0.10214
1606.64484,0.10100
1604.71610,0.10051
1602.78735,0.10064
1600.85861,0.10110
1598.92986,0.10152
1597.00111,0.10170
1595.07237,0.10176
1593.14362,0.10211
1591.21488,0.10311
1589.28613,0.10487
1587.35739,0.10727
1585.42864,0.11020
1583.49990,0.11369
1581.57115,0.11803
1579.64241,0.12321
1577.71366,0.12939
1575.78492,0.13676
1573.85617,0.14352
1571.92743,0.14932
1569.99868,0.15543
1568.06993,0.16105
1566.14119,0.16514
1564.21244,0.16846
1562.28370,0.17140
1560.35495,0.17401
1558.42621,0.17594
1556.49746,0.17656
1554.56872,0.17665
1552.63997,0.17638
1550.71123,0.17567
1548.78248,0.17481
1546.85374,0.17393
1544.92499,0.17279
1542.99625,0.17109
1541.06750,0.16850
1539.13876,0.16447
1537.21001,0.16005
1535.28126,0.15529
1533.35252,0.14898
1531.42377,0.14167
1529.49503,0.13414
1527.56628,0.12556
1525.63754,0.11592
1523.70879,0.10601
1521.78005,0.09515
1519.85130,0.08468
1517.92256,0.07686
1515.99381,0.07125
1514.06507,0.06775
1512.13632,0.06619
1510.20758,0.06601
1508.27883,0.06711
1506.35008,0.06967
1504.42134,0.07279
1502.49259,0.07588
1500.56385,0.07929
1498.63510,0.08313
1496.70636,0.08709
1494.77761,0.09036
1492.84887,0.09268
1490.92012,0.09424
1488.99138,0.09464
1487.06263,0.09380
1485.13389,0.09252
1483.20514,0.09111
1481.27640,0.08934
1479.34765,0.08715
1477.41891,0.08455
1475.49016,0.08144
1473.56141,0.07752
1471.63267,0.07327
1469.70392,0.07009
1467.77518,0.06804
1465.84643,0.06662
1463.91769,0.06579
1461.98894,0.06558
1460.06020,0.06568
1458.13145,0.06563
1456.20271,0.06515
1454.27396,0.06467
1452.34522,0.06469
1450.41647,0.06528
1448.48773,0.06627
1446.55898,0.06718
1444.63024,0.06767
1442.70149,0.06760
1440.77274,0.06684
1438.84400,0.06551
1436.91525,0.06385
1434.98651,0.06229
1433.05776,0.06127
1431.12902,0.06070
1429.20027,0.06047
1427.27153,0.06057
1425.34278,0.06098
1423.41404,0.06157
1421.48529,0.06235
1419.55655,0.06344
1417.62780,0.06475
1415.69906,0.06609
1413.77031,0.06741
1411.84156,0.06854
1409.91282,0.06931
1407.98407,0.06989
1406.05533,0.07039
1404.12658,0.07073
1402.19784,0.07074
1400.26909,0.07046
1398.34035,0.06998
1396.41160,0.06934
1394.48286,0.06842
1392.55411,0.06724
1390.62537,0.06604
1388.69662,0.06484
1386.76788,0.06332
1384.83913,0.06148
1382.91039,0.05976
1380.98164,0.05855
1379.05289,0.05788
1377.12415,0.05758
1375.19540,0.05752
1373.26666,0.05764
1371.33791,0.05799
1369.40917,0.05854
1367.48042,0.05924
1365.55168,0.06001
1363.62293,0.06083
1361.69419,0.06167
1359.76544,0.06243
1357.83670,0.06305
1355.90795,0.06355
1353.97921,0.06392
1352.05046,0.06413
1350.12172,0.06420
1348.19297,0.06405
1346.26422,0.06360
1344.33548,0.06300
1342.40673,0.06244
1340.47799,0.06192
1338.54924,0.06150
1336.62050,0.06129
1334.69175,0.06116
1332.76301,0.06096
1330.83426,0.06086
1328.90552,0.06093
1326.97677,0.06088
1325.04803,0.06063
1323.11928,0.06024
1321.19054,0.05975
1319.26179,0.05958
1317.33304,0.05996
1315.40430,0.06054
1313.47555,0.06114
1311.54681,0.06182
1309.61806,0.06247
1307.68932,0.06297
1305.76057,0.06328
1303.83183,0.06342
1301.90308,0.06344
1299.97434,0.06323
1298.04559,0.06267
1296.11685,0.06189
1294.18810,0.06088
1292.25936,0.05970
1290.33061,0.05854
1288.40187,0.05742
1286.47312,0.05627
1284.54437,0.05511
1282.61563,0.05412
1280.68688,0.05346
1278.75814,0.05297
1276.82939,0.05250
1274.90065,0.05210
1272.97190,0.05177
1271.04316,0.05157
1269.11441,0.05170
1267.18567,0.05215
1265.25692,0.05281
1263.32818,0.05354
1261.39943,0.05420
1259.47069,0.05478
1257.54194,0.05531
1255.61320,0.05578
1253.68445,0.05623
1251.75570,0.05668
1249.82696,0.05693
1247.89821,0.05692
1245.96947,0.05681
1244.04072,0.05667
1242.11198,0.05651
1240.18323,0.05634
1238.25449,0.05613
1236.32574,0.05600
1234.39700,0.05605
1232.46825,0.05617
1230.53951,0.05631
1228.61076,0.05648
1226.68202,0.05658
1224.75327,0.05659
1222.82452,0.05665
1220.89578,0.05685
1218.96703,0.05710
1217.03829,0.05725
1215.10954,0.05728
1213.18080,0.05731
1211.25205,0.05743
1209.32331,0.05757
1207.39456,0.05770
1205.46582,0.05795
1203.53707,0.05841
1201.60833,0.05897
1199.67958,0.05932
1197.75084,0.05933
1195.82209,0.05918
1193.89335,0.05897
1191.96460,0.05857
1190.03585,0.05794
1188.10711,0.05713
1186.17836,0.05587
1184.24962,0.05398
1182.32087,0.05192
1180.39213,0.05013
1178.46338,0.04846
1176.53464,0.04676
1174.60589,0.04531
1172.67715,0.04453
1170.74840,0.04447
1168.81966,0.04504
1166.89091,0.04604
1164.96217,0.04713
1163.03342,0.04818
1161.10467,0.04909
1159.17593,0.04965
1157.24718,0.04989
1155.31844,0.04995
1153.38969,0.04977
1151.46095,0.04924
1149.53220,0.04860
1147.60346,0.04803
1145.67471,0.04746
1143.74597,0.04675
1141.81722,0.04591
1139.88848,0.04517
1137.95973,0.04459
1136.03099,0.04407
1134.10224,0.04347
1132.17350,0.04284
1130.24475,0.04250
1128.31600,0.04252
1126.38726,0.04271
1124.45851,0.04308
1122.52977,0.04366
1120.60102,0.04416
1118.67228,0.04440
1116.74353,0.04458
1114.81479,0.04506
1112.88604,0.04589
1110.95730,0.04690
1109.02855,0.04788
1107.09981,0.04846
1105.17106,0.04857
1103.24232,0.04867
1101.31357,0.04869
1099.38483,0.04847
1097.45608,0.04826
1095.52733,0.04821
1093.59859,0.04830
1091.66984,0.04848
1089.74110,0.04873
1087.81235,0.04907
1085.88361,0.04952
1083.95486,0.05019
1082.02612,0.05126
1080.09737,0.05275
1078.16863,0.05434
1076.23988,0.05592
1074.31114,0.05757
1072.38239,0.05924
1070.45365,0.06117
1068.52490,0.06354
1066.59615,0.06605
1064.66741,0.06861
1062.73866,0.07126
1060.80992,0.07359
1058.88117,0.07526
1056.95243,0.07621
1055.02368,0.07643
1053.09494,0.07618
1051.16619,0.07577
1049.23745,0.07505
1047.30870,0.07414
1045.37996,0.07353
1043.45121,0.07341
1041.52247,0.07398
1039.59372,0.07547
1037.66498,0.07754
1035.73623,0.07965
1033.80748,0.08133
1031.87874,0.08246
1029.94999,0.08326
1028.02125,0.08383
1026.09250,0.08434
1024.16376,0.08504
1022.23501,0.08577
1020.30627,0.08652
1018.37752,0.08739
1016.44878,0.08797
1014.52003,0.08819
1012.59129,0.08849
1010.66254,0.08891
1008.73380,0.08918
1006.80505,0.08929
1004.87631,0.08953
1002.94756,0.09003
1001.01881,0.09059
999.09007,0.09122
997.16132,0.09214
995.23258,0.09336
993.30383,0.09464
991.37509,0.09593
989.44634,0.09748
987.51760,0.09944
985.58885,0.10185
983.66011,0.10450
981.73136,0.10685
979.80262,0.10878
977.87387,0.11051
975.94513,0.11181
974.01638,0.11254
972.08763,0.11299
970.15889,0.11335
968.23014,0.11358
966.30140,0.11392
964.37265,0.11481
962.44391,0.11641
960.51516,0.11836
958.58642,0.12037
956.65767,0.12236
954.72893,0.12413
952.80018,0.12561
950.87144,0.12690
948.94269,0.12803
947.01395,0.12893
945.08520,0.12959
943.15646,0.13014
941.22771,0.13076
939.29896,0.13162
937.37022,0.13264
935.44147,0.13365
933.51273,0.13472
931.58398,0.13585
929.65524,0.13678
927.72649,0.13736
925.79775,0.13757
923.86900,0.13744
921.94026,0.13709
920.01151,0.13646
918.08277,0.13547
916.15402,0.13415
914.22528,0.13253
912.29653,0.13054
910.36779,0.12812
908.43904,0.12546
906.51029,0.12282
904.58155,0.12045
902.65280,0.11840
900.72406,0.11668
898.79531,0.11573
896.86657,0.11589
894.93782,0.11661
893.00908,0.11756
891.08033,0.11908
889.15159,0.12119
887.22284,0.12333
885.29410,0.12491
883.36535,0.12592
881.43661,0.12650
879.50786,0.12667
877.57911,0.12685
875.65037,0.12739
873.72162,0.12791
871.79288,0.12815
869.86413,0.12845
867.93539,0.12900
866.00664,0.12966
864.07790,0.13052
862.14915,0.13153
860.22041,0.13226
858.29166,0.13291
856.36292,0.13411
854.43417,0.13570
852.50543,0.13715
850.57668,0.13848
848.64794,0.13988
846.71919,0.14110
844.79044,0.14177
842.86170,0.14180
840.93295,0.14131
839.00421,0.14049
837.07546,0.13939
835.14672,0.13806
833.21797,0.13662
831.28923,0.13528
829.36048,0.13422
827.43174,0.13340
825.50299,0.13237
823.57425,0.13050
821.64550,0.12793
819.71676,0.12534
817.78801,0.12333
815.85926,0.12203
813.93052,0.12108
812.00177,0.12029
810.07303,0.11978
808.14428,0.11942
806.21554,0.11947
804.28679,0.12049
802.35805,0.12209
800.42930,0.12345
798.50056,0.12437
796.57181,0.12495
794.64307,0.12527
792.71432,0.12541
790.78558,0.12524
788.85683,0.12464
786.92809,0.12390
784.99934,0.12319
783.07059,0.12238
781.14185,0.12160
779.21310,0.12084
777.28436,0.11991
775.35561,0.11882
773.42687,0.11762
771.49812,0.11658
769.56938,0.11616
767.64063,0.11630
765.71189,0.11611
763.78314,0.11532
761.85440,0.11461
759.92565,0.11419
757.99691,0.11368
756.06816,0.11305
754.13942,0.11242
752.21067,0.11167
750.28192,0.11081
748.35318,0.11022
746.42443,0.10983
744.49569,0.10897
742.56694,0.10758
740.63820,0.10642
738.70945,0.10572
736.78071,0.10520
734.85196,0.10463
732.92322,0.10367
730.99447,0.10245
729.06573,0.10137
727.13698,0.10045
725.20824,0.09960
723.27949,0.09884
721.35074,0.09823
719.42200,0.09777
717.49325,0.09744
715.56451,0.09723
713.63576,0.09667
711.70702,0.09575
709.77827,0.09534
707.84953,0.09562
705.92078,0.09568
703.99204,0.09490
702.06329,0.09372
700.13455,0.09284
698.20580,0.09217
696.27706,0.09168
694.34831,0.09152
692.41957,0.09119
690.49082,0.09019
688.56207,0.08897
686.63333,0.08833
684.70458,0.08794
682.77584,0.08712
680.84709,0.08610
678.91835,0.08501
676.98960,0.08369
675.06086,0.08255
673.13211,0.08197
671.20337,0.08172
669.27462,0.08165
667.34588,0.08195
665.41713,0.08255
663.48839,0.08286
661.55964,0.08274
659.63090,0.08289
657.70215,0.08325
655.77340,0.08328
653.84466,0.08314
651.91591,0.08306
649.98717,0.08302
648.05842,0.08279
646.12968,0.08219
644.20093,0.08148
642.27219,0.08083
640.34344,0.08021
638.41470,0.07980
636.48595,0.07940
634.55721,0.07866
632.62846,0.07826
630.69972,0.07880
628.77097,0.07955
626.84222,0.07928
624.91348,0.07751
622.98473,0.07544
621.05599,0.07526
619.12724,0.07698
617.19850,0.07853
615.26975,0.07901
613.34101,0.07863
611.41226,0.07813
609.48352,0.07891
607.55477,0.08030
605.62603,0.08090
603.69728,0.08107
601.76854,0.08151
599.83979,0.08189
