7497.03301,0.83880
7495.10426,0.84471
7493.17552,0.85438
7491.24677,0.86161
7489.31803,0.86274
7487.38928,0.85687
7485.46054,0.84878
7483.53179,0.84406
7481.60305,0.84384
7479.67430,0.84280
7477.74556,0.83734
7475.81681,0.83457
7473.88807,0.83762
7471.95932,0.83923
7470.03057,0.83402
7468.10183,0.82520
7466.17308,0.82202
7464.24434,0.82660
7462.31559,0.83035
7460.38685,0.83133
7458.45810,0.83692
7456.52936,0.84653
7454.60061,0.85130
7452.67187,0.84692
7450.74312,0.83677
7448.81438,0.82856
7446.88563,0.82812
7444.95689,0.83530
7443.02814,0.84317
7441.09940,0.84213
7439.17065,0.83363
7437.24190,0.82850
7435.31316,0.82719
7433.38441,0.82234
7431.45567,0.81657
7429.52692,0.81563
7427.59818,0.81552
7425.66943,0.81402
7423.74069,0.81670
7421.81194,0.82207
7419.88320,0.82154
7417.95445,0.81324
7416.02571,0.80423
7414.09696,0.80236
7412.16822,0.80798
7410.23947,0.81433
7408.31073,0.81546
7406.38198,0.81145
7404.45323,0.80695
7402.52449,0.80558
7400.59574,0.80610
7398.66700,0.80600
7396.73825,0.80755
7394.80951,0.81116
7392.88076,0.81416
7390.95202,0.81764
7389.02327,0.81749
7387.09453,0.81156
7385.16578,0.80884
7383.23704,0.81086
7381.30829,0.81208
7379.37955,0.81237
7377.45080,0.81156
7375.52205,0.81004
7373.59331,0.80870
7371.66456,0.80585
7369.73582,0.80191
7367.80707,0.79672
7365.87833,0.79056
7363.94958,0.78858
7362.02084,0.79161
7360.09209,0.79483
7358.16335,0.79636
7356.23460,0.79752
7354.30586,0.79927
7352.37711,0.80189
7350.44837,0.80439
7348.51962,0.80397
7346.59088,0.80095
7344.66213,0.79896
7342.73338,0.79962
7340.80464,0.80324
7338.87589,0.80801
7336.94715,0.80851
7335.01840,0.80277
7333.08966,0.79614
7331.16091,0.79209
7329.23217,0.78945
7327.30342,0.78864
7325.37468,0.78979
7323.44593,0.78926
7321.51719,0.78393
7319.58844,0.77810
7317.65970,0.77959
7315.73095,0.78850
7313.80221,0.79746
7311.87346,0.79901
7309.94471,0.79244
7308.01597,0.78632
7306.08722,0.78726
7304.15848,0.79101
7302.22973,0.79326
7300.30099,0.79443
7298.37224,0.79123
7296.44350,0.78362
7294.51475,0.77936
7292.58601,0.77898
7290.65726,0.77751
7288.72852,0.77829
7286.79977,0.78227
7284.87103,0.78263
7282.94228,0.77951
7281.01353,0.77657
7279.08479,0.77407
7277.15604,0.77244
7275.22730,0.77161
7273.29855,0.77327
7271.36981,0.77864
7269.44106,0.78379
7267.51232,0.78527
7265.58357,0.78532
7263.65483,0.78648
7261.72608,0.78754
7259.79734,0.78945
7257.86859,0.79082
7255.93985,0.78660
7254.01110,0.78262
7252.08236,0.78594
7250.15361,0.78887
7248.22486,0.78459
7246.29612,0.77864
7244.36737,0.77579
7242.43863,0.77499
7240.50988,0.77662
7238.58114,0.77976
7236.65239,0.78118
7234.72365,0.78061
7232.79490,0.77833
7230.86616,0.77546
7228.93741,0.77627
7227.00867,0.78035
7225.07992,0.78086
7223.15118,0.77737
7221.22243,0.77630
7219.29369,0.77805
7217.36494,0.78013
7215.43619,0.78168
7213.50745,0.78044
7211.57870,0.77650
7209.64996,0.77400
7207.72121,0.77486
7205.79247,0.77479
7203.86372,0.77132
7201.93498,0.76877
7200.00623,0.77009
7198.07749,0.77521
7196.14874,0.78076
7194.22000,0.78156
7192.29125,0.77853
7190.36251,0.77571
7188.43376,0.77344
7186.50501,0.77029
7184.57627,0.76742
7182.64752,0.76676
7180.71878,0.76624
7178.79003,0.76351
7176.86129,0.75892
7174.93254,0.75494
7173.00380,0.75775
7171.07505,0.76679
7169.14631,0.77108
7167.21756,0.76706
7165.28882,0.76151
7163.36007,0.75727
7161.43133,0.75460
7159.50258,0.75589
7157.57384,0.75947
7155.64509,0.75952
7153.71634,0.75497
7151.78760,0.75058
7149.85885,0.74734
7147.93011,0.74180
7146.00136,0.73682
7144.07262,0.73863
7142.14387,0.74442
7140.21513,0.74592
7138.28638,0.74248
7136.35764,0.74080
7134.42889,0.74190
7132.50015,0.74269
7130.57140,0.74322
7128.64266,0.74177
7126.71391,0.73774
7124.78516,0.73422
7122.85642,0.73175
7120.92767,0.72963
7118.99893,0.72785
7117.07018,0.72680
7115.14144,0.72674
7113.21269,0.72723
7111.28395,0.72743
7109.35520,0.72631
7107.42646,0.72438
7105.49771,0.72172
7103.56897,0.71840
7101.64022,0.71719
7099.71148,0.71681
7097.78273,0.71418
7095.85399,0.71230
7093.92524,0.71301
7091.99649,0.71364
7090.06775,0.71480
7088.13900,0.71724
7086.21026,0.71660
7084.28151,0.71090
7082.35277,0.70459
7080.42402,0.70161
7078.49528,0.70279
7076.56653,0.70649
7074.63779,0.70817
7072.70904,0.70504
7070.78030,0.70054
7068.85155,0.69919
7066.92281,0.70019
7064.99406,0.69974
7063.06532,0.69638
7061.13657,0.69054
7059.20782,0.68369
7057.27908,0.67943
7055.35033,0.67830
7053.42159,0.67689
7051.49284,0.67610
7049.56410,0.67837
7047.63535,0.68027
7045.70661,0.67791
7043.77786,0.67416
7041.84912,0.67258
7039.92037,0.67065
7037.99163,0.66699
7036.06288,0.66425
7034.13414,0.66538
7032.20539,0.67138
7030.27664,0.67555
7028.34790,0.67219
7026.41915,0.66620
7024.49041,0.66195
7022.56166,0.65929
7020.63292,0.65773
7018.70417,0.65639
7016.77543,0.65555
7014.84668,0.65514
7012.91794,0.65428
7010.98919,0.65309
7009.06045,0.65110
7007.13170,0.64944
7005.20296,0.64922
7003.27421,0.64659
7001.34547,0.64159
6999.41672,0.64023
6997.48797,0.64250
6995.55923,0.64342
6993.63048,0.64228
6991.70174,0.64188
6989.77299,0.64212
6987.84425,0.64112
6985.91550,0.63993
6983.98676,0.63994
6982.05801,0.63888
6980.12927,0.63540
6978.20052,0.63439
6976.27178,0.63836
6974.34303,0.64217
6972.41429,0.64294
6970.48554,0.64105
6968.55680,0.63650
6966.62805,0.63199
6964.69930,0.63005
6962.77056,0.62944
6960.84181,0.62864
6958.91307,0.62906
6956.98432,0.63130
6955.05558,0.63281
6953.12683,0.63195
6951.19809,0.63014
6949.26934,0.62970
6947.34060,0.63061
6945.41185,0.63240
6943.48311,0.63523
6941.55436,0.63638
6939.62562,0.63374
6937.69687,0.63024
6935.76812,0.62856
6933.83938,0.62660
6931.91063,0.62384
6929.98189,0.62336
6928.05314,0.62392
6926.12440,0.62354
6924.19565,0.62493
6922.26691,0.62796
6920.33816,0.62912
6918.40942,0.62752
6916.48067,0.62462
6914.55193,0.62234
6912.62318,0.62104
6910.69444,0.62034
6908.76569,0.62293
6906.83695,0.62829
6904.90820,0.62898
6902.97945,0.62488
6901.05071,0.62420
6899.12196,0.62735
6897.19322,0.62806
6895.26447,0.62624
6893.33573,0.62678
6891.40698,0.62939
6889.47824,0.63044
6887.54949,0.63057
6885.62075,0.63119
6883.69200,0.63016
6881.76326,0.62750
6879.83451,0.62749
6877.90577,0.63033
6875.97702,0.63146
6874.04828,0.62985
6872.11953,0.62814
6870.19078,0.62766
6868.26204,0.62709
6866.33329,0.62663
6864.40455,0.62830
6862.47580,0.63035
6860.54706,0.63044
6858.61831,0.63106
6856.68957,0.63354
6854.76082,0.63387
6852.83208,0.62956
6850.90333,0.62423
6848.97459,0.62203
6847.04584,0.62292
6845.11710,0.62460
6843.18835,0.62538
6841.25960,0.62495
6839.33086,0.62495
6837.40211,0.62569
6835.47337,0.62524
6833.54462,0.62495
6831.61588,0.62628
6829.68713,0.62644
6827.75839,0.62505
6825.82964,0.62546
6823.90090,0.62785
6821.97215,0.62945
6820.04341,0.62910
6818.11466,0.62673
6816.18592,0.62348
6814.25717,0.62179
6812.32843,0.62323
6810.39968,0.62654
6808.47093,0.62782
6806.54219,0.62627
6804.61344,0.62523
6802.68470,0.62458
6800.75595,0.62233
6798.82721,0.62051
6796.89846,0.62067
6794.96972,0.62022
6793.04097,0.61823
6791.11223,0.61799
6789.18348,0.62109
6787.25474,0.62464
6785.32599,0.62749
6783.39725,0.62987
6781.46850,0.62922
6779.53975,0.62632
6777.61101,0.62517
6775.68226,0.62628
6773.75352,0.62709
6771.82477,0.62660
6769.89603,0.62762
6767.96728,0.63026
6766.03854,0.62916
6764.10979,0.62405
6762.18105,0.62190
6760.25230,0.62551
6758.32356,0.62977
6756.39481,0.63022
6754.46607,0.62804
6752.53732,0.62641
6750.60858,0.62570
6748.67983,0.62523
6746.75108,0.62665
6744.82234,0.62943
6742.89359,0.62907
6740.96485,0.62592
6739.03610,0.62487
6737.10736,0.62586
6735.17861,0.62654
6733.24987,0.62670
6731.32112,0.62685
6729.39238,0.62861
6727.46363,0.63202
6725.53489,0.63405
6723.60614,0.63305
6721.67740,0.63089
6719.74865,0.63031
6717.81991,0.63009
6715.89116,0.62762
6713.96241,0.62610
6712.03367,0.62824
6710.10492,0.62979
6708.17618,0.62903
6706.24743,0.62938
6704.31869,0.63128
6702.38994,0.63234
6700.46120,0.63204
6698.53245,0.63126
6696.60371,0.63065
6694.67496,0.63165
6692.74622,0.63356
6690.81747,0.63288
6688.88873,0.62981
6686.95998,0.62806
6685.03123,0.62974
6683.10249,0.63341
6681.17374,0.63554
6679.24500,0.63507
6677.31625,0.63434
6675.38751,0.63433
6673.45876,0.63306
6671.53002,0.63127
6669.60127,0.63320
6667.67253,0.63756
6665.74378,0.63841
6663.81504,0.63622
6661.88629,0.63512
6659.95755,0.63485
6658.02880,0.63478
6656.10006,0.63547
6654.17131,0.63635
6652.24256,0.63630
6650.31382,0.63483
6648.38507,0.63388
6646.45633,0.63517
6644.52758,0.63764
6642.59884,0.64038
6640.67009,0.64191
6638.74135,0.64046
6636.81260,0.63807
6634.88386,0.63758
6632.95511,0.63821
6631.02637,0.63889
6629.09762,0.63977
6627.16888,0.64087
6625.24013,0.64298
6623.31139,0.64586
6621.38264,0.64790
6619.45389,0.64817
6617.52515,0.64595
6615.59640,0.64325
6613.66766,0.64328
6611.73891,0.64446
6609.81017,0.64445
6607.88142,0.64431
6605.95268,0.64502
6604.02393,0.64608
6602.09519,0.64675
6600.16644,0.64703
6598.23770,0.64771
6596.30895,0.65016
6594.38021,0.65395
6592.45146,0.65477
6590.52271,0.65043
6588.59397,0.64633
6586.66522,0.64819
6584.73648,0.65273
6582.80773,0.65435
6580.87899,0.65361
6578.95024,0.65234
6577.02150,0.65105
6575.09275,0.65043
6573.16401,0.65030
6571.23526,0.65033
6569.30652,0.65041
6567.37777,0.64994
6565.44903,0.64874
6563.52028,0.64779
6561.59154,0.64767
6559.66279,0.64756
6557.73404,0.64716
6555.80530,0.64759
6553.87655,0.65003
6551.94781,0.65467
6550.01906,0.65898
6548.09032,0.65929
6546.16157,0.65646
6544.23283,0.65389
6542.30408,0.65232
6540.37534,0.65053
6538.44659,0.64885
6536.51785,0.64932
6534.58910,0.65106
6532.66036,0.65246
6530.73161,0.65510
6528.80287,0.65802
6526.87412,0.65810
6524.94537,0.65637
6523.01663,0.65512
6521.08788,0.65502
6519.15914,0.65530
6517.23039,0.65366
6515.30165,0.65083
6513.37290,0.65036
6511.44416,0.65203
6509.51541,0.65267
6507.58667,0.65154
6505.65792,0.65198
6503.72918,0.65538
6501.80043,0.65729
6499.87169,0.65539
6497.94294,0.65355
6496.01419,0.65391
6494.08545,0.65383
6492.15670,0.65220
6490.22796,0.65147
6488.29921,0.65328
6486.37047,0.65499
6484.44172,0.65494
6482.51298,0.65499
6480.58423,0.65517
6478.65549,0.65707
6476.72674,0.66294
6474.79800,0.66763
6472.86925,0.66602
6470.94051,0.66159
6469.01176,0.65993
6467.08302,0.66030
6465.15427,0.65875
6463.22552,0.65580
6461.29678,0.65489
6459.36803,0.65639
6457.43929,0.65831
6455.51054,0.65937
6453.58180,0.66003
6451.65305,0.66143
6449.72431,0.66189
6447.79556,0.65916
6445.86682,0.65582
6443.93807,0.65539
6442.00933,0.65708
6440.08058,0.65866
6438.15184,0.66089
6436.22309,0.66421
6434.29434,0.66631
6432.36560,0.66603
6430.43685,0.66422
6428.50811,0.66302
6426.57936,0.66353
6424.65062,0.66368
6422.72187,0.66120
6420.79313,0.65784
6418.86438,0.65726
6416.93564,0.65936
6415.00689,0.66142
6413.07815,0.66252
6411.14940,0.66317
6409.22066,0.66326
6407.29191,0.66300
6405.36317,0.66261
6403.43442,0.66178
6401.50567,0.66167
6399.57693,0.66259
6397.64818,0.66320
6395.71944,0.66272
6393.79069,0.66105
6391.86195,0.66030
6389.93320,0.66254
6388.00446,0.66553
6386.07571,0.66509
6384.14697,0.66185
6382.21822,0.66046
6380.28948,0.66192
6378.36073,0.66333
6376.43199,0.66343
6374.50324,0.66344
6372.57450,0.66366
6370.64575,0.66434
6368.71700,0.66584
6366.78826,0.66624
6364.85951,0.66517
6362.93077,0.66469
6361.00202,0.66549
6359.07328,0.66642
6357.14453,0.66624
6355.21579,0.66539
6353.28704,0.66480
6351.35830,0.66458
6349.42955,0.66387
6347.50081,0.66235
6345.57206,0.66180
6343.64332,0.66354
6341.71457,0.66610
6339.78582,0.66740
6337.85708,0.66715
6335.92833,0.66578
6333.99959,0.66426
6332.07084,0.66368
6330.14210,0.66403
6328.21335,0.66557
6326.28461,0.66755
6324.35586,0.66817
6322.42712,0.66719
6320.49837,0.66559
6318.56963,0.66521
6316.64088,0.66704
6314.71214,0.66883
6312.78339,0.66877
6310.85465,0.66865
6308.92590,0.66908
6306.99715,0.66868
6305.06841,0.66848
6303.13966,0.67000
6301.21092,0.67220
6299.28217,0.67365
6297.35343,0.67386
6295.42468,0.67335
6293.49594,0.67364
6291.56719,0.67356
6289.63845,0.67176
6287.70970,0.67143
6285.78096,0.67344
6283.85221,0.67469
6281.92347,0.67392
6279.99472,0.67273
6278.06598,0.67376
6276.13723,0.67637
6274.20848,0.67764
6272.27974,0.67647
6270.35099,0.67356
6268.42225,0.67163
6266.49350,0.67280
6264.56476,0.67566
6262.63601,0.67793
6260.70727,0.67930
6258.77852,0.67987
6256.84978,0.67937
6254.92103,0.67901
6252.99229,0.68004
6251.06354,0.68158
6249.13480,0.68288
6247.20605,0.68407
6245.27730,0.68434
6243.34856,0.68357
6241.41981,0.68355
6239.49107,0.68469
6237.56232,0.68532
6235.63358,0.68496
6233.70483,0.68471
6231.77609,0.68414
6229.84734,0.68298
6227.91860,0.68359
6225.98985,0.68635
6224.06111,0.68945
6222.13236,0.69187
6220.20362,0.69230
6218.27487,0.69125
6216.34613,0.69170
6214.41738,0.69392
6212.48863,0.69544
6210.55989,0.69537
6208.63114,0.69430
6206.70240,0.69309
6204.77365,0.69316
6202.84491,0.69426
6200.91616,0.69472
6198.98742,0.69464
6197.05867,0.69482
6195.12993,0.69485
6193.20118,0.69451
6191.27244,0.69510
6189.34369,0.69763
6187.41495,0.69992
6185.48620,0.69969
6183.55746,0.69881
6181.62871,0.69962
6179.69996,0.70162
6177.77122,0.70258
6175.84247,0.70141
6173.91373,0.70073
6171.98498,0.70236
6170.05624,0.70417
6168.12749,0.70406
6166.19875,0.70250
6164.27000,0.70186
6162.34126,0.70327
6160.41251,0.70562
6158.48377,0.70688
6156.55502,0.70552
6154.62628,0.70303
6152.69753,0.70227
6150.76878,0.70343
6148.84004,0.70477
6146.91129,0.70516
6144.98255,0.70553
6143.05380,0.70665
6141.12506,0.70698
6139.19631,0.70609
6137.26757,0.70593
6135.33882,0.70750
6133.41008,0.70994
6131.48133,0.71140
6129.55259,0.71087
6127.62384,0.70989
6125.69510,0.71035
6123.76635,0.71127
6121.83761,0.71145
6119.90886,0.71202
6117.98011,0.71359
6116.05137,0.71487
6114.12262,0.71507
6112.19388,0.71448
6110.26513,0.71359
6108.33639,0.71355
6106.40764,0.71483
6104.47890,0.71543
6102.55015,0.71438
6100.62141,0.71338
6098.69266,0.71287
6096.76392,0.71187
6094.83517,0.71108
6092.90643,0.71115
6090.97768,0.71176
6089.04893,0.71327
6087.12019,0.71467
6085.19144,0.71452
6083.26270,0.71410
6081.33395,0.71486
6079.40521,0.71607
6077.47646,0.71634
6075.54772,0.71610
6073.61897,0.71593
6071.69023,0.71467
6069.76148,0.71326
6067.83274,0.71342
6065.90399,0.71410
6063.97525,0.71457
6062.04650,0.71546
6060.11776,0.71611
6058.18901,0.71562
6056.26026,0.71476
6054.33152,0.71428
6052.40277,0.71322
6050.47403,0.71118
6048.54528,0.70981
6046.61654,0.71008
6044.68779,0.71113
6042.75905,0.71114
6040.83030,0.70949
6038.90156,0.70904
6036.97281,0.71098
6035.04407,0.71188
6033.11532,0.71053
6031.18658,0.70892
6029.25783,0.70774
6027.32909,0.70694
6025.40034,0.70578
6023.47159,0.70449
6021.54285,0.70514
6019.61410,0.70751
6017.68536,0.70942
6015.75661,0.70951
6013.82787,0.70766
6011.89912,0.70581
6009.97038,0.70573
6008.04163,0.70651
6006.11289,0.70595
6004.18414,0.70337
6002.25540,0.70102
6000.32665,0.70072
5998.39791,0.70109
5996.46916,0.70085
5994.54041,0.70042
5992.61167,0.70009
5990.68292,0.70039
5988.75418,0.70144
5986.82543,0.70140
5984.89669,0.69940
5982.96794,0.69753
5981.03920,0.69718
5979.11045,0.69757
5977.18171,0.69750
5975.25296,0.69628
5973.32422,0.69537
5971.39547,0.69614
5969.46673,0.69707
5967.53798,0.69701
5965.60924,0.69680
5963.68049,0.69691
5961.75174,0.69699
5959.82300,0.69652
5957.89425,0.69558
5955.96551,0.69555
5954.03676,0.69681
5952.10802,0.69764
5950.17927,0.69817
5948.25053,0.69989
5946.32178,0.70173
5944.39304,0.70204
5942.46429,0.70134
5940.53555,0.70124
5938.60680,0.70201
5936.67806,0.70227
5934.74931,0.70171
5932.82057,0.70123
5930.89182,0.70079
5928.96307,0.69998
5927.03433,0.69902
5925.10558,0.69811
5923.17684,0.69769
5921.24809,0.69834
5919.31935,0.69898
5917.39060,0.69838
5915.46186,0.69720
5913.53311,0.69622
5911.60437,0.69571
5909.67562,0.69569
5907.74688,0.69560
5905.81813,0.69525
5903.88939,0.69503
5901.96064,0.69522
5900.03189,0.69565
5898.10315,0.69561
5896.17440,0.69482
5894.24566,0.69418
5892.31691,0.69434
5890.38817,0.69507
5888.45942,0.69561
5886.53068,0.69524
5884.60193,0.69398
5882.67319,0.69249
5880.74444,0.69193
5878.81570,0.69249
5876.88695,0.69270
5874.95821,0.69199
5873.02946,0.69119
5871.10072,0.69109
5869.17197,0.69196
5867.24322,0.69227
5865.31448,0.69132
5863.38573,0.69116
5861.45699,0.69167
5859.52824,0.69119
5857.59950,0.69069
5855.67075,0.69146
5853.74201,0.69268
5851.81326,0.69261
5849.88452,0.69098
5847.95577,0.68930
5846.02703,0.68839
5844.09828,0.68809
5842.16954,0.68836
5840.24079,0.68866
5838.31205,0.68892
5836.38330,0.68959
5834.45455,0.69004
5832.52581,0.68979
5830.59706,0.68944
5828.66832,0.68904
5826.73957,0.68820
5824.81083,0.68708
5822.88208,0.68595
5820.95334,0.68531
5819.02459,0.68600
5817.09585,0.68777
5815.16710,0.68873
5813.23836,0.68745
5811.30961,0.68593
5809.38087,0.68632
5807.45212,0.68659
5805.52337,0.68568
5803.59463,0.68561
5801.66588,0.68603
5799.73714,0.68528
5797.80839,0.68436
5795.87965,0.68470
5793.95090,0.68535
5792.02216,0.68527
5790.09341,0.68515
5788.16467,0.68514
5786.23592,0.68510
5784.30718,0.68517
5782.37843,0.68466
5780.44969,0.68391
5778.52094,0.68404
5776.59220,0.68450
5774.66345,0.68478
5772.73470,0.68569
5770.80596,0.68731
5768.87721,0.68840
5766.94847,0.68827
5765.01972,0.68754
5763.09098,0.68721
5761.16223,0.68762
5759.23349,0.68800
5757.30474,0.68790
5755.37600,0.68790
5753.44725,0.68842
5751.51851,0.68904
5749.58976,0.68878
5747.66102,0.68765
5745.73227,0.68708
5743.80352,0.68772
5741.87478,0.68865
5739.94603,0.68870
5738.01729,0.68779
5736.08854,0.68708
5734.15980,0.68748
5732.23105,0.68800
5730.30231,0.68831
5728.37356,0.68988
5726.44482,0.69212
5724.51607,0.69277
5722.58733,0.69151
5720.65858,0.68998
5718.72984,0.68926
5716.80109,0.68913
5714.87235,0.68916
5712.94360,0.68893
5711.01485,0.68871
5709.08611,0.68964
5707.15736,0.69085
5705.22862,0.69003
5703.29987,0.68800
5701.37113,0.68728
5699.44238,0.68747
5697.51364,0.68722
5695.58489,0.68693
5693.65615,0.68696
5691.72740,0.68747
5689.79866,0.68858
5687.86991,0.68886
5685.94117,0.68783
5684.01242,0.68702
5682.08368,0.68696
5680.15493,0.68738
5678.22618,0.68772
5676.29744,0.68703
5674.36869,0.68600
5672.43995,0.68589
5670.51120,0.68597
5668.58246,0.68547
5666.65371,0.68488
5664.72497,0.68405
5662.79622,0.68332
5660.86748,0.68368
5658.93873,0.68417
5657.00999,0.68400
5655.08124,0.68390
5653.15250,0.68363
5651.22375,0.68330
5649.29500,0.68427
5647.36626,0.68588
5645.43751,0.68609
5643.50877,0.68502
5641.58002,0.68369
5639.65128,0.68265
5637.72253,0.68229
5635.79379,0.68230
5633.86504,0.68243
5631.93630,0.68293
5630.00755,0.68345
5628.07881,0.68359
5626.15006,0.68338
5624.22132,0.68331
5622.29257,0.68358
5620.36383,0.68349
5618.43508,0.68321
5616.50633,0.68342
5614.57759,0.68365
5612.64884,0.68400
5610.72010,0.68495
5608.79135,0.68509
5606.86261,0.68342
5604.93386,0.68166
5603.00512,0.68102
5601.07637,0.68110
5599.14763,0.68186
5597.21888,0.68278
5595.29014,0.68286
5593.36139,0.68266
5591.43265,0.68283
5589.50390,0.68293
5587.57516,0.68292
5585.64641,0.68339
5583.71766,0.68450
5581.78892,0.68507
5579.86017,0.68437
5577.93143,0.68379
5576.00268,0.68406
5574.07394,0.68432
5572.14519,0.68456
5570.21645,0.68553
5568.28770,0.68660
5566.35896,0.68670
5564.43021,0.68599
5562.50147,0.68509
5560.57272,0.68458
5558.64398,0.68465
5556.71523,0.68505
5554.78648,0.68574
5552.85774,0.68641
5550.92899,0.68660
5549.00025,0.68651
5547.07150,0.68645
5545.14276,0.68633
5543.21401,0.68688
5541.28527,0.68820
5539.35652,0.68867
5537.42778,0.68778
5535.49903,0.68675
5533.57029,0.68680
5531.64154,0.68815
5529.71280,0.68911
5527.78405,0.68847
5525.85531,0.68759
5523.92656,0.68750
5521.99781,0.68751
5520.06907,0.68733
5518.14032,0.68751
5516.21158,0.68812
5514.28283,0.68888
5512.35409,0.68978
5510.42534,0.69079
5508.49660,0.69120
5506.56785,0.69034
5504.63911,0.68902
5502.71036,0.68887
5500.78162,0.68975
5498.85287,0.69024
5496.92413,0.69051
5494.99538,0.69092
5493.06664,0.69066
5491.13789,0.69031
5489.20914,0.69096
5487.28040,0.69175
5485.35165,0.69207
5483.42291,0.69222
5481.49416,0.69193
5479.56542,0.69160
5477.63667,0.69140
5475.70793,0.69072
5473.77918,0.69051
5471.85044,0.69142
5469.92169,0.69218
5467.99295,0.69217
5466.06420,0.69209
5464.13546,0.69226
5462.20671,0.69234
5460.27796,0.69242
5458.34922,0.69274
5456.42047,0.69303
5454.49173,0.69329
5452.56298,0.69383
5450.63424,0.69461
5448.70549,0.69559
5446.77675,0.69694
5444.84800,0.69808
5442.91926,0.69820
5440.99051,0.69750
5439.06177,0.69720
5437.13302,0.69769
5435.20428,0.69811
5433.27553,0.69786
5431.34679,0.69728
5429.41804,0.69728
5427.48929,0.69816
5425.56055,0.69948
5423.63180,0.70102
5421.70306,0.70214
5419.77431,0.70204
5417.84557,0.70106
5415.91682,0.70006
5413.98808,0.69943
5412.05933,0.69944
5410.13059,0.70059
5408.20184,0.70232
5406.27310,0.70306
5404.34435,0.70272
5402.41561,0.70238
5400.48686,0.70265
5398.55811,0.70369
5396.62937,0.70468
5394.70062,0.70442
5392.77188,0.70378
5390.84313,0.70424
5388.91439,0.70477
5386.98564,0.70439
5385.05690,0.70411
5383.12815,0.70399
5381.19941,0.70332
5379.27066,0.70283
5377.34192,0.70327
5375.41317,0.70404
5373.48443,0.70428
5371.55568,0.70376
5369.62694,0.70281
5367.69819,0.70216
5365.76944,0.70190
5363.84070,0.70178
5361.91195,0.70193
5359.98321,0.70198
5358.05446,0.70192
5356.12572,0.70235
5354.19697,0.70272
5352.26823,0.70228
5350.33948,0.70149
5348.41074,0.70095
5346.48199,0.70049
5344.55325,0.69959
5342.62450,0.69813
5340.69576,0.69680
5338.76701,0.69630
5336.83827,0.69618
5334.90952,0.69538
5332.98077,0.69425
5331.05203,0.69386
5329.12328,0.69379
5327.19454,0.69298
5325.26579,0.69107
5323.33705,0.68856
5321.40830,0.68632
5319.47956,0.68471
5317.55081,0.68359
5315.62207,0.68265
5313.69332,0.68148
5311.76458,0.67972
5309.83583,0.67728
5307.90709,0.67462
5305.97834,0.67272
5304.04959,0.67162
5302.12085,0.67006
5300.19210,0.66727
5298.26336,0.66405
5296.33461,0.66139
5294.40587,0.65900
5292.47712,0.65625
5290.54838,0.65320
5288.61963,0.64976
5286.69089,0.64623
5284.76214,0.64312
5282.83340,0.63972
5280.90465,0.63558
5278.97591,0.63140
5277.04716,0.62776
5275.11842,0.62484
5273.18967,0.62187
5271.26092,0.61817
5269.33218,0.61453
5267.40343,0.61104
5265.47469,0.60668
5263.54594,0.60214
5261.61720,0.59844
5259.68845,0.59518
5257.75971,0.59192
5255.83096,0.58849
5253.90222,0.58515
5251.97347,0.58220
5250.04473,0.57903
5248.11598,0.57559
5246.18724,0.57270
5244.25849,0.57008
5242.32975,0.56702
5240.40100,0.56388
5238.47225,0.56091
5236.54351,0.55802
5234.61476,0.55597
5232.68602,0.55509
5230.75727,0.55423
5228.82853,0.55289
5226.89978,0.55127
5224.97104,0.54882
5223.04229,0.54600
5221.11355,0.54438
5219.18480,0.54363
5217.25606,0.54243
5215.32731,0.54101
5213.39857,0.54027
5211.46982,0.54003
5209.54107,0.53970
5207.61233,0.53932
5205.68358,0.53852
5203.75484,0.53679
5201.82609,0.53505
5199.89735,0.53429
5197.96860,0.53428
5196.03986,0.53427
5194.11111,0.53375
5192.18237,0.53338
5190.25362,0.53401
5188.32488,0.53472
5186.39613,0.53440
5184.46739,0.53382
5182.53864,0.53399
5180.60990,0.53455
5178.68115,0.53470
5176.75240,0.53478
5174.82366,0.53585
5172.89491,0.53756
5170.96617,0.53883
5169.03742,0.53940
5167.10868,0.53957
5165.17993,0.53996
5163.25119,0.54076
5161.32244,0.54153
5159.39370,0.54210
5157.46495,0.54271
5155.53621,0.54353
5153.60746,0.54487
5151.67872,0.54678
5149.74997,0.54840
5147.82123,0.54937
5145.89248,0.55014
5143.96373,0.55077
5142.03499,0.55117
5140.10624,0.55172
5138.17750,0.55290
5136.24875,0.55434
5134.32001,0.55539
5132.39126,0.55654
5130.46252,0.55816
5128.53377,0.55923
5126.60503,0.55947
5124.67628,0.56016
5122.74754,0.56162
5120.81879,0.56304
5118.89005,0.56437
5116.96130,0.56583
5115.03255,0.56704
5113.10381,0.56795
5111.17506,0.56948
5109.24632,0.57159
5107.31757,0.57293
5105.38883,0.57320
5103.46008,0.57299
5101.53134,0.57323
5099.60259,0.57450
5097.67385,0.57586
5095.74510,0.57656
5093.81636,0.57710
5091.88761,0.57759
5089.95887,0.57822
5088.03012,0.57966
5086.10138,0.58145
5084.17263,0.58266
5082.24388,0.58349
5080.31514,0.58447
5078.38639,0.58533
5076.45765,0.58591
5074.52890,0.58691
5072.60016,0.58852
5070.67141,0.58972
5068.74267,0.59005
5066.81392,0.59036
5064.88518,0.59112
5062.95643,0.59213
5061.02769,0.59343
5059.09894,0.59514
5057.17020,0.59661
5055.24145,0.59722
5053.31270,0.59751
5051.38396,0.59811
5049.45521,0.59868
5047.52647,0.59927
5045.59772,0.59999
5043.66898,0.60025
5041.74023,0.60054
5039.81149,0.60171
5037.88274,0.60271
5035.95400,0.60288
5034.02525,0.60349
5032.09651,0.60486
5030.16776,0.60580
5028.23902,0.60639
5026.31027,0.60747
5024.38153,0.60848
5022.45278,0.60880
5020.52403,0.60900
5018.59529,0.60943
5016.66654,0.60979
5014.73780,0.60995
5012.80905,0.61009
5010.88031,0.61050
5008.95156,0.61123
5007.02282,0.61192
5005.09407,0.61235
5003.16533,0.61266
5001.23658,0.61300
4999.30784,0.61328
4997.37909,0.61296
4995.45035,0.61214
4993.52160,0.61177
4991.59286,0.61213
4989.66411,0.61263
4987.73536,0.61288
4985.80662,0.61271
4983.87787,0.61219
4981.94913,0.61168
4980.02038,0.61119
4978.09164,0.61068
4976.16289,0.61008
4974.23415,0.60931
4972.30540,0.60859
4970.37666,0.60787
4968.44791,0.60691
4966.51917,0.60581
4964.59042,0.60482
4962.66168,0.60423
4960.73293,0.60432
4958.80418,0.60472
4956.87544,0.60446
4954.94669,0.60311
4953.01795,0.60110
4951.08920,0.59910
4949.16046,0.59751
4947.23171,0.59632
4945.30297,0.59537
4943.37422,0.59434
4941.44548,0.59296
4939.51673,0.59118
4937.58799,0.58938
4935.65924,0.58814
4933.73050,0.58721
4931.80175,0.58618
4929.87301,0.58520
4927.94426,0.58396
4926.01551,0.58205
4924.08677,0.57995
4922.15802,0.57805
4920.22928,0.57591
4918.30053,0.57320
4916.37179,0.57065
4914.44304,0.56928
4912.51430,0.56865
4910.58555,0.56751
4908.65681,0.56592
4906.72806,0.56480
4904.79932,0.56388
4902.87057,0.56214
4900.94183,0.55956
4899.01308,0.55733
4897.08434,0.55622
4895.15559,0.55537
4893.22684,0.55399
4891.29810,0.55240
4889.36935,0.55084
4887.44061,0.54920
4885.51186,0.54742
4883.58312,0.54560
4881.65437,0.54393
4879.72563,0.54241
4877.79688,0.54083
4875.86814,0.53911
4873.93939,0.53723
4872.01065,0.53539
4870.08190,0.53401
4868.15316,0.53309
4866.22441,0.53213
4864.29566,0.53110
4862.36692,0.52985
4860.43817,0.52830
4858.50943,0.52688
4856.58068,0.52561
4854.65194,0.52450
4852.72319,0.52370
4850.79445,0.52265
4848.86570,0.52084
4846.93696,0.51881
4845.00821,0.51745
4843.07947,0.51667
4841.15072,0.51583
4839.22198,0.51480
4837.29323,0.51360
4835.36449,0.51215
4833.43574,0.51082
4831.50699,0.50996
4829.57825,0.50919
4827.64950,0.50823
4825.72076,0.50718
4823.79201,0.50585
4821.86327,0.50440
4819.93452,0.50351
4818.00578,0.50308
4816.07703,0.50259
4814.14829,0.50194
4812.21954,0.50106
4810.29080,0.49983
4808.36205,0.49875
4806.43331,0.49840
4804.50456,0.49847
4802.57582,0.49844
4800.64707,0.49818
4798.71832,0.49754
4796.78958,0.49675
4794.86083,0.49628
4792.93209,0.49621
4791.00334,0.49624
4789.07460,0.49576
4787.14585,0.49480
4785.21711,0.49422
4783.28836,0.49405
4781.35962,0.49398
4779.43087,0.49414
4777.50213,0.49425
4775.57338,0.49405
4773.64464,0.49388
4771.71589,0.49388
4769.78714,0.49370
4767.85840,0.49337
4765.92965,0.49329
4764.00091,0.49347
4762.07216,0.49365
4760.14342,0.49385
4758.21467,0.49392
4756.28593,0.49358
4754.35718,0.49298
4752.42844,0.49253
4750.49969,0.49248
4748.57095,0.49277
4746.64220,0.49324
4744.71346,0.49386
4742.78471,0.49404
4740.85597,0.49359
4738.92722,0.49342
4736.99847,0.49368
4735.06973,0.49392
4733.14098,0.49417
4731.21224,0.49429
4729.28349,0.49430
4727.35475,0.49446
4725.42600,0.49487
4723.49726,0.49567
4721.56851,0.49660
4719.63977,0.49698
4717.71102,0.49712
4715.78228,0.49753
4713.85353,0.49775
4711.92479,0.49767
4709.99604,0.49780
4708.06729,0.49824
4706.13855,0.49868
4704.20980,0.49889
4702.28106,0.49911
4700.35231,0.49961
4698.42357,0.50032
4696.49482,0.50090
4694.56608,0.50078
4692.63733,0.50037
4690.70859,0.50079
4688.77984,0.50196
4686.85110,0.50293
4684.92235,0.50319
4682.99361,0.50283
4681.06486,0.50248
4679.13612,0.50304
4677.20737,0.50434
4675.27862,0.50534
4673.34988,0.50572
4671.42113,0.50623
4669.49239,0.50717
4667.56364,0.50795
4665.63490,0.50832
4663.70615,0.50878
4661.77741,0.50973
4659.84866,0.51095
4657.91992,0.51195
4655.99117,0.51286
4654.06243,0.51390
4652.13368,0.51474
4650.20494,0.51534
4648.27619,0.51590
4646.34745,0.51644
4644.41870,0.51694
4642.48995,0.51743
4640.56121,0.51800
4638.63246,0.51877
4636.70372,0.51963
4634.77497,0.52037
4632.84623,0.52125
4630.91748,0.52243
4628.98874,0.52356
4627.05999,0.52452
4625.13125,0.52549
4623.20250,0.52649
4621.27376,0.52739
4619.34501,0.52805
4617.41627,0.52868
4615.48752,0.52990
4613.55877,0.53143
4611.63003,0.53237
4609.70128,0.53311
4607.77254,0.53439
4605.84379,0.53573
4603.91505,0.53658
4601.98630,0.53750
4600.05756,0.53897
4598.12881,0.54052
4596.20007,0.54142
4594.27132,0.54181
4592.34258,0.54244
4590.41383,0.54345
4588.48509,0.54447
4586.55634,0.54550
4584.62760,0.54662
4582.69885,0.54762
4580.77010,0.54811
4578.84136,0.54816
4576.91261,0.54829
4574.98387,0.54873
4573.05512,0.54943
4571.12638,0.55022
4569.19763,0.55083
4567.26889,0.55139
4565.34014,0.55225
4563.41140,0.55341
4561.48265,0.55415
4559.55391,0.55406
4557.62516,0.55385
4555.69642,0.55427
4553.76767,0.55501
4551.83893,0.55540
4549.91018,0.55553
4547.98143,0.55573
4546.05269,0.55616
4544.12394,0.55682
4542.19520,0.55741
4540.26645,0.55790
4538.33771,0.55833
4536.40896,0.55846
4534.48022,0.55853
4532.55147,0.55883
4530.62273,0.55929
4528.69398,0.55978
4526.76524,0.56009
4524.83649,0.56029
4522.90775,0.56075
4520.97900,0.56128
4519.05025,0.56147
4517.12151,0.56127
4515.19276,0.56086
4513.26402,0.56038
4511.33527,0.55975
4509.40653,0.55916
4507.47778,0.55872
4505.54904,0.55822
4503.62029,0.55762
4501.69155,0.55708
4499.76280,0.55689
4497.83406,0.55681
4495.90531,0.55576
4493.97657,0.55378
4492.04782,0.55229
4490.11908,0.55190
4488.19033,0.55174
4486.26158,0.55087
4484.33284,0.54941
4482.40409,0.54766
4480.47535,0.54572
4478.54660,0.54387
4476.61786,0.54226
4474.68911,0.54068
4472.76037,0.53886
4470.83162,0.53666
4468.90288,0.53425
4466.97413,0.53196
4465.04539,0.52996
4463.11664,0.52820
4461.18790,0.52625
4459.25915,0.52375
4457.33041,0.52108
4455.40166,0.51882
4453.47291,0.51692
4451.54417,0.51475
4449.61542,0.51210
4447.68668,0.50966
4445.75793,0.50761
4443.82919,0.50532
4441.90044,0.50279
4439.97170,0.50043
4438.04295,0.49818
4436.11421,0.49589
4434.18546,0.49363
4432.25672,0.49122
4430.32797,0.48839
4428.39923,0.48551
4426.47048,0.48312
4424.54173,0.48090
4422.61299,0.47839
4420.68424,0.47573
4418.75550,0.47318
4416.82675,0.47086
4414.89801,0.46897
4412.96926,0.46738
4411.04052,0.46562
4409.11177,0.46396
4407.18303,0.46285
4405.25428,0.46187
4403.32554,0.46075
4401.39679,0.45992
4399.46805,0.45934
4397.53930,0.45869
4395.61056,0.45827
4393.68181,0.45838
4391.75306,0.45881
4389.82432,0.45946
4387.89557,0.46013
4385.96683,0.46059
4384.03808,0.46120
4382.10934,0.46233
4380.18059,0.46352
4378.25185,0.46411
4376.32310,0.46423
4374.39436,0.46457
4372.46561,0.46540
4370.53687,0.46632
4368.60812,0.46711
4366.67938,0.46797
4364.75063,0.46892
4362.82189,0.46964
4360.89314,0.47017
4358.96439,0.47072
4357.03565,0.47093
4355.10690,0.47076
4353.17816,0.47069
4351.24941,0.47064
4349.32067,0.47022
4347.39192,0.46965
4345.46318,0.46937
4343.53443,0.46920
4341.60569,0.46866
4339.67694,0.46794
4337.74820,0.46744
4335.81945,0.46710
4333.89071,0.46681
4331.96196,0.46654
4330.03321,0.46602
4328.10447,0.46507
4326.17572,0.46393
4324.24698,0.46271
4322.31823,0.46165
4320.38949,0.46079
4318.46074,0.45986
4316.53200,0.45894
4314.60325,0.45820
4312.67451,0.45750
4310.74576,0.45693
4308.81702,0.45653
4306.88827,0.45607
4304.95953,0.45529
4303.03078,0.45406
4301.10204,0.45255
4299.17329,0.45139
4297.24454,0.45088
4295.31580,0.45041
4293.38705,0.44958
4291.45831,0.44872
4289.52956,0.44806
4287.60082,0.44769
4285.67207,0.44755
4283.74333,0.44725
4281.81458,0.44684
4279.88584,0.44689
4277.95709,0.44723
4276.02835,0.44728
4274.09960,0.44725
4272.17086,0.44745
4270.24211,0.44767
4268.31336,0.44790
4266.38462,0.44846
4264.45587,0.44904
4262.52713,0.44926
4260.59838,0.44950
4258.66964,0.45001
4256.74089,0.45065
4254.81215,0.45139
4252.88340,0.45208
4250.95466,0.45240
4249.02591,0.45246
4247.09717,0.45252
4245.16842,0.45248
4243.23968,0.45247
4241.31093,0.45269
4239.38219,0.45287
4237.45344,0.45277
4235.52469,0.45259
4233.59595,0.45260
4231.66720,0.45281
4229.73846,0.45315
4227.80971,0.45346
4225.88097,0.45341
4223.95222,0.45301
4222.02348,0.45262
4220.09473,0.45239
4218.16599,0.45224
4216.23724,0.45206
4214.30850,0.45188
4212.37975,0.45188
4210.45101,0.45202
4208.52226,0.45224
4206.59352,0.45265
4204.66477,0.45309
4202.73602,0.45328
4200.80728,0.45337
4198.87853,0.45355
4196.94979,0.45364
4195.02104,0.45353
4193.09230,0.45350
4191.16355,0.45384
4189.23481,0.45441
4187.30606,0.45485
4185.37732,0.45505
4183.44857,0.45513
4181.51983,0.45522
4179.59108,0.45535
4177.66234,0.45558
4175.73359,0.45611
4173.80484,0.45693
4171.87610,0.45774
4169.94735,0.45841
4168.01861,0.45904
4166.08986,0.45964
4164.16112,0.45994
4162.23237,0.45971
4160.30363,0.45911
4158.37488,0.45859
4156.44614,0.45841
4154.51739,0.45839
4152.58865,0.45816
4150.65990,0.45764
4148.73116,0.45710
4146.80241,0.45644
4144.87367,0.45544
4142.94492,0.45460
4141.01617,0.45416
4139.08743,0.45361
4137.15868,0.45278
4135.22994,0.45183
4133.30119,0.45079
4131.37245,0.44965
4129.44370,0.44823
4127.51496,0.44651
4125.58621,0.44494
4123.65747,0.44377
4121.72872,0.44256
4119.79998,0.44089
4117.87123,0.43917
4115.94249,0.43778
4114.01374,0.43639
4112.08500,0.43467
4110.15625,0.43288
4108.22750,0.43136
4106.29876,0.42984
4104.37001,0.42790
4102.44127,0.42584
4100.51252,0.42419
4098.58378,0.42276
4096.65503,0.42106
4094.72629,0.41901
4092.79754,0.41685
4090.86880,0.41481
4088.94005,0.41303
4087.01131,0.41139
4085.08256,0.40948
4083.15382,0.40736
4081.22507,0.40549
4079.29632,0.40400
4077.36758,0.40243
4075.43883,0.40054
4073.51009,0.39863
4071.58134,0.39677
4069.65260,0.39473
4067.72385,0.39241
4065.79511,0.38997
4063.86636,0.38794
4061.93762,0.38642
4060.00887,0.38495
4058.08013,0.38324
4056.15138,0.38113
4054.22264,0.37884
4052.29389,0.37690
4050.36515,0.37550
4048.43640,0.37420
4046.50765,0.37263
4044.57891,0.37096
4042.65016,0.36959
4040.72142,0.36842
4038.79267,0.36715
4036.86393,0.36568
4034.93518,0.36416
4033.00644,0.36286
4031.07769,0.36172
4029.14895,0.36062
4027.22020,0.35978
4025.29146,0.35920
4023.36271,0.35859
4021.43397,0.35788
4019.50522,0.35710
4017.57648,0.35633
4015.64773,0.35603
4013.71898,0.35630
4011.79024,0.35657
4009.86149,0.35659
4007.93275,0.35665
4006.00400,0.35679
4004.07526,0.35696
4002.14651,0.35716
4000.21777,0.35754
3998.28902,0.35816
3996.36028,0.35879
3994.43153,0.35932
3992.50279,0.35975
3990.57404,0.36015
3988.64530,0.36080
3986.71655,0.36156
3984.78780,0.36204
3982.85906,0.36237
3980.93031,0.36271
3979.00157,0.36289
3977.07282,0.36309
3975.14408,0.36346
3973.21533,0.36383
3971.28659,0.36440
3969.35784,0.36546
3967.42910,0.36657
3965.50035,0.36740
3963.57161,0.36812
3961.64286,0.36894
3959.71412,0.36995
3957.78537,0.37098
3955.85663,0.37187
3953.92788,0.37273
3951.99913,0.37358
3950.07039,0.37435
3948.14164,0.37528
3946.21290,0.37646
3944.28415,0.37763
3942.35541,0.37865
3940.42666,0.37962
3938.49792,0.38070
3936.56917,0.38185
3934.64043,0.38278
3932.71168,0.38355
3930.78294,0.38460
3928.85419,0.38589
3926.92545,0.38694
3924.99670,0.38756
3923.06795,0.38806
3921.13921,0.38874
3919.21046,0.38964
3917.28172,0.39077
3915.35297,0.39187
3913.42423,0.39275
3911.49548,0.39362
3909.56674,0.39461
3907.63799,0.39554
3905.70925,0.39648
3903.78050,0.39740
3901.85176,0.39817
3899.92301,0.39894
3897.99427,0.39977
3896.06552,0.40055
3894.13678,0.40129
3892.20803,0.40209
3890.27928,0.40275
3888.35054,0.40302
3886.42179,0.40328
3884.49305,0.40393
3882.56430,0.40490
3880.63556,0.40599
3878.70681,0.40705
3876.77807,0.40782
3874.84932,0.40815
3872.92058,0.40836
3870.99183,0.40913
3869.06309,0.41037
3867.13434,0.41118
3865.20560,0.41177
3863.27685,0.41281
3861.34811,0.41391
3859.41936,0.41454
3857.49061,0.41512
3855.56187,0.41620
3853.63312,0.41760
3851.70438,0.41865
3849.77563,0.41927
3847.84689,0.41983
3845.91814,0.42057
3843.98940,0.42137
3842.06065,0.42197
3840.13191,0.42258
3838.20316,0.42346
3836.27442,0.42423
3834.34567,0.42470
3832.41693,0.42513
3830.48818,0.42528
3828.55943,0.42513
3826.63069,0.42514
3824.70194,0.42534
3822.77320,0.42529
3820.84445,0.42521
3818.91571,0.42550
3816.98696,0.42566
3815.05822,0.42526
3813.12947,0.42479
3811.20073,0.42465
3809.27198,0.42477
3807.34324,0.42505
3805.41449,0.42531
3803.48575,0.42531
3801.55700,0.42504
3799.62826,0.42471
3797.69951,0.42467
3795.77076,0.42473
3793.84202,0.42443
3791.91327,0.42390
3789.98453,0.42347
3788.05578,0.42315
3786.12704,0.42287
3784.19829,0.42265
3782.26955,0.42244
3780.34080,0.42200
3778.41206,0.42132
3776.48331,0.42082
3774.55457,0.42060
3772.62582,0.42030
3770.69708,0.41973
3768.76833,0.41905
3766.83959,0.41842
3764.91084,0.41756
3762.98209,0.41650
3761.05335,0.41580
3759.12460,0.41537
3757.19586,0.41480
3755.26711,0.41405
3753.33837,0.41322
3751.40962,0.41239
3749.48088,0.41162
3747.55213,0.41071
3745.62339,0.40942
3743.69464,0.40790
3741.76590,0.40653
3739.83715,0.40524
3737.90841,0.40404
3735.97966,0.40290
3734.05091,0.40144
3732.12217,0.39984
3730.19342,0.39846
3728.26468,0.39709
3726.33593,0.39524
3724.40719,0.39277
3722.47844,0.39018
3720.54970,0.38787
3718.62095,0.38581
3716.69221,0.38382
3714.76346,0.38166
3712.83472,0.37902
3710.90597,0.37603
3708.97723,0.37297
3707.04848,0.36994
3705.11974,0.36687
3703.19099,0.36357
3701.26224,0.35974
3699.33350,0.35561
3697.40475,0.35134
3695.47601,0.34687
3693.54726,0.34237
3691.61852,0.33767
3689.68977,0.33209
3687.76103,0.32575
3685.83228,0.31961
3683.90354,0.31365
3681.97479,0.30773
3680.04605,0.30214
3678.11730,0.29636
3676.18856,0.28890
3674.25981,0.28049
3672.33107,0.27338
3670.40232,0.26626
3668.47357,0.25831
3666.54483,0.25096
3664.61608,0.24419
3662.68734,0.23770
3660.75859,0.23159
3658.82985,0.22572
3656.90110,0.21945
3654.97236,0.21309
3653.04361,0.20782
3651.11487,0.20260
3649.18612,0.19610
3647.25738,0.18972
3645.32863,0.18466
3643.39989,0.18027
3641.47114,0.17608
3639.54239,0.17205
3637.61365,0.16793
3635.68490,0.16378
3633.75616,0.16004
3631.82741,0.15684
3629.89867,0.15336
3627.96992,0.14903
3626.04118,0.14514
3624.11243,0.14228
3622.18369,0.13977
3620.25494,0.13680
3618.32620,0.13325
3616.39745,0.13005
3614.46871,0.12713
3612.53996,0.12385
3610.61122,0.12070
3608.68247,0.11812
3606.75372,0.11570
3604.82498,0.11324
3602.89623,0.11080
3600.96749,0.10831
3599.03874,0.10589
3597.11000,0.10364
3595.18125,0.10144
3593.25251,0.09903
3591.32376,0.09654
3589.39502,0.09439
3587.46627,0.09264
3585.53753,0.09102
3583.60878,0.08931
3581.68004,0.08758
3579.75129,0.08603
3577.82254,0.08473
3575.89380,0.08347
3573.96505,0.08210
3572.03631,0.08090
3570.10756,0.07990
3568.17882,0.07871
3566.25007,0.07735
3564.32133,0.07602
3562.39258,0.07460
3560.46384,0.07328
3558.53509,0.07230
3556.60635,0.07133
3554.67760,0.07018
3552.74886,0.06902
3550.82011,0.06799
3548.89137,0.06721
3546.96262,0.06664
3545.03387,0.06598
3543.10513,0.06530
3541.17638,0.06470
3539.24764,0.06389
3537.31889,0.06294
3535.39015,0.06221
3533.46140,0.06174
3531.53266,0.06123
3529.60391,0.06058
3527.67517,0.05990
3525.74642,0.05908
3523.81768,0.05831
3521.88893,0.05780
3519.96019,0.05745
3518.03144,0.05714
3516.10270,0.05672
3514.17395,0.05622
3512.24520,0.05597
3510.31646,0.05564
3508.38771,0.05483
3506.45897,0.05414
3504.53022,0.05406
3502.60148,0.05407
3500.67273,0.05354
3498.74399,0.05281
3496.81524,0.05242
3494.88650,0.05229
3492.95775,0.05216
3491.02901,0.05194
3489.10026,0.05175
3487.17152,0.05164
3485.24277,0.05142
3483.31402,0.05086
3481.38528,0.05014
3479.45653,0.04975
3477.52779,0.04957
3475.59904,0.04930
3473.67030,0.04919
3471.74155,0.04940
3469.81281,0.04951
3467.88406,0.04919
3465.95532,0.04875
3464.02657,0.04858
3462.09783,0.04858
3460.16908,0.04853
3458.24034,0.04854
3456.31159,0.04862
3454.38285,0.04852
3452.45410,0.04825
3450.52535,0.04807
3448.59661,0.04787
3446.66786,0.04761
3444.73912,0.04778
3442.81037,0.04824
3440.88163,0.04828
3438.95288,0.04814
3437.02414,0.04821
3435.09539,0.04824
3433.16665,0.04812
3431.23790,0.04805
3429.30916,0.04818
3427.38041,0.04845
3425.45167,0.04863
3423.52292,0.04865
3421.59418,0.04865
3419.66543,0.04879
3417.73668,0.04879
3415.80794,0.04850
3413.87919,0.04833
3411.95045,0.04837
3410.02170,0.04844
3408.09296,0.04878
3406.16421,0.04921
3404.23547,0.04929
3402.30672,0.04914
3400.37798,0.04898
3398.44923,0.04881
3396.52049,0.04869
3394.59174,0.04868
3392.66300,0.04867
3390.73425,0.04873
3388.80550,0.04890
3386.87676,0.04906
3384.94801,0.04922
3383.01927,0.04931
3381.09052,0.04937
3379.16178,0.04956
3377.23303,0.04987
3375.30429,0.05019
3373.37554,0.05032
3371.44680,0.05026
3369.51805,0.05016
3367.58931,0.05008
3365.66056,0.05024
3363.73182,0.05070
3361.80307,0.05100
3359.87433,0.05097
3357.94558,0.05100
3356.01683,0.05106
3354.08809,0.05110
3352.15934,0.05109
3350.23060,0.05095
3348.30185,0.05112
3346.37311,0.05196
3344.44436,0.05280
3342.51562,0.05294
3340.58687,0.05281
3338.65813,0.05296
3336.72938,0.05343
3334.80064,0.05416
3332.87189,0.05492
3330.94315,0.05530
3329.01440,0.05538
3327.08566,0.05562
3325.15691,0.05592
3323.22816,0.05594
3321.29942,0.05609
3319.37067,0.05653
3317.44193,0.05683
3315.51318,0.05704
3313.58444,0.05744
3311.65569,0.05780
3309.72695,0.05792
3307.79820,0.05801
3305.86946,0.05820
3303.94071,0.05836
3302.01197,0.05851
3300.08322,0.05886
3298.15448,0.05934
3296.22573,0.05981
3294.29698,0.06012
3292.36824,0.06016
3290.43949,0.06018
3288.51075,0.06033
3286.58200,0.06055
3284.65326,0.06101
3282.72451,0.06158
3280.79577,0.06197
3278.86702,0.06229
3276.93828,0.06274
3275.00953,0.06332
3273.08079,0.06375
3271.15204,0.06398
3269.22330,0.06451
3267.29455,0.06530
3265.36581,0.06574
3263.43706,0.06584
3261.50831,0.06619
3259.57957,0.06669
3257.65082,0.06698
3255.72208,0.06742
3253.79333,0.06800
3251.86459,0.06840
3249.93584,0.06907
3248.00710,0.06998
3246.07835,0.07046
3244.14961,0.07047
3242.22086,0.07058
3240.29212,0.07112
3238.36337,0.07180
3236.43463,0.07234
3234.50588,0.07304
3232.57713,0.07386
3230.64839,0.07436
3228.71964,0.07474
3226.79090,0.07542
3224.86215,0.07629
3222.93341,0.07728
3221.00466,0.07846
3219.07592,0.07950
3217.14717,0.07992
3215.21843,0.08000
3213.28968,0.08030
3211.36094,0.08088
3209.43219,0.08153
3207.50345,0.08215
3205.57470,0.08269
3203.64596,0.08317
3201.71721,0.08371
3199.78846,0.08433
3197.85972,0.08496
3195.93097,0.08563
3194.00223,0.08643
3192.07348,0.08736
3190.14474,0.08818
3188.21599,0.08888
3186.28725,0.08966
3184.35850,0.09046
3182.42976,0.09118
3180.50101,0.09186
3178.57227,0.09255
3176.64352,0.09340
3174.71478,0.09449
3172.78603,0.09556
3170.85729,0.09655
3168.92854,0.09744
3166.99979,0.09814
3165.07105,0.09897
3163.14230,0.10000
3161.21356,0.10093
3159.28481,0.10171
3157.35607,0.10258
3155.42732,0.10363
3153.49858,0.10457
3151.56983,0.10524
3149.64109,0.10573
3147.71234,0.10630
3145.78360,0.10726
3143.85485,0.10849
3141.92611,0.10952
3139.99736,0.11020
3138.06861,0.11086
3136.13987,0.11166
3134.21112,0.11261
3132.28238,0.11386
3130.35363,0.11518
3128.42489,0.11611
3126.49614,0.11666
3124.56740,0.11727
3122.63865,0.11823
3120.70991,0.11945
3118.78116,0.12046
3116.85242,0.12102
3114.92367,0.12154
3112.99493,0.12259
3111.06618,0.12394
3109.13744,0.12502
3107.20869,0.12588
3105.27994,0.12668
3103.35120,0.12735
3101.42245,0.12803
3099.49371,0.12898
3097.56496,0.13009
3095.63622,0.13111
3093.70747,0.13195
3091.77873,0.13267
3089.84998,0.13347
3087.92124,0.13430
3085.99249,0.13502
3084.06375,0.13561
3082.13500,0.13603
3080.20626,0.13647
3078.27751,0.13720
3076.34877,0.13819
3074.42002,0.13927
3072.49127,0.14011
3070.56253,0.14064
3068.63378,0.14126
3066.70504,0.14227
3064.77629,0.14333
3062.84755,0.14402
3060.91880,0.14454
3058.99006,0.14530
3057.06131,0.14630
3055.13257,0.14723
3053.20382,0.14789
3051.27508,0.14848
3049.34633,0.14917
3047.41759,0.14989
3045.48884,0.15044
3043.56009,0.15080
3041.63135,0.15119
3039.70260,0.15183
3037.77386,0.15257
3035.84511,0.15320
3033.91637,0.15360
3031.98762,0.15376
3030.05888,0.15379
3028.13013,0.15384
3026.20139,0.15398
3024.27264,0.15396
3022.34390,0.15361
3020.41515,0.15300
3018.48641,0.15228
3016.55766,0.15163
3014.62892,0.15099
3012.70017,0.15008
3010.77142,0.14894
3008.84268,0.14769
3006.91393,0.14654
3004.98519,0.14555
3003.05644,0.14463
3001.12770,0.14391
2999.19895,0.14328
2997.27021,0.14238
2995.34146,0.14136
2993.41272,0.14055
2991.48397,0.13947
2989.55523,0.13779
2987.62648,0.13582
2985.69774,0.13363
2983.76899,0.13124
2981.84025,0.12866
2979.91150,0.12581
2977.98275,0.12286
2976.05401,0.11993
2974.12526,0.11692
2972.19652,0.11385
2970.26777,0.11101
2968.33903,0.10866
2966.41028,0.10678
2964.48154,0.10516
2962.55279,0.10368
2960.62405,0.10232
2958.69530,0.10102
2956.76656,0.09966
2954.83781,0.09820
2952.90907,0.09667
2950.98032,0.09518
2949.05157,0.09384
2947.12283,0.09270
2945.19408,0.09155
2943.26534,0.09022
2941.33659,0.08879
2939.40785,0.08752
2937.47910,0.08673
2935.55036,0.08656
2933.62161,0.08672
2931.69287,0.08695
2929.76412,0.08706
2927.83538,0.08673
2925.90663,0.08609
2923.97789,0.08565
2922.04914,0.08552
2920.12040,0.08541
2918.19165,0.08521
2916.26290,0.08510
2914.33416,0.08517
2912.40541,0.08531
2910.47667,0.08540
2908.54792,0.08555
2906.61918,0.08581
2904.69043,0.08607
2902.76169,0.08623
2900.83294,0.08634
2898.90420,0.08654
2896.97545,0.08688
2895.04671,0.08710
2893.11796,0.08709
2891.18922,0.08720
2889.26047,0.08769
2887.33172,0.08838
2885.40298,0.08910
2883.47423,0.08986
2881.54549,0.09051
2879.61674,0.09085
2877.68800,0.09106
2875.75925,0.09158
2873.83051,0.09240
2871.90176,0.09316
2869.97302,0.09382
2868.04427,0.09464
2866.11553,0.09585
2864.18678,0.09734
2862.25804,0.09881
2860.32929,0.10001
2858.40055,0.10094
2856.47180,0.10190
2854.54305,0.10307
2852.61431,0.10436
2850.68556,0.10561
2848.75682,0.10697
2846.82807,0.10883
2844.89933,0.11113
2842.97058,0.11346
2841.04184,0.11566
2839.11309,0.11769
2837.18435,0.11974
2835.25560,0.12212
2833.32686,0.12489
2831.39811,0.12772
2829.46937,0.13045
2827.54062,0.13325
2825.61188,0.13604
2823.68313,0.13860
2821.75438,0.14105
2819.82564,0.14356
2817.89689,0.14600
2815.96815,0.14822
2814.03940,0.15017
2812.11066,0.15188
2810.18191,0.15360
2808.25317,0.15541
2806.32442,0.15707
2804.39568,0.15865
2802.46693,0.16040
2800.53819,0.16222
2798.60944,0.16377
2796.68070,0.16507
2794.75195,0.16630
2792.82320,0.16734
2790.89446,0.16814
2788.96571,0.16893
2787.03697,0.16972
2785.10822,0.17050
2783.17948,0.17134
2781.25073,0.17222
2779.32199,0.17292
2777.39324,0.17342
2775.46450,0.17387
2773.53575,0.17426
2771.60701,0.17458
2769.67826,0.17495
2767.74952,0.17540
2765.82077,0.17595
2763.89203,0.17656
2761.96328,0.17707
2760.03453,0.17744
2758.10579,0.17771
2756.17704,0.17791
2754.24830,0.17811
2752.31955,0.17842
2750.39081,0.17883
2748.46206,0.17921
2746.53332,0.17946
2744.60457,0.17961
2742.67583,0.17964
2740.74708,0.17955
2738.81834,0.17959
2736.88959,0.17992
2734.96085,0.18037
2733.03210,0.18077
2731.10336,0.18122
2729.17461,0.18186
2727.24586,0.18252
2725.31712,0.18305
2723.38837,0.18358
2721.45963,0.18420
2719.53088,0.18494
2717.60214,0.18573
2715.67339,0.18647
2713.74465,0.18728
2711.81590,0.18829
2709.88716,0.18933
2707.95841,0.19030
2706.02967,0.19127
2704.10092,0.19226
2702.17218,0.19329
2700.24343,0.19436
2698.31468,0.19534
2696.38594,0.19620
2694.45719,0.19704
2692.52845,0.19799
2690.59970,0.19889
2688.67096,0.19963
2686.74221,0.20035
2684.81347,0.20115
2682.88472,0.20200
2680.95598,0.20297
2679.02723,0.20404
2677.09849,0.20502
2675.16974,0.20586
2673.24100,0.20662
2671.31225,0.20725
2669.38351,0.20773
2667.45476,0.20820
2665.52601,0.20887
2663.59727,0.20968
2661.66852,0.21041
2659.73978,0.21106
2657.81103,0.21167
2655.88229,0.21218
2653.95354,0.21263
2652.02480,0.21313
2650.09605,0.21371
2648.16731,0.21437
2646.23856,0.21514
2644.30982,0.21597
2642.38107,0.21674
2640.45233,0.21745
2638.52358,0.21825
2636.59484,0.21902
2634.66609,0.21969
2632.73734,0.22044
2630.80860,0.22131
2628.87985,0.22218
2626.95111,0.22308
2625.02236,0.22404
2623.09362,0.22483
2621.16487,0.22543
2619.23613,0.22604
2617.30738,0.22664
2615.37864,0.22713
2613.44989,0.22767
2611.52115,0.22831
2609.59240,0.22903
2607.66366,0.22975
2605.73491,0.23035
2603.80616,0.23093
2601.87742,0.23173
2599.94867,0.23255
2598.01993,0.23304
2596.09118,0.23344
2594.16244,0.23391
2592.23369,0.23431
2590.30495,0.23476
2588.37620,0.23542
2586.44746,0.23599
2584.51871,0.23638
2582.58997,0.23685
2580.66122,0.23731
2578.73248,0.23759
2576.80373,0.23788
2574.87499,0.23823
2572.94624,0.23842
2571.01749,0.23844
2569.08875,0.23850
2567.16000,0.23875
2565.23126,0.23899
2563.30251,0.23910
2561.37377,0.23927
2559.44502,0.23955
2557.51628,0.23976
2555.58753,0.23988
2553.65879,0.23996
2551.73004,0.24002
2549.80130,0.24005
2547.87255,0.24015
2545.94381,0.24031
2544.01506,0.24046
2542.08631,0.24070
2540.15757,0.24111
2538.22882,0.24157
2536.30008,0.24201
2534.37133,0.24245
2532.44259,0.24287
2530.51384,0.24332
2528.58510,0.24399
2526.65635,0.24484
2524.72761,0.24560
2522.79886,0.24614
2520.87012,0.24652
2518.94137,0.24682
2517.01263,0.24728
2515.08388,0.24799
2513.15514,0.24888
2511.22639,0.24988
2509.29764,0.25087
2507.36890,0.25170
2505.44015,0.25251
2503.51141,0.25351
2501.58266,0.25472
2499.65392,0.25598
2497.72517,0.25706
2495.79643,0.25806
2493.86768,0.25915
2491.93894,0.26013
2490.01019,0.26087
2488.08145,0.26165
2486.15270,0.26256
2484.22396,0.26346
2482.29521,0.26431
2480.36647,0.26508
2478.43772,0.26576
2476.50897,0.26650
2474.58023,0.26727
2472.65148,0.26805
2470.72274,0.26888
2468.79399,0.26976
2466.86525,0.27065
2464.93650,0.27136
2463.00776,0.27187
2461.07901,0.27246
2459.15027,0.27323
2457.22152,0.27411
2455.29278,0.27500
2453.36403,0.27578
2451.43529,0.27652
2449.50654,0.27745
2447.57779,0.27855
2445.64905,0.27942
2443.72030,0.28005
2441.79156,0.28093
2439.86281,0.28205
2437.93407,0.28303
2436.00532,0.28386
2434.07658,0.28484
2432.14783,0.28604
2430.21909,0.28725
2428.29034,0.28829
2426.36160,0.28930
2424.43285,0.29049
2422.50411,0.29177
2420.57536,0.29298
2418.64662,0.29410
2416.71787,0.29515
2414.78912,0.29614
2412.86038,0.29707
2410.93163,0.29810
2409.00289,0.29929
2407.07414,0.30044
2405.14540,0.30155
2403.21665,0.30272
2401.28791,0.30382
2399.35916,0.30463
2397.43042,0.30534
2395.50167,0.30617
2393.57293,0.30702
2391.64418,0.30780
2389.71544,0.30855
2387.78669,0.30935
2385.85795,0.31029
2383.92920,0.31123
2382.00045,0.31204
2380.07171,0.31292
2378.14296,0.31394
2376.21422,0.31489
2374.28547,0.31560
2372.35673,0.31616
2370.42798,0.31683
2368.49924,0.31764
2366.57049,0.31833
2364.64175,0.31889
2362.71300,0.31949
2360.78426,0.32017
2358.85551,0.32084
2356.92677,0.32143
2354.99802,0.32184
2353.06927,0.32215
2351.14053,0.32269
2349.21178,0.32345
2347.28304,0.32412
2345.35429,0.32452
2343.42555,0.32476
2341.49680,0.32498
2339.56806,0.32527
2337.63931,0.32561
2335.71057,0.32593
2333.78182,0.32632
2331.85308,0.32674
2329.92433,0.32695
2327.99559,0.32708
2326.06684,0.32731
2324.13810,0.32762
2322.20935,0.32791
2320.28060,0.32813
2318.35186,0.32826
2316.42311,0.32834
2314.49437,0.32837
2312.56562,0.32835
2310.63688,0.32825
2308.70813,0.32801
2306.77939,0.32762
2304.85064,0.32720
2302.92190,0.32692
2300.99315,0.32678
2299.06441,0.32656
2297.13566,0.32612
2295.20692,0.32563
2293.27817,0.32530
2291.34943,0.32509
2289.42068,0.32485
2287.49193,0.32453
2285.56319,0.32424
2283.63444,0.32413
2281.70570,0.32396
2279.77695,0.32346
2277.84821,0.32283
2275.91946,0.32238
2273.99072,0.32196
2272.06197,0.32130
2270.13323,0.32047
2268.20448,0.31967
2266.27574,0.31889
2264.34699,0.31803
2262.41825,0.31725
2260.48950,0.31673
2258.56075,0.31629
2256.63201,0.31572
2254.70326,0.31520
2252.77452,0.31485
2250.84577,0.31451
2248.91703,0.31412
2246.98828,0.31371
2245.05954,0.31323
2243.13079,0.31282
2241.20205,0.31264
2239.27330,0.31255
2237.34456,0.31228
2235.41581,0.31173
2233.48707,0.31108
2231.55832,0.31060
2229.62958,0.31039
2227.70083,0.31033
2225.77208,0.31023
2223.84334,0.31011
2221.91459,0.31009
2219.98585,0.31021
2218.05710,0.31034
2216.12836,0.31026
2214.19961,0.30988
2212.27087,0.30936
2210.34212,0.30886
2208.41338,0.30832
2206.48463,0.30769
2204.55589,0.30706
2202.62714,0.30648
2200.69840,0.30588
2198.76965,0.30513
2196.84090,0.30421
2194.91216,0.30330
2192.98341,0.30251
2191.05467,0.30157
2189.12592,0.30038
2187.19718,0.29924
2185.26843,0.29825
2183.33969,0.29712
2181.41094,0.29569
2179.48220,0.29413
2177.55345,0.29269
2175.62471,0.29144
2173.69596,0.29027
2171.76722,0.28905
2169.83847,0.28786
2167.90973,0.28688
2165.98098,0.28607
2164.05223,0.28520
2162.12349,0.28420
2160.19474,0.28328
2158.26600,0.28253
2156.33725,0.28200
2154.40851,0.28162
2152.47976,0.28111
2150.55102,0.28046
2148.62227,0.27991
2146.69353,0.27948
2144.76478,0.27893
2142.83604,0.27828
2140.90729,0.27776
2138.97855,0.27745
2137.04980,0.27730
2135.12106,0.27725
2133.19231,0.27727
2131.26356,0.27734
2129.33482,0.27754
2127.40607,0.27793
2125.47733,0.27837
2123.54858,0.27863
2121.61984,0.27873
2119.69109,0.27894
2117.76235,0.27931
2115.83360,0.27967
2113.90486,0.28000
2111.97611,0.28041
2110.04737,0.28086
2108.11862,0.28138
2106.18988,0.28201
2104.26113,0.28262
2102.33238,0.28302
2100.40364,0.28326
2098.47489,0.28349
2096.54615,0.28376
2094.61740,0.28410
2092.68866,0.28451
2090.75991,0.28482
2088.83117,0.28485
2086.90242,0.28475
2084.97368,0.28465
2083.04493,0.28446
2081.11619,0.28416
2079.18744,0.28385
2077.25870,0.28345
2075.32995,0.28296
2073.40121,0.28251
2071.47246,0.28206
2069.54371,0.28162
2067.61497,0.28127
2065.68622,0.28094
2063.75748,0.28061
2061.82873,0.28038
2059.89999,0.28021
2057.97124,0.27999
2056.04250,0.27990
2054.11375,0.28001
2052.18501,0.28023
2050.25626,0.28055
2048.32752,0.28106
2046.39877,0.28165
2044.47003,0.28222
2042.54128,0.28291
2040.61254,0.28375
2038.68379,0.28462
2036.75504,0.28555
2034.82630,0.28665
2032.89755,0.28783
2030.96881,0.28888
2029.04006,0.28984
2027.11132,0.29097
2025.18257,0.29231
2023.25383,0.29371
2021.32508,0.29507
2019.39634,0.29636
2017.46759,0.29756
2015.53885,0.29856
2013.61010,0.29941
2011.68136,0.30040
2009.75261,0.30156
2007.82386,0.30255
2005.89512,0.30329
2003.96637,0.30397
2002.03763,0.30470
2000.10888,0.30541
1998.18014,0.30609
1996.25139,0.30689
1994.32265,0.30788
1992.39390,0.30887
1990.46516,0.30967
1988.53641,0.31037
1986.60767,0.31116
1984.67892,0.31193
1982.75018,0.31257
1980.82143,0.31320
1978.89269,0.31401
1976.96394,0.31485
1975.03519,0.31554
1973.10645,0.31612
1971.17770,0.31664
1969.24896,0.31715
1967.32021,0.31779
1965.39147,0.31857
1963.46272,0.31941
1961.53398,0.32042
1959.60523,0.32157
1957.67649,0.32265
1955.74774,0.32370
1953.81900,0.32487
1951.89025,0.32608
1949.96151,0.32726
1948.03276,0.32842
1946.10402,0.32954
1944.17527,0.33069
1942.24652,0.33190
1940.31778,0.33297
1938.38903,0.33380
1936.46029,0.33456
1934.53154,0.33543
1932.60280,0.33625
1930.67405,0.33687
1928.74531,0.33736
1926.81656,0.33786
1924.88782,0.33843
1922.95907,0.33892
1921.03033,0.33926
1919.10158,0.33952
1917.17284,0.33975
1915.24409,0.33992
1913.31534,0.34011
1911.38660,0.34034
1909.45785,0.34042
1907.52911,0.34036
1905.60036,0.34027
1903.67162,0.34022
1901.74287,0.34024
1899.81413,0.34018
1897.88538,0.34000
1895.95664,0.33985
1894.02789,0.33971
1892.09915,0.33952
1890.17040,0.33928
1888.24166,0.33906
1886.31291,0.33889
1884.38417,0.33882
1882.45542,0.33887
1880.52667,0.33892
1878.59793,0.33880
1876.66918,0.33848
1874.74044,0.33814
1872.81169,0.33797
1870.88295,0.33787
1868.95420,0.33764
1867.02546,0.33735
1865.09671,0.33714
1863.16797,0.33695
1861.23922,0.33658
1859.31048,0.33607
1857.38173,0.33563
1855.45299,0.33530
1853.52424,0.33494
1851.59549,0.33438
1849.66675,0.33363
1847.73800,0.33292
1845.80926,0.33231
1843.88051,0.33152
1841.95177,0.33049
1840.02302,0.32963
1838.09428,0.32896
1836.16553,0.32817
1834.23679,0.32721
1832.30804,0.32635
1830.37930,0.32557
1828.45055,0.32461
1826.52181,0.32353
1824.59306,0.32238
1822.66432,0.32115
1820.73557,0.31982
1818.80682,0.31844
1816.87808,0.31709
1814.94933,0.31571
1813.02059,0.31418
1811.09184,0.31244
1809.16310,0.31050
1807.23435,0.30841
1805.30561,0.30627
1803.37686,0.30422
1801.44812,0.30213
1799.51937,0.29978
1797.59063,0.29719
1795.66188,0.29458
1793.73314,0.29178
1791.80439,0.28831
1789.87565,0.28441
1787.94690,0.28047
1786.01815,0.27623
1784.08941,0.27148
1782.16066,0.26625
1780.23192,0.26044
1778.30317,0.25410
1776.37443,0.24751
1774.44568,0.24006
1772.51694,0.23074
1770.58819,0.22040
1768.65945,0.21021
1766.73070,0.19981
1764.80196,0.18974
1762.87321,0.17964
1760.94447,0.16893
1759.01572,0.15892
1757.08697,0.14983
1755.15823,0.14185
1753.22948,0.13534
1751.30074,0.12947
1749.37199,0.12421
1747.44325,0.12026
1745.51450,0.11744
1743.58576,0.11537
1741.65701,0.11395
1739.72827,0.11318
1737.79952,0.11308
1735.87078,0.11350
1733.94203,0.11440
1732.01329,0.11567
1730.08454,0.11714
1728.15580,0.11883
1726.22705,0.12079
1724.29830,0.12333
1722.36956,0.12630
1720.44081,0.12943
1718.51207,0.13325
1716.58332,0.13786
1714.65458,0.14225
1712.72583,0.14626
1710.79709,0.15001
1708.86834,0.15332
1706.93960,0.15631
1705.01085,0.15897
1703.08211,0.16092
1701.15336,0.16213
1699.22462,0.16271
1697.29587,0.16254
1695.36713,0.16136
1693.43838,0.15957
1691.50963,0.15765
1689.58089,0.15530
1687.65214,0.15265
1685.72340,0.14959
1683.79465,0.14548
1681.86591,0.14120
1679.93716,0.13722
1678.00842,0.13300
1676.07967,0.12825
1674.15093,0.12350
1672.22218,0.11957
1670.29344,0.11587
1668.36469,0.11219
1666.43595,0.10950
1664.50720,0.10763
1662.57845,0.10621
1660.64971,0.10548
1658.72096,0.10544
1656.79222,0.10580
1654.86347,0.10660
1652.93473,0.10780
1651.00598,0.10854
1649.07724,0.10900
1647.14849,0.10940
1645.21975,0.10937
1643.29100,0.10906
1641.36226,0.10877
1639.43351,0.10864
1637.50477,0.10865
1635.57602,0.10867
1633.64728,0.10867
1631.71853,0.10883
1629.78978,0.10923
1627.86104,0.10956
1625.93229,0.10957
1624.00355,0.10926
1622.07480,0.10874
1620.14606,0.10821
1618.21731,0.10767
1616.28857,0.10660
1614.35982,0.10500
1612.43108,0.10343
1610.50233,0.10195
1608.57359,0.10061
1606.64484,0.09955
1604.71610,0.09907
1602.78735,0.09934
1600.85861,0.09989
1598.92986,0.10025
1597.00111,0.10039
1595.07237,0.10053
1593.14362,0.10088
1591.21488,0.10173
1589.28613,0.10346
1587.35739,0.10606
1585.42864,0.10922
1583.49990,0.11286
1581.57115,0.11719
1579.64241,0.12214
1577.71366,0.12803
1575.78492,0.13526
1573.85617,0.14200
1571.92743,0.14767
1569.99868,0.15345
1568.06993,0.15890
1566.14119,0.16310
1564.21244,0.16633
1562.28370,0.16884
1560.35495,0.17108
1558.42621,0.17310
1556.49746,0.17392
1554.56872,0.17402
1552.63997,0.17373
1550.71123,0.17328
1548.78248,0.17274
1546.85374,0.17173
1544.92499,0.17015
1542.99625,0.16824
1541.06750,0.16582
1539.13876,0.16207
1537.21001,0.15797
1535.28126,0.15364
1533.35252,0.14764
1531.42377,0.14029
1529.49503,0.13267
1527.56628,0.12424
1525.63754,0.11504
1523.70879,0.10573
1521.78005,0.09537
1519.85130,0.08504
1517.92256,0.07712
1515.99381,0.07140
1514.06507,0.06781
1512.13632,0.06629
1510.20758,0.06623
1508.27883,0.06746
1506.35008,0.07013
1504.42134,0.07316
1502.49259,0.07611
1500.56385,0.07964
1498.63510,0.08373
1496.70636,0.08772
1494.77761,0.09078
1492.84887,0.09276
1490.92012,0.09396
1488.99138,0.09441
1487.06263,0.09395
1485.13389,0.09267
1483.20514,0.09089
1481.27640,0.08885
1479.34765,0.08664
1477.41891,0.08403
1475.49016,0.08089
1473.56141,0.07715
1471.63267,0.07304
1469.70392,0.06976
1467.77518,0.06768
1465.84643,0.06648
1463.91769,0.06600
1461.98894,0.06603
1460.06020,0.06622
1458.13145,0.06614
1456.20271,0.06557
1454.27396,0.06507
1452.34522,0.06499
1450.41647,0.06525
1448.48773,0.06581
1446.55898,0.06652
1444.63024,0.06716
1442.70149,0.06739
1440.77274,0.06685
1438.84400,0.06562
1436.91525,0.06401
1434.98651,0.06253
1433.05776,0.06147
1431.12902,0.06073
1429.20027,0.06031
1427.27153,0.06022
1425.34278,0.06048
1423.41404,0.06124
1421.48529,0.06260
1419.55655,0.06424
1417.62780,0.06551
1415.69906,0.06631
1413.77031,0.06708
1411.84156,0.06803
1409.91282,0.06906
1407.98407,0.06985
1406.05533,0.07030
1404.12658,0.07060
1402.19784,0.07088
1400.26909,0.07085
1398.34035,0.07033
1396.41160,0.06953
1394.48286,0.06851
1392.55411,0.06729
1390.62537,0.06607
1388.69662,0.06474
1386.76788,0.06302
1384.83913,0.06113
1382.91039,0.05955
1380.98164,0.05843
1379.05289,0.05771
1377.12415,0.05742
1375.19540,0.05750
1373.26666,0.05767
1371.33791,0.05784
1369.40917,0.05828
1367.48042,0.05909
1365.55168,0.06003
1363.62293,0.06092
1361.69419,0.06174
1359.76544,0.06236
1357.83670,0.06287
1355.90795,0.06348
1353.97921,0.06396
1352.05046,0.06413
1350.12172,0.06423
1348.19297,0.06429
1346.26422,0.06396
1344.33548,0.06325
1342.40673,0.06260
1340.47799,0.06221
1338.54924,0.06188
1336.62050,0.06151
1334.69175,0.06123
1332.76301,0.06116
1330.83426,0.06120
1328.90552,0.06113
1326.97677,0.06093
1325.04803,0.06061
1323.11928,0.06015
1321.19054,0.05980
1319.26179,0.05973
1317.33304,0.05990
1315.40430,0.06041
1313.47555,0.06118
1311.54681,0.06192
1309.61806,0.06247
1307.68932,0.06279
1305.76057,0.06292
1303.83183,0.06302
1301.90308,0.06310
1299.97434,0.06299
1298.04559,0.06259
1296.11685,0.06189
1294.18810,0.06100
1292.25936,0.06002
1290.33061,0.05893
1288.40187,0.05776
1286.47312,0.05653
1284.54437,0.05532
1282.61563,0.05438
1280.68688,0.05371
1278.75814,0.05313
1276.82939,0.05260
1274.90065,0.05215
1272.97190,0.05184
1271.04316,0.05162
1269.11441,0.05154
1267.18567,0.05187
1265.25692,0.05252
1263.32818,0.05324
1261.39943,0.05394
1259.47069,0.05453
1257.54194,0.05509
1255.61320,0.05566
1253.68445,0.05614
1251.75570,0.05650
1249.82696,0.05674
1247.89821,0.05692
1245.96947,0.05703
1244.04072,0.05710
1242.11198,0.05714
1240.18323,0.05702
1238.25449,0.05667
1236.32574,0.05632
1234.39700,0.05611
1232.46825,0.05606
1230.53951,0.05618
1228.61076,0.05632
1226.68202,0.05646
1224.75327,0.05679
1222.82452,0.05713
1220.89578,0.05719
1218.96703,0.05714
1217.03829,0.05711
1215.10954,0.05706
1213.18080,0.05712
1211.25205,0.05734
1209.32331,0.05750
1207.39456,0.05750
1205.46582,0.05764
1203.53707,0.05810
1201.60833,0.05861
1199.67958,0.05886
1197.75084,0.05893
1195.82209,0.05897
1193.89335,0.05879
1191.96460,0.05823
1190.03585,0.05731
1188.10711,0.05621
1186.17836,0.05491
1184.24962,0.05337
1182.32087,0.05180
1180.39213,0.05023
1178.46338,0.04848
1176.53464,0.04671
1174.60589,0.04535
1172.67715,0.04452
1170.74840,0.04425
1168.81966,0.04476
1166.89091,0.04592
1164.96217,0.04720
1163.03342,0.04839
1161.10467,0.04932
1159.17593,0.04971
1157.24718,0.04972
1155.31844,0.04959
1153.38969,0.04930
1151.46095,0.04899
1149.53220,0.04881
1147.60346,0.04846
1145.67471,0.04768
1143.74597,0.04672
1141.81722,0.04585
1139.88848,0.04504
1137.95973,0.04437
1136.03099,0.04384
1134.10224,0.04310
1132.17350,0.04220
1130.24475,0.04182
1128.31600,0.04209
1126.38726,0.04254
1124.45851,0.04294
1122.52977,0.04336
1120.60102,0.04391
1118.67228,0.04445
1116.74353,0.04478
1114.81479,0.04514
1112.88604,0.04596
1110.95730,0.04711
1109.02855,0.04802
1107.09981,0.04852
1105.17106,0.04882
1103.24232,0.04897
1101.31357,0.04891
1099.38483,0.04842
1097.45608,0.04779
1095.52733,0.04775
1093.59859,0.04812
1091.66984,0.04827
1089.74110,0.04835
1087.81235,0.04865
1085.88361,0.04915
1083.95486,0.04987
1082.02612,0.05075
1080.09737,0.05202
1078.16863,0.05377
1076.23988,0.05556
1074.31114,0.05717
1072.38239,0.05891
1070.45365,0.06100
1068.52490,0.06333
1066.59615,0.06586
1064.66741,0.06858
1062.73866,0.07111
1060.80992,0.07320
1058.88117,0.07484
1056.95243,0.07614
1055.02368,0.07695
1053.09494,0.07688
1051.16619,0.07600
1049.23745,0.07488
1047.30870,0.07399
1045.37996,0.07340
1043.45121,0.07330
1041.52247,0.07400
1039.59372,0.07547
1037.66498,0.07729
1035.73623,0.07922
1033.80748,0.08110
1031.87874,0.08252
1029.94999,0.08328
1028.02125,0.08376
1026.09250,0.08426
1024.16376,0.08477
1022.23501,0.08529
1020.30627,0.08603
1018.37752,0.08703
1016.44878,0.08787
1014.52003,0.08824
1012.59129,0.08851
1010.66254,0.08896
1008.73380,0.08939
1006.80505,0.08962
1004.87631,0.08968
1002.94756,0.08988
1001.01881,0.09047
999.09007,0.09127
997.16132,0.09209
995.23258,0.09294
993.30383,0.09400
991.37509,0.09550
989.44634,0.09731
987.51760,0.09925
985.58885,0.10136
983.66011,0.10368
981.73136,0.10609
979.80262,0.10829
977.87387,0.11009
975.94513,0.11142
974.01638,0.11223
972.08763,0.11265
970.15889,0.11308
968.23014,0.11372
966.30140,0.11453
964.37265,0.11552
962.44391,0.11673
960.51516,0.11807
958.58642,0.11962
956.65767,0.12147
954.72893,0.12346
952.80018,0.12525
950.87144,0.12658
948.94269,0.12749
947.01395,0.12816
945.08520,0.12874
943.15646,0.12942
941.22771,0.13024
939.29896,0.13115
937.37022,0.13197
935.44147,0.13267
933.51273,0.13350
931.58398,0.13452
929.65524,0.13550
927.72649,0.13623
925.79775,0.13656
923.86900,0.13658
921.94026,0.13633
920.01151,0.13555
918.08277,0.13433
916.15402,0.13296
914.22528,0.13132
912.29653,0.12925
910.36779,0.12700
908.43904,0.12472
906.51029,0.12213
904.58155,0.11931
902.65280,0.11684
900.72406,0.11511
898.79531,0.11444
896.86657,0.11482
894.93782,0.11574
893.00908,0.11691
891.08033,0.11835
889.15159,0.11992
887.22284,0.12159
885.29410,0.12335
883.36535,0.12488
881.43661,0.12570
879.50786,0.12588
877.57911,0.12591
875.65037,0.12617
873.72162,0.12677
871.79288,0.12733
869.86413,0.12755
867.93539,0.12769
866.00664,0.12805
864.07790,0.12860
862.14915,0.12912
860.22041,0.12972
858.29166,0.13077
856.36292,0.13221
854.43417,0.13348
852.50543,0.13438
850.57668,0.13550
848.64794,0.13726
846.71919,0.13899
844.79044,0.13977
842.86170,0.13954
840.93295,0.13887
839.00421,0.13799
837.07546,0.13683
835.14672,0.13545
833.21797,0.13420
831.28923,0.13314
829.36048,0.13199
827.43174,0.13070
825.50299,0.12907
823.57425,0.12688
821.64550,0.12472
819.71676,0.12300
817.78801,0.12132
815.85926,0.11951
813.93052,0.11798
812.00177,0.11706
810.07303,0.11678
808.14428,0.11718
806.21554,0.11792
804.28679,0.11847
802.35805,0.11909
800.42930,0.12010
798.50056,0.12112
796.57181,0.12171
794.64307,0.12173
792.71432,0.12154
790.78558,0.12160
788.85683,0.12180
786.92809,0.12148
784.99934,0.12035
783.07059,0.11887
781.14185,0.11758
779.21310,0.11643
777.28436,0.11539
775.35561,0.11480
773.42687,0.11457
771.49812,0.11431
769.56938,0.11373
767.64063,0.11292
765.71189,0.11232
763.78314,0.11209
761.85440,0.11188
759.92565,0.11137
757.99691,0.11063
756.06816,0.10994
754.13942,0.10939
752.21067,0.10891
750.28192,0.10833
748.35318,0.10758
746.42443,0.10686
744.49569,0.10620
742.56694,0.10560
740.63820,0.10500
738.70945,0.10397
736.78071,0.10276
734.85196,0.10199
732.92322,0.10126
730.99447,0.10031
729.06573,0.09938
727.13698,0.09811
725.20824,0.09654
723.27949,0.09578
721.35074,0.09599
719.42200,0.09604
717.49325,0.09536
715.56451,0.09463
713.63576,0.09420
711.70702,0.09352
709.77827,0.09268
707.84953,0.09222
705.92078,0.09197
703.99204,0.09139
702.06329,0.09059
700.13455,0.09027
698.20580,0.09007
696.27706,0.08928
694.34831,0.08841
692.41957,0.08786
690.49082,0.08735
688.56207,0.08673
686.63333,0.08604
684.70458,0.08518
682.77584,0.08413
680.84709,0.08306
678.91835,0.08211
676.98960,0.08151
675.06086,0.08136
673.13211,0.08129
671.20337,0.08099
669.27462,0.08087
667.34588,0.08127
665.41713,0.08128
663.48839,0.08072
661.55964,0.08054
659.63090,0.08083
657.70215,0.08123
655.77340,0.08136
653.84466,0.08088
651.91591,0.08067
649.98717,0.08116
648.05842,0.08119
646.12968,0.08067
644.20093,0.08025
642.27219,0.07994
640.34344,0.07941
638.41470,0.07839
636.48595,0.07738
634.55721,0.07695
632.62846,0.07696
630.69972,0.07689
628.77097,0.07653
626.84222,0.07593
624.91348,0.07535
622.98473,0.07514
621.05599,0.07559
619.12724,0.07652
617.19850,0.07676
615.26975,0.07579
613.34101,0.07521
611.41226,0.07624
609.48352,0.07759
607.55477,0.07788
605.62603,0.07787
603.69728,0.07827
601.76854,0.07898
599.83979,0.07941
