7497.03301,0.84482
7495.10426,0.83731
7493.17552,0.83844
7491.24677,0.84704
7489.31803,0.85471
7487.38928,0.85276
7485.46054,0.84272
7483.53179,0.83462
7481.60305,0.83367
7479.67430,0.83879
7477.74556,0.84394
7475.81681,0.84354
7473.88807,0.84135
7471.95932,0.84176
7470.03057,0.84091
7468.10183,0.83704
7466.17308,0.83704
7464.24434,0.84245
7462.31559,0.84247
7460.38685,0.83386
7458.45810,0.82650
7456.52936,0.82708
7454.60061,0.83414
7452.67187,0.84092
7450.74312,0.84188
7448.81438,0.83872
7446.88563,0.83764
7444.95689,0.83919
7443.02814,0.83793
7441.09940,0.83501
7439.17065,0.83111
7437.24190,0.82262
7435.31316,0.81630
7433.38441,0.81770
7431.45567,0.81983
7429.52692,0.81876
7427.59818,0.81741
7425.66943,0.81636
7423.74069,0.81556
7421.81194,0.81705
7419.88320,0.82067
7417.95445,0.82304
7416.02571,0.82294
7414.09696,0.82300
7412.16822,0.82219
7410.23947,0.81875
7408.31073,0.81734
7406.38198,0.81956
7404.45323,0.82076
7402.52449,0.81948
7400.59574,0.81794
7398.66700,0.81857
7396.73825,0.82083
7394.80951,0.81875
7392.88076,0.81146
7390.95202,0.80631
7389.02327,0.80516
7387.09453,0.80550
7385.16578,0.80794
7383.23704,0.81143
7381.30829,0.81193
7379.37955,0.81023
7377.45080,0.81188
7375.52205,0.81533
7373.59331,0.81285
7371.66456,0.80549
7369.73582,0.80207
7367.80707,0.80403
7365.87833,0.80379
7363.94958,0.79772
7362.02084,0.79184
7360.09209,0.79279
7358.16335,0.79639
7356.23460,0.79674
7354.30586,0.79855
7352.37711,0.80445
7350.44837,0.80847
7348.51962,0.80702
7346.59088,0.80231
7344.66213,0.79789
7342.73338,0.79452
7340.80464,0.79163
7338.87589,0.79323
7336.94715,0.80162
7335.01840,0.80645
7333.08966,0.79880
7331.16091,0.78656
7329.23217,0.78272
7327.30342,0.78945
7325.37468,0.79649
7323.44593,0.79521
7321.51719,0.79124
7319.58844,0.79102
7317.65970,0.79208
7315.73095,0.79467
7313.80221,0.80023
7311.87346,0.80176
7309.94471,0.79627
7308.01597,0.79303
7306.08722,0.79714
7304.15848,0.80279
7302.22973,0.80284
7300.30099,0.79536
7298.37224,0.78756
7296.44350,0.78684
7294.51475,0.78939
7292.58601,0.78963
7290.65726,0.78894
7288.72852,0.79034
7286.79977,0.79345
7284.87103,0.79547
7282.94228,0.79388
7281.01353,0.78788
7279.08479,0.78215
7277.15604,0.78251
7275.22730,0.78786
7273.29855,0.79209
7271.36981,0.79063
7269.44106,0.78540
7267.51232,0.78170
7265.58357,0.78244
7263.65483,0.78666
7261.72608,0.79199
7259.79734,0.79590
7257.86859,0.79638
7255.93985,0.79584
7254.01110,0.79581
7252.08236,0.79154
7250.15361,0.78322
7248.22486,0.77882
7246.29612,0.78114
7244.36737,0.78538
7242.43863,0.78692
7240.50988,0.78597
7238.58114,0.78530
7236.65239,0.78533
7234.72365,0.78417
7232.79490,0.78177
7230.86616,0.78232
7228.93741,0.78802
7227.00867,0.79163
7225.07992,0.78729
7223.15118,0.77996
7221.22243,0.77574
7219.29369,0.77518
7217.36494,0.77512
7215.43619,0.77342
7213.50745,0.77167
7211.57870,0.77135
7209.64996,0.77231
7207.72121,0.77500
7205.79247,0.77758
7203.86372,0.77435
7201.93498,0.76649
7200.00623,0.76266
7198.07749,0.76602
7196.14874,0.77184
7194.22000,0.77415
7192.29125,0.77335
7190.36251,0.77334
7188.43376,0.77307
7186.50501,0.77036
7184.57627,0.76777
7182.64752,0.76837
7180.71878,0.77079
7178.79003,0.77117
7176.86129,0.76918
7174.93254,0.76751
7173.00380,0.76638
7171.07505,0.76597
7169.14631,0.76750
7167.21756,0.76832
7165.28882,0.76613
7163.36007,0.76405
7161.43133,0.76358
7159.50258,0.76203
7157.57384,0.76000
7155.64509,0.75859
7153.71634,0.75409
7151.78760,0.74696
7149.85885,0.74342
7147.93011,0.74592
7146.00136,0.75018
7144.07262,0.75113
7142.14387,0.75046
7140.21513,0.75225
7138.28638,0.75523
7136.35764,0.75537
7134.42889,0.75211
7132.50015,0.74756
7130.57140,0.74333
7128.64266,0.74023
7126.71391,0.73596
7124.78516,0.73097
7122.85642,0.73014
7120.92767,0.73038
7118.99893,0.72803
7117.07018,0.72834
7115.14144,0.73226
7113.21269,0.73560
7111.28395,0.73604
7109.35520,0.73144
7107.42646,0.72467
7105.49771,0.72084
7103.56897,0.71878
7101.64022,0.71847
7099.71148,0.72052
7097.78273,0.71948
7095.85399,0.71513
7093.92524,0.71234
7091.99649,0.71154
7090.06775,0.71244
7088.13900,0.71235
7086.21026,0.70827
7084.28151,0.70566
7082.35277,0.70663
7080.42402,0.70363
7078.49528,0.69741
7076.56653,0.69707
7074.63779,0.70173
7072.70904,0.70405
7070.78030,0.70267
7068.85155,0.69888
7066.92281,0.69282
7064.99406,0.68694
7063.06532,0.68369
7061.13657,0.68197
7059.20782,0.68195
7057.27908,0.68511
7055.35033,0.68898
7053.42159,0.69010
7051.49284,0.68636
7049.56410,0.67939
7047.63535,0.67529
7045.70661,0.67491
7043.77786,0.67415
7041.84912,0.67166
7039.92037,0.66826
7037.99163,0.66575
7036.06288,0.66494
7034.13414,0.66424
7032.20539,0.66300
7030.27664,0.66317
7028.34790,0.66464
7026.41915,0.66421
7024.49041,0.66194
7022.56166,0.65999
7020.63292,0.65845
7018.70417,0.65815
7016.77543,0.65930
7014.84668,0.65952
7012.91794,0.65885
7010.98919,0.65780
7009.06045,0.65394
7007.13170,0.65031
7005.20296,0.65152
7003.27421,0.65180
7001.34547,0.64721
6999.41672,0.64414
6997.48797,0.64467
6995.55923,0.64492
6993.63048,0.64499
6991.70174,0.64581
6989.77299,0.64584
6987.84425,0.64475
6985.91550,0.64285
6983.98676,0.63988
6982.05801,0.63779
6980.12927,0.63772
6978.20052,0.63757
6976.27178,0.63741
6974.34303,0.63762
6972.41429,0.63701
6970.48554,0.63607
6968.55680,0.63614
6966.62805,0.63855
6964.69930,0.64046
6962.77056,0.63854
6960.84181,0.63587
6958.91307,0.63489
6956.98432,0.63582
6955.05558,0.63759
6953.12683,0.63741
6951.19809,0.63585
6949.26934,0.63361
6947.34060,0.62886
6945.41185,0.62415
6943.48311,0.62396
6941.55436,0.62637
6939.62562,0.62742
6937.69687,0.62818
6935.76812,0.63033
6933.83938,0.63156
6931.91063,0.63080
6929.98189,0.63073
6928.05314,0.63114
6926.12440,0.62945
6924.19565,0.62750
6922.26691,0.62815
6920.33816,0.63017
6918.40942,0.63130
6916.48067,0.63119
6914.55193,0.63020
6912.62318,0.62863
6910.69444,0.62737
6908.76569,0.62624
6906.83695,0.62507
6904.90820,0.62569
6902.97945,0.62820
6901.05071,0.63009
6899.12196,0.62988
6897.19322,0.62755
6895.26447,0.62501
6893.33573,0.62532
6891.40698,0.62831
6889.47824,0.63126
6887.54949,0.63283
6885.62075,0.63258
6883.69200,0.63079
6881.76326,0.62972
6879.83451,0.63001
6877.90577,0.63053
6875.97702,0.63041
6874.04828,0.62859
6872.11953,0.62770
6870.19078,0.62911
6868.26204,0.62814
6866.33329,0.62506
6864.40455,0.62507
6862.47580,0.62825
6860.54706,0.63085
6858.61831,0.63159
6856.68957,0.63138
6854.76082,0.62974
6852.83208,0.62702
6850.90333,0.62631
6848.97459,0.62914
6847.04584,0.63172
6845.11710,0.63101
6843.18835,0.63068
6841.25960,0.63352
6839.33086,0.63592
6837.40211,0.63334
6835.47337,0.62622
6833.54462,0.62018
6831.61588,0.62004
6829.68713,0.62370
6827.75839,0.62658
6825.82964,0.62774
6823.90090,0.62719
6821.97215,0.62560
6820.04341,0.62538
6818.11466,0.62803
6816.18592,0.63206
6814.25717,0.63437
6812.32843,0.63405
6810.39968,0.63241
6808.47093,0.63116
6806.54219,0.63003
6804.61344,0.62799
6802.68470,0.62650
6800.75595,0.62558
6798.82721,0.62383
6796.89846,0.62202
6794.96972,0.62190
6793.04097,0.62341
6791.11223,0.62384
6789.18348,0.62290
6787.25474,0.62313
6785.32599,0.62433
6783.39725,0.62468
6781.46850,0.62392
6779.53975,0.62273
6777.61101,0.62144
6775.68226,0.62112
6773.75352,0.62332
6771.82477,0.62643
6769.89603,0.62802
6767.96728,0.62965
6766.03854,0.63219
6764.10979,0.63275
6762.18105,0.63024
6760.25230,0.62760
6758.32356,0.62677
6756.39481,0.62715
6754.46607,0.62864
6752.53732,0.63078
6750.60858,0.63126
6748.67983,0.62931
6746.75108,0.62661
6744.82234,0.62590
6742.89359,0.62874
6740.96485,0.63191
6739.03610,0.63061
6737.10736,0.62656
6735.17861,0.62489
6733.24987,0.62565
6731.32112,0.62606
6729.39238,0.62566
6727.46363,0.62539
6725.53489,0.62469
6723.60614,0.62331
6721.67740,0.62366
6719.74865,0.62623
6717.81991,0.62813
6715.89116,0.62898
6713.96241,0.62993
6712.03367,0.63015
6710.10492,0.62996
6708.17618,0.63117
6706.24743,0.63394
6704.31869,0.63688
6702.38994,0.63708
6700.46120,0.63345
6698.53245,0.62865
6696.60371,0.62584
6694.67496,0.62815
6692.74622,0.63478
6690.81747,0.63922
6688.88873,0.63804
6686.95998,0.63494
6685.03123,0.63391
6683.10249,0.63442
6681.17374,0.63484
6679.24500,0.63575
6677.31625,0.63770
6675.38751,0.63899
6673.45876,0.63844
6671.53002,0.63823
6669.60127,0.63886
6667.67253,0.63816
6665.74378,0.63782
6663.81504,0.63967
6661.88629,0.64018
6659.95755,0.63845
6658.02880,0.63881
6656.10006,0.64131
6654.17131,0.64132
6652.24256,0.63901
6650.31382,0.63890
6648.38507,0.64039
6646.45633,0.64054
6644.52758,0.64011
6642.59884,0.63906
6640.67009,0.63784
6638.74135,0.63864
6636.81260,0.64097
6634.88386,0.64267
6632.95511,0.64181
6631.02637,0.63923
6629.09762,0.63800
6627.16888,0.63931
6625.24013,0.64267
6623.31139,0.64541
6621.38264,0.64500
6619.45389,0.64352
6617.52515,0.64332
6615.59640,0.64457
6613.66766,0.64753
6611.73891,0.64903
6609.81017,0.64608
6607.88142,0.64235
6605.95268,0.64126
6604.02393,0.64266
6602.09519,0.64557
6600.16644,0.64722
6598.23770,0.64604
6596.30895,0.64427
6594.38021,0.64379
6592.45146,0.64431
6590.52271,0.64568
6588.59397,0.64740
6586.66522,0.64888
6584.73648,0.65026
6582.80773,0.65032
6580.87899,0.64949
6578.95024,0.65040
6577.02150,0.65212
6575.09275,0.65239
6573.16401,0.65155
6571.23526,0.64963
6569.30652,0.64667
6567.37777,0.64517
6565.44903,0.64701
6563.52028,0.65030
6561.59154,0.65184
6559.66279,0.65121
6557.73404,0.65020
6555.80530,0.64959
6553.87655,0.64937
6551.94781,0.64996
6550.01906,0.65150
6548.09032,0.65277
6546.16157,0.65303
6544.23283,0.65383
6542.30408,0.65555
6540.37534,0.65677
6538.44659,0.65740
6536.51785,0.65783
6534.58910,0.65851
6532.66036,0.65913
6530.73161,0.65755
6528.80287,0.65432
6526.87412,0.65339
6524.94537,0.65576
6523.01663,0.65883
6521.08788,0.65969
6519.15914,0.65731
6517.23039,0.65511
6515.30165,0.65578
6513.37290,0.65537
6511.44416,0.65246
6509.51541,0.65227
6507.58667,0.65592
6505.65792,0.65907
6503.72918,0.66008
6501.80043,0.66109
6499.87169,0.66189
6497.94294,0.65931
6496.01419,0.65492
6494.08545,0.65349
6492.15670,0.65564
6490.22796,0.65863
6488.29921,0.66024
6486.37047,0.66143
6484.44172,0.66382
6482.51298,0.66499
6480.58423,0.66267
6478.65549,0.65882
6476.72674,0.65680
6474.79800,0.65825
6472.86925,0.66163
6470.94051,0.66396
6469.01176,0.66401
6467.08302,0.66244
6465.15427,0.66075
6463.22552,0.65935
6461.29678,0.65782
6459.36803,0.65683
6457.43929,0.65719
6455.51054,0.65903
6453.58180,0.66177
6451.65305,0.66391
6449.72431,0.66391
6447.79556,0.66230
6445.86682,0.66189
6443.93807,0.66363
6442.00933,0.66561
6440.08058,0.66538
6438.15184,0.66333
6436.22309,0.66371
6434.29434,0.66644
6432.36560,0.66725
6430.43685,0.66626
6428.50811,0.66496
6426.57936,0.66345
6424.65062,0.66201
6422.72187,0.66058
6420.79313,0.65989
6418.86438,0.66059
6416.93564,0.66199
6415.00689,0.66295
6413.07815,0.66222
6411.14940,0.66051
6409.22066,0.66063
6407.29191,0.66200
6405.36317,0.66255
6403.43442,0.66377
6401.50567,0.66539
6399.57693,0.66512
6397.64818,0.66418
6395.71944,0.66441
6393.79069,0.66453
6391.86195,0.66414
6389.93320,0.66565
6388.00446,0.66811
6386.07571,0.66849
6384.14697,0.66758
6382.21822,0.66723
6380.28948,0.66703
6378.36073,0.66540
6376.43199,0.66332
6374.50324,0.66385
6372.57450,0.66630
6370.64575,0.66805
6368.71700,0.66834
6366.78826,0.66638
6364.85951,0.66386
6362.93077,0.66473
6361.00202,0.66782
6359.07328,0.66885
6357.14453,0.66777
6355.21579,0.66694
6353.28704,0.66663
6351.35830,0.66702
6349.42955,0.66886
6347.50081,0.66976
6345.57206,0.66836
6343.64332,0.66671
6341.71457,0.66528
6339.78582,0.66451
6337.85708,0.66538
6335.92833,0.66687
6333.99959,0.66805
6332.07084,0.66918
6330.14210,0.66973
6328.21335,0.66894
6326.28461,0.66898
6324.35586,0.67048
6322.42712,0.67049
6320.49837,0.66926
6318.56963,0.66839
6316.64088,0.66796
6314.71214,0.66821
6312.78339,0.66839
6310.85465,0.66926
6308.92590,0.67219
6306.99715,0.67502
6305.06841,0.67572
6303.13966,0.67448
6301.21092,0.67260
6299.28217,0.67260
6297.35343,0.67446
6295.42468,0.67606
6293.49594,0.67702
6291.56719,0.67725
6289.63845,0.67614
6287.70970,0.67424
6285.78096,0.67264
6283.85221,0.67183
6281.92347,0.67161
6279.99472,0.67218
6278.06598,0.67455
6276.13723,0.67699
6274.20848,0.67695
6272.27974,0.67733
6270.35099,0.67976
6268.42225,0.68086
6266.49350,0.67981
6264.56476,0.67841
6262.63601,0.67812
6260.70727,0.68003
6258.77852,0.68277
6256.84978,0.68343
6254.92103,0.68244
6252.99229,0.68274
6251.06354,0.68408
6249.13480,0.68445
6247.20605,0.68455
6245.27730,0.68564
6243.34856,0.68617
6241.41981,0.68473
6239.49107,0.68385
6237.56232,0.68544
6235.63358,0.68722
6233.70483,0.68805
6231.77609,0.68848
6229.84734,0.68762
6227.91860,0.68664
6225.98985,0.68775
6224.06111,0.68994
6222.13236,0.69196
6220.20362,0.69339
6218.27487,0.69368
6216.34613,0.69411
6214.41738,0.69595
6212.48863,0.69743
6210.55989,0.69699
6208.63114,0.69634
6206.70240,0.69682
6204.77365,0.69753
6202.84491,0.69768
6200.91616,0.69727
6198.98742,0.69725
6197.05867,0.69873
6195.12993,0.70070
6193.20118,0.70126
6191.27244,0.70057
6189.34369,0.69971
6187.41495,0.69954
6185.48620,0.70035
6183.55746,0.70124
6181.62871,0.70208
6179.69996,0.70334
6177.77122,0.70447
6175.84247,0.70508
6173.91373,0.70552
6171.98498,0.70607
6170.05624,0.70617
6168.12749,0.70584
6166.19875,0.70545
6164.27000,0.70530
6162.34126,0.70626
6160.41251,0.70727
6158.48377,0.70764
6156.55502,0.70834
6154.62628,0.70841
6152.69753,0.70764
6150.76878,0.70719
6148.84004,0.70753
6146.91129,0.70904
6144.98255,0.71065
6143.05380,0.71033
6141.12506,0.70881
6139.19631,0.70840
6137.26757,0.70946
6135.33882,0.71109
6133.41008,0.71233
6131.48133,0.71275
6129.55259,0.71291
6127.62384,0.71288
6125.69510,0.71327
6123.76635,0.71420
6121.83761,0.71480
6119.90886,0.71610
6117.98011,0.71719
6116.05137,0.71596
6114.12262,0.71510
6112.19388,0.71671
6110.26513,0.71825
6108.33639,0.71837
6106.40764,0.71772
6104.47890,0.71574
6102.55015,0.71304
6100.62141,0.71225
6098.69266,0.71361
6096.76392,0.71505
6094.83517,0.71569
6092.90643,0.71555
6090.97768,0.71463
6089.04893,0.71398
6087.12019,0.71484
6085.19144,0.71579
6083.26270,0.71569
6081.33395,0.71609
6079.40521,0.71711
6077.47646,0.71728
6075.54772,0.71654
6073.61897,0.71622
6071.69023,0.71667
6069.76148,0.71658
6067.83274,0.71582
6065.90399,0.71536
6063.97525,0.71589
6062.04650,0.71739
6060.11776,0.71812
6058.18901,0.71713
6056.26026,0.71559
6054.33152,0.71466
6052.40277,0.71442
6050.47403,0.71375
6048.54528,0.71211
6046.61654,0.71075
6044.68779,0.71017
6042.75905,0.71071
6040.83030,0.71248
6038.90156,0.71344
6036.97281,0.71290
6035.04407,0.71207
6033.11532,0.71117
6031.18658,0.71040
6029.25783,0.70996
6027.32909,0.70934
6025.40034,0.70838
6023.47159,0.70741
6021.54285,0.70576
6019.61410,0.70373
6017.68536,0.70383
6015.75661,0.70579
6013.82787,0.70664
6011.89912,0.70649
6009.97038,0.70671
6008.04163,0.70636
6006.11289,0.70504
6004.18414,0.70373
6002.25540,0.70264
6000.32665,0.70217
5998.39791,0.70209
5996.46916,0.70172
5994.54041,0.70176
5992.61167,0.70166
5990.68292,0.70073
5988.75418,0.70043
5986.82543,0.70064
5984.89669,0.69964
5982.96794,0.69839
5981.03920,0.69885
5979.11045,0.70006
5977.18171,0.70034
5975.25296,0.70015
5973.32422,0.70026
5971.39547,0.70031
5969.46673,0.70054
5967.53798,0.70132
5965.60924,0.70146
5963.68049,0.70049
5961.75174,0.70014
5959.82300,0.70066
5957.89425,0.70043
5955.96551,0.69983
5954.03676,0.69965
5952.10802,0.69866
5950.17927,0.69691
5948.25053,0.69689
5946.32178,0.69924
5944.39304,0.70183
5942.46429,0.70335
5940.53555,0.70333
5938.60680,0.70240
5936.67806,0.70266
5934.74931,0.70344
5932.82057,0.70336
5930.89182,0.70340
5928.96307,0.70362
5927.03433,0.70361
5925.10558,0.70362
5923.17684,0.70340
5921.24809,0.70254
5919.31935,0.70124
5917.39060,0.69980
5915.46186,0.69840
5913.53311,0.69763
5911.60437,0.69791
5909.67562,0.69874
5907.74688,0.69908
5905.81813,0.69887
5903.88939,0.69905
5901.96064,0.69915
5900.03189,0.69837
5898.10315,0.69718
5896.17440,0.69631
5894.24566,0.69594
5892.31691,0.69544
5890.38817,0.69445
5888.45942,0.69361
5886.53068,0.69370
5884.60193,0.69483
5882.67319,0.69564
5880.74444,0.69486
5878.81570,0.69346
5876.88695,0.69255
5874.95821,0.69152
5873.02946,0.69050
5871.10072,0.69044
5869.17197,0.69109
5867.24322,0.69181
5865.31448,0.69234
5863.38573,0.69279
5861.45699,0.69312
5859.52824,0.69278
5857.59950,0.69241
5855.67075,0.69320
5853.74201,0.69363
5851.81326,0.69171
5849.88452,0.68964
5847.95577,0.69002
5846.02703,0.69118
5844.09828,0.69129
5842.16954,0.69190
5840.24079,0.69398
5838.31205,0.69554
5836.38330,0.69490
5834.45455,0.69311
5832.52581,0.69175
5830.59706,0.69113
5828.66832,0.69096
5826.73957,0.69081
5824.81083,0.69057
5822.88208,0.68988
5820.95334,0.68841
5819.02459,0.68677
5817.09585,0.68532
5815.16710,0.68469
5813.23836,0.68598
5811.30961,0.68771
5809.38087,0.68733
5807.45212,0.68612
5805.52337,0.68635
5803.59463,0.68658
5801.66588,0.68535
5799.73714,0.68428
5797.80839,0.68446
5795.87965,0.68579
5793.95090,0.68748
5792.02216,0.68804
5790.09341,0.68748
5788.16467,0.68709
5786.23592,0.68706
5784.30718,0.68717
5782.37843,0.68765
5780.44969,0.68782
5778.52094,0.68748
5776.59220,0.68776
5774.66345,0.68857
5772.73470,0.68920
5770.80596,0.68970
5768.87721,0.68941
5766.94847,0.68778
5765.01972,0.68679
5763.09098,0.68825
5761.16223,0.69054
5759.23349,0.69125
5757.30474,0.69092
5755.37600,0.69103
5753.44725,0.69136
5751.51851,0.69174
5749.58976,0.69212
5747.66102,0.69148
5745.73227,0.69053
5743.80352,0.69091
5741.87478,0.69177
5739.94603,0.69167
5738.01729,0.69095
5736.08854,0.69018
5734.15980,0.68951
5732.23105,0.68976
5730.30231,0.69066
5728.37356,0.69050
5726.44482,0.68982
5724.51607,0.69006
5722.58733,0.69034
5720.65858,0.69005
5718.72984,0.68990
5716.80109,0.68980
5714.87235,0.68948
5712.94360,0.68934
5711.01485,0.68939
5709.08611,0.68936
5707.15736,0.68915
5705.22862,0.68845
5703.29987,0.68748
5701.37113,0.68708
5699.44238,0.68737
5697.51364,0.68800
5695.58489,0.68860
5693.65615,0.68877
5691.72740,0.68863
5689.79866,0.68837
5687.86991,0.68775
5685.94117,0.68696
5684.01242,0.68689
5682.08368,0.68765
5680.15493,0.68860
5678.22618,0.68889
5676.29744,0.68763
5674.36869,0.68592
5672.43995,0.68561
5670.51120,0.68590
5668.58246,0.68549
5666.65371,0.68489
5664.72497,0.68496
5662.79622,0.68561
5660.86748,0.68594
5658.93873,0.68583
5657.00999,0.68587
5655.08124,0.68610
5653.15250,0.68613
5651.22375,0.68605
5649.29500,0.68674
5647.36626,0.68754
5645.43751,0.68692
5643.50877,0.68578
5641.58002,0.68510
5639.65128,0.68453
5637.72253,0.68424
5635.79379,0.68433
5633.86504,0.68446
5631.93630,0.68453
5630.00755,0.68483
5628.07881,0.68512
5626.15006,0.68507
5624.22132,0.68493
5622.29257,0.68430
5620.36383,0.68331
5618.43508,0.68316
5616.50633,0.68399
5614.57759,0.68478
5612.64884,0.68504
5610.72010,0.68525
5608.79135,0.68526
5606.86261,0.68413
5604.93386,0.68279
5603.00512,0.68285
5601.07637,0.68372
5599.14763,0.68453
5597.21888,0.68513
5595.29014,0.68510
5593.36139,0.68503
5591.43265,0.68509
5589.50390,0.68445
5587.57516,0.68424
5585.64641,0.68533
5583.71766,0.68626
5581.78892,0.68648
5579.86017,0.68680
5577.93143,0.68725
5576.00268,0.68754
5574.07394,0.68773
5572.14519,0.68784
5570.21645,0.68779
5568.28770,0.68742
5566.35896,0.68719
5564.43021,0.68722
5562.50147,0.68656
5560.57272,0.68542
5558.64398,0.68520
5556.71523,0.68591
5554.78648,0.68639
5552.85774,0.68667
5550.92899,0.68768
5549.00025,0.68889
5547.07150,0.68893
5545.14276,0.68830
5543.21401,0.68844
5541.28527,0.68868
5539.35652,0.68768
5537.42778,0.68663
5535.49903,0.68738
5533.57029,0.68938
5531.64154,0.69100
5529.71280,0.69147
5527.78405,0.69139
5525.85531,0.69183
5523.92656,0.69224
5521.99781,0.69150
5520.06907,0.69087
5518.14032,0.69180
5516.21158,0.69301
5514.28283,0.69278
5512.35409,0.69140
5510.42534,0.69025
5508.49660,0.69040
5506.56785,0.69177
5504.63911,0.69302
5502.71036,0.69314
5500.78162,0.69223
5498.85287,0.69113
5496.92413,0.69101
5494.99538,0.69210
5493.06664,0.69369
5491.13789,0.69453
5489.20914,0.69421
5487.28040,0.69374
5485.35165,0.69353
5483.42291,0.69320
5481.49416,0.69302
5479.56542,0.69336
5477.63667,0.69406
5475.70793,0.69479
5473.77918,0.69466
5471.85044,0.69330
5469.92169,0.69242
5467.99295,0.69293
5466.06420,0.69353
5464.13546,0.69405
5462.20671,0.69549
5460.27796,0.69675
5458.34922,0.69646
5456.42047,0.69581
5454.49173,0.69592
5452.56298,0.69634
5450.63424,0.69639
5448.70549,0.69614
5446.77675,0.69653
5444.84800,0.69792
5442.91926,0.69934
5440.99051,0.69955
5439.06177,0.69887
5437.13302,0.69897
5435.20428,0.70008
5433.27553,0.70090
5431.34679,0.70093
5429.41804,0.70114
5427.48929,0.70221
5425.56055,0.70303
5423.63180,0.70289
5421.70306,0.70293
5419.77431,0.70348
5417.84557,0.70357
5415.91682,0.70320
5413.98808,0.70312
5412.05933,0.70333
5410.13059,0.70338
5408.20184,0.70348
5406.27310,0.70425
5404.34435,0.70528
5402.41561,0.70558
5400.48686,0.70562
5398.55811,0.70594
5396.62937,0.70576
5394.70062,0.70517
5392.77188,0.70509
5390.84313,0.70544
5388.91439,0.70551
5386.98564,0.70537
5385.05690,0.70548
5383.12815,0.70569
5381.19941,0.70590
5379.27066,0.70619
5377.34192,0.70605
5375.41317,0.70536
5373.48443,0.70483
5371.55568,0.70470
5369.62694,0.70438
5367.69819,0.70354
5365.76944,0.70285
5363.84070,0.70350
5361.91195,0.70503
5359.98321,0.70569
5358.05446,0.70538
5356.12572,0.70473
5354.19697,0.70396
5352.26823,0.70365
5350.33948,0.70359
5348.41074,0.70292
5346.48199,0.70183
5344.55325,0.70075
5342.62450,0.69969
5340.69576,0.69901
5338.76701,0.69873
5336.83827,0.69832
5334.90952,0.69801
5332.98077,0.69789
5331.05203,0.69728
5329.12328,0.69615
5327.19454,0.69479
5325.26579,0.69310
5323.33705,0.69130
5321.40830,0.68983
5319.47956,0.68862
5317.55081,0.68728
5315.62207,0.68564
5313.69332,0.68374
5311.76458,0.68194
5309.83583,0.68069
5307.90709,0.67939
5305.97834,0.67753
5304.04959,0.67576
5302.12085,0.67379
5300.19210,0.67077
5298.26336,0.66758
5296.33461,0.66554
5294.40587,0.66370
5292.47712,0.66045
5290.54838,0.65653
5288.61963,0.65338
5286.69089,0.65058
5284.76214,0.64741
5282.83340,0.64424
5280.90465,0.64122
5278.97591,0.63785
5277.04716,0.63432
5275.11842,0.63122
5273.18967,0.62841
5271.26092,0.62507
5269.33218,0.62079
5267.40343,0.61640
5265.47469,0.61265
5263.54594,0.60904
5261.61720,0.60539
5259.68845,0.60227
5257.75971,0.59915
5255.83096,0.59533
5253.90222,0.59184
5251.97347,0.58920
5250.04473,0.58608
5248.11598,0.58235
5246.18724,0.57978
5244.25849,0.57788
5242.32975,0.57482
5240.40100,0.57128
5238.47225,0.56860
5236.54351,0.56681
5234.61476,0.56535
5232.68602,0.56335
5230.75727,0.56054
5228.82853,0.55809
5226.89978,0.55683
5224.97104,0.55598
5223.04229,0.55469
5221.11355,0.55310
5219.18480,0.55135
5217.25606,0.54948
5215.32731,0.54804
5213.39857,0.54717
5211.46982,0.54639
5209.54107,0.54567
5207.61233,0.54507
5205.68358,0.54424
5203.75484,0.54326
5201.82609,0.54299
5199.89735,0.54327
5197.96860,0.54265
5196.03986,0.54147
5194.11111,0.54146
5192.18237,0.54253
5190.25362,0.54335
5188.32488,0.54332
5186.39613,0.54265
5184.46739,0.54174
5182.53864,0.54105
5180.60990,0.54142
5178.68115,0.54295
5176.75240,0.54402
5174.82366,0.54397
5172.89491,0.54409
5170.96617,0.54500
5169.03742,0.54627
5167.10868,0.54712
5165.17993,0.54753
5163.25119,0.54862
5161.32244,0.55002
5159.39370,0.55047
5157.46495,0.55069
5155.53621,0.55179
5153.60746,0.55323
5151.67872,0.55451
5149.74997,0.55567
5147.82123,0.55651
5145.89248,0.55706
5143.96373,0.55759
5142.03499,0.55809
5140.10624,0.55867
5138.17750,0.55990
5136.24875,0.56160
5134.32001,0.56275
5132.39126,0.56351
5130.46252,0.56468
5128.53377,0.56629
5126.60503,0.56777
5124.67628,0.56883
5122.74754,0.56995
5120.81879,0.57119
5118.89005,0.57201
5116.96130,0.57272
5115.03255,0.57420
5113.10381,0.57607
5111.17506,0.57686
5109.24632,0.57665
5107.31757,0.57698
5105.38883,0.57824
5103.46008,0.57950
5101.53134,0.58044
5099.60259,0.58159
5097.67385,0.58263
5095.74510,0.58342
5093.81636,0.58443
5091.88761,0.58544
5089.95887,0.58628
5088.03012,0.58727
5086.10138,0.58859
5084.17263,0.58982
5082.24388,0.59039
5080.31514,0.59088
5078.38639,0.59187
5076.45765,0.59280
5074.52890,0.59343
5072.60016,0.59423
5070.67141,0.59535
5068.74267,0.59639
5066.81392,0.59717
5064.88518,0.59794
5062.95643,0.59890
5061.02769,0.59988
5059.09894,0.60081
5057.17020,0.60166
5055.24145,0.60230
5053.31270,0.60284
5051.38396,0.60327
5049.45521,0.60373
5047.52647,0.60468
5045.59772,0.60585
5043.66898,0.60679
5041.74023,0.60745
5039.81149,0.60790
5037.88274,0.60840
5035.95400,0.60925
5034.02525,0.61061
5032.09651,0.61209
5030.16776,0.61275
5028.23902,0.61261
5026.31027,0.61269
5024.38153,0.61354
5022.45278,0.61466
5020.52403,0.61530
5018.59529,0.61545
5016.66654,0.61546
5014.73780,0.61553
5012.80905,0.61588
5010.88031,0.61659
5008.95156,0.61702
5007.02282,0.61691
5005.09407,0.61724
5003.16533,0.61814
5001.23658,0.61852
4999.30784,0.61834
4997.37909,0.61815
4995.45035,0.61762
4993.52160,0.61703
4991.59286,0.61731
4989.66411,0.61785
4987.73536,0.61749
4985.80662,0.61654
4983.87787,0.61572
4981.94913,0.61534
4980.02038,0.61529
4978.09164,0.61482
4976.16289,0.61373
4974.23415,0.61303
4972.30540,0.61305
4970.37666,0.61301
4968.44791,0.61259
4966.51917,0.61175
4964.59042,0.61040
4962.66168,0.60895
4960.73293,0.60775
4958.80418,0.60687
4956.87544,0.60619
4954.94669,0.60557
4953.01795,0.60491
4951.08920,0.60376
4949.16046,0.60212
4947.23171,0.60069
4945.30297,0.59971
4943.37422,0.59869
4941.44548,0.59689
4939.51673,0.59444
4937.58799,0.59218
4935.65924,0.59035
4933.73050,0.58865
4931.80175,0.58701
4929.87301,0.58572
4927.94426,0.58475
4926.01551,0.58344
4924.08677,0.58141
4922.15802,0.57934
4920.22928,0.57808
4918.30053,0.57702
4916.37179,0.57532
4914.44304,0.57349
4912.51430,0.57187
4910.58555,0.57031
4908.65681,0.56886
4906.72806,0.56721
4904.79932,0.56505
4902.87057,0.56292
4900.94183,0.56165
4899.01308,0.56083
4897.08434,0.55935
4895.15559,0.55715
4893.22684,0.55492
4891.29810,0.55302
4889.36935,0.55151
4887.44061,0.55038
4885.51186,0.54954
4883.58312,0.54845
4881.65437,0.54665
4879.72563,0.54456
4877.79688,0.54255
4875.86814,0.54064
4873.93939,0.53906
4872.01065,0.53775
4870.08190,0.53633
4868.15316,0.53482
4866.22441,0.53346
4864.29566,0.53222
4862.36692,0.53111
4860.43817,0.53004
4858.50943,0.52871
4856.58068,0.52712
4854.65194,0.52556
4852.72319,0.52418
4850.79445,0.52294
4848.86570,0.52170
4846.93696,0.52048
4845.00821,0.51961
4843.07947,0.51920
4841.15072,0.51852
4839.22198,0.51696
4837.29323,0.51483
4835.36449,0.51290
4833.43574,0.51157
4831.50699,0.51072
4829.57825,0.51010
4827.64950,0.50945
4825.72076,0.50864
4823.79201,0.50758
4821.86327,0.50609
4819.93452,0.50453
4818.00578,0.50357
4816.07703,0.50330
4814.14829,0.50326
4812.21954,0.50263
4810.29080,0.50146
4808.36205,0.50070
4806.43331,0.50047
4804.50456,0.50032
4802.57582,0.50034
4800.64707,0.50016
4798.71832,0.49909
4796.78958,0.49760
4794.86083,0.49668
4792.93209,0.49639
4791.00334,0.49639
4789.07460,0.49615
4787.14585,0.49563
4785.21711,0.49555
4783.28836,0.49576
4781.35962,0.49555
4779.43087,0.49485
4777.50213,0.49406
4775.57338,0.49377
4773.64464,0.49405
4771.71589,0.49434
4769.78714,0.49423
4767.85840,0.49390
4765.92965,0.49378
4764.00091,0.49382
4762.07216,0.49391
4760.14342,0.49387
4758.21467,0.49355
4756.28593,0.49322
4754.35718,0.49307
4752.42844,0.49312
4750.49969,0.49343
4748.57095,0.49387
4746.64220,0.49434
4744.71346,0.49449
4742.78471,0.49420
4740.85597,0.49402
4738.92722,0.49444
4736.99847,0.49499
4735.06973,0.49505
4733.14098,0.49502
4731.21224,0.49543
4729.28349,0.49597
4727.35475,0.49630
4725.42600,0.49660
4723.49726,0.49710
4721.56851,0.49775
4719.63977,0.49839
4717.71102,0.49902
4715.78228,0.49944
4713.85353,0.49935
4711.92479,0.49901
4709.99604,0.49905
4708.06729,0.49961
4706.13855,0.50031
4704.20980,0.50087
4702.28106,0.50115
4700.35231,0.50115
4698.42357,0.50140
4696.49482,0.50215
4694.56608,0.50283
4692.63733,0.50298
4690.70859,0.50268
4688.77984,0.50245
4686.85110,0.50277
4684.92235,0.50379
4682.99361,0.50501
4681.06486,0.50553
4679.13612,0.50556
4677.20737,0.50601
4675.27862,0.50669
4673.34988,0.50705
4671.42113,0.50726
4669.49239,0.50772
4667.56364,0.50859
4665.63490,0.50948
4663.70615,0.51008
4661.77741,0.51097
4659.84866,0.51218
4657.91992,0.51298
4655.99117,0.51367
4654.06243,0.51445
4652.13368,0.51490
4650.20494,0.51541
4648.27619,0.51640
4646.34745,0.51762
4644.41870,0.51868
4642.48995,0.51945
4640.56121,0.52013
4638.63246,0.52098
4636.70372,0.52184
4634.77497,0.52268
4632.84623,0.52378
4630.91748,0.52489
4628.98874,0.52559
4627.05999,0.52611
4625.13125,0.52675
4623.20250,0.52745
4621.27376,0.52825
4619.34501,0.52934
4617.41627,0.53070
4615.48752,0.53215
4613.55877,0.53346
4611.63003,0.53454
4609.70128,0.53528
4607.77254,0.53579
4605.84379,0.53660
4603.91505,0.53788
4601.98630,0.53922
4600.05756,0.54043
4598.12881,0.54160
4596.20007,0.54265
4594.27132,0.54351
4592.34258,0.54410
4590.41383,0.54446
4588.48509,0.54512
4586.55634,0.54629
4584.62760,0.54740
4582.69885,0.54820
4580.77010,0.54883
4578.84136,0.54942
4576.91261,0.54997
4574.98387,0.55035
4573.05512,0.55072
4571.12638,0.55125
4569.19763,0.55172
4567.26889,0.55214
4565.34014,0.55289
4563.41140,0.55394
4561.48265,0.55480
4559.55391,0.55509
4557.62516,0.55519
4555.69642,0.55569
4553.76767,0.55648
4551.83893,0.55731
4549.91018,0.55794
4547.98143,0.55803
4546.05269,0.55775
4544.12394,0.55759
4542.19520,0.55794
4540.26645,0.55869
4538.33771,0.55923
4536.40896,0.55943
4534.48022,0.55969
4532.55147,0.56003
4530.62273,0.56044
4528.69398,0.56098
4526.76524,0.56139
4524.83649,0.56156
4522.90775,0.56168
4520.97900,0.56167
4519.05025,0.56150
4517.12151,0.56150
4515.19276,0.56184
4513.26402,0.56217
4511.33527,0.56198
4509.40653,0.56124
4507.47778,0.56025
4505.54904,0.55921
4503.62029,0.55824
4501.69155,0.55761
4499.76280,0.55746
4497.83406,0.55749
4495.90531,0.55724
4493.97657,0.55651
4492.04782,0.55531
4490.11908,0.55377
4488.19033,0.55228
4486.26158,0.55106
4484.33284,0.55002
4482.40409,0.54901
4480.47535,0.54789
4478.54660,0.54651
4476.61786,0.54477
4474.68911,0.54271
4472.76037,0.54033
4470.83162,0.53800
4468.90288,0.53624
4466.97413,0.53456
4465.04539,0.53238
4463.11664,0.52998
4461.18790,0.52740
4459.25915,0.52450
4457.33041,0.52170
4455.40166,0.51924
4453.47291,0.51698
4451.54417,0.51504
4449.61542,0.51325
4447.68668,0.51090
4445.75793,0.50819
4443.82919,0.50586
4441.90044,0.50381
4439.97170,0.50166
4438.04295,0.49948
4436.11421,0.49735
4434.18546,0.49501
4432.25672,0.49221
4430.32797,0.48915
4428.39923,0.48610
4426.47048,0.48339
4424.54173,0.48099
4422.61299,0.47863
4420.68424,0.47646
4418.75550,0.47443
4416.82675,0.47209
4414.89801,0.46960
4412.96926,0.46734
4411.04052,0.46531
4409.11177,0.46368
4407.18303,0.46264
4405.25428,0.46184
4403.32554,0.46094
4401.39679,0.46016
4399.46805,0.45983
4397.53930,0.45982
4395.61056,0.45962
4393.68181,0.45924
4391.75306,0.45916
4389.82432,0.45955
4387.89557,0.46055
4385.96683,0.46181
4384.03808,0.46256
4382.10934,0.46288
4380.18059,0.46334
4378.25185,0.46407
4376.32310,0.46475
4374.39436,0.46508
4372.46561,0.46537
4370.53687,0.46636
4368.60812,0.46791
4366.67938,0.46908
4364.75063,0.46971
4362.82189,0.47032
4360.89314,0.47087
4358.96439,0.47116
4357.03565,0.47128
4355.10690,0.47135
4353.17816,0.47138
4351.24941,0.47119
4349.32067,0.47066
4347.39192,0.47012
4345.46318,0.46992
4343.53443,0.46995
4341.60569,0.46999
4339.67694,0.46983
4337.74820,0.46923
4335.81945,0.46826
4333.89071,0.46741
4331.96196,0.46686
4330.03321,0.46619
4328.10447,0.46540
4326.17572,0.46477
4324.24698,0.46394
4322.31823,0.46271
4320.38949,0.46150
4318.46074,0.46064
4316.53200,0.46006
4314.60325,0.45951
4312.67451,0.45885
4310.74576,0.45806
4308.81702,0.45716
4306.88827,0.45612
4304.95953,0.45523
4303.03078,0.45437
4301.10204,0.45306
4299.17329,0.45193
4297.24454,0.45168
4295.31580,0.45140
4293.38705,0.45027
4291.45831,0.44913
4289.52956,0.44868
4287.60082,0.44859
4285.67207,0.44848
4283.74333,0.44824
4281.81458,0.44784
4279.88584,0.44733
4277.95709,0.44715
4276.02835,0.44752
4274.09960,0.44790
4272.17086,0.44813
4270.24211,0.44839
4268.31336,0.44867
4266.38462,0.44922
4264.45587,0.44997
4262.52713,0.45039
4260.59838,0.45053
4258.66964,0.45073
4256.74089,0.45113
4254.81215,0.45191
4252.88340,0.45276
4250.95466,0.45301
4249.02591,0.45292
4247.09717,0.45311
4245.16842,0.45350
4243.23968,0.45389
4241.31093,0.45427
4239.38219,0.45447
4237.45344,0.45435
4235.52469,0.45408
4233.59595,0.45411
4231.66720,0.45419
4229.73846,0.45387
4227.80971,0.45357
4225.88097,0.45363
4223.95222,0.45366
4222.02348,0.45354
4220.09473,0.45364
4218.16599,0.45393
4216.23724,0.45407
4214.30850,0.45408
4212.37975,0.45413
4210.45101,0.45427
4208.52226,0.45459
4206.59352,0.45495
4204.66477,0.45497
4202.73602,0.45460
4200.80728,0.45429
4198.87853,0.45429
4196.94979,0.45451
4195.02104,0.45484
4193.09230,0.45527
4191.16355,0.45570
4189.23481,0.45584
4187.30606,0.45582
4185.37732,0.45603
4183.44857,0.45633
4181.51983,0.45661
4179.59108,0.45704
4177.66234,0.45768
4175.73359,0.45848
4173.80484,0.45920
4171.87610,0.45959
4169.94735,0.45980
4168.01861,0.45989
4166.08986,0.45982
4164.16112,0.45994
4162.23237,0.46035
4160.30363,0.46055
4158.37488,0.46037
4156.44614,0.46006
4154.51739,0.45970
4152.58865,0.45932
4150.65990,0.45905
4148.73116,0.45865
4146.80241,0.45790
4144.87367,0.45716
4142.94492,0.45663
4141.01617,0.45613
4139.08743,0.45544
4137.15868,0.45439
4135.22994,0.45306
4133.30119,0.45173
4131.37245,0.45031
4129.44370,0.44894
4127.51496,0.44801
4125.58621,0.44706
4123.65747,0.44550
4121.72872,0.44372
4119.79998,0.44229
4117.87123,0.44092
4115.94249,0.43926
4114.01374,0.43766
4112.08500,0.43644
4110.15625,0.43521
4108.22750,0.43358
4106.29876,0.43160
4104.37001,0.42961
4102.44127,0.42792
4100.51252,0.42635
4098.58378,0.42451
4096.65503,0.42246
4094.72629,0.42035
4092.79754,0.41814
4090.86880,0.41594
4088.94005,0.41401
4087.01131,0.41237
4085.08256,0.41066
4083.15382,0.40884
4081.22507,0.40712
4079.29632,0.40534
4077.36758,0.40329
4075.43883,0.40119
4073.51009,0.39924
4071.58134,0.39734
4069.65260,0.39535
4067.72385,0.39347
4065.79511,0.39189
4063.86636,0.39028
4061.93762,0.38829
4060.00887,0.38613
4058.08013,0.38412
4056.15138,0.38212
4054.22264,0.38014
4052.29389,0.37852
4050.36515,0.37716
4048.43640,0.37553
4046.50765,0.37340
4044.57891,0.37126
4042.65016,0.36964
4040.72142,0.36841
4038.79267,0.36726
4036.86393,0.36617
4034.93518,0.36515
4033.00644,0.36408
4031.07769,0.36294
4029.14895,0.36189
4027.22020,0.36112
4025.29146,0.36053
4023.36271,0.35979
4021.43397,0.35910
4019.50522,0.35881
4017.57648,0.35868
4015.64773,0.35847
4013.71898,0.35825
4011.79024,0.35800
4009.86149,0.35781
4007.93275,0.35805
4006.00400,0.35862
4004.07526,0.35894
4002.14651,0.35903
4000.21777,0.35929
3998.28902,0.35974
3996.36028,0.36022
3994.43153,0.36055
3992.50279,0.36062
3990.57404,0.36093
3988.64530,0.36159
3986.71655,0.36208
3984.78780,0.36241
3982.85906,0.36310
3980.93031,0.36414
3979.00157,0.36491
3977.07282,0.36514
3975.14408,0.36535
3973.21533,0.36601
3971.28659,0.36689
3969.35784,0.36779
3967.42910,0.36854
3965.50035,0.36913
3963.57161,0.36987
3961.64286,0.37077
3959.71412,0.37167
3957.78537,0.37252
3955.85663,0.37315
3953.92788,0.37383
3951.99913,0.37492
3950.07039,0.37615
3948.14164,0.37719
3946.21290,0.37818
3944.28415,0.37924
3942.35541,0.38018
3940.42666,0.38100
3938.49792,0.38193
3936.56917,0.38287
3934.64043,0.38384
3932.71168,0.38509
3930.78294,0.38635
3928.85419,0.38732
3926.92545,0.38832
3924.99670,0.38935
3923.06795,0.39005
3921.13921,0.39074
3919.21046,0.39190
3917.28172,0.39309
3915.35297,0.39386
3913.42423,0.39436
3911.49548,0.39489
3909.56674,0.39579
3907.63799,0.39717
3905.70925,0.39862
3903.78050,0.39969
3901.85176,0.40048
3899.92301,0.40117
3897.99427,0.40159
3896.06552,0.40184
3894.13678,0.40237
3892.20803,0.40336
3890.27928,0.40442
3888.35054,0.40527
3886.42179,0.40617
3884.49305,0.40709
3882.56430,0.40775
3880.63556,0.40812
3878.70681,0.40834
3876.77807,0.40860
3874.84932,0.40912
3872.92058,0.40998
3870.99183,0.41135
3869.06309,0.41279
3867.13434,0.41361
3865.20560,0.41430
3863.27685,0.41521
3861.34811,0.41597
3859.41936,0.41679
3857.49061,0.41784
3855.56187,0.41885
3853.63312,0.41983
3851.70438,0.42083
3849.77563,0.42161
3847.84689,0.42239
3845.91814,0.42324
3843.98940,0.42391
3842.06065,0.42447
3840.13191,0.42507
3838.20316,0.42566
3836.27442,0.42620
3834.34567,0.42667
3832.41693,0.42707
3830.48818,0.42731
3828.55943,0.42747
3826.63069,0.42768
3824.70194,0.42784
3822.77320,0.42804
3820.84445,0.42830
3818.91571,0.42826
3816.98696,0.42801
3815.05822,0.42782
3813.12947,0.42757
3811.20073,0.42726
3809.27198,0.42703
3807.34324,0.42681
3805.41449,0.42658
3803.48575,0.42663
3801.55700,0.42704
3799.62826,0.42735
3797.69951,0.42731
3795.77076,0.42699
3793.84202,0.42668
3791.91327,0.42664
3789.98453,0.42661
3788.05578,0.42633
3786.12704,0.42584
3784.19829,0.42546
3782.26955,0.42536
3780.34080,0.42536
3778.41206,0.42510
3776.48331,0.42437
3774.55457,0.42346
3772.62582,0.42292
3770.69708,0.42276
3768.76833,0.42255
3766.83959,0.42221
3764.91084,0.42176
3762.98209,0.42114
3761.05335,0.42037
3759.12460,0.41945
3757.19586,0.41867
3755.26711,0.41799
3753.33837,0.41705
3751.40962,0.41591
3749.48088,0.41492
3747.55213,0.41431
3745.62339,0.41346
3743.69464,0.41181
3741.76590,0.41037
3739.83715,0.40963
3737.90841,0.40880
3735.97966,0.40736
3734.05091,0.40546
3732.12217,0.40348
3730.19342,0.40195
3728.26468,0.40076
3726.33593,0.39921
3724.40719,0.39693
3722.47844,0.39428
3720.54970,0.39207
3718.62095,0.39043
3716.69221,0.38860
3714.76346,0.38635
3712.83472,0.38381
3710.90597,0.38098
3708.97723,0.37801
3707.04848,0.37496
3705.11974,0.37177
3703.19099,0.36831
3701.26224,0.36431
3699.33350,0.36018
3697.40475,0.35640
3695.47601,0.35264
3693.54726,0.34850
3691.61852,0.34383
3689.68977,0.33832
3687.76103,0.33202
3685.83228,0.32586
3683.90354,0.32007
3681.97479,0.31420
3680.04605,0.30822
3678.11730,0.30201
3676.18856,0.29472
3674.25981,0.28686
3672.33107,0.27979
3670.40232,0.27212
3668.47357,0.26397
3666.54483,0.25726
3664.61608,0.25123
3662.68734,0.24485
3660.75859,0.23842
3658.82985,0.23224
3656.90110,0.22597
3654.97236,0.21995
3653.04361,0.21465
3651.11487,0.20911
3649.18612,0.20276
3647.25738,0.19671
3645.32863,0.19166
3643.39989,0.18706
3641.47114,0.18236
3639.54239,0.17778
3637.61365,0.17361
3635.68490,0.16951
3633.75616,0.16538
3631.82741,0.16172
3629.89867,0.15814
3627.96992,0.15405
3626.04118,0.15027
3624.11243,0.14697
3622.18369,0.14378
3620.25494,0.14038
3618.32620,0.13672
3616.39745,0.13341
3614.46871,0.13041
3612.53996,0.12741
3610.61122,0.12449
3608.68247,0.12171
3606.75372,0.11924
3604.82498,0.11697
3602.89623,0.11433
3600.96749,0.11130
3599.03874,0.10841
3597.11000,0.10593
3595.18125,0.10375
3593.25251,0.10168
3591.32376,0.09980
3589.39502,0.09779
3587.46627,0.09532
3585.53753,0.09312
3583.60878,0.09161
3581.68004,0.09025
3579.75129,0.08863
3577.82254,0.08679
3575.89380,0.08482
3573.96505,0.08298
3572.03631,0.08165
3570.10756,0.08068
3568.17882,0.07961
3566.25007,0.07818
3564.32133,0.07677
3562.39258,0.07554
3560.46384,0.07430
3558.53509,0.07307
3556.60635,0.07205
3554.67760,0.07115
3552.74886,0.07026
3550.82011,0.06957
3548.89137,0.06912
3546.96262,0.06842
3545.03387,0.06719
3543.10513,0.06596
3541.17638,0.06527
3539.24764,0.06467
3537.31889,0.06379
3535.39015,0.06290
3533.46140,0.06218
3531.53266,0.06154
3529.60391,0.06073
3527.67517,0.05979
3525.74642,0.05914
3523.81768,0.05904
3521.88893,0.05918
3519.96019,0.05891
3518.03144,0.05803
3516.10270,0.05706
3514.17395,0.05641
3512.24520,0.05605
3510.31646,0.05574
3508.38771,0.05522
3506.45897,0.05456
3504.53022,0.05401
3502.60148,0.05367
3500.67273,0.05344
3498.74399,0.05299
3496.81524,0.05230
3494.88650,0.05194
3492.95775,0.05195
3491.02901,0.05160
3489.10026,0.05097
3487.17152,0.05089
3485.24277,0.05137
3483.31402,0.05157
3481.38528,0.05119
3479.45653,0.05085
3477.52779,0.05075
3475.59904,0.05047
3473.67030,0.05001
3471.74155,0.04975
3469.81281,0.04973
3467.88406,0.04960
3465.95532,0.04928
3464.02657,0.04917
3462.09783,0.04943
3460.16908,0.04966
3458.24034,0.04955
3456.31159,0.04921
3454.38285,0.04889
3452.45410,0.04876
3450.52535,0.04869
3448.59661,0.04855
3446.66786,0.04841
3444.73912,0.04842
3442.81037,0.04847
3440.88163,0.04838
3438.95288,0.04828
3437.02414,0.04830
3435.09539,0.04830
3433.16665,0.04818
3431.23790,0.04803
3429.30916,0.04801
3427.38041,0.04819
3425.45167,0.04846
3423.52292,0.04858
3421.59418,0.04859
3419.66543,0.04871
3417.73668,0.04891
3415.80794,0.04899
3413.87919,0.04897
3411.95045,0.04888
3410.02170,0.04870
3408.09296,0.04841
3406.16421,0.04812
3404.23547,0.04827
3402.30672,0.04885
3400.37798,0.04933
3398.44923,0.04947
3396.52049,0.04923
3394.59174,0.04877
3392.66300,0.04876
3390.73425,0.04934
3388.80550,0.04992
3386.87676,0.05014
3384.94801,0.05023
3383.01927,0.05045
3381.09052,0.05070
3379.16178,0.05073
3377.23303,0.05038
3375.30429,0.04993
3373.37554,0.04987
3371.44680,0.05002
3369.51805,0.04991
3367.58931,0.04975
3365.66056,0.04998
3363.73182,0.05039
3361.80307,0.05071
3359.87433,0.05100
3357.94558,0.05141
3356.01683,0.05186
3354.08809,0.05197
3352.15934,0.05179
3350.23060,0.05182
3348.30185,0.05213
3346.37311,0.05247
3344.44436,0.05278
3342.51562,0.05304
3340.58687,0.05335
3338.65813,0.05386
3336.72938,0.05427
3334.80064,0.05439
3332.87189,0.05448
3330.94315,0.05479
3329.01440,0.05536
3327.08566,0.05594
3325.15691,0.05630
3323.22816,0.05636
3321.29942,0.05626
3319.37067,0.05636
3317.44193,0.05652
3315.51318,0.05653
3313.58444,0.05686
3311.65569,0.05768
3309.72695,0.05837
3307.79820,0.05872
3305.86946,0.05907
3303.94071,0.05922
3302.01197,0.05918
3300.08322,0.05951
3298.15448,0.06007
3296.22573,0.06017
3294.29698,0.05988
3292.36824,0.06003
3290.43949,0.06054
3288.51075,0.06073
3286.58200,0.06083
3284.65326,0.06146
3282.72451,0.06235
3280.79577,0.06285
3278.86702,0.06307
3276.93828,0.06363
3275.00953,0.06451
3273.08079,0.06486
3271.15204,0.06445
3269.22330,0.06439
3267.29455,0.06534
3265.36581,0.06639
3263.43706,0.06670
3261.50831,0.06670
3259.57957,0.06700
3257.65082,0.06752
3255.72208,0.06794
3253.79333,0.06828
3251.86459,0.06869
3249.93584,0.06901
3248.00710,0.06923
3246.07835,0.06969
3244.14961,0.07045
3242.22086,0.07134
3240.29212,0.07225
3238.36337,0.07297
3236.43463,0.07342
3234.50588,0.07391
3232.57713,0.07471
3230.64839,0.07560
3228.71964,0.07609
3226.79090,0.07627
3224.86215,0.07673
3222.93341,0.07765
3221.00466,0.07861
3219.07592,0.07926
3217.14717,0.07984
3215.21843,0.08045
3213.28968,0.08099
3211.36094,0.08156
3209.43219,0.08226
3207.50345,0.08305
3205.57470,0.08390
3203.64596,0.08488
3201.71721,0.08584
3199.78846,0.08641
3197.85972,0.08681
3195.93097,0.08754
3194.00223,0.08857
3192.07348,0.08943
3190.14474,0.08999
3188.21599,0.09059
3186.28725,0.09144
3184.35850,0.09248
3182.42976,0.09350
3180.50101,0.09436
3178.57227,0.09505
3176.64352,0.09565
3174.71478,0.09631
3172.78603,0.09716
3170.85729,0.09816
3168.92854,0.09920
3166.99979,0.10011
3165.07105,0.10065
3163.14230,0.10103
3161.21356,0.10182
3159.28481,0.10300
3157.35607,0.10413
3155.42732,0.10516
3153.49858,0.10614
3151.56983,0.10690
3149.64109,0.10744
3147.71234,0.10806
3145.78360,0.10885
3143.85485,0.10984
3141.92611,0.11104
3139.99736,0.11209
3138.06861,0.11279
3136.13987,0.11344
3134.21112,0.11431
3132.28238,0.11532
3130.35363,0.11634
3128.42489,0.11725
3126.49614,0.11793
3124.56740,0.11870
3122.63865,0.11987
3120.70991,0.12130
3118.78116,0.12268
3116.85242,0.12387
3114.92367,0.12487
3112.99493,0.12568
3111.06618,0.12636
3109.13744,0.12699
3107.20869,0.12764
3105.27994,0.12833
3103.35120,0.12920
3101.42245,0.13028
3099.49371,0.13131
3097.56496,0.13208
3095.63622,0.13276
3093.70747,0.13359
3091.77873,0.13445
3089.84998,0.13518
3087.92124,0.13598
3085.99249,0.13701
3084.06375,0.13807
3082.13500,0.13891
3080.20626,0.13949
3078.27751,0.13990
3076.34877,0.14042
3074.42002,0.14120
3072.49127,0.14201
3070.56253,0.14284
3068.63378,0.14384
3066.70504,0.14473
3064.77629,0.14535
3062.84755,0.14603
3060.91880,0.14695
3058.99006,0.14780
3057.06131,0.14833
3055.13257,0.14901
3053.20382,0.15008
3051.27508,0.15106
3049.34633,0.15156
3047.41759,0.15179
3045.48884,0.15208
3043.56009,0.15256
3041.63135,0.15317
3039.70260,0.15372
3037.77386,0.15423
3035.84511,0.15493
3033.91637,0.15567
3031.98762,0.15599
3030.05888,0.15591
3028.13013,0.15577
3026.20139,0.15572
3024.27264,0.15561
3022.34390,0.15526
3020.41515,0.15483
3018.48641,0.15442
3016.55766,0.15382
3014.62892,0.15304
3012.70017,0.15220
3010.77142,0.15121
3008.84268,0.15008
3006.91393,0.14902
3004.98519,0.14790
3003.05644,0.14660
3001.12770,0.14546
2999.19895,0.14456
2997.27021,0.14371
2995.34146,0.14276
2993.41272,0.14163
2991.48397,0.14029
2989.55523,0.13872
2987.62648,0.13690
2985.69774,0.13484
2983.76899,0.13257
2981.84025,0.13006
2979.91150,0.12730
2977.98275,0.12425
2976.05401,0.12107
2974.12526,0.11790
2972.19652,0.11471
2970.26777,0.11157
2968.33903,0.10903
2966.41028,0.10732
2964.48154,0.10578
2962.55279,0.10402
2960.62405,0.10243
2958.69530,0.10107
2956.76656,0.09973
2954.83781,0.09836
2952.90907,0.09688
2950.98032,0.09541
2949.05157,0.09410
2947.12283,0.09276
2945.19408,0.09131
2943.26534,0.08993
2941.33659,0.08882
2939.40785,0.08805
2937.47910,0.08763
2935.55036,0.08744
2933.62161,0.08732
2931.69287,0.08717
2929.76412,0.08698
2927.83538,0.08673
2925.90663,0.08655
2923.97789,0.08651
2922.04914,0.08639
2920.12040,0.08597
2918.19165,0.08546
2916.26290,0.08514
2914.33416,0.08511
2912.40541,0.08537
2910.47667,0.08572
2908.54792,0.08590
2906.61918,0.08588
2904.69043,0.08582
2902.76169,0.08594
2900.83294,0.08625
2898.90420,0.08668
2896.97545,0.08705
2895.04671,0.08718
2893.11796,0.08730
2891.18922,0.08770
2889.26047,0.08829
2887.33172,0.08882
2885.40298,0.08920
2883.47423,0.08959
2881.54549,0.09012
2879.61674,0.09065
2877.68800,0.09106
2875.75925,0.09144
2873.83051,0.09198
2871.90176,0.09289
2869.97302,0.09415
2868.04427,0.09545
2866.11553,0.09651
2864.18678,0.09743
2862.25804,0.09847
2860.32929,0.09958
2858.40055,0.10072
2856.47180,0.10209
2854.54305,0.10349
2852.61431,0.10466
2850.68556,0.10586
2848.75682,0.10740
2846.82807,0.10929
2844.89933,0.11138
2842.97058,0.11352
2841.04184,0.11565
2839.11309,0.11784
2837.18435,0.12005
2835.25560,0.12250
2833.32686,0.12534
2831.39811,0.12822
2829.46937,0.13095
2827.54062,0.13366
2825.61188,0.13635
2823.68313,0.13901
2821.75438,0.14162
2819.82564,0.14401
2817.89689,0.14619
2815.96815,0.14840
2814.03940,0.15062
2812.11066,0.15268
2810.18191,0.15453
2808.25317,0.15622
2806.32442,0.15796
2804.39568,0.15985
2802.46693,0.16167
2800.53819,0.16324
2798.60944,0.16459
2796.68070,0.16572
2794.75195,0.16668
2792.82320,0.16769
2790.89446,0.16875
2788.96571,0.16970
2787.03697,0.17052
2785.10822,0.17138
2783.17948,0.17229
2781.25073,0.17303
2779.32199,0.17364
2777.39324,0.17429
2775.46450,0.17493
2773.53575,0.17542
2771.60701,0.17576
2769.67826,0.17615
2767.74952,0.17668
2765.82077,0.17709
2763.89203,0.17729
2761.96328,0.17760
2760.03453,0.17810
2758.10579,0.17859
2756.17704,0.17897
2754.24830,0.17922
2752.31955,0.17938
2750.39081,0.17962
2748.46206,0.17990
2746.53332,0.18012
2744.60457,0.18024
2742.67583,0.18023
2740.74708,0.18027
2738.81834,0.18045
2736.88959,0.18076
2734.96085,0.18129
2733.03210,0.18189
2731.10336,0.18232
2729.17461,0.18264
2727.24586,0.18309
2725.31712,0.18367
2723.38837,0.18429
2721.45963,0.18509
2719.53088,0.18602
2717.60214,0.18689
2715.67339,0.18766
2713.74465,0.18842
2711.81590,0.18923
2709.88716,0.19015
2707.95841,0.19127
2706.02967,0.19251
2704.10092,0.19353
2702.17218,0.19432
2700.24343,0.19511
2698.31468,0.19590
2696.38594,0.19678
2694.45719,0.19785
2692.52845,0.19898
2690.59970,0.19997
2688.67096,0.20075
2686.74221,0.20152
2684.81347,0.20244
2682.88472,0.20345
2680.95598,0.20433
2679.02723,0.20510
2677.09849,0.20588
2675.16974,0.20660
2673.24100,0.20718
2671.31225,0.20779
2669.38351,0.20859
2667.45476,0.20940
2665.52601,0.21015
2663.59727,0.21089
2661.66852,0.21147
2659.73978,0.21198
2657.81103,0.21265
2655.88229,0.21324
2653.95354,0.21372
2652.02480,0.21429
2650.09605,0.21493
2648.16731,0.21558
2646.23856,0.21622
2644.30982,0.21687
2642.38107,0.21763
2640.45233,0.21849
2638.52358,0.21937
2636.59484,0.22022
2634.66609,0.22097
2632.73734,0.22169
2630.80860,0.22259
2628.87985,0.22356
2626.95111,0.22439
2625.02236,0.22510
2623.09362,0.22572
2621.16487,0.22621
2619.23613,0.22677
2617.30738,0.22745
2615.37864,0.22802
2613.44989,0.22854
2611.52115,0.22931
2609.59240,0.23012
2607.66366,0.23068
2605.73491,0.23128
2603.80616,0.23212
2601.87742,0.23288
2599.94867,0.23349
2598.01993,0.23407
2596.09118,0.23458
2594.16244,0.23498
2592.23369,0.23534
2590.30495,0.23582
2588.37620,0.23643
2586.44746,0.23698
2584.51871,0.23736
2582.58997,0.23771
2580.66122,0.23808
2578.73248,0.23844
2576.80373,0.23890
2574.87499,0.23933
2572.94624,0.23946
2571.01749,0.23942
2569.08875,0.23947
2567.16000,0.23964
2565.23126,0.23989
2563.30251,0.24012
2561.37377,0.24019
2559.44502,0.24020
2557.51628,0.24034
2555.58753,0.24060
2553.65879,0.24074
2551.73004,0.24078
2549.80130,0.24089
2547.87255,0.24102
2545.94381,0.24112
2544.01506,0.24123
2542.08631,0.24137
2540.15757,0.24160
2538.22882,0.24197
2536.30008,0.24242
2534.37133,0.24295
2532.44259,0.24356
2530.51384,0.24424
2528.58510,0.24507
2526.65635,0.24602
2524.72761,0.24682
2522.79886,0.24739
2520.87012,0.24788
2518.94137,0.24835
2517.01263,0.24884
2515.08388,0.24941
2513.15514,0.24995
2511.22639,0.25053
2509.29764,0.25137
2507.36890,0.25243
2505.44015,0.25352
2503.51141,0.25458
2501.58266,0.25566
2499.65392,0.25673
2497.72517,0.25764
2495.79643,0.25836
2493.86768,0.25924
2491.93894,0.26042
2490.01019,0.26154
2488.08145,0.26245
2486.15270,0.26335
2484.22396,0.26428
2482.29521,0.26518
2480.36647,0.26610
2478.43772,0.26702
2476.50897,0.26781
2474.58023,0.26844
2472.65148,0.26904
2470.72274,0.26980
2468.79399,0.27069
2466.86525,0.27151
2464.93650,0.27218
2463.00776,0.27282
2461.07901,0.27353
2459.15027,0.27444
2457.22152,0.27537
2455.29278,0.27615
2453.36403,0.27687
2451.43529,0.27766
2449.50654,0.27851
2447.57779,0.27941
2445.64905,0.28036
2443.72030,0.28139
2441.79156,0.28240
2439.86281,0.28329
2437.93407,0.28414
2436.00532,0.28502
2434.07658,0.28592
2432.14783,0.28694
2430.21909,0.28812
2428.29034,0.28925
2426.36160,0.29039
2424.43285,0.29168
2422.50411,0.29292
2420.57536,0.29398
2418.64662,0.29499
2416.71787,0.29608
2414.78912,0.29727
2412.86038,0.29859
2410.93163,0.29990
2409.00289,0.30094
2407.07414,0.30169
2405.14540,0.30237
2403.21665,0.30317
2401.28791,0.30417
2399.35916,0.30534
2397.43042,0.30645
2395.50167,0.30747
2393.57293,0.30848
2391.64418,0.30936
2389.71544,0.31005
2387.78669,0.31087
2385.85795,0.31188
2383.92920,0.31274
2382.00045,0.31348
2380.07171,0.31432
2378.14296,0.31524
2376.21422,0.31620
2374.28547,0.31711
2372.35673,0.31787
2370.42798,0.31871
2368.49924,0.31969
2366.57049,0.32047
2364.64175,0.32096
2362.71300,0.32139
2360.78426,0.32199
2358.85551,0.32269
2356.92677,0.32330
2354.99802,0.32380
2353.06927,0.32413
2351.14053,0.32432
2349.21178,0.32457
2347.28304,0.32504
2345.35429,0.32574
2343.42555,0.32654
2341.49680,0.32733
2339.56806,0.32781
2337.63931,0.32786
2335.71057,0.32791
2333.78182,0.32851
2331.85308,0.32923
2329.92433,0.32941
2327.99559,0.32930
2326.06684,0.32949
2324.13810,0.32995
2322.20935,0.33028
2320.28060,0.33029
2318.35186,0.33016
2316.42311,0.33009
2314.49437,0.33019
2312.56562,0.33035
2310.63688,0.33034
2308.70813,0.33007
2306.77939,0.32973
2304.85064,0.32950
2302.92190,0.32930
2300.99315,0.32898
2299.06441,0.32865
2297.13566,0.32840
2295.20692,0.32812
2293.27817,0.32780
2291.34943,0.32754
2289.42068,0.32732
2287.49193,0.32714
2285.56319,0.32699
2283.63444,0.32684
2281.70570,0.32673
2279.77695,0.32644
2277.84821,0.32581
2275.91946,0.32506
2273.99072,0.32436
2272.06197,0.32369
2270.13323,0.32299
2268.20448,0.32221
2266.27574,0.32143
2264.34699,0.32071
2262.41825,0.31992
2260.48950,0.31916
2258.56075,0.31865
2256.63201,0.31842
2254.70326,0.31826
2252.77452,0.31795
2250.84577,0.31744
2248.91703,0.31694
2246.98828,0.31655
2245.05954,0.31617
2243.13079,0.31588
2241.20205,0.31569
2239.27330,0.31541
2237.34456,0.31502
2235.41581,0.31457
2233.48707,0.31403
2231.55832,0.31349
2229.62958,0.31310
2227.70083,0.31296
2225.77208,0.31296
2223.84334,0.31293
2221.91459,0.31279
2219.98585,0.31270
2218.05710,0.31282
2216.12836,0.31293
2214.19961,0.31268
2212.27087,0.31213
2210.34212,0.31163
2208.41338,0.31126
2206.48463,0.31097
2204.55589,0.31058
2202.62714,0.30996
2200.69840,0.30911
2198.76965,0.30810
2196.84090,0.30713
2194.91216,0.30621
2192.98341,0.30526
2191.05467,0.30426
2189.12592,0.30306
2187.19718,0.30178
2185.26843,0.30071
2183.33969,0.29969
2181.41094,0.29847
2179.48220,0.29709
2177.55345,0.29566
2175.62471,0.29428
2173.69596,0.29304
2171.76722,0.29192
2169.83847,0.29085
2167.90973,0.28978
2165.98098,0.28869
2164.05223,0.28771
2162.12349,0.28700
2160.19474,0.28648
2158.26600,0.28592
2156.33725,0.28526
2154.40851,0.28461
2152.47976,0.28408
2150.55102,0.28364
2148.62227,0.28313
2146.69353,0.28250
2144.76478,0.28190
2142.83604,0.28137
2140.90729,0.28091
2138.97855,0.28057
2137.04980,0.28035
2135.12106,0.28021
2133.19231,0.28011
2131.26356,0.28014
2129.33482,0.28035
2127.40607,0.28059
2125.47733,0.28086
2123.54858,0.28128
2121.61984,0.28178
2119.69109,0.28216
2117.76235,0.28239
2115.83360,0.28274
2113.90486,0.28326
2111.97611,0.28369
2110.04737,0.28396
2108.11862,0.28428
2106.18988,0.28481
2104.26113,0.28543
2102.33238,0.28594
2100.40364,0.28617
2098.47489,0.28632
2096.54615,0.28668
2094.61740,0.28721
2092.68866,0.28774
2090.75991,0.28812
2088.83117,0.28815
2086.90242,0.28786
2084.97368,0.28750
2083.04493,0.28726
2081.11619,0.28710
2079.18744,0.28682
2077.25870,0.28629
2075.32995,0.28580
2073.40121,0.28554
2071.47246,0.28520
2069.54371,0.28461
2067.61497,0.28403
2065.68622,0.28363
2063.75748,0.28329
2061.82873,0.28298
2059.89999,0.28278
2057.97124,0.28263
2056.04250,0.28250
2054.11375,0.28251
2052.18501,0.28277
2050.25626,0.28314
2048.32752,0.28351
2046.39877,0.28392
2044.47003,0.28446
2042.54128,0.28530
2040.61254,0.28633
2038.68379,0.28726
2036.75504,0.28814
2034.82630,0.28919
2032.89755,0.29038
2030.96881,0.29158
2029.04006,0.29278
2027.11132,0.29405
2025.18257,0.29533
2023.25383,0.29655
2021.32508,0.29777
2019.39634,0.29905
2017.46759,0.30029
2015.53885,0.30144
2013.61010,0.30258
2011.68136,0.30368
2009.75261,0.30466
2007.82386,0.30553
2005.89512,0.30636
2003.96637,0.30724
2002.03763,0.30803
2000.10888,0.30863
1998.18014,0.30927
1996.25139,0.31008
1994.32265,0.31088
1992.39390,0.31163
1990.46516,0.31236
1988.53641,0.31310
1986.60767,0.31386
1984.67892,0.31464
1982.75018,0.31540
1980.82143,0.31608
1978.89269,0.31671
1976.96394,0.31739
1975.03519,0.31805
1973.10645,0.31856
1971.17770,0.31917
1969.24896,0.32002
1967.32021,0.32083
1965.39147,0.32153
1963.46272,0.32235
1961.53398,0.32336
1959.60523,0.32443
1957.67649,0.32548
1955.74774,0.32665
1953.81900,0.32794
1951.89025,0.32917
1949.96151,0.33034
1948.03276,0.33157
1946.10402,0.33275
1944.17527,0.33381
1942.24652,0.33488
1940.31778,0.33592
1938.38903,0.33676
1936.46029,0.33742
1934.53154,0.33807
1932.60280,0.33886
1930.67405,0.33978
1928.74531,0.34055
1926.81656,0.34101
1924.88782,0.34136
1922.95907,0.34170
1921.03033,0.34199
1919.10158,0.34239
1917.17284,0.34285
1915.24409,0.34313
1913.31534,0.34320
1911.38660,0.34316
1909.45785,0.34307
1907.52911,0.34301
1905.60036,0.34299
1903.67162,0.34292
1901.74287,0.34274
1899.81413,0.34255
1897.88538,0.34253
1895.95664,0.34253
1894.02789,0.34239
1892.09915,0.34222
1890.17040,0.34211
1888.24166,0.34193
1886.31291,0.34164
1884.38417,0.34142
1882.45542,0.34133
1880.52667,0.34122
1878.59793,0.34104
1876.66918,0.34092
1874.74044,0.34081
1872.81169,0.34068
1870.88295,0.34066
1868.95420,0.34064
1867.02546,0.34039
1865.09671,0.33996
1863.16797,0.33954
1861.23922,0.33922
1859.31048,0.33885
1857.38173,0.33838
1855.45299,0.33789
1853.52424,0.33728
1851.59549,0.33662
1849.66675,0.33616
1847.73800,0.33581
1845.80926,0.33521
1843.88051,0.33429
1841.95177,0.33327
1840.02302,0.33237
1838.09428,0.33160
1836.16553,0.33089
1834.23679,0.33008
1832.30804,0.32921
1830.37930,0.32835
1828.45055,0.32739
1826.52181,0.32629
1824.59306,0.32504
1822.66432,0.32366
1820.73557,0.32229
1818.80682,0.32087
1816.87808,0.31940
1814.94933,0.31791
1813.02059,0.31631
1811.09184,0.31455
1809.16310,0.31276
1807.23435,0.31098
1805.30561,0.30905
1803.37686,0.30688
1801.44812,0.30452
1799.51937,0.30203
1797.59063,0.29940
1795.66188,0.29672
1793.73314,0.29385
1791.80439,0.29035
1789.87565,0.28646
1787.94690,0.28254
1786.01815,0.27824
1784.08941,0.27335
1782.16066,0.26807
1780.23192,0.26216
1778.30317,0.25551
1776.37443,0.24848
1774.44568,0.24075
1772.51694,0.23131
1770.58819,0.22071
1768.65945,0.21015
1766.73070,0.19956
1764.80196,0.18943
1762.87321,0.17927
1760.94447,0.16875
1759.01572,0.15917
1757.08697,0.15028
1755.15823,0.14221
1753.22948,0.13566
1751.30074,0.12987
1749.37199,0.12472
1747.44325,0.12079
1745.51450,0.11787
1743.58576,0.11574
1741.65701,0.11434
1739.72827,0.11344
1737.79952,0.11306
1735.87078,0.11344
1733.94203,0.11459
1732.01329,0.11605
1730.08454,0.11763
1728.15580,0.11963
1726.22705,0.12190
1724.29830,0.12441
1722.36956,0.12727
1720.44081,0.13050
1718.51207,0.13446
1716.58332,0.13917
1714.65458,0.14359
1712.72583,0.14754
1710.79709,0.15144
1708.86834,0.15519
1706.93960,0.15846
1705.01085,0.16104
1703.08211,0.16292
1701.15336,0.16416
1699.22462,0.16454
1697.29587,0.16405
1695.36713,0.16296
1693.43838,0.16166
1691.50963,0.16013
1689.58089,0.15799
1687.65214,0.15548
1685.72340,0.15240
1683.79465,0.14782
1681.86591,0.14299
1679.93716,0.13888
1678.00842,0.13491
1676.07967,0.13045
1674.15093,0.12552
1672.22218,0.12124
1670.29344,0.11755
1668.36469,0.11406
1666.43595,0.11145
1664.50720,0.10968
1662.57845,0.10840
1660.64971,0.10771
1658.72096,0.10774
1656.79222,0.10837
1654.86347,0.10939
1652.93473,0.11048
1651.00598,0.11105
1649.07724,0.11139
1647.14849,0.11167
1645.21975,0.11161
1643.29100,0.11139
1641.36226,0.11112
1639.43351,0.11082
1637.50477,0.11075
1635.57602,0.11090
1633.64728,0.11090
1631.71853,0.11100
1629.78978,0.11138
1627.86104,0.11160
1625.93229,0.11144
1624.00355,0.11101
1622.07480,0.11047
1620.14606,0.11000
1618.21731,0.10937
1616.28857,0.10811
1614.35982,0.10633
1612.43108,0.10458
1610.50233,0.10298
1608.57359,0.10165
1606.64484,0.10072
1604.71610,0.10017
1602.78735,0.10007
1600.85861,0.10053
1598.92986,0.10119
1597.00111,0.10152
1595.07237,0.10158
1593.14362,0.10185
1591.21488,0.10270
1589.28613,0.10424
1587.35739,0.10645
1585.42864,0.10942
1583.49990,0.11323
1581.57115,0.11781
1579.64241,0.12289
1577.71366,0.12885
1575.78492,0.13623
1573.85617,0.14319
1571.92743,0.14902
1569.99868,0.15487
1568.06993,0.16037
1566.14119,0.16467
1564.21244,0.16803
1562.28370,0.17058
1560.35495,0.17279
1558.42621,0.17476
1556.49746,0.17561
1554.56872,0.17567
1552.63997,0.17516
1550.71123,0.17439
1548.78248,0.17378
1546.85374,0.17305
1544.92499,0.17172
1542.99625,0.16988
1541.06750,0.16739
1539.13876,0.16344
1537.21001,0.15924
1535.28126,0.15490
1533.35252,0.14875
1531.42377,0.14126
1529.49503,0.13369
1527.56628,0.12528
1525.63754,0.11582
1523.70879,0.10609
1521.78005,0.09547
1519.85130,0.08523
1517.92256,0.07762
1515.99381,0.07207
1514.06507,0.06832
1512.13632,0.06642
1510.20758,0.06601
1508.27883,0.06706
1506.35008,0.06972
1504.42134,0.07278
1502.49259,0.07564
1500.56385,0.07893
1498.63510,0.08283
1496.70636,0.08691
1494.77761,0.09030
1492.84887,0.09254
1490.92012,0.09381
1488.99138,0.09413
1487.06263,0.09360
1485.13389,0.09257
1483.20514,0.09114
1481.27640,0.08924
1479.34765,0.08695
1477.41891,0.08427
1475.49016,0.08101
1473.56141,0.07704
1471.63267,0.07288
1469.70392,0.06984
1467.77518,0.06797
1465.84643,0.06676
1463.91769,0.06611
1461.98894,0.06607
1460.06020,0.06635
1458.13145,0.06630
1456.20271,0.06558
1454.27396,0.06501
1452.34522,0.06497
1450.41647,0.06530
1448.48773,0.06605
1446.55898,0.06696
1444.63024,0.06749
1442.70149,0.06740
1440.77274,0.06673
1438.84400,0.06563
1436.91525,0.06409
1434.98651,0.06248
1433.05776,0.06141
1431.12902,0.06079
1429.20027,0.06042
1427.27153,0.06037
1425.34278,0.06068
1423.41404,0.06136
1421.48529,0.06236
1419.55655,0.06356
1417.62780,0.06474
1415.69906,0.06584
1413.77031,0.06701
1411.84156,0.06816
1409.91282,0.06911
1407.98407,0.06983
1406.05533,0.07029
1404.12658,0.07046
1402.19784,0.07048
1400.26909,0.07045
1398.34035,0.07018
1396.41160,0.06950
1394.48286,0.06857
1392.55411,0.06748
1390.62537,0.06625
1388.69662,0.06475
1386.76788,0.06296
1384.83913,0.06124
1382.91039,0.05983
1380.98164,0.05870
1379.05289,0.05792
1377.12415,0.05751
1375.19540,0.05737
1373.26666,0.05757
1371.33791,0.05812
1369.40917,0.05875
1367.48042,0.05942
1365.55168,0.06015
1363.62293,0.06089
1361.69419,0.06160
1359.76544,0.06225
1357.83670,0.06270
1355.90795,0.06304
1353.97921,0.06346
1352.05046,0.06387
1350.12172,0.06413
1348.19297,0.06416
1346.26422,0.06388
1344.33548,0.06338
1342.40673,0.06279
1340.47799,0.06219
1338.54924,0.06171
1336.62050,0.06140
1334.69175,0.06122
1332.76301,0.06107
1330.83426,0.06096
1328.90552,0.06090
1326.97677,0.06081
1325.04803,0.06061
1323.11928,0.06032
1321.19054,0.06003
1319.26179,0.05995
1317.33304,0.06024
1315.40430,0.06070
1313.47555,0.06114
1311.54681,0.06168
1309.61806,0.06236
1307.68932,0.06307
1305.76057,0.06362
1303.83183,0.06390
1301.90308,0.06389
1299.97434,0.06359
1298.04559,0.06300
1296.11685,0.06216
1294.18810,0.06114
1292.25936,0.06010
1290.33061,0.05901
1288.40187,0.05784
1286.47312,0.05663
1284.54437,0.05533
1282.61563,0.05428
1280.68688,0.05376
1278.75814,0.05331
1276.82939,0.05260
1274.90065,0.05203
1272.97190,0.05187
1271.04316,0.05192
1269.11441,0.05207
1267.18567,0.05237
1265.25692,0.05276
1263.32818,0.05312
1261.39943,0.05358
1259.47069,0.05432
1257.54194,0.05526
1255.61320,0.05598
1253.68445,0.05635
1251.75570,0.05655
1249.82696,0.05667
1247.89821,0.05671
1245.96947,0.05676
1244.04072,0.05667
1242.11198,0.05640
1240.18323,0.05615
1238.25449,0.05596
1236.32574,0.05575
1234.39700,0.05565
1232.46825,0.05580
1230.53951,0.05611
1228.61076,0.05641
1226.68202,0.05665
1224.75327,0.05686
1222.82452,0.05704
1220.89578,0.05717
1218.96703,0.05731
1217.03829,0.05742
1215.10954,0.05747
1213.18080,0.05751
1211.25205,0.05751
1209.32331,0.05749
1207.39456,0.05764
1205.46582,0.05800
1203.53707,0.05850
1201.60833,0.05902
1199.67958,0.05934
1197.75084,0.05938
1195.82209,0.05937
1193.89335,0.05936
1191.96460,0.05901
1190.03585,0.05808
1188.10711,0.05675
1186.17836,0.05527
1184.24962,0.05364
1182.32087,0.05181
1180.39213,0.04993
1178.46338,0.04826
1176.53464,0.04683
1174.60589,0.04569
1172.67715,0.04509
1170.74840,0.04494
1168.81966,0.04502
1166.89091,0.04556
1164.96217,0.04665
1163.03342,0.04799
1161.10467,0.04918
1159.17593,0.04983
1157.24718,0.04984
1155.31844,0.04959
1153.38969,0.04945
1151.46095,0.04923
1149.53220,0.04865
1147.60346,0.04782
1145.67471,0.04699
1143.74597,0.04625
1141.81722,0.04558
1139.88848,0.04494
1137.95973,0.04434
1136.03099,0.04365
1134.10224,0.04289
1132.17350,0.04241
1130.24475,0.04222
1128.31600,0.04222
1126.38726,0.04265
1124.45851,0.04332
1122.52977,0.04369
1120.60102,0.04394
1118.67228,0.04445
1116.74353,0.04501
1114.81479,0.04558
1112.88604,0.04641
1110.95730,0.04748
1109.02855,0.04850
1107.09981,0.04920
1105.17106,0.04949
1103.24232,0.04937
1101.31357,0.04903
1099.38483,0.04865
1097.45608,0.04829
1095.52733,0.04815
1093.59859,0.04821
1091.66984,0.04822
1089.74110,0.04829
1087.81235,0.04862
1085.88361,0.04914
1083.95486,0.04992
1082.02612,0.05108
1080.09737,0.05253
1078.16863,0.05400
1076.23988,0.05546
1074.31114,0.05706
1072.38239,0.05888
1070.45365,0.06090
1068.52490,0.06318
1066.59615,0.06575
1064.66741,0.06844
1062.73866,0.07108
1060.80992,0.07356
1058.88117,0.07553
1056.95243,0.07674
1055.02368,0.07720
1053.09494,0.07689
1051.16619,0.07606
1049.23745,0.07515
1047.30870,0.07422
1045.37996,0.07345
1043.45121,0.07326
1041.52247,0.07385
1039.59372,0.07524
1037.66498,0.07727
1035.73623,0.07953
1033.80748,0.08138
1031.87874,0.08252
1029.94999,0.08323
1028.02125,0.08394
1026.09250,0.08472
1024.16376,0.08548
1022.23501,0.08604
1020.30627,0.08640
1018.37752,0.08687
1016.44878,0.08748
1014.52003,0.08801
1012.59129,0.08854
1010.66254,0.08916
1008.73380,0.08955
1006.80505,0.08955
1004.87631,0.08973
1002.94756,0.09024
1001.01881,0.09069
999.09007,0.09115
997.16132,0.09191
995.23258,0.09289
993.30383,0.09412
991.37509,0.09575
989.44634,0.09767
987.51760,0.09987
985.58885,0.10233
983.66011,0.10465
981.73136,0.10660
979.80262,0.10856
977.87387,0.11054
975.94513,0.11195
974.01638,0.11266
972.08763,0.11308
970.15889,0.11354
968.23014,0.11398
966.30140,0.11445
964.37265,0.11540
962.44391,0.11700
960.51516,0.11887
958.58642,0.12067
956.65767,0.12229
954.72893,0.12370
952.80018,0.12516
950.87144,0.12660
948.94269,0.12774
947.01395,0.12872
945.08520,0.12966
943.15646,0.13043
941.22771,0.13113
939.29896,0.13212
937.37022,0.13310
935.44147,0.13363
933.51273,0.13411
931.58398,0.13491
929.65524,0.13581
927.72649,0.13666
925.79775,0.13726
923.86900,0.13726
921.94026,0.13667
920.01151,0.13588
918.08277,0.13498
916.15402,0.13371
914.22528,0.13200
912.29653,0.13001
910.36779,0.12775
908.43904,0.12514
906.51029,0.12238
904.58155,0.11983
902.65280,0.11769
900.72406,0.11598
898.79531,0.11493
896.86657,0.11491
894.93782,0.11604
893.00908,0.11793
891.08033,0.12001
889.15159,0.12179
887.22284,0.12312
885.29410,0.12410
883.36535,0.12496
881.43661,0.12591
879.50786,0.12688
877.57911,0.12747
875.65037,0.12763
873.72162,0.12770
871.79288,0.12782
869.86413,0.12806
867.93539,0.12864
866.00664,0.12947
864.07790,0.13023
862.14915,0.13095
860.22041,0.13181
858.29166,0.13293
856.36292,0.13423
854.43417,0.13536
852.50543,0.13634
850.57668,0.13764
848.64794,0.13921
846.71919,0.14039
844.79044,0.14091
842.86170,0.14109
840.93295,0.14086
839.00421,0.13998
837.07546,0.13868
835.14672,0.13714
833.21797,0.13558
831.28923,0.13429
829.36048,0.13305
827.43174,0.13162
825.50299,0.13018
823.57425,0.12866
821.64550,0.12650
819.71676,0.12390
817.78801,0.12172
815.85926,0.12003
813.93052,0.11856
812.00177,0.11776
810.07303,0.11773
808.14428,0.11803
806.21554,0.11851
804.28679,0.11944
802.35805,0.12074
800.42930,0.12200
798.50056,0.12284
796.57181,0.12317
794.64307,0.12335
792.71432,0.12349
790.78558,0.12349
788.85683,0.12338
786.92809,0.12294
784.99934,0.12210
783.07059,0.12123
781.14185,0.12045
779.21310,0.11968
777.28436,0.11875
775.35561,0.11770
773.42687,0.11682
771.49812,0.11610
769.56938,0.11540
767.64063,0.11473
765.71189,0.11388
763.78314,0.11306
761.85440,0.11289
759.92565,0.11305
757.99691,0.11283
756.06816,0.11221
754.13942,0.11139
752.21067,0.11056
750.28192,0.11000
748.35318,0.10956
746.42443,0.10882
744.49569,0.10778
742.56694,0.10690
740.63820,0.10607
738.70945,0.10497
736.78071,0.10402
734.85196,0.10342
732.92322,0.10282
730.99447,0.10202
729.06573,0.10095
727.13698,0.09986
725.20824,0.09884
723.27949,0.09783
721.35074,0.09708
719.42200,0.09673
717.49325,0.09651
715.56451,0.09621
713.63576,0.09571
711.70702,0.09480
709.77827,0.09367
707.84953,0.09298
705.92078,0.09263
703.99204,0.09242
702.06329,0.09240
700.13455,0.09206
698.20580,0.09124
696.27706,0.09071
694.34831,0.09045
692.41957,0.08985
690.49082,0.08910
688.56207,0.08844
686.63333,0.08792
684.70458,0.08747
682.77584,0.08667
680.84709,0.08528
678.91835,0.08352
676.98960,0.08180
675.06086,0.08079
673.13211,0.08068
671.20337,0.08095
669.27462,0.08158
667.34588,0.08239
665.41713,0.08246
663.48839,0.08216
661.55964,0.08212
659.63090,0.08209
657.70215,0.08191
655.77340,0.08170
653.84466,0.08170
651.91591,0.08179
649.98717,0.08165
648.05842,0.08167
646.12968,0.08176
644.20093,0.08135
642.27219,0.08068
640.34344,0.07976
638.41470,0.07833
636.48595,0.07691
634.55721,0.07594
632.62846,0.07524
630.69972,0.07494
628.77097,0.07553
626.84222,0.07647
624.91348,0.07665
622.98473,0.07616
621.05599,0.07567
619.12724,0.07561
617.19850,0.07595
615.26975,0.07637
613.34101,0.07700
611.41226,0.07849
609.48352,0.08061
607.55477,0.08180
605.62603,0.08217
603.69728,0.08260
601.76854,0.08199
599.83979,0.08039
