4497.78948,-0.00646
4495.86076,-0.00649
4493.93203,-0.00633
4492.00330,-0.00622
4490.07458,-0.00617
4488.14585,-0.00607
4486.21712,-0.00603
4484.28840,-0.00610
4482.35967,-0.00604
4480.43095,-0.00583
4478.50222,-0.00577
4476.57349,-0.00593
4474.64477,-0.00613
4472.71604,-0.00621
4470.78732,-0.00617
4468.85859,-0.00619
4466.92986,-0.00628
4465.00114,-0.00620
4463.07241,-0.00598
4461.14368,-0.00590
4459.21496,-0.00594
4457.28623,-0.00592
4455.35751,-0.00586
4453.42878,-0.00585
4451.50005,-0.00586
4449.57133,-0.00599
4447.64260,-0.00619
4445.71387,-0.00620
4443.78515,-0.00600
4441.85642,-0.00584
4439.92770,-0.00579
4437.99897,-0.00574
4436.07024,-0.00575
4434.14152,-0.00593
4432.21279,-0.00608
4430.28407,-0.00603
4428.35534,-0.00587
4426.42661,-0.00577
4424.49789,-0.00581
4422.56916,-0.00594
4420.64043,-0.00602
4418.71171,-0.00598
4416.78298,-0.00589
4414.85426,-0.00580
4412.92553,-0.00571
4410.99680,-0.00563
4409.06808,-0.00555
4407.13935,-0.00551
4405.21062,-0.00558
4403.28190,-0.00573
4401.35317,-0.00585
4399.42445,-0.00580
4397.49572,-0.00566
4395.56699,-0.00556
4393.63827,-0.00552
4391.70954,-0.00550
4389.78082,-0.00551
4387.85209,-0.00560
4385.92336,-0.00562
4383.99464,-0.00560
4382.06591,-0.00566
4380.13718,-0.00568
4378.20846,-0.00565
4376.27973,-0.00569
4374.35101,-0.00580
4372.42228,-0.00584
4370.49355,-0.00583
4368.56483,-0.00583
4366.63610,-0.00580
4364.70737,-0.00570
4362.77865,-0.00559
4360.84992,-0.00555
4358.92120,-0.00558
4356.99247,-0.00558
4355.06374,-0.00549
4353.13502,-0.00545
4351.20629,-0.00547
4349.27757,-0.00548
4347.34884,-0.00558
4345.42011,-0.00577
4343.49139,-0.00582
4341.56266,-0.00566
4339.63393,-0.00549
4337.70521,-0.00542
4335.77648,-0.00533
4333.84776,-0.00523
4331.91903,-0.00525
4329.99030,-0.00535
4328.06158,-0.00538
4326.13285,-0.00536
4324.20412,-0.00534
4322.27540,-0.00535
4320.34667,-0.00537
4318.41795,-0.00539
4316.48922,-0.00543
4314.56049,-0.00548
4312.63177,-0.00542
4310.70304,-0.00523
4308.77432,-0.00510
4306.84559,-0.00514
4304.91686,-0.00525
4302.98814,-0.00533
4301.05941,-0.00534
4299.13068,-0.00531
4297.20196,-0.00528
4295.27323,-0.00526
4293.34451,-0.00526
4291.41578,-0.00526
4289.48705,-0.00528
4287.55833,-0.00530
4285.62960,-0.00533
4283.70087,-0.00537
4281.77215,-0.00536
4279.84342,-0.00537
4277.91470,-0.00544
4275.98597,-0.00546
4274.05724,-0.00533
4272.12852,-0.00514
4270.19979,-0.00509
4268.27107,-0.00518
4266.34234,-0.00526
4264.41361,-0.00530
4262.48489,-0.00530
4260.55616,-0.00525
4258.62743,-0.00522
4256.69871,-0.00519
4254.76998,-0.00514
4252.84126,-0.00513
4250.91253,-0.00523
4248.98380,-0.00544
4247.05508,-0.00563
4245.12635,-0.00563
4243.19762,-0.00545
4241.26890,-0.00520
4239.34017,-0.00506
4237.41145,-0.00510
4235.48272,-0.00518
4233.55399,-0.00520
4231.62527,-0.00516
4229.69654,-0.00511
4227.76782,-0.00508
4225.83909,-0.00511
4223.91036,-0.00511
4221.98164,-0.00508
4220.05291,-0.00511
4218.12418,-0.00522
4216.19546,-0.00530
4214.26673,-0.00525
4212.33801,-0.00516
4210.40928,-0.00513
4208.48055,-0.00511
4206.55183,-0.00506
4204.62310,-0.00499
4202.69437,-0.00495
4200.76565,-0.00497
4198.83692,-0.00499
4196.90820,-0.00495
4194.97947,-0.00485
4193.05074,-0.00481
4191.12202,-0.00491
4189.19329,-0.00505
4187.26456,-0.00518
4185.33584,-0.00525
4183.40711,-0.00514
4181.47839,-0.00496
4179.54966,-0.00496
4177.62093,-0.00508
4175.69221,-0.00508
4173.76348,-0.00496
4171.83476,-0.00490
4169.90603,-0.00494
4167.97730,-0.00493
4166.04858,-0.00483
4164.11985,-0.00478
4162.19112,-0.00482
4160.26240,-0.00483
4158.33367,-0.00477
4156.40495,-0.00475
4154.47622,-0.00479
4152.54749,-0.00482
4150.61877,-0.00481
4148.69004,-0.00483
4146.76131,-0.00494
4144.83259,-0.00501
4142.90386,-0.00496
4140.97514,-0.00487
4139.04641,-0.00481
4137.11768,-0.00472
4135.18896,-0.00459
4133.26023,-0.00457
4131.33151,-0.00471
4129.40278,-0.00486
4127.47405,-0.00487
4125.54533,-0.00478
4123.61660,-0.00470
4121.68787,-0.00472
4119.75915,-0.00472
4117.83042,-0.00465
4115.90170,-0.00464
4113.97297,-0.00470
4112.04424,-0.00479
4110.11552,-0.00486
4108.18679,-0.00478
4106.25806,-0.00459
4104.32934,-0.00457
4102.40061,-0.00470
4100.47189,-0.00471
4098.54316,-0.00460
4096.61443,-0.00458
4094.68571,-0.00473
4092.75698,-0.00488
4090.82826,-0.00477
4088.89953,-0.00453
4086.97080,-0.00440
4085.04208,-0.00435
4083.11335,-0.00428
4081.18462,-0.00428
4079.25590,-0.00447
4077.32717,-0.00469
4075.39845,-0.00472
4073.46972,-0.00461
4071.54099,-0.00453
4069.61227,-0.00455
4067.68354,-0.00463
4065.75481,-0.00464
4063.82609,-0.00457
4061.89736,-0.00450
4059.96864,-0.00453
4058.03991,-0.00462
4056.11118,-0.00463
4054.18246,-0.00459
4052.25373,-0.00463
4050.32501,-0.00467
4048.39628,-0.00455
4046.46755,-0.00423
4044.53883,-0.00403
4042.61010,-0.00417
4040.68137,-0.00439
4038.75265,-0.00448
4036.82392,-0.00445
4034.89520,-0.00440
4032.96647,-0.00446
4031.03774,-0.00460
4029.10902,-0.00456
4027.18029,-0.00424
4025.25156,-0.00399
4023.32284,-0.00400
4021.39411,-0.00405
4019.46539,-0.00402
4017.53666,-0.00400
4015.60793,-0.00406
4013.67921,-0.00416
4011.75048,-0.00415
4009.82176,-0.00404
4007.89303,-0.00405
4005.96430,-0.00423
4004.03558,-0.00440
4002.10685,-0.00447
4000.17812,-0.00441
3998.24940,-0.00419
3996.32067,-0.00396
3994.39195,-0.00384
3992.46322,-0.00373
3990.53449,-0.00376
3988.60577,-0.00406
3986.67704,-0.00422
3984.74831,-0.00400
3982.81959,-0.00377
3980.89086,-0.00377
3978.96214,-0.00373
3977.03341,-0.00338
3975.10468,-0.00308
3973.17596,-0.00319
3971.24723,-0.00340
3969.31851,-0.00362
3967.38978,-0.00389
3965.46105,-0.00384
3963.53233,-0.00334
3961.60360,-0.00301
3959.67487,-0.00310
3957.74615,-0.00322
3955.81742,-0.00329
3953.88870,-0.00329
3951.95997,-0.00283
3950.03124,-0.00204
3948.10252,-0.00186
3946.17379,-0.00212
3944.24506,-0.00212
3942.31634,-0.00237
3940.38761,-0.00304
3938.45889,-0.00348
3936.53016,-0.00334
3934.60143,-0.00245
3932.67271,-0.00133
3930.74398,-0.00139
3928.81526,-0.00211
3926.88653,-0.00190
3924.95780,-0.00115
3923.02908,-0.00129
3921.10035,-0.00166
3919.17162,-0.00138
3917.24290,-0.00145
3915.31417,-0.00247
3913.38545,-0.00344
3911.45672,-0.00379
3909.52799,-0.00345
3907.59927,-0.00222
3905.67054,0.00003
3903.74181,0.00201
3901.81309,0.00215
3899.88436,0.00091
3897.95564,-0.00079
3896.02691,-0.00153
3894.09818,-0.00104
3892.16946,-0.00053
3890.24073,-0.00118
3888.31201,-0.00144
3886.38328,-0.00057
3884.45455,0.00036
3882.52583,0.00022
3880.59710,-0.00087
3878.66837,-0.00201
3876.73965,-0.00215
3874.81092,-0.00120
3872.88220,0.00037
3870.95347,0.00136
3869.02474,0.00096
3867.09602,0.00069
3865.16729,0.00135
3863.23856,0.00111
3861.30984,-0.00028
3859.38111,-0.00082
3857.45239,-0.00012
3855.52366,0.00138
3853.59493,0.00240
3851.66621,0.00113
3849.73748,-0.00050
3847.80876,-0.00146
3845.88003,-0.00138
3843.95130,-0.00022
3842.02258,0.00157
3840.09385,0.00327
3838.16512,0.00299
3836.23640,0.00104
3834.30767,-0.00041
3832.37895,-0.00125
3830.45022,-0.00145
3828.52149,-0.00100
3826.59277,-0.00041
3824.66404,-0.00006
3822.73531,0.00050
3820.80659,0.00131
3818.87786,0.00116
3816.94914,0.00008
3815.02041,-0.00154
3813.09168,-0.00258
3811.16296,-0.00277
3809.23423,-0.00220
3807.30550,-0.00117
3805.37678,-0.00045
3803.44805,0.00027
3801.51933,0.00100
3799.59060,0.00069
3797.66187,-0.00039
3795.73315,-0.00190
3793.80442,-0.00297
3791.87570,-0.00334
3789.94697,-0.00318
3788.01824,-0.00251
3786.08952,-0.00182
3784.16079,-0.00188
3782.23206,-0.00210
3780.30334,-0.00199
3778.37461,-0.00239
3776.44589,-0.00312
3774.51716,-0.00323
3772.58843,-0.00251
3770.65971,-0.00138
3768.73098,-0.00076
3766.80225,-0.00085
3764.87353,-0.00133
3762.94480,-0.00157
3761.01608,-0.00088
3759.08735,0.00022
3757.15862,0.00051
3755.22990,0.00085
3753.30117,0.00246
3751.37245,0.00521
3749.44372,0.00555
3747.51499,0.00480
3745.58627,0.00399
3743.65754,0.00267
3741.72881,0.00203
3739.80009,0.00225
3737.87136,0.00332
3735.94264,0.00448
3734.01391,0.00311
3732.08518,0.00080
3730.15646,-0.00012
3728.22773,0.00034
3726.29900,0.00142
3724.37028,0.00163
3722.44155,0.00062
3720.51283,-0.00060
3718.58410,-0.00126
3716.65537,-0.00113
3714.72665,-0.00024
3712.79792,0.00134
3710.86920,0.00161
3708.94047,-0.00022
3707.01174,-0.00149
3705.08302,-0.00186
3703.15429,-0.00168
3701.22556,-0.00177
3699.29684,-0.00222
3697.36811,-0.00223
3695.43939,-0.00168
3693.51066,-0.00065
3691.58193,0.00113
3689.65321,0.00205
3687.72448,0.00017
3685.79575,-0.00146
3683.86703,-0.00211
3681.93830,-0.00184
3680.00958,-0.00057
3678.08085,0.00125
3676.15212,0.00221
3674.22340,0.00161
3672.29467,0.00173
3670.36595,0.00164
3668.43722,-0.00038
3666.50849,-0.00204
3664.57977,-0.00272
3662.65104,-0.00274
3660.72231,-0.00237
3658.79359,-0.00173
3656.86486,-0.00100
3654.93614,-0.00057
3653.00741,0.00012
3651.07868,0.00249
3649.14996,0.00506
3647.22123,0.00219
3645.29250,-0.00011
3643.36378,-0.00104
3641.43505,-0.00156
3639.50633,-0.00194
3637.57760,-0.00196
3635.64887,-0.00153
3633.72015,-0.00074
3631.79142,0.00038
3629.86270,0.00173
3627.93397,0.00120
3626.00524,-0.00044
3624.07652,-0.00106
3622.14779,-0.00035
3620.21906,0.00130
3618.29034,0.00205
3616.36161,0.00195
3614.43289,0.00200
3612.50416,0.00176
3610.57543,0.00153
3608.64671,0.00110
3606.71798,-0.00021
3604.78925,-0.00115
3602.86053,-0.00099
3600.93180,-0.00022
3599.00308,0.00020
3597.07435,0.00018
3595.14562,-0.00014
3593.21690,-0.00070
3591.28817,-0.00054
3589.35945,0.00099
3587.43072,0.00208
3585.50199,0.00060
3583.57327,-0.00082
3581.64454,-0.00129
3579.71581,-0.00132
3577.78709,-0.00138
3575.85836,-0.00155
3573.92964,-0.00164
3572.00091,-0.00128
3570.07218,0.00006
3568.14346,0.00247
3566.21473,0.00312
3564.28600,0.00133
3562.35728,-0.00009
3560.42855,-0.00090
3558.49983,-0.00145
3556.57110,-0.00150
3554.64237,-0.00097
3552.71365,-0.00057
3550.78492,-0.00066
3548.85620,-0.00021
3546.92747,0.00093
3544.99874,0.00097
3543.07002,-0.00051
3541.14129,-0.00175
3539.21256,-0.00191
3537.28384,-0.00151
3535.35511,-0.00148
3533.42639,-0.00156
3531.49766,-0.00102
3529.56893,-0.00001
3527.64021,0.00082
3525.71148,0.00117
3523.78275,0.00073
3521.85403,-0.00043
3519.92530,-0.00134
3517.99658,-0.00175
3516.06785,-0.00202
3514.13912,-0.00192
3512.21040,-0.00129
3510.28167,-0.00084
3508.35295,-0.00104
3506.42422,-0.00090
3504.49549,0.00002
3502.56677,0.00037
3500.63804,-0.00046
3498.70931,-0.00118
3496.78059,-0.00142
3494.85186,-0.00164
3492.92314,-0.00183
3490.99441,-0.00164
3489.06568,-0.00127
3487.13696,-0.00119
3485.20823,-0.00122
3483.27950,-0.00091
3481.35078,-0.00076
3479.42205,-0.00123
3477.49333,-0.00162
3475.56460,-0.00163
3473.63587,-0.00173
3471.70715,-0.00196
3469.77842,-0.00199
3467.84970,-0.00180
3465.92097,-0.00158
3463.99224,-0.00131
3462.06352,-0.00114
3460.13479,-0.00125
3458.20606,-0.00140
3456.27734,-0.00155
3454.34861,-0.00175
3452.41989,-0.00183
3450.49116,-0.00150
3448.56243,-0.00081
3446.63371,-0.00045
3444.70498,-0.00063
3442.77625,-0.00087
3440.84753,-0.00110
3438.91880,-0.00136
3436.99008,-0.00153
3435.06135,-0.00154
3433.13262,-0.00142
3431.20390,-0.00134
3429.27517,-0.00139
3427.34644,-0.00141
3425.41772,-0.00122
3423.48899,-0.00076
3421.56027,-0.00041
3419.63154,-0.00063
3417.70281,-0.00110
3415.77409,-0.00132
3413.84536,-0.00129
3411.91664,-0.00126
3409.98791,-0.00126
3408.05918,-0.00126
3406.13046,-0.00118
3404.20173,-0.00105
3402.27300,-0.00095
3400.34428,-0.00085
3398.41555,-0.00071
3396.48683,-0.00061
3394.55810,-0.00051
3392.62937,-0.00048
3390.70065,-0.00071
3388.77192,-0.00090
3386.84319,-0.00078
3384.91447,-0.00062
3382.98574,-0.00068
3381.05702,-0.00078
3379.12829,-0.00079
3377.19956,-0.00082
3375.27084,-0.00092
3373.34211,-0.00094
3371.41339,-0.00080
3369.48466,-0.00054
3367.55593,-0.00035
3365.62721,-0.00031
3363.69848,-0.00028
3361.76975,-0.00020
3359.84103,-0.00019
3357.91230,-0.00022
3355.98358,-0.00029
3354.05485,-0.00044
3352.12612,-0.00059
3350.19740,-0.00069
3348.26867,-0.00072
3346.33994,-0.00068
3344.41122,-0.00058
3342.48249,-0.00043
3340.55377,-0.00026
3338.62504,-0.00004
3336.69631,0.00010
3334.76759,-0.00001
3332.83886,-0.00023
3330.91014,-0.00031
3328.98141,-0.00024
3327.05268,-0.00019
3325.12396,-0.00026
3323.19523,-0.00038
3321.26650,-0.00045
3319.33778,-0.00049
3317.40905,-0.00050
3315.48033,-0.00044
3313.55160,-0.00032
3311.62287,-0.00017
3309.69415,-0.00005
3307.76542,-0.00008
3305.83669,-0.00021
3303.90797,-0.00025
3301.97924,-0.00024
3300.05052,-0.00025
3298.12179,-0.00025
3296.19306,-0.00021
3294.26434,-0.00015
3292.33561,-0.00006
3290.40689,-0.00002
3288.47816,-0.00004
3286.54943,-0.00008
3284.62071,-0.00006
3282.69198,-0.00005
3280.76325,-0.00011
3278.83453,-0.00009
3276.90580,0.00004
3274.97708,0.00011
3273.04835,-0.00000
3271.11962,-0.00016
3269.19090,-0.00021
3267.26217,-0.00015
3265.33344,-0.00009
3263.40472,-0.00010
3261.47599,-0.00016
3259.54727,-0.00019
3257.61854,-0.00009
3255.68981,0.00002
3253.76109,-0.00006
3251.83236,-0.00029
3249.90364,-0.00042
3247.97491,-0.00028
3246.04618,-0.00006
3244.11746,-0.00005
3242.18873,-0.00017
3240.26000,-0.00028
3238.33128,-0.00032
3236.40255,-0.00028
3234.47383,-0.00022
3232.54510,-0.00015
3230.61637,-0.00009
3228.68765,-0.00017
3226.75892,-0.00037
3224.83019,-0.00047
3222.90147,-0.00039
3220.97274,-0.00026
3219.04402,-0.00027
3217.11529,-0.00032
3215.18656,-0.00029
3213.25784,-0.00030
3211.32911,-0.00034
3209.40039,-0.00041
3207.47166,-0.00049
3205.54293,-0.00051
3203.61421,-0.00045
3201.68548,-0.00036
3199.75675,-0.00028
3197.82803,-0.00027
3195.89930,-0.00038
3193.97058,-0.00051
3192.04185,-0.00058
3190.11312,-0.00061
3188.18440,-0.00056
3186.25567,-0.00043
3184.32694,-0.00040
3182.39822,-0.00047
3180.46949,-0.00045
3178.54077,-0.00041
3176.61204,-0.00050
3174.68331,-0.00056
3172.75459,-0.00055
3170.82586,-0.00058
3168.89714,-0.00066
3166.96841,-0.00072
3165.03968,-0.00074
3163.11096,-0.00076
3161.18223,-0.00078
3159.25350,-0.00076
3157.32478,-0.00071
3155.39605,-0.00067
3153.46733,-0.00065
3151.53860,-0.00061
3149.60987,-0.00060
3147.68115,-0.00066
3145.75242,-0.00074
3143.82369,-0.00075
3141.89497,-0.00075
3139.96624,-0.00075
3138.03752,-0.00071
3136.10879,-0.00065
3134.18006,-0.00060
3132.25134,-0.00061
3130.32261,-0.00064
3128.39389,-0.00061
3126.46516,-0.00059
3124.53643,-0.00057
3122.60771,-0.00050
3120.67898,-0.00039
3118.75025,-0.00033
3116.82153,-0.00034
3114.89280,-0.00044
3112.96408,-0.00054
3111.03535,-0.00060
3109.10662,-0.00066
3107.17790,-0.00072
3105.24917,-0.00068
3103.32044,-0.00052
3101.39172,-0.00040
3099.46299,-0.00045
3097.53427,-0.00054
3095.60554,-0.00063
3093.67681,-0.00073
3091.74809,-0.00078
3089.81936,-0.00077
3087.89063,-0.00078
3085.96191,-0.00077
3084.03318,-0.00062
3082.10446,-0.00046
3080.17573,-0.00046
3078.24700,-0.00061
3076.31828,-0.00076
3074.38955,-0.00082
3072.46083,-0.00081
3070.53210,-0.00075
3068.60337,-0.00064
3066.67465,-0.00052
3064.74592,-0.00053
3062.81719,-0.00067
3060.88847,-0.00078
3058.95974,-0.00073
3057.03102,-0.00063
3055.10229,-0.00065
3053.17356,-0.00076
3051.24484,-0.00078
3049.31611,-0.00073
3047.38738,-0.00074
3045.45866,-0.00079
3043.52993,-0.00079
3041.60121,-0.00079
3039.67248,-0.00084
3037.74375,-0.00083
3035.81503,-0.00064
3033.88630,-0.00039
3031.95758,-0.00033
3030.02885,-0.00049
3028.10012,-0.00070
3026.17140,-0.00080
3024.24267,-0.00080
3022.31394,-0.00079
3020.38522,-0.00091
3018.45649,-0.00105
3016.52777,-0.00102
3014.59904,-0.00080
3012.67031,-0.00060
3010.74159,-0.00058
3008.81286,-0.00068
3006.88413,-0.00073
3004.95541,-0.00071
3003.02668,-0.00076
3001.09796,-0.00084
2999.16923,-0.00085
2997.24050,-0.00078
2995.31178,-0.00070
2993.38305,-0.00068
2991.45433,-0.00072
2989.52560,-0.00073
2987.59687,-0.00073
2985.66815,-0.00072
2983.73942,-0.00067
2981.81069,-0.00059
2979.88197,-0.00052
2977.95324,-0.00045
2976.02452,-0.00032
2974.09579,-0.00014
2972.16706,0.00005
2970.23834,0.00024
2968.30961,0.00047
2966.38088,0.00071
2964.45216,0.00089
2962.52343,0.00094
2960.59471,0.00087
2958.66598,0.00075
2956.73725,0.00062
2954.80853,0.00048
2952.87980,0.00034
2950.95108,0.00022
2949.02235,0.00016
2947.09362,0.00018
2945.16490,0.00019
2943.23617,0.00018
2941.30744,0.00022
2939.37872,0.00027
2937.44999,0.00034
2935.52127,0.00045
2933.59254,0.00056
2931.66381,0.00064
2929.73509,0.00070
2927.80636,0.00076
2925.87763,0.00087
2923.94891,0.00098
2922.02018,0.00104
2920.09146,0.00107
2918.16273,0.00108
2916.23400,0.00109
2914.30528,0.00108
2912.37655,0.00105
2910.44783,0.00096
2908.51910,0.00085
2906.59037,0.00079
2904.66165,0.00080
2902.73292,0.00082
2900.80419,0.00085
2898.87547,0.00081
2896.94674,0.00071
2895.01802,0.00066
2893.08929,0.00066
2891.16056,0.00064
2889.23184,0.00058
2887.30311,0.00052
2885.37438,0.00049
2883.44566,0.00045
2881.51693,0.00045
2879.58821,0.00048
2877.65948,0.00050
2875.73075,0.00052
2873.80203,0.00054
2871.87330,0.00054
2869.94458,0.00057
2868.01585,0.00060
2866.08712,0.00059
2864.15840,0.00056
2862.22967,0.00056
2860.30094,0.00062
2858.37222,0.00071
2856.44349,0.00078
2854.51477,0.00086
2852.58604,0.00093
2850.65731,0.00096
2848.72859,0.00092
2846.79986,0.00084
2844.87113,0.00073
2842.94241,0.00061
2841.01368,0.00047
2839.08496,0.00039
2837.15623,0.00037
2835.22750,0.00032
2833.29878,0.00023
2831.37005,0.00015
2829.44133,0.00012
2827.51260,0.00010
2825.58387,0.00006
2823.65515,-0.00001
2821.72642,-0.00005
2819.79769,-0.00004
2817.86897,-0.00002
2815.94024,0.00001
2814.01152,0.00004
2812.08279,0.00005
2810.15406,0.00001
2808.22534,-0.00004
2806.29661,-0.00010
2804.36788,-0.00015
2802.43916,-0.00017
2800.51043,-0.00014
2798.58171,-0.00010
2796.65298,-0.00009
2794.72425,-0.00008
2792.79553,-0.00006
2790.86680,-0.00004
2788.93808,-0.00004
2787.00935,-0.00004
2785.08062,-0.00002
2783.15190,0.00001
2781.22317,0.00003
2779.29444,0.00004
2777.36572,0.00003
2775.43699,0.00001
2773.50827,-0.00001
2771.57954,-0.00002
2769.65081,-0.00002
2767.72209,-0.00003
2765.79336,-0.00005
2763.86463,-0.00005
2761.93591,-0.00006
2760.00718,-0.00007
2758.07846,-0.00006
2756.14973,-0.00004
2754.22100,-0.00003
2752.29228,-0.00004
2750.36355,-0.00002
2748.43483,0.00002
2746.50610,0.00006
2744.57737,0.00008
2742.64865,0.00008
2740.71992,0.00004
2738.79119,-0.00003
2736.86247,-0.00008
2734.93374,-0.00009
2733.00502,-0.00006
2731.07629,-0.00001
2729.14756,0.00001
2727.21884,-0.00001
2725.29011,-0.00002
2723.36138,-0.00001
2721.43266,0.00002
2719.50393,0.00003
2717.57521,0.00002
2715.64648,0.00001
2713.71775,0.00001
2711.78903,0.00003
2709.86030,0.00005
2707.93157,0.00005
2706.00285,0.00005
2704.07412,0.00007
2702.14540,0.00007
2700.21667,0.00009
2698.28794,0.00012
2696.35922,0.00011
2694.43049,0.00008
2692.50177,0.00009
2690.57304,0.00010
2688.64431,0.00007
2686.71559,0.00007
2684.78686,0.00009
2682.85813,0.00009
2680.92941,0.00008
2679.00068,0.00009
2677.07196,0.00010
2675.14323,0.00006
2673.21450,0.00003
2671.28578,0.00004
2669.35705,0.00008
2667.42832,0.00011
2665.49960,0.00013
2663.57087,0.00014
2661.64215,0.00011
2659.71342,0.00008
2657.78469,0.00006
2655.85597,0.00006
2653.92724,0.00007
2651.99852,0.00008
2650.06979,0.00006
2648.14106,-0.00002
2646.21234,-0.00010
2644.28361,-0.00014
2642.35488,-0.00011
2640.42616,-0.00006
2638.49743,-0.00004
2636.56871,-0.00009
2634.63998,-0.00020
2632.71125,-0.00029
2630.78253,-0.00029
2628.85380,-0.00022
2626.92507,-0.00014
2624.99635,-0.00011
2623.06762,-0.00015
2621.13890,-0.00023
2619.21017,-0.00028
2617.28144,-0.00028
2615.35272,-0.00026
2613.42399,-0.00025
2611.49527,-0.00025
2609.56654,-0.00024
2607.63781,-0.00023
2605.70909,-0.00022
2603.78036,-0.00022
2601.85163,-0.00023
2599.92291,-0.00024
2597.99418,-0.00022
2596.06546,-0.00013
2594.13673,-0.00007
2592.20800,-0.00009
2590.27928,-0.00011
2588.35055,-0.00014
2586.42182,-0.00015
2584.49310,-0.00012
2582.56437,-0.00011
2580.63565,-0.00015
2578.70692,-0.00020
2576.77819,-0.00020
2574.84947,-0.00015
2572.92074,-0.00012
2570.99202,-0.00013
2569.06329,-0.00016
2567.13456,-0.00018
2565.20584,-0.00019
2563.27711,-0.00021
2561.34838,-0.00022
2559.41966,-0.00019
2557.49093,-0.00013
2555.56221,-0.00015
2553.63348,-0.00020
2551.70475,-0.00020
2549.77603,-0.00020
2547.84730,-0.00021
2545.91857,-0.00018
2543.98985,-0.00013
2542.06112,-0.00013
2540.13240,-0.00011
2538.20367,-0.00001
2536.27494,0.00008
2534.34622,0.00008
2532.41749,-0.00001
2530.48877,-0.00010
2528.56004,-0.00010
2526.63131,-0.00004
2524.70259,-0.00001
2522.77386,-0.00006
2520.84513,-0.00008
2518.91641,-0.00002
2516.98768,0.00003
2515.05896,-0.00003
2513.13023,-0.00013
2511.20150,-0.00017
2509.27278,-0.00014
2507.34405,-0.00007
2505.41532,0.00000
2503.48660,0.00001
2501.55787,-0.00009
2499.62915,-0.00019
2497.70042,-0.00015
2495.77169,-0.00005
2493.84297,-0.00002
2491.91424,-0.00006
2489.98552,-0.00007
2488.05679,-0.00008
2486.12806,-0.00013
2484.19934,-0.00015
2482.27061,-0.00013
2480.34188,-0.00010
2478.41316,-0.00008
2476.48443,-0.00006
2474.55571,-0.00004
2472.62698,-0.00001
2470.69825,0.00003
2468.76953,0.00008
2466.84080,0.00007
2464.91207,-0.00002
2462.98335,-0.00010
2461.05462,-0.00014
2459.12590,-0.00014
2457.19717,-0.00011
2455.26844,-0.00009
2453.33972,-0.00011
2451.41099,-0.00018
2449.48227,-0.00027
2447.55354,-0.00028
2445.62481,-0.00023
2443.69609,-0.00017
2441.76736,-0.00014
2439.83863,-0.00015
2437.90991,-0.00011
2435.98118,0.00001
2434.05246,0.00009
2432.12373,0.00010
2430.19500,0.00012
2428.26628,0.00013
2426.33755,0.00007
2424.40882,0.00004
2422.48010,0.00007
2420.55137,0.00009
2418.62265,0.00009
2416.69392,0.00004
2414.76519,-0.00003
2412.83647,-0.00001
2410.90774,0.00008
2408.97902,0.00014
2407.05029,0.00015
2405.12156,0.00012
2403.19284,0.00012
2401.26411,0.00018
2399.33538,0.00023
2397.40666,0.00022
2395.47793,0.00019
2393.54921,0.00014
2391.62048,0.00014
2389.69175,0.00020
2387.76303,0.00031
2385.83430,0.00046
2383.90557,0.00067
2381.97685,0.00082
2380.04812,0.00075
2378.11940,0.00039
2376.19067,-0.00018
2374.26194,-0.00087
2372.33322,-0.00173
2370.40449,-0.00304
2368.47576,-0.00469
2366.54704,-0.00603
2364.61831,-0.00674
2362.68959,-0.00707
2360.76086,-0.00719
2358.83213,-0.00707
2356.90341,-0.00640
2354.97468,-0.00516
2353.04596,-0.00356
2351.11723,-0.00212
2349.18850,-0.00155
2347.25978,-0.00207
2345.33105,-0.00342
2343.40232,-0.00473
2341.47360,-0.00539
2339.54487,-0.00559
2337.61615,-0.00547
2335.68742,-0.00517
2333.75869,-0.00471
2331.82997,-0.00401
2329.90124,-0.00337
2327.97251,-0.00298
2326.04379,-0.00251
2324.11506,-0.00179
2322.18634,-0.00100
2320.25761,-0.00049
2318.32888,-0.00030
2316.40016,-0.00015
2314.47143,0.00014
2312.54271,0.00051
2310.61398,0.00080
2308.68525,0.00093
2306.75653,0.00092
2304.82780,0.00080
2302.89907,0.00059
2300.97035,0.00040
2299.04162,0.00032
2297.11290,0.00030
2295.18417,0.00029
2293.25544,0.00021
2291.32672,0.00009
2289.39799,0.00002
2287.46926,0.00002
2285.54054,0.00003
2283.61181,0.00001
2281.68309,-0.00006
2279.75436,-0.00012
2277.82563,-0.00013
2275.89691,-0.00017
2273.96818,-0.00024
2272.03946,-0.00031
2270.11073,-0.00042
2268.18200,-0.00053
2266.25328,-0.00060
2264.32455,-0.00059
2262.39582,-0.00050
2260.46710,-0.00042
2258.53837,-0.00041
2256.60965,-0.00042
2254.68092,-0.00034
2252.75219,-0.00025
2250.82347,-0.00023
2248.89474,-0.00017
2246.96601,-0.00012
2245.03729,-0.00014
2243.10856,-0.00021
2241.17984,-0.00033
2239.25111,-0.00045
2237.32238,-0.00047
2235.39366,-0.00044
2233.46493,-0.00048
2231.53621,-0.00055
2229.60748,-0.00059
2227.67875,-0.00062
2225.75003,-0.00066
2223.82130,-0.00071
2221.89257,-0.00074
2219.96385,-0.00077
2218.03512,-0.00082
2216.10640,-0.00090
2214.17767,-0.00106
2212.24894,-0.00123
2210.32022,-0.00127
2208.39149,-0.00112
2206.46276,-0.00092
2204.53404,-0.00082
2202.60531,-0.00080
2200.67659,-0.00090
2198.74786,-0.00122
2196.81913,-0.00153
2194.89041,-0.00160
2192.96168,-0.00147
2191.03296,-0.00132
2189.10423,-0.00124
2187.17550,-0.00143
2185.24678,-0.00185
2183.31805,-0.00212
2181.38932,-0.00208
2179.46060,-0.00185
2177.53187,-0.00162
2175.60315,-0.00152
2173.67442,-0.00158
2171.74569,-0.00182
2169.81697,-0.00209
2167.88824,-0.00224
2165.95951,-0.00241
2164.03079,-0.00257
2162.10206,-0.00244
2160.17334,-0.00205
2158.24461,-0.00165
2156.31588,-0.00133
2154.38716,-0.00104
2152.45843,-0.00081
2150.52971,-0.00067
2148.60098,-0.00049
2146.67225,-0.00028
2144.74353,-0.00027
2142.81480,-0.00038
2140.88607,-0.00031
2138.95735,-0.00018
2137.02862,-0.00022
2135.09990,-0.00034
2133.17117,-0.00035
2131.24244,-0.00030
2129.31372,-0.00031
2127.38499,-0.00039
2125.45626,-0.00045
2123.52754,-0.00049
2121.59881,-0.00059
2119.67009,-0.00068
2117.74136,-0.00068
2115.81263,-0.00062
2113.88391,-0.00055
2111.95518,-0.00060
2110.02646,-0.00074
2108.09773,-0.00082
2106.16900,-0.00076
2104.24028,-0.00067
2102.31155,-0.00059
2100.38282,-0.00055
2098.45410,-0.00047
2096.52537,-0.00032
2094.59665,-0.00016
2092.66792,-0.00003
2090.73919,0.00005
2088.81047,0.00002
2086.88174,-0.00008
2084.95301,-0.00015
2083.02429,-0.00011
2081.09556,-0.00002
2079.16684,0.00004
2077.23811,0.00003
2075.30938,-0.00013
2073.38066,-0.00031
2071.45193,-0.00026
2069.52321,0.00003
2067.59448,0.00046
2065.66575,0.00077
2063.73703,0.00072
2061.80830,0.00046
2059.87957,0.00015
2057.95085,-0.00012
2056.02212,-0.00021
2054.09340,-0.00016
2052.16467,-0.00021
2050.23594,-0.00037
2048.30722,-0.00047
2046.37849,-0.00043
2044.44976,-0.00009
2042.52104,0.00033
2040.59231,0.00021
2038.66359,-0.00033
2036.73486,-0.00044
2034.80613,-0.00014
2032.87741,-0.00017
2030.94868,-0.00038
2029.01996,-0.00021
2027.09123,0.00018
2025.16250,0.00035
2023.23378,0.00015
2021.30505,-0.00002
2019.37632,0.00027
2017.44760,0.00068
2015.51887,0.00057
2013.59015,0.00008
2011.66142,-0.00020
2009.73269,0.00001
2007.80397,0.00038
2005.87524,0.00053
2003.94651,0.00051
2002.01779,0.00042
2000.08906,0.00025
1998.16034,0.00006
1996.23161,0.00023
1994.30288,0.00094
1992.37416,0.00156
1990.44543,0.00144
1988.51670,0.00104
1986.58798,0.00070
1984.65925,0.00033
1982.73053,0.00004
1980.80180,-0.00011
1978.87307,-0.00015
1976.94435,-0.00015
1975.01562,-0.00014
1973.08690,-0.00004
1971.15817,0.00033
1969.22944,0.00102
1967.30072,0.00151
1965.37199,0.00122
1963.44326,0.00071
1961.51454,0.00056
1959.58581,0.00064
1957.65709,0.00080
1955.72836,0.00096
1953.79963,0.00102
1951.87091,0.00100
1949.94218,0.00104
1948.01345,0.00133
1946.08473,0.00187
1944.15600,0.00231
1942.22728,0.00209
1940.29855,0.00143
1938.36982,0.00105
1936.44110,0.00104
1934.51237,0.00114
1932.58365,0.00111
1930.65492,0.00093
1928.72619,0.00088
1926.79747,0.00124
1924.86874,0.00210
1922.94001,0.00276
1921.01129,0.00257
1919.08256,0.00213
1917.15384,0.00172
1915.22511,0.00127
1913.29638,0.00119
1911.36766,0.00170
1909.43893,0.00217
1907.51020,0.00192
1905.58148,0.00140
1903.65275,0.00118
1901.72403,0.00119
1899.79530,0.00128
1897.86657,0.00156
1895.93785,0.00192
1894.00912,0.00202
1892.08040,0.00205
1890.15167,0.00212
1888.22294,0.00191
1886.29422,0.00169
1884.36549,0.00156
1882.43676,0.00132
1880.50804,0.00117
1878.57931,0.00121
1876.65059,0.00127
1874.72186,0.00144
1872.79313,0.00207
1870.86441,0.00338
1868.93568,0.00458
1867.00695,0.00390
1865.07823,0.00260
1863.14950,0.00199
1861.22078,0.00193
1859.29205,0.00189
1857.36332,0.00167
1855.43460,0.00148
1853.50587,0.00141
1851.57715,0.00159
1849.64842,0.00232
1847.71969,0.00357
1845.79097,0.00473
1843.86224,0.00455
1841.93351,0.00322
1840.00479,0.00244
1838.07606,0.00235
1836.14734,0.00235
1834.21861,0.00234
1832.28988,0.00276
1830.36116,0.00345
1828.43243,0.00360
1826.50370,0.00349
1824.57498,0.00326
1822.64625,0.00263
1820.71753,0.00211
1818.78880,0.00204
1816.86007,0.00206
1814.93135,0.00219
1813.00262,0.00280
1811.07390,0.00339
1809.14517,0.00320
1807.21644,0.00273
1805.28772,0.00272
1803.35899,0.00345
1801.43026,0.00432
1799.50154,0.00448
1797.57281,0.00451
1795.64409,0.00490
1793.71536,0.00546
1791.78663,0.00527
1789.85791,0.00392
1787.92918,0.00298
1786.00045,0.00295
1784.07173,0.00332
1782.14300,0.00372
1780.21428,0.00392
1778.28555,0.00376
1776.35682,0.00388
1774.42810,0.00474
1772.49937,0.00583
1770.57065,0.00571
1768.64192,0.00477
1766.71319,0.00382
1764.78447,0.00352
1762.85574,0.00405
1760.92701,0.00464
1758.99829,0.00481
1757.06956,0.00477
1755.14084,0.00469
1753.21211,0.00540
1751.28338,0.00748
1749.35466,0.00951
1747.42593,0.00935
1745.49720,0.00843
1743.56848,0.00762
1741.63975,0.00710
1739.71103,0.00707
1737.78230,0.00731
1735.85357,0.00805
1733.92485,0.00934
1731.99612,0.00876
1730.06740,0.00684
1728.13867,0.00529
1726.20994,0.00477
1724.28122,0.00509
1722.35249,0.00562
1720.42376,0.00640
1718.49504,0.00857
1716.56631,0.01102
1714.63759,0.00913
1712.70886,0.00688
1710.78013,0.00592
1708.85141,0.00609
1706.92268,0.00720
1704.99395,0.00843
1703.06523,0.00887
1701.13650,0.00950
1699.20778,0.01082
1697.27905,0.01030
1695.35032,0.00752
1693.42160,0.00580
1691.49287,0.00578
1689.56415,0.00683
1687.63542,0.00794
1685.70669,0.00876
1683.77797,0.00940
1681.84924,0.00870
1679.92051,0.00743
1677.99179,0.00658
1676.06306,0.00660
1674.13434,0.00715
1672.20561,0.00778
1670.27688,0.00806
1668.34816,0.00673
1666.41943,0.00559
1664.49070,0.00565
1662.56198,0.00614
1660.63325,0.00588
1658.70453,0.00583
1656.77580,0.00668
1654.84707,0.00831
1652.91835,0.00950
1650.98962,0.00930
1649.06090,0.00981
1647.13217,0.00999
1645.20344,0.00810
1643.27472,0.00679
1641.34599,0.00655
1639.41726,0.00716
1637.48854,0.00841
1635.55981,0.00815
1633.63109,0.00628
1631.70236,0.00542
1629.77363,0.00544
1627.84491,0.00596
1625.91618,0.00659
1623.98745,0.00710
1622.05873,0.00694
1620.13000,0.00657
1618.20128,0.00675
1616.27255,0.00659
1614.34382,0.00562
1612.41510,0.00514
1610.48637,0.00535
1608.55764,0.00565
1606.62892,0.00547
1604.70019,0.00526
1602.77147,0.00522
1600.84274,0.00497
1598.91401,0.00475
1596.98529,0.00498
1595.05656,0.00528
1593.12784,0.00524
1591.19911,0.00504
1589.27038,0.00470
1587.34166,0.00432
1585.41293,0.00415
1583.48420,0.00415
1581.55548,0.00429
1579.62675,0.00490
1577.69803,0.00613
1575.76930,0.00656
1573.84057,0.00574
1571.91185,0.00555
1569.98312,0.00589
1568.05439,0.00587
1566.12567,0.00578
1564.19694,0.00606
1562.26822,0.00663
1560.33949,0.00807
1558.41076,0.01090
1556.48204,0.01079
1554.55331,0.00944
1552.62459,0.00846
1550.69586,0.00803
1548.76713,0.00784
1546.83841,0.00854
1544.90968,0.01114
1542.98095,0.01519
1541.05223,0.01527
1539.12350,0.01079
1537.19478,0.00965
1535.26605,0.00995
1533.33732,0.00978
1531.40860,0.00877
1529.47987,0.00884
1527.55114,0.01042
1525.62242,0.01235
1523.69369,0.01357
1521.76497,0.01398
1519.83624,0.01315
1517.90751,0.01264
1515.97879,0.01206
1514.05006,0.01149
1512.12134,0.01210
1510.19261,0.01417
1508.26388,0.01630
1506.33516,0.01255
1504.40643,0.00965
1502.47770,0.00917
1500.54898,0.00947
1498.62025,0.00999
1496.69153,0.00923
1494.76280,0.00769
1492.83407,0.00748
1490.90535,0.00905
1488.97662,0.01022
1487.04789,0.00811
1485.11917,0.00616
1483.19044,0.00550
1481.26172,0.00553
1479.33299,0.00577
1477.40426,0.00674
1475.47554,0.00889
1473.54681,0.01059
1471.61809,0.00895
1469.68936,0.00729
1467.76063,0.00709
1465.83191,0.00768
1463.90318,0.00789
1461.97445,0.00795
1460.04573,0.00910
1458.11700,0.01209
1456.18828,0.01255
1454.25955,0.01008
1452.33082,0.00861
1450.40210,0.00814
1448.47337,0.00817
1446.54464,0.00769
1444.61592,0.00684
1442.68719,0.00640
1440.75847,0.00662
1438.82974,0.00764
1436.90101,0.00912
1434.97229,0.00929
1433.04356,0.00880
1431.11484,0.00869
1429.18611,0.00849
1427.25738,0.00820
1425.32866,0.00843
1423.39993,0.00897
1421.47120,0.00960
1419.54248,0.01066
1417.61375,0.01044
1415.68503,0.00883
1413.75630,0.00785
1411.82757,0.00760
1409.89885,0.00735
1407.97012,0.00718
1406.04139,0.00745
1404.11267,0.00748
1402.18394,0.00737
1400.25522,0.00811
1398.32649,0.00949
1396.39776,0.00999
1394.46904,0.00888
1392.54031,0.00749
1390.61159,0.00721
1388.68286,0.00794
1386.75413,0.00815
1384.82541,0.00723
1382.89668,0.00669
1380.96795,0.00699
1379.03923,0.00763
1377.11050,0.00838
1375.18178,0.00916
1373.25305,0.00906
1371.32432,0.00834
1369.39560,0.00794
1367.46687,0.00772
1365.53814,0.00793
1363.60942,0.00885
1361.68069,0.00902
1359.75197,0.00794
1357.82324,0.00716
1355.89451,0.00695
1353.96579,0.00673
1352.03706,0.00646
1350.10834,0.00640
1348.17961,0.00636
1346.25088,0.00627
1344.32216,0.00649
1342.39343,0.00763
1340.46470,0.00962
1338.53598,0.01017
1336.60725,0.00863
1334.67853,0.00734
1332.74980,0.00692
1330.82107,0.00694
1328.89235,0.00697
1326.96362,0.00697
1325.03489,0.00709
1323.10617,0.00746
1321.17744,0.00820
1319.24872,0.00892
1317.31999,0.00906
1315.39126,0.00894
1313.46254,0.00869
1311.53381,0.00807
1309.60509,0.00745
1307.67636,0.00708
1305.74763,0.00677
1303.81891,0.00653
1301.89018,0.00641
1299.96145,0.00636
1298.03273,0.00639
1296.10400,0.00638
1294.17528,0.00629
1292.24655,0.00633
1290.31782,0.00658
1288.38910,0.00679
1286.46037,0.00671
1284.53164,0.00655
1282.60292,0.00661
1280.67419,0.00677
1278.74547,0.00686
1276.81674,0.00699
1274.88801,0.00735
1272.95929,0.00796
1271.03056,0.00866
1269.10183,0.00935
1267.17311,0.01013
1265.24438,0.01101
1263.31566,0.01188
1261.38693,0.01249
1259.45820,0.01245
1257.52948,0.01171
1255.60075,0.01072
1253.67203,0.00991
1251.74330,0.00939
1249.81457,0.00910
1247.88585,0.00899
1245.95712,0.00900
1244.02839,0.00905
1242.09967,0.00905
1240.17094,0.00904
1238.24222,0.00907
1236.31349,0.00907
1234.38476,0.00905
1232.45604,0.00902
1230.52731,0.00898
1228.59858,0.00896
1226.66986,0.00893
1224.74113,0.00879
1222.81241,0.00858
1220.88368,0.00839
1218.95495,0.00823
1217.02623,0.00806
1215.09750,0.00794
1213.16878,0.00784
1211.24005,0.00769
1209.31132,0.00753
1207.38260,0.00739
1205.45387,0.00726
1203.52514,0.00715
1201.59642,0.00703
1199.66769,0.00691
1197.73897,0.00673
1195.81024,0.00652
1193.88151,0.00638
1191.95279,0.00634
1190.02406,0.00634
1188.09533,0.00640
1186.16661,0.00647
1184.23788,0.00652
1182.30916,0.00659
1180.38043,0.00667
1178.45170,0.00678
1176.52298,0.00696
1174.59425,0.00719
1172.66553,0.00748
1170.73680,0.00783
1168.80807,0.00825
1166.87935,0.00874
1164.95062,0.00924
1163.02189,0.00971
1161.09317,0.01008
1159.16444,0.01031
1157.23572,0.01040
1155.30699,0.01034
1153.37826,0.01018
1151.44954,0.01005
1149.52081,0.00994
1147.59208,0.00984
1145.66336,0.00976
1143.73463,0.00971
1141.80591,0.00971
1139.87718,0.00979
1137.94845,0.00994
1136.01973,0.01019
1134.09100,0.01057
1132.16228,0.01105
1130.23355,0.01159
1128.30482,0.01214
1126.37610,0.01266
1124.44737,0.01313
1122.51864,0.01358
1120.58992,0.01399
1118.66119,0.01442
1116.73247,0.01497
1114.80374,0.01556
1112.87501,0.01605
1110.94629,0.01649
1109.01756,0.01690
1107.08883,0.01723
1105.16011,0.01748
1103.23138,0.01771
1101.30266,0.01791
1099.37393,0.01806
1097.44520,0.01818
1095.51648,0.01832
1093.58775,0.01842
1091.65903,0.01841
1089.73030,0.01836
1087.80157,0.01836
1085.87285,0.01839
1083.94412,0.01844
1082.01539,0.01855
1080.08667,0.01880
1078.15794,0.01913
1076.22922,0.01946
1074.30049,0.01972
1072.37176,0.01993
1070.44304,0.02016
1068.51431,0.02049
1066.58558,0.02095
1064.65686,0.02155
1062.72813,0.02220
1060.79941,0.02283
1058.87068,0.02341
1056.94195,0.02388
1055.01323,0.02425
1053.08450,0.02458
1051.15578,0.02480
1049.22705,0.02492
1047.29832,0.02502
1045.36960,0.02506
1043.44087,0.02506
1041.51214,0.02515
1039.58342,0.02541
1037.65469,0.02591
1035.72597,0.02655
1033.79724,0.02712
1031.86851,0.02753
1029.93979,0.02780
1028.01106,0.02797
1026.08233,0.02804
1024.15361,0.02805
1022.22488,0.02803
1020.29616,0.02790
1018.36743,0.02762
1016.43870,0.02713
1014.50998,0.02646
1012.58125,0.02570
1010.65253,0.02494
1008.72380,0.02421
1006.79507,0.02349
1004.86635,0.02276
1002.93762,0.02213
1001.00889,0.02168
999.08017,0.02135
997.15144,0.02100
995.22272,0.02057
993.29399,0.02017
991.36526,0.01989
989.43654,0.01953
987.50781,0.01907
985.57908,0.01876
983.65036,0.01856
981.72163,0.01824
979.79291,0.01775
977.86418,0.01708
975.93545,0.01628
974.00673,0.01569
972.07800,0.01539
970.14928,0.01511
968.22055,0.01480
966.29182,0.01454
964.36310,0.01422
962.43437,0.01383
960.50564,0.01346
958.57692,0.01306
956.64819,0.01260
954.71947,0.01224
952.79074,0.01196
950.86201,0.01161
948.93329,0.01126
947.00456,0.01108
945.07583,0.01100
943.14711,0.01092
941.21838,0.01082
939.28966,0.01066
937.36093,0.01044
935.43220,0.01030
933.50348,0.01021
931.57475,0.01009
929.64603,0.00999
927.71730,0.00999
925.78857,0.01001
923.85985,0.00997
921.93112,0.00991
920.00239,0.00976
918.07367,0.00952
916.14494,0.00932
914.21622,0.00918
912.28749,0.00920
910.35876,0.00938
908.43004,0.00955
906.50131,0.00973
904.57258,0.01000
902.64386,0.01025
900.71513,0.01034
898.78641,0.01026
896.85768,0.01016
894.92895,0.01028
893.00023,0.01050
891.07150,0.01044
889.14277,0.01013
887.21405,0.00994
885.28532,0.00990
883.35660,0.00988
881.42787,0.00999
879.49914,0.01022
877.57042,0.01025
875.64169,0.00997
873.71297,0.00966
871.78424,0.00957
869.85551,0.00964
867.92679,0.00964
865.99806,0.00956
864.06933,0.00960
862.14061,0.00985
860.21188,0.01027
858.28316,0.01050
856.35443,0.01032
854.42570,0.00997
852.49698,0.00976
850.56825,0.00969
848.63952,0.00968
846.71080,0.00974
844.78207,0.00983
842.85335,0.00994
840.92462,0.01006
838.99589,0.01013
837.06717,0.01006
835.13844,0.01000
833.20972,0.01018
831.28099,0.01050
829.35226,0.01075
827.42354,0.01105
825.49481,0.01143
823.56608,0.01175
821.63736,0.01215
819.70863,0.01265
817.77991,0.01290
815.85118,0.01296
813.92245,0.01329
811.99373,0.01378
810.06500,0.01413
808.13627,0.01447
806.20755,0.01494
804.27882,0.01542
802.35010,0.01582
800.42137,0.01615
798.49264,0.01622
796.56392,0.01581
794.63519,0.01528
792.70647,0.01493
790.77774,0.01437
788.84901,0.01341
786.92029,0.01245
784.99156,0.01171
783.06283,0.01120
781.13411,0.01101
779.20538,0.01113
777.27666,0.01121
775.34793,0.01112
773.41920,0.01096
771.49048,0.01069
769.56175,0.01029
767.63302,0.01007
765.70430,0.01020
763.77557,0.01058
761.84685,0.01103
759.91812,0.01115
757.98939,0.01075
756.06067,0.01039
754.13194,0.01057
752.20322,0.01095
750.27449,0.01098
748.34576,0.01087
746.41704,0.01100
744.48831,0.01130
742.55958,0.01160
740.63086,0.01170
738.70213,0.01133
736.77341,0.01092
734.84468,0.01116
732.91595,0.01157
730.98723,0.01170
729.05850,0.01193
727.12977,0.01228
725.20105,0.01244
723.27232,0.01257
721.34360,0.01281
719.41487,0.01305
717.48614,0.01325
715.55742,0.01351
713.62869,0.01369
711.69997,0.01377
709.77124,0.01391
707.84251,0.01416
705.91379,0.01450
703.98506,0.01471
702.05633,0.01466
700.12761,0.01459
698.19888,0.01468
696.27016,0.01483
694.34143,0.01494
692.41270,0.01495
690.48398,0.01491
688.55525,0.01479
686.62652,0.01459
684.69780,0.01454
682.76907,0.01473
680.84035,0.01493
678.91162,0.01505
676.98289,0.01530
675.05417,0.01581
673.12544,0.01630
671.19672,0.01645
669.26799,0.01629
667.33926,0.01670
665.41054,0.01754
663.48181,0.01799
661.55308,0.01817
659.62436,0.01815
657.69563,0.01766
655.76691,0.01706
653.83818,0.01694
651.90945,0.01717
649.98073,0.01730
648.05200,0.01733
646.12327,0.01751
644.19455,0.01786
642.26582,0.01829
640.33710,0.01870
638.40837,0.01894
636.47964,0.01910
634.55092,0.01914
632.62219,0.01894
630.69347,0.01850
628.76474,0.01798
626.83601,0.01778
624.90729,0.01792
622.97856,0.01713
621.04983,0.01518
619.12111,0.01419
617.19238,0.01445
615.26366,0.01441
613.33493,0.01360
611.40620,0.01331
609.47748,0.01422
607.54875,0.01549
605.62002,0.01672
603.69130,0.01805
601.76257,0.01932
599.83385,0.02035
