4497.78948,-0.00456
4495.86076,-0.00468
4493.93203,-0.00465
4492.00330,-0.00465
4490.07458,-0.00464
4488.14585,-0.00452
4486.21712,-0.00439
4484.28840,-0.00444
4482.35967,-0.00452
4480.43095,-0.00440
4478.50222,-0.00429
4476.57349,-0.00439
4474.64477,-0.00457
4472.71604,-0.00462
4470.78732,-0.00458
4468.85859,-0.00454
4466.92986,-0.00447
4465.00114,-0.00427
4463.07241,-0.00406
4461.14368,-0.00409
4459.21496,-0.00428
4457.28623,-0.00438
4455.35751,-0.00434
4453.42878,-0.00425
4451.50005,-0.00422
4449.57133,-0.00434
4447.64260,-0.00454
4445.71387,-0.00459
4443.78515,-0.00443
4441.85642,-0.00424
4439.92770,-0.00416
4437.99897,-0.00412
4436.07024,-0.00412
4434.14152,-0.00423
4432.21279,-0.00436
4430.28407,-0.00435
4428.35534,-0.00430
4426.42661,-0.00424
4424.49789,-0.00414
4422.56916,-0.00413
4420.64043,-0.00420
4418.71171,-0.00414
4416.78298,-0.00404
4414.85426,-0.00406
4412.92553,-0.00414
4410.99680,-0.00418
4409.06808,-0.00412
4407.13935,-0.00400
4405.21062,-0.00388
4403.28190,-0.00387
4401.35317,-0.00395
4399.42445,-0.00393
4397.49572,-0.00384
4395.56699,-0.00382
4393.63827,-0.00386
4391.70954,-0.00391
4389.78082,-0.00398
4387.85209,-0.00403
4385.92336,-0.00395
4383.99464,-0.00386
4382.06591,-0.00389
4380.13718,-0.00392
4378.20846,-0.00395
4376.27973,-0.00410
4374.35101,-0.00424
4372.42228,-0.00420
4370.49355,-0.00414
4368.56483,-0.00410
4366.63610,-0.00404
4364.70737,-0.00404
4362.77865,-0.00403
4360.84992,-0.00394
4358.92120,-0.00391
4356.99247,-0.00394
4355.06374,-0.00390
4353.13502,-0.00383
4351.20629,-0.00381
4349.27757,-0.00379
4347.34884,-0.00387
4345.42011,-0.00400
4343.49139,-0.00405
4341.56266,-0.00399
4339.63393,-0.00392
4337.70521,-0.00387
4335.77648,-0.00385
4333.84776,-0.00385
4331.91903,-0.00387
4329.99030,-0.00386
4328.06158,-0.00375
4326.13285,-0.00366
4324.20412,-0.00364
4322.27540,-0.00367
4320.34667,-0.00368
4318.41795,-0.00362
4316.48922,-0.00357
4314.56049,-0.00359
4312.63177,-0.00363
4310.70304,-0.00372
4308.77432,-0.00381
4306.84559,-0.00383
4304.91686,-0.00382
4302.98814,-0.00383
4301.05941,-0.00378
4299.13068,-0.00371
4297.20196,-0.00372
4295.27323,-0.00377
4293.34451,-0.00371
4291.41578,-0.00359
4289.48705,-0.00356
4287.55833,-0.00362
4285.62960,-0.00368
4283.70087,-0.00369
4281.77215,-0.00367
4279.84342,-0.00367
4277.91470,-0.00371
4275.98597,-0.00371
4274.05724,-0.00361
4272.12852,-0.00353
4270.19979,-0.00356
4268.27107,-0.00361
4266.34234,-0.00358
4264.41361,-0.00352
4262.48489,-0.00356
4260.55616,-0.00369
4258.62743,-0.00378
4256.69871,-0.00372
4254.76998,-0.00361
4252.84126,-0.00359
4250.91253,-0.00370
4248.98380,-0.00382
4247.05508,-0.00377
4245.12635,-0.00360
4243.19762,-0.00348
4241.26890,-0.00343
4239.34017,-0.00346
4237.41145,-0.00353
4235.48272,-0.00362
4233.55399,-0.00372
4231.62527,-0.00370
4229.69654,-0.00354
4227.76782,-0.00347
4225.83909,-0.00349
4223.91036,-0.00347
4221.98164,-0.00341
4220.05291,-0.00337
4218.12418,-0.00342
4216.19546,-0.00350
4214.26673,-0.00351
4212.33801,-0.00346
4210.40928,-0.00341
4208.48055,-0.00333
4206.55183,-0.00327
4204.62310,-0.00330
4202.69437,-0.00336
4200.76565,-0.00344
4198.83692,-0.00359
4196.90820,-0.00365
4194.97947,-0.00350
4193.05074,-0.00328
4191.12202,-0.00316
4189.19329,-0.00321
4187.26456,-0.00337
4185.33584,-0.00344
4183.40711,-0.00335
4181.47839,-0.00328
4179.54966,-0.00327
4177.62093,-0.00324
4175.69221,-0.00318
4173.76348,-0.00317
4171.83476,-0.00319
4169.90603,-0.00318
4167.97730,-0.00318
4166.04858,-0.00322
4164.11985,-0.00331
4162.19112,-0.00341
4160.26240,-0.00337
4158.33367,-0.00326
4156.40495,-0.00321
4154.47622,-0.00323
4152.54749,-0.00330
4150.61877,-0.00332
4148.69004,-0.00323
4146.76131,-0.00315
4144.83259,-0.00323
4142.90386,-0.00332
4140.97514,-0.00324
4139.04641,-0.00308
4137.11768,-0.00303
4135.18896,-0.00309
4133.26023,-0.00321
4131.33151,-0.00330
4129.40278,-0.00336
4127.47405,-0.00339
4125.54533,-0.00334
4123.61660,-0.00327
4121.68787,-0.00323
4119.75915,-0.00316
4117.83042,-0.00310
4115.90170,-0.00309
4113.97297,-0.00314
4112.04424,-0.00326
4110.11552,-0.00329
4108.18679,-0.00312
4106.25806,-0.00291
4104.32934,-0.00293
4102.40061,-0.00308
4100.47189,-0.00314
4098.54316,-0.00312
4096.61443,-0.00319
4094.68571,-0.00334
4092.75698,-0.00333
4090.82826,-0.00308
4088.89953,-0.00286
4086.97080,-0.00282
4085.04208,-0.00279
4083.11335,-0.00278
4081.18462,-0.00286
4079.25590,-0.00298
4077.32717,-0.00304
4075.39845,-0.00304
4073.46972,-0.00303
4071.54099,-0.00304
4069.61227,-0.00305
4067.68354,-0.00305
4065.75481,-0.00303
4063.82609,-0.00297
4061.89736,-0.00287
4059.96864,-0.00280
4058.03991,-0.00284
4056.11118,-0.00290
4054.18246,-0.00290
4052.25373,-0.00292
4050.32501,-0.00298
4048.39628,-0.00292
4046.46755,-0.00266
4044.53883,-0.00249
4042.61010,-0.00262
4040.68137,-0.00281
4038.75265,-0.00287
4036.82392,-0.00280
4034.89520,-0.00269
4032.96647,-0.00266
4031.03774,-0.00276
4029.10902,-0.00286
4027.18029,-0.00275
4025.25156,-0.00255
4023.32284,-0.00249
4021.39411,-0.00250
4019.46539,-0.00248
4017.53666,-0.00243
4015.60793,-0.00240
4013.67921,-0.00243
4011.75048,-0.00242
4009.82176,-0.00234
4007.89303,-0.00236
4005.96430,-0.00251
4004.03558,-0.00266
4002.10685,-0.00277
4000.17812,-0.00280
3998.24940,-0.00268
3996.32067,-0.00244
3994.39195,-0.00223
3992.46322,-0.00207
3990.53449,-0.00209
3988.60577,-0.00238
3986.67704,-0.00254
3984.74831,-0.00235
3982.81959,-0.00217
3980.89086,-0.00222
3978.96214,-0.00216
3977.03341,-0.00174
3975.10468,-0.00138
3973.17596,-0.00145
3971.24723,-0.00166
3969.31851,-0.00192
3967.38978,-0.00226
3965.46105,-0.00226
3963.53233,-0.00179
3961.60360,-0.00148
3959.67487,-0.00148
3957.74615,-0.00150
3955.81742,-0.00161
3953.88870,-0.00165
3951.95997,-0.00111
3950.03124,-0.00026
3948.10252,-0.00015
3946.17379,-0.00051
3944.24506,-0.00053
3942.31634,-0.00072
3940.38761,-0.00133
3938.45889,-0.00176
3936.53016,-0.00162
3934.60143,-0.00071
3932.67271,0.00037
3930.74398,0.00021
3928.81526,-0.00056
3926.88653,-0.00039
3924.95780,0.00029
3923.02908,0.00012
3921.10035,-0.00017
3919.17162,0.00026
3917.24290,0.00024
3915.31417,-0.00085
3913.38545,-0.00185
3911.45672,-0.00222
3909.52799,-0.00190
3907.59927,-0.00061
3905.67054,0.00180
3903.74181,0.00378
3901.81309,0.00375
3899.88436,0.00252
3897.95564,0.00085
3896.02691,0.00011
3894.09818,0.00065
3892.16946,0.00115
3890.24073,0.00033
3888.31201,-0.00002
3886.38328,0.00086
3884.45455,0.00182
3882.52583,0.00181
3880.59710,0.00076
3878.66837,-0.00043
3876.73965,-0.00053
3874.81092,0.00053
3872.88220,0.00211
3870.95347,0.00302
3869.02474,0.00251
3867.09602,0.00215
3865.16729,0.00277
3863.23856,0.00252
3861.30984,0.00110
3859.38111,0.00060
3857.45239,0.00155
3855.52366,0.00356
3853.59493,0.00461
3851.66621,0.00265
3849.73748,0.00096
3847.80876,0.00013
3845.88003,0.00029
3843.95130,0.00145
3842.02258,0.00315
3840.09385,0.00462
3838.16512,0.00427
3836.23640,0.00247
3834.30767,0.00114
3832.37895,0.00040
3830.45022,0.00030
3828.52149,0.00075
3826.59277,0.00126
3824.66404,0.00158
3822.73531,0.00227
3820.80659,0.00300
3818.87786,0.00265
3816.94914,0.00169
3815.02041,0.00017
3813.09168,-0.00099
3811.16296,-0.00128
3809.23423,-0.00069
3807.30550,0.00037
3805.37678,0.00106
3803.44805,0.00178
3801.51933,0.00243
3799.59060,0.00209
3797.66187,0.00114
3795.73315,-0.00031
3793.80442,-0.00145
3791.87570,-0.00188
3789.94697,-0.00175
3788.01824,-0.00111
3786.08952,-0.00040
3784.16079,-0.00034
3782.23206,-0.00053
3780.30334,-0.00041
3778.37461,-0.00072
3776.44589,-0.00137
3774.51716,-0.00146
3772.58843,-0.00071
3770.65971,0.00047
3768.73098,0.00100
3766.80225,0.00077
3764.87353,0.00026
3762.94480,0.00007
3761.01608,0.00077
3759.08735,0.00190
3757.15862,0.00235
3755.22990,0.00287
3753.30117,0.00446
3751.37245,0.00667
3749.44372,0.00665
3747.51499,0.00618
3745.58627,0.00560
3743.65754,0.00433
3741.72881,0.00375
3739.80009,0.00410
3737.87136,0.00533
3735.94264,0.00653
3734.01391,0.00491
3732.08518,0.00240
3730.15646,0.00132
3728.22773,0.00165
3726.29900,0.00277
3724.37028,0.00316
3722.44155,0.00222
3720.51283,0.00096
3718.58410,0.00023
3716.65537,0.00035
3714.72665,0.00126
3712.79792,0.00283
3710.86920,0.00307
3708.94047,0.00127
3707.01174,0.00004
3705.08302,-0.00031
3703.15429,-0.00017
3701.22556,-0.00033
3699.29684,-0.00077
3697.36811,-0.00079
3695.43939,-0.00028
3693.51066,0.00074
3691.58193,0.00262
3689.65321,0.00362
3687.72448,0.00161
3685.79575,-0.00009
3683.86703,-0.00079
3681.93830,-0.00056
3680.00958,0.00061
3678.08085,0.00230
3676.15212,0.00348
3674.22340,0.00338
3672.29467,0.00368
3670.36595,0.00363
3668.43722,0.00150
3666.50849,-0.00030
3664.57977,-0.00105
3662.65104,-0.00107
3660.72231,-0.00071
3658.79359,-0.00012
3656.86486,0.00056
3654.93614,0.00095
3653.00741,0.00158
3651.07868,0.00383
3649.14996,0.00650
3647.22123,0.00396
3645.29250,0.00185
3643.36378,0.00101
3641.43505,0.00049
3639.50633,0.00003
3637.57760,-0.00010
3635.64887,0.00024
3633.72015,0.00104
3631.79142,0.00224
3629.86270,0.00371
3627.93397,0.00325
3626.00524,0.00155
3624.07652,0.00084
3622.14779,0.00158
3620.21906,0.00347
3618.29034,0.00440
3616.36161,0.00420
3614.43289,0.00412
3612.50416,0.00378
3610.57543,0.00350
3608.64671,0.00302
3606.71798,0.00171
3604.78925,0.00089
3602.86053,0.00126
3600.93180,0.00224
3599.00308,0.00278
3597.07435,0.00282
3595.14562,0.00248
3593.21690,0.00181
3591.28817,0.00191
3589.35945,0.00344
3587.43072,0.00460
3585.50199,0.00321
3583.57327,0.00179
3581.64454,0.00119
3579.71581,0.00105
3577.78709,0.00107
3575.85836,0.00108
3573.92964,0.00107
3572.00091,0.00140
3570.07218,0.00279
3568.14346,0.00541
3566.21473,0.00620
3564.28600,0.00441
3562.35728,0.00301
3560.42855,0.00219
3558.49983,0.00156
3556.57110,0.00146
3554.64237,0.00202
3552.71365,0.00249
3550.78492,0.00250
3548.85620,0.00305
3546.92747,0.00426
3544.99874,0.00431
3543.07002,0.00282
3541.14129,0.00161
3539.21256,0.00145
3537.28384,0.00177
3535.35511,0.00174
3533.42639,0.00177
3531.49766,0.00247
3529.56893,0.00358
3527.64021,0.00438
3525.71148,0.00472
3523.78275,0.00432
3521.85403,0.00319
3519.92530,0.00226
3517.99658,0.00179
3516.06785,0.00148
3514.13912,0.00159
3512.21040,0.00228
3510.28167,0.00282
3508.35295,0.00273
3506.42422,0.00300
3504.49549,0.00405
3502.56677,0.00440
3500.63804,0.00345
3498.70931,0.00266
3496.78059,0.00245
3494.85186,0.00231
3492.92314,0.00218
3490.99441,0.00236
3489.06568,0.00275
3487.13696,0.00296
3485.20823,0.00309
3483.27950,0.00341
3481.35078,0.00347
3479.42205,0.00301
3477.49333,0.00269
3475.56460,0.00273
3473.63587,0.00267
3471.70715,0.00251
3469.77842,0.00260
3467.84970,0.00286
3465.92097,0.00306
3463.99224,0.00326
3462.06352,0.00336
3460.13479,0.00322
3458.20606,0.00305
3456.27734,0.00296
3454.34861,0.00288
3452.41989,0.00295
3450.49116,0.00340
3448.56243,0.00416
3446.63371,0.00452
3444.70498,0.00432
3442.77625,0.00402
3440.84753,0.00368
3438.91880,0.00341
3436.99008,0.00334
3435.06135,0.00344
3433.13262,0.00363
3431.20390,0.00380
3429.27517,0.00385
3427.34644,0.00388
3425.41772,0.00408
3423.48899,0.00455
3421.56027,0.00491
3419.63154,0.00469
3417.70281,0.00426
3415.77409,0.00413
3413.84536,0.00417
3411.91664,0.00416
3409.98791,0.00414
3408.05918,0.00416
3406.13046,0.00426
3404.20173,0.00440
3402.27300,0.00453
3400.34428,0.00469
3398.41555,0.00493
3396.48683,0.00508
3394.55810,0.00514
3392.62937,0.00512
3390.70065,0.00489
3388.77192,0.00470
3386.84319,0.00480
3384.91447,0.00500
3382.98574,0.00502
3381.05702,0.00495
3379.12829,0.00494
3377.19956,0.00489
3375.27084,0.00480
3373.34211,0.00484
3371.41339,0.00504
3369.48466,0.00529
3367.55593,0.00544
3365.62721,0.00545
3363.69848,0.00545
3361.76975,0.00548
3359.84103,0.00547
3357.91230,0.00547
3355.98358,0.00549
3354.05485,0.00539
3352.12612,0.00525
3350.19740,0.00524
3348.26867,0.00531
3346.33994,0.00535
3344.41122,0.00541
3342.48249,0.00552
3340.55377,0.00568
3338.62504,0.00590
3336.69631,0.00601
3334.76759,0.00585
3332.83886,0.00563
3330.91014,0.00558
3328.98141,0.00569
3327.05268,0.00577
3325.12396,0.00575
3323.19523,0.00564
3321.26650,0.00548
3319.33778,0.00540
3317.40905,0.00542
3315.48033,0.00552
3313.55160,0.00565
3311.62287,0.00579
3309.69415,0.00584
3307.76542,0.00573
3305.83669,0.00555
3303.90797,0.00546
3301.97924,0.00547
3300.05052,0.00552
3298.12179,0.00555
3296.19306,0.00550
3294.26434,0.00551
3292.33561,0.00561
3290.40689,0.00565
3288.47816,0.00558
3286.54943,0.00555
3284.62071,0.00564
3282.69198,0.00571
3280.76325,0.00567
3278.83453,0.00561
3276.90580,0.00565
3274.97708,0.00570
3273.04835,0.00565
3271.11962,0.00551
3269.19090,0.00540
3267.26217,0.00538
3265.33344,0.00536
3263.40472,0.00528
3261.47599,0.00516
3259.54727,0.00510
3257.61854,0.00516
3255.68981,0.00524
3253.76109,0.00516
3251.83236,0.00495
3249.90364,0.00485
3247.97491,0.00496
3246.04618,0.00512
3244.11746,0.00510
3242.18873,0.00500
3240.26000,0.00493
3238.33128,0.00489
3236.40255,0.00486
3234.47383,0.00483
3232.54510,0.00481
3230.61637,0.00479
3228.68765,0.00469
3226.75892,0.00451
3224.83019,0.00439
3222.90147,0.00445
3220.97274,0.00458
3219.04402,0.00458
3217.11529,0.00448
3215.18656,0.00441
3213.25784,0.00436
3211.32911,0.00434
3209.40039,0.00432
3207.47166,0.00425
3205.54293,0.00420
3203.61421,0.00422
3201.68548,0.00428
3199.75675,0.00433
3197.82803,0.00429
3195.89930,0.00410
3193.97058,0.00393
3192.04185,0.00386
3190.11312,0.00382
3188.18440,0.00384
3186.25567,0.00394
3184.32694,0.00401
3182.39822,0.00398
3180.46949,0.00399
3178.54077,0.00399
3176.61204,0.00389
3174.68331,0.00376
3172.75459,0.00366
3170.82586,0.00359
3168.89714,0.00353
3166.96841,0.00344
3165.03968,0.00333
3163.11096,0.00324
3161.18223,0.00321
3159.25350,0.00323
3157.32478,0.00327
3155.39605,0.00326
3153.46733,0.00324
3151.53860,0.00324
3149.60987,0.00325
3147.68115,0.00318
3145.75242,0.00313
3143.82369,0.00315
3141.89497,0.00316
3139.96624,0.00313
3138.03752,0.00313
3136.10879,0.00316
3134.18006,0.00318
3132.25134,0.00312
3130.32261,0.00304
3128.39389,0.00302
3126.46516,0.00299
3124.53643,0.00303
3122.60771,0.00313
3120.67898,0.00317
3118.75025,0.00316
3116.82153,0.00313
3114.89280,0.00304
3112.96408,0.00296
3111.03535,0.00291
3109.10662,0.00283
3107.17790,0.00277
3105.24917,0.00282
3103.32044,0.00296
3101.39172,0.00300
3099.46299,0.00286
3097.53427,0.00270
3095.60554,0.00261
3093.67681,0.00251
3091.74809,0.00241
3089.81936,0.00238
3087.89063,0.00237
3085.96191,0.00238
3084.03318,0.00248
3082.10446,0.00264
3080.17573,0.00268
3078.24700,0.00254
3076.31828,0.00236
3074.38955,0.00230
3072.46083,0.00232
3070.53210,0.00235
3068.60337,0.00242
3066.67465,0.00252
3064.74592,0.00253
3062.81719,0.00243
3060.88847,0.00235
3058.95974,0.00238
3057.03102,0.00243
3055.10229,0.00236
3053.17356,0.00223
3051.24484,0.00222
3049.31611,0.00227
3047.38738,0.00221
3045.45866,0.00208
3043.52993,0.00198
3041.60121,0.00196
3039.67248,0.00196
3037.74375,0.00203
3035.81503,0.00224
3033.88630,0.00249
3031.95758,0.00255
3030.02885,0.00238
3028.10012,0.00219
3026.17140,0.00211
3024.24267,0.00205
3022.31394,0.00196
3020.38522,0.00181
3018.45649,0.00169
3016.52777,0.00177
3014.59904,0.00201
3012.67031,0.00219
3010.74159,0.00217
3008.81286,0.00207
3006.88413,0.00204
3004.95541,0.00205
3003.02668,0.00199
3001.09796,0.00190
2999.16923,0.00194
2997.24050,0.00205
2995.31178,0.00212
2993.38305,0.00209
2991.45433,0.00201
2989.52560,0.00201
2987.59687,0.00207
2985.66815,0.00209
2983.73942,0.00213
2981.81069,0.00222
2979.88197,0.00228
2977.95324,0.00234
2976.02452,0.00245
2974.09579,0.00261
2972.16706,0.00276
2970.23834,0.00289
2968.30961,0.00302
2966.38088,0.00317
2964.45216,0.00331
2962.52343,0.00341
2960.59471,0.00346
2958.66598,0.00348
2956.73725,0.00350
2954.80853,0.00350
2952.87980,0.00350
2950.95108,0.00356
2949.02235,0.00364
2947.09362,0.00369
2945.16490,0.00372
2943.23617,0.00379
2941.30744,0.00393
2939.37872,0.00407
2937.44999,0.00423
2935.52127,0.00447
2933.59254,0.00471
2931.66381,0.00491
2929.73509,0.00508
2927.80636,0.00527
2925.87763,0.00549
2923.94891,0.00566
2922.02018,0.00575
2920.09146,0.00576
2918.16273,0.00569
2916.23400,0.00558
2914.30528,0.00548
2912.37655,0.00535
2910.44783,0.00518
2908.51910,0.00500
2906.59037,0.00486
2904.66165,0.00477
2902.73292,0.00472
2900.80419,0.00470
2898.87547,0.00466
2896.94674,0.00462
2895.01802,0.00456
2893.08929,0.00451
2891.16056,0.00444
2889.23184,0.00438
2887.30311,0.00433
2885.37438,0.00428
2883.44566,0.00423
2881.51693,0.00421
2879.58821,0.00423
2877.65948,0.00427
2875.73075,0.00432
2873.80203,0.00434
2871.87330,0.00434
2869.94458,0.00433
2868.01585,0.00433
2866.08712,0.00432
2864.15840,0.00433
2862.22967,0.00440
2860.30094,0.00453
2858.37222,0.00468
2856.44349,0.00484
2854.51477,0.00494
2852.58604,0.00499
2850.65731,0.00496
2848.72859,0.00486
2846.79986,0.00469
2844.87113,0.00446
2842.94241,0.00422
2841.01368,0.00402
2839.08496,0.00386
2837.15623,0.00370
2835.22750,0.00356
2833.29878,0.00349
2831.37005,0.00343
2829.44133,0.00337
2827.51260,0.00329
2825.58387,0.00320
2823.65515,0.00311
2821.72642,0.00303
2819.79769,0.00299
2817.86897,0.00299
2815.94024,0.00297
2814.01152,0.00294
2812.08279,0.00289
2810.15406,0.00284
2808.22534,0.00281
2806.29661,0.00277
2804.36788,0.00271
2802.43916,0.00265
2800.51043,0.00265
2798.58171,0.00268
2796.65298,0.00271
2794.72425,0.00271
2792.79553,0.00268
2790.86680,0.00263
2788.93808,0.00258
2787.00935,0.00257
2785.08062,0.00260
2783.15190,0.00268
2781.22317,0.00272
2779.29444,0.00269
2777.36572,0.00263
2775.43699,0.00259
2773.50827,0.00259
2771.57954,0.00259
2769.65081,0.00258
2767.72209,0.00256
2765.79336,0.00254
2763.86463,0.00251
2761.93591,0.00250
2760.00718,0.00250
2758.07846,0.00252
2756.14973,0.00255
2754.22100,0.00255
2752.29228,0.00255
2750.36355,0.00257
2748.43483,0.00258
2746.50610,0.00259
2744.57737,0.00260
2742.64865,0.00257
2740.71992,0.00252
2738.79119,0.00249
2736.86247,0.00247
2734.93374,0.00248
2733.00502,0.00251
2731.07629,0.00254
2729.14756,0.00252
2727.21884,0.00250
2725.29011,0.00253
2723.36138,0.00259
2721.43266,0.00263
2719.50393,0.00264
2717.57521,0.00262
2715.64648,0.00259
2713.71775,0.00256
2711.78903,0.00253
2709.86030,0.00253
2707.93157,0.00253
2706.00285,0.00251
2704.07412,0.00251
2702.14540,0.00253
2700.21667,0.00254
2698.28794,0.00257
2696.35922,0.00260
2694.43049,0.00258
2692.50177,0.00253
2690.57304,0.00252
2688.64431,0.00255
2686.71559,0.00258
2684.78686,0.00258
2682.85813,0.00256
2680.92941,0.00253
2679.00068,0.00252
2677.07196,0.00253
2675.14323,0.00254
2673.21450,0.00253
2671.28578,0.00250
2669.35705,0.00250
2667.42832,0.00252
2665.49960,0.00253
2663.57087,0.00252
2661.64215,0.00252
2659.71342,0.00252
2657.78469,0.00247
2655.85597,0.00241
2653.92724,0.00239
2651.99852,0.00239
2650.06979,0.00237
2648.14106,0.00233
2646.21234,0.00226
2644.28361,0.00220
2642.35488,0.00217
2640.42616,0.00216
2638.49743,0.00219
2636.56871,0.00221
2634.63998,0.00215
2632.71125,0.00208
2630.78253,0.00209
2628.85380,0.00216
2626.92507,0.00222
2624.99635,0.00223
2623.06762,0.00217
2621.13890,0.00208
2619.21017,0.00203
2617.28144,0.00204
2615.35272,0.00206
2613.42399,0.00202
2611.49527,0.00196
2609.56654,0.00193
2607.63781,0.00192
2605.70909,0.00196
2603.78036,0.00205
2601.85163,0.00208
2599.92291,0.00203
2597.99418,0.00199
2596.06546,0.00204
2594.13673,0.00211
2592.20800,0.00211
2590.27928,0.00207
2588.35055,0.00205
2586.42182,0.00206
2584.49310,0.00208
2582.56437,0.00209
2580.63565,0.00209
2578.70692,0.00207
2576.77819,0.00209
2574.84947,0.00212
2572.92074,0.00216
2570.99202,0.00217
2569.06329,0.00211
2567.13456,0.00202
2565.20584,0.00198
2563.27711,0.00199
2561.34838,0.00200
2559.41966,0.00197
2557.49093,0.00195
2555.56221,0.00195
2553.63348,0.00198
2551.70475,0.00200
2549.77603,0.00195
2547.84730,0.00190
2545.91857,0.00196
2543.98985,0.00205
2542.06112,0.00209
2540.13240,0.00215
2538.20367,0.00219
2536.27494,0.00215
2534.34622,0.00207
2532.41749,0.00199
2530.48877,0.00197
2528.56004,0.00198
2526.63131,0.00197
2524.70259,0.00192
2522.77386,0.00186
2520.84513,0.00184
2518.91641,0.00193
2516.98768,0.00204
2515.05896,0.00208
2513.13023,0.00206
2511.20150,0.00202
2509.27278,0.00197
2507.34405,0.00198
2505.41532,0.00208
2503.48660,0.00219
2501.55787,0.00216
2499.62915,0.00204
2497.70042,0.00198
2495.77169,0.00203
2493.84297,0.00209
2491.91424,0.00214
2489.98552,0.00214
2488.05679,0.00208
2486.12806,0.00200
2484.19934,0.00194
2482.27061,0.00195
2480.34188,0.00198
2478.41316,0.00198
2476.48443,0.00202
2474.55571,0.00210
2472.62698,0.00213
2470.69825,0.00215
2468.76953,0.00222
2466.84080,0.00227
2464.91207,0.00222
2462.98335,0.00212
2461.05462,0.00206
2459.12590,0.00205
2457.19717,0.00204
2455.26844,0.00205
2453.33972,0.00205
2451.41099,0.00201
2449.48227,0.00194
2447.55354,0.00187
2445.62481,0.00185
2443.69609,0.00191
2441.76736,0.00195
2439.83863,0.00197
2437.90991,0.00205
2435.98118,0.00215
2434.05246,0.00217
2432.12373,0.00216
2430.19500,0.00221
2428.26628,0.00223
2426.33755,0.00213
2424.40882,0.00205
2422.48010,0.00208
2420.55137,0.00215
2418.62265,0.00219
2416.69392,0.00218
2414.76519,0.00214
2412.83647,0.00214
2410.90774,0.00217
2408.97902,0.00219
2407.05029,0.00220
2405.12156,0.00223
2403.19284,0.00224
2401.26411,0.00225
2399.33538,0.00226
2397.40666,0.00226
2395.47793,0.00222
2393.54921,0.00213
2391.62048,0.00211
2389.69175,0.00220
2387.76303,0.00236
2385.83430,0.00254
2383.90557,0.00269
2381.97685,0.00276
2380.04812,0.00268
2378.11940,0.00239
2376.19067,0.00189
2374.26194,0.00121
2372.33322,0.00034
2370.40449,-0.00075
2368.47576,-0.00196
2366.54704,-0.00307
2364.61831,-0.00390
2362.68959,-0.00438
2360.76086,-0.00454
2358.83213,-0.00455
2356.90341,-0.00425
2354.97468,-0.00319
2353.04596,-0.00145
2351.11723,0.00006
2349.18850,0.00063
2347.25978,0.00023
2345.33105,-0.00094
2343.40232,-0.00219
2341.47360,-0.00282
2339.54487,-0.00295
2337.61615,-0.00285
2335.68742,-0.00259
2333.75869,-0.00211
2331.82997,-0.00156
2329.90124,-0.00114
2327.97251,-0.00075
2326.04379,-0.00025
2324.11506,0.00032
2322.18634,0.00097
2320.25761,0.00155
2318.32888,0.00182
2316.40016,0.00195
2314.47143,0.00219
2312.54271,0.00256
2310.61398,0.00289
2308.68525,0.00298
2306.75653,0.00286
2304.82780,0.00269
2302.89907,0.00254
2300.97035,0.00245
2299.04162,0.00245
2297.11290,0.00246
2295.18417,0.00245
2293.25544,0.00240
2291.32672,0.00229
2289.39799,0.00220
2287.46926,0.00218
2285.54054,0.00214
2283.61181,0.00203
2281.68309,0.00187
2279.75436,0.00174
2277.82563,0.00175
2275.89691,0.00181
2273.96818,0.00177
2272.03946,0.00169
2270.11073,0.00170
2268.18200,0.00178
2266.25328,0.00183
2264.32455,0.00182
2262.39582,0.00184
2260.46710,0.00190
2258.53837,0.00192
2256.60965,0.00192
2254.68092,0.00195
2252.75219,0.00189
2250.82347,0.00183
2248.89474,0.00193
2246.96601,0.00206
2245.03729,0.00203
2243.10856,0.00188
2241.17984,0.00172
2239.25111,0.00163
2237.32238,0.00163
2235.39366,0.00170
2233.46493,0.00176
2231.53621,0.00179
2229.60748,0.00177
2227.67875,0.00170
2225.75003,0.00165
2223.82130,0.00164
2221.89257,0.00153
2219.96385,0.00142
2218.03512,0.00144
2216.10640,0.00144
2214.17767,0.00136
2212.24894,0.00131
2210.32022,0.00134
2208.39149,0.00140
2206.46276,0.00133
2204.53404,0.00130
2202.60531,0.00154
2200.67659,0.00174
2198.74786,0.00150
2196.81913,0.00111
2194.89041,0.00088
2192.96168,0.00081
2191.03296,0.00081
2189.10423,0.00088
2187.17550,0.00092
2185.24678,0.00085
2183.31805,0.00072
2181.38932,0.00061
2179.46060,0.00054
2177.53187,0.00050
2175.60315,0.00047
2173.67442,0.00038
2171.74569,0.00023
2169.81697,0.00002
2167.88824,-0.00027
2165.95951,-0.00050
2164.03079,-0.00039
2162.10206,-0.00002
2160.17334,0.00030
2158.24461,0.00070
2156.31588,0.00121
2154.38716,0.00157
2152.45843,0.00180
2150.52971,0.00193
2148.60098,0.00191
2146.67225,0.00179
2144.74353,0.00174
2142.81480,0.00173
2140.88607,0.00166
2138.95735,0.00168
2137.02862,0.00190
2135.09990,0.00211
2133.17117,0.00216
2131.24244,0.00207
2129.31372,0.00193
2127.38499,0.00181
2125.45626,0.00169
2123.52754,0.00161
2121.59881,0.00158
2119.67009,0.00156
2117.74136,0.00153
2115.81263,0.00150
2113.88391,0.00146
2111.95518,0.00140
2110.02646,0.00133
2108.09773,0.00134
2106.16900,0.00147
2104.24028,0.00158
2102.31155,0.00160
2100.38282,0.00170
2098.45410,0.00183
2096.52537,0.00191
2094.59665,0.00194
2092.66792,0.00204
2090.73919,0.00218
2088.81047,0.00218
2086.88174,0.00200
2084.95301,0.00182
2083.02429,0.00174
2081.09556,0.00179
2079.16684,0.00187
2077.23811,0.00188
2075.30938,0.00180
2073.38066,0.00177
2071.45193,0.00190
2069.52321,0.00213
2067.59448,0.00245
2065.66575,0.00277
2063.73703,0.00271
2061.80830,0.00234
2059.87957,0.00205
2057.95085,0.00194
2056.02212,0.00197
2054.09340,0.00204
2052.16467,0.00199
2050.23594,0.00178
2048.30722,0.00166
2046.37849,0.00177
2044.44976,0.00210
2042.52104,0.00250
2040.59231,0.00258
2038.66359,0.00232
2036.73486,0.00213
2034.80613,0.00208
2032.87741,0.00202
2030.94868,0.00201
2029.01996,0.00215
2027.09123,0.00234
2025.16250,0.00243
2023.23378,0.00237
2021.30505,0.00237
2019.37632,0.00262
2017.44760,0.00284
2015.51887,0.00269
2013.59015,0.00239
2011.66142,0.00229
2009.73269,0.00248
2007.80397,0.00275
2005.87524,0.00271
2003.94651,0.00246
2002.01779,0.00233
2000.08906,0.00233
1998.16034,0.00220
1996.23161,0.00213
1994.30288,0.00260
1992.37416,0.00325
1990.44543,0.00324
1988.51670,0.00275
1986.58798,0.00231
1984.65925,0.00212
1982.73053,0.00213
1980.80180,0.00216
1978.87307,0.00220
1976.94435,0.00227
1975.01562,0.00229
1973.08690,0.00236
1971.15817,0.00275
1969.22944,0.00338
1967.30072,0.00366
1965.37199,0.00321
1963.44326,0.00269
1961.51454,0.00254
1959.58581,0.00260
1957.65709,0.00280
1955.72836,0.00306
1953.79963,0.00314
1951.87091,0.00298
1949.94218,0.00291
1948.01345,0.00326
1946.08473,0.00390
1944.15600,0.00428
1942.22728,0.00398
1940.29855,0.00325
1938.36982,0.00283
1936.44110,0.00282
1934.51237,0.00295
1932.58365,0.00296
1930.65492,0.00288
1928.72619,0.00282
1926.79747,0.00312
1924.86874,0.00399
1922.94001,0.00468
1921.01129,0.00453
1919.08256,0.00421
1917.15384,0.00381
1915.22511,0.00326
1913.29638,0.00312
1911.36766,0.00358
1909.43893,0.00403
1907.51020,0.00374
1905.58148,0.00313
1903.65275,0.00287
1901.72403,0.00289
1899.79530,0.00298
1897.86657,0.00324
1895.93785,0.00353
1894.00912,0.00354
1892.08040,0.00360
1890.15167,0.00388
1888.22294,0.00391
1886.29422,0.00373
1884.36549,0.00355
1882.43676,0.00327
1880.50804,0.00306
1878.57931,0.00303
1876.65059,0.00307
1874.72186,0.00320
1872.79313,0.00378
1870.86441,0.00516
1868.93568,0.00644
1867.00695,0.00570
1865.07823,0.00431
1863.14950,0.00369
1861.22078,0.00367
1859.29205,0.00368
1857.36332,0.00349
1855.43460,0.00328
1853.50587,0.00320
1851.57715,0.00341
1849.64842,0.00417
1847.71969,0.00544
1845.79097,0.00661
1843.86224,0.00640
1841.93351,0.00501
1840.00479,0.00418
1838.07606,0.00406
1836.14734,0.00402
1834.21861,0.00400
1832.28988,0.00448
1830.36116,0.00527
1828.43243,0.00542
1826.50370,0.00521
1824.57498,0.00492
1822.64625,0.00426
1820.71753,0.00370
1818.78880,0.00360
1816.86007,0.00367
1814.93135,0.00386
1813.00262,0.00451
1811.07390,0.00512
1809.14517,0.00494
1807.21644,0.00448
1805.28772,0.00448
1803.35899,0.00524
1801.43026,0.00609
1799.50154,0.00615
1797.57281,0.00612
1795.64409,0.00658
1793.71536,0.00727
1791.78663,0.00717
1789.85791,0.00578
1787.92918,0.00479
1786.00045,0.00474
1784.07173,0.00514
1782.14300,0.00556
1780.21428,0.00578
1778.28555,0.00565
1776.35682,0.00578
1774.42810,0.00664
1772.49937,0.00778
1770.57065,0.00775
1768.64192,0.00686
1766.71319,0.00597
1764.78447,0.00575
1762.85574,0.00640
1760.92701,0.00712
1758.99829,0.00737
1757.06956,0.00741
1755.14084,0.00746
1753.21211,0.00837
1751.28338,0.01077
1749.35466,0.01311
1747.42593,0.01314
1745.49720,0.01239
1743.56848,0.01174
1741.63975,0.01130
1739.71103,0.01130
1737.78230,0.01158
1735.85357,0.01234
1733.92485,0.01359
1731.99612,0.01301
1730.06740,0.01114
1728.13867,0.00960
1726.20994,0.00906
1724.28122,0.00933
1722.35249,0.00982
1720.42376,0.01061
1718.49504,0.01286
1716.56631,0.01528
1714.63759,0.01307
1712.70886,0.01056
1710.78013,0.00944
1708.85141,0.00953
1706.92268,0.01062
1704.99395,0.01178
1703.06523,0.01217
1701.13650,0.01281
1699.20778,0.01416
1697.27905,0.01355
1695.35032,0.01062
1693.42160,0.00881
1691.49287,0.00876
1689.56415,0.00984
1687.63542,0.01101
1685.70669,0.01192
1683.77797,0.01264
1681.84924,0.01193
1679.92051,0.01066
1677.99179,0.00982
1676.06306,0.00983
1674.13434,0.01034
1672.20561,0.01096
1670.27688,0.01127
1668.34816,0.01002
1666.41943,0.00896
1664.49070,0.00908
1662.56198,0.00958
1660.63325,0.00935
1658.70453,0.00935
1656.77580,0.01026
1654.84707,0.01196
1652.91835,0.01319
1650.98962,0.01289
1649.06090,0.01334
1647.13217,0.01345
1645.20344,0.01156
1643.27472,0.01035
1641.34599,0.01019
1639.41726,0.01082
1637.48854,0.01206
1635.55981,0.01187
1633.63109,0.01008
1631.70236,0.00924
1629.77363,0.00922
1627.84491,0.00971
1625.91618,0.01037
1623.98745,0.01098
1622.05873,0.01090
1620.13000,0.01058
1618.20128,0.01077
1616.27255,0.01064
1614.34382,0.00968
1612.41510,0.00921
1610.48637,0.00943
1608.55764,0.00978
1606.62892,0.00969
1604.70019,0.00958
1602.77147,0.00963
1600.84274,0.00943
1598.91401,0.00927
1596.98529,0.00957
1595.05656,0.00996
1593.12784,0.01000
1591.19911,0.00979
1589.27038,0.00936
1587.34166,0.00878
1585.41293,0.00838
1583.48420,0.00818
1581.55548,0.00819
1579.62675,0.00869
1577.69803,0.00976
1575.76930,0.00994
1573.84057,0.00896
1571.91185,0.00870
1569.98312,0.00894
1568.05439,0.00880
1566.12567,0.00862
1564.19694,0.00883
1562.26822,0.00937
1560.33949,0.01081
1558.41076,0.01356
1556.48204,0.01338
1554.55331,0.01203
1552.62459,0.01104
1550.69586,0.01058
1548.76713,0.01035
1546.83841,0.01103
1544.90968,0.01364
1542.98095,0.01775
1541.05223,0.01790
1539.12350,0.01335
1537.19478,0.01214
1535.26605,0.01244
1533.33732,0.01234
1531.40860,0.01136
1529.47987,0.01140
1527.55114,0.01297
1525.62242,0.01496
1523.69369,0.01631
1521.76497,0.01687
1519.83624,0.01615
1517.90751,0.01584
1515.97879,0.01558
1514.05006,0.01522
1512.12134,0.01592
1510.19261,0.01808
1508.26388,0.02037
1506.33516,0.01674
1504.40643,0.01380
1502.47770,0.01329
1500.54898,0.01355
1498.62025,0.01391
1496.69153,0.01287
1494.76280,0.01122
1492.83407,0.01100
1490.90535,0.01252
1488.97662,0.01361
1487.04789,0.01144
1485.11917,0.00946
1483.19044,0.00881
1481.26172,0.00887
1479.33299,0.00915
1477.40426,0.01019
1475.47554,0.01252
1473.54681,0.01463
1471.61809,0.01346
1469.68936,0.01203
1467.76063,0.01200
1465.83191,0.01281
1463.90318,0.01326
1461.97445,0.01343
1460.04573,0.01464
1458.11700,0.01777
1456.18828,0.01824
1454.25955,0.01565
1452.33082,0.01412
1450.40210,0.01358
1448.47337,0.01344
1446.54464,0.01272
1444.61592,0.01175
1442.68719,0.01132
1440.75847,0.01158
1438.82974,0.01264
1436.90101,0.01419
1434.97229,0.01450
1433.04356,0.01413
1431.11484,0.01416
1429.18611,0.01413
1427.25738,0.01399
1425.32866,0.01430
1423.39993,0.01490
1421.47120,0.01556
1419.54248,0.01657
1417.61375,0.01621
1415.68503,0.01448
1413.75630,0.01342
1411.82757,0.01306
1409.89885,0.01264
1407.97012,0.01231
1406.04139,0.01240
1404.11267,0.01231
1402.18394,0.01215
1400.25522,0.01284
1398.32649,0.01419
1396.39776,0.01475
1394.46904,0.01370
1392.54031,0.01231
1390.61159,0.01202
1388.68286,0.01281
1386.75413,0.01326
1384.82541,0.01260
1382.89668,0.01227
1380.96795,0.01277
1379.03923,0.01361
1377.11050,0.01451
1375.18178,0.01542
1373.25305,0.01540
1371.32432,0.01471
1369.39560,0.01428
1367.46687,0.01402
1365.53814,0.01423
1363.60942,0.01509
1361.68069,0.01507
1359.75197,0.01383
1357.82324,0.01298
1355.89451,0.01271
1353.96579,0.01243
1352.03706,0.01209
1350.10834,0.01196
1348.17961,0.01190
1346.25088,0.01185
1344.32216,0.01213
1342.39343,0.01333
1340.46470,0.01539
1338.53598,0.01608
1336.60725,0.01469
1334.67853,0.01349
1332.74980,0.01315
1330.82107,0.01321
1328.89235,0.01329
1326.96362,0.01332
1325.03489,0.01347
1323.10617,0.01389
1321.17744,0.01466
1319.24872,0.01537
1317.31999,0.01547
1315.39126,0.01525
1313.46254,0.01490
1311.53381,0.01420
1309.60509,0.01349
1307.67636,0.01298
1305.74763,0.01251
1303.81891,0.01210
1301.89018,0.01177
1299.96145,0.01157
1298.03273,0.01154
1296.10400,0.01149
1294.17528,0.01136
1292.24655,0.01143
1290.31782,0.01175
1288.38910,0.01203
1286.46037,0.01199
1284.53164,0.01188
1282.60292,0.01201
1280.67419,0.01228
1278.74547,0.01254
1276.81674,0.01282
1274.88801,0.01328
1272.95929,0.01395
1271.03056,0.01464
1269.10183,0.01518
1267.17311,0.01568
1265.24438,0.01624
1263.31566,0.01686
1261.38693,0.01740
1259.45820,0.01753
1257.52948,0.01722
1255.60075,0.01683
1253.67203,0.01656
1251.74330,0.01643
1249.81457,0.01641
1247.88585,0.01654
1245.95712,0.01679
1244.02839,0.01704
1242.09967,0.01722
1240.17094,0.01734
1238.24222,0.01742
1236.31349,0.01743
1234.38476,0.01743
1232.45604,0.01745
1230.52731,0.01741
1228.59858,0.01731
1226.66986,0.01719
1224.74113,0.01697
1222.81241,0.01662
1220.88368,0.01627
1218.95495,0.01596
1217.02623,0.01562
1215.09750,0.01528
1213.16878,0.01496
1211.24005,0.01462
1209.31132,0.01425
1207.38260,0.01392
1205.45387,0.01366
1203.52514,0.01342
1201.59642,0.01314
1199.66769,0.01283
1197.73897,0.01251
1195.81024,0.01217
1193.88151,0.01191
1191.95279,0.01176
1190.02406,0.01169
1188.09533,0.01169
1186.16661,0.01173
1184.23788,0.01180
1182.30916,0.01192
1180.38043,0.01213
1178.45170,0.01245
1176.52298,0.01291
1174.59425,0.01348
1172.66553,0.01413
1170.73680,0.01489
1168.80807,0.01579
1166.87935,0.01679
1164.95062,0.01788
1163.02189,0.01896
1161.09317,0.01981
1159.16444,0.02035
1157.23572,0.02064
1155.30699,0.02064
1153.37826,0.02042
1151.44954,0.02008
1149.52081,0.01975
1147.59208,0.01952
1145.66336,0.01936
1143.73463,0.01924
1141.80591,0.01916
1139.87718,0.01914
1137.94845,0.01931
1136.01973,0.01978
1134.09100,0.02051
1132.16228,0.02139
1130.23355,0.02233
1128.30482,0.02329
1126.37610,0.02420
1124.44737,0.02505
1122.51864,0.02577
1120.58992,0.02629
1118.66119,0.02679
1116.73247,0.02748
1114.80374,0.02824
1112.87501,0.02886
1110.94629,0.02932
1109.01756,0.02968
1107.08883,0.02993
1105.16011,0.03006
1103.23138,0.03010
1101.30266,0.03011
1099.37393,0.03014
1097.44520,0.03017
1095.51648,0.03020
1093.58775,0.03022
1091.65903,0.03027
1089.73030,0.03040
1087.80157,0.03061
1085.87285,0.03082
1083.94412,0.03102
1082.01539,0.03132
1080.08667,0.03183
1078.15794,0.03249
1076.22922,0.03315
1074.30049,0.03372
1072.37176,0.03428
1070.44304,0.03494
1068.51431,0.03576
1066.58558,0.03679
1064.65686,0.03803
1062.72813,0.03942
1060.79941,0.04081
1058.87068,0.04208
1056.94195,0.04312
1055.01323,0.04396
1053.08450,0.04467
1051.15578,0.04517
1049.22705,0.04544
1047.29832,0.04555
1045.36960,0.04560
1043.44087,0.04566
1041.51214,0.04584
1039.58342,0.04626
1037.65469,0.04695
1035.72597,0.04783
1033.79724,0.04868
1031.86851,0.04933
1029.93979,0.04967
1028.01106,0.04971
1026.08233,0.04958
1024.15361,0.04942
1022.22488,0.04926
1020.29616,0.04889
1018.36743,0.04829
1016.43870,0.04759
1014.50998,0.04679
1012.58125,0.04586
1010.65253,0.04481
1008.72380,0.04380
1006.79507,0.04291
1004.86635,0.04215
1002.93762,0.04152
1001.00889,0.04098
999.08017,0.04052
997.15144,0.04015
995.22272,0.03986
993.29399,0.03961
991.36526,0.03930
989.43654,0.03881
987.50781,0.03822
985.57908,0.03763
983.65036,0.03685
981.72163,0.03577
979.79291,0.03455
977.86418,0.03333
975.93545,0.03209
974.00673,0.03097
972.07800,0.03014
970.14928,0.02956
968.22055,0.02898
966.29182,0.02825
964.36310,0.02742
962.43437,0.02666
960.50564,0.02593
958.57692,0.02506
956.64819,0.02413
954.71947,0.02338
952.79074,0.02277
950.86201,0.02206
948.93329,0.02141
947.00456,0.02102
945.07583,0.02075
943.14711,0.02041
941.21838,0.02002
939.28966,0.01966
937.36093,0.01941
935.43220,0.01923
933.50348,0.01906
931.57475,0.01887
929.64603,0.01866
927.71730,0.01844
925.78857,0.01826
923.85985,0.01816
921.93112,0.01810
920.00239,0.01795
918.07367,0.01785
916.14494,0.01797
914.21622,0.01807
912.28749,0.01790
910.35876,0.01764
908.43004,0.01763
906.50131,0.01798
904.57258,0.01836
902.64386,0.01857
900.71513,0.01892
898.78641,0.01931
896.85768,0.01932
894.92895,0.01920
893.00023,0.01917
891.07150,0.01897
889.14277,0.01861
887.21405,0.01831
885.28532,0.01801
883.35660,0.01767
881.42787,0.01762
879.49914,0.01784
877.57042,0.01788
875.64169,0.01762
873.71297,0.01728
871.78424,0.01697
869.85551,0.01681
867.92679,0.01677
865.99806,0.01673
864.06933,0.01670
862.14061,0.01679
860.21188,0.01707
858.28316,0.01731
856.35443,0.01717
854.42570,0.01682
852.49698,0.01656
850.56825,0.01641
848.63952,0.01635
846.71080,0.01636
844.78207,0.01642
842.85335,0.01670
840.92462,0.01705
838.99589,0.01712
837.06717,0.01701
835.13844,0.01707
833.20972,0.01729
831.28099,0.01744
829.35226,0.01747
827.42354,0.01762
825.49481,0.01800
823.56608,0.01838
821.63736,0.01850
819.70863,0.01847
817.77991,0.01841
815.85118,0.01838
813.92245,0.01858
811.99373,0.01900
810.06500,0.01938
808.13627,0.01962
806.20755,0.01975
804.27882,0.01991
802.35010,0.02021
800.42137,0.02052
798.49264,0.02055
796.56392,0.02023
794.63519,0.01979
792.70647,0.01932
790.77774,0.01873
788.84901,0.01823
786.92029,0.01805
784.99156,0.01812
783.06283,0.01816
781.13411,0.01815
779.20538,0.01828
777.27666,0.01856
775.34793,0.01922
773.41920,0.01998
771.49048,0.01977
769.56175,0.01867
767.63302,0.01792
765.70430,0.01803
763.77557,0.01860
761.84685,0.01909
759.91812,0.01928
757.98939,0.01923
756.06067,0.01919
754.13194,0.01938
752.20322,0.01960
750.27449,0.01966
748.34576,0.01976
746.41704,0.02003
744.48831,0.02028
742.55958,0.02046
740.63086,0.02060
738.70213,0.02043
736.77341,0.02011
734.84468,0.02025
732.91595,0.02065
730.98723,0.02101
729.05850,0.02136
727.12977,0.02165
725.20105,0.02190
723.27232,0.02235
721.34360,0.02295
719.41487,0.02344
717.48614,0.02372
715.55742,0.02395
713.62869,0.02410
711.69997,0.02419
709.77124,0.02438
707.84251,0.02476
705.91379,0.02522
703.98506,0.02545
702.05633,0.02545
700.12761,0.02557
698.19888,0.02585
696.27016,0.02599
694.34143,0.02596
692.41270,0.02593
690.48398,0.02603
688.55525,0.02614
686.62652,0.02604
684.69780,0.02592
682.76907,0.02605
680.84035,0.02639
678.91162,0.02684
676.98289,0.02753
675.05417,0.02853
673.12544,0.02943
671.19672,0.02998
669.26799,0.03035
667.33926,0.03089
665.41054,0.03129
663.48181,0.03135
661.55308,0.03137
659.62436,0.03154
657.69563,0.03152
655.76691,0.03118
653.83818,0.03098
651.90945,0.03113
649.98073,0.03136
648.05200,0.03158
646.12327,0.03191
644.19455,0.03232
642.26582,0.03279
640.33710,0.03318
638.40837,0.03342
636.47964,0.03375
634.55092,0.03407
632.62219,0.03400
630.69347,0.03367
628.76474,0.03338
626.83601,0.03337
624.90729,0.03356
622.97856,0.03299
621.04983,0.03175
619.12111,0.03244
617.19238,0.03531
615.26366,0.03726
613.33493,0.03612
611.40620,0.03379
609.47748,0.03454
607.54875,0.03660
605.62002,0.03622
603.69130,0.03592
601.76257,0.03774
599.83385,0.04007
