4497.78948,-0.00362
4495.86076,-0.00370
4493.93203,-0.00368
4492.00330,-0.00366
4490.07458,-0.00358
4488.14585,-0.00349
4486.21712,-0.00357
4484.28840,-0.00370
4482.35967,-0.00365
4480.43095,-0.00338
4478.50222,-0.00317
4476.57349,-0.00324
4474.64477,-0.00342
4472.71604,-0.00351
4470.78732,-0.00350
4468.85859,-0.00349
4466.92986,-0.00352
4465.00114,-0.00348
4463.07241,-0.00333
4461.14368,-0.00329
4459.21496,-0.00343
4457.28623,-0.00350
4455.35751,-0.00344
4453.42878,-0.00332
4451.50005,-0.00327
4449.57133,-0.00335
4447.64260,-0.00345
4445.71387,-0.00342
4443.78515,-0.00320
4441.85642,-0.00296
4439.92770,-0.00290
4437.99897,-0.00302
4436.07024,-0.00316
4434.14152,-0.00324
4432.21279,-0.00332
4430.28407,-0.00336
4428.35534,-0.00324
4426.42661,-0.00300
4424.49789,-0.00286
4422.56916,-0.00296
4420.64043,-0.00313
4418.71171,-0.00316
4416.78298,-0.00301
4414.85426,-0.00288
4412.92553,-0.00287
4410.99680,-0.00295
4409.06808,-0.00306
4407.13935,-0.00309
4405.21062,-0.00302
4403.28190,-0.00299
4401.35317,-0.00301
4399.42445,-0.00297
4397.49572,-0.00288
4395.56699,-0.00283
4393.63827,-0.00283
4391.70954,-0.00287
4389.78082,-0.00288
4387.85209,-0.00285
4385.92336,-0.00285
4383.99464,-0.00289
4382.06591,-0.00289
4380.13718,-0.00285
4378.20846,-0.00285
4376.27973,-0.00293
4374.35101,-0.00301
4372.42228,-0.00301
4370.49355,-0.00296
4368.56483,-0.00290
4366.63610,-0.00283
4364.70737,-0.00283
4362.77865,-0.00282
4360.84992,-0.00275
4358.92120,-0.00273
4356.99247,-0.00281
4355.06374,-0.00294
4353.13502,-0.00305
4351.20629,-0.00307
4349.27757,-0.00299
4347.34884,-0.00293
4345.42011,-0.00294
4343.49139,-0.00293
4341.56266,-0.00282
4339.63393,-0.00269
4337.70521,-0.00265
4335.77648,-0.00267
4333.84776,-0.00268
4331.91903,-0.00265
4329.99030,-0.00259
4328.06158,-0.00255
4326.13285,-0.00258
4324.20412,-0.00259
4322.27540,-0.00255
4320.34667,-0.00258
4318.41795,-0.00267
4316.48922,-0.00272
4314.56049,-0.00271
4312.63177,-0.00270
4310.70304,-0.00274
4308.77432,-0.00280
4306.84559,-0.00281
4304.91686,-0.00279
4302.98814,-0.00280
4301.05941,-0.00279
4299.13068,-0.00274
4297.20196,-0.00274
4295.27323,-0.00277
4293.34451,-0.00270
4291.41578,-0.00256
4289.48705,-0.00249
4287.55833,-0.00251
4285.62960,-0.00256
4283.70087,-0.00258
4281.77215,-0.00253
4279.84342,-0.00246
4277.91470,-0.00247
4275.98597,-0.00253
4274.05724,-0.00254
4272.12852,-0.00242
4270.19979,-0.00232
4268.27107,-0.00242
4266.34234,-0.00252
4264.41361,-0.00250
4262.48489,-0.00245
4260.55616,-0.00245
4258.62743,-0.00247
4256.69871,-0.00247
4254.76998,-0.00246
4252.84126,-0.00248
4250.91253,-0.00256
4248.98380,-0.00268
4247.05508,-0.00271
4245.12635,-0.00261
4243.19762,-0.00252
4241.26890,-0.00244
4239.34017,-0.00238
4237.41145,-0.00237
4235.48272,-0.00241
4233.55399,-0.00251
4231.62527,-0.00261
4229.69654,-0.00260
4227.76782,-0.00252
4225.83909,-0.00245
4223.91036,-0.00241
4221.98164,-0.00242
4220.05291,-0.00246
4218.12418,-0.00249
4216.19546,-0.00245
4214.26673,-0.00233
4212.33801,-0.00227
4210.40928,-0.00233
4208.48055,-0.00238
4206.55183,-0.00238
4204.62310,-0.00239
4202.69437,-0.00235
4200.76565,-0.00227
4198.83692,-0.00226
4196.90820,-0.00225
4194.97947,-0.00218
4193.05074,-0.00214
4191.12202,-0.00219
4189.19329,-0.00230
4187.26456,-0.00239
4185.33584,-0.00244
4183.40711,-0.00242
4181.47839,-0.00236
4179.54966,-0.00230
4177.62093,-0.00224
4175.69221,-0.00218
4173.76348,-0.00214
4171.83476,-0.00208
4169.90603,-0.00200
4167.97730,-0.00195
4166.04858,-0.00194
4164.11985,-0.00204
4162.19112,-0.00219
4160.26240,-0.00230
4158.33367,-0.00236
4156.40495,-0.00236
4154.47622,-0.00226
4152.54749,-0.00216
4150.61877,-0.00219
4148.69004,-0.00222
4146.76131,-0.00212
4144.83259,-0.00200
4142.90386,-0.00197
4140.97514,-0.00200
4139.04641,-0.00207
4137.11768,-0.00210
4135.18896,-0.00205
4133.26023,-0.00203
4131.33151,-0.00212
4129.40278,-0.00217
4127.47405,-0.00210
4125.54533,-0.00203
4123.61660,-0.00205
4121.68787,-0.00210
4119.75915,-0.00211
4117.83042,-0.00206
4115.90170,-0.00201
4113.97297,-0.00203
4112.04424,-0.00206
4110.11552,-0.00199
4108.18679,-0.00182
4106.25806,-0.00169
4104.32934,-0.00175
4102.40061,-0.00191
4100.47189,-0.00200
4098.54316,-0.00197
4096.61443,-0.00193
4094.68571,-0.00192
4092.75698,-0.00189
4090.82826,-0.00180
4088.89953,-0.00172
4086.97080,-0.00173
4085.04208,-0.00175
4083.11335,-0.00175
4081.18462,-0.00180
4079.25590,-0.00194
4077.32717,-0.00207
4075.39845,-0.00205
4073.46972,-0.00190
4071.54099,-0.00180
4069.61227,-0.00184
4067.68354,-0.00197
4065.75481,-0.00200
4063.82609,-0.00188
4061.89736,-0.00167
4059.96864,-0.00154
4058.03991,-0.00161
4056.11118,-0.00169
4054.18246,-0.00169
4052.25373,-0.00169
4050.32501,-0.00169
4048.39628,-0.00160
4046.46755,-0.00145
4044.53883,-0.00141
4042.61010,-0.00152
4040.68137,-0.00167
4038.75265,-0.00180
4036.82392,-0.00182
4034.89520,-0.00173
4032.96647,-0.00174
4031.03774,-0.00184
4029.10902,-0.00183
4027.18029,-0.00160
4025.25156,-0.00140
4023.32284,-0.00135
4021.39411,-0.00131
4019.46539,-0.00128
4017.53666,-0.00125
4015.60793,-0.00121
4013.67921,-0.00123
4011.75048,-0.00127
4009.82176,-0.00124
4007.89303,-0.00127
4005.96430,-0.00143
4004.03558,-0.00158
4002.10685,-0.00160
4000.17812,-0.00150
3998.24940,-0.00130
3996.32067,-0.00111
3994.39195,-0.00102
3992.46322,-0.00088
3990.53449,-0.00082
3988.60577,-0.00108
3986.67704,-0.00132
3984.74831,-0.00120
3982.81959,-0.00098
3980.89086,-0.00099
3978.96214,-0.00102
3977.03341,-0.00071
3975.10468,-0.00038
3973.17596,-0.00039
3971.24723,-0.00053
3969.31851,-0.00079
3967.38978,-0.00111
3965.46105,-0.00107
3963.53233,-0.00059
3961.60360,-0.00022
3959.67487,-0.00021
3957.74615,-0.00034
3955.81742,-0.00048
3953.88870,-0.00042
3951.95997,0.00015
3950.03124,0.00096
3948.10252,0.00103
3946.17379,0.00064
3944.24506,0.00059
3942.31634,0.00038
3940.38761,-0.00022
3938.45889,-0.00062
3936.53016,-0.00044
3934.60143,0.00057
3932.67271,0.00180
3930.74398,0.00172
3928.81526,0.00084
3926.88653,0.00080
3924.95780,0.00137
3923.02908,0.00125
3921.10035,0.00098
3919.17162,0.00133
3917.24290,0.00130
3915.31417,0.00026
3913.38545,-0.00072
3911.45672,-0.00111
3909.52799,-0.00083
3907.59927,0.00046
3905.67054,0.00287
3903.74181,0.00487
3901.81309,0.00488
3899.88436,0.00367
3897.95564,0.00205
3896.02691,0.00135
3894.09818,0.00186
3892.16946,0.00222
3890.24073,0.00146
3888.31201,0.00132
3886.38328,0.00237
3884.45455,0.00323
3882.52583,0.00291
3880.59710,0.00181
3878.66837,0.00081
3876.73965,0.00074
3874.81092,0.00170
3872.88220,0.00333
3870.95347,0.00440
3869.02474,0.00389
3867.09602,0.00356
3865.16729,0.00426
3863.23856,0.00401
3861.30984,0.00254
3859.38111,0.00205
3857.45239,0.00300
3855.52366,0.00501
3853.59493,0.00625
3851.66621,0.00419
3849.73748,0.00212
3847.80876,0.00108
3845.88003,0.00129
3843.95130,0.00263
3842.02258,0.00455
3840.09385,0.00648
3838.16512,0.00640
3836.23640,0.00426
3834.30767,0.00265
3832.37895,0.00176
3830.45022,0.00142
3828.52149,0.00169
3826.59277,0.00229
3824.66404,0.00285
3822.73531,0.00370
3820.80659,0.00451
3818.87786,0.00413
3816.94914,0.00295
3815.02041,0.00124
3813.09168,0.00017
3811.16296,-0.00001
3809.23423,0.00057
3807.30550,0.00154
3805.37678,0.00220
3803.44805,0.00295
3801.51933,0.00368
3799.59060,0.00332
3797.66187,0.00226
3795.73315,0.00076
3793.80442,-0.00036
3791.87570,-0.00076
3789.94697,-0.00060
3788.01824,0.00007
3786.08952,0.00084
3784.16079,0.00092
3782.23206,0.00075
3780.30334,0.00082
3778.37461,0.00043
3776.44589,-0.00022
3774.51716,-0.00023
3772.58843,0.00059
3770.65971,0.00180
3768.73098,0.00229
3766.80225,0.00203
3764.87353,0.00152
3762.94480,0.00137
3761.01608,0.00211
3759.08735,0.00312
3757.15862,0.00337
3755.22990,0.00388
3753.30117,0.00594
3751.37245,0.00916
3749.44372,0.00900
3747.51499,0.00781
3745.58627,0.00705
3743.65754,0.00587
3741.72881,0.00517
3739.80009,0.00533
3737.87136,0.00650
3735.94264,0.00775
3734.01391,0.00605
3732.08518,0.00353
3730.15646,0.00249
3728.22773,0.00275
3726.29900,0.00373
3724.37028,0.00410
3722.44155,0.00321
3720.51283,0.00199
3718.58410,0.00130
3716.65537,0.00139
3714.72665,0.00227
3712.79792,0.00389
3710.86920,0.00411
3708.94047,0.00229
3707.01174,0.00112
3705.08302,0.00083
3703.15429,0.00107
3701.22556,0.00093
3699.29684,0.00039
3697.36811,0.00036
3695.43939,0.00096
3693.51066,0.00206
3691.58193,0.00402
3689.65321,0.00510
3687.72448,0.00304
3685.79575,0.00121
3683.86703,0.00044
3681.93830,0.00069
3680.00958,0.00192
3678.08085,0.00370
3676.15212,0.00477
3674.22340,0.00435
3672.29467,0.00457
3670.36595,0.00462
3668.43722,0.00265
3666.50849,0.00094
3664.57977,0.00018
3662.65104,0.00008
3660.72231,0.00044
3658.79359,0.00113
3656.86486,0.00191
3654.93614,0.00233
3653.00741,0.00310
3651.07868,0.00565
3649.14996,0.00835
3647.22123,0.00543
3645.29250,0.00311
3643.36378,0.00214
3641.43505,0.00158
3639.50633,0.00119
3637.57760,0.00114
3635.64887,0.00148
3633.72015,0.00224
3631.79142,0.00342
3629.86270,0.00486
3627.93397,0.00432
3626.00524,0.00268
3624.07652,0.00208
3622.14779,0.00284
3620.21906,0.00478
3618.29034,0.00580
3616.36161,0.00557
3614.43289,0.00546
3612.50416,0.00517
3610.57543,0.00483
3608.64671,0.00428
3606.71798,0.00311
3604.78925,0.00240
3602.86053,0.00274
3600.93180,0.00356
3599.00308,0.00393
3597.07435,0.00400
3595.14562,0.00383
3593.21690,0.00320
3591.28817,0.00325
3589.35945,0.00483
3587.43072,0.00597
3585.50199,0.00443
3583.57327,0.00304
3581.64454,0.00261
3579.71581,0.00256
3577.78709,0.00250
3575.85836,0.00241
3573.92964,0.00245
3572.00091,0.00297
3570.07218,0.00452
3568.14346,0.00710
3566.21473,0.00760
3564.28600,0.00570
3562.35728,0.00436
3560.42855,0.00360
3558.49983,0.00299
3556.57110,0.00290
3554.64237,0.00351
3552.71365,0.00403
3550.78492,0.00402
3548.85620,0.00450
3546.92747,0.00570
3544.99874,0.00578
3543.07002,0.00426
3541.14129,0.00298
3539.21256,0.00282
3537.28384,0.00322
3535.35511,0.00328
3533.42639,0.00334
3531.49766,0.00402
3529.56893,0.00509
3527.64021,0.00589
3525.71148,0.00624
3523.78275,0.00592
3521.85403,0.00484
3519.92530,0.00389
3517.99658,0.00339
3516.06785,0.00310
3514.13912,0.00323
3512.21040,0.00391
3510.28167,0.00443
3508.35295,0.00433
3506.42422,0.00455
3504.49549,0.00553
3502.56677,0.00579
3500.63804,0.00484
3498.70931,0.00417
3496.78059,0.00404
3494.85186,0.00385
3492.92314,0.00364
3490.99441,0.00384
3489.06568,0.00426
3487.13696,0.00444
3485.20823,0.00453
3483.27950,0.00490
3481.35078,0.00505
3479.42205,0.00460
3477.49333,0.00427
3475.56460,0.00433
3473.63587,0.00434
3471.70715,0.00422
3469.77842,0.00428
3467.84970,0.00454
3465.92097,0.00479
3463.99224,0.00507
3462.06352,0.00522
3460.13479,0.00508
3458.20606,0.00493
3456.27734,0.00488
3454.34861,0.00476
3452.41989,0.00470
3450.49116,0.00510
3448.56243,0.00590
3446.63371,0.00629
3444.70498,0.00611
3442.77625,0.00585
3440.84753,0.00555
3438.91880,0.00527
3436.99008,0.00515
3435.06135,0.00522
3433.13262,0.00548
3431.20390,0.00567
3429.27517,0.00567
3427.34644,0.00567
3425.41772,0.00594
3423.48899,0.00650
3421.56027,0.00687
3419.63154,0.00667
3417.70281,0.00630
3415.77409,0.00617
3413.84536,0.00622
3411.91664,0.00628
3409.98791,0.00633
3408.05918,0.00639
3406.13046,0.00646
3404.20173,0.00656
3402.27300,0.00664
3400.34428,0.00675
3398.41555,0.00694
3396.48683,0.00712
3394.55810,0.00726
3392.62937,0.00726
3390.70065,0.00698
3388.77192,0.00678
3386.84319,0.00692
3384.91447,0.00712
3382.98574,0.00713
3381.05702,0.00706
3379.12829,0.00702
3377.19956,0.00698
3375.27084,0.00694
3373.34211,0.00695
3371.41339,0.00713
3369.48466,0.00748
3367.55593,0.00777
3365.62721,0.00783
3363.69848,0.00780
3361.76975,0.00782
3359.84103,0.00783
3357.91230,0.00784
3355.98358,0.00781
3354.05485,0.00769
3352.12612,0.00758
3350.19740,0.00755
3348.26867,0.00759
3346.33994,0.00771
3344.41122,0.00788
3342.48249,0.00803
3340.55377,0.00813
3338.62504,0.00830
3336.69631,0.00842
3334.76759,0.00831
3332.83886,0.00812
3330.91014,0.00806
3328.98141,0.00809
3327.05268,0.00811
3325.12396,0.00810
3323.19523,0.00804
3321.26650,0.00795
3319.33778,0.00789
3317.40905,0.00789
3315.48033,0.00797
3313.55160,0.00810
3311.62287,0.00824
3309.69415,0.00828
3307.76542,0.00812
3305.83669,0.00796
3303.90797,0.00796
3301.97924,0.00801
3300.05052,0.00805
3298.12179,0.00808
3296.19306,0.00809
3294.26434,0.00814
3292.33561,0.00826
3290.40689,0.00831
3288.47816,0.00827
3286.54943,0.00829
3284.62071,0.00838
3282.69198,0.00835
3280.76325,0.00821
3278.83453,0.00817
3276.90580,0.00823
3274.97708,0.00830
3273.04835,0.00825
3271.11962,0.00812
3269.19090,0.00803
3267.26217,0.00805
3265.33344,0.00810
3263.40472,0.00808
3261.47599,0.00797
3259.54727,0.00786
3257.61854,0.00786
3255.68981,0.00790
3253.76109,0.00776
3251.83236,0.00751
3249.90364,0.00745
3247.97491,0.00767
3246.04618,0.00787
3244.11746,0.00779
3242.18873,0.00762
3240.26000,0.00755
3238.33128,0.00748
3236.40255,0.00740
3234.47383,0.00736
3232.54510,0.00737
3230.61637,0.00738
3228.68765,0.00733
3226.75892,0.00719
3224.83019,0.00705
3222.90147,0.00702
3220.97274,0.00708
3219.04402,0.00707
3217.11529,0.00699
3215.18656,0.00696
3213.25784,0.00695
3211.32911,0.00691
3209.40039,0.00686
3207.47166,0.00682
3205.54293,0.00682
3203.61421,0.00686
3201.68548,0.00691
3199.75675,0.00701
3197.82803,0.00706
3195.89930,0.00692
3193.97058,0.00669
3192.04185,0.00655
3190.11312,0.00652
3188.18440,0.00655
3186.25567,0.00655
3184.32694,0.00645
3182.39822,0.00638
3180.46949,0.00646
3178.54077,0.00650
3176.61204,0.00637
3174.68331,0.00622
3172.75459,0.00618
3170.82586,0.00614
3168.89714,0.00606
3166.96841,0.00598
3165.03968,0.00589
3163.11096,0.00579
3161.18223,0.00570
3159.25350,0.00565
3157.32478,0.00566
3155.39605,0.00567
3153.46733,0.00568
3151.53860,0.00572
3149.60987,0.00573
3147.68115,0.00566
3145.75242,0.00556
3143.82369,0.00549
3141.89497,0.00544
3139.96624,0.00542
3138.03752,0.00545
3136.10879,0.00551
3134.18006,0.00553
3132.25134,0.00545
3130.32261,0.00534
3128.39389,0.00535
3126.46516,0.00541
3124.53643,0.00546
3122.60771,0.00552
3120.67898,0.00555
3118.75025,0.00547
3116.82153,0.00532
3114.89280,0.00519
3112.96408,0.00515
3111.03535,0.00515
3109.10662,0.00509
3107.17790,0.00500
3105.24917,0.00503
3103.32044,0.00518
3101.39172,0.00528
3099.46299,0.00521
3097.53427,0.00511
3095.60554,0.00505
3093.67681,0.00491
3091.74809,0.00475
3089.81936,0.00469
3087.89063,0.00469
3085.96191,0.00468
3084.03318,0.00475
3082.10446,0.00487
3080.17573,0.00491
3078.24700,0.00482
3076.31828,0.00467
3074.38955,0.00459
3072.46083,0.00459
3070.53210,0.00463
3068.60337,0.00473
3066.67465,0.00482
3064.74592,0.00476
3062.81719,0.00459
3060.88847,0.00451
3058.95974,0.00459
3057.03102,0.00466
3055.10229,0.00461
3053.17356,0.00451
3051.24484,0.00453
3049.31611,0.00459
3047.38738,0.00453
3045.45866,0.00441
3043.52993,0.00433
3041.60121,0.00430
3039.67248,0.00427
3037.74375,0.00428
3035.81503,0.00441
3033.88630,0.00463
3031.95758,0.00469
3030.02885,0.00450
3028.10012,0.00428
3026.17140,0.00418
3024.24267,0.00413
3022.31394,0.00406
3020.38522,0.00393
3018.45649,0.00382
3016.52777,0.00389
3014.59904,0.00409
3012.67031,0.00424
3010.74159,0.00424
3008.81286,0.00415
3006.88413,0.00410
3004.95541,0.00410
3003.02668,0.00405
3001.09796,0.00399
2999.16923,0.00398
2997.24050,0.00402
2995.31178,0.00408
2993.38305,0.00407
2991.45433,0.00403
2989.52560,0.00404
2987.59687,0.00407
2985.66815,0.00409
2983.73942,0.00419
2981.81069,0.00433
2979.88197,0.00441
2977.95324,0.00445
2976.02452,0.00456
2974.09579,0.00472
2972.16706,0.00487
2970.23834,0.00505
2968.30961,0.00528
2966.38088,0.00552
2964.45216,0.00571
2962.52343,0.00584
2960.59471,0.00590
2958.66598,0.00595
2956.73725,0.00599
2954.80853,0.00602
2952.87980,0.00603
2950.95108,0.00605
2949.02235,0.00611
2947.09362,0.00619
2945.16490,0.00627
2943.23617,0.00636
2941.30744,0.00650
2939.37872,0.00670
2937.44999,0.00697
2935.52127,0.00731
2933.59254,0.00766
2931.66381,0.00795
2929.73509,0.00819
2927.80636,0.00844
2925.87763,0.00872
2923.94891,0.00891
2922.02018,0.00896
2920.09146,0.00892
2918.16273,0.00880
2916.23400,0.00860
2914.30528,0.00839
2912.37655,0.00818
2910.44783,0.00795
2908.51910,0.00777
2906.59037,0.00767
2904.66165,0.00759
2902.73292,0.00752
2900.80419,0.00746
2898.87547,0.00738
2896.94674,0.00727
2895.01802,0.00716
2893.08929,0.00706
2891.16056,0.00696
2889.23184,0.00688
2887.30311,0.00681
2885.37438,0.00673
2883.44566,0.00666
2881.51693,0.00665
2879.58821,0.00668
2877.65948,0.00672
2875.73075,0.00679
2873.80203,0.00685
2871.87330,0.00686
2869.94458,0.00685
2868.01585,0.00684
2866.08712,0.00685
2864.15840,0.00692
2862.22967,0.00703
2860.30094,0.00718
2858.37222,0.00739
2856.44349,0.00761
2854.51477,0.00775
2852.58604,0.00776
2850.65731,0.00765
2848.72859,0.00744
2846.79986,0.00715
2844.87113,0.00685
2842.94241,0.00658
2841.01368,0.00632
2839.08496,0.00607
2837.15623,0.00587
2835.22750,0.00573
2833.29878,0.00561
2831.37005,0.00553
2829.44133,0.00546
2827.51260,0.00537
2825.58387,0.00527
2823.65515,0.00517
2821.72642,0.00509
2819.79769,0.00506
2817.86897,0.00506
2815.94024,0.00507
2814.01152,0.00506
2812.08279,0.00501
2810.15406,0.00492
2808.22534,0.00482
2806.29661,0.00476
2804.36788,0.00474
2802.43916,0.00476
2800.51043,0.00479
2798.58171,0.00479
2796.65298,0.00477
2794.72425,0.00473
2792.79553,0.00470
2790.86680,0.00468
2788.93808,0.00466
2787.00935,0.00464
2785.08062,0.00461
2783.15190,0.00463
2781.22317,0.00466
2779.29444,0.00463
2777.36572,0.00457
2775.43699,0.00457
2773.50827,0.00461
2771.57954,0.00461
2769.65081,0.00457
2767.72209,0.00451
2765.79336,0.00446
2763.86463,0.00444
2761.93591,0.00444
2760.00718,0.00446
2758.07846,0.00448
2756.14973,0.00451
2754.22100,0.00449
2752.29228,0.00446
2750.36355,0.00447
2748.43483,0.00449
2746.50610,0.00450
2744.57737,0.00451
2742.64865,0.00451
2740.71992,0.00447
2738.79119,0.00443
2736.86247,0.00441
2734.93374,0.00441
2733.00502,0.00441
2731.07629,0.00444
2729.14756,0.00449
2727.21884,0.00449
2725.29011,0.00443
2723.36138,0.00440
2721.43266,0.00443
2719.50393,0.00444
2717.57521,0.00443
2715.64648,0.00445
2713.71775,0.00448
2711.78903,0.00447
2709.86030,0.00442
2707.93157,0.00441
2706.00285,0.00444
2704.07412,0.00447
2702.14540,0.00446
2700.21667,0.00447
2698.28794,0.00450
2696.35922,0.00451
2694.43049,0.00448
2692.50177,0.00444
2690.57304,0.00444
2688.64431,0.00443
2686.71559,0.00441
2684.78686,0.00438
2682.85813,0.00436
2680.92941,0.00437
2679.00068,0.00438
2677.07196,0.00439
2675.14323,0.00438
2673.21450,0.00438
2671.28578,0.00441
2669.35705,0.00445
2667.42832,0.00446
2665.49960,0.00444
2663.57087,0.00441
2661.64215,0.00436
2659.71342,0.00430
2657.78469,0.00425
2655.85597,0.00422
2653.92724,0.00423
2651.99852,0.00426
2650.06979,0.00424
2648.14106,0.00415
2646.21234,0.00403
2644.28361,0.00396
2642.35488,0.00397
2640.42616,0.00400
2638.49743,0.00398
2636.56871,0.00392
2634.63998,0.00383
2632.71125,0.00378
2630.78253,0.00379
2628.85380,0.00382
2626.92507,0.00385
2624.99635,0.00384
2623.06762,0.00377
2621.13890,0.00370
2619.21017,0.00366
2617.28144,0.00363
2615.35272,0.00363
2613.42399,0.00366
2611.49527,0.00368
2609.56654,0.00364
2607.63781,0.00358
2605.70909,0.00355
2603.78036,0.00357
2601.85163,0.00358
2599.92291,0.00358
2597.99418,0.00361
2596.06546,0.00367
2594.13673,0.00373
2592.20800,0.00373
2590.27928,0.00371
2588.35055,0.00370
2586.42182,0.00371
2584.49310,0.00375
2582.56437,0.00374
2580.63565,0.00368
2578.70692,0.00362
2576.77819,0.00359
2574.84947,0.00357
2572.92074,0.00363
2570.99202,0.00372
2569.06329,0.00377
2567.13456,0.00372
2565.20584,0.00360
2563.27711,0.00350
2561.34838,0.00348
2559.41966,0.00351
2557.49093,0.00353
2555.56221,0.00349
2553.63348,0.00345
2551.70475,0.00344
2549.77603,0.00342
2547.84730,0.00343
2545.91857,0.00349
2543.98985,0.00356
2542.06112,0.00358
2540.13240,0.00361
2538.20367,0.00366
2536.27494,0.00365
2534.34622,0.00361
2532.41749,0.00364
2530.48877,0.00368
2528.56004,0.00368
2526.63131,0.00366
2524.70259,0.00365
2522.77386,0.00361
2520.84513,0.00356
2518.91641,0.00358
2516.98768,0.00358
2515.05896,0.00352
2513.13023,0.00349
2511.20150,0.00352
2509.27278,0.00355
2507.34405,0.00359
2505.41532,0.00368
2503.48660,0.00377
2501.55787,0.00374
2499.62915,0.00362
2497.70042,0.00350
2495.77169,0.00346
2493.84297,0.00350
2491.91424,0.00355
2489.98552,0.00357
2488.05679,0.00358
2486.12806,0.00355
2484.19934,0.00350
2482.27061,0.00351
2480.34188,0.00357
2478.41316,0.00360
2476.48443,0.00359
2474.55571,0.00359
2472.62698,0.00360
2470.69825,0.00366
2468.76953,0.00375
2466.84080,0.00375
2464.91207,0.00363
2462.98335,0.00354
2461.05462,0.00354
2459.12590,0.00356
2457.19717,0.00356
2455.26844,0.00353
2453.33972,0.00348
2451.41099,0.00342
2449.48227,0.00338
2447.55354,0.00336
2445.62481,0.00336
2443.69609,0.00337
2441.76736,0.00338
2439.83863,0.00342
2437.90991,0.00351
2435.98118,0.00360
2434.05246,0.00363
2432.12373,0.00365
2430.19500,0.00368
2428.26628,0.00369
2426.33755,0.00360
2424.40882,0.00352
2422.48010,0.00355
2420.55137,0.00363
2418.62265,0.00364
2416.69392,0.00360
2414.76519,0.00359
2412.83647,0.00361
2410.90774,0.00364
2408.97902,0.00367
2407.05029,0.00372
2405.12156,0.00374
2403.19284,0.00374
2401.26411,0.00376
2399.33538,0.00378
2397.40666,0.00376
2395.47793,0.00373
2393.54921,0.00374
2391.62048,0.00378
2389.69175,0.00385
2387.76303,0.00397
2385.83430,0.00413
2383.90557,0.00430
2381.97685,0.00437
2380.04812,0.00427
2378.11940,0.00394
2376.19067,0.00333
2374.26194,0.00248
2372.33322,0.00148
2370.40449,0.00033
2368.47576,-0.00095
2366.54704,-0.00204
2364.61831,-0.00263
2362.68959,-0.00269
2360.76086,-0.00250
2358.83213,-0.00248
2356.90341,-0.00220
2354.97468,-0.00111
2353.04596,0.00043
2351.11723,0.00168
2349.18850,0.00218
2347.25978,0.00184
2345.33105,0.00073
2343.40232,-0.00060
2341.47360,-0.00125
2339.54487,-0.00124
2337.61615,-0.00110
2335.68742,-0.00092
2333.75869,-0.00042
2331.82997,0.00026
2329.90124,0.00066
2327.97251,0.00087
2326.04379,0.00123
2324.11506,0.00177
2322.18634,0.00239
2320.25761,0.00293
2318.32888,0.00327
2316.40016,0.00350
2314.47143,0.00379
2312.54271,0.00418
2310.61398,0.00444
2308.68525,0.00446
2306.75653,0.00438
2304.82780,0.00431
2302.89907,0.00418
2300.97035,0.00403
2299.04162,0.00394
2297.11290,0.00388
2295.18417,0.00383
2293.25544,0.00379
2291.32672,0.00374
2289.39799,0.00368
2287.46926,0.00360
2285.54054,0.00352
2283.61181,0.00346
2281.68309,0.00336
2279.75436,0.00324
2277.82563,0.00321
2275.89691,0.00320
2273.96818,0.00313
2272.03946,0.00313
2270.11073,0.00320
2268.18200,0.00322
2266.25328,0.00324
2264.32455,0.00328
2262.39582,0.00329
2260.46710,0.00325
2258.53837,0.00323
2256.60965,0.00329
2254.68092,0.00336
2252.75219,0.00337
2250.82347,0.00337
2248.89474,0.00344
2246.96601,0.00356
2245.03729,0.00364
2243.10856,0.00358
2241.17984,0.00342
2239.25111,0.00325
2237.32238,0.00313
2235.39366,0.00315
2233.46493,0.00323
2231.53621,0.00329
2229.60748,0.00335
2227.67875,0.00334
2225.75003,0.00328
2223.82130,0.00328
2221.89257,0.00329
2219.96385,0.00323
2218.03512,0.00318
2216.10640,0.00313
2214.17767,0.00300
2212.24894,0.00285
2210.32022,0.00279
2208.39149,0.00285
2206.46276,0.00283
2204.53404,0.00271
2202.60531,0.00276
2200.67659,0.00289
2198.74786,0.00288
2196.81913,0.00275
2194.89041,0.00256
2192.96168,0.00234
2191.03296,0.00230
2189.10423,0.00236
2187.17550,0.00216
2185.24678,0.00183
2183.31805,0.00181
2181.38932,0.00197
2179.46060,0.00213
2177.53187,0.00241
2175.60315,0.00257
2173.67442,0.00234
2171.74569,0.00194
2169.81697,0.00163
2167.88824,0.00138
2165.95951,0.00123
2164.03079,0.00143
2162.10206,0.00196
2160.17334,0.00242
2158.24461,0.00279
2156.31588,0.00313
2154.38716,0.00333
2152.45843,0.00334
2150.52971,0.00319
2148.60098,0.00305
2146.67225,0.00302
2144.74353,0.00309
2142.81480,0.00324
2140.88607,0.00335
2138.95735,0.00340
2137.02862,0.00349
2135.09990,0.00356
2133.17117,0.00347
2131.24244,0.00328
2129.31372,0.00318
2127.38499,0.00317
2125.45626,0.00315
2123.52754,0.00309
2121.59881,0.00295
2119.67009,0.00284
2117.74136,0.00286
2115.81263,0.00296
2113.88391,0.00305
2111.95518,0.00304
2110.02646,0.00293
2108.09773,0.00287
2106.16900,0.00295
2104.24028,0.00303
2102.31155,0.00307
2100.38282,0.00317
2098.45410,0.00331
2096.52537,0.00340
2094.59665,0.00348
2092.66792,0.00355
2090.73919,0.00355
2088.81047,0.00351
2086.88174,0.00341
2084.95301,0.00327
2083.02429,0.00326
2081.09556,0.00340
2079.16684,0.00347
2077.23811,0.00339
2075.30938,0.00323
2073.38066,0.00316
2071.45193,0.00334
2069.52321,0.00362
2067.59448,0.00387
2065.66575,0.00410
2063.73703,0.00413
2061.80830,0.00398
2059.87957,0.00387
2057.95085,0.00381
2056.02212,0.00370
2054.09340,0.00352
2052.16467,0.00327
2050.23594,0.00304
2048.30722,0.00306
2046.37849,0.00336
2044.44976,0.00379
2042.52104,0.00410
2040.59231,0.00394
2038.66359,0.00353
2036.73486,0.00342
2034.80613,0.00353
2032.87741,0.00354
2030.94868,0.00356
2029.01996,0.00374
2027.09123,0.00389
2025.16250,0.00388
2023.23378,0.00371
2021.30505,0.00365
2019.37632,0.00404
2017.44760,0.00454
2015.51887,0.00442
2013.59015,0.00396
2011.66142,0.00378
2009.73269,0.00392
2007.80397,0.00405
2005.87524,0.00403
2003.94651,0.00395
2002.01779,0.00386
2000.08906,0.00376
1998.16034,0.00376
1996.23161,0.00402
1994.30288,0.00461
1992.37416,0.00518
1990.44543,0.00511
1988.51670,0.00460
1986.58798,0.00416
1984.65925,0.00395
1982.73053,0.00389
1980.80180,0.00380
1978.87307,0.00366
1976.94435,0.00363
1975.01562,0.00375
1973.08690,0.00391
1971.15817,0.00421
1969.22944,0.00480
1967.30072,0.00513
1965.37199,0.00466
1963.44326,0.00400
1961.51454,0.00380
1959.58581,0.00398
1957.65709,0.00436
1955.72836,0.00465
1953.79963,0.00461
1951.87091,0.00440
1949.94218,0.00435
1948.01345,0.00467
1946.08473,0.00525
1944.15600,0.00571
1942.22728,0.00557
1940.29855,0.00494
1938.36982,0.00448
1936.44110,0.00440
1934.51237,0.00447
1932.58365,0.00444
1930.65492,0.00429
1928.72619,0.00422
1926.79747,0.00458
1924.86874,0.00551
1922.94001,0.00622
1921.01129,0.00604
1919.08256,0.00563
1917.15384,0.00513
1915.22511,0.00459
1913.29638,0.00456
1911.36766,0.00511
1909.43893,0.00557
1907.51020,0.00527
1905.58148,0.00467
1903.65275,0.00441
1901.72403,0.00448
1899.79530,0.00464
1897.86657,0.00495
1895.93785,0.00527
1894.00912,0.00526
1892.08040,0.00527
1890.15167,0.00554
1888.22294,0.00545
1886.29422,0.00508
1884.36549,0.00479
1882.43676,0.00451
1880.50804,0.00437
1878.57931,0.00440
1876.65059,0.00444
1874.72186,0.00455
1872.79313,0.00516
1870.86441,0.00659
1868.93568,0.00789
1867.00695,0.00710
1865.07823,0.00572
1863.14950,0.00515
1861.22078,0.00511
1859.29205,0.00503
1857.36332,0.00477
1855.43460,0.00455
1853.50587,0.00450
1851.57715,0.00473
1849.64842,0.00549
1847.71969,0.00677
1845.79097,0.00803
1843.86224,0.00789
1841.93351,0.00648
1840.00479,0.00563
1838.07606,0.00550
1836.14734,0.00546
1834.21861,0.00541
1832.28988,0.00584
1830.36116,0.00659
1828.43243,0.00672
1826.50370,0.00657
1824.57498,0.00637
1822.64625,0.00573
1820.71753,0.00516
1818.78880,0.00505
1816.86007,0.00507
1814.93135,0.00525
1813.00262,0.00594
1811.07390,0.00659
1809.14517,0.00639
1807.21644,0.00590
1805.28772,0.00591
1803.35899,0.00672
1801.43026,0.00768
1799.50154,0.00783
1797.57281,0.00783
1795.64409,0.00826
1793.71536,0.00891
1791.78663,0.00874
1789.85791,0.00731
1787.92918,0.00634
1786.00045,0.00631
1784.07173,0.00669
1782.14300,0.00710
1780.21428,0.00732
1778.28555,0.00719
1776.35682,0.00734
1774.42810,0.00826
1772.49937,0.00940
1770.57065,0.00930
1768.64192,0.00838
1766.71319,0.00747
1764.78447,0.00725
1762.85574,0.00796
1760.92701,0.00879
1758.99829,0.00911
1757.06956,0.00921
1755.14084,0.00933
1753.21211,0.01032
1751.28338,0.01281
1749.35466,0.01531
1747.42593,0.01549
1745.49720,0.01481
1743.56848,0.01419
1741.63975,0.01380
1739.71103,0.01389
1737.78230,0.01427
1735.85357,0.01511
1733.92485,0.01648
1731.99612,0.01593
1730.06740,0.01394
1728.13867,0.01230
1726.20994,0.01173
1724.28122,0.01200
1722.35249,0.01248
1720.42376,0.01327
1718.49504,0.01551
1716.56631,0.01786
1714.63759,0.01560
1712.70886,0.01307
1710.78013,0.01194
1708.85141,0.01200
1706.92268,0.01306
1704.99395,0.01426
1703.06523,0.01469
1701.13650,0.01537
1699.20778,0.01684
1697.27905,0.01637
1695.35032,0.01343
1693.42160,0.01161
1691.49287,0.01162
1689.56415,0.01281
1687.63542,0.01403
1685.70669,0.01490
1683.77797,0.01568
1681.84924,0.01518
1679.92051,0.01403
1677.99179,0.01328
1676.06306,0.01344
1674.13434,0.01415
1672.20561,0.01490
1670.27688,0.01532
1668.34816,0.01417
1666.41943,0.01319
1664.49070,0.01342
1662.56198,0.01407
1660.63325,0.01393
1658.70453,0.01395
1656.77580,0.01487
1654.84707,0.01661
1652.91835,0.01798
1650.98962,0.01780
1649.06090,0.01832
1647.13217,0.01858
1645.20344,0.01672
1643.27472,0.01542
1641.34599,0.01517
1639.41726,0.01576
1637.48854,0.01700
1635.55981,0.01682
1633.63109,0.01501
1631.70236,0.01419
1629.77363,0.01425
1627.84491,0.01479
1625.91618,0.01542
1623.98745,0.01599
1622.05873,0.01589
1620.13000,0.01557
1618.20128,0.01577
1616.27255,0.01565
1614.34382,0.01471
1612.41510,0.01425
1610.48637,0.01452
1608.55764,0.01492
1606.62892,0.01487
1604.70019,0.01478
1602.77147,0.01485
1600.84274,0.01465
1598.91401,0.01450
1596.98529,0.01484
1595.05656,0.01528
1593.12784,0.01534
1591.19911,0.01512
1589.27038,0.01468
1587.34166,0.01413
1585.41293,0.01377
1583.48420,0.01359
1581.55548,0.01357
1579.62675,0.01401
1577.69803,0.01505
1575.76930,0.01517
1573.84057,0.01411
1571.91185,0.01378
1569.98312,0.01393
1568.05439,0.01370
1566.12567,0.01347
1564.19694,0.01365
1562.26822,0.01418
1560.33949,0.01555
1558.41076,0.01816
1556.48204,0.01805
1554.55331,0.01676
1552.62459,0.01578
1550.69586,0.01532
1548.76713,0.01515
1546.83841,0.01595
1544.90968,0.01875
1542.98095,0.02316
1541.05223,0.02341
1539.12350,0.01834
1537.19478,0.01689
1535.26605,0.01716
1533.33732,0.01709
1531.40860,0.01611
1529.47987,0.01614
1527.55114,0.01773
1525.62242,0.01979
1523.69369,0.02125
1521.76497,0.02189
1519.83624,0.02120
1517.90751,0.02099
1515.97879,0.02086
1514.05006,0.02061
1512.12134,0.02146
1510.19261,0.02375
1508.26388,0.02606
1506.33516,0.02213
1504.40643,0.01905
1502.47770,0.01848
1500.54898,0.01873
1498.62025,0.01912
1496.69153,0.01811
1494.76280,0.01641
1492.83407,0.01620
1490.90535,0.01780
1488.97662,0.01891
1487.04789,0.01672
1485.11917,0.01477
1483.19044,0.01417
1481.26172,0.01430
1479.33299,0.01469
1477.40426,0.01587
1475.47554,0.01832
1473.54681,0.02049
1471.61809,0.01942
1469.68936,0.01815
1467.76063,0.01827
1465.83191,0.01921
1463.90318,0.01977
1461.97445,0.02004
1460.04573,0.02139
1458.11700,0.02469
1456.18828,0.02521
1454.25955,0.02262
1452.33082,0.02113
1450.40210,0.02066
1448.47337,0.02061
1446.54464,0.01997
1444.61592,0.01903
1442.68719,0.01858
1440.75847,0.01881
1438.82974,0.01986
1436.90101,0.02147
1434.97229,0.02184
1433.04356,0.02153
1431.11484,0.02163
1429.18611,0.02164
1427.25738,0.02150
1425.32866,0.02183
1423.39993,0.02245
1421.47120,0.02314
1419.54248,0.02423
1417.61375,0.02395
1415.68503,0.02219
1413.75630,0.02110
1411.82757,0.02072
1409.89885,0.02025
1407.97012,0.01985
1406.04139,0.01987
1404.11267,0.01965
1402.18394,0.01935
1400.25522,0.01994
1398.32649,0.02117
1396.39776,0.02160
1394.46904,0.02042
1392.54031,0.01894
1390.61159,0.01860
1388.68286,0.01932
1386.75413,0.01965
1384.82541,0.01888
1382.89668,0.01846
1380.96795,0.01891
1379.03923,0.01970
1377.11050,0.02056
1375.18178,0.02143
1373.25305,0.02138
1371.32432,0.02062
1369.39560,0.02010
1367.46687,0.01979
1365.53814,0.01998
1363.60942,0.02088
1361.68069,0.02085
1359.75197,0.01951
1357.82324,0.01852
1355.89451,0.01810
1353.96579,0.01773
1352.03706,0.01739
1350.10834,0.01727
1348.17961,0.01715
1346.25088,0.01698
1344.32216,0.01719
1342.39343,0.01837
1340.46470,0.02044
1338.53598,0.02111
1336.60725,0.01966
1334.67853,0.01839
1332.74980,0.01800
1330.82107,0.01807
1328.89235,0.01818
1326.96362,0.01827
1325.03489,0.01850
1323.10617,0.01897
1321.17744,0.01978
1319.24872,0.02057
1317.31999,0.02072
1315.39126,0.02056
1313.46254,0.02028
1311.53381,0.01957
1309.60509,0.01882
1307.67636,0.01832
1305.74763,0.01787
1303.81891,0.01743
1301.89018,0.01711
1299.96145,0.01691
1298.03273,0.01683
1296.10400,0.01674
1294.17528,0.01663
1292.24655,0.01671
1290.31782,0.01701
1288.38910,0.01721
1286.46037,0.01713
1284.53164,0.01704
1282.60292,0.01722
1280.67419,0.01751
1278.74547,0.01772
1276.81674,0.01797
1274.88801,0.01848
1272.95929,0.01921
1271.03056,0.01994
1269.10183,0.02054
1267.17311,0.02109
1265.24438,0.02171
1263.31566,0.02240
1261.38693,0.02303
1259.45820,0.02324
1257.52948,0.02301
1255.60075,0.02268
1253.67203,0.02249
1251.74330,0.02244
1249.81457,0.02248
1247.88585,0.02263
1245.95712,0.02286
1244.02839,0.02303
1242.09967,0.02307
1240.17094,0.02310
1238.24222,0.02316
1236.31349,0.02317
1234.38476,0.02316
1232.45604,0.02312
1230.52731,0.02302
1228.59858,0.02289
1226.66986,0.02274
1224.74113,0.02249
1222.81241,0.02210
1220.88368,0.02171
1218.95495,0.02133
1217.02623,0.02097
1215.09750,0.02068
1213.16878,0.02042
1211.24005,0.02010
1209.31132,0.01978
1207.38260,0.01959
1205.45387,0.01944
1203.52514,0.01925
1201.59642,0.01906
1199.66769,0.01885
1197.73897,0.01860
1195.81024,0.01835
1193.88151,0.01818
1191.95279,0.01813
1190.02406,0.01815
1188.09533,0.01821
1186.16661,0.01832
1184.23788,0.01851
1182.30916,0.01878
1180.38043,0.01910
1178.45170,0.01947
1176.52298,0.01996
1174.59425,0.02054
1172.66553,0.02117
1170.73680,0.02199
1168.80807,0.02306
1166.87935,0.02430
1164.95062,0.02557
1163.02189,0.02672
1161.09317,0.02766
1159.16444,0.02831
1157.23572,0.02866
1155.30699,0.02875
1153.37826,0.02863
1151.44954,0.02840
1149.52081,0.02811
1147.59208,0.02787
1145.66336,0.02767
1143.73463,0.02748
1141.80591,0.02737
1139.87718,0.02743
1137.94845,0.02771
1136.01973,0.02826
1134.09100,0.02904
1132.16228,0.02993
1130.23355,0.03095
1128.30482,0.03211
1126.37610,0.03327
1124.44737,0.03427
1122.51864,0.03506
1120.58992,0.03568
1118.66119,0.03630
1116.73247,0.03707
1114.80374,0.03792
1112.87501,0.03867
1110.94629,0.03923
1109.01756,0.03958
1107.08883,0.03981
1105.16011,0.04007
1103.23138,0.04041
1101.30266,0.04072
1099.37393,0.04095
1097.44520,0.04119
1095.51648,0.04146
1093.58775,0.04168
1091.65903,0.04183
1089.73030,0.04199
1087.80157,0.04219
1085.87285,0.04246
1083.94412,0.04279
1082.01539,0.04322
1080.08667,0.04379
1078.15794,0.04449
1076.22922,0.04519
1074.30049,0.04579
1072.37176,0.04639
1070.44304,0.04710
1068.51431,0.04792
1066.58558,0.04886
1064.65686,0.04999
1062.72813,0.05131
1060.79941,0.05269
1058.87068,0.05398
1056.94195,0.05505
1055.01323,0.05586
1053.08450,0.05646
1051.15578,0.05692
1049.22705,0.05728
1047.29832,0.05750
1045.36960,0.05764
1043.44087,0.05783
1041.51214,0.05807
1039.58342,0.05852
1037.65469,0.05935
1035.72597,0.06042
1033.79724,0.06140
1031.86851,0.06207
1029.93979,0.06244
1028.01106,0.06251
1026.08233,0.06240
1024.15361,0.06225
1022.22488,0.06207
1020.29616,0.06177
1018.36743,0.06129
1016.43870,0.06061
1014.50998,0.05970
1012.58125,0.05856
1010.65253,0.05738
1008.72380,0.05635
1006.79507,0.05549
1004.86635,0.05471
1002.93762,0.05396
1001.00889,0.05325
999.08017,0.05267
997.15144,0.05220
995.22272,0.05177
993.29399,0.05133
991.36526,0.05089
989.43654,0.05035
987.50781,0.04974
985.57908,0.04914
983.65036,0.04840
981.72163,0.04727
979.79291,0.04577
977.86418,0.04417
975.93545,0.04276
974.00673,0.04166
972.07800,0.04074
970.14928,0.03979
968.22055,0.03888
966.29182,0.03811
964.36310,0.03737
962.43437,0.03662
960.50564,0.03586
958.57692,0.03495
956.64819,0.03388
954.71947,0.03292
952.79074,0.03206
950.86201,0.03110
948.93329,0.03027
947.00456,0.02978
945.07583,0.02940
943.14711,0.02896
941.21838,0.02850
939.28966,0.02810
937.36093,0.02774
935.43220,0.02741
933.50348,0.02712
931.57475,0.02686
929.64603,0.02656
927.71730,0.02625
925.78857,0.02599
923.85985,0.02590
921.93112,0.02588
920.00239,0.02566
918.07367,0.02532
916.14494,0.02519
914.21622,0.02517
912.28749,0.02512
910.35876,0.02516
908.43004,0.02541
906.50131,0.02583
904.57258,0.02624
902.64386,0.02657
900.71513,0.02683
898.78641,0.02701
896.85768,0.02700
894.92895,0.02683
893.00023,0.02659
891.07150,0.02625
889.14277,0.02593
887.21405,0.02591
885.28532,0.02610
883.35660,0.02628
881.42787,0.02648
879.49914,0.02679
877.57042,0.02706
875.64169,0.02711
873.71297,0.02692
871.78424,0.02654
869.85551,0.02598
867.92679,0.02543
865.99806,0.02507
864.06933,0.02481
862.14061,0.02467
860.21188,0.02472
858.28316,0.02475
856.35443,0.02458
854.42570,0.02432
852.49698,0.02411
850.56825,0.02402
848.63952,0.02404
846.71080,0.02411
844.78207,0.02425
842.85335,0.02441
840.92462,0.02450
838.99589,0.02454
837.06717,0.02448
835.13844,0.02435
833.20972,0.02444
831.28099,0.02477
829.35226,0.02509
827.42354,0.02540
825.49481,0.02566
823.56608,0.02583
821.63736,0.02603
819.70863,0.02630
817.77991,0.02647
815.85118,0.02648
813.92245,0.02656
811.99373,0.02693
810.06500,0.02744
808.13627,0.02784
806.20755,0.02817
804.27882,0.02859
802.35010,0.02898
800.42137,0.02920
798.49264,0.02920
796.56392,0.02894
794.63519,0.02864
792.70647,0.02837
790.77774,0.02787
788.84901,0.02717
786.92029,0.02668
784.99156,0.02656
783.06283,0.02665
781.13411,0.02679
779.20538,0.02710
777.27666,0.02765
775.34793,0.02821
773.41920,0.02845
771.49048,0.02818
769.56175,0.02773
767.63302,0.02754
765.70430,0.02754
763.77557,0.02763
761.84685,0.02787
759.91812,0.02795
757.98939,0.02763
756.06067,0.02743
754.13194,0.02772
752.20322,0.02809
750.27449,0.02821
748.34576,0.02839
746.41704,0.02884
744.48831,0.02924
742.55958,0.02964
740.63086,0.03015
738.70213,0.03016
736.77341,0.02981
734.84468,0.02966
732.91595,0.02956
730.98723,0.02964
729.05850,0.03009
727.12977,0.03049
725.20105,0.03081
723.27232,0.03138
721.34360,0.03206
719.41487,0.03260
717.48614,0.03310
715.55742,0.03366
713.62869,0.03411
711.69997,0.03436
709.77124,0.03450
707.84251,0.03465
705.91379,0.03490
703.98506,0.03513
702.05633,0.03523
700.12761,0.03539
698.19888,0.03566
696.27016,0.03581
694.34143,0.03584
692.41270,0.03587
690.48398,0.03599
688.55525,0.03606
686.62652,0.03597
684.69780,0.03601
682.76907,0.03634
680.84035,0.03671
678.91162,0.03714
676.98289,0.03799
675.05417,0.03922
673.12544,0.04036
671.19672,0.04107
669.26799,0.04146
667.33926,0.04214
665.41054,0.04292
663.48181,0.04341
661.55308,0.04378
659.62436,0.04397
657.69563,0.04362
655.76691,0.04307
653.83818,0.04289
651.90945,0.04304
649.98073,0.04322
648.05200,0.04341
646.12327,0.04376
644.19455,0.04433
642.26582,0.04491
640.33710,0.04527
638.40837,0.04552
636.47964,0.04593
634.55092,0.04639
632.62219,0.04656
630.69347,0.04639
628.76474,0.04608
626.83601,0.04599
624.90729,0.04632
622.97856,0.04669
621.04983,0.04705
619.12111,0.04844
617.19238,0.04958
615.26366,0.04881
613.33493,0.04697
611.40620,0.04635
609.47748,0.05059
607.54875,0.05593
605.62002,0.05639
603.69130,0.05482
601.76257,0.05507
599.83385,0.05662
