4497.78948,-0.00346
4495.86076,-0.00353
4493.93203,-0.00347
4492.00330,-0.00341
4490.07458,-0.00338
4488.14585,-0.00330
4486.21712,-0.00323
4484.28840,-0.00332
4482.35967,-0.00348
4480.43095,-0.00348
4478.50222,-0.00336
4476.57349,-0.00332
4474.64477,-0.00332
4472.71604,-0.00328
4470.78732,-0.00321
4468.85859,-0.00318
4466.92986,-0.00321
4465.00114,-0.00317
4463.07241,-0.00302
4461.14368,-0.00298
4459.21496,-0.00313
4457.28623,-0.00327
4455.35751,-0.00328
4453.42878,-0.00321
4451.50005,-0.00316
4449.57133,-0.00324
4447.64260,-0.00340
4445.71387,-0.00339
4443.78515,-0.00320
4441.85642,-0.00303
4439.92770,-0.00294
4437.99897,-0.00286
4436.07024,-0.00285
4434.14152,-0.00297
4432.21279,-0.00311
4430.28407,-0.00311
4428.35534,-0.00302
4426.42661,-0.00292
4424.49789,-0.00287
4422.56916,-0.00295
4420.64043,-0.00309
4418.71171,-0.00310
4416.78298,-0.00300
4414.85426,-0.00293
4412.92553,-0.00293
4410.99680,-0.00293
4409.06808,-0.00292
4407.13935,-0.00293
4405.21062,-0.00294
4403.28190,-0.00292
4401.35317,-0.00293
4399.42445,-0.00294
4397.49572,-0.00288
4395.56699,-0.00282
4393.63827,-0.00278
4391.70954,-0.00276
4389.78082,-0.00280
4387.85209,-0.00286
4385.92336,-0.00286
4383.99464,-0.00283
4382.06591,-0.00282
4380.13718,-0.00280
4378.20846,-0.00279
4376.27973,-0.00287
4374.35101,-0.00303
4372.42228,-0.00314
4370.49355,-0.00315
4368.56483,-0.00304
4366.63610,-0.00288
4364.70737,-0.00281
4362.77865,-0.00276
4360.84992,-0.00267
4358.92120,-0.00260
4356.99247,-0.00260
4355.06374,-0.00271
4353.13502,-0.00286
4351.20629,-0.00289
4349.27757,-0.00279
4347.34884,-0.00276
4345.42011,-0.00284
4343.49139,-0.00285
4341.56266,-0.00275
4339.63393,-0.00266
4337.70521,-0.00267
4335.77648,-0.00270
4333.84776,-0.00270
4331.91903,-0.00277
4329.99030,-0.00279
4328.06158,-0.00264
4326.13285,-0.00249
4324.20412,-0.00244
4322.27540,-0.00245
4320.34667,-0.00249
4318.41795,-0.00255
4316.48922,-0.00260
4314.56049,-0.00264
4312.63177,-0.00270
4310.70304,-0.00279
4308.77432,-0.00284
4306.84559,-0.00278
4304.91686,-0.00263
4302.98814,-0.00257
4301.05941,-0.00268
4299.13068,-0.00277
4297.20196,-0.00269
4295.27323,-0.00250
4293.34451,-0.00232
4291.41578,-0.00226
4289.48705,-0.00232
4287.55833,-0.00240
4285.62960,-0.00246
4283.70087,-0.00249
4281.77215,-0.00252
4279.84342,-0.00257
4277.91470,-0.00265
4275.98597,-0.00265
4274.05724,-0.00259
4272.12852,-0.00253
4270.19979,-0.00251
4268.27107,-0.00256
4266.34234,-0.00259
4264.41361,-0.00258
4262.48489,-0.00256
4260.55616,-0.00250
4258.62743,-0.00241
4256.69871,-0.00232
4254.76998,-0.00227
4252.84126,-0.00226
4250.91253,-0.00232
4248.98380,-0.00251
4247.05508,-0.00266
4245.12635,-0.00263
4243.19762,-0.00250
4241.26890,-0.00241
4239.34017,-0.00240
4237.41145,-0.00243
4235.48272,-0.00247
4233.55399,-0.00253
4231.62527,-0.00262
4229.69654,-0.00264
4227.76782,-0.00256
4225.83909,-0.00245
4223.91036,-0.00238
4221.98164,-0.00238
4220.05291,-0.00241
4218.12418,-0.00243
4216.19546,-0.00245
4214.26673,-0.00241
4212.33801,-0.00233
4210.40928,-0.00229
4208.48055,-0.00229
4206.55183,-0.00231
4204.62310,-0.00236
4202.69437,-0.00231
4200.76565,-0.00217
4198.83692,-0.00213
4196.90820,-0.00220
4194.97947,-0.00222
4193.05074,-0.00216
4191.12202,-0.00213
4189.19329,-0.00218
4187.26456,-0.00226
4185.33584,-0.00230
4183.40711,-0.00226
4181.47839,-0.00223
4179.54966,-0.00231
4177.62093,-0.00234
4175.69221,-0.00220
4173.76348,-0.00206
4171.83476,-0.00208
4169.90603,-0.00220
4167.97730,-0.00223
4166.04858,-0.00214
4164.11985,-0.00210
4162.19112,-0.00214
4160.26240,-0.00215
4158.33367,-0.00213
4156.40495,-0.00213
4154.47622,-0.00220
4152.54749,-0.00228
4150.61877,-0.00232
4148.69004,-0.00227
4146.76131,-0.00218
4144.83259,-0.00216
4142.90386,-0.00213
4140.97514,-0.00199
4139.04641,-0.00190
4137.11768,-0.00193
4135.18896,-0.00199
4133.26023,-0.00201
4131.33151,-0.00206
4129.40278,-0.00214
4127.47405,-0.00219
4125.54533,-0.00215
4123.61660,-0.00203
4121.68787,-0.00192
4119.75915,-0.00186
4117.83042,-0.00185
4115.90170,-0.00188
4113.97297,-0.00196
4112.04424,-0.00206
4110.11552,-0.00209
4108.18679,-0.00195
4106.25806,-0.00172
4104.32934,-0.00170
4102.40061,-0.00193
4100.47189,-0.00211
4098.54316,-0.00209
4096.61443,-0.00202
4094.68571,-0.00199
4092.75698,-0.00192
4090.82826,-0.00176
4088.89953,-0.00160
4086.97080,-0.00151
4085.04208,-0.00144
4083.11335,-0.00141
4081.18462,-0.00148
4079.25590,-0.00172
4077.32717,-0.00197
4075.39845,-0.00199
4073.46972,-0.00186
4071.54099,-0.00181
4069.61227,-0.00193
4067.68354,-0.00206
4065.75481,-0.00204
4063.82609,-0.00190
4061.89736,-0.00180
4059.96864,-0.00181
4058.03991,-0.00186
4056.11118,-0.00186
4054.18246,-0.00183
4052.25373,-0.00184
4050.32501,-0.00188
4048.39628,-0.00180
4046.46755,-0.00153
4044.53883,-0.00131
4042.61010,-0.00132
4040.68137,-0.00149
4038.75265,-0.00165
4036.82392,-0.00170
4034.89520,-0.00165
4032.96647,-0.00159
4031.03774,-0.00160
4029.10902,-0.00162
4027.18029,-0.00152
4025.25156,-0.00139
4023.32284,-0.00131
4021.39411,-0.00126
4019.46539,-0.00123
4017.53666,-0.00123
4015.60793,-0.00125
4013.67921,-0.00126
4011.75048,-0.00117
4009.82176,-0.00104
4007.89303,-0.00108
4005.96430,-0.00127
4004.03558,-0.00142
4002.10685,-0.00151
4000.17812,-0.00155
3998.24940,-0.00140
3996.32067,-0.00115
3994.39195,-0.00100
3992.46322,-0.00092
3990.53449,-0.00094
3988.60577,-0.00116
3986.67704,-0.00132
3984.74831,-0.00122
3982.81959,-0.00108
3980.89086,-0.00107
3978.96214,-0.00097
3977.03341,-0.00057
3975.10468,-0.00019
3973.17596,-0.00020
3971.24723,-0.00044
3969.31851,-0.00081
3967.38978,-0.00121
3965.46105,-0.00117
3963.53233,-0.00063
3961.60360,-0.00021
3959.67487,-0.00016
3957.74615,-0.00021
3955.81742,-0.00032
3953.88870,-0.00028
3951.95997,0.00028
3950.03124,0.00107
3948.10252,0.00111
3946.17379,0.00069
3944.24506,0.00061
3942.31634,0.00036
3940.38761,-0.00028
3938.45889,-0.00069
3936.53016,-0.00050
3934.60143,0.00051
3932.67271,0.00176
3930.74398,0.00170
3928.81526,0.00090
3926.88653,0.00100
3924.95780,0.00161
3923.02908,0.00144
3921.10035,0.00123
3919.17162,0.00167
3917.24290,0.00153
3915.31417,0.00030
3913.38545,-0.00074
3911.45672,-0.00109
3909.52799,-0.00071
3907.59927,0.00067
3905.67054,0.00322
3903.74181,0.00541
3901.81309,0.00534
3899.88436,0.00380
3897.95564,0.00199
3896.02691,0.00137
3894.09818,0.00209
3892.16946,0.00261
3890.24073,0.00170
3888.31201,0.00137
3886.38328,0.00236
3884.45455,0.00333
3882.52583,0.00315
3880.59710,0.00197
3878.66837,0.00080
3876.73965,0.00075
3874.81092,0.00184
3872.88220,0.00349
3870.95347,0.00444
3869.02474,0.00393
3867.09602,0.00360
3865.16729,0.00412
3863.23856,0.00364
3861.30984,0.00224
3859.38111,0.00192
3857.45239,0.00293
3855.52366,0.00488
3853.59493,0.00623
3851.66621,0.00443
3849.73748,0.00246
3847.80876,0.00147
3845.88003,0.00165
3843.95130,0.00283
3842.02258,0.00454
3840.09385,0.00634
3838.16512,0.00631
3836.23640,0.00437
3834.30767,0.00290
3832.37895,0.00205
3830.45022,0.00168
3828.52149,0.00184
3826.59277,0.00230
3824.66404,0.00291
3822.73531,0.00397
3820.80659,0.00471
3818.87786,0.00420
3816.94914,0.00313
3815.02041,0.00143
3813.09168,0.00023
3811.16296,0.00003
3809.23423,0.00076
3807.30550,0.00195
3805.37678,0.00274
3803.44805,0.00361
3801.51933,0.00426
3799.59060,0.00361
3797.66187,0.00245
3795.73315,0.00091
3793.80442,-0.00024
3791.87570,-0.00061
3789.94697,-0.00042
3788.01824,0.00025
3786.08952,0.00099
3784.16079,0.00100
3782.23206,0.00076
3780.30334,0.00080
3778.37461,0.00038
3776.44589,-0.00032
3774.51716,-0.00037
3772.58843,0.00046
3770.65971,0.00170
3768.73098,0.00229
3766.80225,0.00217
3764.87353,0.00170
3762.94480,0.00148
3761.01608,0.00215
3759.08735,0.00320
3757.15862,0.00349
3755.22990,0.00406
3753.30117,0.00622
3751.37245,0.00938
3749.44372,0.00912
3747.51499,0.00810
3745.58627,0.00753
3743.65754,0.00621
3741.72881,0.00535
3739.80009,0.00563
3737.87136,0.00715
3735.94264,0.00866
3734.01391,0.00665
3732.08518,0.00376
3730.15646,0.00263
3728.22773,0.00301
3726.29900,0.00417
3724.37028,0.00452
3722.44155,0.00353
3720.51283,0.00229
3718.58410,0.00161
3716.65537,0.00173
3714.72665,0.00273
3712.79792,0.00451
3710.86920,0.00465
3708.94047,0.00252
3707.01174,0.00116
3705.08302,0.00087
3703.15429,0.00118
3701.22556,0.00112
3699.29684,0.00064
3697.36811,0.00066
3695.43939,0.00123
3693.51066,0.00232
3691.58193,0.00428
3689.65321,0.00530
3687.72448,0.00315
3685.79575,0.00135
3683.86703,0.00067
3681.93830,0.00098
3680.00958,0.00229
3678.08085,0.00415
3676.15212,0.00520
3674.22340,0.00460
3672.29467,0.00472
3670.36595,0.00474
3668.43722,0.00278
3666.50849,0.00112
3664.57977,0.00040
3662.65104,0.00032
3660.72231,0.00062
3658.79359,0.00124
3656.86486,0.00199
3654.93614,0.00239
3653.00741,0.00320
3651.07868,0.00602
3649.14996,0.00895
3647.22123,0.00565
3645.29250,0.00312
3643.36378,0.00211
3641.43505,0.00153
3639.50633,0.00110
3637.57760,0.00103
3635.64887,0.00145
3633.72015,0.00232
3631.79142,0.00367
3629.86270,0.00531
3627.93397,0.00469
3626.00524,0.00286
3624.07652,0.00222
3622.14779,0.00302
3620.21906,0.00492
3618.29034,0.00583
3616.36161,0.00565
3614.43289,0.00565
3612.50416,0.00542
3610.57543,0.00522
3608.64671,0.00476
3606.71798,0.00343
3604.78925,0.00262
3602.86053,0.00301
3600.93180,0.00396
3599.00308,0.00446
3597.07435,0.00449
3595.14562,0.00413
3593.21690,0.00344
3591.28817,0.00349
3589.35945,0.00493
3587.43072,0.00598
3585.50199,0.00455
3583.57327,0.00320
3581.64454,0.00279
3579.71581,0.00285
3577.78709,0.00292
3575.85836,0.00286
3573.92964,0.00282
3572.00091,0.00325
3570.07218,0.00482
3568.14346,0.00762
3566.21473,0.00829
3564.28600,0.00622
3562.35728,0.00471
3560.42855,0.00384
3558.49983,0.00315
3556.57110,0.00302
3554.64237,0.00361
3552.71365,0.00414
3550.78492,0.00418
3548.85620,0.00476
3546.92747,0.00605
3544.99874,0.00614
3543.07002,0.00458
3541.14129,0.00326
3539.21256,0.00309
3537.28384,0.00354
3535.35511,0.00366
3533.42639,0.00375
3531.49766,0.00453
3529.56893,0.00573
3527.64021,0.00654
3525.71148,0.00679
3523.78275,0.00629
3521.85403,0.00514
3519.92530,0.00423
3517.99658,0.00376
3516.06785,0.00347
3514.13912,0.00362
3512.21040,0.00430
3510.28167,0.00481
3508.35295,0.00471
3506.42422,0.00495
3504.49549,0.00597
3502.56677,0.00632
3500.63804,0.00544
3498.70931,0.00475
3496.78059,0.00460
3494.85186,0.00446
3492.92314,0.00431
3490.99441,0.00448
3489.06568,0.00484
3487.13696,0.00498
3485.20823,0.00509
3483.27950,0.00555
3481.35078,0.00575
3479.42205,0.00526
3477.49333,0.00488
3475.56460,0.00492
3473.63587,0.00494
3471.70715,0.00484
3469.77842,0.00489
3467.84970,0.00511
3465.92097,0.00541
3463.99224,0.00578
3462.06352,0.00601
3460.13479,0.00591
3458.20606,0.00567
3456.27734,0.00550
3454.34861,0.00541
3452.41989,0.00545
3450.49116,0.00585
3448.56243,0.00658
3446.63371,0.00698
3444.70498,0.00685
3442.77625,0.00659
3440.84753,0.00624
3438.91880,0.00592
3436.99008,0.00583
3435.06135,0.00596
3433.13262,0.00622
3431.20390,0.00642
3429.27517,0.00643
3427.34644,0.00642
3425.41772,0.00664
3423.48899,0.00715
3421.56027,0.00756
3419.63154,0.00736
3417.70281,0.00693
3415.77409,0.00683
3413.84536,0.00696
3411.91664,0.00704
3409.98791,0.00704
3408.05918,0.00704
3406.13046,0.00711
3404.20173,0.00724
3402.27300,0.00737
3400.34428,0.00755
3398.41555,0.00777
3396.48683,0.00793
3394.55810,0.00800
3392.62937,0.00796
3390.70065,0.00773
3388.77192,0.00761
3386.84319,0.00780
3384.91447,0.00801
3382.98574,0.00795
3381.05702,0.00785
3379.12829,0.00787
3377.19956,0.00789
3375.27084,0.00782
3373.34211,0.00778
3371.41339,0.00793
3369.48466,0.00832
3367.55593,0.00863
3365.62721,0.00863
3363.69848,0.00852
3361.76975,0.00850
3359.84103,0.00855
3357.91230,0.00859
3355.98358,0.00856
3354.05485,0.00844
3352.12612,0.00832
3350.19740,0.00829
3348.26867,0.00838
3346.33994,0.00855
3344.41122,0.00873
3342.48249,0.00886
3340.55377,0.00898
3338.62504,0.00918
3336.69631,0.00932
3334.76759,0.00919
3332.83886,0.00897
3330.91014,0.00893
3328.98141,0.00902
3327.05268,0.00904
3325.12396,0.00891
3323.19523,0.00874
3321.26650,0.00864
3319.33778,0.00863
3317.40905,0.00866
3315.48033,0.00875
3313.55160,0.00892
3311.62287,0.00912
3309.69415,0.00919
3307.76542,0.00907
3305.83669,0.00891
3303.90797,0.00887
3301.97924,0.00890
3300.05052,0.00892
3298.12179,0.00892
3296.19306,0.00886
3294.26434,0.00887
3292.33561,0.00896
3290.40689,0.00902
3288.47816,0.00897
3286.54943,0.00893
3284.62071,0.00900
3282.69198,0.00905
3280.76325,0.00900
3278.83453,0.00901
3276.90580,0.00910
3274.97708,0.00911
3273.04835,0.00896
3271.11962,0.00877
3269.19090,0.00869
3267.26217,0.00873
3265.33344,0.00876
3263.40472,0.00868
3261.47599,0.00854
3259.54727,0.00849
3257.61854,0.00857
3255.68981,0.00864
3253.76109,0.00852
3251.83236,0.00830
3249.90364,0.00819
3247.97491,0.00827
3246.04618,0.00840
3244.11746,0.00834
3242.18873,0.00821
3240.26000,0.00818
3238.33128,0.00815
3236.40255,0.00807
3234.47383,0.00801
3232.54510,0.00801
3230.61637,0.00803
3228.68765,0.00795
3226.75892,0.00776
3224.83019,0.00760
3222.90147,0.00760
3220.97274,0.00767
3219.04402,0.00766
3217.11529,0.00758
3215.18656,0.00754
3213.25784,0.00753
3211.32911,0.00753
3209.40039,0.00750
3207.47166,0.00740
3205.54293,0.00738
3203.61421,0.00747
3201.68548,0.00755
3199.75675,0.00755
3197.82803,0.00743
3195.89930,0.00723
3193.97058,0.00712
3192.04185,0.00709
3190.11312,0.00703
3188.18440,0.00701
3186.25567,0.00703
3184.32694,0.00699
3182.39822,0.00694
3180.46949,0.00698
3178.54077,0.00697
3176.61204,0.00680
3174.68331,0.00667
3172.75459,0.00662
3170.82586,0.00657
3168.89714,0.00650
3166.96841,0.00641
3165.03968,0.00631
3163.11096,0.00619
3161.18223,0.00609
3159.25350,0.00606
3157.32478,0.00609
3155.39605,0.00612
3153.46733,0.00614
3151.53860,0.00618
3149.60987,0.00618
3147.68115,0.00609
3145.75242,0.00599
3143.82369,0.00593
3141.89497,0.00587
3139.96624,0.00582
3138.03752,0.00583
3136.10879,0.00590
3134.18006,0.00597
3132.25134,0.00593
3130.32261,0.00587
3128.39389,0.00589
3126.46516,0.00589
3124.53643,0.00583
3122.60771,0.00579
3120.67898,0.00578
3118.75025,0.00576
3116.82153,0.00573
3114.89280,0.00565
3112.96408,0.00556
3111.03535,0.00549
3109.10662,0.00543
3107.17790,0.00534
3105.24917,0.00534
3103.32044,0.00547
3101.39172,0.00559
3099.46299,0.00551
3097.53427,0.00538
3095.60554,0.00526
3093.67681,0.00514
3091.74809,0.00504
3089.81936,0.00497
3087.89063,0.00492
3085.96191,0.00491
3084.03318,0.00502
3082.10446,0.00517
3080.17573,0.00522
3078.24700,0.00511
3076.31828,0.00493
3074.38955,0.00479
3072.46083,0.00475
3070.53210,0.00481
3068.60337,0.00491
3066.67465,0.00500
3064.74592,0.00498
3062.81719,0.00489
3060.88847,0.00484
3058.95974,0.00489
3057.03102,0.00496
3055.10229,0.00490
3053.17356,0.00473
3051.24484,0.00466
3049.31611,0.00470
3047.38738,0.00467
3045.45866,0.00458
3043.52993,0.00449
3041.60121,0.00440
3039.67248,0.00433
3037.74375,0.00440
3035.81503,0.00462
3033.88630,0.00486
3031.95758,0.00491
3030.02885,0.00469
3028.10012,0.00444
3026.17140,0.00430
3024.24267,0.00425
3022.31394,0.00419
3020.38522,0.00407
3018.45649,0.00397
3016.52777,0.00404
3014.59904,0.00428
3012.67031,0.00452
3010.74159,0.00455
3008.81286,0.00445
3006.88413,0.00441
3004.95541,0.00439
3003.02668,0.00428
3001.09796,0.00416
2999.16923,0.00415
2997.24050,0.00422
2995.31178,0.00429
2993.38305,0.00426
2991.45433,0.00424
2989.52560,0.00430
2987.59687,0.00436
2985.66815,0.00432
2983.73942,0.00433
2981.81069,0.00443
2979.88197,0.00455
2977.95324,0.00462
2976.02452,0.00473
2974.09579,0.00491
2972.16706,0.00508
2970.23834,0.00520
2968.30961,0.00532
2966.38088,0.00549
2964.45216,0.00567
2962.52343,0.00582
2960.59471,0.00591
2958.66598,0.00598
2956.73725,0.00603
2954.80853,0.00609
2952.87980,0.00618
2950.95108,0.00627
2949.02235,0.00633
2947.09362,0.00641
2945.16490,0.00653
2943.23617,0.00667
2941.30744,0.00684
2939.37872,0.00705
2937.44999,0.00731
2935.52127,0.00761
2933.59254,0.00792
2931.66381,0.00827
2929.73509,0.00859
2927.80636,0.00887
2925.87763,0.00913
2923.94891,0.00934
2922.02018,0.00945
2920.09146,0.00944
2918.16273,0.00930
2916.23400,0.00907
2914.30528,0.00882
2912.37655,0.00856
2910.44783,0.00830
2908.51910,0.00806
2906.59037,0.00794
2904.66165,0.00792
2902.73292,0.00788
2900.80419,0.00781
2898.87547,0.00770
2896.94674,0.00757
2895.01802,0.00746
2893.08929,0.00737
2891.16056,0.00728
2889.23184,0.00718
2887.30311,0.00710
2885.37438,0.00704
2883.44566,0.00698
2881.51693,0.00693
2879.58821,0.00690
2877.65948,0.00693
2875.73075,0.00700
2873.80203,0.00706
2871.87330,0.00713
2869.94458,0.00718
2868.01585,0.00718
2866.08712,0.00715
2864.15840,0.00717
2862.22967,0.00728
2860.30094,0.00745
2858.37222,0.00767
2856.44349,0.00790
2854.51477,0.00805
2852.58604,0.00811
2850.65731,0.00805
2848.72859,0.00786
2846.79986,0.00756
2844.87113,0.00723
2842.94241,0.00691
2841.01368,0.00662
2839.08496,0.00639
2837.15623,0.00621
2835.22750,0.00603
2833.29878,0.00587
2831.37005,0.00576
2829.44133,0.00568
2827.51260,0.00560
2825.58387,0.00549
2823.65515,0.00538
2821.72642,0.00530
2819.79769,0.00525
2817.86897,0.00522
2815.94024,0.00522
2814.01152,0.00520
2812.08279,0.00514
2810.15406,0.00506
2808.22534,0.00499
2806.29661,0.00494
2804.36788,0.00491
2802.43916,0.00490
2800.51043,0.00492
2798.58171,0.00492
2796.65298,0.00487
2794.72425,0.00483
2792.79553,0.00480
2790.86680,0.00479
2788.93808,0.00477
2787.00935,0.00474
2785.08062,0.00473
2783.15190,0.00475
2781.22317,0.00480
2779.29444,0.00481
2777.36572,0.00476
2775.43699,0.00472
2773.50827,0.00472
2771.57954,0.00473
2769.65081,0.00471
2767.72209,0.00469
2765.79336,0.00467
2763.86463,0.00466
2761.93591,0.00462
2760.00718,0.00458
2758.07846,0.00459
2756.14973,0.00461
2754.22100,0.00458
2752.29228,0.00458
2750.36355,0.00464
2748.43483,0.00469
2746.50610,0.00468
2744.57737,0.00463
2742.64865,0.00459
2740.71992,0.00459
2738.79119,0.00461
2736.86247,0.00463
2734.93374,0.00460
2733.00502,0.00456
2731.07629,0.00456
2729.14756,0.00458
2727.21884,0.00456
2725.29011,0.00454
2723.36138,0.00456
2721.43266,0.00459
2719.50393,0.00457
2717.57521,0.00454
2715.64648,0.00454
2713.71775,0.00457
2711.78903,0.00460
2709.86030,0.00459
2707.93157,0.00455
2706.00285,0.00452
2704.07412,0.00452
2702.14540,0.00455
2700.21667,0.00460
2698.28794,0.00463
2696.35922,0.00459
2694.43049,0.00452
2692.50177,0.00451
2690.57304,0.00454
2688.64431,0.00457
2686.71559,0.00457
2684.78686,0.00453
2682.85813,0.00447
2680.92941,0.00444
2679.00068,0.00444
2677.07196,0.00443
2675.14323,0.00442
2673.21450,0.00441
2671.28578,0.00444
2669.35705,0.00448
2667.42832,0.00451
2665.49960,0.00452
2663.57087,0.00450
2661.64215,0.00444
2659.71342,0.00442
2657.78469,0.00439
2655.85597,0.00434
2653.92724,0.00434
2651.99852,0.00436
2650.06979,0.00433
2648.14106,0.00422
2646.21234,0.00411
2644.28361,0.00405
2642.35488,0.00403
2640.42616,0.00404
2638.49743,0.00404
2636.56871,0.00402
2634.63998,0.00397
2632.71125,0.00392
2630.78253,0.00393
2628.85380,0.00397
2626.92507,0.00398
2624.99635,0.00395
2623.06762,0.00389
2621.13890,0.00382
2619.21017,0.00376
2617.28144,0.00375
2615.35272,0.00377
2613.42399,0.00374
2611.49527,0.00367
2609.56654,0.00365
2607.63781,0.00365
2605.70909,0.00368
2603.78036,0.00372
2601.85163,0.00374
2599.92291,0.00375
2597.99418,0.00376
2596.06546,0.00380
2594.13673,0.00382
2592.20800,0.00381
2590.27928,0.00379
2588.35055,0.00378
2586.42182,0.00378
2584.49310,0.00380
2582.56437,0.00382
2580.63565,0.00382
2578.70692,0.00379
2576.77819,0.00375
2574.84947,0.00373
2572.92074,0.00376
2570.99202,0.00379
2569.06329,0.00378
2567.13456,0.00376
2565.20584,0.00371
2563.27711,0.00363
2561.34838,0.00360
2559.41966,0.00363
2557.49093,0.00364
2555.56221,0.00363
2553.63348,0.00363
2551.70475,0.00364
2549.77603,0.00362
2547.84730,0.00360
2545.91857,0.00364
2543.98985,0.00370
2542.06112,0.00376
2540.13240,0.00384
2538.20367,0.00388
2536.27494,0.00387
2534.34622,0.00383
2532.41749,0.00378
2530.48877,0.00374
2528.56004,0.00370
2526.63131,0.00368
2524.70259,0.00369
2522.77386,0.00374
2520.84513,0.00380
2518.91641,0.00383
2516.98768,0.00379
2515.05896,0.00369
2513.13023,0.00365
2511.20150,0.00365
2509.27278,0.00362
2507.34405,0.00363
2505.41532,0.00376
2503.48660,0.00381
2501.55787,0.00372
2499.62915,0.00360
2497.70042,0.00360
2495.77169,0.00369
2493.84297,0.00379
2491.91424,0.00385
2489.98552,0.00385
2488.05679,0.00383
2486.12806,0.00383
2484.19934,0.00382
2482.27061,0.00380
2480.34188,0.00375
2478.41316,0.00369
2476.48443,0.00371
2474.55571,0.00377
2472.62698,0.00378
2470.69825,0.00376
2468.76953,0.00378
2466.84080,0.00381
2464.91207,0.00379
2462.98335,0.00374
2461.05462,0.00369
2459.12590,0.00365
2457.19717,0.00362
2455.26844,0.00358
2453.33972,0.00358
2451.41099,0.00361
2449.48227,0.00363
2447.55354,0.00364
2445.62481,0.00365
2443.69609,0.00366
2441.76736,0.00368
2439.83863,0.00371
2437.90991,0.00377
2435.98118,0.00384
2434.05246,0.00382
2432.12373,0.00380
2430.19500,0.00384
2428.26628,0.00388
2426.33755,0.00387
2424.40882,0.00380
2422.48010,0.00374
2420.55137,0.00371
2418.62265,0.00374
2416.69392,0.00378
2414.76519,0.00378
2412.83647,0.00380
2410.90774,0.00383
2408.97902,0.00386
2407.05029,0.00386
2405.12156,0.00385
2403.19284,0.00385
2401.26411,0.00387
2399.33538,0.00389
2397.40666,0.00387
2395.47793,0.00384
2393.54921,0.00384
2391.62048,0.00386
2389.69175,0.00395
2387.76303,0.00412
2385.83430,0.00432
2383.90557,0.00451
2381.97685,0.00460
2380.04812,0.00450
2378.11940,0.00420
2376.19067,0.00369
2374.26194,0.00302
2372.33322,0.00220
2370.40449,0.00113
2368.47576,-0.00019
2366.54704,-0.00139
2364.61831,-0.00203
2362.68959,-0.00220
2360.76086,-0.00221
2358.83213,-0.00217
2356.90341,-0.00174
2354.97468,-0.00073
2353.04596,0.00071
2351.11723,0.00201
2349.18850,0.00256
2347.25978,0.00223
2345.33105,0.00116
2343.40232,-0.00004
2341.47360,-0.00069
2339.54487,-0.00087
2337.61615,-0.00090
2335.68742,-0.00082
2333.75869,-0.00038
2331.82997,0.00037
2329.90124,0.00097
2327.97251,0.00130
2326.04379,0.00164
2324.11506,0.00213
2322.18634,0.00276
2320.25761,0.00333
2318.32888,0.00360
2316.40016,0.00375
2314.47143,0.00398
2312.54271,0.00429
2310.61398,0.00455
2308.68525,0.00464
2306.75653,0.00456
2304.82780,0.00446
2302.89907,0.00436
2300.97035,0.00427
2299.04162,0.00423
2297.11290,0.00417
2295.18417,0.00410
2293.25544,0.00402
2291.32672,0.00393
2289.39799,0.00388
2287.46926,0.00389
2285.54054,0.00393
2283.61181,0.00395
2281.68309,0.00384
2279.75436,0.00368
2277.82563,0.00362
2275.89691,0.00361
2273.96818,0.00353
2272.03946,0.00345
2270.11073,0.00352
2268.18200,0.00367
2266.25328,0.00377
2264.32455,0.00377
2262.39582,0.00366
2260.46710,0.00354
2258.53837,0.00351
2256.60965,0.00361
2254.68092,0.00376
2252.75219,0.00380
2250.82347,0.00375
2248.89474,0.00379
2246.96601,0.00391
2245.03729,0.00396
2243.10856,0.00385
2241.17984,0.00373
2239.25111,0.00374
2237.32238,0.00382
2235.39366,0.00379
2233.46493,0.00364
2231.53621,0.00355
2229.60748,0.00359
2227.67875,0.00360
2225.75003,0.00357
2223.82130,0.00356
2221.89257,0.00353
2219.96385,0.00351
2218.03512,0.00357
2216.10640,0.00359
2214.17767,0.00344
2212.24894,0.00325
2210.32022,0.00319
2208.39149,0.00322
2206.46276,0.00316
2204.53404,0.00311
2202.60531,0.00333
2200.67659,0.00348
2198.74786,0.00326
2196.81913,0.00295
2194.89041,0.00277
2192.96168,0.00264
2191.03296,0.00271
2189.10423,0.00296
2187.17550,0.00297
2185.24678,0.00279
2183.31805,0.00284
2181.38932,0.00304
2179.46060,0.00300
2177.53187,0.00284
2175.60315,0.00289
2173.67442,0.00300
2171.74569,0.00290
2169.81697,0.00264
2167.88824,0.00231
2165.95951,0.00196
2164.03079,0.00183
2162.10206,0.00200
2160.17334,0.00238
2158.24461,0.00291
2156.31588,0.00339
2154.38716,0.00371
2152.45843,0.00391
2150.52971,0.00389
2148.60098,0.00373
2146.67225,0.00361
2144.74353,0.00361
2142.81480,0.00373
2140.88607,0.00385
2138.95735,0.00387
2137.02862,0.00391
2135.09990,0.00391
2133.17117,0.00376
2131.24244,0.00358
2129.31372,0.00358
2127.38499,0.00367
2125.45626,0.00370
2123.52754,0.00368
2121.59881,0.00367
2119.67009,0.00358
2117.74136,0.00343
2115.81263,0.00335
2113.88391,0.00336
2111.95518,0.00332
2110.02646,0.00319
2108.09773,0.00312
2106.16900,0.00327
2104.24028,0.00346
2102.31155,0.00350
2100.38282,0.00345
2098.45410,0.00348
2096.52537,0.00360
2094.59665,0.00371
2092.66792,0.00380
2090.73919,0.00389
2088.81047,0.00392
2086.88174,0.00383
2084.95301,0.00369
2083.02429,0.00358
2081.09556,0.00356
2079.16684,0.00357
2077.23811,0.00355
2075.30938,0.00346
2073.38066,0.00342
2071.45193,0.00359
2069.52321,0.00389
2067.59448,0.00429
2065.66575,0.00465
2063.73703,0.00465
2061.80830,0.00434
2059.87957,0.00400
2057.95085,0.00373
2056.02212,0.00363
2054.09340,0.00364
2052.16467,0.00361
2050.23594,0.00352
2048.30722,0.00351
2046.37849,0.00364
2044.44976,0.00392
2042.52104,0.00419
2040.59231,0.00420
2038.66359,0.00396
2036.73486,0.00373
2034.80613,0.00376
2032.87741,0.00391
2030.94868,0.00400
2029.01996,0.00421
2027.09123,0.00446
2025.16250,0.00457
2023.23378,0.00450
2021.30505,0.00438
2019.37632,0.00454
2017.44760,0.00479
2015.51887,0.00464
2013.59015,0.00431
2011.66142,0.00420
2009.73269,0.00430
2007.80397,0.00436
2005.87524,0.00432
2003.94651,0.00431
2002.01779,0.00434
2000.08906,0.00428
1998.16034,0.00411
1996.23161,0.00417
1994.30288,0.00480
1992.37416,0.00541
1990.44543,0.00523
1988.51670,0.00469
1986.58798,0.00433
1984.65925,0.00424
1982.73053,0.00433
1980.80180,0.00428
1978.87307,0.00411
1976.94435,0.00404
1975.01562,0.00404
1973.08690,0.00406
1971.15817,0.00440
1969.22944,0.00512
1967.30072,0.00550
1965.37199,0.00509
1963.44326,0.00457
1961.51454,0.00440
1959.58581,0.00438
1957.65709,0.00443
1955.72836,0.00458
1953.79963,0.00467
1951.87091,0.00462
1949.94218,0.00461
1948.01345,0.00496
1946.08473,0.00570
1944.15600,0.00636
1942.22728,0.00622
1940.29855,0.00530
1938.36982,0.00454
1936.44110,0.00440
1934.51237,0.00463
1932.58365,0.00472
1930.65492,0.00452
1928.72619,0.00433
1926.79747,0.00457
1924.86874,0.00545
1922.94001,0.00624
1921.01129,0.00621
1919.08256,0.00588
1917.15384,0.00544
1915.22511,0.00494
1913.29638,0.00488
1911.36766,0.00541
1909.43893,0.00591
1907.51020,0.00566
1905.58148,0.00509
1903.65275,0.00484
1901.72403,0.00484
1899.79530,0.00492
1897.86657,0.00516
1895.93785,0.00542
1894.00912,0.00540
1892.08040,0.00543
1890.15167,0.00558
1888.22294,0.00541
1886.29422,0.00519
1884.36549,0.00502
1882.43676,0.00474
1880.50804,0.00459
1878.57931,0.00460
1876.65059,0.00459
1874.72186,0.00469
1872.79313,0.00536
1870.86441,0.00690
1868.93568,0.00827
1867.00695,0.00743
1865.07823,0.00595
1863.14950,0.00533
1861.22078,0.00533
1859.29205,0.00534
1857.36332,0.00508
1855.43460,0.00478
1853.50587,0.00466
1851.57715,0.00492
1849.64842,0.00578
1847.71969,0.00715
1845.79097,0.00841
1843.86224,0.00815
1841.93351,0.00663
1840.00479,0.00577
1838.07606,0.00566
1836.14734,0.00560
1834.21861,0.00554
1832.28988,0.00599
1830.36116,0.00676
1828.43243,0.00690
1826.50370,0.00673
1824.57498,0.00652
1822.64625,0.00589
1820.71753,0.00534
1818.78880,0.00524
1816.86007,0.00522
1814.93135,0.00534
1813.00262,0.00599
1811.07390,0.00663
1809.14517,0.00647
1807.21644,0.00601
1805.28772,0.00605
1803.35899,0.00688
1801.43026,0.00780
1799.50154,0.00790
1797.57281,0.00786
1795.64409,0.00826
1793.71536,0.00893
1791.78663,0.00884
1789.85791,0.00742
1787.92918,0.00641
1786.00045,0.00638
1784.07173,0.00678
1782.14300,0.00715
1780.21428,0.00731
1778.28555,0.00717
1776.35682,0.00737
1774.42810,0.00837
1772.49937,0.00958
1770.57065,0.00945
1768.64192,0.00845
1766.71319,0.00750
1764.78447,0.00731
1762.85574,0.00803
1760.92701,0.00881
1758.99829,0.00911
1757.06956,0.00921
1755.14084,0.00932
1753.21211,0.01026
1751.28338,0.01272
1749.35466,0.01524
1747.42593,0.01539
1745.49720,0.01462
1743.56848,0.01398
1741.63975,0.01363
1739.71103,0.01371
1737.78230,0.01402
1735.85357,0.01482
1733.92485,0.01618
1731.99612,0.01565
1730.06740,0.01371
1728.13867,0.01206
1726.20994,0.01144
1724.28122,0.01168
1722.35249,0.01214
1720.42376,0.01290
1718.49504,0.01508
1716.56631,0.01746
1714.63759,0.01530
1712.70886,0.01284
1710.78013,0.01177
1708.85141,0.01189
1706.92268,0.01299
1704.99395,0.01418
1703.06523,0.01464
1701.13650,0.01545
1699.20778,0.01699
1697.27905,0.01637
1695.35032,0.01336
1693.42160,0.01156
1691.49287,0.01156
1689.56415,0.01269
1687.63542,0.01388
1685.70669,0.01484
1683.77797,0.01577
1681.84924,0.01523
1679.92051,0.01401
1677.99179,0.01318
1676.06306,0.01328
1674.13434,0.01396
1672.20561,0.01474
1670.27688,0.01521
1668.34816,0.01404
1666.41943,0.01302
1664.49070,0.01323
1662.56198,0.01387
1660.63325,0.01370
1658.70453,0.01371
1656.77580,0.01464
1654.84707,0.01639
1652.91835,0.01774
1650.98962,0.01752
1649.06090,0.01798
1647.13217,0.01814
1645.20344,0.01628
1643.27472,0.01502
1641.34599,0.01484
1639.41726,0.01549
1637.48854,0.01676
1635.55981,0.01652
1633.63109,0.01467
1631.70236,0.01384
1629.77363,0.01391
1627.84491,0.01449
1625.91618,0.01517
1623.98745,0.01577
1622.05873,0.01568
1620.13000,0.01534
1618.20128,0.01553
1616.27255,0.01540
1614.34382,0.01446
1612.41510,0.01403
1610.48637,0.01432
1608.55764,0.01474
1606.62892,0.01473
1604.70019,0.01471
1602.77147,0.01480
1600.84274,0.01463
1598.91401,0.01454
1596.98529,0.01492
1595.05656,0.01536
1593.12784,0.01539
1591.19911,0.01516
1589.27038,0.01475
1587.34166,0.01422
1585.41293,0.01385
1583.48420,0.01365
1581.55548,0.01363
1579.62675,0.01410
1577.69803,0.01514
1575.76930,0.01519
1573.84057,0.01409
1571.91185,0.01379
1569.98312,0.01396
1568.05439,0.01368
1566.12567,0.01339
1564.19694,0.01352
1562.26822,0.01404
1560.33949,0.01551
1558.41076,0.01823
1556.48204,0.01799
1554.55331,0.01661
1552.62459,0.01561
1550.69586,0.01518
1548.76713,0.01500
1546.83841,0.01575
1544.90968,0.01845
1542.98095,0.02262
1541.05223,0.02268
1539.12350,0.01797
1537.19478,0.01674
1535.26605,0.01705
1533.33732,0.01690
1531.40860,0.01585
1529.47987,0.01588
1527.55114,0.01745
1525.62242,0.01942
1523.69369,0.02075
1521.76497,0.02123
1519.83624,0.02053
1517.90751,0.02037
1515.97879,0.02024
1514.05006,0.01995
1512.12134,0.02075
1510.19261,0.02304
1508.26388,0.02538
1506.33516,0.02137
1504.40643,0.01822
1502.47770,0.01764
1500.54898,0.01786
1498.62025,0.01821
1496.69153,0.01713
1494.76280,0.01538
1492.83407,0.01515
1490.90535,0.01673
1488.97662,0.01784
1487.04789,0.01559
1485.11917,0.01357
1483.19044,0.01291
1481.26172,0.01300
1479.33299,0.01336
1477.40426,0.01452
1475.47554,0.01695
1473.54681,0.01904
1471.61809,0.01789
1469.68936,0.01660
1467.76063,0.01669
1465.83191,0.01758
1463.90318,0.01807
1461.97445,0.01832
1460.04573,0.01964
1458.11700,0.02286
1456.18828,0.02329
1454.25955,0.02065
1452.33082,0.01909
1450.40210,0.01855
1448.47337,0.01846
1446.54464,0.01777
1444.61592,0.01678
1442.68719,0.01629
1440.75847,0.01655
1438.82974,0.01770
1436.90101,0.01934
1434.97229,0.01959
1433.04356,0.01920
1431.11484,0.01928
1429.18611,0.01927
1427.25738,0.01911
1425.32866,0.01944
1423.39993,0.02005
1421.47120,0.02073
1419.54248,0.02179
1417.61375,0.02147
1415.68503,0.01973
1413.75630,0.01869
1411.82757,0.01832
1409.89885,0.01787
1407.97012,0.01747
1406.04139,0.01749
1404.11267,0.01730
1402.18394,0.01708
1400.25522,0.01775
1398.32649,0.01910
1396.39776,0.01960
1394.46904,0.01845
1392.54031,0.01699
1390.61159,0.01667
1388.68286,0.01743
1386.75413,0.01781
1384.82541,0.01711
1382.89668,0.01677
1380.96795,0.01728
1379.03923,0.01813
1377.11050,0.01905
1375.18178,0.02000
1373.25305,0.01999
1371.32432,0.01923
1369.39560,0.01874
1367.46687,0.01848
1365.53814,0.01874
1363.60942,0.01967
1361.68069,0.01965
1359.75197,0.01832
1357.82324,0.01739
1355.89451,0.01708
1353.96579,0.01679
1352.03706,0.01645
1350.10834,0.01630
1348.17961,0.01618
1346.25088,0.01606
1344.32216,0.01631
1342.39343,0.01753
1340.46470,0.01961
1338.53598,0.02026
1336.60725,0.01881
1334.67853,0.01760
1332.74980,0.01726
1330.82107,0.01733
1328.89235,0.01741
1326.96362,0.01747
1325.03489,0.01772
1323.10617,0.01826
1321.17744,0.01913
1319.24872,0.01992
1317.31999,0.02007
1315.39126,0.01990
1313.46254,0.01958
1311.53381,0.01887
1309.60509,0.01816
1307.67636,0.01765
1305.74763,0.01713
1303.81891,0.01665
1301.89018,0.01630
1299.96145,0.01609
1298.03273,0.01599
1296.10400,0.01584
1294.17528,0.01567
1292.24655,0.01574
1290.31782,0.01607
1288.38910,0.01633
1286.46037,0.01626
1284.53164,0.01613
1282.60292,0.01626
1280.67419,0.01652
1278.74547,0.01673
1276.81674,0.01697
1274.88801,0.01742
1272.95929,0.01810
1271.03056,0.01878
1269.10183,0.01925
1267.17311,0.01963
1265.24438,0.02005
1263.31566,0.02054
1261.38693,0.02103
1259.45820,0.02124
1257.52948,0.02112
1255.60075,0.02095
1253.67203,0.02089
1251.74330,0.02092
1249.81457,0.02101
1247.88585,0.02119
1245.95712,0.02148
1244.02839,0.02174
1242.09967,0.02187
1240.17094,0.02193
1238.24222,0.02200
1236.31349,0.02206
1234.38476,0.02208
1232.45604,0.02204
1230.52731,0.02195
1228.59858,0.02184
1226.66986,0.02171
1224.74113,0.02146
1222.81241,0.02108
1220.88368,0.02069
1218.95495,0.02032
1217.02623,0.01993
1215.09750,0.01958
1213.16878,0.01928
1211.24005,0.01899
1209.31132,0.01868
1207.38260,0.01841
1205.45387,0.01819
1203.52514,0.01800
1201.59642,0.01778
1199.66769,0.01750
1197.73897,0.01717
1195.81024,0.01687
1193.88151,0.01665
1191.95279,0.01652
1190.02406,0.01647
1188.09533,0.01647
1186.16661,0.01655
1184.23788,0.01673
1182.30916,0.01696
1180.38043,0.01720
1178.45170,0.01752
1176.52298,0.01798
1174.59425,0.01852
1172.66553,0.01913
1170.73680,0.01995
1168.80807,0.02103
1166.87935,0.02224
1164.95062,0.02346
1163.02189,0.02459
1161.09317,0.02553
1159.16444,0.02619
1157.23572,0.02657
1155.30699,0.02663
1153.37826,0.02643
1151.44954,0.02616
1149.52081,0.02588
1147.59208,0.02559
1145.66336,0.02535
1143.73463,0.02518
1141.80591,0.02502
1139.87718,0.02498
1137.94845,0.02519
1136.01973,0.02574
1134.09100,0.02657
1132.16228,0.02751
1130.23355,0.02853
1128.30482,0.02963
1126.37610,0.03072
1124.44737,0.03174
1122.51864,0.03261
1120.58992,0.03320
1118.66119,0.03373
1116.73247,0.03450
1114.80374,0.03539
1112.87501,0.03607
1110.94629,0.03647
1109.01756,0.03667
1107.08883,0.03682
1105.16011,0.03699
1103.23138,0.03713
1101.30266,0.03724
1099.37393,0.03729
1097.44520,0.03733
1095.51648,0.03734
1093.58775,0.03734
1091.65903,0.03736
1089.73030,0.03744
1087.80157,0.03759
1085.87285,0.03782
1083.94412,0.03814
1082.01539,0.03858
1080.08667,0.03914
1078.15794,0.03979
1076.22922,0.04045
1074.30049,0.04110
1072.37176,0.04179
1070.44304,0.04250
1068.51431,0.04331
1066.58558,0.04435
1064.65686,0.04563
1062.72813,0.04710
1060.79941,0.04865
1058.87068,0.05007
1056.94195,0.05120
1055.01323,0.05205
1053.08450,0.05273
1051.15578,0.05324
1049.22705,0.05358
1047.29832,0.05376
1045.36960,0.05384
1043.44087,0.05394
1041.51214,0.05416
1039.58342,0.05463
1037.65469,0.05541
1035.72597,0.05645
1033.79724,0.05744
1031.86851,0.05811
1029.93979,0.05840
1028.01106,0.05838
1026.08233,0.05816
1024.15361,0.05788
1022.22488,0.05761
1020.29616,0.05723
1018.36743,0.05673
1016.43870,0.05613
1014.50998,0.05535
1012.58125,0.05439
1010.65253,0.05343
1008.72380,0.05262
1006.79507,0.05184
1004.86635,0.05103
1002.93762,0.05031
1001.00889,0.04976
999.08017,0.04932
997.15144,0.04896
995.22272,0.04868
993.29399,0.04837
991.36526,0.04801
989.43654,0.04755
987.50781,0.04697
985.57908,0.04630
983.65036,0.04552
981.72163,0.04455
979.79291,0.04333
977.86418,0.04187
975.93545,0.04046
974.00673,0.03936
972.07800,0.03853
970.14928,0.03774
968.22055,0.03700
966.29182,0.03634
964.36310,0.03555
962.43437,0.03459
960.50564,0.03365
958.57692,0.03278
956.64819,0.03198
954.71947,0.03134
952.79074,0.03063
950.86201,0.02969
948.93329,0.02886
947.00456,0.02835
945.07583,0.02798
943.14711,0.02763
941.21838,0.02730
939.28966,0.02698
937.36093,0.02668
935.43220,0.02640
933.50348,0.02616
931.57475,0.02588
929.64603,0.02560
927.71730,0.02535
925.78857,0.02509
923.85985,0.02483
921.93112,0.02465
920.00239,0.02441
918.07367,0.02408
916.14494,0.02383
914.21622,0.02372
912.28749,0.02364
910.35876,0.02367
908.43004,0.02394
906.50131,0.02448
904.57258,0.02491
902.64386,0.02510
900.71513,0.02534
898.78641,0.02569
896.85768,0.02588
894.92895,0.02582
893.00023,0.02554
891.07150,0.02501
889.14277,0.02444
887.21405,0.02419
885.28532,0.02431
883.35660,0.02439
881.42787,0.02422
879.49914,0.02403
877.57042,0.02402
875.64169,0.02404
873.71297,0.02389
871.78424,0.02354
869.85551,0.02318
867.92679,0.02299
865.99806,0.02300
864.06933,0.02307
862.14061,0.02306
860.21188,0.02306
858.28316,0.02303
856.35443,0.02289
854.42570,0.02279
852.49698,0.02275
850.56825,0.02274
848.63952,0.02282
846.71080,0.02299
844.78207,0.02315
842.85335,0.02324
840.92462,0.02334
838.99589,0.02339
837.06717,0.02330
835.13844,0.02319
833.20972,0.02328
831.28099,0.02343
829.35226,0.02348
827.42354,0.02360
825.49481,0.02391
823.56608,0.02424
821.63736,0.02444
819.70863,0.02452
817.77991,0.02446
815.85118,0.02432
813.92245,0.02436
811.99373,0.02465
810.06500,0.02499
808.13627,0.02533
806.20755,0.02568
804.27882,0.02593
802.35010,0.02604
800.42137,0.02617
798.49264,0.02630
796.56392,0.02621
794.63519,0.02586
792.70647,0.02544
790.77774,0.02505
788.84901,0.02477
786.92029,0.02461
784.99156,0.02439
783.06283,0.02410
781.13411,0.02407
779.20538,0.02441
777.27666,0.02494
775.34793,0.02560
773.41920,0.02596
771.49048,0.02568
769.56175,0.02530
767.63302,0.02531
765.70430,0.02552
763.77557,0.02569
761.84685,0.02580
759.91812,0.02591
757.98939,0.02597
756.06067,0.02603
754.13194,0.02630
752.20322,0.02663
750.27449,0.02675
748.34576,0.02689
746.41704,0.02724
744.48831,0.02769
742.55958,0.02809
740.63086,0.02816
738.70213,0.02776
736.77341,0.02753
734.84468,0.02790
732.91595,0.02831
730.98723,0.02856
729.05850,0.02894
727.12977,0.02925
725.20105,0.02938
723.27232,0.02974
721.34360,0.03042
719.41487,0.03100
717.48614,0.03129
715.55742,0.03156
713.62869,0.03187
711.69997,0.03205
709.77124,0.03218
707.84251,0.03251
705.91379,0.03294
703.98506,0.03322
702.05633,0.03332
700.12761,0.03344
698.19888,0.03364
696.27016,0.03387
694.34143,0.03403
692.41270,0.03413
690.48398,0.03429
688.55525,0.03441
686.62652,0.03433
684.69780,0.03428
682.76907,0.03444
680.84035,0.03476
678.91162,0.03518
676.98289,0.03589
675.05417,0.03694
673.12544,0.03786
671.19672,0.03836
669.26799,0.03877
667.33926,0.03955
665.41054,0.04027
663.48181,0.04072
661.55308,0.04099
659.62436,0.04107
657.69563,0.04086
655.76691,0.04051
653.83818,0.04038
651.90945,0.04053
649.98073,0.04066
648.05200,0.04069
646.12327,0.04096
644.19455,0.04155
642.26582,0.04219
640.33710,0.04274
638.40837,0.04321
636.47964,0.04371
634.55092,0.04419
632.62219,0.04440
630.69347,0.04423
628.76474,0.04379
626.83601,0.04360
624.90729,0.04418
622.97856,0.04477
621.04983,0.04419
619.12111,0.04443
617.19238,0.04606
615.26366,0.04700
613.33493,0.04649
611.40620,0.04525
609.47748,0.04492
607.54875,0.04570
605.62002,0.04643
603.69130,0.04736
601.76257,0.04909
599.83385,0.05116
