7497.03301,0.61577
7495.10426,0.61504
7493.17552,0.61435
7491.24677,0.61131
7489.31803,0.60880
7487.38928,0.60937
7485.46054,0.61309
7483.53179,0.61527
7481.60305,0.61408
7479.67430,0.61423
7477.74556,0.61702
7475.81681,0.62170
7473.88807,0.62545
7471.95932,0.62488
7470.03057,0.62491
7468.10183,0.62829
7466.17308,0.62849
7464.24434,0.62386
7462.31559,0.61822
7460.38685,0.61232
7458.45810,0.60841
7456.52936,0.61076
7454.60061,0.61633
7452.67187,0.61759
7450.74312,0.61521
7448.81438,0.61447
7446.88563,0.61398
7444.95689,0.61076
7443.02814,0.60768
7441.09940,0.60834
7439.17065,0.60941
7437.24190,0.60721
7435.31316,0.60522
7433.38441,0.60630
7431.45567,0.60835
7429.52692,0.61010
7427.59818,0.61309
7425.66943,0.61803
7423.74069,0.62183
7421.81194,0.62086
7419.88320,0.61673
7417.95445,0.61408
7416.02571,0.61461
7414.09696,0.61781
7412.16822,0.62161
7410.23947,0.62167
7408.31073,0.61767
7406.38198,0.61399
7404.45323,0.61209
7402.52449,0.60985
7400.59574,0.60664
7398.66700,0.60611
7396.73825,0.61060
7394.80951,0.61417
7392.88076,0.61190
7390.95202,0.60807
7389.02327,0.60694
7387.09453,0.60868
7385.16578,0.61105
7383.23704,0.61113
7381.30829,0.61032
7379.37955,0.61213
7377.45080,0.61600
7375.52205,0.61879
7373.59331,0.61830
7371.66456,0.61469
7369.73582,0.61138
7367.80707,0.60967
7365.87833,0.60755
7363.94958,0.60598
7362.02084,0.60645
7360.09209,0.60782
7358.16335,0.60827
7356.23460,0.60766
7354.30586,0.60858
7352.37711,0.61061
7350.44837,0.61009
7348.51962,0.60653
7346.59088,0.60229
7344.66213,0.60134
7342.73338,0.60518
7340.80464,0.60790
7338.87589,0.60598
7336.94715,0.60358
7335.01840,0.60175
7333.08966,0.60046
7331.16091,0.60390
7329.23217,0.60958
7327.30342,0.60928
7325.37468,0.60410
7323.44593,0.60160
7321.51719,0.60155
7319.58844,0.59899
7317.65970,0.59663
7315.73095,0.59863
7313.80221,0.60019
7311.87346,0.59938
7309.94471,0.60128
7308.01597,0.60506
7306.08722,0.60712
7304.15848,0.60798
7302.22973,0.60849
7300.30099,0.60901
7298.37224,0.60851
7296.44350,0.60690
7294.51475,0.60903
7292.58601,0.61367
7290.65726,0.61267
7288.72852,0.60747
7286.79977,0.60434
7284.87103,0.60489
7282.94228,0.60732
7281.01353,0.60682
7279.08479,0.60360
7277.15604,0.60272
7275.22730,0.60430
7273.29855,0.60602
7271.36981,0.60609
7269.44106,0.60377
7267.51232,0.60176
7265.58357,0.60169
7263.65483,0.60285
7261.72608,0.60520
7259.79734,0.60637
7257.86859,0.60493
7255.93985,0.60428
7254.01110,0.60459
7252.08236,0.60333
7250.15361,0.60174
7248.22486,0.60258
7246.29612,0.60448
7244.36737,0.60197
7242.43863,0.59620
7240.50988,0.59503
7238.58114,0.59657
7236.65239,0.59417
7234.72365,0.59160
7232.79490,0.59350
7230.86616,0.59802
7228.93741,0.60453
7227.00867,0.61191
7225.07992,0.61394
7223.15118,0.60995
7221.22243,0.60812
7219.29369,0.60991
7217.36494,0.60992
7215.43619,0.60761
7213.50745,0.60477
7211.57870,0.60290
7209.64996,0.60344
7207.72121,0.60543
7205.79247,0.60739
7203.86372,0.60885
7201.93498,0.60819
7200.00623,0.60456
7198.07749,0.60248
7196.14874,0.60558
7194.22000,0.61012
7192.29125,0.61132
7190.36251,0.60798
7188.43376,0.60303
7186.50501,0.60209
7184.57627,0.60434
7182.64752,0.60295
7180.71878,0.59920
7178.79003,0.59973
7176.86129,0.60314
7174.93254,0.60477
7173.00380,0.60336
7171.07505,0.59978
7169.14631,0.59835
7167.21756,0.60156
7165.28882,0.60350
7163.36007,0.60049
7161.43133,0.59767
7159.50258,0.59887
7157.57384,0.60192
7155.64509,0.60431
7153.71634,0.60676
7151.78760,0.60778
7149.85885,0.60367
7147.93011,0.59850
7146.00136,0.59868
7144.07262,0.60150
7142.14387,0.60086
7140.21513,0.59785
7138.28638,0.59691
7136.35764,0.59773
7134.42889,0.59937
7132.50015,0.60131
7130.57140,0.60091
7128.64266,0.59852
7126.71391,0.59744
7124.78516,0.59887
7122.85642,0.59999
7120.92767,0.59791
7118.99893,0.59547
7117.07018,0.59557
7115.14144,0.59597
7113.21269,0.59609
7111.28395,0.59773
7109.35520,0.59966
7107.42646,0.59992
7105.49771,0.59774
7103.56897,0.59324
7101.64022,0.58873
7099.71148,0.58719
7097.78273,0.58898
7095.85399,0.59078
7093.92524,0.59184
7091.99649,0.59399
7090.06775,0.59437
7088.13900,0.59211
7086.21026,0.59106
7084.28151,0.59128
7082.35277,0.59136
7080.42402,0.59279
7078.49528,0.59513
7076.56653,0.59493
7074.63779,0.59211
7072.70904,0.58934
7070.78030,0.58696
7068.85155,0.58534
7066.92281,0.58624
7064.99406,0.58959
7063.06532,0.59305
7061.13657,0.59402
7059.20782,0.59025
7057.27908,0.58424
7055.35033,0.58302
7053.42159,0.58633
7051.49284,0.58779
7049.56410,0.58608
7047.63535,0.58403
7045.70661,0.58315
7043.77786,0.58215
7041.84912,0.58013
7039.92037,0.57816
7037.99163,0.57578
7036.06288,0.57373
7034.13414,0.57466
7032.20539,0.57542
7030.27664,0.57227
7028.34790,0.57009
7026.41915,0.57220
7024.49041,0.57341
7022.56166,0.57069
7020.63292,0.56802
7018.70417,0.56827
7016.77543,0.56950
7014.84668,0.56918
7012.91794,0.56776
7010.98919,0.56752
7009.06045,0.56830
7007.13170,0.56864
7005.20296,0.56843
7003.27421,0.56679
7001.34547,0.56412
6999.41672,0.56282
6997.48797,0.56307
6995.55923,0.56377
6993.63048,0.56459
6991.70174,0.56419
6989.77299,0.56135
6987.84425,0.55863
6985.91550,0.55887
6983.98676,0.56095
6982.05801,0.56205
6980.12927,0.56100
6978.20052,0.55920
6976.27178,0.55879
6974.34303,0.55996
6972.41429,0.56043
6970.48554,0.55962
6968.55680,0.55877
6966.62805,0.55747
6964.69930,0.55686
6962.77056,0.55799
6960.84181,0.55799
6958.91307,0.55654
6956.98432,0.55685
6955.05558,0.55777
6953.12683,0.55540
6951.19809,0.55209
6949.26934,0.55225
6947.34060,0.55417
6945.41185,0.55431
6943.48311,0.55287
6941.55436,0.55237
6939.62562,0.55311
6937.69687,0.55352
6935.76812,0.55342
6933.83938,0.55271
6931.91063,0.55159
6929.98189,0.55246
6928.05314,0.55529
6926.12440,0.55645
6924.19565,0.55575
6922.26691,0.55602
6920.33816,0.55606
6918.40942,0.55341
6916.48067,0.55036
6914.55193,0.55031
6912.62318,0.55193
6910.69444,0.55138
6908.76569,0.54947
6906.83695,0.54967
6904.90820,0.55069
6902.97945,0.55013
6901.05071,0.54932
6899.12196,0.55022
6897.19322,0.55267
6895.26447,0.55435
6893.33573,0.55413
6891.40698,0.55352
6889.47824,0.55273
6887.54949,0.55033
6885.62075,0.54716
6883.69200,0.54502
6881.76326,0.54423
6879.83451,0.54545
6877.90577,0.54788
6875.97702,0.54901
6874.04828,0.54892
6872.11953,0.54881
6870.19078,0.54818
6868.26204,0.54686
6866.33329,0.54611
6864.40455,0.54562
6862.47580,0.54419
6860.54706,0.54325
6858.61831,0.54431
6856.68957,0.54587
6854.76082,0.54565
6852.83208,0.54487
6850.90333,0.54606
6848.97459,0.54728
6847.04584,0.54612
6845.11710,0.54363
6843.18835,0.54115
6841.25960,0.53898
6839.33086,0.53722
6837.40211,0.53681
6835.47337,0.53809
6833.54462,0.53962
6831.61588,0.54093
6829.68713,0.54205
6827.75839,0.54183
6825.82964,0.54048
6823.90090,0.53950
6821.97215,0.53901
6820.04341,0.53901
6818.11466,0.53984
6816.18592,0.54006
6814.25717,0.53903
6812.32843,0.53815
6810.39968,0.53745
6808.47093,0.53633
6806.54219,0.53514
6804.61344,0.53472
6802.68470,0.53643
6800.75595,0.53900
6798.82721,0.53825
6796.89846,0.53485
6794.96972,0.53324
6793.04097,0.53268
6791.11223,0.53071
6789.18348,0.52923
6787.25474,0.52949
6785.32599,0.52995
6783.39725,0.53028
6781.46850,0.53007
6779.53975,0.52913
6777.61101,0.52925
6775.68226,0.52939
6773.75352,0.52792
6771.82477,0.52717
6769.89603,0.52830
6767.96728,0.53021
6766.03854,0.53146
6764.10979,0.53080
6762.18105,0.52883
6760.25230,0.52703
6758.32356,0.52636
6756.39481,0.52655
6754.46607,0.52685
6752.53732,0.52752
6750.60858,0.52780
6748.67983,0.52637
6746.75108,0.52428
6744.82234,0.52195
6742.89359,0.51930
6740.96485,0.51987
6739.03610,0.52498
6737.10736,0.52958
6735.17861,0.52957
6733.24987,0.52652
6731.32112,0.52365
6729.39238,0.52083
6727.46363,0.51742
6725.53489,0.51659
6723.60614,0.51998
6721.67740,0.52355
6719.74865,0.52407
6717.81991,0.52365
6715.89116,0.52452
6713.96241,0.52542
6712.03367,0.52525
6710.10492,0.52470
6708.17618,0.52390
6706.24743,0.52311
6704.31869,0.52327
6702.38994,0.52417
6700.46120,0.52496
6698.53245,0.52416
6696.60371,0.52212
6694.67496,0.52264
6692.74622,0.52557
6690.81747,0.52648
6688.88873,0.52584
6686.95998,0.52635
6685.03123,0.52616
6683.10249,0.52469
6681.17374,0.52487
6679.24500,0.52665
6677.31625,0.52679
6675.38751,0.52404
6673.45876,0.52170
6671.53002,0.52303
6669.60127,0.52658
6667.67253,0.52929
6665.74378,0.52969
6663.81504,0.52825
6661.88629,0.52696
6659.95755,0.52719
6658.02880,0.52776
6656.10006,0.52781
6654.17131,0.52838
6652.24256,0.52850
6650.31382,0.52689
6648.38507,0.52565
6646.45633,0.52666
6644.52758,0.52859
6642.59884,0.53002
6640.67009,0.53132
6638.74135,0.53196
6636.81260,0.53084
6634.88386,0.52928
6632.95511,0.52908
6631.02637,0.52951
6629.09762,0.52898
6627.16888,0.52843
6625.24013,0.52905
6623.31139,0.52981
6621.38264,0.52985
6619.45389,0.52935
6617.52515,0.52900
6615.59640,0.52906
6613.66766,0.52830
6611.73891,0.52637
6609.81017,0.52569
6607.88142,0.52757
6605.95268,0.52992
6604.02393,0.53120
6602.09519,0.53153
6600.16644,0.53094
6598.23770,0.53067
6596.30895,0.53059
6594.38021,0.52948
6592.45146,0.52997
6590.52271,0.53345
6588.59397,0.53638
6586.66522,0.53623
6584.73648,0.53395
6582.80773,0.53176
6580.87899,0.53052
6578.95024,0.52969
6577.02150,0.52966
6575.09275,0.53075
6573.16401,0.53164
6571.23526,0.53155
6569.30652,0.53213
6567.37777,0.53415
6565.44903,0.53525
6563.52028,0.53369
6561.59154,0.53171
6559.66279,0.53256
6557.73404,0.53487
6555.80530,0.53514
6553.87655,0.53458
6551.94781,0.53567
6550.01906,0.53630
6548.09032,0.53472
6546.16157,0.53352
6544.23283,0.53371
6542.30408,0.53318
6540.37534,0.53171
6538.44659,0.53074
6536.51785,0.53142
6534.58910,0.53326
6532.66036,0.53407
6530.73161,0.53388
6528.80287,0.53405
6526.87412,0.53430
6524.94537,0.53421
6523.01663,0.53372
6521.08788,0.53280
6519.15914,0.53145
6517.23039,0.53004
6515.30165,0.52975
6513.37290,0.53044
6511.44416,0.53103
6509.51541,0.53135
6507.58667,0.53123
6505.65792,0.53072
6503.72918,0.52975
6501.80043,0.52785
6499.87169,0.52661
6497.94294,0.52716
6496.01419,0.52844
6494.08545,0.53013
6492.15670,0.53140
6490.22796,0.53106
6488.29921,0.53042
6486.37047,0.52997
6484.44172,0.52896
6482.51298,0.52940
6480.58423,0.53203
6478.65549,0.53388
6476.72674,0.53445
6474.79800,0.53518
6472.86925,0.53508
6470.94051,0.53355
6469.01176,0.53213
6467.08302,0.53223
6465.15427,0.53350
6463.22552,0.53468
6461.29678,0.53507
6459.36803,0.53416
6457.43929,0.53234
6455.51054,0.53170
6453.58180,0.53198
6451.65305,0.53069
6449.72431,0.52930
6447.79556,0.53049
6445.86682,0.53242
6443.93807,0.53291
6442.00933,0.53297
6440.08058,0.53355
6438.15184,0.53374
6436.22309,0.53321
6434.29434,0.53344
6432.36560,0.53527
6430.43685,0.53689
6428.50811,0.53639
6426.57936,0.53506
6424.65062,0.53452
6422.72187,0.53419
6420.79313,0.53353
6418.86438,0.53328
6416.93564,0.53425
6415.00689,0.53572
6413.07815,0.53625
6411.14940,0.53595
6409.22066,0.53569
6407.29191,0.53511
6405.36317,0.53410
6403.43442,0.53465
6401.50567,0.53691
6399.57693,0.53774
6397.64818,0.53621
6395.71944,0.53544
6393.79069,0.53713
6391.86195,0.53878
6389.93320,0.53812
6388.00446,0.53632
6386.07571,0.53596
6384.14697,0.53676
6382.21822,0.53627
6380.28948,0.53518
6378.36073,0.53556
6376.43199,0.53720
6374.50324,0.53913
6372.57450,0.54025
6370.64575,0.53989
6368.71700,0.53889
6366.78826,0.53803
6364.85951,0.53704
6362.93077,0.53627
6361.00202,0.53653
6359.07328,0.53711
6357.14453,0.53756
6355.21579,0.53806
6353.28704,0.53766
6351.35830,0.53652
6349.42955,0.53620
6347.50081,0.53648
6345.57206,0.53656
6343.64332,0.53689
6341.71457,0.53830
6339.78582,0.54000
6337.85708,0.53986
6335.92833,0.53776
6333.99959,0.53589
6332.07084,0.53549
6330.14210,0.53593
6328.21335,0.53690
6326.28461,0.53837
6324.35586,0.53933
6322.42712,0.53952
6320.49837,0.53955
6318.56963,0.53954
6316.64088,0.53895
6314.71214,0.53748
6312.78339,0.53611
6310.85465,0.53586
6308.92590,0.53618
6306.99715,0.53685
6305.06841,0.53836
6303.13966,0.53956
6301.21092,0.53973
6299.28217,0.54021
6297.35343,0.54049
6295.42468,0.53944
6293.49594,0.53852
6291.56719,0.53830
6289.63845,0.53830
6287.70970,0.53914
6285.78096,0.54041
6283.85221,0.54181
6281.92347,0.54395
6279.99472,0.54556
6278.06598,0.54577
6276.13723,0.54597
6274.20848,0.54661
6272.27974,0.54633
6270.35099,0.54484
6268.42225,0.54363
6266.49350,0.54322
6264.56476,0.54287
6262.63601,0.54318
6260.70727,0.54469
6258.77852,0.54583
6256.84978,0.54594
6254.92103,0.54627
6252.99229,0.54708
6251.06354,0.54792
6249.13480,0.54868
6247.20605,0.54918
6245.27730,0.54859
6243.34856,0.54624
6241.41981,0.54438
6239.49107,0.54577
6237.56232,0.54923
6235.63358,0.55158
6233.70483,0.55217
6231.77609,0.55245
6229.84734,0.55275
6227.91860,0.55187
6225.98985,0.55054
6224.06111,0.55164
6222.13236,0.55403
6220.20362,0.55425
6218.27487,0.55333
6216.34613,0.55336
6214.41738,0.55311
6212.48863,0.55218
6210.55989,0.55269
6208.63114,0.55437
6206.70240,0.55524
6204.77365,0.55567
6202.84491,0.55659
6200.91616,0.55756
6198.98742,0.55770
6197.05867,0.55737
6195.12993,0.55757
6193.20118,0.55823
6191.27244,0.55890
6189.34369,0.55974
6187.41495,0.56091
6185.48620,0.56235
6183.55746,0.56374
6181.62871,0.56415
6179.69996,0.56351
6177.77122,0.56277
6175.84247,0.56250
6173.91373,0.56335
6171.98498,0.56511
6170.05624,0.56655
6168.12749,0.56712
6166.19875,0.56662
6164.27000,0.56494
6162.34126,0.56327
6160.41251,0.56416
6158.48377,0.56757
6156.55502,0.56977
6154.62628,0.56942
6152.69753,0.56852
6150.76878,0.56815
6148.84004,0.56823
6146.91129,0.56901
6144.98255,0.57013
6143.05380,0.57051
6141.12506,0.57004
6139.19631,0.56977
6137.26757,0.57058
6135.33882,0.57193
6133.41008,0.57265
6131.48133,0.57268
6129.55259,0.57288
6127.62384,0.57387
6125.69510,0.57496
6123.76635,0.57503
6121.83761,0.57416
6119.90886,0.57281
6117.98011,0.57156
6116.05137,0.57189
6114.12262,0.57343
6112.19388,0.57395
6110.26513,0.57370
6108.33639,0.57452
6106.40764,0.57673
6104.47890,0.57847
6102.55015,0.57764
6100.62141,0.57567
6098.69266,0.57550
6096.76392,0.57668
6094.83517,0.57731
6092.90643,0.57741
6090.97768,0.57780
6089.04893,0.57883
6087.12019,0.57959
6085.19144,0.57951
6083.26270,0.57980
6081.33395,0.57992
6079.40521,0.57910
6077.47646,0.57863
6075.54772,0.57919
6073.61897,0.58027
6071.69023,0.58084
6069.76148,0.58016
6067.83274,0.57912
6065.90399,0.57943
6063.97525,0.58006
6062.04650,0.57922
6060.11776,0.57920
6058.18901,0.58127
6056.26026,0.58318
6054.33152,0.58338
6052.40277,0.58235
6050.47403,0.58242
6048.54528,0.58378
6046.61654,0.58391
6044.68779,0.58308
6042.75905,0.58330
6040.83030,0.58463
6038.90156,0.58631
6036.97281,0.58733
6035.04407,0.58664
6033.11532,0.58506
6031.18658,0.58400
6029.25783,0.58348
6027.32909,0.58347
6025.40034,0.58404
6023.47159,0.58496
6021.54285,0.58603
6019.61410,0.58678
6017.68536,0.58623
6015.75661,0.58501
6013.82787,0.58466
6011.89912,0.58439
6009.97038,0.58381
6008.04163,0.58446
6006.11289,0.58614
6004.18414,0.58772
6002.25540,0.58869
6000.32665,0.58847
5998.39791,0.58751
5996.46916,0.58692
5994.54041,0.58707
5992.61167,0.58800
5990.68292,0.58885
5988.75418,0.58815
5986.82543,0.58638
5984.89669,0.58523
5982.96794,0.58499
5981.03920,0.58546
5979.11045,0.58672
5977.18171,0.58749
5975.25296,0.58694
5973.32422,0.58670
5971.39547,0.58764
5969.46673,0.58849
5967.53798,0.58906
5965.60924,0.58975
5963.68049,0.58972
5961.75174,0.58851
5959.82300,0.58640
5957.89425,0.58487
5955.96551,0.58534
5954.03676,0.58638
5952.10802,0.58637
5950.17927,0.58611
5948.25053,0.58672
5946.32178,0.58781
5944.39304,0.58820
5942.46429,0.58801
5940.53555,0.58836
5938.60680,0.58925
5936.67806,0.58984
5934.74931,0.58989
5932.82057,0.58931
5930.89182,0.58820
5928.96307,0.58669
5927.03433,0.58469
5925.10558,0.58336
5923.17684,0.58341
5921.24809,0.58382
5919.31935,0.58486
5917.39060,0.58714
5915.46186,0.58886
5913.53311,0.58817
5911.60437,0.58631
5909.67562,0.58495
5907.74688,0.58442
5905.81813,0.58518
5903.88939,0.58632
5901.96064,0.58576
5900.03189,0.58392
5898.10315,0.58308
5896.17440,0.58374
5894.24566,0.58450
5892.31691,0.58469
5890.38817,0.58401
5888.45942,0.58244
5886.53068,0.58139
5884.60193,0.58161
5882.67319,0.58225
5880.74444,0.58248
5878.81570,0.58211
5876.88695,0.58148
5874.95821,0.58090
5873.02946,0.58007
5871.10072,0.57927
5869.17197,0.57928
5867.24322,0.57949
5865.31448,0.57923
5863.38573,0.57919
5861.45699,0.57939
5859.52824,0.57913
5857.59950,0.57851
5855.67075,0.57823
5853.74201,0.57862
5851.81326,0.57979
5849.88452,0.58104
5847.95577,0.58089
5846.02703,0.57972
5844.09828,0.57899
5842.16954,0.57892
5840.24079,0.57893
5838.31205,0.57923
5836.38330,0.58042
5834.45455,0.58123
5832.52581,0.58026
5830.59706,0.57822
5828.66832,0.57675
5826.73957,0.57700
5824.81083,0.57806
5822.88208,0.57848
5820.95334,0.57879
5819.02459,0.57964
5817.09585,0.57982
5815.16710,0.57833
5813.23836,0.57687
5811.30961,0.57713
5809.38087,0.57778
5807.45212,0.57735
5805.52337,0.57653
5803.59463,0.57636
5801.66588,0.57728
5799.73714,0.57903
5797.80839,0.58020
5795.87965,0.57988
5793.95090,0.57915
5792.02216,0.57888
5790.09341,0.57820
5788.16467,0.57672
5786.23592,0.57606
5784.30718,0.57685
5782.37843,0.57719
5780.44969,0.57651
5778.52094,0.57555
5776.59220,0.57423
5774.66345,0.57355
5772.73470,0.57449
5770.80596,0.57559
5768.87721,0.57555
5766.94847,0.57465
5765.01972,0.57361
5763.09098,0.57341
5761.16223,0.57455
5759.23349,0.57621
5757.30474,0.57681
5755.37600,0.57557
5753.44725,0.57410
5751.51851,0.57412
5749.58976,0.57477
5747.66102,0.57547
5745.73227,0.57682
5743.80352,0.57738
5741.87478,0.57624
5739.94603,0.57531
5738.01729,0.57566
5736.08854,0.57668
5734.15980,0.57784
5732.23105,0.57797
5730.30231,0.57631
5728.37356,0.57436
5726.44482,0.57359
5724.51607,0.57377
5722.58733,0.57411
5720.65858,0.57422
5718.72984,0.57434
5716.80109,0.57476
5714.87235,0.57539
5712.94360,0.57561
5711.01485,0.57462
5709.08611,0.57335
5707.15736,0.57339
5705.22862,0.57424
5703.29987,0.57445
5701.37113,0.57424
5699.44238,0.57441
5697.51364,0.57450
5695.58489,0.57400
5693.65615,0.57344
5691.72740,0.57285
5689.79866,0.57181
5687.86991,0.57072
5685.94117,0.57056
5684.01242,0.57163
5682.08368,0.57288
5680.15493,0.57330
5678.22618,0.57295
5676.29744,0.57240
5674.36869,0.57178
5672.43995,0.57141
5670.51120,0.57202
5668.58246,0.57288
5666.65371,0.57276
5664.72497,0.57219
5662.79622,0.57204
5660.86748,0.57182
5658.93873,0.57111
5657.00999,0.57050
5655.08124,0.57061
5653.15250,0.57104
5651.22375,0.57080
5649.29500,0.57006
5647.36626,0.57013
5645.43751,0.57096
5643.50877,0.57116
5641.58002,0.57010
5639.65128,0.56890
5637.72253,0.56909
5635.79379,0.57041
5633.86504,0.57143
5631.93630,0.57159
5630.00755,0.57146
5628.07881,0.57148
5626.15006,0.57144
5624.22132,0.57140
5622.29257,0.57142
5620.36383,0.57110
5618.43508,0.57092
5616.50633,0.57134
5614.57759,0.57118
5612.64884,0.57006
5610.72010,0.56959
5608.79135,0.57031
5606.86261,0.57102
5604.93386,0.57100
5603.00512,0.57074
5601.07637,0.57105
5599.14763,0.57166
5597.21888,0.57178
5595.29014,0.57189
5593.36139,0.57242
5591.43265,0.57234
5589.50390,0.57104
5587.57516,0.56954
5585.64641,0.56921
5583.71766,0.57020
5581.78892,0.57146
5579.86017,0.57171
5577.93143,0.57090
5576.00268,0.57057
5574.07394,0.57134
5572.14519,0.57211
5570.21645,0.57219
5568.28770,0.57173
5566.35896,0.57120
5564.43021,0.57122
5562.50147,0.57168
5560.57272,0.57201
5558.64398,0.57210
5556.71523,0.57215
5554.78648,0.57253
5552.85774,0.57306
5550.92899,0.57258
5549.00025,0.57131
5547.07150,0.57060
5545.14276,0.57089
5543.21401,0.57157
5541.28527,0.57177
5539.35652,0.57120
5537.42778,0.57050
5535.49903,0.57049
5533.57029,0.57075
5531.64154,0.57049
5529.71280,0.57057
5527.78405,0.57147
5525.85531,0.57202
5523.92656,0.57221
5521.99781,0.57291
5520.06907,0.57358
5518.14032,0.57341
5516.21158,0.57258
5514.28283,0.57206
5512.35409,0.57235
5510.42534,0.57219
5508.49660,0.57117
5506.56785,0.57078
5504.63911,0.57089
5502.71036,0.57042
5500.78162,0.56951
5498.85287,0.56906
5496.92413,0.56996
5494.99538,0.57166
5493.06664,0.57251
5491.13789,0.57218
5489.20914,0.57145
5487.28040,0.57083
5485.35165,0.57026
5483.42291,0.56990
5481.49416,0.56998
5479.56542,0.56992
5477.63667,0.56981
5475.70793,0.57038
5473.77918,0.57078
5471.85044,0.57043
5469.92169,0.57035
5467.99295,0.57078
5466.06420,0.57105
5464.13546,0.57099
5462.20671,0.57098
5460.27796,0.57134
5458.34922,0.57200
5456.42047,0.57248
5454.49173,0.57245
5452.56298,0.57223
5450.63424,0.57210
5448.70549,0.57197
5446.77675,0.57195
5444.84800,0.57204
5442.91926,0.57233
5440.99051,0.57335
5439.06177,0.57461
5437.13302,0.57473
5435.20428,0.57406
5433.27553,0.57402
5431.34679,0.57435
5429.41804,0.57420
5427.48929,0.57374
5425.56055,0.57332
5423.63180,0.57312
5421.70306,0.57371
5419.77431,0.57503
5417.84557,0.57604
5415.91682,0.57623
5413.98808,0.57596
5412.05933,0.57586
5410.13059,0.57618
5408.20184,0.57677
5406.27310,0.57763
5404.34435,0.57822
5402.41561,0.57808
5400.48686,0.57778
5398.55811,0.57790
5396.62937,0.57840
5394.70062,0.57873
5392.77188,0.57865
5390.84313,0.57844
5388.91439,0.57800
5386.98564,0.57754
5385.05690,0.57744
5383.12815,0.57743
5381.19941,0.57755
5379.27066,0.57792
5377.34192,0.57858
5375.41317,0.57933
5373.48443,0.57959
5371.55568,0.57950
5369.62694,0.57960
5367.69819,0.57973
5365.76944,0.57961
5363.84070,0.57960
5361.91195,0.57979
5359.98321,0.57946
5358.05446,0.57887
5356.12572,0.57880
5354.19697,0.57881
5352.26823,0.57892
5350.33948,0.57992
5348.41074,0.58048
5346.48199,0.57915
5344.55325,0.57741
5342.62450,0.57690
5340.69576,0.57747
5338.76701,0.57872
5336.83827,0.57983
5334.90952,0.58004
5332.98077,0.58018
5331.05203,0.58069
5329.12328,0.58060
5327.19454,0.57978
5325.26579,0.57884
5323.33705,0.57830
5321.40830,0.57840
5319.47956,0.57875
5317.55081,0.57884
5315.62207,0.57856
5313.69332,0.57822
5311.76458,0.57828
5309.83583,0.57859
5307.90709,0.57848
5305.97834,0.57772
5304.04959,0.57672
5302.12085,0.57608
5300.19210,0.57587
5298.26336,0.57578
5296.33461,0.57576
5294.40587,0.57604
5292.47712,0.57660
5290.54838,0.57682
5288.61963,0.57603
5286.69089,0.57440
5284.76214,0.57294
5282.83340,0.57247
5280.90465,0.57273
5278.97591,0.57279
5277.04716,0.57219
5275.11842,0.57096
5273.18967,0.56970
5271.26092,0.56903
5269.33218,0.56865
5267.40343,0.56821
5265.47469,0.56775
5263.54594,0.56714
5261.61720,0.56620
5259.68845,0.56470
5257.75971,0.56296
5255.83096,0.56185
5253.90222,0.56162
5251.97347,0.56191
5250.04473,0.56218
5248.11598,0.56184
5246.18724,0.56078
5244.25849,0.55961
5242.32975,0.55875
5240.40100,0.55802
5238.47225,0.55738
5236.54351,0.55679
5234.61476,0.55595
5232.68602,0.55501
5230.75727,0.55418
5228.82853,0.55345
5226.89978,0.55316
5224.97104,0.55323
5223.04229,0.55297
5221.11355,0.55217
5219.18480,0.55112
5217.25606,0.55023
5215.32731,0.54981
5213.39857,0.54993
5211.46982,0.55029
5209.54107,0.55023
5207.61233,0.54965
5205.68358,0.54917
5203.75484,0.54911
5201.82609,0.54927
5199.89735,0.54909
5197.96860,0.54849
5196.03986,0.54818
5194.11111,0.54830
5192.18237,0.54853
5190.25362,0.54903
5188.32488,0.54962
5186.39613,0.54937
5184.46739,0.54826
5182.53864,0.54726
5180.60990,0.54668
5178.68115,0.54657
5176.75240,0.54689
5174.82366,0.54708
5172.89491,0.54705
5170.96617,0.54743
5169.03742,0.54836
5167.10868,0.54899
5165.17993,0.54890
5163.25119,0.54870
5161.32244,0.54891
5159.39370,0.54910
5157.46495,0.54873
5155.53621,0.54836
5153.60746,0.54834
5151.67872,0.54824
5149.74997,0.54845
5147.82123,0.54939
5145.89248,0.55036
5143.96373,0.55107
5142.03499,0.55157
5140.10624,0.55150
5138.17750,0.55114
5136.24875,0.55130
5134.32001,0.55184
5132.39126,0.55191
5130.46252,0.55156
5128.53377,0.55183
5126.60503,0.55292
5124.67628,0.55364
5122.74754,0.55332
5120.81879,0.55279
5118.89005,0.55261
5116.96130,0.55240
5115.03255,0.55236
5113.10381,0.55315
5111.17506,0.55440
5109.24632,0.55524
5107.31757,0.55536
5105.38883,0.55507
5103.46008,0.55505
5101.53134,0.55561
5099.60259,0.55640
5097.67385,0.55668
5095.74510,0.55646
5093.81636,0.55618
5091.88761,0.55595
5089.95887,0.55610
5088.03012,0.55679
5086.10138,0.55724
5084.17263,0.55722
5082.24388,0.55734
5080.31514,0.55764
5078.38639,0.55799
5076.45765,0.55826
5074.52890,0.55801
5072.60016,0.55762
5070.67141,0.55766
5068.74267,0.55802
5066.81392,0.55858
5064.88518,0.55891
5062.95643,0.55879
5061.02769,0.55887
5059.09894,0.55891
5057.17020,0.55851
5055.24145,0.55849
5053.31270,0.55923
5051.38396,0.56002
5049.45521,0.56015
5047.52647,0.55985
5045.59772,0.55997
5043.66898,0.56010
5041.74023,0.55933
5039.81149,0.55808
5037.88274,0.55745
5035.95400,0.55732
5034.02525,0.55720
5032.09651,0.55752
5030.16776,0.55820
5028.23902,0.55817
5026.31027,0.55758
5024.38153,0.55762
5022.45278,0.55843
5020.52403,0.55898
5018.59529,0.55871
5016.66654,0.55836
5014.73780,0.55846
5012.80905,0.55836
5010.88031,0.55748
5008.95156,0.55633
5007.02282,0.55541
5005.09407,0.55491
5003.16533,0.55497
5001.23658,0.55507
4999.30784,0.55471
4997.37909,0.55438
4995.45035,0.55433
4993.52160,0.55433
4991.59286,0.55443
4989.66411,0.55451
4987.73536,0.55430
4985.80662,0.55400
4983.87787,0.55362
4981.94913,0.55299
4980.02038,0.55245
4978.09164,0.55214
4976.16289,0.55147
4974.23415,0.55023
4972.30540,0.54913
4970.37666,0.54858
4968.44791,0.54808
4966.51917,0.54732
4964.59042,0.54640
4962.66168,0.54556
4960.73293,0.54502
4958.80418,0.54444
4956.87544,0.54348
4954.94669,0.54233
4953.01795,0.54103
4951.08920,0.53966
4949.16046,0.53858
4947.23171,0.53788
4945.30297,0.53732
4943.37422,0.53653
4941.44548,0.53513
4939.51673,0.53338
4937.58799,0.53238
4935.65924,0.53186
4933.73050,0.53061
4931.80175,0.52900
4929.87301,0.52765
4927.94426,0.52621
4926.01551,0.52470
4924.08677,0.52322
4922.15802,0.52175
4920.22928,0.52043
4918.30053,0.51903
4916.37179,0.51735
4914.44304,0.51572
4912.51430,0.51423
4910.58555,0.51236
4908.65681,0.51002
4906.72806,0.50778
4904.79932,0.50599
4902.87057,0.50459
4900.94183,0.50307
4899.01308,0.50120
4897.08434,0.49948
4895.15559,0.49819
4893.22684,0.49679
4891.29810,0.49490
4889.36935,0.49296
4887.44061,0.49108
4885.51186,0.48893
4883.58312,0.48683
4881.65437,0.48505
4879.72563,0.48316
4877.79688,0.48116
4875.86814,0.47940
4873.93939,0.47766
4872.01065,0.47574
4870.08190,0.47398
4868.15316,0.47255
4866.22441,0.47106
4864.29566,0.46922
4862.36692,0.46747
4860.43817,0.46621
4858.50943,0.46511
4856.58068,0.46373
4854.65194,0.46205
4852.72319,0.46034
4850.79445,0.45874
4848.86570,0.45710
4846.93696,0.45559
4845.00821,0.45448
4843.07947,0.45350
4841.15072,0.45222
4839.22198,0.45045
4837.29323,0.44841
4835.36449,0.44641
4833.43574,0.44457
4831.50699,0.44309
4829.57825,0.44193
4827.64950,0.44067
4825.72076,0.43909
4823.79201,0.43736
4821.86327,0.43581
4819.93452,0.43462
4818.00578,0.43363
4816.07703,0.43266
4814.14829,0.43190
4812.21954,0.43113
4810.29080,0.43005
4808.36205,0.42888
4806.43331,0.42773
4804.50456,0.42657
4802.57582,0.42566
4800.64707,0.42503
4798.71832,0.42437
4796.78958,0.42379
4794.86083,0.42326
4792.93209,0.42246
4791.00334,0.42165
4789.07460,0.42114
4787.14585,0.42062
4785.21711,0.41997
4783.28836,0.41958
4781.35962,0.41953
4779.43087,0.41942
4777.50213,0.41916
4775.57338,0.41886
4773.64464,0.41818
4771.71589,0.41718
4769.78714,0.41643
4767.85840,0.41604
4765.92965,0.41583
4764.00091,0.41571
4762.07216,0.41544
4760.14342,0.41494
4758.21467,0.41440
4756.28593,0.41415
4754.35718,0.41435
4752.42844,0.41478
4750.49969,0.41514
4748.57095,0.41531
4746.64220,0.41533
4744.71346,0.41537
4742.78471,0.41565
4740.85597,0.41613
4738.92722,0.41661
4736.99847,0.41701
4735.06973,0.41750
4733.14098,0.41766
4731.21224,0.41722
4729.28349,0.41722
4727.35475,0.41826
4725.42600,0.41963
4723.49726,0.42081
4721.56851,0.42176
4719.63977,0.42227
4717.71102,0.42244
4715.78228,0.42283
4713.85353,0.42352
4711.92479,0.42417
4709.99604,0.42495
4708.06729,0.42610
4706.13855,0.42722
4704.20980,0.42796
4702.28106,0.42864
4700.35231,0.42955
4698.42357,0.43041
4696.49482,0.43091
4694.56608,0.43137
4692.63733,0.43237
4690.70859,0.43371
4688.77984,0.43494
4686.85110,0.43603
4684.92235,0.43697
4682.99361,0.43778
4681.06486,0.43841
4679.13612,0.43899
4677.20737,0.43982
4675.27862,0.44059
4673.34988,0.44102
4671.42113,0.44166
4669.49239,0.44273
4667.56364,0.44366
4665.63490,0.44433
4663.70615,0.44504
4661.77741,0.44586
4659.84866,0.44689
4657.91992,0.44805
4655.99117,0.44881
4654.06243,0.44923
4652.13368,0.45000
4650.20494,0.45115
4648.27619,0.45215
4646.34745,0.45285
4644.41870,0.45334
4642.48995,0.45384
4640.56121,0.45464
4638.63246,0.45547
4636.70372,0.45591
4634.77497,0.45644
4632.84623,0.45737
4630.91748,0.45836
4628.98874,0.45927
4627.05999,0.45992
4625.13125,0.46019
4623.20250,0.46045
4621.27376,0.46089
4619.34501,0.46143
4617.41627,0.46221
4615.48752,0.46339
4613.55877,0.46460
4611.63003,0.46566
4609.70128,0.46678
4607.77254,0.46764
4605.84379,0.46814
4603.91505,0.46892
4601.98630,0.46992
4600.05756,0.47038
4598.12881,0.47039
4596.20007,0.47055
4594.27132,0.47105
4592.34258,0.47188
4590.41383,0.47282
4588.48509,0.47374
4586.55634,0.47459
4584.62760,0.47522
4582.69885,0.47609
4580.77010,0.47769
4578.84136,0.47918
4576.91261,0.47963
4574.98387,0.47966
4573.05512,0.48033
4571.12638,0.48146
4569.19763,0.48220
4567.26889,0.48260
4565.34014,0.48314
4563.41140,0.48358
4561.48265,0.48398
4559.55391,0.48496
4557.62516,0.48610
4555.69642,0.48675
4553.76767,0.48724
4551.83893,0.48772
4549.91018,0.48824
4547.98143,0.48907
4546.05269,0.48995
4544.12394,0.49038
4542.19520,0.49075
4540.26645,0.49158
4538.33771,0.49241
4536.40896,0.49280
4534.48022,0.49306
4532.55147,0.49339
4530.62273,0.49362
4528.69398,0.49361
4526.76524,0.49366
4524.83649,0.49414
4522.90775,0.49506
4520.97900,0.49604
4519.05025,0.49653
4517.12151,0.49660
4515.19276,0.49662
4513.26402,0.49661
4511.33527,0.49676
4509.40653,0.49704
4507.47778,0.49707
4505.54904,0.49711
4503.62029,0.49758
4501.69155,0.49813
4499.76280,0.49821
4497.83406,0.49805
4495.90531,0.49818
4493.97657,0.49837
4492.04782,0.49834
4490.11908,0.49837
4488.19033,0.49845
4486.26158,0.49857
4484.33284,0.49873
4482.40409,0.49869
4480.47535,0.49826
4478.54660,0.49776
4476.61786,0.49784
4474.68911,0.49844
4472.76037,0.49865
4470.83162,0.49819
4468.90288,0.49762
4466.97413,0.49703
4465.04539,0.49609
4463.11664,0.49509
4461.18790,0.49423
4459.25915,0.49342
4457.33041,0.49264
4455.40166,0.49162
4453.47291,0.49035
4451.54417,0.48904
4449.61542,0.48745
4447.68668,0.48554
4445.75793,0.48362
4443.82919,0.48158
4441.90044,0.47932
4439.97170,0.47706
4438.04295,0.47470
4436.11421,0.47198
4434.18546,0.46921
4432.25672,0.46686
4430.32797,0.46459
4428.39923,0.46173
4426.47048,0.45840
4424.54173,0.45519
4422.61299,0.45218
4420.68424,0.44906
4418.75550,0.44575
4416.82675,0.44250
4414.89801,0.43944
4412.96926,0.43641
4411.04052,0.43346
4409.11177,0.43067
4407.18303,0.42801
4405.25428,0.42592
4403.32554,0.42453
4401.39679,0.42341
4399.46805,0.42251
4397.53930,0.42219
4395.61056,0.42256
4393.68181,0.42312
4391.75306,0.42374
4389.82432,0.42483
4387.89557,0.42590
4385.96683,0.42656
4384.03808,0.42748
4382.10934,0.42879
4380.18059,0.43017
4378.25185,0.43170
4376.32310,0.43316
4374.39436,0.43424
4372.46561,0.43511
4370.53687,0.43595
4368.60812,0.43677
4366.67938,0.43740
4364.75063,0.43766
4362.82189,0.43751
4360.89314,0.43696
4358.96439,0.43619
4357.03565,0.43562
4355.10690,0.43541
4353.17816,0.43519
4351.24941,0.43469
4349.32067,0.43390
4347.39192,0.43288
4345.46318,0.43181
4343.53443,0.43082
4341.60569,0.43021
4339.67694,0.42995
4337.74820,0.42946
4335.81945,0.42857
4333.89071,0.42743
4331.96196,0.42600
4330.03321,0.42452
4328.10447,0.42325
4326.17572,0.42193
4324.24698,0.42042
4322.31823,0.41892
4320.38949,0.41758
4318.46074,0.41648
4316.53200,0.41571
4314.60325,0.41510
4312.67451,0.41438
4310.74576,0.41363
4308.81702,0.41296
4306.88827,0.41207
4304.95953,0.41075
4303.03078,0.40928
4301.10204,0.40813
4299.17329,0.40728
4297.24454,0.40638
4295.31580,0.40560
4293.38705,0.40492
4291.45831,0.40392
4289.52956,0.40260
4287.60082,0.40133
4285.67207,0.40037
4283.74333,0.39973
4281.81458,0.39928
4279.88584,0.39884
4277.95709,0.39842
4276.02835,0.39826
4274.09960,0.39833
4272.17086,0.39817
4270.24211,0.39774
4268.31336,0.39751
4266.38462,0.39763
4264.45587,0.39783
4262.52713,0.39804
4260.59838,0.39852
4258.66964,0.39924
4256.74089,0.39978
4254.81215,0.39991
4252.88340,0.39982
4250.95466,0.39990
4249.02591,0.40028
4247.09717,0.40068
4245.16842,0.40084
4243.23968,0.40081
4241.31093,0.40085
4239.38219,0.40131
4237.45344,0.40216
4235.52469,0.40303
4233.59595,0.40376
4231.66720,0.40447
4229.73846,0.40514
4227.80971,0.40542
4225.88097,0.40513
4223.95222,0.40489
4222.02348,0.40522
4220.09473,0.40562
4218.16599,0.40582
4216.23724,0.40602
4214.30850,0.40626
4212.37975,0.40685
4210.45101,0.40772
4208.52226,0.40841
4206.59352,0.40921
4204.66477,0.41045
4202.73602,0.41145
4200.80728,0.41188
4198.87853,0.41232
4196.94979,0.41306
4195.02104,0.41389
4193.09230,0.41468
4191.16355,0.41525
4189.23481,0.41527
4187.30606,0.41486
4185.37732,0.41445
4183.44857,0.41443
4181.51983,0.41475
4179.59108,0.41502
4177.66234,0.41525
4175.73359,0.41567
4173.80484,0.41614
4171.87610,0.41664
4169.94735,0.41705
4168.01861,0.41730
4166.08986,0.41777
4164.16112,0.41873
4162.23237,0.41972
4160.30363,0.42008
4158.37488,0.42002
4156.44614,0.42012
4154.51739,0.42019
4152.58865,0.41971
4150.65990,0.41877
4148.73116,0.41789
4146.80241,0.41730
4144.87367,0.41683
4142.94492,0.41645
4141.01617,0.41621
4139.08743,0.41603
4137.15868,0.41578
4135.22994,0.41531
4133.30119,0.41471
4131.37245,0.41422
4129.44370,0.41369
4127.51496,0.41296
4125.58621,0.41209
4123.65747,0.41100
4121.72872,0.40964
4119.79998,0.40824
4117.87123,0.40698
4115.94249,0.40569
4114.01374,0.40398
4112.08500,0.40215
4110.15625,0.40060
4108.22750,0.39906
4106.29876,0.39727
4104.37001,0.39527
4102.44127,0.39303
4100.51252,0.39053
4098.58378,0.38808
4096.65503,0.38598
4094.72629,0.38392
4092.79754,0.38154
4090.86880,0.37909
4088.94005,0.37682
4087.01131,0.37464
4085.08256,0.37250
4083.15382,0.37060
4081.22507,0.36890
4079.29632,0.36693
4077.36758,0.36462
4075.43883,0.36237
4073.51009,0.36019
4071.58134,0.35781
4069.65260,0.35538
4067.72385,0.35302
4065.79511,0.35064
4063.86636,0.34818
4061.93762,0.34553
4060.00887,0.34292
4058.08013,0.34052
4056.15138,0.33798
4054.22264,0.33510
4052.29389,0.33221
4050.36515,0.32947
4048.43640,0.32688
4046.50765,0.32449
4044.57891,0.32223
4042.65016,0.32010
4040.72142,0.31823
4038.79267,0.31663
4036.86393,0.31515
4034.93518,0.31387
4033.00644,0.31299
4031.07769,0.31225
4029.14895,0.31123
4027.22020,0.31027
4025.29146,0.30994
4023.36271,0.31007
4021.43397,0.31016
4019.50522,0.31015
4017.57648,0.31023
4015.64773,0.31054
4013.71898,0.31113
4011.79024,0.31192
4009.86149,0.31285
4007.93275,0.31382
4006.00400,0.31465
4004.07526,0.31553
4002.14651,0.31686
4000.21777,0.31844
3998.28902,0.31978
3996.36028,0.32092
3994.43153,0.32202
3992.50279,0.32289
3990.57404,0.32375
3988.64530,0.32482
3986.71655,0.32569
3984.78780,0.32626
3982.85906,0.32689
3980.93031,0.32761
3979.00157,0.32847
3977.07282,0.32953
3975.14408,0.33043
3973.21533,0.33123
3971.28659,0.33215
3969.35784,0.33296
3967.42910,0.33362
3965.50035,0.33435
3963.57161,0.33527
3961.64286,0.33625
3959.71412,0.33713
3957.78537,0.33813
3955.85663,0.33931
3953.92788,0.34038
3951.99913,0.34115
3950.07039,0.34186
3948.14164,0.34279
3946.21290,0.34397
3944.28415,0.34532
3942.35541,0.34667
3940.42666,0.34791
3938.49792,0.34906
3936.56917,0.35025
3934.64043,0.35150
3932.71168,0.35268
3930.78294,0.35381
3928.85419,0.35506
3926.92545,0.35626
3924.99670,0.35724
3923.06795,0.35818
3921.13921,0.35914
3919.21046,0.36009
3917.28172,0.36102
3915.35297,0.36179
3913.42423,0.36246
3911.49548,0.36309
3909.56674,0.36359
3907.63799,0.36412
3905.70925,0.36483
3903.78050,0.36577
3901.85176,0.36675
3899.92301,0.36745
3897.99427,0.36799
3896.06552,0.36865
3894.13678,0.36937
3892.20803,0.37017
3890.27928,0.37103
3888.35054,0.37171
3886.42179,0.37222
3884.49305,0.37291
3882.56430,0.37364
3880.63556,0.37396
3878.70681,0.37394
3876.77807,0.37421
3874.84932,0.37505
3872.92058,0.37590
3870.99183,0.37655
3869.06309,0.37775
3867.13434,0.37953
3865.20560,0.38120
3863.27685,0.38264
3861.34811,0.38407
3859.41936,0.38555
3857.49061,0.38706
3855.56187,0.38851
3853.63312,0.38978
3851.70438,0.39091
3849.77563,0.39216
3847.84689,0.39363
3845.91814,0.39506
3843.98940,0.39607
3842.06065,0.39687
3840.13191,0.39784
3838.20316,0.39887
3836.27442,0.39974
3834.34567,0.40039
3832.41693,0.40092
3830.48818,0.40142
3828.55943,0.40180
3826.63069,0.40193
3824.70194,0.40182
3822.77320,0.40182
3820.84445,0.40224
3818.91571,0.40281
3816.98696,0.40308
3815.05822,0.40293
3813.12947,0.40257
3811.20073,0.40236
3809.27198,0.40241
3807.34324,0.40243
3805.41449,0.40239
3803.48575,0.40276
3801.55700,0.40338
3799.62826,0.40381
3797.69951,0.40422
3795.77076,0.40480
3793.84202,0.40540
3791.91327,0.40602
3789.98453,0.40650
3788.05578,0.40656
3786.12704,0.40634
3784.19829,0.40637
3782.26955,0.40671
3780.34080,0.40698
3778.41206,0.40714
3776.48331,0.40724
3774.55457,0.40712
3772.62582,0.40691
3770.69708,0.40675
3768.76833,0.40666
3766.83959,0.40663
3764.91084,0.40657
3762.98209,0.40643
3761.05335,0.40634
3759.12460,0.40625
3757.19586,0.40602
3755.26711,0.40569
3753.33837,0.40532
3751.40962,0.40490
3749.48088,0.40452
3747.55213,0.40425
3745.62339,0.40391
3743.69464,0.40331
3741.76590,0.40262
3739.83715,0.40207
3737.90841,0.40158
3735.97966,0.40090
3734.05091,0.39995
3732.12217,0.39888
3730.19342,0.39774
3728.26468,0.39654
3726.33593,0.39538
3724.40719,0.39438
3722.47844,0.39354
3720.54970,0.39259
3718.62095,0.39141
3716.69221,0.39020
3714.76346,0.38885
3712.83472,0.38699
3710.90597,0.38492
3708.97723,0.38314
3707.04848,0.38159
3705.11974,0.38004
3703.19099,0.37822
3701.26224,0.37605
3699.33350,0.37390
3697.40475,0.37196
3695.47601,0.36983
3693.54726,0.36714
3691.61852,0.36426
3689.68977,0.36172
3687.76103,0.35920
3685.83228,0.35616
3683.90354,0.35271
3681.97479,0.34918
3680.04605,0.34565
3678.11730,0.34209
3676.18856,0.33825
3674.25981,0.33400
3672.33107,0.32962
3670.40232,0.32512
3668.47357,0.32055
3666.54483,0.31612
3664.61608,0.31167
3662.68734,0.30693
3660.75859,0.30201
3658.82985,0.29708
3656.90110,0.29212
3654.97236,0.28722
3653.04361,0.28244
3651.11487,0.27737
3649.18612,0.27170
3647.25738,0.26593
3645.32863,0.26070
3643.39989,0.25576
3641.47114,0.25064
3639.54239,0.24545
3637.61365,0.24034
3635.68490,0.23516
3633.75616,0.23005
3631.82741,0.22534
3629.89867,0.22053
3627.96992,0.21512
3626.04118,0.20954
3624.11243,0.20406
3622.18369,0.19866
3620.25494,0.19326
3618.32620,0.18778
3616.39745,0.18236
3614.46871,0.17715
3612.53996,0.17205
3610.61122,0.16703
3608.68247,0.16211
3606.75372,0.15715
3604.82498,0.15203
3602.89623,0.14692
3600.96749,0.14213
3599.03874,0.13768
3597.11000,0.13330
3595.18125,0.12888
3593.25251,0.12476
3591.32376,0.12112
3589.39502,0.11767
3587.46627,0.11418
3585.53753,0.11065
3583.60878,0.10719
3581.68004,0.10408
3579.75129,0.10130
3577.82254,0.09859
3575.89380,0.09579
3573.96505,0.09287
3572.03631,0.09020
3570.10756,0.08798
3568.17882,0.08571
3566.25007,0.08320
3564.32133,0.08095
3562.39258,0.07897
3560.46384,0.07701
3558.53509,0.07502
3556.60635,0.07279
3554.67760,0.07046
3552.74886,0.06852
3550.82011,0.06692
3548.89137,0.06533
3546.96262,0.06373
3545.03387,0.06220
3543.10513,0.06082
3541.17638,0.05957
3539.24764,0.05821
3537.31889,0.05674
3535.39015,0.05548
3533.46140,0.05439
3531.53266,0.05327
3529.60391,0.05201
3527.67517,0.05059
3525.74642,0.04925
3523.81768,0.04837
3521.88893,0.04767
3519.96019,0.04657
3518.03144,0.04523
3516.10270,0.04419
3514.17395,0.04350
3512.24520,0.04272
3510.31646,0.04164
3508.38771,0.04059
3506.45897,0.03984
3504.53022,0.03921
3502.60148,0.03845
3500.67273,0.03788
3498.74399,0.03763
3496.81524,0.03723
3494.88650,0.03651
3492.95775,0.03590
3491.02901,0.03563
3489.10026,0.03533
3487.17152,0.03477
3485.24277,0.03413
3483.31402,0.03373
3481.38528,0.03355
3479.45653,0.03329
3477.52779,0.03295
3475.59904,0.03268
3473.67030,0.03244
3471.74155,0.03230
3469.81281,0.03221
3467.88406,0.03184
3465.95532,0.03123
3464.02657,0.03077
3462.09783,0.03058
3460.16908,0.03050
3458.24034,0.03034
3456.31159,0.03009
3454.38285,0.03004
3452.45410,0.03017
3450.52535,0.03024
3448.59661,0.03019
3446.66786,0.02994
3444.73912,0.02978
3442.81037,0.02997
3440.88163,0.03022
3438.95288,0.03017
3437.02414,0.02986
3435.09539,0.02956
3433.16665,0.02952
3431.23790,0.02977
3429.30916,0.03009
3427.38041,0.03020
3425.45167,0.03002
3423.52292,0.02986
3421.59418,0.02997
3419.66543,0.03025
3417.73668,0.03054
3415.80794,0.03067
3413.87919,0.03058
3411.95045,0.03044
3410.02170,0.03041
3408.09296,0.03056
3406.16421,0.03060
3404.23547,0.03032
3402.30672,0.03008
3400.37798,0.03020
3398.44923,0.03044
3396.52049,0.03043
3394.59174,0.03019
3392.66300,0.02988
3390.73425,0.02979
3388.80550,0.03010
3386.87676,0.03047
3384.94801,0.03058
3383.01927,0.03052
3381.09052,0.03064
3379.16178,0.03112
3377.23303,0.03153
3375.30429,0.03146
3373.37554,0.03129
3371.44680,0.03136
3369.51805,0.03159
3367.58931,0.03184
3365.66056,0.03218
3363.73182,0.03263
3361.80307,0.03303
3359.87433,0.03327
3357.94558,0.03348
3356.01683,0.03389
3354.08809,0.03443
3352.15934,0.03493
3350.23060,0.03536
3348.30185,0.03576
3346.37311,0.03621
3344.44436,0.03666
3342.51562,0.03714
3340.58687,0.03768
3338.65813,0.03806
3336.72938,0.03835
3334.80064,0.03882
3332.87189,0.03920
3330.94315,0.03927
3329.01440,0.03932
3327.08566,0.03936
3325.15691,0.03925
3323.22816,0.03920
3321.29942,0.03936
3319.37067,0.03971
3317.44193,0.04017
3315.51318,0.04021
3313.58444,0.03976
3311.65569,0.03954
3309.72695,0.03963
3307.79820,0.03960
3305.86946,0.03961
3303.94071,0.03997
3302.01197,0.04034
3300.08322,0.04032
3298.15448,0.04007
3296.22573,0.03998
3294.29698,0.04015
3292.36824,0.04032
3290.43949,0.04035
3288.51075,0.04044
3286.58200,0.04066
3284.65326,0.04088
3282.72451,0.04117
3280.79577,0.04150
3278.86702,0.04174
3276.93828,0.04200
3275.00953,0.04242
3273.08079,0.04290
3271.15204,0.04331
3269.22330,0.04374
3267.29455,0.04435
3265.36581,0.04501
3263.43706,0.04539
3261.50831,0.04561
3259.57957,0.04602
3257.65082,0.04651
3255.72208,0.04687
3253.79333,0.04722
3251.86459,0.04762
3249.93584,0.04799
3248.00710,0.04847
3246.07835,0.04908
3244.14961,0.04946
3242.22086,0.04951
3240.29212,0.04952
3238.36337,0.04971
3236.43463,0.05013
3234.50588,0.05081
3232.57713,0.05159
3230.64839,0.05247
3228.71964,0.05349
3226.79090,0.05442
3224.86215,0.05504
3222.93341,0.05523
3221.00466,0.05533
3219.07592,0.05597
3217.14717,0.05718
3215.21843,0.05846
3213.28968,0.05938
3211.36094,0.05978
3209.43219,0.06003
3207.50345,0.06054
3205.57470,0.06134
3203.64596,0.06219
3201.71721,0.06305
3199.78846,0.06395
3197.85972,0.06461
3195.93097,0.06505
3194.00223,0.06573
3192.07348,0.06680
3190.14474,0.06786
3188.21599,0.06846
3186.28725,0.06896
3184.35850,0.06991
3182.42976,0.07104
3180.50101,0.07208
3178.57227,0.07306
3176.64352,0.07404
3174.71478,0.07505
3172.78603,0.07593
3170.85729,0.07668
3168.92854,0.07767
3166.99979,0.07912
3165.07105,0.08054
3163.14230,0.08138
3161.21356,0.08191
3159.28481,0.08282
3157.35607,0.08402
3155.42732,0.08504
3153.49858,0.08591
3151.56983,0.08688
3149.64109,0.08796
3147.71234,0.08915
3145.78360,0.09036
3143.85485,0.09136
3141.92611,0.09225
3139.99736,0.09333
3138.06861,0.09450
3136.13987,0.09544
3134.21112,0.09626
3132.28238,0.09741
3130.35363,0.09881
3128.42489,0.10009
3126.49614,0.10118
3124.56740,0.10231
3122.63865,0.10358
3120.70991,0.10486
3118.78116,0.10610
3116.85242,0.10724
3114.92367,0.10829
3112.99493,0.10951
3111.06618,0.11088
3109.13744,0.11216
3107.20869,0.11342
3105.27994,0.11465
3103.35120,0.11591
3101.42245,0.11734
3099.49371,0.11868
3097.56496,0.11965
3095.63622,0.12060
3093.70747,0.12199
3091.77873,0.12361
3089.84998,0.12499
3087.92124,0.12609
3085.99249,0.12714
3084.06375,0.12827
3082.13500,0.12955
3080.20626,0.13096
3078.27751,0.13220
3076.34877,0.13319
3074.42002,0.13429
3072.49127,0.13563
3070.56253,0.13696
3068.63378,0.13807
3066.70504,0.13901
3064.77629,0.13979
3062.84755,0.14043
3060.91880,0.14131
3058.99006,0.14264
3057.06131,0.14400
3055.13257,0.14504
3053.20382,0.14588
3051.27508,0.14679
3049.34633,0.14783
3047.41759,0.14894
3045.48884,0.15004
3043.56009,0.15109
3041.63135,0.15206
3039.70260,0.15286
3037.77386,0.15354
3035.84511,0.15428
3033.91637,0.15503
3031.98762,0.15568
3030.05888,0.15627
3028.13013,0.15697
3026.20139,0.15784
3024.27264,0.15860
3022.34390,0.15908
3020.41515,0.15961
3018.48641,0.16037
3016.55766,0.16100
3014.62892,0.16119
3012.70017,0.16115
3010.77142,0.16132
3008.84268,0.16165
3006.91393,0.16159
3004.98519,0.16111
3003.05644,0.16061
3001.12770,0.16010
2999.19895,0.15922
2997.27021,0.15792
2995.34146,0.15643
2993.41272,0.15486
2991.48397,0.15302
2989.55523,0.15059
2987.62648,0.14735
2985.69774,0.14347
2983.76899,0.13914
2981.84025,0.13442
2979.91150,0.12914
2977.98275,0.12305
2976.05401,0.11636
2974.12526,0.10942
2972.19652,0.10257
2970.26777,0.09680
2968.33903,0.09312
2966.41028,0.09152
2964.48154,0.09116
2962.55279,0.09110
2960.62405,0.09074
2958.69530,0.08969
2956.76656,0.08795
2954.83781,0.08580
2952.90907,0.08342
2950.98032,0.08088
2949.05157,0.07838
2947.12283,0.07624
2945.19408,0.07473
2943.26534,0.07391
2941.33659,0.07356
2939.40785,0.07352
2937.47910,0.07362
2935.55036,0.07345
2933.62161,0.07275
2931.69287,0.07163
2929.76412,0.07032
2927.83538,0.06903
2925.90663,0.06771
2923.97789,0.06620
2922.04914,0.06451
2920.12040,0.06280
2918.19165,0.06121
2916.26290,0.05974
2914.33416,0.05843
2912.40541,0.05740
2910.47667,0.05666
2908.54792,0.05598
2906.61918,0.05540
2904.69043,0.05515
2902.76169,0.05496
2900.83294,0.05466
2898.90420,0.05476
2896.97545,0.05557
2895.04671,0.05679
2893.11796,0.05800
2891.18922,0.05896
2889.26047,0.05970
2887.33172,0.06043
2885.40298,0.06136
2883.47423,0.06237
2881.54549,0.06325
2879.61674,0.06393
2877.68800,0.06442
2875.75925,0.06475
2873.83051,0.06491
2871.90176,0.06505
2869.97302,0.06536
2868.04427,0.06587
2866.11553,0.06659
2864.18678,0.06740
2862.25804,0.06823
2860.32929,0.06915
2858.40055,0.07015
2856.47180,0.07121
2854.54305,0.07229
2852.61431,0.07346
2850.68556,0.07487
2848.75682,0.07679
2846.82807,0.07934
2844.89933,0.08225
2842.97058,0.08519
2841.04184,0.08802
2839.11309,0.09071
2837.18435,0.09322
2835.25560,0.09548
2833.32686,0.09758
2831.39811,0.09973
2829.46937,0.10203
2827.54062,0.10433
2825.61188,0.10642
2823.68313,0.10830
2821.75438,0.11012
2819.82564,0.11199
2817.89689,0.11409
2815.96815,0.11648
2814.03940,0.11884
2812.11066,0.12094
2810.18191,0.12290
2808.25317,0.12481
2806.32442,0.12667
2804.39568,0.12844
2802.46693,0.13010
2800.53819,0.13160
2798.60944,0.13292
2796.68070,0.13413
2794.75195,0.13528
2792.82320,0.13626
2790.89446,0.13706
2788.96571,0.13774
2787.03697,0.13827
2785.10822,0.13857
2783.17948,0.13880
2781.25073,0.13911
2779.32199,0.13950
2777.39324,0.13983
2775.46450,0.14006
2773.53575,0.14028
2771.60701,0.14061
2769.67826,0.14097
2767.74952,0.14126
2765.82077,0.14158
2763.89203,0.14186
2761.96328,0.14203
2760.03453,0.14219
2758.10579,0.14239
2756.17704,0.14247
2754.24830,0.14238
2752.31955,0.14236
2750.39081,0.14242
2748.46206,0.14229
2746.53332,0.14198
2744.60457,0.14181
2742.67583,0.14177
2740.74708,0.14170
2738.81834,0.14159
2736.88959,0.14150
2734.96085,0.14159
2733.03210,0.14192
2731.10336,0.14234
2729.17461,0.14271
2727.24586,0.14311
2725.31712,0.14370
2723.38837,0.14438
2721.45963,0.14492
2719.53088,0.14541
2717.60214,0.14615
2715.67339,0.14706
2713.74465,0.14797
2711.81590,0.14900
2709.88716,0.15025
2707.95841,0.15172
2706.02967,0.15335
2704.10092,0.15483
2702.17218,0.15600
2700.24343,0.15721
2698.31468,0.15870
2696.38594,0.16020
2694.45719,0.16144
2692.52845,0.16259
2690.59970,0.16402
2688.67096,0.16580
2686.74221,0.16756
2684.81347,0.16903
2682.88472,0.17019
2680.95598,0.17125
2679.02723,0.17233
2677.09849,0.17342
2675.16974,0.17454
2673.24100,0.17554
2671.31225,0.17623
2669.38351,0.17665
2667.45476,0.17700
2665.52601,0.17733
2663.59727,0.17768
2661.66852,0.17809
2659.73978,0.17850
2657.81103,0.17896
2655.88229,0.17967
2653.95354,0.18061
2652.02480,0.18167
2650.09605,0.18277
2648.16731,0.18383
2646.23856,0.18478
2644.30982,0.18561
2642.38107,0.18648
2640.45233,0.18749
2638.52358,0.18845
2636.59484,0.18926
2634.66609,0.19004
2632.73734,0.19089
2630.80860,0.19176
2628.87985,0.19261
2626.95111,0.19348
2625.02236,0.19437
2623.09362,0.19514
2621.16487,0.19571
2619.23613,0.19624
2617.30738,0.19681
2615.37864,0.19732
2613.44989,0.19782
2611.52115,0.19859
2609.59240,0.19951
2607.66366,0.20021
2605.73491,0.20078
2603.80616,0.20145
2601.87742,0.20214
2599.94867,0.20280
2598.01993,0.20340
2596.09118,0.20403
2594.16244,0.20475
2592.23369,0.20538
2590.30495,0.20588
2588.37620,0.20634
2586.44746,0.20673
2584.51871,0.20695
2582.58997,0.20703
2580.66122,0.20710
2578.73248,0.20714
2576.80373,0.20710
2574.87499,0.20707
2572.94624,0.20700
2571.01749,0.20680
2569.08875,0.20651
2567.16000,0.20616
2565.23126,0.20564
2563.30251,0.20506
2561.37377,0.20483
2559.44502,0.20475
2557.51628,0.20423
2555.58753,0.20357
2553.65879,0.20323
2551.73004,0.20301
2549.80130,0.20264
2547.87255,0.20208
2545.94381,0.20143
2544.01506,0.20097
2542.08631,0.20079
2540.15757,0.20070
2538.22882,0.20061
2536.30008,0.20077
2534.37133,0.20127
2532.44259,0.20193
2530.51384,0.20246
2528.58510,0.20281
2526.65635,0.20309
2524.72761,0.20342
2522.79886,0.20385
2520.87012,0.20425
2518.94137,0.20443
2517.01263,0.20452
2515.08388,0.20490
2513.15514,0.20574
2511.22639,0.20699
2509.29764,0.20855
2507.36890,0.21032
2505.44015,0.21215
2503.51141,0.21396
2501.58266,0.21571
2499.65392,0.21742
2497.72517,0.21902
2495.79643,0.22043
2493.86768,0.22171
2491.93894,0.22303
2490.01019,0.22436
2488.08145,0.22558
2486.15270,0.22666
2484.22396,0.22766
2482.29521,0.22872
2480.36647,0.22980
2478.43772,0.23077
2476.50897,0.23166
2474.58023,0.23262
2472.65148,0.23369
2470.72274,0.23475
2468.79399,0.23562
2466.86525,0.23619
2464.93650,0.23661
2463.00776,0.23707
2461.07901,0.23752
2459.15027,0.23789
2457.22152,0.23835
2455.29278,0.23909
2453.36403,0.23988
2451.43529,0.24058
2449.50654,0.24145
2447.57779,0.24258
2445.64905,0.24369
2443.72030,0.24472
2441.79156,0.24585
2439.86281,0.24715
2437.93407,0.24857
2436.00532,0.24996
2434.07658,0.25117
2432.14783,0.25233
2430.21909,0.25370
2428.29034,0.25513
2426.36160,0.25638
2424.43285,0.25754
2422.50411,0.25876
2420.57536,0.26002
2418.64662,0.26131
2416.71787,0.26253
2414.78912,0.26353
2412.86038,0.26435
2410.93163,0.26522
2409.00289,0.26635
2407.07414,0.26754
2405.14540,0.26850
2403.21665,0.26940
2401.28791,0.27048
2399.35916,0.27162
2397.43042,0.27259
2395.50167,0.27339
2393.57293,0.27427
2391.64418,0.27531
2389.71544,0.27630
2387.78669,0.27722
2385.85795,0.27814
2383.92920,0.27906
2382.00045,0.28014
2380.07171,0.28145
2378.14296,0.28275
2376.21422,0.28389
2374.28547,0.28512
2372.35673,0.28654
2370.42798,0.28788
2368.49924,0.28911
2366.57049,0.29028
2364.64175,0.29128
2362.71300,0.29215
2360.78426,0.29298
2358.85551,0.29362
2356.92677,0.29407
2354.99802,0.29462
2353.06927,0.29550
2351.14053,0.29652
2349.21178,0.29747
2347.28304,0.29840
2345.35429,0.29953
2343.42555,0.30085
2341.49680,0.30209
2339.56806,0.30303
2337.63931,0.30379
2335.71057,0.30451
2333.78182,0.30515
2331.85308,0.30575
2329.92433,0.30645
2327.99559,0.30719
2326.06684,0.30789
2324.13810,0.30857
2322.20935,0.30914
2320.28060,0.30968
2318.35186,0.31029
2316.42311,0.31082
2314.49437,0.31114
2312.56562,0.31141
2310.63688,0.31172
2308.70813,0.31192
2306.77939,0.31184
2304.85064,0.31156
2302.92190,0.31122
2300.99315,0.31075
2299.06441,0.31009
2297.13566,0.30937
2295.20692,0.30877
2293.27817,0.30828
2291.34943,0.30776
2289.42068,0.30738
2287.49193,0.30727
2285.56319,0.30720
2283.63444,0.30706
2281.70570,0.30681
2279.77695,0.30635
2277.84821,0.30566
2275.91946,0.30485
2273.99072,0.30385
2272.06197,0.30263
2270.13323,0.30120
2268.20448,0.29950
2266.27574,0.29767
2264.34699,0.29592
2262.41825,0.29427
2260.48950,0.29277
2258.56075,0.29150
2256.63201,0.29033
2254.70326,0.28930
2252.77452,0.28849
2250.84577,0.28779
2248.91703,0.28709
2246.98828,0.28643
2245.05954,0.28582
2243.13079,0.28527
2241.20205,0.28477
2239.27330,0.28437
2237.34456,0.28406
2235.41581,0.28384
2233.48707,0.28374
2231.55832,0.28371
2229.62958,0.28380
2227.70083,0.28419
2225.77208,0.28499
2223.84334,0.28609
2221.91459,0.28727
2219.98585,0.28851
2218.05710,0.28990
2216.12836,0.29132
2214.19961,0.29256
2212.27087,0.29358
2210.34212,0.29440
2208.41338,0.29498
2206.48463,0.29532
2204.55589,0.29546
2202.62714,0.29539
2200.69840,0.29503
2198.76965,0.29442
2196.84090,0.29373
2194.91216,0.29297
2192.98341,0.29202
2191.05467,0.29079
2189.12592,0.28940
2187.19718,0.28793
2185.26843,0.28641
2183.33969,0.28479
2181.41094,0.28288
2179.48220,0.28062
2177.55345,0.27833
2175.62471,0.27622
2173.69596,0.27408
2171.76722,0.27170
2169.83847,0.26923
2167.90973,0.26698
2165.98098,0.26504
2164.05223,0.26323
2162.12349,0.26161
2160.19474,0.26036
2158.26600,0.25933
2156.33725,0.25822
2154.40851,0.25701
2152.47976,0.25587
2150.55102,0.25491
2148.62227,0.25403
2146.69353,0.25314
2144.76478,0.25217
2142.83604,0.25105
2140.90729,0.25000
2138.97855,0.24932
2137.04980,0.24897
2135.12106,0.24875
2133.19231,0.24873
2131.26356,0.24920
2129.33482,0.25015
2127.40607,0.25136
2125.47733,0.25261
2123.54858,0.25375
2121.61984,0.25476
2119.69109,0.25577
2117.76235,0.25695
2115.83360,0.25816
2113.90486,0.25934
2111.97611,0.26060
2110.04737,0.26194
2108.11862,0.26319
2106.18988,0.26438
2104.26113,0.26566
2102.33238,0.26689
2100.40364,0.26778
2098.47489,0.26848
2096.54615,0.26935
2094.61740,0.27029
2092.68866,0.27111
2090.75991,0.27182
2088.83117,0.27247
2086.90242,0.27312
2084.97368,0.27377
2083.04493,0.27432
2081.11619,0.27460
2079.18744,0.27455
2077.25870,0.27429
2075.32995,0.27393
2073.40121,0.27345
2071.47246,0.27295
2069.54371,0.27259
2067.61497,0.27244
2065.68622,0.27240
2063.75748,0.27245
2061.82873,0.27252
2059.89999,0.27253
2057.97124,0.27247
2056.04250,0.27249
2054.11375,0.27250
2052.18501,0.27242
2050.25626,0.27237
2048.32752,0.27248
2046.39877,0.27267
2044.47003,0.27298
2042.54128,0.27360
2040.61254,0.27448
2038.68379,0.27546
2036.75504,0.27665
2034.82630,0.27822
2032.89755,0.28006
2030.96881,0.28202
2029.04006,0.28413
2027.11132,0.28638
2025.18257,0.28858
2023.25383,0.29072
2021.32508,0.29294
2019.39634,0.29524
2017.46759,0.29756
2015.53885,0.29972
2013.61010,0.30158
2011.68136,0.30313
2009.75261,0.30445
2007.82386,0.30553
2005.89512,0.30634
2003.96637,0.30687
2002.03763,0.30723
2000.10888,0.30759
1998.18014,0.30814
1996.25139,0.30902
1994.32265,0.31015
1992.39390,0.31148
1990.46516,0.31298
1988.53641,0.31450
1986.60767,0.31593
1984.67892,0.31714
1982.75018,0.31807
1980.82143,0.31878
1978.89269,0.31937
1976.96394,0.31989
1975.03519,0.32031
1973.10645,0.32055
1971.17770,0.32066
1969.24896,0.32089
1967.32021,0.32140
1965.39147,0.32210
1963.46272,0.32280
1961.53398,0.32340
1959.60523,0.32399
1957.67649,0.32488
1955.74774,0.32606
1953.81900,0.32724
1951.89025,0.32846
1949.96151,0.32992
1948.03276,0.33160
1946.10402,0.33337
1944.17527,0.33517
1942.24652,0.33695
1940.31778,0.33862
1938.38903,0.34016
1936.46029,0.34159
1934.53154,0.34309
1932.60280,0.34460
1930.67405,0.34576
1928.74531,0.34661
1926.81656,0.34743
1924.88782,0.34824
1922.95907,0.34889
1921.03033,0.34945
1919.10158,0.35012
1917.17284,0.35084
1915.24409,0.35138
1913.31534,0.35167
1911.38660,0.35200
1909.45785,0.35251
1907.52911,0.35289
1905.60036,0.35301
1903.67162,0.35306
1901.74287,0.35309
1899.81413,0.35294
1897.88538,0.35261
1895.95664,0.35219
1894.02789,0.35168
1892.09915,0.35116
1890.17040,0.35085
1888.24166,0.35076
1886.31291,0.35068
1884.38417,0.35039
1882.45542,0.34993
1880.52667,0.34952
1878.59793,0.34933
1876.66918,0.34920
1874.74044,0.34891
1872.81169,0.34848
1870.88295,0.34796
1868.95420,0.34728
1867.02546,0.34659
1865.09671,0.34598
1863.16797,0.34536
1861.23922,0.34469
1859.31048,0.34393
1857.38173,0.34305
1855.45299,0.34201
1853.52424,0.34085
1851.59549,0.33963
1849.66675,0.33834
1847.73800,0.33701
1845.80926,0.33563
1843.88051,0.33411
1841.95177,0.33258
1840.02302,0.33130
1838.09428,0.33042
1836.16553,0.32979
1834.23679,0.32912
1832.30804,0.32835
1830.37930,0.32755
1828.45055,0.32678
1826.52181,0.32599
1824.59306,0.32510
1822.66432,0.32413
1820.73557,0.32312
1818.80682,0.32205
1816.87808,0.32095
1814.94933,0.31983
1813.02059,0.31864
1811.09184,0.31741
1809.16310,0.31618
1807.23435,0.31493
1805.30561,0.31379
1803.37686,0.31279
1801.44812,0.31169
1799.51937,0.31037
1797.59063,0.30908
1795.66188,0.30807
1793.73314,0.30730
1791.80439,0.30643
1789.87565,0.30529
1787.94690,0.30405
1786.01815,0.30285
1784.08941,0.30159
1782.16066,0.30019
1780.23192,0.29881
1778.30317,0.29747
1776.37443,0.29600
1774.44568,0.29427
1772.51694,0.29241
1770.58819,0.29071
1768.65945,0.28926
1766.73070,0.28783
1764.80196,0.28629
1762.87321,0.28477
1760.94447,0.28338
1759.01572,0.28211
1757.08697,0.28090
1755.15823,0.27970
1753.22948,0.27845
1751.30074,0.27696
1749.37199,0.27512
1747.44325,0.27302
1745.51450,0.27075
1743.58576,0.26834
1741.65701,0.26585
1739.72827,0.26358
1737.79952,0.26175
1735.87078,0.26019
1733.94203,0.25867
1732.01329,0.25726
1730.08454,0.25603
1728.15580,0.25512
1726.22705,0.25463
1724.29830,0.25434
1722.36956,0.25401
1720.44081,0.25365
1718.51207,0.25313
1716.58332,0.25226
1714.65458,0.25107
1712.72583,0.24973
1710.79709,0.24818
1708.86834,0.24629
1706.93960,0.24420
1705.01085,0.24201
1703.08211,0.23947
1701.15336,0.23634
1699.22462,0.23277
1697.29587,0.22890
1695.36713,0.22432
1693.43838,0.21920
1691.50963,0.21405
1689.58089,0.20884
1687.65214,0.20350
1685.72340,0.19774
1683.79465,0.19150
1681.86591,0.18550
1679.93716,0.18016
1678.00842,0.17560
1676.07967,0.17174
1674.15093,0.16833
1672.22218,0.16547
1670.29344,0.16332
1668.36469,0.16163
1666.43595,0.16035
1664.50720,0.15965
1662.57845,0.15944
1660.64971,0.15947
1658.72096,0.15972
1656.79222,0.16035
1654.86347,0.16131
1652.93473,0.16244
1651.00598,0.16337
1649.07724,0.16396
1647.14849,0.16440
1645.21975,0.16472
1643.29100,0.16493
1641.36226,0.16513
1639.43351,0.16528
1637.50477,0.16536
1635.57602,0.16547
1633.64728,0.16568
1631.71853,0.16597
1629.78978,0.16648
1627.86104,0.16730
1625.93229,0.16836
1624.00355,0.16951
1622.07480,0.17064
1620.14606,0.17178
1618.21731,0.17287
1616.28857,0.17367
1614.35982,0.17422
1612.43108,0.17470
1610.50233,0.17512
1608.57359,0.17532
1606.64484,0.17540
1604.71610,0.17563
1602.78735,0.17598
1600.85861,0.17622
1598.92986,0.17642
1597.00111,0.17678
1595.07237,0.17712
1593.14362,0.17725
1591.21488,0.17730
1589.28613,0.17743
1587.35739,0.17745
1585.42864,0.17720
1583.49990,0.17671
1581.57115,0.17610
1579.64241,0.17560
1577.71366,0.17541
1575.78492,0.17565
1573.85617,0.17616
1571.92743,0.17670
1569.99868,0.17709
1568.06993,0.17728
1566.14119,0.17737
1564.21244,0.17745
1562.28370,0.17749
1560.35495,0.17743
1558.42621,0.17725
1556.49746,0.17686
1554.56872,0.17615
1552.63997,0.17531
1550.71123,0.17455
1548.78248,0.17364
1546.85374,0.17240
1544.92499,0.17100
1542.99625,0.16965
1541.06750,0.16861
1539.13876,0.16807
1537.21001,0.16802
1535.28126,0.16816
1533.35252,0.16811
1531.42377,0.16761
1529.49503,0.16683
1527.56628,0.16596
1525.63754,0.16487
1523.70879,0.16349
1521.78005,0.16190
1519.85130,0.16022
1517.92256,0.15848
1515.99381,0.15668
1514.06507,0.15483
1512.13632,0.15283
1510.20758,0.15066
1508.27883,0.14829
1506.35008,0.14557
1504.42134,0.14282
1502.49259,0.14018
1500.56385,0.13729
1498.63510,0.13401
1496.70636,0.13031
1494.77761,0.12607
1492.84887,0.12124
1490.92012,0.11553
1488.99138,0.10890
1487.06263,0.10194
1485.13389,0.09517
1483.20514,0.08919
1481.27640,0.08501
1479.34765,0.08273
1477.41891,0.08110
1475.49016,0.07891
1473.56141,0.07591
1471.63267,0.07252
1469.70392,0.06923
1467.77518,0.06605
1465.84643,0.06276
1463.91769,0.05946
1461.98894,0.05667
1460.06020,0.05462
1458.13145,0.05296
1456.20271,0.05149
1454.27396,0.05054
1452.34522,0.05006
1450.41647,0.04952
1448.48773,0.04870
1446.55898,0.04777
1444.63024,0.04680
1442.70149,0.04576
1440.77274,0.04464
1438.84400,0.04341
1436.91525,0.04204
1434.98651,0.04081
1433.05776,0.04015
1431.12902,0.04017
1429.20027,0.04076
1427.27153,0.04182
1425.34278,0.04327
1423.41404,0.04496
1421.48529,0.04690
1419.55655,0.04918
1417.62780,0.05150
1415.69906,0.05340
1413.77031,0.05468
1411.84156,0.05539
1409.91282,0.05572
1407.98407,0.05583
1406.05533,0.05572
1404.12658,0.05549
1402.19784,0.05531
1400.26909,0.05525
1398.34035,0.05512
1396.41160,0.05459
1394.48286,0.05368
1392.55411,0.05249
1390.62537,0.05097
1388.69662,0.04907
1386.76788,0.04677
1384.83913,0.04423
1382.91039,0.04180
1380.98164,0.03976
1379.05289,0.03816
1377.12415,0.03696
1375.19540,0.03621
1373.26666,0.03599
1371.33791,0.03622
1369.40917,0.03660
1367.48042,0.03701
1365.55168,0.03745
1363.62293,0.03772
1361.69419,0.03782
1359.76544,0.03805
1357.83670,0.03838
1355.90795,0.03882
1353.97921,0.03960
1352.05046,0.04045
1350.12172,0.04087
1348.19297,0.04084
1346.26422,0.04049
1344.33548,0.03980
1342.40673,0.03892
1340.47799,0.03828
1338.54924,0.03807
1336.62050,0.03816
1334.69175,0.03853
1332.76301,0.03911
1330.83426,0.03959
1328.90552,0.03979
1326.97677,0.03970
1325.04803,0.03943
1323.11928,0.03909
1321.19054,0.03876
1319.26179,0.03867
1317.33304,0.03919
1315.40430,0.04034
1313.47555,0.04170
1311.54681,0.04309
1309.61806,0.04468
1307.68932,0.04651
1305.76057,0.04826
1303.83183,0.04978
1301.90308,0.05107
1299.97434,0.05198
1298.04559,0.05223
1296.11685,0.05182
1294.18810,0.05106
1292.25936,0.05025
1290.33061,0.04935
1288.40187,0.04823
1286.47312,0.04695
1284.54437,0.04575
1282.61563,0.04501
1280.68688,0.04526
1278.75814,0.04655
1276.82939,0.04821
1274.90065,0.04973
1272.97190,0.05100
1271.04316,0.05204
1269.11441,0.05268
1267.18567,0.05278
1265.25692,0.05251
1263.32818,0.05218
1261.39943,0.05189
1259.47069,0.05156
1257.54194,0.05120
1255.61320,0.05077
1253.68445,0.05007
1251.75570,0.04920
1249.82696,0.04855
1247.89821,0.04829
1245.96947,0.04828
1244.04072,0.04828
1242.11198,0.04816
1240.18323,0.04780
1238.25449,0.04718
1236.32574,0.04663
1234.39700,0.04661
1232.46825,0.04725
1230.53951,0.04832
1228.61076,0.04941
1226.68202,0.05024
1224.75327,0.05068
1222.82452,0.05080
1220.89578,0.05067
1218.96703,0.05006
1217.03829,0.04880
1215.10954,0.04696
1213.18080,0.04449
1211.25205,0.04142
1209.32331,0.03841
1207.39456,0.03634
1205.46582,0.03543
1203.53707,0.03531
1201.60833,0.03545
1199.67958,0.03565
1197.75084,0.03603
1195.82209,0.03638
1193.89335,0.03656
1191.96460,0.03669
1190.03585,0.03655
1188.10711,0.03583
1186.17836,0.03484
1184.24962,0.03405
1182.32087,0.03352
1180.39213,0.03338
1178.46338,0.03411
1176.53464,0.03591
1174.60589,0.03865
1172.67715,0.04212
1170.74840,0.04603
1168.81966,0.04968
1166.89091,0.05205
1164.96217,0.05238
1163.03342,0.05076
1161.10467,0.04831
1159.17593,0.04610
1157.24718,0.04408
1155.31844,0.04190
1153.38969,0.03976
1151.46095,0.03790
1149.53220,0.03631
1147.60346,0.03502
1145.67471,0.03380
1143.74597,0.03231
1141.81722,0.03052
1139.88848,0.02867
1137.95973,0.02699
1136.03099,0.02556
1134.10224,0.02459
1132.17350,0.02416
1130.24475,0.02427
1128.31600,0.02491
1126.38726,0.02591
1124.45851,0.02727
1122.52977,0.02893
1120.60102,0.03053
1118.67228,0.03196
1116.74353,0.03354
1114.81479,0.03553
1112.88604,0.03752
1110.95730,0.03869
1109.02855,0.03890
1107.09981,0.03858
1105.17106,0.03815
1103.24232,0.03772
1101.31357,0.03715
1099.38483,0.03616
1097.45608,0.03474
1095.52733,0.03348
1093.59859,0.03298
1091.66984,0.03306
1089.74110,0.03339
1087.81235,0.03418
1085.88361,0.03564
1083.95486,0.03775
1082.02612,0.04058
1080.09737,0.04431
1078.16863,0.04848
1076.23988,0.05212
1074.31114,0.05530
1072.38239,0.05888
1070.45365,0.06327
1068.52490,0.06835
1066.59615,0.07378
1064.66741,0.07909
1062.73866,0.08321
1060.80992,0.08473
1058.88117,0.08342
1056.95243,0.08062
1055.02368,0.07758
1053.09494,0.07435
1051.16619,0.07056
1049.23745,0.06652
1047.30870,0.06289
1045.37996,0.06035
1043.45121,0.05969
1041.52247,0.06165
1039.59372,0.06568
1037.66498,0.06983
1035.73623,0.07259
1033.80748,0.07369
1031.87874,0.07340
1029.94999,0.07228
1028.02125,0.07086
1026.09250,0.06941
1024.16376,0.06820
1022.23501,0.06735
1020.30627,0.06677
1018.37752,0.06657
1016.44878,0.06687
1014.52003,0.06740
1012.59129,0.06773
1010.66254,0.06776
1008.73380,0.06755
1006.80505,0.06715
1004.87631,0.06672
1002.94756,0.06664
1001.01881,0.06711
999.09007,0.06806
997.16132,0.06929
995.23258,0.07040
993.30383,0.07127
991.37509,0.07203
989.44634,0.07271
987.51760,0.07373
985.58885,0.07562
983.66011,0.07859
981.73136,0.08300
979.80262,0.08870
977.87387,0.09450
975.94513,0.09944
974.01638,0.10328
972.08763,0.10643
970.15889,0.10961
968.23014,0.11297
966.30140,0.11620
964.37265,0.11937
962.44391,0.12281
960.51516,0.12669
958.58642,0.13087
956.65767,0.13500
954.72893,0.13882
952.80018,0.14262
950.87144,0.14640
948.94269,0.14954
947.01395,0.15172
945.08520,0.15318
943.15646,0.15429
941.22771,0.15517
939.29896,0.15578
937.37022,0.15599
935.44147,0.15568
933.51273,0.15508
931.58398,0.15486
929.65524,0.15538
927.72649,0.15644
925.79775,0.15741
923.86900,0.15777
921.94026,0.15737
920.01151,0.15594
918.08277,0.15334
916.15402,0.14973
914.22528,0.14558
912.29653,0.14138
910.36779,0.13730
908.43904,0.13348
906.51029,0.13025
904.58155,0.12749
902.65280,0.12488
900.72406,0.12252
898.79531,0.12095
896.86657,0.12070
894.93782,0.12221
893.00908,0.12528
891.08033,0.12909
889.15159,0.13357
887.22284,0.13893
885.29410,0.14444
883.36535,0.14932
881.43661,0.15381
879.50786,0.15844
877.57911,0.16290
875.65037,0.16688
873.72162,0.17042
871.79288,0.17342
869.86413,0.17608
867.93539,0.17835
866.00664,0.17978
864.07790,0.18056
862.14915,0.18115
860.22041,0.18143
858.29166,0.18126
856.36292,0.18083
854.43417,0.18046
852.50543,0.18018
850.57668,0.17979
848.64794,0.17902
846.71919,0.17784
844.79044,0.17648
842.86170,0.17510
840.93295,0.17373
839.00421,0.17240
837.07546,0.17114
835.14672,0.17003
833.21797,0.16897
831.28923,0.16775
829.36048,0.16631
827.43174,0.16456
825.50299,0.16239
823.57425,0.16029
821.64550,0.15903
819.71676,0.15833
817.78801,0.15726
815.85926,0.15557
813.93052,0.15341
812.00177,0.15121
810.07303,0.14932
808.14428,0.14756
806.21554,0.14557
804.28679,0.14312
802.35805,0.14081
800.42930,0.13934
798.50056,0.13813
796.57181,0.13642
794.64307,0.13434
792.71432,0.13243
790.78558,0.13115
788.85683,0.13026
786.92809,0.12887
784.99934,0.12670
783.07059,0.12441
781.14185,0.12243
779.21310,0.12059
777.28436,0.11864
775.35561,0.11637
773.42687,0.11366
771.49812,0.11112
769.56938,0.10931
767.64063,0.10765
765.71189,0.10547
763.78314,0.10299
761.85440,0.10063
759.92565,0.09855
757.99691,0.09645
756.06816,0.09405
754.13942,0.09172
752.21067,0.08980
750.28192,0.08781
748.35318,0.08543
746.42443,0.08327
744.49569,0.08179
742.56694,0.08043
740.63820,0.07852
738.70945,0.07627
736.78071,0.07432
734.85196,0.07264
732.92322,0.07078
730.99447,0.06868
729.06573,0.06644
727.13698,0.06413
725.20824,0.06199
723.27949,0.06014
721.35074,0.05845
719.42200,0.05691
717.49325,0.05577
715.56451,0.05507
713.63576,0.05475
711.70702,0.05492
709.77827,0.05520
707.84953,0.05512
705.92078,0.05491
703.99204,0.05471
702.06329,0.05467
700.13455,0.05478
698.20580,0.05496
696.27706,0.05527
694.34831,0.05541
692.41957,0.05540
690.49082,0.05563
688.56207,0.05553
686.63333,0.05469
684.70458,0.05386
682.77584,0.05338
680.84709,0.05277
678.91835,0.05201
676.98960,0.05124
675.06086,0.05023
673.13211,0.04944
671.20337,0.04943
669.27462,0.04990
667.34588,0.05050
665.41713,0.05121
663.48839,0.05184
661.55964,0.05230
659.63090,0.05269
657.70215,0.05304
655.77340,0.05351
653.84466,0.05361
651.91591,0.05275
649.98717,0.05153
648.05842,0.05032
646.12968,0.04910
644.20093,0.04844
642.27219,0.04820
640.34344,0.04720
638.41470,0.04554
636.48595,0.04464
634.55721,0.04483
632.62846,0.04514
630.69972,0.04481
628.77097,0.04443
626.84222,0.04459
624.91348,0.04483
622.98473,0.04514
621.05599,0.04582
619.12724,0.04643
617.19850,0.04664
615.26975,0.04659
613.34101,0.04674
611.41226,0.04813
609.48352,0.05081
607.55477,0.05286
605.62603,0.05346
603.69728,0.05370
601.76854,0.05414
599.83979,0.05490
