7497.03301,0.62250
7495.10426,0.62106
7493.17552,0.61738
7491.24677,0.61574
7489.31803,0.61692
7487.38928,0.61932
7485.46054,0.62051
7483.53179,0.61833
7481.60305,0.61287
7479.67430,0.60712
7477.74556,0.60532
7475.81681,0.60894
7473.88807,0.61327
7471.95932,0.61421
7470.03057,0.61404
7468.10183,0.61575
7466.17308,0.61831
7464.24434,0.61881
7462.31559,0.61876
7460.38685,0.62133
7458.45810,0.62268
7456.52936,0.62066
7454.60061,0.62107
7452.67187,0.62580
7450.74312,0.63012
7448.81438,0.62945
7446.88563,0.62372
7444.95689,0.61922
7443.02814,0.61934
7441.09940,0.61874
7439.17065,0.61580
7437.24190,0.61461
7435.31316,0.61481
7433.38441,0.61312
7431.45567,0.60976
7429.52692,0.60743
7427.59818,0.60662
7425.66943,0.60635
7423.74069,0.60784
7421.81194,0.61215
7419.88320,0.61765
7417.95445,0.62059
7416.02571,0.61686
7414.09696,0.60852
7412.16822,0.60299
7410.23947,0.60265
7408.31073,0.60534
7406.38198,0.60953
7404.45323,0.61231
7402.52449,0.61165
7400.59574,0.60998
7398.66700,0.61002
7396.73825,0.61024
7394.80951,0.60854
7392.88076,0.60626
7390.95202,0.60594
7389.02327,0.60832
7387.09453,0.61124
7385.16578,0.61182
7383.23704,0.60976
7381.30829,0.60883
7379.37955,0.61299
7377.45080,0.61934
7375.52205,0.62194
7373.59331,0.61927
7371.66456,0.61455
7369.73582,0.61176
7367.80707,0.61067
7365.87833,0.60910
7363.94958,0.60772
7362.02084,0.60812
7360.09209,0.60951
7358.16335,0.60965
7356.23460,0.61002
7354.30586,0.61182
7352.37711,0.61044
7350.44837,0.60667
7348.51962,0.60753
7346.59088,0.61212
7344.66213,0.61717
7342.73338,0.62121
7340.80464,0.61888
7338.87589,0.61084
7336.94715,0.60417
7335.01840,0.60171
7333.08966,0.60304
7331.16091,0.60478
7329.23217,0.60398
7327.30342,0.60277
7325.37468,0.60408
7323.44593,0.60594
7321.51719,0.60516
7319.58844,0.60358
7317.65970,0.60221
7315.73095,0.60061
7313.80221,0.60144
7311.87346,0.60511
7309.94471,0.60804
7308.01597,0.60700
7306.08722,0.60356
7304.15848,0.60068
7302.22973,0.59861
7300.30099,0.59771
7298.37224,0.59879
7296.44350,0.60391
7294.51475,0.60920
7292.58601,0.60717
7290.65726,0.60235
7288.72852,0.60053
7286.79977,0.59958
7284.87103,0.59855
7282.94228,0.59798
7281.01353,0.59764
7279.08479,0.59714
7277.15604,0.59834
7275.22730,0.60214
7273.29855,0.60301
7271.36981,0.59895
7269.44106,0.59783
7267.51232,0.60307
7265.58357,0.60676
7263.65483,0.60378
7261.72608,0.59939
7259.79734,0.59786
7257.86859,0.59796
7255.93985,0.59833
7254.01110,0.59810
7252.08236,0.59738
7250.15361,0.59752
7248.22486,0.59895
7246.29612,0.60194
7244.36737,0.60654
7242.43863,0.60989
7240.50988,0.60761
7238.58114,0.60142
7236.65239,0.59845
7234.72365,0.59935
7232.79490,0.59938
7230.86616,0.59878
7228.93741,0.59958
7227.00867,0.60081
7225.07992,0.60166
7223.15118,0.60109
7221.22243,0.59988
7219.29369,0.60103
7217.36494,0.60520
7215.43619,0.60973
7213.50745,0.60956
7211.57870,0.60432
7209.64996,0.59987
7207.72121,0.59941
7205.79247,0.60223
7203.86372,0.60518
7201.93498,0.60517
7200.00623,0.60335
7198.07749,0.60200
7196.14874,0.59998
7194.22000,0.59674
7192.29125,0.59549
7190.36251,0.59672
7188.43376,0.59898
7186.50501,0.60257
7184.57627,0.60460
7182.64752,0.60207
7180.71878,0.59829
7178.79003,0.59818
7176.86129,0.59983
7174.93254,0.59824
7173.00380,0.59434
7171.07505,0.59314
7169.14631,0.59675
7167.21756,0.60187
7165.28882,0.60456
7163.36007,0.60405
7161.43133,0.60158
7159.50258,0.59853
7157.57384,0.59635
7155.64509,0.59676
7153.71634,0.59855
7151.78760,0.60099
7149.85885,0.60578
7147.93011,0.60990
7146.00136,0.60850
7144.07262,0.60300
7142.14387,0.59847
7140.21513,0.59706
7138.28638,0.59807
7136.35764,0.60110
7134.42889,0.60444
7132.50015,0.60530
7130.57140,0.60346
7128.64266,0.60143
7126.71391,0.59968
7124.78516,0.59745
7122.85642,0.59542
7120.92767,0.59229
7118.99893,0.59004
7117.07018,0.59395
7115.14144,0.59963
7113.21269,0.59999
7111.28395,0.59831
7109.35520,0.59979
7107.42646,0.60286
7105.49771,0.60304
7103.56897,0.59876
7101.64022,0.59358
7099.71148,0.59257
7097.78273,0.59617
7095.85399,0.59857
7093.92524,0.59501
7091.99649,0.58884
7090.06775,0.58570
7088.13900,0.58637
7086.21026,0.58851
7084.28151,0.58929
7082.35277,0.58879
7080.42402,0.58968
7078.49528,0.59070
7076.56653,0.58967
7074.63779,0.58839
7072.70904,0.58573
7070.78030,0.58129
7068.85155,0.58146
7066.92281,0.58704
7064.99406,0.58991
7063.06532,0.58640
7061.13657,0.58130
7059.20782,0.57967
7057.27908,0.58114
7055.35033,0.58278
7053.42159,0.58269
7051.49284,0.58149
7049.56410,0.58051
7047.63535,0.57798
7045.70661,0.57481
7043.77786,0.57552
7041.84912,0.57889
7039.92037,0.57980
7037.99163,0.57659
7036.06288,0.57260
7034.13414,0.57271
7032.20539,0.57590
7030.27664,0.57569
7028.34790,0.57105
7026.41915,0.56727
7024.49041,0.56617
7022.56166,0.56656
7020.63292,0.56762
7018.70417,0.56781
7016.77543,0.56765
7014.84668,0.56830
7012.91794,0.56905
7010.98919,0.56864
7009.06045,0.56642
7007.13170,0.56337
7005.20296,0.56078
7003.27421,0.55980
7001.34547,0.55988
6999.41672,0.55905
6997.48797,0.55806
6995.55923,0.55745
6993.63048,0.55653
6991.70174,0.55745
6989.77299,0.56074
6987.84425,0.56075
6985.91550,0.55559
6983.98676,0.55267
6982.05801,0.55570
6980.12927,0.55878
6978.20052,0.55736
6976.27178,0.55522
6974.34303,0.55678
6972.41429,0.55952
6970.48554,0.55956
6968.55680,0.55690
6966.62805,0.55380
6964.69930,0.55310
6962.77056,0.55552
6960.84181,0.55930
6958.91307,0.56170
6956.98432,0.56050
6955.05558,0.55768
6953.12683,0.55579
6951.19809,0.55443
6949.26934,0.55468
6947.34060,0.55607
6945.41185,0.55493
6943.48311,0.55159
6941.55436,0.54899
6939.62562,0.54863
6937.69687,0.55088
6935.76812,0.55353
6933.83938,0.55301
6931.91063,0.55023
6929.98189,0.54928
6928.05314,0.55013
6926.12440,0.55037
6924.19565,0.54980
6922.26691,0.54840
6920.33816,0.54571
6918.40942,0.54393
6916.48067,0.54525
6914.55193,0.54753
6912.62318,0.54962
6910.69444,0.55197
6908.76569,0.55185
6906.83695,0.54894
6904.90820,0.54761
6902.97945,0.55025
6901.05071,0.55382
6899.12196,0.55395
6897.19322,0.55150
6895.26447,0.55040
6893.33573,0.55104
6891.40698,0.55106
6889.47824,0.54993
6887.54949,0.54827
6885.62075,0.54607
6883.69200,0.54410
6881.76326,0.54312
6879.83451,0.54340
6877.90577,0.54541
6875.97702,0.54765
6874.04828,0.54758
6872.11953,0.54698
6870.19078,0.54857
6868.26204,0.54925
6866.33329,0.54655
6864.40455,0.54352
6862.47580,0.54136
6860.54706,0.53904
6858.61831,0.53781
6856.68957,0.53764
6854.76082,0.53670
6852.83208,0.53573
6850.90333,0.53737
6848.97459,0.54133
6847.04584,0.54380
6845.11710,0.54363
6843.18835,0.54322
6841.25960,0.54289
6839.33086,0.54165
6837.40211,0.54063
6835.47337,0.54068
6833.54462,0.54061
6831.61588,0.53946
6829.68713,0.53752
6827.75839,0.53677
6825.82964,0.53830
6823.90090,0.53950
6821.97215,0.53907
6820.04341,0.53882
6818.11466,0.53866
6816.18592,0.53690
6814.25717,0.53452
6812.32843,0.53324
6810.39968,0.53215
6808.47093,0.53143
6806.54219,0.53202
6804.61344,0.53258
6802.68470,0.53317
6800.75595,0.53500
6798.82721,0.53711
6796.89846,0.53683
6794.96972,0.53346
6793.04097,0.53040
6791.11223,0.52991
6789.18348,0.53079
6787.25474,0.53089
6785.32599,0.52861
6783.39725,0.52576
6781.46850,0.52568
6779.53975,0.52768
6777.61101,0.52824
6775.68226,0.52717
6773.75352,0.52738
6771.82477,0.52797
6769.89603,0.52606
6767.96728,0.52360
6766.03854,0.52336
6764.10979,0.52434
6762.18105,0.52552
6760.25230,0.52668
6758.32356,0.52605
6756.39481,0.52335
6754.46607,0.52116
6752.53732,0.52034
6750.60858,0.52076
6748.67983,0.52366
6746.75108,0.52757
6744.82234,0.52841
6742.89359,0.52579
6740.96485,0.52307
6739.03610,0.52094
6737.10736,0.51867
6735.17861,0.51788
6733.24987,0.51858
6731.32112,0.51993
6729.39238,0.52184
6727.46363,0.52257
6725.53489,0.52204
6723.60614,0.52146
6721.67740,0.52050
6719.74865,0.51958
6717.81991,0.51968
6715.89116,0.52084
6713.96241,0.52231
6712.03367,0.52327
6710.10492,0.52407
6708.17618,0.52474
6706.24743,0.52429
6704.31869,0.52318
6702.38994,0.52254
6700.46120,0.52272
6698.53245,0.52361
6696.60371,0.52439
6694.67496,0.52407
6692.74622,0.52207
6690.81747,0.51961
6688.88873,0.51930
6686.95998,0.52125
6685.03123,0.52311
6683.10249,0.52358
6681.17374,0.52348
6679.24500,0.52402
6677.31625,0.52556
6675.38751,0.52660
6673.45876,0.52488
6671.53002,0.52200
6669.60127,0.52140
6667.67253,0.52298
6665.74378,0.52469
6663.81504,0.52470
6661.88629,0.52217
6659.95755,0.51989
6658.02880,0.52078
6656.10006,0.52244
6654.17131,0.52187
6652.24256,0.52032
6650.31382,0.52048
6648.38507,0.52231
6646.45633,0.52272
6644.52758,0.52058
6642.59884,0.51826
6640.67009,0.51787
6638.74135,0.51963
6636.81260,0.52273
6634.88386,0.52615
6632.95511,0.52816
6631.02637,0.52721
6629.09762,0.52510
6627.16888,0.52491
6625.24013,0.52585
6623.31139,0.52557
6621.38264,0.52493
6619.45389,0.52541
6617.52515,0.52642
6615.59640,0.52757
6613.66766,0.52773
6611.73891,0.52603
6609.81017,0.52455
6607.88142,0.52417
6605.95268,0.52382
6604.02393,0.52412
6602.09519,0.52591
6600.16644,0.52794
6598.23770,0.52834
6596.30895,0.52777
6594.38021,0.52780
6592.45146,0.52779
6590.52271,0.52712
6588.59397,0.52619
6586.66522,0.52544
6584.73648,0.52533
6582.80773,0.52583
6580.87899,0.52693
6578.95024,0.52866
6577.02150,0.53016
6575.09275,0.52997
6573.16401,0.52769
6571.23526,0.52561
6569.30652,0.52652
6567.37777,0.52919
6565.44903,0.53063
6563.52028,0.53111
6561.59154,0.53151
6559.66279,0.53032
6557.73404,0.52775
6555.80530,0.52760
6553.87655,0.53015
6551.94781,0.53126
6550.01906,0.53003
6548.09032,0.52909
6546.16157,0.52966
6544.23283,0.53034
6542.30408,0.53019
6540.37534,0.52920
6538.44659,0.52761
6536.51785,0.52736
6534.58910,0.52851
6532.66036,0.52905
6530.73161,0.53015
6528.80287,0.53245
6526.87412,0.53336
6524.94537,0.53200
6523.01663,0.53042
6521.08788,0.52994
6519.15914,0.52987
6517.23039,0.53014
6515.30165,0.53155
6513.37290,0.53282
6511.44416,0.53169
6509.51541,0.52952
6507.58667,0.52918
6505.65792,0.53005
6503.72918,0.53012
6501.80043,0.52870
6499.87169,0.52676
6497.94294,0.52609
6496.01419,0.52627
6494.08545,0.52608
6492.15670,0.52635
6490.22796,0.52781
6488.29921,0.52902
6486.37047,0.52862
6484.44172,0.52797
6482.51298,0.52835
6480.58423,0.52815
6478.65549,0.52632
6476.72674,0.52463
6474.79800,0.52457
6472.86925,0.52522
6470.94051,0.52545
6469.01176,0.52586
6467.08302,0.52699
6465.15427,0.52808
6463.22552,0.52827
6461.29678,0.52784
6459.36803,0.52869
6457.43929,0.53197
6455.51054,0.53462
6453.58180,0.53322
6451.65305,0.53008
6449.72431,0.52979
6447.79556,0.53241
6445.86682,0.53402
6443.93807,0.53260
6442.00933,0.53027
6440.08058,0.52902
6438.15184,0.52808
6436.22309,0.52717
6434.29434,0.52688
6432.36560,0.52657
6430.43685,0.52674
6428.50811,0.52781
6426.57936,0.52813
6424.65062,0.52769
6422.72187,0.52753
6420.79313,0.52839
6418.86438,0.53169
6416.93564,0.53554
6415.00689,0.53616
6413.07815,0.53446
6411.14940,0.53314
6409.22066,0.53208
6407.29191,0.53143
6405.36317,0.53198
6403.43442,0.53229
6401.50567,0.53125
6399.57693,0.53037
6397.64818,0.53021
6395.71944,0.52983
6393.79069,0.52984
6391.86195,0.53067
6389.93320,0.53099
6388.00446,0.53054
6386.07571,0.53006
6384.14697,0.52993
6382.21822,0.53069
6380.28948,0.53182
6378.36073,0.53224
6376.43199,0.53250
6374.50324,0.53276
6372.57450,0.53224
6370.64575,0.53186
6368.71700,0.53294
6366.78826,0.53470
6364.85951,0.53586
6362.93077,0.53575
6361.00202,0.53430
6359.07328,0.53351
6357.14453,0.53537
6355.21579,0.53776
6353.28704,0.53754
6351.35830,0.53524
6349.42955,0.53371
6347.50081,0.53366
6345.57206,0.53336
6343.64332,0.53307
6341.71457,0.53400
6339.78582,0.53535
6337.85708,0.53635
6335.92833,0.53673
6333.99959,0.53630
6332.07084,0.53570
6330.14210,0.53504
6328.21335,0.53361
6326.28461,0.53273
6324.35586,0.53383
6322.42712,0.53543
6320.49837,0.53612
6318.56963,0.53575
6316.64088,0.53520
6314.71214,0.53603
6312.78339,0.53689
6310.85465,0.53550
6308.92590,0.53365
6306.99715,0.53381
6305.06841,0.53598
6303.13966,0.53852
6301.21092,0.53839
6299.28217,0.53565
6297.35343,0.53425
6295.42468,0.53473
6293.49594,0.53485
6291.56719,0.53510
6289.63845,0.53653
6287.70970,0.53815
6285.78096,0.53904
6283.85221,0.53945
6281.92347,0.54027
6279.99472,0.54110
6278.06598,0.54038
6276.13723,0.53880
6274.20848,0.53828
6272.27974,0.53938
6270.35099,0.54116
6268.42225,0.54180
6266.49350,0.54189
6264.56476,0.54299
6262.63601,0.54406
6260.70727,0.54350
6258.77852,0.54179
6256.84978,0.54090
6254.92103,0.54206
6252.99229,0.54468
6251.06354,0.54640
6249.13480,0.54582
6247.20605,0.54453
6245.27730,0.54367
6243.34856,0.54320
6241.41981,0.54405
6239.49107,0.54647
6237.56232,0.54870
6235.63358,0.54969
6233.70483,0.54986
6231.77609,0.54881
6229.84734,0.54727
6227.91860,0.54721
6225.98985,0.54811
6224.06111,0.54892
6222.13236,0.54997
6220.20362,0.55095
6218.27487,0.55129
6216.34613,0.55132
6214.41738,0.55189
6212.48863,0.55274
6210.55989,0.55281
6208.63114,0.55270
6206.70240,0.55385
6204.77365,0.55533
6202.84491,0.55544
6200.91616,0.55467
6198.98742,0.55459
6197.05867,0.55603
6195.12993,0.55859
6193.20118,0.55998
6191.27244,0.55905
6189.34369,0.55753
6187.41495,0.55636
6185.48620,0.55587
6183.55746,0.55726
6181.62871,0.55963
6179.69996,0.56069
6177.77122,0.56032
6175.84247,0.56036
6173.91373,0.56101
6171.98498,0.56082
6170.05624,0.56060
6168.12749,0.56248
6166.19875,0.56548
6164.27000,0.56717
6162.34126,0.56773
6160.41251,0.56796
6158.48377,0.56767
6156.55502,0.56785
6154.62628,0.56862
6152.69753,0.56843
6150.76878,0.56810
6148.84004,0.56878
6146.91129,0.56885
6144.98255,0.56825
6143.05380,0.56864
6141.12506,0.56953
6139.19631,0.56995
6137.26757,0.57022
6135.33882,0.57039
6133.41008,0.56959
6131.48133,0.56775
6129.55259,0.56676
6127.62384,0.56779
6125.69510,0.56938
6123.76635,0.56995
6121.83761,0.57018
6119.90886,0.57131
6117.98011,0.57252
6116.05137,0.57291
6114.12262,0.57317
6112.19388,0.57339
6110.26513,0.57270
6108.33639,0.57169
6106.40764,0.57205
6104.47890,0.57399
6102.55015,0.57629
6100.62141,0.57780
6098.69266,0.57802
6096.76392,0.57710
6094.83517,0.57529
6092.90643,0.57380
6090.97768,0.57379
6089.04893,0.57427
6087.12019,0.57452
6085.19144,0.57543
6083.26270,0.57704
6081.33395,0.57795
6079.40521,0.57755
6077.47646,0.57667
6075.54772,0.57606
6073.61897,0.57591
6071.69023,0.57675
6069.76148,0.57806
6067.83274,0.57846
6065.90399,0.57752
6063.97525,0.57583
6062.04650,0.57533
6060.11776,0.57733
6058.18901,0.57903
6056.26026,0.57842
6054.33152,0.57815
6052.40277,0.57972
6050.47403,0.58085
6048.54528,0.58027
6046.61654,0.57957
6044.68779,0.57996
6042.75905,0.58105
6040.83030,0.58205
6038.90156,0.58256
6036.97281,0.58309
6035.04407,0.58383
6033.11532,0.58437
6031.18658,0.58446
6029.25783,0.58376
6027.32909,0.58271
6025.40034,0.58268
6023.47159,0.58382
6021.54285,0.58441
6019.61410,0.58322
6017.68536,0.58176
6015.75661,0.58157
6013.82787,0.58183
6011.89912,0.58200
6009.97038,0.58275
6008.04163,0.58340
6006.11289,0.58289
6004.18414,0.58165
6002.25540,0.58105
6000.32665,0.58212
5998.39791,0.58436
5996.46916,0.58587
5994.54041,0.58559
5992.61167,0.58490
5990.68292,0.58546
5988.75418,0.58669
5986.82543,0.58712
5984.89669,0.58636
5982.96794,0.58593
5981.03920,0.58718
5979.11045,0.58842
5977.18171,0.58769
5975.25296,0.58607
5973.32422,0.58561
5971.39547,0.58634
5969.46673,0.58660
5967.53798,0.58592
5965.60924,0.58519
5963.68049,0.58470
5961.75174,0.58469
5959.82300,0.58556
5957.89425,0.58651
5955.96551,0.58685
5954.03676,0.58695
5952.10802,0.58676
5950.17927,0.58629
5948.25053,0.58607
5946.32178,0.58588
5944.39304,0.58547
5942.46429,0.58514
5940.53555,0.58520
5938.60680,0.58521
5936.67806,0.58429
5934.74931,0.58305
5932.82057,0.58352
5930.89182,0.58573
5928.96307,0.58728
5927.03433,0.58703
5925.10558,0.58536
5923.17684,0.58316
5921.24809,0.58236
5919.31935,0.58360
5917.39060,0.58517
5915.46186,0.58533
5913.53311,0.58407
5911.60437,0.58309
5909.67562,0.58295
5907.74688,0.58253
5905.81813,0.58205
5903.88939,0.58198
5901.96064,0.58182
5900.03189,0.58148
5898.10315,0.58147
5896.17440,0.58207
5894.24566,0.58284
5892.31691,0.58293
5890.38817,0.58219
5888.45942,0.58133
5886.53068,0.58078
5884.60193,0.57976
5882.67319,0.57777
5880.74444,0.57612
5878.81570,0.57590
5876.88695,0.57618
5874.95821,0.57611
5873.02946,0.57612
5871.10072,0.57624
5869.17197,0.57596
5867.24322,0.57564
5865.31448,0.57594
5863.38573,0.57620
5861.45699,0.57587
5859.52824,0.57579
5857.59950,0.57650
5855.67075,0.57764
5853.74201,0.57867
5851.81326,0.57925
5849.88452,0.57908
5847.95577,0.57745
5846.02703,0.57520
5844.09828,0.57476
5842.16954,0.57682
5840.24079,0.57910
5838.31205,0.57937
5836.38330,0.57827
5834.45455,0.57756
5832.52581,0.57726
5830.59706,0.57665
5828.66832,0.57583
5826.73957,0.57524
5824.81083,0.57485
5822.88208,0.57485
5820.95334,0.57548
5819.02459,0.57613
5817.09585,0.57632
5815.16710,0.57647
5813.23836,0.57688
5811.30961,0.57722
5809.38087,0.57726
5807.45212,0.57700
5805.52337,0.57643
5803.59463,0.57607
5801.66588,0.57630
5799.73714,0.57621
5797.80839,0.57538
5795.87965,0.57494
5793.95090,0.57518
5792.02216,0.57465
5790.09341,0.57304
5788.16467,0.57222
5786.23592,0.57311
5784.30718,0.57431
5782.37843,0.57467
5780.44969,0.57393
5778.52094,0.57208
5776.59220,0.57079
5774.66345,0.57158
5772.73470,0.57316
5770.80596,0.57421
5768.87721,0.57477
5766.94847,0.57456
5765.01972,0.57379
5763.09098,0.57332
5761.16223,0.57312
5759.23349,0.57323
5757.30474,0.57413
5755.37600,0.57491
5753.44725,0.57463
5751.51851,0.57434
5749.58976,0.57430
5747.66102,0.57325
5745.73227,0.57188
5743.80352,0.57240
5741.87478,0.57468
5739.94603,0.57648
5738.01729,0.57631
5736.08854,0.57471
5734.15980,0.57354
5732.23105,0.57344
5730.30231,0.57344
5728.37356,0.57307
5726.44482,0.57294
5724.51607,0.57312
5722.58733,0.57290
5720.65858,0.57262
5718.72984,0.57281
5716.80109,0.57287
5714.87235,0.57288
5712.94360,0.57331
5711.01485,0.57346
5709.08611,0.57299
5707.15736,0.57242
5705.22862,0.57166
5703.29987,0.57105
5701.37113,0.57149
5699.44238,0.57211
5697.51364,0.57140
5695.58489,0.56992
5693.65615,0.56943
5691.72740,0.57012
5689.79866,0.57103
5687.86991,0.57203
5685.94117,0.57304
5684.01242,0.57334
5682.08368,0.57295
5680.15493,0.57258
5678.22618,0.57219
5676.29744,0.57141
5674.36869,0.56997
5672.43995,0.56842
5670.51120,0.56828
5668.58246,0.56924
5666.65371,0.56968
5664.72497,0.56951
5662.79622,0.56919
5660.86748,0.56905
5658.93873,0.56893
5657.00999,0.56839
5655.08124,0.56766
5653.15250,0.56724
5651.22375,0.56792
5649.29500,0.56962
5647.36626,0.57075
5645.43751,0.57050
5643.50877,0.56950
5641.58002,0.56847
5639.65128,0.56797
5637.72253,0.56811
5635.79379,0.56863
5633.86504,0.56931
5631.93630,0.56968
5630.00755,0.56984
5628.07881,0.57033
5626.15006,0.57041
5624.22132,0.56946
5622.29257,0.56845
5620.36383,0.56843
5618.43508,0.56937
5616.50633,0.57010
5614.57759,0.56975
5612.64884,0.56923
5610.72010,0.56926
5608.79135,0.56891
5606.86261,0.56794
5604.93386,0.56735
5603.00512,0.56741
5601.07637,0.56760
5599.14763,0.56787
5597.21888,0.56835
5595.29014,0.56865
5593.36139,0.56870
5591.43265,0.56883
5589.50390,0.56874
5587.57516,0.56811
5585.64641,0.56731
5583.71766,0.56700
5581.78892,0.56713
5579.86017,0.56723
5577.93143,0.56742
5576.00268,0.56762
5574.07394,0.56761
5572.14519,0.56768
5570.21645,0.56807
5568.28770,0.56870
5566.35896,0.56941
5564.43021,0.56966
5562.50147,0.56901
5560.57272,0.56845
5558.64398,0.56889
5556.71523,0.56937
5554.78648,0.56899
5552.85774,0.56863
5550.92899,0.56919
5549.00025,0.56977
5547.07150,0.56923
5545.14276,0.56852
5543.21401,0.56904
5541.28527,0.57007
5539.35652,0.57030
5537.42778,0.57011
5535.49903,0.57053
5533.57029,0.57119
5531.64154,0.57090
5529.71280,0.56986
5527.78405,0.56933
5525.85531,0.56956
5523.92656,0.57006
5521.99781,0.57015
5520.06907,0.56955
5518.14032,0.56904
5516.21158,0.56916
5514.28283,0.56958
5512.35409,0.57012
5510.42534,0.57059
5508.49660,0.57049
5506.56785,0.56989
5504.63911,0.56940
5502.71036,0.56864
5500.78162,0.56726
5498.85287,0.56669
5496.92413,0.56728
5494.99538,0.56753
5493.06664,0.56729
5491.13789,0.56722
5489.20914,0.56723
5487.28040,0.56729
5485.35165,0.56778
5483.42291,0.56872
5481.49416,0.56937
5479.56542,0.56948
5477.63667,0.56928
5475.70793,0.56889
5473.77918,0.56854
5471.85044,0.56825
5469.92169,0.56812
5467.99295,0.56853
5466.06420,0.56936
5464.13546,0.57029
5462.20671,0.57124
5460.27796,0.57250
5458.34922,0.57364
5456.42047,0.57324
5454.49173,0.57174
5452.56298,0.57116
5450.63424,0.57159
5448.70549,0.57165
5446.77675,0.57110
5444.84800,0.57053
5442.91926,0.57068
5440.99051,0.57167
5439.06177,0.57249
5437.13302,0.57268
5435.20428,0.57281
5433.27553,0.57293
5431.34679,0.57287
5429.41804,0.57304
5427.48929,0.57317
5425.56055,0.57297
5423.63180,0.57294
5421.70306,0.57308
5419.77431,0.57319
5417.84557,0.57357
5415.91682,0.57407
5413.98808,0.57431
5412.05933,0.57452
5410.13059,0.57516
5408.20184,0.57618
5406.27310,0.57693
5404.34435,0.57662
5402.41561,0.57533
5400.48686,0.57455
5398.55811,0.57513
5396.62937,0.57588
5394.70062,0.57589
5392.77188,0.57602
5390.84313,0.57662
5388.91439,0.57691
5386.98564,0.57668
5385.05690,0.57657
5383.12815,0.57701
5381.19941,0.57758
5379.27066,0.57787
5377.34192,0.57786
5375.41317,0.57736
5373.48443,0.57687
5371.55568,0.57721
5369.62694,0.57764
5367.69819,0.57749
5365.76944,0.57755
5363.84070,0.57798
5361.91195,0.57795
5359.98321,0.57719
5358.05446,0.57672
5356.12572,0.57711
5354.19697,0.57710
5352.26823,0.57634
5350.33948,0.57611
5348.41074,0.57679
5346.48199,0.57777
5344.55325,0.57847
5342.62450,0.57874
5340.69576,0.57871
5338.76701,0.57818
5336.83827,0.57716
5334.90952,0.57624
5332.98077,0.57576
5331.05203,0.57569
5329.12328,0.57593
5327.19454,0.57637
5325.26579,0.57677
5323.33705,0.57673
5321.40830,0.57590
5319.47956,0.57503
5317.55081,0.57467
5315.62207,0.57388
5313.69332,0.57303
5311.76458,0.57312
5309.83583,0.57327
5307.90709,0.57298
5305.97834,0.57279
5304.04959,0.57239
5302.12085,0.57153
5300.19210,0.57068
5298.26336,0.57006
5296.33461,0.56945
5294.40587,0.56906
5292.47712,0.56897
5290.54838,0.56852
5288.61963,0.56748
5286.69089,0.56643
5284.76214,0.56540
5282.83340,0.56410
5280.90465,0.56273
5278.97591,0.56137
5277.04716,0.55986
5275.11842,0.55857
5273.18967,0.55803
5271.26092,0.55779
5269.33218,0.55709
5267.40343,0.55609
5265.47469,0.55499
5263.54594,0.55348
5261.61720,0.55177
5259.68845,0.55042
5257.75971,0.54937
5255.83096,0.54812
5253.90222,0.54640
5251.97347,0.54479
5250.04473,0.54402
5248.11598,0.54344
5246.18724,0.54195
5244.25849,0.54006
5242.32975,0.53892
5240.40100,0.53823
5238.47225,0.53710
5236.54351,0.53560
5234.61476,0.53407
5232.68602,0.53236
5230.75727,0.53058
5228.82853,0.52936
5226.89978,0.52863
5224.97104,0.52762
5223.04229,0.52646
5221.11355,0.52561
5219.18480,0.52484
5217.25606,0.52400
5215.32731,0.52328
5213.39857,0.52253
5211.46982,0.52155
5209.54107,0.52088
5207.61233,0.52083
5205.68358,0.52106
5203.75484,0.52126
5201.82609,0.52100
5199.89735,0.52029
5197.96860,0.51968
5196.03986,0.51922
5194.11111,0.51866
5192.18237,0.51812
5190.25362,0.51831
5188.32488,0.51933
5186.39613,0.52016
5184.46739,0.52015
5182.53864,0.51955
5180.60990,0.51910
5178.68115,0.51888
5176.75240,0.51822
5174.82366,0.51782
5172.89491,0.51852
5170.96617,0.51955
5169.03742,0.52038
5167.10868,0.52106
5165.17993,0.52101
5163.25119,0.52034
5161.32244,0.52028
5159.39370,0.52089
5157.46495,0.52113
5155.53621,0.52085
5153.60746,0.52079
5151.67872,0.52139
5149.74997,0.52228
5147.82123,0.52302
5145.89248,0.52349
5143.96373,0.52362
5142.03499,0.52359
5140.10624,0.52353
5138.17750,0.52367
5136.24875,0.52446
5134.32001,0.52552
5132.39126,0.52599
5130.46252,0.52612
5128.53377,0.52645
5126.60503,0.52701
5124.67628,0.52775
5122.74754,0.52835
5120.81879,0.52872
5118.89005,0.52901
5116.96130,0.52918
5115.03255,0.52942
5113.10381,0.52988
5111.17506,0.53046
5109.24632,0.53110
5107.31757,0.53183
5105.38883,0.53278
5103.46008,0.53338
5101.53134,0.53318
5099.60259,0.53302
5097.67385,0.53356
5095.74510,0.53417
5093.81636,0.53425
5091.88761,0.53419
5089.95887,0.53480
5088.03012,0.53589
5086.10138,0.53640
5084.17263,0.53643
5082.24388,0.53687
5080.31514,0.53779
5078.38639,0.53839
5076.45765,0.53802
5074.52890,0.53737
5072.60016,0.53769
5070.67141,0.53866
5068.74267,0.53919
5066.81392,0.53927
5064.88518,0.53955
5062.95643,0.54009
5061.02769,0.54040
5059.09894,0.54053
5057.17020,0.54087
5055.24145,0.54128
5053.31270,0.54154
5051.38396,0.54179
5049.45521,0.54205
5047.52647,0.54233
5045.59772,0.54249
5043.66898,0.54231
5041.74023,0.54224
5039.81149,0.54228
5037.88274,0.54208
5035.95400,0.54220
5034.02525,0.54294
5032.09651,0.54359
5030.16776,0.54355
5028.23902,0.54321
5026.31027,0.54342
5024.38153,0.54435
5022.45278,0.54520
5020.52403,0.54511
5018.59529,0.54435
5016.66654,0.54397
5014.73780,0.54418
5012.80905,0.54439
5010.88031,0.54446
5008.95156,0.54458
5007.02282,0.54484
5005.09407,0.54514
5003.16533,0.54515
5001.23658,0.54505
4999.30784,0.54502
4997.37909,0.54451
4995.45035,0.54385
4993.52160,0.54386
4991.59286,0.54408
4989.66411,0.54399
4987.73536,0.54353
4985.80662,0.54302
4983.87787,0.54304
4981.94913,0.54325
4980.02038,0.54291
4978.09164,0.54231
4976.16289,0.54175
4974.23415,0.54114
4972.30540,0.54076
4970.37666,0.54054
4968.44791,0.53999
4966.51917,0.53926
4964.59042,0.53866
4962.66168,0.53813
4960.73293,0.53773
4958.80418,0.53761
4956.87544,0.53743
4954.94669,0.53682
4953.01795,0.53587
4951.08920,0.53493
4949.16046,0.53401
4947.23171,0.53294
4945.30297,0.53214
4943.37422,0.53170
4941.44548,0.53084
4939.51673,0.52934
4937.58799,0.52789
4935.65924,0.52697
4933.73050,0.52638
4931.80175,0.52546
4929.87301,0.52399
4927.94426,0.52230
4926.01551,0.52091
4924.08677,0.51967
4922.15802,0.51778
4920.22928,0.51537
4918.30053,0.51364
4916.37179,0.51327
4914.44304,0.51339
4912.51430,0.51249
4910.58555,0.51043
4908.65681,0.50827
4906.72806,0.50660
4904.79932,0.50514
4902.87057,0.50363
4900.94183,0.50192
4899.01308,0.50009
4897.08434,0.49861
4895.15559,0.49731
4893.22684,0.49562
4891.29810,0.49353
4889.36935,0.49105
4887.44061,0.48865
4885.51186,0.48700
4883.58312,0.48567
4881.65437,0.48381
4879.72563,0.48147
4877.79688,0.47946
4875.86814,0.47793
4873.93939,0.47654
4872.01065,0.47505
4870.08190,0.47325
4868.15316,0.47130
4866.22441,0.46936
4864.29566,0.46735
4862.36692,0.46529
4860.43817,0.46347
4858.50943,0.46218
4856.58068,0.46133
4854.65194,0.46050
4852.72319,0.45941
4850.79445,0.45830
4848.86570,0.45724
4846.93696,0.45569
4845.00821,0.45365
4843.07947,0.45182
4841.15072,0.45023
4839.22198,0.44888
4837.29323,0.44804
4835.36449,0.44711
4833.43574,0.44545
4831.50699,0.44333
4829.57825,0.44136
4827.64950,0.43974
4825.72076,0.43824
4823.79201,0.43707
4821.86327,0.43618
4819.93452,0.43501
4818.00578,0.43368
4816.07703,0.43257
4814.14829,0.43160
4812.21954,0.43052
4810.29080,0.42950
4808.36205,0.42859
4806.43331,0.42729
4804.50456,0.42576
4802.57582,0.42473
4800.64707,0.42409
4798.71832,0.42323
4796.78958,0.42233
4794.86083,0.42181
4792.93209,0.42152
4791.00334,0.42098
4789.07460,0.42005
4787.14585,0.41909
4785.21711,0.41835
4783.28836,0.41797
4781.35962,0.41776
4779.43087,0.41739
4777.50213,0.41693
4775.57338,0.41628
4773.64464,0.41553
4771.71589,0.41522
4769.78714,0.41524
4767.85840,0.41500
4765.92965,0.41436
4764.00091,0.41380
4762.07216,0.41360
4760.14342,0.41351
4758.21467,0.41359
4756.28593,0.41403
4754.35718,0.41434
4752.42844,0.41393
4750.49969,0.41320
4748.57095,0.41298
4746.64220,0.41310
4744.71346,0.41307
4742.78471,0.41322
4740.85597,0.41359
4738.92722,0.41383
4736.99847,0.41413
4735.06973,0.41479
4733.14098,0.41554
4731.21224,0.41609
4729.28349,0.41666
4727.35475,0.41744
4725.42600,0.41810
4723.49726,0.41866
4721.56851,0.41936
4719.63977,0.42014
4717.71102,0.42091
4715.78228,0.42149
4713.85353,0.42182
4711.92479,0.42218
4709.99604,0.42280
4708.06729,0.42383
4706.13855,0.42524
4704.20980,0.42662
4702.28106,0.42751
4700.35231,0.42809
4698.42357,0.42879
4696.49482,0.42965
4694.56608,0.43061
4692.63733,0.43152
4690.70859,0.43219
4688.77984,0.43279
4686.85110,0.43374
4684.92235,0.43494
4682.99361,0.43600
4681.06486,0.43688
4679.13612,0.43755
4677.20737,0.43806
4675.27862,0.43886
4673.34988,0.44007
4671.42113,0.44111
4669.49239,0.44147
4667.56364,0.44163
4665.63490,0.44237
4663.70615,0.44338
4661.77741,0.44408
4659.84866,0.44465
4657.91992,0.44533
4655.99117,0.44611
4654.06243,0.44690
4652.13368,0.44757
4650.20494,0.44817
4648.27619,0.44890
4646.34745,0.44948
4644.41870,0.44990
4642.48995,0.45089
4640.56121,0.45226
4638.63246,0.45315
4636.70372,0.45390
4634.77497,0.45484
4632.84623,0.45564
4630.91748,0.45643
4628.98874,0.45736
4627.05999,0.45789
4625.13125,0.45783
4623.20250,0.45816
4621.27376,0.45933
4619.34501,0.46043
4617.41627,0.46099
4615.48752,0.46163
4613.55877,0.46251
4611.63003,0.46326
4609.70128,0.46412
4607.77254,0.46508
4605.84379,0.46561
4603.91505,0.46599
4601.98630,0.46666
4600.05756,0.46732
4598.12881,0.46795
4596.20007,0.46885
4594.27132,0.46983
4592.34258,0.47029
4590.41383,0.47031
4588.48509,0.47071
4586.55634,0.47180
4584.62760,0.47324
4582.69885,0.47459
4580.77010,0.47565
4578.84136,0.47642
4576.91261,0.47686
4574.98387,0.47718
4573.05512,0.47789
4571.12638,0.47900
4569.19763,0.48010
4567.26889,0.48088
4565.34014,0.48141
4563.41140,0.48210
4561.48265,0.48301
4559.55391,0.48375
4557.62516,0.48415
4555.69642,0.48429
4553.76767,0.48460
4551.83893,0.48537
4549.91018,0.48639
4547.98143,0.48718
4546.05269,0.48750
4544.12394,0.48780
4542.19520,0.48863
4540.26645,0.48982
4538.33771,0.49077
4536.40896,0.49118
4534.48022,0.49120
4532.55147,0.49113
4530.62273,0.49104
4528.69398,0.49097
4526.76524,0.49107
4524.83649,0.49145
4522.90775,0.49220
4520.97900,0.49291
4519.05025,0.49319
4517.12151,0.49340
4515.19276,0.49368
4513.26402,0.49385
4511.33527,0.49431
4509.40653,0.49512
4507.47778,0.49569
4505.54904,0.49569
4503.62029,0.49546
4501.69155,0.49550
4499.76280,0.49575
4497.83406,0.49590
4495.90531,0.49620
4493.97657,0.49675
4492.04782,0.49696
4490.11908,0.49675
4488.19033,0.49676
4486.26158,0.49715
4484.33284,0.49728
4482.40409,0.49694
4480.47535,0.49660
4478.54660,0.49642
4476.61786,0.49634
4474.68911,0.49646
4472.76037,0.49662
4470.83162,0.49650
4468.90288,0.49596
4466.97413,0.49508
4465.04539,0.49406
4463.11664,0.49290
4461.18790,0.49163
4459.25915,0.49056
4457.33041,0.48969
4455.40166,0.48877
4453.47291,0.48773
4451.54417,0.48675
4449.61542,0.48574
4447.68668,0.48421
4445.75793,0.48183
4443.82919,0.47904
4441.90044,0.47672
4439.97170,0.47506
4438.04295,0.47336
4436.11421,0.47102
4434.18546,0.46808
4432.25672,0.46493
4430.32797,0.46177
4428.39923,0.45871
4426.47048,0.45590
4424.54173,0.45319
4422.61299,0.45026
4420.68424,0.44703
4418.75550,0.44381
4416.82675,0.44090
4414.89801,0.43815
4412.96926,0.43545
4411.04052,0.43290
4409.11177,0.43022
4407.18303,0.42738
4405.25428,0.42494
4403.32554,0.42310
4401.39679,0.42178
4399.46805,0.42098
4397.53930,0.42040
4395.61056,0.41990
4393.68181,0.42007
4391.75306,0.42123
4389.82432,0.42272
4387.89557,0.42391
4385.96683,0.42506
4384.03808,0.42648
4382.10934,0.42803
4380.18059,0.42952
4378.25185,0.43090
4376.32310,0.43212
4374.39436,0.43314
4372.46561,0.43395
4370.53687,0.43460
4368.60812,0.43531
4366.67938,0.43613
4364.75063,0.43679
4362.82189,0.43710
4360.89314,0.43686
4358.96439,0.43619
4357.03565,0.43561
4355.10690,0.43540
4353.17816,0.43494
4351.24941,0.43365
4349.32067,0.43211
4347.39192,0.43121
4345.46318,0.43080
4343.53443,0.43022
4341.60569,0.42948
4339.67694,0.42860
4337.74820,0.42728
4335.81945,0.42593
4333.89071,0.42506
4331.96196,0.42420
4330.03321,0.42278
4328.10447,0.42104
4326.17572,0.41952
4324.24698,0.41842
4322.31823,0.41747
4320.38949,0.41633
4318.46074,0.41513
4316.53200,0.41406
4314.60325,0.41307
4312.67451,0.41225
4310.74576,0.41161
4308.81702,0.41083
4306.88827,0.40978
4304.95953,0.40872
4303.03078,0.40777
4301.10204,0.40688
4299.17329,0.40610
4297.24454,0.40515
4295.31580,0.40398
4293.38705,0.40284
4291.45831,0.40182
4289.52956,0.40090
4287.60082,0.39997
4285.67207,0.39901
4283.74333,0.39827
4281.81458,0.39779
4279.88584,0.39736
4277.95709,0.39680
4276.02835,0.39621
4274.09960,0.39580
4272.17086,0.39541
4270.24211,0.39507
4268.31336,0.39523
4266.38462,0.39571
4264.45587,0.39588
4262.52713,0.39586
4260.59838,0.39613
4258.66964,0.39676
4256.74089,0.39727
4254.81215,0.39736
4252.88340,0.39738
4250.95466,0.39743
4249.02591,0.39736
4247.09717,0.39746
4245.16842,0.39810
4243.23968,0.39904
4241.31093,0.39969
4239.38219,0.39993
4237.45344,0.40024
4235.52469,0.40075
4233.59595,0.40118
4231.66720,0.40141
4229.73846,0.40168
4227.80971,0.40233
4225.88097,0.40303
4223.95222,0.40322
4222.02348,0.40307
4220.09473,0.40295
4218.16599,0.40290
4216.23724,0.40287
4214.30850,0.40307
4212.37975,0.40374
4210.45101,0.40471
4208.52226,0.40564
4206.59352,0.40646
4204.66477,0.40724
4202.73602,0.40803
4200.80728,0.40885
4198.87853,0.40979
4196.94979,0.41081
4195.02104,0.41158
4193.09230,0.41176
4191.16355,0.41147
4189.23481,0.41115
4187.30606,0.41111
4185.37732,0.41120
4183.44857,0.41101
4181.51983,0.41086
4179.59108,0.41119
4177.66234,0.41160
4175.73359,0.41198
4173.80484,0.41247
4171.87610,0.41293
4169.94735,0.41354
4168.01861,0.41446
4166.08986,0.41532
4164.16112,0.41587
4162.23237,0.41624
4160.30363,0.41661
4158.37488,0.41686
4156.44614,0.41656
4154.51739,0.41568
4152.58865,0.41491
4150.65990,0.41457
4148.73116,0.41426
4146.80241,0.41375
4144.87367,0.41313
4142.94492,0.41247
4141.01617,0.41204
4139.08743,0.41192
4137.15868,0.41174
4135.22994,0.41120
4133.30119,0.41039
4131.37245,0.40954
4129.44370,0.40874
4127.51496,0.40804
4125.58621,0.40749
4123.65747,0.40683
4121.72872,0.40587
4119.79998,0.40471
4117.87123,0.40339
4115.94249,0.40196
4114.01374,0.40041
4112.08500,0.39872
4110.15625,0.39689
4108.22750,0.39497
4106.29876,0.39316
4104.37001,0.39147
4102.44127,0.38957
4100.51252,0.38744
4098.58378,0.38511
4096.65503,0.38253
4094.72629,0.38001
4092.79754,0.37785
4090.86880,0.37591
4088.94005,0.37387
4087.01131,0.37153
4085.08256,0.36914
4083.15382,0.36699
4081.22507,0.36501
4079.29632,0.36312
4077.36758,0.36119
4075.43883,0.35905
4073.51009,0.35684
4071.58134,0.35478
4069.65260,0.35275
4067.72385,0.35061
4065.79511,0.34820
4063.86636,0.34539
4061.93762,0.34254
4060.00887,0.34008
4058.08013,0.33794
4056.15138,0.33554
4054.22264,0.33261
4052.29389,0.32965
4050.36515,0.32712
4048.43640,0.32476
4046.50765,0.32234
4044.57891,0.32009
4042.65016,0.31798
4040.72142,0.31587
4038.79267,0.31403
4036.86393,0.31255
4034.93518,0.31111
4033.00644,0.30982
4031.07769,0.30899
4029.14895,0.30846
4027.22020,0.30805
4025.29146,0.30776
4023.36271,0.30744
4021.43397,0.30717
4019.50522,0.30725
4017.57648,0.30778
4015.64773,0.30859
4013.71898,0.30928
4011.79024,0.30987
4009.86149,0.31068
4007.93275,0.31148
4006.00400,0.31208
4004.07526,0.31293
4002.14651,0.31427
4000.21777,0.31571
3998.28902,0.31695
3996.36028,0.31810
3994.43153,0.31925
3992.50279,0.32030
3990.57404,0.32116
3988.64530,0.32201
3986.71655,0.32289
3984.78780,0.32353
3982.85906,0.32395
3980.93031,0.32451
3979.00157,0.32550
3977.07282,0.32671
3975.14408,0.32764
3973.21533,0.32833
3971.28659,0.32899
3969.35784,0.32969
3967.42910,0.33050
3965.50035,0.33148
3963.57161,0.33263
3961.64286,0.33365
3959.71412,0.33435
3957.78537,0.33504
3955.85663,0.33593
3953.92788,0.33683
3951.99913,0.33763
3950.07039,0.33851
3948.14164,0.33953
3946.21290,0.34046
3944.28415,0.34141
3942.35541,0.34258
3940.42666,0.34387
3938.49792,0.34513
3936.56917,0.34643
3934.64043,0.34776
3932.71168,0.34892
3930.78294,0.34991
3928.85419,0.35102
3926.92545,0.35216
3924.99670,0.35291
3923.06795,0.35342
3921.13921,0.35435
3919.21046,0.35579
3917.28172,0.35713
3915.35297,0.35780
3913.42423,0.35807
3911.49548,0.35848
3909.56674,0.35921
3907.63799,0.36020
3905.70925,0.36133
3903.78050,0.36223
3901.85176,0.36278
3899.92301,0.36323
3897.99427,0.36371
3896.06552,0.36433
3894.13678,0.36511
3892.20803,0.36585
3890.27928,0.36649
3888.35054,0.36722
3886.42179,0.36816
3884.49305,0.36899
3882.56430,0.36951
3880.63556,0.36995
3878.70681,0.37019
3876.77807,0.37019
3874.84932,0.37042
3872.92058,0.37125
3870.99183,0.37254
3869.06309,0.37388
3867.13434,0.37519
3865.20560,0.37663
3863.27685,0.37798
3861.34811,0.37905
3859.41936,0.38024
3857.49061,0.38198
3855.56187,0.38410
3853.63312,0.38575
3851.70438,0.38640
3849.77563,0.38671
3847.84689,0.38747
3845.91814,0.38868
3843.98940,0.38990
3842.06065,0.39087
3840.13191,0.39199
3838.20316,0.39329
3836.27442,0.39406
3834.34567,0.39427
3832.41693,0.39440
3830.48818,0.39448
3828.55943,0.39462
3826.63069,0.39502
3824.70194,0.39535
3822.77320,0.39542
3820.84445,0.39545
3818.91571,0.39564
3816.98696,0.39604
3815.05822,0.39607
3813.12947,0.39537
3811.20073,0.39474
3809.27198,0.39467
3807.34324,0.39487
3805.41449,0.39512
3803.48575,0.39585
3801.55700,0.39671
3799.62826,0.39673
3797.69951,0.39654
3795.77076,0.39683
3793.84202,0.39691
3791.91327,0.39656
3789.98453,0.39648
3788.05578,0.39685
3786.12704,0.39720
3784.19829,0.39719
3782.26955,0.39713
3780.34080,0.39732
3778.41206,0.39742
3776.48331,0.39723
3774.55457,0.39698
3772.62582,0.39678
3770.69708,0.39663
3768.76833,0.39630
3766.83959,0.39578
3764.91084,0.39543
3762.98209,0.39541
3761.05335,0.39539
3759.12460,0.39499
3757.19586,0.39429
3755.26711,0.39376
3753.33837,0.39371
3751.40962,0.39390
3749.48088,0.39369
3747.55213,0.39327
3745.62339,0.39305
3743.69464,0.39238
3741.76590,0.39084
3739.83715,0.38944
3737.90841,0.38875
3735.97966,0.38816
3734.05091,0.38719
3732.12217,0.38580
3730.19342,0.38396
3728.26468,0.38212
3726.33593,0.38071
3724.40719,0.37959
3722.47844,0.37853
3720.54970,0.37723
3718.62095,0.37548
3716.69221,0.37342
3714.76346,0.37148
3712.83472,0.36989
3710.90597,0.36829
3708.97723,0.36616
3707.04848,0.36360
3705.11974,0.36099
3703.19099,0.35842
3701.26224,0.35579
3699.33350,0.35308
3697.40475,0.35029
3695.47601,0.34756
3693.54726,0.34483
3691.61852,0.34178
3689.68977,0.33839
3687.76103,0.33477
3685.83228,0.33087
3683.90354,0.32673
3681.97479,0.32241
3680.04605,0.31804
3678.11730,0.31369
3676.18856,0.30885
3674.25981,0.30341
3672.33107,0.29817
3670.40232,0.29308
3668.47357,0.28754
3666.54483,0.28166
3664.61608,0.27574
3662.68734,0.26988
3660.75859,0.26415
3658.82985,0.25840
3656.90110,0.25233
3654.97236,0.24640
3653.04361,0.24133
3651.11487,0.23645
3649.18612,0.23072
3647.25738,0.22447
3645.32863,0.21849
3643.39989,0.21287
3641.47114,0.20769
3639.54239,0.20289
3637.61365,0.19797
3635.68490,0.19298
3633.75616,0.18845
3631.82741,0.18432
3629.89867,0.17994
3627.96992,0.17488
3626.04118,0.16959
3624.11243,0.16470
3622.18369,0.16044
3620.25494,0.15651
3618.32620,0.15226
3616.39745,0.14768
3614.46871,0.14324
3612.53996,0.13920
3610.61122,0.13546
3608.68247,0.13166
3606.75372,0.12776
3604.82498,0.12412
3602.89623,0.12081
3600.96749,0.11751
3599.03874,0.11418
3597.11000,0.11107
3595.18125,0.10815
3593.25251,0.10525
3591.32376,0.10249
3589.39502,0.09986
3587.46627,0.09729
3585.53753,0.09477
3583.60878,0.09223
3581.68004,0.08979
3579.75129,0.08767
3577.82254,0.08581
3575.89380,0.08388
3573.96505,0.08179
3572.03631,0.07967
3570.10756,0.07760
3568.17882,0.07577
3566.25007,0.07408
3564.32133,0.07244
3562.39258,0.07087
3560.46384,0.06920
3558.53509,0.06746
3556.60635,0.06584
3554.67760,0.06428
3552.74886,0.06278
3550.82011,0.06157
3548.89137,0.06043
3546.96262,0.05904
3545.03387,0.05760
3543.10513,0.05636
3541.17638,0.05519
3539.24764,0.05397
3537.31889,0.05277
3535.39015,0.05161
3533.46140,0.05037
3531.53266,0.04907
3529.60391,0.04783
3527.67517,0.04691
3525.74642,0.04650
3523.81768,0.04629
3521.88893,0.04581
3519.96019,0.04491
3518.03144,0.04376
3516.10270,0.04271
3514.17395,0.04196
3512.24520,0.04140
3510.31646,0.04075
3508.38771,0.03988
3506.45897,0.03882
3504.53022,0.03777
3502.60148,0.03716
3500.67273,0.03699
3498.74399,0.03678
3496.81524,0.03626
3494.88650,0.03549
3492.95775,0.03474
3491.02901,0.03431
3489.10026,0.03428
3487.17152,0.03430
3485.24277,0.03403
3483.31402,0.03345
3481.38528,0.03294
3479.45653,0.03278
3477.52779,0.03276
3475.59904,0.03253
3473.67030,0.03202
3471.74155,0.03143
3469.81281,0.03105
3467.88406,0.03097
3465.95532,0.03102
3464.02657,0.03093
3462.09783,0.03061
3460.16908,0.03022
3458.24034,0.03005
3456.31159,0.03019
3454.38285,0.03036
3452.45410,0.03033
3450.52535,0.03019
3448.59661,0.03003
3446.66786,0.02966
3444.73912,0.02931
3442.81037,0.02934
3440.88163,0.02952
3438.95288,0.02974
3437.02414,0.02996
3435.09539,0.02997
3433.16665,0.02976
3431.23790,0.02964
3429.30916,0.02976
3427.38041,0.02987
3425.45167,0.02964
3423.52292,0.02935
3421.59418,0.02947
3419.66543,0.02970
3417.73668,0.02963
3415.80794,0.02948
3413.87919,0.02942
3411.95045,0.02937
3410.02170,0.02934
3408.09296,0.02938
3406.16421,0.02956
3404.23547,0.02975
3402.30672,0.02982
3400.37798,0.02970
3398.44923,0.02958
3396.52049,0.02980
3394.59174,0.03012
3392.66300,0.03031
3390.73425,0.03043
3388.80550,0.03048
3386.87676,0.03043
3384.94801,0.03042
3383.01927,0.03052
3381.09052,0.03071
3379.16178,0.03075
3377.23303,0.03042
3375.30429,0.03028
3373.37554,0.03075
3371.44680,0.03121
3369.51805,0.03139
3367.58931,0.03169
3365.66056,0.03220
3363.73182,0.03245
3361.80307,0.03233
3359.87433,0.03232
3357.94558,0.03256
3356.01683,0.03298
3354.08809,0.03380
3352.15934,0.03470
3350.23060,0.03523
3348.30185,0.03567
3346.37311,0.03615
3344.44436,0.03630
3342.51562,0.03635
3340.58687,0.03668
3338.65813,0.03728
3336.72938,0.03797
3334.80064,0.03843
3332.87189,0.03879
3330.94315,0.03926
3329.01440,0.03940
3327.08566,0.03937
3325.15691,0.03971
3323.22816,0.04000
3321.29942,0.03978
3319.37067,0.03936
3317.44193,0.03901
3315.51318,0.03889
3313.58444,0.03904
3311.65569,0.03915
3309.72695,0.03924
3307.79820,0.03939
3305.86946,0.03947
3303.94071,0.03960
3302.01197,0.03976
3300.08322,0.03986
3298.15448,0.04004
3296.22573,0.04028
3294.29698,0.04043
3292.36824,0.04042
3290.43949,0.04031
3288.51075,0.04022
3286.58200,0.04024
3284.65326,0.04057
3282.72451,0.04103
3280.79577,0.04122
3278.86702,0.04134
3276.93828,0.04176
3275.00953,0.04231
3273.08079,0.04262
3271.15204,0.04280
3269.22330,0.04335
3267.29455,0.04417
3265.36581,0.04473
3263.43706,0.04497
3261.50831,0.04523
3259.57957,0.04572
3257.65082,0.04621
3255.72208,0.04633
3253.79333,0.04647
3251.86459,0.04705
3249.93584,0.04762
3248.00710,0.04792
3246.07835,0.04818
3244.14961,0.04834
3242.22086,0.04848
3240.29212,0.04877
3238.36337,0.04906
3236.43463,0.04941
3234.50588,0.05005
3232.57713,0.05062
3230.64839,0.05092
3228.71964,0.05122
3226.79090,0.05172
3224.86215,0.05232
3222.93341,0.05295
3221.00466,0.05360
3219.07592,0.05413
3217.14717,0.05452
3215.21843,0.05489
3213.28968,0.05529
3211.36094,0.05579
3209.43219,0.05649
3207.50345,0.05738
3205.57470,0.05817
3203.64596,0.05870
3201.71721,0.05930
3199.78846,0.06021
3197.85972,0.06109
3195.93097,0.06165
3194.00223,0.06219
3192.07348,0.06284
3190.14474,0.06350
3188.21599,0.06423
3186.28725,0.06493
3184.35850,0.06559
3182.42976,0.06642
3180.50101,0.06733
3178.57227,0.06815
3176.64352,0.06882
3174.71478,0.06935
3172.78603,0.07010
3170.85729,0.07125
3168.92854,0.07233
3166.99979,0.07289
3165.07105,0.07321
3163.14230,0.07376
3161.21356,0.07469
3159.28481,0.07590
3157.35607,0.07716
3155.42732,0.07821
3153.49858,0.07912
3151.56983,0.07998
3149.64109,0.08083
3147.71234,0.08171
3145.78360,0.08251
3143.85485,0.08315
3141.92611,0.08388
3139.99736,0.08491
3138.06861,0.08602
3136.13987,0.08720
3134.21112,0.08868
3132.28238,0.09006
3130.35363,0.09103
3128.42489,0.09191
3126.49614,0.09277
3124.56740,0.09352
3122.63865,0.09434
3120.70991,0.09537
3118.78116,0.09672
3116.85242,0.09813
3114.92367,0.09911
3112.99493,0.09985
3111.06618,0.10077
3109.13744,0.10182
3107.20869,0.10289
3105.27994,0.10411
3103.35120,0.10538
3101.42245,0.10639
3099.49371,0.10723
3097.56496,0.10816
3095.63622,0.10933
3093.70747,0.11072
3091.77873,0.11198
3089.84998,0.11299
3087.92124,0.11424
3085.99249,0.11574
3084.06375,0.11701
3082.13500,0.11800
3080.20626,0.11906
3078.27751,0.12030
3076.34877,0.12156
3074.42002,0.12270
3072.49127,0.12370
3070.56253,0.12451
3068.63378,0.12537
3066.70504,0.12648
3064.77629,0.12765
3062.84755,0.12875
3060.91880,0.12976
3058.99006,0.13065
3057.06131,0.13152
3055.13257,0.13252
3053.20382,0.13368
3051.27508,0.13473
3049.34633,0.13561
3047.41759,0.13665
3045.48884,0.13784
3043.56009,0.13883
3041.63135,0.13955
3039.70260,0.14013
3037.77386,0.14078
3035.84511,0.14171
3033.91637,0.14268
3031.98762,0.14349
3030.05888,0.14434
3028.13013,0.14539
3026.20139,0.14647
3024.27264,0.14727
3022.34390,0.14764
3020.41515,0.14784
3018.48641,0.14828
3016.55766,0.14903
3014.62892,0.14981
3012.70017,0.15025
3010.77142,0.15030
3008.84268,0.15034
3006.91393,0.15058
3004.98519,0.15070
3003.05644,0.15041
3001.12770,0.14986
2999.19895,0.14926
2997.27021,0.14854
2995.34146,0.14746
2993.41272,0.14588
2991.48397,0.14403
2989.55523,0.14215
2987.62648,0.13987
2985.69774,0.13662
2983.76899,0.13260
2981.84025,0.12827
2979.91150,0.12366
2977.98275,0.11847
2976.05401,0.11244
2974.12526,0.10580
2972.19652,0.09919
2970.26777,0.09371
2968.33903,0.09070
2966.41028,0.09009
2964.48154,0.09040
2962.55279,0.09048
2960.62405,0.08993
2958.69530,0.08881
2956.76656,0.08707
2954.83781,0.08460
2952.90907,0.08188
2950.98032,0.07951
2949.05157,0.07755
2947.12283,0.07582
2945.19408,0.07440
2943.26534,0.07343
2941.33659,0.07296
2939.40785,0.07287
2937.47910,0.07278
2935.55036,0.07259
2933.62161,0.07221
2931.69287,0.07132
2929.76412,0.07000
2927.83538,0.06872
2925.90663,0.06757
2923.97789,0.06631
2922.04914,0.06481
2920.12040,0.06302
2918.19165,0.06101
2916.26290,0.05927
2914.33416,0.05810
2912.40541,0.05712
2910.47667,0.05614
2908.54792,0.05540
2906.61918,0.05491
2904.69043,0.05465
2902.76169,0.05472
2900.83294,0.05504
2898.90420,0.05543
2896.97545,0.05592
2895.04671,0.05679
2893.11796,0.05799
2891.18922,0.05909
2889.26047,0.05989
2887.33172,0.06064
2885.40298,0.06157
2883.47423,0.06253
2881.54549,0.06315
2879.61674,0.06346
2877.68800,0.06379
2875.75925,0.06419
2873.83051,0.06451
2871.90176,0.06482
2869.97302,0.06528
2868.04427,0.06585
2866.11553,0.06644
2864.18678,0.06709
2862.25804,0.06785
2860.32929,0.06869
2858.40055,0.06952
2856.47180,0.07027
2854.54305,0.07111
2852.61431,0.07234
2850.68556,0.07396
2848.75682,0.07592
2846.82807,0.07833
2844.89933,0.08109
2842.97058,0.08389
2841.04184,0.08667
2839.11309,0.08942
2837.18435,0.09201
2835.25560,0.09432
2833.32686,0.09645
2831.39811,0.09851
2829.46937,0.10050
2827.54062,0.10238
2825.61188,0.10438
2823.68313,0.10667
2821.75438,0.10888
2819.82564,0.11078
2817.89689,0.11258
2815.96815,0.11453
2814.03940,0.11675
2812.11066,0.11906
2810.18191,0.12123
2808.25317,0.12320
2806.32442,0.12495
2804.39568,0.12652
2802.46693,0.12799
2800.53819,0.12941
2798.60944,0.13080
2796.68070,0.13207
2794.75195,0.13319
2792.82320,0.13407
2790.89446,0.13456
2788.96571,0.13487
2787.03697,0.13532
2785.10822,0.13594
2783.17948,0.13648
2781.25073,0.13693
2779.32199,0.13728
2777.39324,0.13738
2775.46450,0.13738
2773.53575,0.13760
2771.60701,0.13794
2769.67826,0.13821
2767.74952,0.13841
2765.82077,0.13858
2763.89203,0.13875
2761.96328,0.13909
2760.03453,0.13962
2758.10579,0.14017
2756.17704,0.14052
2754.24830,0.14055
2752.31955,0.14043
2750.39081,0.14032
2748.46206,0.14005
2746.53332,0.13960
2744.60457,0.13921
2742.67583,0.13900
2740.74708,0.13891
2738.81834,0.13892
2736.88959,0.13894
2734.96085,0.13901
2733.03210,0.13926
2731.10336,0.13966
2729.17461,0.14015
2727.24586,0.14066
2725.31712,0.14112
2723.38837,0.14163
2721.45963,0.14229
2719.53088,0.14298
2717.60214,0.14361
2715.67339,0.14425
2713.74465,0.14510
2711.81590,0.14630
2709.88716,0.14755
2707.95841,0.14871
2706.02967,0.15011
2704.10092,0.15171
2702.17218,0.15319
2700.24343,0.15453
2698.31468,0.15582
2696.38594,0.15715
2694.45719,0.15870
2692.52845,0.16040
2690.59970,0.16196
2688.67096,0.16333
2686.74221,0.16473
2684.81347,0.16619
2682.88472,0.16748
2680.95598,0.16857
2679.02723,0.16962
2677.09849,0.17052
2675.16974,0.17127
2673.24100,0.17218
2671.31225,0.17333
2669.38351,0.17437
2667.45476,0.17496
2665.52601,0.17516
2663.59727,0.17531
2661.66852,0.17571
2659.73978,0.17622
2657.81103,0.17673
2655.88229,0.17733
2653.95354,0.17808
2652.02480,0.17900
2650.09605,0.18010
2648.16731,0.18127
2646.23856,0.18237
2644.30982,0.18334
2642.38107,0.18423
2640.45233,0.18516
2638.52358,0.18610
2636.59484,0.18700
2634.66609,0.18791
2632.73734,0.18875
2630.80860,0.18943
2628.87985,0.19022
2626.95111,0.19112
2625.02236,0.19189
2623.09362,0.19267
2621.16487,0.19351
2619.23613,0.19422
2617.30738,0.19486
2615.37864,0.19547
2613.44989,0.19595
2611.52115,0.19646
2609.59240,0.19716
2607.66366,0.19785
2605.73491,0.19850
2603.80616,0.19932
2601.87742,0.20020
2599.94867,0.20094
2598.01993,0.20168
2596.09118,0.20238
2594.16244,0.20288
2592.23369,0.20327
2590.30495,0.20370
2588.37620,0.20408
2586.44746,0.20427
2584.51871,0.20438
2582.58997,0.20456
2580.66122,0.20463
2578.73248,0.20458
2576.80373,0.20468
2574.87499,0.20488
2572.94624,0.20485
2571.01749,0.20451
2569.08875,0.20402
2567.16000,0.20361
2565.23126,0.20342
2563.30251,0.20317
2561.37377,0.20260
2559.44502,0.20192
2557.51628,0.20144
2555.58753,0.20113
2553.65879,0.20090
2551.73004,0.20054
2549.80130,0.20001
2547.87255,0.19948
2545.94381,0.19907
2544.01506,0.19875
2542.08631,0.19857
2540.15757,0.19860
2538.22882,0.19870
2536.30008,0.19876
2534.37133,0.19899
2532.44259,0.19945
2530.51384,0.19983
2528.58510,0.20011
2526.65635,0.20054
2524.72761,0.20103
2522.79886,0.20147
2520.87012,0.20186
2518.94137,0.20208
2517.01263,0.20224
2515.08388,0.20269
2513.15514,0.20352
2511.22639,0.20464
2509.29764,0.20607
2507.36890,0.20775
2505.44015,0.20958
2503.51141,0.21143
2501.58266,0.21324
2499.65392,0.21497
2497.72517,0.21651
2495.79643,0.21781
2493.86768,0.21909
2491.93894,0.22058
2490.01019,0.22206
2488.08145,0.22321
2486.15270,0.22414
2484.22396,0.22507
2482.29521,0.22604
2480.36647,0.22691
2478.43772,0.22775
2476.50897,0.22887
2474.58023,0.23031
2472.65148,0.23173
2470.72274,0.23281
2468.79399,0.23357
2466.86525,0.23409
2464.93650,0.23434
2463.00776,0.23451
2461.07901,0.23484
2459.15027,0.23546
2457.22152,0.23623
2455.29278,0.23687
2453.36403,0.23740
2451.43529,0.23807
2449.50654,0.23898
2447.57779,0.24010
2445.64905,0.24116
2443.72030,0.24218
2441.79156,0.24336
2439.86281,0.24468
2437.93407,0.24606
2436.00532,0.24741
2434.07658,0.24865
2432.14783,0.24990
2430.21909,0.25119
2428.29034,0.25249
2426.36160,0.25393
2424.43285,0.25541
2422.50411,0.25671
2420.57536,0.25788
2418.64662,0.25905
2416.71787,0.26010
2414.78912,0.26099
2412.86038,0.26194
2410.93163,0.26296
2409.00289,0.26386
2407.07414,0.26460
2405.14540,0.26527
2403.21665,0.26602
2401.28791,0.26699
2399.35916,0.26808
2397.43042,0.26913
2395.50167,0.27031
2393.57293,0.27155
2391.64418,0.27251
2389.71544,0.27319
2387.78669,0.27394
2385.85795,0.27482
2383.92920,0.27571
2382.00045,0.27669
2380.07171,0.27780
2378.14296,0.27898
2376.21422,0.28022
2374.28547,0.28153
2372.35673,0.28290
2370.42798,0.28421
2368.49924,0.28533
2366.57049,0.28628
2364.64175,0.28707
2362.71300,0.28762
2360.78426,0.28812
2358.85551,0.28873
2356.92677,0.28940
2354.99802,0.29023
2353.06927,0.29118
2351.14053,0.29204
2349.21178,0.29290
2347.28304,0.29396
2345.35429,0.29512
2343.42555,0.29624
2341.49680,0.29726
2339.56806,0.29806
2337.63931,0.29867
2335.71057,0.29929
2333.78182,0.29986
2331.85308,0.30034
2329.92433,0.30085
2327.99559,0.30146
2326.06684,0.30222
2324.13810,0.30308
2322.20935,0.30389
2320.28060,0.30458
2318.35186,0.30494
2316.42311,0.30497
2314.49437,0.30508
2312.56562,0.30551
2310.63688,0.30595
2308.70813,0.30606
2306.77939,0.30581
2304.85064,0.30535
2302.92190,0.30484
2300.99315,0.30427
2299.06441,0.30352
2297.13566,0.30263
2295.20692,0.30191
2293.27817,0.30156
2291.34943,0.30131
2289.42068,0.30098
2287.49193,0.30070
2285.56319,0.30049
2283.63444,0.30027
2281.70570,0.30001
2279.77695,0.29978
2277.84821,0.29942
2275.91946,0.29860
2273.99072,0.29731
2272.06197,0.29584
2270.13323,0.29434
2268.20448,0.29271
2266.27574,0.29089
2264.34699,0.28900
2262.41825,0.28726
2260.48950,0.28581
2258.56075,0.28457
2256.63201,0.28329
2254.70326,0.28207
2252.77452,0.28124
2250.84577,0.28072
2248.91703,0.28016
2246.98828,0.27944
2245.05954,0.27869
2243.13079,0.27800
2241.20205,0.27746
2239.27330,0.27714
2237.34456,0.27691
2235.41581,0.27664
2233.48707,0.27645
2231.55832,0.27654
2229.62958,0.27681
2227.70083,0.27722
2225.77208,0.27787
2223.84334,0.27867
2221.91459,0.27964
2219.98585,0.28090
2218.05710,0.28225
2216.12836,0.28344
2214.19961,0.28450
2212.27087,0.28538
2210.34212,0.28591
2208.41338,0.28608
2206.48463,0.28610
2204.55589,0.28613
2202.62714,0.28616
2200.69840,0.28597
2198.76965,0.28541
2196.84090,0.28462
2194.91216,0.28374
2192.98341,0.28277
2191.05467,0.28166
2189.12592,0.28038
2187.19718,0.27888
2185.26843,0.27718
2183.33969,0.27543
2181.41094,0.27362
2179.48220,0.27161
2177.55345,0.26948
2175.62471,0.26734
2173.69596,0.26521
2171.76722,0.26308
2169.83847,0.26104
2167.90973,0.25913
2165.98098,0.25724
2164.05223,0.25529
2162.12349,0.25346
2160.19474,0.25199
2158.26600,0.25081
2156.33725,0.24973
2154.40851,0.24872
2152.47976,0.24778
2150.55102,0.24679
2148.62227,0.24578
2146.69353,0.24494
2144.76478,0.24417
2142.83604,0.24320
2140.90729,0.24207
2138.97855,0.24110
2137.04980,0.24049
2135.12106,0.24027
2133.19231,0.24050
2131.26356,0.24112
2129.33482,0.24190
2127.40607,0.24275
2125.47733,0.24377
2123.54858,0.24497
2121.61984,0.24620
2119.69109,0.24732
2117.76235,0.24839
2115.83360,0.24966
2113.90486,0.25115
2111.97611,0.25251
2110.04737,0.25357
2108.11862,0.25455
2106.18988,0.25563
2104.26113,0.25675
2102.33238,0.25776
2100.40364,0.25863
2098.47489,0.25944
2096.54615,0.26025
2094.61740,0.26097
2092.68866,0.26154
2090.75991,0.26212
2088.83117,0.26288
2086.90242,0.26376
2084.97368,0.26447
2083.04493,0.26482
2081.11619,0.26491
2079.18744,0.26492
2077.25870,0.26492
2075.32995,0.26479
2073.40121,0.26428
2071.47246,0.26353
2069.54371,0.26288
2067.61497,0.26250
2065.68622,0.26250
2063.75748,0.26284
2061.82873,0.26314
2059.89999,0.26323
2057.97124,0.26326
2056.04250,0.26325
2054.11375,0.26324
2052.18501,0.26325
2050.25626,0.26330
2048.32752,0.26336
2046.39877,0.26360
2044.47003,0.26410
2042.54128,0.26470
2040.61254,0.26539
2038.68379,0.26626
2036.75504,0.26738
2034.82630,0.26886
2032.89755,0.27069
2030.96881,0.27260
2029.04006,0.27450
2027.11132,0.27663
2025.18257,0.27900
2023.25383,0.28130
2021.32508,0.28345
2019.39634,0.28556
2017.46759,0.28769
2015.53885,0.28973
2013.61010,0.29153
2011.68136,0.29315
2009.75261,0.29451
2007.82386,0.29542
2005.89512,0.29603
2003.96637,0.29656
2002.03763,0.29699
2000.10888,0.29748
1998.18014,0.29818
1996.25139,0.29902
1994.32265,0.30007
1992.39390,0.30143
1990.46516,0.30280
1988.53641,0.30401
1986.60767,0.30522
1984.67892,0.30642
1982.75018,0.30748
1980.82143,0.30834
1978.89269,0.30900
1976.96394,0.30953
1975.03519,0.31001
1973.10645,0.31049
1971.17770,0.31092
1969.24896,0.31133
1967.32021,0.31177
1965.39147,0.31225
1963.46272,0.31277
1961.53398,0.31329
1959.60523,0.31378
1957.67649,0.31444
1955.74774,0.31546
1953.81900,0.31667
1951.89025,0.31792
1949.96151,0.31936
1948.03276,0.32103
1946.10402,0.32282
1944.17527,0.32459
1942.24652,0.32624
1940.31778,0.32781
1938.38903,0.32940
1936.46029,0.33088
1934.53154,0.33215
1932.60280,0.33326
1930.67405,0.33431
1928.74531,0.33534
1926.81656,0.33624
1924.88782,0.33690
1922.95907,0.33749
1921.03033,0.33823
1919.10158,0.33894
1917.17284,0.33945
1915.24409,0.33991
1913.31534,0.34046
1911.38660,0.34093
1909.45785,0.34114
1907.52911,0.34122
1905.60036,0.34144
1903.67162,0.34168
1901.74287,0.34169
1899.81413,0.34145
1897.88538,0.34112
1895.95664,0.34087
1894.02789,0.34064
1892.09915,0.34032
1890.17040,0.34001
1888.24166,0.33978
1886.31291,0.33948
1884.38417,0.33901
1882.45542,0.33856
1880.52667,0.33823
1878.59793,0.33798
1876.66918,0.33772
1874.74044,0.33747
1872.81169,0.33728
1870.88295,0.33717
1868.95420,0.33693
1867.02546,0.33637
1865.09671,0.33551
1863.16797,0.33458
1861.23922,0.33375
1859.31048,0.33300
1857.38173,0.33207
1855.45299,0.33096
1853.52424,0.32986
1851.59549,0.32874
1849.66675,0.32749
1847.73800,0.32625
1845.80926,0.32512
1843.88051,0.32384
1841.95177,0.32237
1840.02302,0.32117
1838.09428,0.32028
1836.16553,0.31934
1834.23679,0.31842
1832.30804,0.31784
1830.37930,0.31734
1828.45055,0.31647
1826.52181,0.31545
1824.59306,0.31453
1822.66432,0.31355
1820.73557,0.31250
1818.80682,0.31145
1816.87808,0.31044
1814.94933,0.30950
1813.02059,0.30859
1811.09184,0.30751
1809.16310,0.30618
1807.23435,0.30476
1805.30561,0.30345
1803.37686,0.30232
1801.44812,0.30131
1799.51937,0.30022
1797.59063,0.29903
1795.66188,0.29800
1793.73314,0.29714
1791.80439,0.29606
1789.87565,0.29479
1787.94690,0.29358
1786.01815,0.29230
1784.08941,0.29088
1782.16066,0.28958
1780.23192,0.28831
1778.30317,0.28686
1776.37443,0.28536
1774.44568,0.28398
1772.51694,0.28248
1770.58819,0.28062
1768.65945,0.27870
1766.73070,0.27700
1764.80196,0.27540
1762.87321,0.27388
1760.94447,0.27240
1759.01572,0.27094
1757.08697,0.26962
1755.15823,0.26843
1753.22948,0.26721
1751.30074,0.26571
1749.37199,0.26375
1747.44325,0.26141
1745.51450,0.25899
1743.58576,0.25660
1741.65701,0.25422
1739.72827,0.25188
1737.79952,0.24994
1735.87078,0.24856
1733.94203,0.24700
1732.01329,0.24486
1730.08454,0.24300
1728.15580,0.24182
1726.22705,0.24110
1724.29830,0.24049
1722.36956,0.23965
1720.44081,0.23874
1718.51207,0.23792
1716.58332,0.23662
1714.65458,0.23456
1712.72583,0.23237
1710.79709,0.23031
1708.86834,0.22809
1706.93960,0.22548
1705.01085,0.22266
1703.08211,0.21991
1701.15336,0.21681
1699.22462,0.21277
1697.29587,0.20809
1695.36713,0.20296
1693.43838,0.19751
1691.50963,0.19207
1689.58089,0.18664
1687.65214,0.18141
1685.72340,0.17624
1683.79465,0.17055
1681.86591,0.16476
1679.93716,0.15952
1678.00842,0.15493
1676.07967,0.15083
1674.15093,0.14722
1672.22218,0.14431
1670.29344,0.14199
1668.36469,0.13991
1666.43595,0.13818
1664.50720,0.13694
1662.57845,0.13602
1660.64971,0.13533
1658.72096,0.13504
1656.79222,0.13534
1654.86347,0.13602
1652.93473,0.13634
1651.00598,0.13600
1649.07724,0.13578
1647.14849,0.13593
1645.21975,0.13601
1643.29100,0.13599
1641.36226,0.13612
1639.43351,0.13647
1637.50477,0.13700
1635.57602,0.13756
1633.64728,0.13807
1631.71853,0.13887
1629.78978,0.14017
1627.86104,0.14166
1625.93229,0.14320
1624.00355,0.14495
1622.07480,0.14679
1620.14606,0.14863
1618.21731,0.15057
1616.28857,0.15235
1614.35982,0.15364
1612.43108,0.15480
1610.50233,0.15605
1608.57359,0.15722
1606.64484,0.15825
1604.71610,0.15929
1602.78735,0.16033
1600.85861,0.16121
1598.92986,0.16195
1597.00111,0.16261
1595.07237,0.16318
1593.14362,0.16374
1591.21488,0.16433
1589.28613,0.16492
1587.35739,0.16539
1585.42864,0.16557
1583.49990,0.16540
1581.57115,0.16522
1579.64241,0.16544
1577.71366,0.16598
1575.78492,0.16638
1573.85617,0.16644
1571.92743,0.16675
1569.99868,0.16751
1568.06993,0.16819
1566.14119,0.16851
1564.21244,0.16864
1562.28370,0.16893
1560.35495,0.16936
1558.42621,0.16930
1556.49746,0.16860
1554.56872,0.16784
1552.63997,0.16718
1550.71123,0.16643
1548.78248,0.16550
1546.85374,0.16448
1544.92499,0.16358
1542.99625,0.16299
1541.06750,0.16254
1539.13876,0.16179
1537.21001,0.16102
1535.28126,0.16079
1533.35252,0.16083
1531.42377,0.16055
1529.49503,0.15991
1527.56628,0.15912
1525.63754,0.15824
1523.70879,0.15723
1521.78005,0.15591
1519.85130,0.15431
1517.92256,0.15249
1515.99381,0.15048
1514.06507,0.14855
1512.13632,0.14683
1510.20758,0.14521
1508.27883,0.14352
1506.35008,0.14126
1504.42134,0.13836
1502.49259,0.13551
1500.56385,0.13287
1498.63510,0.13004
1496.70636,0.12660
1494.77761,0.12249
1492.84887,0.11786
1490.92012,0.11262
1488.99138,0.10649
1487.06263,0.09969
1485.13389,0.09293
1483.20514,0.08719
1481.27640,0.08336
1479.34765,0.08123
1477.41891,0.07954
1475.49016,0.07744
1473.56141,0.07487
1471.63267,0.07184
1469.70392,0.06853
1467.77518,0.06525
1465.84643,0.06204
1463.91769,0.05896
1461.98894,0.05624
1460.06020,0.05412
1458.13145,0.05261
1456.20271,0.05145
1454.27396,0.05050
1452.34522,0.04979
1450.41647,0.04917
1448.48773,0.04842
1446.55898,0.04763
1444.63024,0.04692
1442.70149,0.04603
1440.77274,0.04482
1438.84400,0.04353
1436.91525,0.04231
1434.98651,0.04116
1433.05776,0.04031
1431.12902,0.04009
1429.20027,0.04058
1427.27153,0.04173
1425.34278,0.04336
1423.41404,0.04520
1421.48529,0.04716
1419.55655,0.04940
1417.62780,0.05168
1415.69906,0.05355
1413.77031,0.05486
1411.84156,0.05567
1409.91282,0.05606
1407.98407,0.05615
1406.05533,0.05610
1404.12658,0.05610
1402.19784,0.05620
1400.26909,0.05613
1398.34035,0.05577
1396.41160,0.05522
1394.48286,0.05428
1392.55411,0.05282
1390.62537,0.05114
1388.69662,0.04930
1386.76788,0.04702
1384.83913,0.04441
1382.91039,0.04188
1380.98164,0.03965
1379.05289,0.03785
1377.12415,0.03669
1375.19540,0.03606
1373.26666,0.03583
1371.33791,0.03616
1369.40917,0.03689
1367.48042,0.03751
1365.55168,0.03784
1363.62293,0.03804
1361.69419,0.03817
1359.76544,0.03839
1357.83670,0.03878
1355.90795,0.03938
1353.97921,0.04026
1352.05046,0.04118
1350.12172,0.04167
1348.19297,0.04146
1346.26422,0.04066
1344.33548,0.03971
1342.40673,0.03899
1340.47799,0.03850
1338.54924,0.03831
1336.62050,0.03843
1334.69175,0.03873
1332.76301,0.03922
1330.83426,0.03984
1328.90552,0.04024
1326.97677,0.04018
1325.04803,0.03973
1323.11928,0.03916
1321.19054,0.03892
1319.26179,0.03915
1317.33304,0.03965
1315.40430,0.04041
1313.47555,0.04165
1311.54681,0.04334
1309.61806,0.04518
1307.68932,0.04691
1305.76057,0.04840
1303.83183,0.04982
1301.90308,0.05122
1299.97434,0.05227
1298.04559,0.05255
1296.11685,0.05204
1294.18810,0.05107
1292.25936,0.05005
1290.33061,0.04917
1288.40187,0.04824
1286.47312,0.04713
1284.54437,0.04603
1282.61563,0.04537
1280.68688,0.04571
1278.75814,0.04704
1276.82939,0.04878
1274.90065,0.05037
1272.97190,0.05148
1271.04316,0.05221
1269.11441,0.05267
1267.18567,0.05264
1265.25692,0.05215
1263.32818,0.05172
1261.39943,0.05162
1259.47069,0.05171
1257.54194,0.05172
1255.61320,0.05143
1253.68445,0.05080
1251.75570,0.04994
1249.82696,0.04908
1247.89821,0.04863
1245.96947,0.04862
1244.04072,0.04860
1242.11198,0.04839
1240.18323,0.04795
1238.25449,0.04731
1236.32574,0.04687
1234.39700,0.04707
1232.46825,0.04784
1230.53951,0.04875
1228.61076,0.04954
1226.68202,0.05035
1224.75327,0.05124
1222.82452,0.05174
1220.89578,0.05153
1218.96703,0.05080
1217.03829,0.04964
1215.10954,0.04778
1213.18080,0.04511
1211.25205,0.04199
1209.32331,0.03916
1207.39456,0.03710
1205.46582,0.03596
1203.53707,0.03566
1201.60833,0.03577
1199.67958,0.03591
1197.75084,0.03617
1195.82209,0.03656
1193.89335,0.03689
1191.96460,0.03695
1190.03585,0.03650
1188.10711,0.03574
1186.17836,0.03506
1184.24962,0.03440
1182.32087,0.03372
1180.39213,0.03346
1178.46338,0.03412
1176.53464,0.03582
1174.60589,0.03837
1172.67715,0.04166
1170.74840,0.04551
1168.81966,0.04919
1166.89091,0.05174
1164.96217,0.05259
1163.03342,0.05160
1161.10467,0.04930
1159.17593,0.04665
1157.24718,0.04424
1155.31844,0.04224
1153.38969,0.04056
1151.46095,0.03895
1149.53220,0.03747
1147.60346,0.03612
1145.67471,0.03465
1143.74597,0.03298
1141.81722,0.03117
1139.88848,0.02938
1137.95973,0.02763
1136.03099,0.02596
1134.10224,0.02464
1132.17350,0.02392
1130.24475,0.02398
1128.31600,0.02484
1126.38726,0.02629
1124.45851,0.02791
1122.52977,0.02929
1120.60102,0.03048
1118.67228,0.03187
1116.74353,0.03366
1114.81479,0.03576
1112.88604,0.03778
1110.95730,0.03903
1109.02855,0.03917
1107.09981,0.03858
1105.17106,0.03797
1103.24232,0.03758
1101.31357,0.03683
1099.38483,0.03546
1097.45608,0.03418
1095.52733,0.03339
1093.59859,0.03288
1091.66984,0.03258
1089.74110,0.03272
1087.81235,0.03366
1085.88361,0.03531
1083.95486,0.03747
1082.02612,0.04048
1080.09737,0.04435
1078.16863,0.04846
1076.23988,0.05232
1074.31114,0.05589
1072.38239,0.05964
1070.45365,0.06412
1068.52490,0.06923
1066.59615,0.07457
1064.66741,0.07967
1062.73866,0.08368
1060.80992,0.08544
1058.88117,0.08437
1056.95243,0.08124
1055.02368,0.07752
1053.09494,0.07371
1051.16619,0.06961
1049.23745,0.06565
1047.30870,0.06239
1045.37996,0.06014
1043.45121,0.05954
1041.52247,0.06124
1039.59372,0.06499
1037.66498,0.06947
1035.73623,0.07291
1033.80748,0.07429
1031.87874,0.07390
1029.94999,0.07243
1028.02125,0.07062
1026.09250,0.06924
1024.16376,0.06850
1022.23501,0.06807
1020.30627,0.06764
1018.37752,0.06729
1016.44878,0.06739
1014.52003,0.06786
1012.59129,0.06823
1010.66254,0.06819
1008.73380,0.06770
1006.80505,0.06706
1004.87631,0.06671
1002.94756,0.06688
1001.01881,0.06755
999.09007,0.06861
997.16132,0.06976
995.23258,0.07076
993.30383,0.07162
991.37509,0.07240
989.44634,0.07305
987.51760,0.07377
985.58885,0.07549
983.66011,0.07912
981.73136,0.08436
979.80262,0.09016
977.87387,0.09563
975.94513,0.10037
974.01638,0.10427
972.08763,0.10735
970.15889,0.10992
968.23014,0.11258
966.30140,0.11576
964.37265,0.11929
962.44391,0.12289
960.51516,0.12672
958.58642,0.13090
956.65767,0.13523
954.72893,0.13927
952.80018,0.14274
950.87144,0.14591
948.94269,0.14891
947.01395,0.15133
945.08520,0.15294
943.15646,0.15400
941.22771,0.15460
939.29896,0.15467
937.37022,0.15444
935.44147,0.15411
933.51273,0.15371
931.58398,0.15344
929.65524,0.15350
927.72649,0.15379
925.79775,0.15414
923.86900,0.15430
921.94026,0.15386
920.01151,0.15236
918.08277,0.14965
916.15402,0.14586
914.22528,0.14168
912.29653,0.13774
910.36779,0.13398
908.43904,0.13056
906.51029,0.12763
904.58155,0.12458
902.65280,0.12154
900.72406,0.11942
898.79531,0.11833
896.86657,0.11823
894.93782,0.11962
893.00908,0.12243
891.08033,0.12621
889.15159,0.13083
887.22284,0.13590
885.29410,0.14073
883.36535,0.14497
881.43661,0.14885
879.50786,0.15267
877.57911,0.15631
875.65037,0.15951
873.72162,0.16225
871.79288,0.16467
869.86413,0.16668
867.93539,0.16803
866.00664,0.16872
864.07790,0.16905
862.14915,0.16916
860.22041,0.16886
858.29166,0.16818
856.36292,0.16732
854.43417,0.16636
852.50543,0.16544
850.57668,0.16468
848.64794,0.16391
846.71919,0.16293
844.79044,0.16189
842.86170,0.16094
840.93295,0.16001
839.00421,0.15892
837.07546,0.15735
835.14672,0.15541
833.21797,0.15364
831.28923,0.15218
829.36048,0.15074
827.43174,0.14929
825.50299,0.14787
823.57425,0.14623
821.64550,0.14447
819.71676,0.14279
817.78801,0.14100
815.85926,0.13904
813.93052,0.13725
812.00177,0.13574
810.07303,0.13412
808.14428,0.13223
806.21554,0.13043
804.28679,0.12884
802.35805,0.12728
800.42930,0.12583
798.50056,0.12438
796.57181,0.12255
794.64307,0.12072
792.71432,0.11940
790.78558,0.11825
788.85683,0.11677
786.92809,0.11507
784.99934,0.11339
783.07059,0.11171
781.14185,0.11008
779.21310,0.10870
777.28436,0.10723
775.35561,0.10512
773.42687,0.10290
771.49812,0.10134
769.56938,0.09993
767.64063,0.09815
765.71189,0.09615
763.78314,0.09399
761.85440,0.09164
759.92565,0.08934
757.99691,0.08732
756.06816,0.08568
754.13942,0.08423
752.21067,0.08254
750.28192,0.08071
748.35318,0.07898
746.42443,0.07700
744.49569,0.07494
742.56694,0.07362
740.63820,0.07299
738.70945,0.07200
736.78071,0.07018
734.85196,0.06802
732.92322,0.06600
730.99447,0.06407
729.06573,0.06200
727.13698,0.05994
725.20824,0.05817
723.27949,0.05671
721.35074,0.05543
719.42200,0.05443
717.49325,0.05372
715.56451,0.05312
713.63576,0.05261
711.70702,0.05244
709.77827,0.05246
707.84953,0.05228
705.92078,0.05208
703.99204,0.05222
702.06329,0.05268
700.13455,0.05336
698.20580,0.05397
696.27706,0.05406
694.34831,0.05386
692.41957,0.05376
690.49082,0.05351
688.56207,0.05306
686.63333,0.05295
684.70458,0.05329
682.77584,0.05348
680.84709,0.05313
678.91835,0.05237
676.98960,0.05148
675.06086,0.05047
673.13211,0.04923
671.20337,0.04829
669.27462,0.04827
667.34588,0.04879
665.41713,0.04949
663.48839,0.05028
661.55964,0.05059
659.63090,0.05062
657.70215,0.05080
655.77340,0.05075
653.84466,0.05032
651.91591,0.04999
649.98717,0.05009
648.05842,0.05008
646.12968,0.04930
644.20093,0.04785
642.27219,0.04646
640.34344,0.04584
638.41470,0.04531
636.48595,0.04414
634.55721,0.04318
632.62846,0.04292
630.69972,0.04297
628.77097,0.04344
626.84222,0.04376
624.91348,0.04352
622.98473,0.04353
621.05599,0.04405
619.12724,0.04466
617.19850,0.04553
615.26975,0.04663
613.34101,0.04780
611.41226,0.04937
609.48352,0.05119
607.55477,0.05231
605.62603,0.05282
603.69728,0.05362
601.76854,0.05467
599.83979,0.05533
