7497.03301,0.62377
7495.10426,0.62301
7493.17552,0.62078
7491.24677,0.61569
7489.31803,0.60980
7487.38928,0.60663
7485.46054,0.60639
7483.53179,0.60725
7481.60305,0.60975
7479.67430,0.61434
7477.74556,0.61822
7475.81681,0.62017
7473.88807,0.62077
7471.95932,0.62000
7470.03057,0.61783
7468.10183,0.61574
7466.17308,0.61711
7464.24434,0.62030
7462.31559,0.62031
7460.38685,0.61888
7458.45810,0.61856
7456.52936,0.61748
7454.60061,0.61502
7452.67187,0.61232
7450.74312,0.60961
7448.81438,0.60660
7446.88563,0.60510
7444.95689,0.60723
7443.02814,0.61198
7441.09940,0.61670
7439.17065,0.61996
7437.24190,0.62169
7435.31316,0.61967
7433.38441,0.61535
7431.45567,0.61559
7429.52692,0.61756
7427.59818,0.61438
7425.66943,0.61224
7423.74069,0.61605
7421.81194,0.61793
7419.88320,0.61512
7417.95445,0.61285
7416.02571,0.61097
7414.09696,0.60871
7412.16822,0.60875
7410.23947,0.61018
7408.31073,0.60987
7406.38198,0.60879
7404.45323,0.60877
7402.52449,0.60832
7400.59574,0.60727
7398.66700,0.60841
7396.73825,0.61118
7394.80951,0.61234
7392.88076,0.61176
7390.95202,0.61148
7389.02327,0.61307
7387.09453,0.61658
7385.16578,0.61852
7383.23704,0.61669
7381.30829,0.61500
7379.37955,0.61639
7377.45080,0.61845
7375.52205,0.61769
7373.59331,0.61314
7371.66456,0.60879
7369.73582,0.60951
7367.80707,0.61289
7365.87833,0.61364
7363.94958,0.61137
7362.02084,0.60665
7360.09209,0.60134
7358.16335,0.60028
7356.23460,0.60385
7354.30586,0.60807
7352.37711,0.60988
7350.44837,0.60882
7348.51962,0.60699
7346.59088,0.60637
7344.66213,0.60811
7342.73338,0.60975
7340.80464,0.60749
7338.87589,0.60444
7336.94715,0.60591
7335.01840,0.61116
7333.08966,0.61529
7331.16091,0.61473
7329.23217,0.61077
7327.30342,0.60619
7325.37468,0.60157
7323.44593,0.59978
7321.51719,0.60242
7319.58844,0.60285
7317.65970,0.59924
7315.73095,0.59918
7313.80221,0.60310
7311.87346,0.60282
7309.94471,0.59666
7308.01597,0.59241
7306.08722,0.59327
7304.15848,0.59412
7302.22973,0.59344
7300.30099,0.59464
7298.37224,0.59781
7296.44350,0.60134
7294.51475,0.60480
7292.58601,0.60602
7290.65726,0.60666
7288.72852,0.60984
7286.79977,0.60985
7284.87103,0.60432
7282.94228,0.60177
7281.01353,0.60424
7279.08479,0.60549
7277.15604,0.60536
7275.22730,0.60532
7273.29855,0.60365
7271.36981,0.60227
7269.44106,0.60136
7267.51232,0.59925
7265.58357,0.59971
7263.65483,0.60308
7261.72608,0.60485
7259.79734,0.60713
7257.86859,0.61234
7255.93985,0.61506
7254.01110,0.61192
7252.08236,0.60645
7250.15361,0.60408
7248.22486,0.60547
7246.29612,0.60576
7244.36737,0.60452
7242.43863,0.60585
7240.50988,0.60869
7238.58114,0.61004
7236.65239,0.60951
7234.72365,0.60645
7232.79490,0.60336
7230.86616,0.60355
7228.93741,0.60236
7227.00867,0.59699
7225.07992,0.59416
7223.15118,0.59655
7221.22243,0.59904
7219.29369,0.59883
7217.36494,0.59795
7215.43619,0.59807
7213.50745,0.60012
7211.57870,0.60499
7209.64996,0.60886
7207.72121,0.60665
7205.79247,0.60203
7203.86372,0.60097
7201.93498,0.60199
7200.00623,0.60334
7198.07749,0.60704
7196.14874,0.61066
7194.22000,0.60897
7192.29125,0.60359
7190.36251,0.60075
7188.43376,0.60261
7186.50501,0.60622
7184.57627,0.60686
7182.64752,0.60380
7180.71878,0.60139
7178.79003,0.60202
7176.86129,0.60429
7174.93254,0.60577
7173.00380,0.60617
7171.07505,0.60721
7169.14631,0.60734
7167.21756,0.60606
7165.28882,0.60610
7163.36007,0.60603
7161.43133,0.60453
7159.50258,0.60365
7157.57384,0.60263
7155.64509,0.60084
7153.71634,0.60081
7151.78760,0.60224
7149.85885,0.60215
7147.93011,0.60072
7146.00136,0.59953
7144.07262,0.59874
7142.14387,0.59976
7140.21513,0.60277
7138.28638,0.60419
7136.35764,0.60252
7134.42889,0.60129
7132.50015,0.60401
7130.57140,0.60825
7128.64266,0.60787
7126.71391,0.60202
7124.78516,0.59520
7122.85642,0.59262
7120.92767,0.59575
7118.99893,0.59866
7117.07018,0.59744
7115.14144,0.59666
7113.21269,0.59861
7111.28395,0.59935
7109.35520,0.59710
7107.42646,0.59402
7105.49771,0.59216
7103.56897,0.59257
7101.64022,0.59378
7099.71148,0.59252
7097.78273,0.58940
7095.85399,0.58782
7093.92524,0.58848
7091.99649,0.58985
7090.06775,0.59084
7088.13900,0.59173
7086.21026,0.59292
7084.28151,0.59315
7082.35277,0.59230
7080.42402,0.59218
7078.49528,0.59171
7076.56653,0.59012
7074.63779,0.58998
7072.70904,0.59129
7070.78030,0.59191
7068.85155,0.59038
7066.92281,0.58528
7064.99406,0.57988
7063.06532,0.58034
7061.13657,0.58480
7059.20782,0.58657
7057.27908,0.58515
7055.35033,0.58419
7053.42159,0.58401
7051.49284,0.58156
7049.56410,0.57761
7047.63535,0.57709
7045.70661,0.58039
7043.77786,0.58282
7041.84912,0.58212
7039.92037,0.58125
7037.99163,0.58135
7036.06288,0.57995
7034.13414,0.57799
7032.20539,0.57709
7030.27664,0.57532
7028.34790,0.57333
7026.41915,0.57413
7024.49041,0.57612
7022.56166,0.57495
7020.63292,0.57098
7018.70417,0.56858
7016.77543,0.56882
7014.84668,0.56887
7012.91794,0.56709
7010.98919,0.56428
7009.06045,0.56243
7007.13170,0.56304
7005.20296,0.56539
7003.27421,0.56740
7001.34547,0.56710
6999.41672,0.56508
6997.48797,0.56361
6995.55923,0.56215
6993.63048,0.55978
6991.70174,0.55904
6989.77299,0.56084
6987.84425,0.56222
6985.91550,0.56257
6983.98676,0.56359
6982.05801,0.56457
6980.12927,0.56463
6978.20052,0.56375
6976.27178,0.56138
6974.34303,0.55885
6972.41429,0.55768
6970.48554,0.55732
6968.55680,0.55705
6966.62805,0.55590
6964.69930,0.55425
6962.77056,0.55465
6960.84181,0.55722
6958.91307,0.55882
6956.98432,0.55816
6955.05558,0.55647
6953.12683,0.55423
6951.19809,0.55234
6949.26934,0.55229
6947.34060,0.55396
6945.41185,0.55666
6943.48311,0.55865
6941.55436,0.55864
6939.62562,0.55856
6937.69687,0.55932
6935.76812,0.55873
6933.83938,0.55647
6931.91063,0.55511
6929.98189,0.55568
6928.05314,0.55796
6926.12440,0.56065
6924.19565,0.55906
6922.26691,0.55369
6920.33816,0.55113
6918.40942,0.55128
6916.48067,0.55031
6914.55193,0.54939
6912.62318,0.55083
6910.69444,0.55327
6908.76569,0.55428
6906.83695,0.55348
6904.90820,0.55108
6902.97945,0.54836
6901.05071,0.54757
6899.12196,0.54952
6897.19322,0.55340
6895.26447,0.55672
6893.33573,0.55763
6891.40698,0.55607
6889.47824,0.55250
6887.54949,0.54840
6885.62075,0.54557
6883.69200,0.54625
6881.76326,0.54919
6879.83451,0.54952
6877.90577,0.54829
6875.97702,0.54937
6874.04828,0.55071
6872.11953,0.54910
6870.19078,0.54609
6868.26204,0.54539
6866.33329,0.54651
6864.40455,0.54586
6862.47580,0.54339
6860.54706,0.54259
6858.61831,0.54513
6856.68957,0.54823
6854.76082,0.54813
6852.83208,0.54532
6850.90333,0.54413
6848.97459,0.54623
6847.04584,0.54808
6845.11710,0.54718
6843.18835,0.54539
6841.25960,0.54432
6839.33086,0.54307
6837.40211,0.54138
6835.47337,0.54010
6833.54462,0.53855
6831.61588,0.53695
6829.68713,0.53718
6827.75839,0.53829
6825.82964,0.53952
6823.90090,0.54181
6821.97215,0.54364
6820.04341,0.54376
6818.11466,0.54279
6816.18592,0.54156
6814.25717,0.54139
6812.32843,0.54129
6810.39968,0.53977
6808.47093,0.53833
6806.54219,0.53728
6804.61344,0.53560
6802.68470,0.53386
6800.75595,0.53388
6798.82721,0.53614
6796.89846,0.53775
6794.96972,0.53693
6793.04097,0.53520
6791.11223,0.53422
6789.18348,0.53462
6787.25474,0.53474
6785.32599,0.53351
6783.39725,0.53218
6781.46850,0.53140
6779.53975,0.53175
6777.61101,0.53338
6775.68226,0.53493
6773.75352,0.53537
6771.82477,0.53507
6769.89603,0.53506
6767.96728,0.53447
6766.03854,0.53214
6764.10979,0.53030
6762.18105,0.53000
6760.25230,0.52811
6758.32356,0.52444
6756.39481,0.52305
6754.46607,0.52473
6752.53732,0.52688
6750.60858,0.52753
6748.67983,0.52669
6746.75108,0.52586
6744.82234,0.52389
6742.89359,0.51989
6740.96485,0.51788
6739.03610,0.51941
6737.10736,0.52040
6735.17861,0.51996
6733.24987,0.52101
6731.32112,0.52301
6729.39238,0.52296
6727.46363,0.52145
6725.53489,0.52098
6723.60614,0.52184
6721.67740,0.52342
6719.74865,0.52538
6717.81991,0.52666
6715.89116,0.52618
6713.96241,0.52527
6712.03367,0.52559
6710.10492,0.52607
6708.17618,0.52595
6706.24743,0.52592
6704.31869,0.52679
6702.38994,0.52823
6700.46120,0.52807
6698.53245,0.52605
6696.60371,0.52536
6694.67496,0.52723
6692.74622,0.52890
6690.81747,0.52891
6688.88873,0.52830
6686.95998,0.52747
6685.03123,0.52653
6683.10249,0.52429
6681.17374,0.52048
6679.24500,0.51831
6677.31625,0.52013
6675.38751,0.52374
6673.45876,0.52487
6671.53002,0.52412
6669.60127,0.52482
6667.67253,0.52617
6665.74378,0.52638
6663.81504,0.52601
6661.88629,0.52675
6659.95755,0.52865
6658.02880,0.52897
6656.10006,0.52705
6654.17131,0.52543
6652.24256,0.52529
6650.31382,0.52615
6648.38507,0.52780
6646.45633,0.52972
6644.52758,0.53075
6642.59884,0.52952
6640.67009,0.52676
6638.74135,0.52517
6636.81260,0.52539
6634.88386,0.52688
6632.95511,0.52859
6631.02637,0.52948
6629.09762,0.53042
6627.16888,0.53141
6625.24013,0.53161
6623.31139,0.53123
6621.38264,0.53101
6619.45389,0.53133
6617.52515,0.53133
6615.59640,0.53074
6613.66766,0.52948
6611.73891,0.52738
6609.81017,0.52609
6607.88142,0.52691
6605.95268,0.52868
6604.02393,0.52923
6602.09519,0.52842
6600.16644,0.52868
6598.23770,0.53061
6596.30895,0.53197
6594.38021,0.53186
6592.45146,0.53195
6590.52271,0.53378
6588.59397,0.53581
6586.66522,0.53485
6584.73648,0.53183
6582.80773,0.53069
6580.87899,0.53256
6578.95024,0.53514
6577.02150,0.53598
6575.09275,0.53531
6573.16401,0.53468
6571.23526,0.53485
6569.30652,0.53600
6567.37777,0.53708
6565.44903,0.53636
6563.52028,0.53453
6561.59154,0.53402
6559.66279,0.53378
6557.73404,0.53252
6555.80530,0.53245
6553.87655,0.53276
6551.94781,0.53169
6550.01906,0.53141
6548.09032,0.53370
6546.16157,0.53739
6544.23283,0.53908
6542.30408,0.53711
6540.37534,0.53422
6538.44659,0.53311
6536.51785,0.53326
6534.58910,0.53377
6532.66036,0.53443
6530.73161,0.53377
6528.80287,0.53129
6526.87412,0.52941
6524.94537,0.52958
6523.01663,0.53113
6521.08788,0.53316
6519.15914,0.53507
6517.23039,0.53651
6515.30165,0.53700
6513.37290,0.53651
6511.44416,0.53575
6509.51541,0.53518
6507.58667,0.53420
6505.65792,0.53219
6503.72918,0.53060
6501.80043,0.53121
6499.87169,0.53315
6497.94294,0.53397
6496.01419,0.53212
6494.08545,0.52931
6492.15670,0.52874
6490.22796,0.52997
6488.29921,0.53113
6486.37047,0.53183
6484.44172,0.53140
6482.51298,0.53042
6480.58423,0.53027
6478.65549,0.53075
6476.72674,0.53135
6474.79800,0.53130
6472.86925,0.53111
6470.94051,0.53159
6469.01176,0.53177
6467.08302,0.53251
6465.15427,0.53430
6463.22552,0.53539
6461.29678,0.53575
6459.36803,0.53474
6457.43929,0.53155
6455.51054,0.52943
6453.58180,0.53054
6451.65305,0.53251
6449.72431,0.53285
6447.79556,0.53159
6445.86682,0.53093
6443.93807,0.53235
6442.00933,0.53424
6440.08058,0.53464
6438.15184,0.53347
6436.22309,0.53235
6434.29434,0.53299
6432.36560,0.53464
6430.43685,0.53543
6428.50811,0.53510
6426.57936,0.53458
6424.65062,0.53442
6422.72187,0.53498
6420.79313,0.53583
6418.86438,0.53590
6416.93564,0.53589
6415.00689,0.53718
6413.07815,0.53785
6411.14940,0.53570
6409.22066,0.53339
6407.29191,0.53320
6405.36317,0.53329
6403.43442,0.53315
6401.50567,0.53389
6399.57693,0.53526
6397.64818,0.53652
6395.71944,0.53734
6393.79069,0.53748
6391.86195,0.53703
6389.93320,0.53661
6388.00446,0.53658
6386.07571,0.53674
6384.14697,0.53689
6382.21822,0.53654
6380.28948,0.53621
6378.36073,0.53721
6376.43199,0.53820
6374.50324,0.53675
6372.57450,0.53393
6370.64575,0.53322
6368.71700,0.53643
6366.78826,0.54078
6364.85951,0.54200
6362.93077,0.54041
6361.00202,0.53887
6359.07328,0.53844
6357.14453,0.53820
6355.21579,0.53726
6353.28704,0.53628
6351.35830,0.53588
6349.42955,0.53612
6347.50081,0.53681
6345.57206,0.53672
6343.64332,0.53563
6341.71457,0.53515
6339.78582,0.53576
6337.85708,0.53626
6335.92833,0.53617
6333.99959,0.53536
6332.07084,0.53415
6330.14210,0.53467
6328.21335,0.53732
6326.28461,0.53932
6324.35586,0.53948
6322.42712,0.53921
6320.49837,0.53951
6318.56963,0.53959
6316.64088,0.53858
6314.71214,0.53750
6312.78339,0.53703
6310.85465,0.53673
6308.92590,0.53690
6306.99715,0.53749
6305.06841,0.53777
6303.13966,0.53788
6301.21092,0.53833
6299.28217,0.53875
6297.35343,0.53902
6295.42468,0.53983
6293.49594,0.54121
6291.56719,0.54184
6289.63845,0.54057
6287.70970,0.53883
6285.78096,0.53863
6283.85221,0.53886
6281.92347,0.53842
6279.99472,0.53845
6278.06598,0.53948
6276.13723,0.54121
6274.20848,0.54341
6272.27974,0.54506
6270.35099,0.54482
6268.42225,0.54273
6266.49350,0.54098
6264.56476,0.54181
6262.63601,0.54469
6260.70727,0.54681
6258.77852,0.54636
6256.84978,0.54468
6254.92103,0.54406
6252.99229,0.54494
6251.06354,0.54698
6249.13480,0.54928
6247.20605,0.55016
6245.27730,0.54923
6243.34856,0.54796
6241.41981,0.54812
6239.49107,0.54922
6237.56232,0.54971
6235.63358,0.55078
6233.70483,0.55320
6231.77609,0.55506
6229.84734,0.55482
6227.91860,0.55301
6225.98985,0.55148
6224.06111,0.55075
6222.13236,0.55092
6220.20362,0.55262
6218.27487,0.55424
6216.34613,0.55471
6214.41738,0.55575
6212.48863,0.55727
6210.55989,0.55718
6208.63114,0.55559
6206.70240,0.55484
6204.77365,0.55631
6202.84491,0.55863
6200.91616,0.56032
6198.98742,0.56190
6197.05867,0.56317
6195.12993,0.56350
6193.20118,0.56356
6191.27244,0.56356
6189.34369,0.56334
6187.41495,0.56346
6185.48620,0.56416
6183.55746,0.56447
6181.62871,0.56362
6179.69996,0.56308
6177.77122,0.56410
6175.84247,0.56544
6173.91373,0.56552
6171.98498,0.56482
6170.05624,0.56458
6168.12749,0.56477
6166.19875,0.56584
6164.27000,0.56794
6162.34126,0.56945
6160.41251,0.57010
6158.48377,0.57063
6156.55502,0.57038
6154.62628,0.56952
6152.69753,0.56926
6150.76878,0.56957
6148.84004,0.56994
6146.91129,0.57043
6144.98255,0.57137
6143.05380,0.57235
6141.12506,0.57202
6139.19631,0.57099
6137.26757,0.57078
6135.33882,0.57129
6133.41008,0.57189
6131.48133,0.57203
6129.55259,0.57219
6127.62384,0.57300
6125.69510,0.57331
6123.76635,0.57302
6121.83761,0.57383
6119.90886,0.57561
6117.98011,0.57633
6116.05137,0.57596
6114.12262,0.57606
6112.19388,0.57635
6110.26513,0.57566
6108.33639,0.57469
6106.40764,0.57486
6104.47890,0.57567
6102.55015,0.57566
6100.62141,0.57479
6098.69266,0.57463
6096.76392,0.57649
6094.83517,0.57901
6092.90643,0.58033
6090.97768,0.58080
6089.04893,0.58119
6087.12019,0.58143
6085.19144,0.58094
6083.26270,0.58007
6081.33395,0.57970
6079.40521,0.57957
6077.47646,0.57964
6075.54772,0.57998
6073.61897,0.58035
6071.69023,0.58041
6069.76148,0.57965
6067.83274,0.57902
6065.90399,0.57930
6063.97525,0.58020
6062.04650,0.58115
6060.11776,0.58084
6058.18901,0.58005
6056.26026,0.58138
6054.33152,0.58385
6052.40277,0.58432
6050.47403,0.58335
6048.54528,0.58392
6046.61654,0.58508
6044.68779,0.58366
6042.75905,0.58114
6040.83030,0.58122
6038.90156,0.58335
6036.97281,0.58448
6035.04407,0.58331
6033.11532,0.58149
6031.18658,0.58161
6029.25783,0.58325
6027.32909,0.58411
6025.40034,0.58374
6023.47159,0.58324
6021.54285,0.58357
6019.61410,0.58477
6017.68536,0.58617
6015.75661,0.58743
6013.82787,0.58874
6011.89912,0.58978
6009.97038,0.59014
6008.04163,0.58982
6006.11289,0.58868
6004.18414,0.58721
6002.25540,0.58633
6000.32665,0.58659
5998.39791,0.58792
5996.46916,0.58875
5994.54041,0.58823
5992.61167,0.58779
5990.68292,0.58842
5988.75418,0.58961
5986.82543,0.59034
5984.89669,0.58999
5982.96794,0.58955
5981.03920,0.58942
5979.11045,0.58849
5977.18171,0.58786
5975.25296,0.58913
5973.32422,0.59081
5971.39547,0.59093
5969.46673,0.58949
5967.53798,0.58772
5965.60924,0.58690
5963.68049,0.58737
5961.75174,0.58841
5959.82300,0.58910
5957.89425,0.58927
5955.96551,0.58991
5954.03676,0.59121
5952.10802,0.59170
5950.17927,0.59099
5948.25053,0.59008
5946.32178,0.58994
5944.39304,0.59069
5942.46429,0.59109
5940.53555,0.59043
5938.60680,0.58905
5936.67806,0.58797
5934.74931,0.58840
5932.82057,0.58968
5930.89182,0.58971
5928.96307,0.58815
5927.03433,0.58728
5925.10558,0.58786
5923.17684,0.58776
5921.24809,0.58627
5919.31935,0.58524
5917.39060,0.58569
5915.46186,0.58672
5913.53311,0.58765
5911.60437,0.58826
5909.67562,0.58807
5907.74688,0.58708
5905.81813,0.58626
5903.88939,0.58679
5901.96064,0.58842
5900.03189,0.58937
5898.10315,0.58852
5896.17440,0.58637
5894.24566,0.58436
5892.31691,0.58374
5890.38817,0.58390
5888.45942,0.58332
5886.53068,0.58186
5884.60193,0.58075
5882.67319,0.58106
5880.74444,0.58204
5878.81570,0.58192
5876.88695,0.58031
5874.95821,0.57859
5873.02946,0.57832
5871.10072,0.57894
5869.17197,0.57954
5867.24322,0.58091
5865.31448,0.58246
5863.38573,0.58284
5861.45699,0.58222
5859.52824,0.58088
5857.59950,0.57925
5855.67075,0.57806
5853.74201,0.57762
5851.81326,0.57820
5849.88452,0.57923
5847.95577,0.57983
5846.02703,0.57991
5844.09828,0.57994
5842.16954,0.58063
5840.24079,0.58188
5838.31205,0.58294
5836.38330,0.58289
5834.45455,0.58090
5832.52581,0.57827
5830.59706,0.57763
5828.66832,0.57901
5826.73957,0.58007
5824.81083,0.57987
5822.88208,0.57908
5820.95334,0.57835
5819.02459,0.57848
5817.09585,0.57959
5815.16710,0.58057
5813.23836,0.58086
5811.30961,0.58072
5809.38087,0.58057
5807.45212,0.58068
5805.52337,0.58085
5803.59463,0.58074
5801.66588,0.58052
5799.73714,0.58068
5797.80839,0.58140
5795.87965,0.58219
5793.95090,0.58217
5792.02216,0.58109
5790.09341,0.57944
5788.16467,0.57745
5786.23592,0.57556
5784.30718,0.57510
5782.37843,0.57659
5780.44969,0.57837
5778.52094,0.57823
5776.59220,0.57650
5774.66345,0.57540
5772.73470,0.57549
5770.80596,0.57609
5768.87721,0.57636
5766.94847,0.57570
5765.01972,0.57536
5763.09098,0.57615
5761.16223,0.57649
5759.23349,0.57560
5757.30474,0.57469
5755.37600,0.57455
5753.44725,0.57437
5751.51851,0.57401
5749.58976,0.57483
5747.66102,0.57595
5745.73227,0.57556
5743.80352,0.57486
5741.87478,0.57490
5739.94603,0.57538
5738.01729,0.57665
5736.08854,0.57765
5734.15980,0.57695
5732.23105,0.57585
5730.30231,0.57545
5728.37356,0.57539
5726.44482,0.57580
5724.51607,0.57602
5722.58733,0.57510
5720.65858,0.57394
5718.72984,0.57379
5716.80109,0.57438
5714.87235,0.57444
5712.94360,0.57387
5711.01485,0.57388
5709.08611,0.57488
5707.15736,0.57640
5705.22862,0.57749
5703.29987,0.57720
5701.37113,0.57596
5699.44238,0.57460
5697.51364,0.57348
5695.58489,0.57329
5693.65615,0.57424
5691.72740,0.57482
5689.79866,0.57362
5687.86991,0.57225
5685.94117,0.57280
5684.01242,0.57376
5682.08368,0.57337
5680.15493,0.57302
5678.22618,0.57350
5676.29744,0.57317
5674.36869,0.57173
5672.43995,0.57092
5670.51120,0.57122
5668.58246,0.57174
5666.65371,0.57228
5664.72497,0.57271
5662.79622,0.57282
5660.86748,0.57263
5658.93873,0.57174
5657.00999,0.57080
5655.08124,0.57101
5653.15250,0.57184
5651.22375,0.57245
5649.29500,0.57272
5647.36626,0.57240
5645.43751,0.57175
5643.50877,0.57104
5641.58002,0.57034
5639.65128,0.56997
5637.72253,0.56989
5635.79379,0.57050
5633.86504,0.57146
5631.93630,0.57096
5630.00755,0.56928
5628.07881,0.56849
5626.15006,0.56915
5624.22132,0.57037
5622.29257,0.57164
5620.36383,0.57319
5618.43508,0.57433
5616.50633,0.57392
5614.57759,0.57266
5612.64884,0.57241
5610.72010,0.57341
5608.79135,0.57392
5606.86261,0.57323
5604.93386,0.57260
5603.00512,0.57255
5601.07637,0.57232
5599.14763,0.57192
5597.21888,0.57201
5595.29014,0.57247
5593.36139,0.57258
5591.43265,0.57211
5589.50390,0.57178
5587.57516,0.57207
5585.64641,0.57228
5583.71766,0.57181
5581.78892,0.57118
5579.86017,0.57152
5577.93143,0.57259
5576.00268,0.57275
5574.07394,0.57211
5572.14519,0.57183
5570.21645,0.57146
5568.28770,0.57080
5566.35896,0.57056
5564.43021,0.57087
5562.50147,0.57095
5560.57272,0.57043
5558.64398,0.57036
5556.71523,0.57121
5554.78648,0.57186
5552.85774,0.57193
5550.92899,0.57208
5549.00025,0.57244
5547.07150,0.57291
5545.14276,0.57361
5543.21401,0.57399
5541.28527,0.57344
5539.35652,0.57258
5537.42778,0.57202
5535.49903,0.57176
5533.57029,0.57174
5531.64154,0.57182
5529.71280,0.57220
5527.78405,0.57259
5525.85531,0.57217
5523.92656,0.57122
5521.99781,0.57064
5520.06907,0.57080
5518.14032,0.57146
5516.21158,0.57219
5514.28283,0.57251
5512.35409,0.57207
5510.42534,0.57156
5508.49660,0.57151
5506.56785,0.57105
5504.63911,0.57048
5502.71036,0.57103
5500.78162,0.57178
5498.85287,0.57168
5496.92413,0.57154
5494.99538,0.57190
5493.06664,0.57233
5491.13789,0.57263
5489.20914,0.57274
5487.28040,0.57246
5485.35165,0.57200
5483.42291,0.57183
5481.49416,0.57189
5479.56542,0.57178
5477.63667,0.57136
5475.70793,0.57102
5473.77918,0.57113
5471.85044,0.57140
5469.92169,0.57124
5467.99295,0.57093
5466.06420,0.57130
5464.13546,0.57194
5462.20671,0.57203
5460.27796,0.57213
5458.34922,0.57303
5456.42047,0.57411
5454.49173,0.57453
5452.56298,0.57441
5450.63424,0.57385
5448.70549,0.57295
5446.77675,0.57212
5444.84800,0.57173
5442.91926,0.57197
5440.99051,0.57272
5439.06177,0.57356
5437.13302,0.57412
5435.20428,0.57433
5433.27553,0.57428
5431.34679,0.57401
5429.41804,0.57382
5427.48929,0.57449
5425.56055,0.57586
5423.63180,0.57660
5421.70306,0.57630
5419.77431,0.57575
5417.84557,0.57549
5415.91682,0.57553
5413.98808,0.57565
5412.05933,0.57611
5410.13059,0.57753
5408.20184,0.57922
5406.27310,0.57963
5404.34435,0.57894
5402.41561,0.57869
5400.48686,0.57873
5398.55811,0.57807
5396.62937,0.57747
5394.70062,0.57787
5392.77188,0.57890
5390.84313,0.57976
5388.91439,0.58005
5386.98564,0.57989
5385.05690,0.57977
5383.12815,0.58016
5381.19941,0.58076
5379.27066,0.58080
5377.34192,0.57994
5375.41317,0.57908
5373.48443,0.57974
5371.55568,0.58135
5369.62694,0.58173
5367.69819,0.58084
5365.76944,0.58021
5363.84070,0.58018
5361.91195,0.58056
5359.98321,0.58109
5358.05446,0.58112
5356.12572,0.58077
5354.19697,0.58095
5352.26823,0.58130
5350.33948,0.58089
5348.41074,0.58000
5346.48199,0.57956
5344.55325,0.58001
5342.62450,0.58091
5340.69576,0.58142
5338.76701,0.58107
5336.83827,0.58020
5334.90952,0.57940
5332.98077,0.57919
5331.05203,0.57987
5329.12328,0.58074
5327.19454,0.58110
5325.26579,0.58105
5323.33705,0.58040
5321.40830,0.57955
5319.47956,0.57942
5317.55081,0.57965
5315.62207,0.57985
5313.69332,0.58020
5311.76458,0.58017
5309.83583,0.57925
5307.90709,0.57797
5305.97834,0.57706
5304.04959,0.57682
5302.12085,0.57708
5300.19210,0.57712
5298.26336,0.57673
5296.33461,0.57634
5294.40587,0.57598
5292.47712,0.57590
5290.54838,0.57643
5288.61963,0.57661
5286.69089,0.57576
5284.76214,0.57485
5282.83340,0.57431
5280.90465,0.57351
5278.97591,0.57266
5277.04716,0.57253
5275.11842,0.57274
5273.18967,0.57245
5271.26092,0.57144
5269.33218,0.56983
5267.40343,0.56799
5265.47469,0.56688
5263.54594,0.56660
5261.61720,0.56606
5259.68845,0.56509
5257.75971,0.56419
5255.83096,0.56328
5253.90222,0.56220
5251.97347,0.56120
5250.04473,0.56066
5248.11598,0.56042
5246.18724,0.55994
5244.25849,0.55930
5242.32975,0.55857
5240.40100,0.55776
5238.47225,0.55726
5236.54351,0.55699
5234.61476,0.55645
5232.68602,0.55544
5230.75727,0.55433
5228.82853,0.55360
5226.89978,0.55291
5224.97104,0.55212
5223.04229,0.55172
5221.11355,0.55137
5219.18480,0.55094
5217.25606,0.55130
5215.32731,0.55185
5213.39857,0.55108
5211.46982,0.54948
5209.54107,0.54865
5207.61233,0.54869
5205.68358,0.54884
5203.75484,0.54877
5201.82609,0.54848
5199.89735,0.54831
5197.96860,0.54826
5196.03986,0.54828
5194.11111,0.54857
5192.18237,0.54839
5190.25362,0.54730
5188.32488,0.54638
5186.39613,0.54627
5184.46739,0.54679
5182.53864,0.54770
5180.60990,0.54843
5178.68115,0.54845
5176.75240,0.54795
5174.82366,0.54768
5172.89491,0.54800
5170.96617,0.54837
5169.03742,0.54858
5167.10868,0.54896
5165.17993,0.54918
5163.25119,0.54900
5161.32244,0.54883
5159.39370,0.54877
5157.46495,0.54877
5155.53621,0.54888
5153.60746,0.54901
5151.67872,0.54910
5149.74997,0.54926
5147.82123,0.54959
5145.89248,0.54983
5143.96373,0.54965
5142.03499,0.54919
5140.10624,0.54897
5138.17750,0.54948
5136.24875,0.55064
5134.32001,0.55178
5132.39126,0.55246
5130.46252,0.55285
5128.53377,0.55303
5126.60503,0.55297
5124.67628,0.55286
5122.74754,0.55276
5120.81879,0.55280
5118.89005,0.55279
5116.96130,0.55262
5115.03255,0.55328
5113.10381,0.55486
5111.17506,0.55552
5109.24632,0.55466
5107.31757,0.55410
5105.38883,0.55477
5103.46008,0.55542
5101.53134,0.55535
5099.60259,0.55505
5097.67385,0.55471
5095.74510,0.55465
5093.81636,0.55533
5091.88761,0.55638
5089.95887,0.55708
5088.03012,0.55738
5086.10138,0.55774
5084.17263,0.55810
5082.24388,0.55780
5080.31514,0.55717
5078.38639,0.55718
5076.45765,0.55743
5074.52890,0.55726
5072.60016,0.55704
5070.67141,0.55706
5068.74267,0.55712
5066.81392,0.55734
5064.88518,0.55764
5062.95643,0.55774
5061.02769,0.55805
5059.09894,0.55863
5057.17020,0.55898
5055.24145,0.55901
5053.31270,0.55906
5051.38396,0.55943
5049.45521,0.55971
5047.52647,0.55933
5045.59772,0.55879
5043.66898,0.55897
5041.74023,0.55965
5039.81149,0.55968
5037.88274,0.55870
5035.95400,0.55808
5034.02525,0.55853
5032.09651,0.55892
5030.16776,0.55884
5028.23902,0.55881
5026.31027,0.55892
5024.38153,0.55895
5022.45278,0.55865
5020.52403,0.55830
5018.59529,0.55831
5016.66654,0.55863
5014.73780,0.55885
5012.80905,0.55861
5010.88031,0.55798
5008.95156,0.55712
5007.02282,0.55647
5005.09407,0.55667
5003.16533,0.55725
5001.23658,0.55721
4999.30784,0.55647
4997.37909,0.55574
4995.45035,0.55551
4993.52160,0.55572
4991.59286,0.55601
4989.66411,0.55595
4987.73536,0.55557
4985.80662,0.55495
4983.87787,0.55385
4981.94913,0.55274
4980.02038,0.55236
4978.09164,0.55237
4976.16289,0.55196
4974.23415,0.55109
4972.30540,0.55022
4970.37666,0.54953
4968.44791,0.54908
4966.51917,0.54868
4964.59042,0.54801
4962.66168,0.54713
4960.73293,0.54611
4958.80418,0.54504
4956.87544,0.54413
4954.94669,0.54320
4953.01795,0.54229
4951.08920,0.54175
4949.16046,0.54125
4947.23171,0.54005
4945.30297,0.53815
4943.37422,0.53629
4941.44548,0.53501
4939.51673,0.53417
4937.58799,0.53341
4935.65924,0.53237
4933.73050,0.53090
4931.80175,0.52950
4929.87301,0.52863
4927.94426,0.52787
4926.01551,0.52655
4924.08677,0.52484
4922.15802,0.52310
4920.22928,0.52128
4918.30053,0.51955
4916.37179,0.51817
4914.44304,0.51685
4912.51430,0.51522
4910.58555,0.51334
4908.65681,0.51145
4906.72806,0.50947
4904.79932,0.50743
4902.87057,0.50587
4900.94183,0.50483
4899.01308,0.50348
4897.08434,0.50123
4895.15559,0.49871
4893.22684,0.49661
4891.29810,0.49503
4889.36935,0.49374
4887.44061,0.49232
4885.51186,0.49055
4883.58312,0.48856
4881.65437,0.48646
4879.72563,0.48434
4877.79688,0.48246
4875.86814,0.48085
4873.93939,0.47897
4872.01065,0.47675
4870.08190,0.47488
4868.15316,0.47348
4866.22441,0.47209
4864.29566,0.47066
4862.36692,0.46919
4860.43817,0.46732
4858.50943,0.46529
4856.58068,0.46374
4854.65194,0.46264
4852.72319,0.46155
4850.79445,0.46010
4848.86570,0.45838
4846.93696,0.45689
4845.00821,0.45560
4843.07947,0.45409
4841.15072,0.45256
4839.22198,0.45124
4837.29323,0.44976
4835.36449,0.44800
4833.43574,0.44612
4831.50699,0.44423
4829.57825,0.44281
4827.64950,0.44205
4825.72076,0.44132
4823.79201,0.43993
4821.86327,0.43822
4819.93452,0.43672
4818.00578,0.43525
4816.07703,0.43363
4814.14829,0.43223
4812.21954,0.43119
4810.29080,0.43015
4808.36205,0.42909
4806.43331,0.42839
4804.50456,0.42774
4802.57582,0.42676
4800.64707,0.42580
4798.71832,0.42511
4796.78958,0.42444
4794.86083,0.42359
4792.93209,0.42293
4791.00334,0.42278
4789.07460,0.42281
4787.14585,0.42232
4785.21711,0.42132
4783.28836,0.42054
4781.35962,0.41993
4779.43087,0.41906
4777.50213,0.41828
4775.57338,0.41814
4773.64464,0.41841
4771.71589,0.41831
4769.78714,0.41758
4767.85840,0.41676
4765.92965,0.41634
4764.00091,0.41622
4762.07216,0.41611
4760.14342,0.41594
4758.21467,0.41592
4756.28593,0.41591
4754.35718,0.41546
4752.42844,0.41475
4750.49969,0.41450
4748.57095,0.41498
4746.64220,0.41569
4744.71346,0.41594
4742.78471,0.41587
4740.85597,0.41600
4738.92722,0.41637
4736.99847,0.41703
4735.06973,0.41793
4733.14098,0.41866
4731.21224,0.41917
4729.28349,0.41966
4727.35475,0.42017
4725.42600,0.42070
4723.49726,0.42125
4721.56851,0.42202
4719.63977,0.42295
4717.71102,0.42349
4715.78228,0.42374
4713.85353,0.42444
4711.92479,0.42573
4709.99604,0.42701
4708.06729,0.42775
4706.13855,0.42813
4704.20980,0.42861
4702.28106,0.42940
4700.35231,0.43033
4698.42357,0.43113
4696.49482,0.43161
4694.56608,0.43207
4692.63733,0.43288
4690.70859,0.43382
4688.77984,0.43480
4686.85110,0.43613
4684.92235,0.43769
4682.99361,0.43888
4681.06486,0.43970
4679.13612,0.44061
4677.20737,0.44161
4675.27862,0.44243
4673.34988,0.44307
4671.42113,0.44382
4669.49239,0.44457
4667.56364,0.44489
4665.63490,0.44525
4663.70615,0.44625
4661.77741,0.44740
4659.84866,0.44823
4657.91992,0.44892
4655.99117,0.44951
4654.06243,0.45011
4652.13368,0.45099
4650.20494,0.45195
4648.27619,0.45274
4646.34745,0.45357
4644.41870,0.45461
4642.48995,0.45547
4640.56121,0.45606
4638.63246,0.45677
4636.70372,0.45744
4634.77497,0.45793
4632.84623,0.45863
4630.91748,0.45960
4628.98874,0.46041
4627.05999,0.46094
4625.13125,0.46139
4623.20250,0.46188
4621.27376,0.46250
4619.34501,0.46323
4617.41627,0.46393
4615.48752,0.46481
4613.55877,0.46594
4611.63003,0.46690
4609.70128,0.46741
4607.77254,0.46766
4605.84379,0.46805
4603.91505,0.46890
4601.98630,0.47007
4600.05756,0.47094
4598.12881,0.47129
4596.20007,0.47154
4594.27132,0.47216
4592.34258,0.47300
4590.41383,0.47370
4588.48509,0.47439
4586.55634,0.47539
4584.62760,0.47660
4582.69885,0.47765
4580.77010,0.47863
4578.84136,0.47970
4576.91261,0.48069
4574.98387,0.48137
4573.05512,0.48182
4571.12638,0.48239
4569.19763,0.48305
4567.26889,0.48346
4565.34014,0.48379
4563.41140,0.48432
4561.48265,0.48508
4559.55391,0.48593
4557.62516,0.48670
4555.69642,0.48744
4553.76767,0.48812
4551.83893,0.48877
4549.91018,0.48954
4547.98143,0.49032
4546.05269,0.49079
4544.12394,0.49111
4542.19520,0.49146
4540.26645,0.49173
4538.33771,0.49214
4536.40896,0.49261
4534.48022,0.49291
4532.55147,0.49348
4530.62273,0.49433
4528.69398,0.49500
4526.76524,0.49552
4524.83649,0.49605
4522.90775,0.49659
4520.97900,0.49695
4519.05025,0.49689
4517.12151,0.49665
4515.19276,0.49664
4513.26402,0.49688
4511.33527,0.49735
4509.40653,0.49795
4507.47778,0.49844
4505.54904,0.49869
4503.62029,0.49868
4501.69155,0.49851
4499.76280,0.49835
4497.83406,0.49837
4495.90531,0.49869
4493.97657,0.49913
4492.04782,0.49963
4490.11908,0.50003
4488.19033,0.50005
4486.26158,0.50011
4484.33284,0.50033
4482.40409,0.50026
4480.47535,0.49996
4478.54660,0.49972
4476.61786,0.49960
4474.68911,0.49949
4472.76037,0.49911
4470.83162,0.49868
4468.90288,0.49851
4466.97413,0.49819
4465.04539,0.49752
4463.11664,0.49675
4461.18790,0.49586
4459.25915,0.49466
4457.33041,0.49339
4455.40166,0.49245
4453.47291,0.49146
4451.54417,0.48966
4449.61542,0.48730
4447.68668,0.48500
4445.75793,0.48304
4443.82919,0.48158
4441.90044,0.48008
4439.97170,0.47780
4438.04295,0.47523
4436.11421,0.47318
4434.18546,0.47119
4432.25672,0.46841
4430.32797,0.46498
4428.39923,0.46167
4426.47048,0.45867
4424.54173,0.45554
4422.61299,0.45240
4420.68424,0.44965
4418.75550,0.44706
4416.82675,0.44406
4414.89801,0.44072
4412.96926,0.43751
4411.04052,0.43470
4409.11177,0.43233
4407.18303,0.43024
4405.25428,0.42828
4403.32554,0.42656
4401.39679,0.42518
4399.46805,0.42415
4397.53930,0.42345
4395.61056,0.42305
4393.68181,0.42329
4391.75306,0.42425
4389.82432,0.42553
4387.89557,0.42693
4385.96683,0.42822
4384.03808,0.42927
4382.10934,0.43014
4380.18059,0.43097
4378.25185,0.43196
4376.32310,0.43311
4374.39436,0.43404
4372.46561,0.43470
4370.53687,0.43537
4368.60812,0.43622
4366.67938,0.43737
4364.75063,0.43862
4362.82189,0.43921
4360.89314,0.43889
4358.96439,0.43828
4357.03565,0.43775
4355.10690,0.43715
4353.17816,0.43651
4351.24941,0.43587
4349.32067,0.43513
4347.39192,0.43442
4345.46318,0.43352
4343.53443,0.43221
4341.60569,0.43109
4339.67694,0.43042
4337.74820,0.42973
4335.81945,0.42880
4333.89071,0.42775
4331.96196,0.42659
4330.03321,0.42532
4328.10447,0.42390
4326.17572,0.42208
4324.24698,0.42006
4322.31823,0.41852
4320.38949,0.41768
4318.46074,0.41717
4316.53200,0.41690
4314.60325,0.41655
4312.67451,0.41561
4310.74576,0.41448
4308.81702,0.41361
4306.88827,0.41261
4304.95953,0.41134
4303.03078,0.41010
4301.10204,0.40893
4299.17329,0.40777
4297.24454,0.40683
4295.31580,0.40612
4293.38705,0.40527
4291.45831,0.40405
4289.52956,0.40262
4287.60082,0.40146
4285.67207,0.40081
4283.74333,0.40040
4281.81458,0.40016
4279.88584,0.40009
4277.95709,0.39980
4276.02835,0.39917
4274.09960,0.39866
4272.17086,0.39857
4270.24211,0.39875
4268.31336,0.39892
4266.38462,0.39913
4264.45587,0.39945
4262.52713,0.39966
4260.59838,0.39967
4258.66964,0.39984
4256.74089,0.40039
4254.81215,0.40101
4252.88340,0.40139
4250.95466,0.40158
4249.02591,0.40176
4247.09717,0.40192
4245.16842,0.40210
4243.23968,0.40239
4241.31093,0.40266
4239.38219,0.40299
4237.45344,0.40361
4235.52469,0.40439
4233.59595,0.40499
4231.66720,0.40531
4229.73846,0.40558
4227.80971,0.40601
4225.88097,0.40642
4223.95222,0.40655
4222.02348,0.40652
4220.09473,0.40658
4218.16599,0.40673
4216.23724,0.40694
4214.30850,0.40718
4212.37975,0.40744
4210.45101,0.40794
4208.52226,0.40882
4206.59352,0.40979
4204.66477,0.41080
4202.73602,0.41193
4200.80728,0.41303
4198.87853,0.41384
4196.94979,0.41432
4195.02104,0.41462
4193.09230,0.41481
4191.16355,0.41499
4189.23481,0.41528
4187.30606,0.41542
4185.37732,0.41524
4183.44857,0.41500
4181.51983,0.41482
4179.59108,0.41478
4177.66234,0.41508
4175.73359,0.41570
4173.80484,0.41658
4171.87610,0.41763
4169.94735,0.41852
4168.01861,0.41914
4166.08986,0.41966
4164.16112,0.42017
4162.23237,0.42053
4160.30363,0.42063
4158.37488,0.42056
4156.44614,0.42039
4154.51739,0.42007
4152.58865,0.41971
4150.65990,0.41932
4148.73116,0.41866
4146.80241,0.41780
4144.87367,0.41723
4142.94492,0.41701
4141.01617,0.41689
4139.08743,0.41672
4137.15868,0.41643
4135.22994,0.41599
4133.30119,0.41550
4131.37245,0.41514
4129.44370,0.41486
4127.51496,0.41427
4125.58621,0.41307
4123.65747,0.41147
4121.72872,0.41010
4119.79998,0.40903
4117.87123,0.40790
4115.94249,0.40668
4114.01374,0.40537
4112.08500,0.40374
4110.15625,0.40187
4108.22750,0.40004
4106.29876,0.39810
4104.37001,0.39582
4102.44127,0.39343
4100.51252,0.39112
4098.58378,0.38877
4096.65503,0.38648
4094.72629,0.38442
4092.79754,0.38239
4090.86880,0.38010
4088.94005,0.37759
4087.01131,0.37521
4085.08256,0.37312
4083.15382,0.37106
4081.22507,0.36902
4079.29632,0.36701
4077.36758,0.36490
4075.43883,0.36291
4073.51009,0.36110
4071.58134,0.35887
4069.65260,0.35638
4067.72385,0.35418
4065.79511,0.35191
4063.86636,0.34923
4061.93762,0.34648
4060.00887,0.34388
4058.08013,0.34133
4056.15138,0.33859
4054.22264,0.33561
4052.29389,0.33270
4050.36515,0.33009
4048.43640,0.32761
4046.50765,0.32515
4044.57891,0.32289
4042.65016,0.32097
4040.72142,0.31921
4038.79267,0.31745
4036.86393,0.31580
4034.93518,0.31443
4033.00644,0.31340
4031.07769,0.31264
4029.14895,0.31197
4027.22020,0.31124
4025.29146,0.31069
4023.36271,0.31070
4021.43397,0.31102
4019.50522,0.31117
4017.57648,0.31121
4015.64773,0.31140
4013.71898,0.31199
4011.79024,0.31292
4009.86149,0.31385
4007.93275,0.31465
4006.00400,0.31551
4004.07526,0.31666
4002.14651,0.31797
4000.21777,0.31911
3998.28902,0.32025
3996.36028,0.32152
3994.43153,0.32262
3992.50279,0.32353
3990.57404,0.32457
3988.64530,0.32577
3986.71655,0.32688
3984.78780,0.32759
3982.85906,0.32804
3980.93031,0.32870
3979.00157,0.32970
3977.07282,0.33076
3975.14408,0.33159
3973.21533,0.33205
3971.28659,0.33250
3969.35784,0.33324
3967.42910,0.33411
3965.50035,0.33506
3963.57161,0.33615
3961.64286,0.33724
3959.71412,0.33827
3957.78537,0.33920
3955.85663,0.34015
3953.92788,0.34110
3951.99913,0.34196
3950.07039,0.34285
3948.14164,0.34381
3946.21290,0.34480
3944.28415,0.34589
3942.35541,0.34715
3940.42666,0.34842
3938.49792,0.34947
3936.56917,0.35031
3934.64043,0.35126
3932.71168,0.35248
3930.78294,0.35379
3928.85419,0.35506
3926.92545,0.35642
3924.99670,0.35771
3923.06795,0.35858
3921.13921,0.35932
3919.21046,0.36042
3917.28172,0.36158
3915.35297,0.36245
3913.42423,0.36302
3911.49548,0.36347
3909.56674,0.36412
3907.63799,0.36499
3905.70925,0.36581
3903.78050,0.36653
3901.85176,0.36714
3899.92301,0.36770
3897.99427,0.36842
3896.06552,0.36932
3894.13678,0.37025
3892.20803,0.37117
3890.27928,0.37187
3888.35054,0.37237
3886.42179,0.37305
3884.49305,0.37365
3882.56430,0.37402
3880.63556,0.37445
3878.70681,0.37491
3876.77807,0.37529
3874.84932,0.37588
3872.92058,0.37678
3870.99183,0.37772
3869.06309,0.37870
3867.13434,0.38001
3865.20560,0.38154
3863.27685,0.38328
3861.34811,0.38520
3859.41936,0.38692
3857.49061,0.38828
3855.56187,0.38940
3853.63312,0.39045
3851.70438,0.39161
3849.77563,0.39278
3847.84689,0.39386
3845.91814,0.39495
3843.98940,0.39615
3842.06065,0.39731
3840.13191,0.39834
3838.20316,0.39922
3836.27442,0.40003
3834.34567,0.40092
3832.41693,0.40168
3830.48818,0.40194
3828.55943,0.40184
3826.63069,0.40184
3824.70194,0.40218
3822.77320,0.40260
3820.84445,0.40274
3818.91571,0.40274
3816.98696,0.40273
3815.05822,0.40279
3813.12947,0.40304
3811.20073,0.40334
3809.27198,0.40343
3807.34324,0.40329
3805.41449,0.40310
3803.48575,0.40314
3801.55700,0.40354
3799.62826,0.40418
3797.69951,0.40493
3795.77076,0.40564
3793.84202,0.40624
3791.91327,0.40685
3789.98453,0.40730
3788.05578,0.40740
3786.12704,0.40741
3784.19829,0.40748
3782.26955,0.40736
3780.34080,0.40709
3778.41206,0.40688
3776.48331,0.40684
3774.55457,0.40697
3772.62582,0.40716
3770.69708,0.40729
3768.76833,0.40720
3766.83959,0.40707
3764.91084,0.40710
3762.98209,0.40707
3761.05335,0.40687
3759.12460,0.40662
3757.19586,0.40631
3755.26711,0.40593
3753.33837,0.40567
3751.40962,0.40568
3749.48088,0.40557
3747.55213,0.40498
3745.62339,0.40403
3743.69464,0.40314
3741.76590,0.40272
3739.83715,0.40248
3737.90841,0.40187
3735.97966,0.40084
3734.05091,0.39975
3732.12217,0.39877
3730.19342,0.39805
3728.26468,0.39752
3726.33593,0.39681
3724.40719,0.39568
3722.47844,0.39433
3720.54970,0.39289
3718.62095,0.39133
3716.69221,0.38973
3714.76346,0.38824
3712.83472,0.38695
3710.90597,0.38558
3708.97723,0.38383
3707.04848,0.38184
3705.11974,0.37975
3703.19099,0.37758
3701.26224,0.37552
3699.33350,0.37365
3697.40475,0.37158
3695.47601,0.36903
3693.54726,0.36632
3691.61852,0.36379
3689.68977,0.36123
3687.76103,0.35829
3685.83228,0.35508
3683.90354,0.35169
3681.97479,0.34817
3680.04605,0.34456
3678.11730,0.34083
3676.18856,0.33690
3674.25981,0.33283
3672.33107,0.32864
3670.40232,0.32416
3668.47357,0.31946
3666.54483,0.31487
3664.61608,0.31035
3662.68734,0.30568
3660.75859,0.30074
3658.82985,0.29572
3656.90110,0.29055
3654.97236,0.28518
3653.04361,0.27988
3651.11487,0.27467
3649.18612,0.26936
3647.25738,0.26414
3645.32863,0.25915
3643.39989,0.25407
3641.47114,0.24882
3639.54239,0.24371
3637.61365,0.23881
3635.68490,0.23390
3633.75616,0.22886
3631.82741,0.22385
3629.89867,0.21872
3627.96992,0.21318
3626.04118,0.20770
3624.11243,0.20244
3622.18369,0.19694
3620.25494,0.19103
3618.32620,0.18514
3616.39745,0.17983
3614.46871,0.17496
3612.53996,0.17002
3610.61122,0.16480
3608.68247,0.15949
3606.75372,0.15445
3604.82498,0.14979
3602.89623,0.14532
3600.96749,0.14100
3599.03874,0.13687
3597.11000,0.13267
3595.18125,0.12831
3593.25251,0.12426
3591.32376,0.12070
3589.39502,0.11723
3587.46627,0.11355
3585.53753,0.10982
3583.60878,0.10628
3581.68004,0.10307
3579.75129,0.10024
3577.82254,0.09765
3575.89380,0.09516
3573.96505,0.09260
3572.03631,0.08994
3570.10756,0.08738
3568.17882,0.08503
3566.25007,0.08274
3564.32133,0.08030
3562.39258,0.07777
3560.46384,0.07558
3558.53509,0.07386
3556.60635,0.07229
3554.67760,0.07056
3552.74886,0.06859
3550.82011,0.06677
3548.89137,0.06525
3546.96262,0.06359
3545.03387,0.06180
3543.10513,0.06033
3541.17638,0.05905
3539.24764,0.05758
3537.31889,0.05603
3535.39015,0.05465
3533.46140,0.05354
3531.53266,0.05256
3529.60391,0.05155
3527.67517,0.05050
3525.74642,0.04927
3523.81768,0.04799
3521.88893,0.04708
3519.96019,0.04635
3518.03144,0.04534
3516.10270,0.04405
3514.17395,0.04274
3512.24520,0.04171
3510.31646,0.04100
3508.38771,0.04035
3506.45897,0.03977
3504.53022,0.03920
3502.60148,0.03848
3500.67273,0.03785
3498.74399,0.03735
3496.81524,0.03663
3494.88650,0.03584
3492.95775,0.03541
3491.02901,0.03525
3489.10026,0.03496
3487.17152,0.03448
3485.24277,0.03414
3483.31402,0.03403
3481.38528,0.03366
3479.45653,0.03295
3477.52779,0.03248
3475.59904,0.03235
3473.67030,0.03222
3471.74155,0.03203
3469.81281,0.03186
3467.88406,0.03162
3465.95532,0.03130
3464.02657,0.03100
3462.09783,0.03067
3460.16908,0.03042
3458.24034,0.03046
3456.31159,0.03060
3454.38285,0.03053
3452.45410,0.03043
3450.52535,0.03037
3448.59661,0.03019
3446.66786,0.03026
3444.73912,0.03064
3442.81037,0.03068
3440.88163,0.03020
3438.95288,0.02969
3437.02414,0.02952
3435.09539,0.02966
3433.16665,0.02978
3431.23790,0.02976
3429.30916,0.02973
3427.38041,0.02979
3425.45167,0.02985
3423.52292,0.02982
3421.59418,0.02971
3419.66543,0.02954
3417.73668,0.02948
3415.80794,0.02967
3413.87919,0.02987
3411.95045,0.02988
3410.02170,0.02972
3408.09296,0.02963
3406.16421,0.02978
3404.23547,0.02988
3402.30672,0.02967
3400.37798,0.02941
3398.44923,0.02945
3396.52049,0.02967
3394.59174,0.02988
3392.66300,0.03020
3390.73425,0.03034
3388.80550,0.03006
3386.87676,0.02996
3384.94801,0.03036
3383.01927,0.03080
3381.09052,0.03095
3379.16178,0.03089
3377.23303,0.03073
3375.30429,0.03069
3373.37554,0.03103
3371.44680,0.03167
3369.51805,0.03214
3367.58931,0.03224
3365.66056,0.03228
3363.73182,0.03260
3361.80307,0.03302
3359.87433,0.03330
3357.94558,0.03352
3356.01683,0.03381
3354.08809,0.03413
3352.15934,0.03455
3350.23060,0.03508
3348.30185,0.03567
3346.37311,0.03625
3344.44436,0.03659
3342.51562,0.03673
3340.58687,0.03702
3338.65813,0.03764
3336.72938,0.03849
3334.80064,0.03931
3332.87189,0.03992
3330.94315,0.04026
3329.01440,0.04018
3327.08566,0.03982
3325.15691,0.03952
3323.22816,0.03934
3321.29942,0.03937
3319.37067,0.03944
3317.44193,0.03908
3315.51318,0.03853
3313.58444,0.03824
3311.65569,0.03838
3309.72695,0.03889
3307.79820,0.03934
3305.86946,0.03928
3303.94071,0.03899
3302.01197,0.03907
3300.08322,0.03944
3298.15448,0.03986
3296.22573,0.04026
3294.29698,0.04057
3292.36824,0.04074
3290.43949,0.04084
3288.51075,0.04085
3286.58200,0.04085
3284.65326,0.04106
3282.72451,0.04139
3280.79577,0.04164
3278.86702,0.04174
3276.93828,0.04177
3275.00953,0.04198
3273.08079,0.04249
3271.15204,0.04310
3269.22330,0.04372
3267.29455,0.04445
3265.36581,0.04517
3263.43706,0.04556
3261.50831,0.04572
3259.57957,0.04609
3257.65082,0.04676
3255.72208,0.04736
3253.79333,0.04774
3251.86459,0.04803
3249.93584,0.04825
3248.00710,0.04837
3246.07835,0.04863
3244.14961,0.04924
3242.22086,0.04988
3240.29212,0.05015
3238.36337,0.05028
3236.43463,0.05063
3234.50588,0.05123
3232.57713,0.05193
3230.64839,0.05250
3228.71964,0.05298
3226.79090,0.05365
3224.86215,0.05449
3222.93341,0.05524
3221.00466,0.05577
3219.07592,0.05620
3217.14717,0.05669
3215.21843,0.05724
3213.28968,0.05794
3211.36094,0.05884
3209.43219,0.05986
3207.50345,0.06093
3205.57470,0.06183
3203.64596,0.06240
3201.71721,0.06282
3199.78846,0.06332
3197.85972,0.06389
3195.93097,0.06442
3194.00223,0.06516
3192.07348,0.06631
3190.14474,0.06757
3188.21599,0.06854
3186.28725,0.06913
3184.35850,0.06964
3182.42976,0.07041
3180.50101,0.07136
3178.57227,0.07236
3176.64352,0.07347
3174.71478,0.07455
3172.78603,0.07551
3170.85729,0.07646
3168.92854,0.07744
3166.99979,0.07846
3165.07105,0.07945
3163.14230,0.08045
3161.21356,0.08160
3159.28481,0.08277
3157.35607,0.08378
3155.42732,0.08458
3153.49858,0.08521
3151.56983,0.08608
3149.64109,0.08745
3147.71234,0.08898
3145.78360,0.09025
3143.85485,0.09123
3141.92611,0.09214
3139.99736,0.09307
3138.06861,0.09408
3136.13987,0.09517
3134.21112,0.09626
3132.28238,0.09742
3130.35363,0.09862
3128.42489,0.09971
3126.49614,0.10076
3124.56740,0.10194
3122.63865,0.10321
3120.70991,0.10429
3118.78116,0.10516
3116.85242,0.10609
3114.92367,0.10734
3112.99493,0.10880
3111.06618,0.11011
3109.13744,0.11134
3107.20869,0.11281
3105.27994,0.11425
3103.35120,0.11540
3101.42245,0.11645
3099.49371,0.11767
3097.56496,0.11905
3095.63622,0.12038
3093.70747,0.12153
3091.77873,0.12262
3089.84998,0.12383
3087.92124,0.12515
3085.99249,0.12655
3084.06375,0.12802
3082.13500,0.12943
3080.20626,0.13065
3078.27751,0.13171
3076.34877,0.13273
3074.42002,0.13377
3072.49127,0.13484
3070.56253,0.13609
3068.63378,0.13748
3066.70504,0.13870
3064.77629,0.13974
3062.84755,0.14073
3060.91880,0.14160
3058.99006,0.14243
3057.06131,0.14347
3055.13257,0.14470
3053.20382,0.14587
3051.27508,0.14693
3049.34633,0.14799
3047.41759,0.14901
3045.48884,0.14989
3043.56009,0.15066
3041.63135,0.15128
3039.70260,0.15190
3037.77386,0.15272
3035.84511,0.15351
3033.91637,0.15426
3031.98762,0.15517
3030.05888,0.15603
3028.13013,0.15682
3026.20139,0.15767
3024.27264,0.15833
3022.34390,0.15870
3020.41515,0.15900
3018.48641,0.15938
3016.55766,0.15988
3014.62892,0.16039
3012.70017,0.16084
3010.77142,0.16126
3008.84268,0.16152
3006.91393,0.16139
3004.98519,0.16095
3003.05644,0.16045
3001.12770,0.15987
2999.19895,0.15902
2997.27021,0.15781
2995.34146,0.15628
2993.41272,0.15435
2991.48397,0.15204
2989.55523,0.14946
2987.62648,0.14658
2985.69774,0.14320
2983.76899,0.13923
2981.84025,0.13474
2979.91150,0.12953
2977.98275,0.12325
2976.05401,0.11611
2974.12526,0.10887
2972.19652,0.10220
2970.26777,0.09666
2968.33903,0.09293
2966.41028,0.09127
2964.48154,0.09102
2962.55279,0.09103
2960.62405,0.09056
2958.69530,0.08939
2956.76656,0.08760
2954.83781,0.08549
2952.90907,0.08325
2950.98032,0.08088
2949.05157,0.07861
2947.12283,0.07659
2945.19408,0.07494
2943.26534,0.07402
2941.33659,0.07380
2939.40785,0.07377
2937.47910,0.07357
2935.55036,0.07319
2933.62161,0.07262
2931.69287,0.07174
2929.76412,0.07042
2927.83538,0.06884
2925.90663,0.06738
2923.97789,0.06605
2922.04914,0.06455
2920.12040,0.06283
2918.19165,0.06116
2916.26290,0.05973
2914.33416,0.05856
2912.40541,0.05757
2910.47667,0.05676
2908.54792,0.05615
2906.61918,0.05562
2904.69043,0.05507
2902.76169,0.05463
2900.83294,0.05473
2898.90420,0.05549
2896.97545,0.05633
2895.04671,0.05693
2893.11796,0.05763
2891.18922,0.05862
2889.26047,0.05965
2887.33172,0.06063
2885.40298,0.06166
2883.47423,0.06273
2881.54549,0.06365
2879.61674,0.06423
2877.68800,0.06450
2875.75925,0.06465
2873.83051,0.06477
2871.90176,0.06506
2869.97302,0.06561
2868.04427,0.06626
2866.11553,0.06688
2864.18678,0.06743
2862.25804,0.06800
2860.32929,0.06864
2858.40055,0.06954
2856.47180,0.07079
2854.54305,0.07201
2852.61431,0.07302
2850.68556,0.07427
2848.75682,0.07631
2846.82807,0.07915
2844.89933,0.08215
2842.97058,0.08491
2841.04184,0.08759
2839.11309,0.09033
2837.18435,0.09303
2835.25560,0.09560
2833.32686,0.09805
2831.39811,0.10029
2829.46937,0.10223
2827.54062,0.10397
2825.61188,0.10572
2823.68313,0.10766
2821.75438,0.10978
2819.82564,0.11199
2817.89689,0.11435
2815.96815,0.11684
2814.03940,0.11913
2812.11066,0.12104
2810.18191,0.12285
2808.25317,0.12465
2806.32442,0.12631
2804.39568,0.12805
2802.46693,0.13002
2800.53819,0.13189
2798.60944,0.13338
2796.68070,0.13455
2794.75195,0.13549
2792.82320,0.13628
2790.89446,0.13707
2788.96571,0.13772
2787.03697,0.13806
2785.10822,0.13821
2783.17948,0.13848
2781.25073,0.13903
2779.32199,0.13974
2777.39324,0.14023
2775.46450,0.14033
2773.53575,0.14038
2771.60701,0.14062
2769.67826,0.14091
2767.74952,0.14122
2765.82077,0.14151
2763.89203,0.14168
2761.96328,0.14188
2760.03453,0.14224
2758.10579,0.14261
2756.17704,0.14288
2754.24830,0.14300
2752.31955,0.14296
2750.39081,0.14282
2748.46206,0.14260
2746.53332,0.14230
2744.60457,0.14210
2742.67583,0.14205
2740.74708,0.14195
2738.81834,0.14185
2736.88959,0.14189
2734.96085,0.14198
2733.03210,0.14223
2731.10336,0.14273
2729.17461,0.14330
2727.24586,0.14373
2725.31712,0.14407
2723.38837,0.14450
2721.45963,0.14505
2719.53088,0.14563
2717.60214,0.14634
2715.67339,0.14723
2713.74465,0.14817
2711.81590,0.14913
2709.88716,0.15016
2707.95841,0.15130
2706.02967,0.15262
2704.10092,0.15404
2702.17218,0.15546
2700.24343,0.15700
2698.31468,0.15872
2696.38594,0.16027
2694.45719,0.16158
2692.52845,0.16303
2690.59970,0.16456
2688.67096,0.16599
2686.74221,0.16737
2684.81347,0.16866
2682.88472,0.16995
2680.95598,0.17136
2679.02723,0.17274
2677.09849,0.17383
2675.16974,0.17473
2673.24100,0.17558
2671.31225,0.17630
2669.38351,0.17686
2667.45476,0.17730
2665.52601,0.17770
2663.59727,0.17808
2661.66852,0.17852
2659.73978,0.17911
2657.81103,0.17985
2655.88229,0.18065
2653.95354,0.18147
2652.02480,0.18227
2650.09605,0.18301
2648.16731,0.18388
2646.23856,0.18503
2644.30982,0.18620
2642.38107,0.18718
2640.45233,0.18804
2638.52358,0.18889
2636.59484,0.18963
2634.66609,0.19025
2632.73734,0.19096
2630.80860,0.19188
2628.87985,0.19282
2626.95111,0.19351
2625.02236,0.19408
2623.09362,0.19490
2621.16487,0.19585
2619.23613,0.19653
2617.30738,0.19700
2615.37864,0.19763
2613.44989,0.19850
2611.52115,0.19933
2609.59240,0.19989
2607.66366,0.20032
2605.73491,0.20088
2603.80616,0.20165
2601.87742,0.20243
2599.94867,0.20307
2598.01993,0.20375
2596.09118,0.20448
2594.16244,0.20512
2592.23369,0.20570
2590.30495,0.20621
2588.37620,0.20651
2586.44746,0.20669
2584.51871,0.20695
2582.58997,0.20723
2580.66122,0.20753
2578.73248,0.20779
2576.80373,0.20779
2574.87499,0.20761
2572.94624,0.20736
2571.01749,0.20700
2569.08875,0.20667
2567.16000,0.20638
2565.23126,0.20603
2563.30251,0.20573
2561.37377,0.20533
2559.44502,0.20472
2557.51628,0.20426
2555.58753,0.20415
2553.65879,0.20400
2551.73004,0.20351
2549.80130,0.20284
2547.87255,0.20228
2545.94381,0.20191
2544.01506,0.20164
2542.08631,0.20139
2540.15757,0.20118
2538.22882,0.20121
2536.30008,0.20145
2534.37133,0.20173
2532.44259,0.20217
2530.51384,0.20275
2528.58510,0.20325
2526.65635,0.20363
2524.72761,0.20395
2522.79886,0.20422
2520.87012,0.20447
2518.94137,0.20476
2517.01263,0.20513
2515.08388,0.20565
2513.15514,0.20648
2511.22639,0.20764
2509.29764,0.20901
2507.36890,0.21061
2505.44015,0.21252
2503.51141,0.21455
2501.58266,0.21631
2499.65392,0.21770
2497.72517,0.21899
2495.79643,0.22044
2493.86768,0.22198
2491.93894,0.22336
2490.01019,0.22451
2488.08145,0.22554
2486.15270,0.22657
2484.22396,0.22773
2482.29521,0.22892
2480.36647,0.22994
2478.43772,0.23092
2476.50897,0.23204
2474.58023,0.23315
2472.65148,0.23419
2470.72274,0.23515
2468.79399,0.23595
2466.86525,0.23655
2464.93650,0.23703
2463.00776,0.23742
2461.07901,0.23786
2459.15027,0.23846
2457.22152,0.23902
2455.29278,0.23945
2453.36403,0.24000
2451.43529,0.24090
2449.50654,0.24206
2447.57779,0.24315
2445.64905,0.24396
2443.72030,0.24484
2441.79156,0.24607
2439.86281,0.24743
2437.93407,0.24866
2436.00532,0.24983
2434.07658,0.25108
2432.14783,0.25249
2430.21909,0.25403
2428.29034,0.25548
2426.36160,0.25678
2424.43285,0.25808
2422.50411,0.25941
2420.57536,0.26066
2418.64662,0.26181
2416.71787,0.26298
2414.78912,0.26419
2412.86038,0.26529
2410.93163,0.26623
2409.00289,0.26711
2407.07414,0.26792
2405.14540,0.26872
2403.21665,0.26967
2401.28791,0.27074
2399.35916,0.27185
2397.43042,0.27292
2395.50167,0.27390
2393.57293,0.27481
2391.64418,0.27575
2389.71544,0.27682
2387.78669,0.27793
2385.85795,0.27897
2383.92920,0.28002
2382.00045,0.28122
2380.07171,0.28245
2378.14296,0.28360
2376.21422,0.28476
2374.28547,0.28595
2372.35673,0.28700
2370.42798,0.28801
2368.49924,0.28920
2366.57049,0.29049
2364.64175,0.29169
2362.71300,0.29264
2360.78426,0.29329
2358.85551,0.29386
2356.92677,0.29452
2354.99802,0.29524
2353.06927,0.29611
2351.14053,0.29722
2349.21178,0.29835
2347.28304,0.29937
2345.35429,0.30030
2343.42555,0.30119
2341.49680,0.30217
2339.56806,0.30329
2337.63931,0.30433
2335.71057,0.30512
2333.78182,0.30567
2331.85308,0.30618
2329.92433,0.30685
2327.99559,0.30766
2326.06684,0.30853
2324.13810,0.30935
2322.20935,0.31002
2320.28060,0.31058
2318.35186,0.31104
2316.42311,0.31139
2314.49437,0.31177
2312.56562,0.31218
2310.63688,0.31244
2308.70813,0.31251
2306.77939,0.31229
2304.85064,0.31182
2302.92190,0.31127
2300.99315,0.31074
2299.06441,0.31019
2297.13566,0.30962
2295.20692,0.30903
2293.27817,0.30850
2291.34943,0.30823
2289.42068,0.30809
2287.49193,0.30786
2285.56319,0.30765
2283.63444,0.30753
2281.70570,0.30726
2279.77695,0.30677
2277.84821,0.30615
2275.91946,0.30536
2273.99072,0.30435
2272.06197,0.30305
2270.13323,0.30151
2268.20448,0.29997
2266.27574,0.29835
2264.34699,0.29644
2262.41825,0.29446
2260.48950,0.29278
2258.56075,0.29151
2256.63201,0.29050
2254.70326,0.28955
2252.77452,0.28859
2250.84577,0.28770
2248.91703,0.28693
2246.98828,0.28634
2245.05954,0.28591
2243.13079,0.28547
2241.20205,0.28504
2239.27330,0.28472
2237.34456,0.28443
2235.41581,0.28422
2233.48707,0.28421
2231.55832,0.28433
2229.62958,0.28452
2227.70083,0.28499
2225.77208,0.28582
2223.84334,0.28689
2221.91459,0.28812
2219.98585,0.28937
2218.05710,0.29061
2216.12836,0.29179
2214.19961,0.29283
2212.27087,0.29368
2210.34212,0.29436
2208.41338,0.29487
2206.48463,0.29515
2204.55589,0.29534
2202.62714,0.29552
2200.69840,0.29541
2198.76965,0.29492
2196.84090,0.29428
2194.91216,0.29360
2192.98341,0.29271
2191.05467,0.29142
2189.12592,0.28982
2187.19718,0.28815
2185.26843,0.28654
2183.33969,0.28497
2181.41094,0.28317
2179.48220,0.28095
2177.55345,0.27852
2175.62471,0.27620
2173.69596,0.27407
2171.76722,0.27200
2169.83847,0.26987
2167.90973,0.26775
2165.98098,0.26570
2164.05223,0.26376
2162.12349,0.26200
2160.19474,0.26055
2158.26600,0.25940
2156.33725,0.25832
2154.40851,0.25710
2152.47976,0.25591
2150.55102,0.25490
2148.62227,0.25390
2146.69353,0.25290
2144.76478,0.25203
2142.83604,0.25112
2140.90729,0.25014
2138.97855,0.24936
2137.04980,0.24885
2135.12106,0.24860
2133.19231,0.24879
2131.26356,0.24939
2129.33482,0.25022
2127.40607,0.25129
2125.47733,0.25251
2123.54858,0.25369
2121.61984,0.25488
2119.69109,0.25616
2117.76235,0.25738
2115.83360,0.25851
2113.90486,0.25968
2111.97611,0.26091
2110.04737,0.26212
2108.11862,0.26330
2106.18988,0.26445
2104.26113,0.26564
2102.33238,0.26674
2100.40364,0.26765
2098.47489,0.26852
2096.54615,0.26938
2094.61740,0.27020
2092.68866,0.27104
2090.75991,0.27179
2088.83117,0.27252
2086.90242,0.27337
2084.97368,0.27410
2083.04493,0.27451
2081.11619,0.27470
2079.18744,0.27462
2077.25870,0.27433
2075.32995,0.27391
2073.40121,0.27349
2071.47246,0.27317
2069.54371,0.27287
2067.61497,0.27259
2065.68622,0.27251
2063.75748,0.27267
2061.82873,0.27288
2059.89999,0.27298
2057.97124,0.27296
2056.04250,0.27290
2054.11375,0.27283
2052.18501,0.27270
2050.25626,0.27262
2048.32752,0.27279
2046.39877,0.27317
2044.47003,0.27355
2042.54128,0.27397
2040.61254,0.27466
2038.68379,0.27568
2036.75504,0.27695
2034.82630,0.27838
2032.89755,0.28004
2030.96881,0.28197
2029.04006,0.28414
2027.11132,0.28650
2025.18257,0.28887
2023.25383,0.29105
2021.32508,0.29317
2019.39634,0.29545
2017.46759,0.29774
2015.53885,0.29974
2013.61010,0.30146
2011.68136,0.30312
2009.75261,0.30462
2007.82386,0.30568
2005.89512,0.30635
2003.96637,0.30690
2002.03763,0.30740
2000.10888,0.30791
1998.18014,0.30848
1996.25139,0.30918
1994.32265,0.31023
1992.39390,0.31166
1990.46516,0.31316
1988.53641,0.31462
1986.60767,0.31605
1984.67892,0.31732
1982.75018,0.31833
1980.82143,0.31911
1978.89269,0.31973
1976.96394,0.32025
1975.03519,0.32063
1973.10645,0.32088
1971.17770,0.32122
1969.24896,0.32172
1967.32021,0.32223
1965.39147,0.32269
1963.46272,0.32321
1961.53398,0.32382
1959.60523,0.32453
1957.67649,0.32542
1955.74774,0.32643
1953.81900,0.32748
1951.89025,0.32868
1949.96151,0.33006
1948.03276,0.33155
1946.10402,0.33327
1944.17527,0.33523
1942.24652,0.33719
1940.31778,0.33899
1938.38903,0.34067
1936.46029,0.34220
1934.53154,0.34354
1932.60280,0.34479
1930.67405,0.34597
1928.74531,0.34694
1926.81656,0.34770
1924.88782,0.34839
1922.95907,0.34905
1921.03033,0.34959
1919.10158,0.35014
1917.17284,0.35076
1915.24409,0.35136
1913.31534,0.35188
1911.38660,0.35228
1909.45785,0.35259
1907.52911,0.35292
1905.60036,0.35325
1903.67162,0.35339
1901.74287,0.35330
1899.81413,0.35306
1897.88538,0.35272
1895.95664,0.35232
1894.02789,0.35196
1892.09915,0.35164
1890.17040,0.35127
1888.24166,0.35089
1886.31291,0.35060
1884.38417,0.35034
1882.45542,0.35000
1880.52667,0.34967
1878.59793,0.34941
1876.66918,0.34908
1874.74044,0.34873
1872.81169,0.34855
1870.88295,0.34838
1868.95420,0.34799
1867.02546,0.34739
1865.09671,0.34666
1863.16797,0.34581
1861.23922,0.34491
1859.31048,0.34410
1857.38173,0.34331
1855.45299,0.34246
1853.52424,0.34148
1851.59549,0.34026
1849.66675,0.33886
1847.73800,0.33746
1845.80926,0.33596
1843.88051,0.33430
1841.95177,0.33277
1840.02302,0.33158
1838.09428,0.33064
1836.16553,0.32984
1834.23679,0.32916
1832.30804,0.32869
1830.37930,0.32827
1828.45055,0.32754
1826.52181,0.32647
1824.59306,0.32535
1822.66432,0.32440
1820.73557,0.32354
1818.80682,0.32256
1816.87808,0.32136
1814.94933,0.32006
1813.02059,0.31892
1811.09184,0.31786
1809.16310,0.31665
1807.23435,0.31545
1805.30561,0.31430
1803.37686,0.31300
1801.44812,0.31167
1799.51937,0.31055
1797.59063,0.30958
1795.66188,0.30864
1793.73314,0.30759
1791.80439,0.30641
1789.87565,0.30529
1787.94690,0.30424
1786.01815,0.30313
1784.08941,0.30194
1782.16066,0.30068
1780.23192,0.29929
1778.30317,0.29783
1776.37443,0.29633
1774.44568,0.29459
1772.51694,0.29262
1770.58819,0.29086
1768.65945,0.28943
1766.73070,0.28799
1764.80196,0.28645
1762.87321,0.28501
1760.94447,0.28380
1759.01572,0.28274
1757.08697,0.28152
1755.15823,0.27997
1753.22948,0.27835
1751.30074,0.27677
1749.37199,0.27501
1747.44325,0.27293
1745.51450,0.27055
1743.58576,0.26814
1741.65701,0.26589
1739.72827,0.26379
1737.79952,0.26198
1735.87078,0.26046
1733.94203,0.25887
1732.01329,0.25722
1730.08454,0.25602
1728.15580,0.25540
1726.22705,0.25502
1724.29830,0.25464
1722.36956,0.25424
1720.44081,0.25373
1718.51207,0.25301
1716.58332,0.25204
1714.65458,0.25093
1712.72583,0.24969
1710.79709,0.24807
1708.86834,0.24609
1706.93960,0.24400
1705.01085,0.24177
1703.08211,0.23919
1701.15336,0.23601
1699.22462,0.23218
1697.29587,0.22788
1695.36713,0.22316
1693.43838,0.21830
1691.50963,0.21335
1689.58089,0.20798
1687.65214,0.20247
1685.72340,0.19675
1683.79465,0.19064
1681.86591,0.18487
1679.93716,0.17979
1678.00842,0.17523
1676.07967,0.17110
1674.15093,0.16762
1672.22218,0.16487
1670.29344,0.16255
1668.36469,0.16059
1666.43595,0.15923
1664.50720,0.15846
1662.57845,0.15813
1660.64971,0.15817
1658.72096,0.15853
1656.79222,0.15913
1654.86347,0.15995
1652.93473,0.16096
1651.00598,0.16185
1649.07724,0.16252
1647.14849,0.16316
1645.21975,0.16359
1643.29100,0.16364
1641.36226,0.16351
1639.43351,0.16357
1637.50477,0.16390
1635.57602,0.16428
1633.64728,0.16451
1631.71853,0.16481
1629.78978,0.16544
1627.86104,0.16639
1625.93229,0.16748
1624.00355,0.16852
1622.07480,0.16952
1620.14606,0.17060
1618.21731,0.17177
1616.28857,0.17279
1614.35982,0.17345
1612.43108,0.17392
1610.50233,0.17433
1608.57359,0.17459
1606.64484,0.17476
1604.71610,0.17505
1602.78735,0.17547
1600.85861,0.17582
1598.92986,0.17608
1597.00111,0.17633
1595.07237,0.17647
1593.14362,0.17652
1591.21488,0.17667
1589.28613,0.17689
1587.35739,0.17699
1585.42864,0.17685
1583.49990,0.17638
1581.57115,0.17585
1579.64241,0.17556
1577.71366,0.17543
1575.78492,0.17547
1573.85617,0.17579
1571.92743,0.17621
1569.99868,0.17659
1568.06993,0.17698
1566.14119,0.17730
1564.21244,0.17743
1562.28370,0.17743
1560.35495,0.17728
1558.42621,0.17691
1556.49746,0.17657
1554.56872,0.17627
1552.63997,0.17565
1550.71123,0.17459
1548.78248,0.17344
1546.85374,0.17243
1544.92499,0.17127
1542.99625,0.16994
1541.06750,0.16887
1539.13876,0.16830
1537.21001,0.16816
1535.28126,0.16812
1533.35252,0.16787
1531.42377,0.16743
1529.49503,0.16683
1527.56628,0.16595
1525.63754,0.16482
1523.70879,0.16347
1521.78005,0.16184
1519.85130,0.16003
1517.92256,0.15823
1515.99381,0.15639
1514.06507,0.15448
1512.13632,0.15258
1510.20758,0.15057
1508.27883,0.14825
1506.35008,0.14565
1504.42134,0.14303
1502.49259,0.14039
1500.56385,0.13749
1498.63510,0.13418
1496.70636,0.13025
1494.77761,0.12575
1492.84887,0.12094
1490.92012,0.11551
1488.99138,0.10911
1487.06263,0.10210
1485.13389,0.09525
1483.20514,0.08943
1481.27640,0.08524
1479.34765,0.08258
1477.41891,0.08068
1475.49016,0.07871
1473.56141,0.07606
1471.63267,0.07269
1469.70392,0.06920
1467.77518,0.06607
1465.84643,0.06306
1463.91769,0.05992
1461.98894,0.05704
1460.06020,0.05494
1458.13145,0.05339
1456.20271,0.05198
1454.27396,0.05077
1452.34522,0.04984
1450.41647,0.04907
1448.48773,0.04832
1446.55898,0.04745
1444.63024,0.04652
1442.70149,0.04553
1440.77274,0.04432
1438.84400,0.04292
1436.91525,0.04156
1434.98651,0.04054
1433.05776,0.03999
1431.12902,0.03991
1429.20027,0.04046
1427.27153,0.04172
1425.34278,0.04351
1423.41404,0.04547
1421.48529,0.04744
1419.55655,0.04954
1417.62780,0.05166
1415.69906,0.05345
1413.77031,0.05480
1411.84156,0.05563
1409.91282,0.05590
1407.98407,0.05589
1406.05533,0.05573
1404.12658,0.05552
1402.19784,0.05548
1400.26909,0.05550
1398.34035,0.05526
1396.41160,0.05466
1394.48286,0.05376
1392.55411,0.05252
1390.62537,0.05098
1388.69662,0.04902
1386.76788,0.04658
1384.83913,0.04395
1382.91039,0.04147
1380.98164,0.03940
1379.05289,0.03785
1377.12415,0.03669
1375.19540,0.03591
1373.26666,0.03570
1371.33791,0.03612
1369.40917,0.03680
1367.48042,0.03743
1365.55168,0.03782
1363.62293,0.03795
1361.69419,0.03805
1359.76544,0.03834
1357.83670,0.03879
1355.90795,0.03930
1353.97921,0.03992
1352.05046,0.04062
1350.12172,0.04105
1348.19297,0.04090
1346.26422,0.04028
1344.33548,0.03952
1342.40673,0.03883
1340.47799,0.03821
1338.54924,0.03777
1336.62050,0.03771
1334.69175,0.03801
1332.76301,0.03864
1330.83426,0.03944
1328.90552,0.04000
1326.97677,0.03999
1325.04803,0.03962
1323.11928,0.03927
1321.19054,0.03903
1319.26179,0.03897
1317.33304,0.03933
1315.40430,0.04022
1313.47555,0.04149
1311.54681,0.04299
1309.61806,0.04468
1307.68932,0.04656
1305.76057,0.04842
1303.83183,0.05004
1301.90308,0.05125
1299.97434,0.05192
1298.04559,0.05205
1296.11685,0.05170
1294.18810,0.05103
1292.25936,0.05023
1290.33061,0.04930
1288.40187,0.04813
1286.47312,0.04670
1284.54437,0.04538
1282.61563,0.04480
1280.68688,0.04541
1278.75814,0.04692
1276.82939,0.04857
1274.90065,0.04996
1272.97190,0.05115
1271.04316,0.05212
1269.11441,0.05269
1267.18567,0.05278
1265.25692,0.05258
1263.32818,0.05233
1261.39943,0.05208
1259.47069,0.05182
1257.54194,0.05149
1255.61320,0.05098
1253.68445,0.05020
1251.75570,0.04933
1249.82696,0.04873
1247.89821,0.04850
1245.96947,0.04844
1244.04072,0.04838
1242.11198,0.04824
1240.18323,0.04795
1238.25449,0.04743
1236.32574,0.04691
1234.39700,0.04699
1232.46825,0.04775
1230.53951,0.04872
1228.61076,0.04959
1226.68202,0.05016
1224.75327,0.05043
1222.82452,0.05057
1220.89578,0.05050
1218.96703,0.05001
1217.03829,0.04901
1215.10954,0.04737
1213.18080,0.04476
1211.25205,0.04144
1209.32331,0.03854
1207.39456,0.03685
1205.46582,0.03622
1203.53707,0.03617
1201.60833,0.03623
1199.67958,0.03614
1197.75084,0.03606
1195.82209,0.03628
1193.89335,0.03654
1191.96460,0.03635
1190.03585,0.03581
1188.10711,0.03524
1186.17836,0.03454
1184.24962,0.03369
1182.32087,0.03324
1180.39213,0.03345
1178.46338,0.03418
1176.53464,0.03574
1174.60589,0.03862
1172.67715,0.04250
1170.74840,0.04652
1168.81966,0.04981
1166.89091,0.05167
1164.96217,0.05184
1163.03342,0.05049
1161.10467,0.04840
1159.17593,0.04617
1157.24718,0.04382
1155.31844,0.04160
1153.38969,0.03976
1151.46095,0.03813
1149.53220,0.03666
1147.60346,0.03542
1145.67471,0.03403
1143.74597,0.03225
1141.81722,0.03052
1139.88848,0.02905
1137.95973,0.02756
1136.03099,0.02619
1134.10224,0.02530
1132.17350,0.02485
1130.24475,0.02468
1128.31600,0.02504
1126.38726,0.02613
1124.45851,0.02746
1122.52977,0.02858
1120.60102,0.02969
1118.67228,0.03122
1116.74353,0.03340
1114.81479,0.03594
1112.88604,0.03803
1110.95730,0.03903
1109.02855,0.03908
1107.09981,0.03876
1105.17106,0.03821
1103.24232,0.03744
1101.31357,0.03664
1099.38483,0.03590
1097.45608,0.03507
1095.52733,0.03400
1093.59859,0.03293
1091.66984,0.03253
1089.74110,0.03308
1087.81235,0.03427
1085.88361,0.03583
1083.95486,0.03800
1082.02612,0.04107
1080.09737,0.04476
1078.16863,0.04844
1076.23988,0.05190
1074.31114,0.05530
1072.38239,0.05894
1070.45365,0.06325
1068.52490,0.06824
1066.59615,0.07363
1064.66741,0.07907
1062.73866,0.08347
1060.80992,0.08522
1058.88117,0.08380
1056.95243,0.08043
1055.02368,0.07688
1053.09494,0.07365
1051.16619,0.07011
1049.23745,0.06623
1047.30870,0.06270
1045.37996,0.06021
1043.45121,0.05959
1041.52247,0.06145
1039.59372,0.06535
1037.66498,0.06984
1035.73623,0.07325
1033.80748,0.07445
1031.87874,0.07384
1029.94999,0.07266
1028.02125,0.07134
1026.09250,0.06980
1024.16376,0.06834
1022.23501,0.06724
1020.30627,0.06661
1018.37752,0.06667
1016.44878,0.06739
1014.52003,0.06821
1012.59129,0.06843
1010.66254,0.06788
1008.73380,0.06707
1006.80505,0.06640
1004.87631,0.06606
1002.94756,0.06625
1001.01881,0.06705
999.09007,0.06823
997.16132,0.06941
995.23258,0.07038
993.30383,0.07118
991.37509,0.07200
989.44634,0.07284
987.51760,0.07376
985.58885,0.07551
983.66011,0.07885
981.73136,0.08356
979.80262,0.08902
977.87387,0.09468
975.94513,0.09973
974.01638,0.10370
972.08763,0.10699
970.15889,0.11009
968.23014,0.11313
966.30140,0.11613
964.37265,0.11928
962.44391,0.12311
960.51516,0.12748
958.58642,0.13168
956.65767,0.13555
954.72893,0.13922
952.80018,0.14272
950.87144,0.14605
948.94269,0.14911
947.01395,0.15175
945.08520,0.15376
943.15646,0.15489
941.22771,0.15520
939.29896,0.15527
937.37022,0.15553
935.44147,0.15578
933.51273,0.15577
931.58398,0.15565
929.65524,0.15582
927.72649,0.15666
925.79775,0.15774
923.86900,0.15815
921.94026,0.15721
920.01151,0.15502
918.08277,0.15213
916.15402,0.14880
914.22528,0.14515
912.29653,0.14129
910.36779,0.13727
908.43904,0.13356
906.51029,0.13054
904.58155,0.12788
902.65280,0.12518
900.72406,0.12286
898.79531,0.12159
896.86657,0.12146
894.93782,0.12257
893.00908,0.12529
891.08033,0.12942
889.15159,0.13443
887.22284,0.13987
885.29410,0.14527
883.36535,0.15010
881.43661,0.15425
879.50786,0.15812
877.57911,0.16213
875.65037,0.16623
873.72162,0.16997
871.79288,0.17305
869.86413,0.17569
867.93539,0.17802
866.00664,0.17975
864.07790,0.18080
862.14915,0.18122
860.22041,0.18103
858.29166,0.18066
856.36292,0.18051
854.43417,0.18031
852.50543,0.17965
850.57668,0.17865
848.64794,0.17759
846.71919,0.17656
844.79044,0.17575
842.86170,0.17514
840.93295,0.17425
839.00421,0.17277
837.07546,0.17095
835.14672,0.16925
833.21797,0.16787
831.28923,0.16679
829.36048,0.16571
827.43174,0.16400
825.50299,0.16181
823.57425,0.15996
821.64550,0.15842
819.71676,0.15674
817.78801,0.15488
815.85926,0.15288
813.93052,0.15093
812.00177,0.14938
810.07303,0.14804
808.14428,0.14653
806.21554,0.14495
804.28679,0.14319
802.35805,0.14092
800.42930,0.13854
798.50056,0.13669
796.57181,0.13521
794.64307,0.13381
792.71432,0.13250
790.78558,0.13099
788.85683,0.12907
786.92809,0.12704
784.99934,0.12497
783.07059,0.12308
781.14185,0.12161
779.21310,0.12002
777.28436,0.11796
775.35561,0.11575
773.42687,0.11353
771.49812,0.11137
769.56938,0.10929
767.64063,0.10714
765.71189,0.10492
763.78314,0.10275
761.85440,0.10052
759.92565,0.09820
757.99691,0.09568
756.06816,0.09305
754.13942,0.09082
752.21067,0.08902
750.28192,0.08715
748.35318,0.08515
746.42443,0.08320
744.49569,0.08146
742.56694,0.07978
740.63820,0.07777
738.70945,0.07561
736.78071,0.07362
734.85196,0.07165
732.92322,0.06933
730.99447,0.06699
729.06573,0.06499
727.13698,0.06301
725.20824,0.06104
723.27949,0.05951
721.35074,0.05847
719.42200,0.05755
717.49325,0.05657
715.56451,0.05578
713.63576,0.05531
711.70702,0.05488
709.77827,0.05420
707.84953,0.05362
705.92078,0.05368
703.99204,0.05398
702.06329,0.05402
700.13455,0.05414
698.20580,0.05446
696.27706,0.05470
694.34831,0.05468
692.41957,0.05439
690.49082,0.05406
688.56207,0.05397
686.63333,0.05392
684.70458,0.05356
682.77584,0.05296
680.84709,0.05230
678.91835,0.05153
676.98960,0.05079
675.06086,0.05030
673.13211,0.05018
671.20337,0.05008
669.27462,0.04951
667.34588,0.04908
665.41713,0.04959
663.48839,0.05074
661.55964,0.05204
659.63090,0.05287
657.70215,0.05291
655.77340,0.05288
653.84466,0.05250
651.91591,0.05112
649.98717,0.05048
648.05842,0.05123
646.12968,0.05089
644.20093,0.04905
642.27219,0.04765
640.34344,0.04696
638.41470,0.04622
636.48595,0.04516
634.55721,0.04387
632.62846,0.04285
630.69972,0.04277
628.77097,0.04379
626.84222,0.04467
624.91348,0.04477
622.98473,0.04526
621.05599,0.04637
619.12724,0.04713
617.19850,0.04737
615.26975,0.04774
613.34101,0.04884
611.41226,0.05003
609.48352,0.05076
607.55477,0.05164
605.62603,0.05287
603.69728,0.05361
601.76854,0.05277
599.83979,0.05082
