7497.03301,0.61955
7495.10426,0.61727
7493.17552,0.61731
7491.24677,0.61618
7489.31803,0.61321
7487.38928,0.60817
7485.46054,0.60254
7483.53179,0.60055
7481.60305,0.60335
7479.67430,0.60812
7477.74556,0.61235
7475.81681,0.61604
7473.88807,0.61970
7471.95932,0.62236
7470.03057,0.62245
7468.10183,0.62004
7466.17308,0.61699
7464.24434,0.61530
7462.31559,0.61605
7460.38685,0.61680
7458.45810,0.61389
7456.52936,0.60985
7454.60061,0.60897
7452.67187,0.61033
7450.74312,0.61216
7448.81438,0.61375
7446.88563,0.61389
7444.95689,0.61398
7443.02814,0.61681
7441.09940,0.62089
7439.17065,0.62234
7437.24190,0.62002
7435.31316,0.61574
7433.38441,0.61454
7431.45567,0.61931
7429.52692,0.62416
7427.59818,0.62462
7425.66943,0.62390
7423.74069,0.62327
7421.81194,0.62070
7419.88320,0.61681
7417.95445,0.61618
7416.02571,0.61948
7414.09696,0.62102
7412.16822,0.61970
7410.23947,0.61794
7408.31073,0.61661
7406.38198,0.61822
7404.45323,0.62196
7402.52449,0.62222
7400.59574,0.61736
7398.66700,0.61124
7396.73825,0.60619
7394.80951,0.60407
7392.88076,0.60739
7390.95202,0.61173
7389.02327,0.61253
7387.09453,0.61224
7385.16578,0.61288
7383.23704,0.61413
7381.30829,0.61559
7379.37955,0.61734
7377.45080,0.61645
7375.52205,0.61092
7373.59331,0.60747
7371.66456,0.60956
7369.73582,0.61103
7367.80707,0.60897
7365.87833,0.60726
7363.94958,0.60823
7362.02084,0.61013
7360.09209,0.61249
7358.16335,0.61523
7356.23460,0.61499
7354.30586,0.61005
7352.37711,0.60491
7350.44837,0.60335
7348.51962,0.60339
7346.59088,0.60489
7344.66213,0.61030
7342.73338,0.61726
7340.80464,0.62014
7338.87589,0.61651
7336.94715,0.61055
7335.01840,0.60846
7333.08966,0.60959
7331.16091,0.60892
7329.23217,0.60799
7327.30342,0.60999
7325.37468,0.61089
7323.44593,0.60811
7321.51719,0.60515
7319.58844,0.60514
7317.65970,0.60677
7315.73095,0.60747
7313.80221,0.60636
7311.87346,0.60290
7309.94471,0.59985
7308.01597,0.60092
7306.08722,0.60489
7304.15848,0.60914
7302.22973,0.61223
7300.30099,0.61210
7298.37224,0.60823
7296.44350,0.60446
7294.51475,0.60289
7292.58601,0.60225
7290.65726,0.60171
7288.72852,0.59888
7286.79977,0.59560
7284.87103,0.59767
7282.94228,0.60383
7281.01353,0.60919
7279.08479,0.61137
7277.15604,0.60935
7275.22730,0.60610
7273.29855,0.60609
7271.36981,0.60663
7269.44106,0.60376
7267.51232,0.60005
7265.58357,0.59739
7263.65483,0.59753
7261.72608,0.60350
7259.79734,0.61139
7257.86859,0.61474
7255.93985,0.61388
7254.01110,0.61165
7252.08236,0.60883
7250.15361,0.60626
7248.22486,0.60304
7246.29612,0.59881
7244.36737,0.59753
7242.43863,0.60071
7240.50988,0.60593
7238.58114,0.60975
7236.65239,0.60871
7234.72365,0.60423
7232.79490,0.60066
7230.86616,0.60099
7228.93741,0.60420
7227.00867,0.60576
7225.07992,0.60556
7223.15118,0.60620
7221.22243,0.60721
7219.29369,0.60758
7217.36494,0.60679
7215.43619,0.60495
7213.50745,0.60237
7211.57870,0.59955
7209.64996,0.59885
7207.72121,0.60072
7205.79247,0.60274
7203.86372,0.60528
7201.93498,0.60854
7200.00623,0.60896
7198.07749,0.60596
7196.14874,0.60228
7194.22000,0.59956
7192.29125,0.59957
7190.36251,0.60238
7188.43376,0.60525
7186.50501,0.60607
7184.57627,0.60407
7182.64752,0.59987
7180.71878,0.59743
7178.79003,0.60031
7176.86129,0.60495
7174.93254,0.60546
7173.00380,0.60312
7171.07505,0.60408
7169.14631,0.60853
7167.21756,0.60995
7165.28882,0.60645
7163.36007,0.60257
7161.43133,0.60105
7159.50258,0.60144
7157.57384,0.60250
7155.64509,0.60243
7153.71634,0.60054
7151.78760,0.59881
7149.85885,0.59955
7147.93011,0.60269
7146.00136,0.60598
7144.07262,0.60594
7142.14387,0.60215
7140.21513,0.60045
7138.28638,0.60406
7136.35764,0.60761
7134.42889,0.60783
7132.50015,0.60751
7130.57140,0.60809
7128.64266,0.60877
7126.71391,0.60725
7124.78516,0.60214
7122.85642,0.59808
7120.92767,0.59880
7118.99893,0.60080
7117.07018,0.60099
7115.14144,0.60066
7113.21269,0.60150
7111.28395,0.60265
7109.35520,0.60120
7107.42646,0.59766
7105.49771,0.59626
7103.56897,0.59729
7101.64022,0.59773
7099.71148,0.59661
7097.78273,0.59322
7095.85399,0.58793
7093.92524,0.58471
7091.99649,0.58595
7090.06775,0.59041
7088.13900,0.59484
7086.21026,0.59640
7084.28151,0.59585
7082.35277,0.59382
7080.42402,0.59172
7078.49528,0.59186
7076.56653,0.59183
7074.63779,0.59166
7072.70904,0.59334
7070.78030,0.59267
7068.85155,0.58896
7066.92281,0.58607
7064.99406,0.58404
7063.06532,0.58281
7061.13657,0.58245
7059.20782,0.58061
7057.27908,0.57770
7055.35033,0.57678
7053.42159,0.57797
7051.49284,0.57875
7049.56410,0.57733
7047.63535,0.57525
7045.70661,0.57549
7043.77786,0.57644
7041.84912,0.57467
7039.92037,0.57201
7037.99163,0.57151
7036.06288,0.57218
7034.13414,0.57253
7032.20539,0.57237
7030.27664,0.57140
7028.34790,0.56942
7026.41915,0.56795
7024.49041,0.56994
7022.56166,0.57273
7020.63292,0.57143
7018.70417,0.57010
7016.77543,0.57295
7014.84668,0.57594
7012.91794,0.57559
7010.98919,0.57322
7009.06045,0.57083
7007.13170,0.56970
7005.20296,0.57031
7003.27421,0.56956
7001.34547,0.56603
6999.41672,0.56406
6997.48797,0.56448
6995.55923,0.56377
6993.63048,0.56245
6991.70174,0.56311
6989.77299,0.56533
6987.84425,0.56705
6985.91550,0.56665
6983.98676,0.56416
6982.05801,0.56178
6980.12927,0.56121
6978.20052,0.56320
6976.27178,0.56623
6974.34303,0.56578
6972.41429,0.56164
6970.48554,0.55760
6968.55680,0.55544
6966.62805,0.55603
6964.69930,0.55739
6962.77056,0.55512
6960.84181,0.54972
6958.91307,0.54604
6956.98432,0.54686
6955.05558,0.54976
6953.12683,0.55160
6951.19809,0.55401
6949.26934,0.55753
6947.34060,0.55907
6945.41185,0.55842
6943.48311,0.55825
6941.55436,0.55983
6939.62562,0.56087
6937.69687,0.55889
6935.76812,0.55653
6933.83938,0.55675
6931.91063,0.55751
6929.98189,0.55586
6928.05314,0.55338
6926.12440,0.55297
6924.19565,0.55299
6922.26691,0.55184
6920.33816,0.55178
6918.40942,0.55278
6916.48067,0.55337
6914.55193,0.55440
6912.62318,0.55575
6910.69444,0.55619
6908.76569,0.55559
6906.83695,0.55486
6904.90820,0.55434
6902.97945,0.55331
6901.05071,0.55296
6899.12196,0.55438
6897.19322,0.55525
6895.26447,0.55320
6893.33573,0.54998
6891.40698,0.54840
6889.47824,0.54794
6887.54949,0.54780
6885.62075,0.54834
6883.69200,0.54814
6881.76326,0.54575
6879.83451,0.54300
6877.90577,0.54265
6875.97702,0.54397
6874.04828,0.54500
6872.11953,0.54592
6870.19078,0.54710
6868.26204,0.54754
6866.33329,0.54636
6864.40455,0.54399
6862.47580,0.54207
6860.54706,0.54221
6858.61831,0.54283
6856.68957,0.54120
6854.76082,0.53963
6852.83208,0.54118
6850.90333,0.54346
6848.97459,0.54282
6847.04584,0.54067
6845.11710,0.54114
6843.18835,0.54308
6841.25960,0.54269
6839.33086,0.54186
6837.40211,0.54369
6835.47337,0.54619
6833.54462,0.54713
6831.61588,0.54659
6829.68713,0.54489
6827.75839,0.54274
6825.82964,0.54041
6823.90090,0.53830
6821.97215,0.53768
6820.04341,0.53845
6818.11466,0.53992
6816.18592,0.54187
6814.25717,0.54251
6812.32843,0.54006
6810.39968,0.53726
6808.47093,0.53734
6806.54219,0.53840
6804.61344,0.53809
6802.68470,0.53631
6800.75595,0.53365
6798.82721,0.53183
6796.89846,0.53082
6794.96972,0.52935
6793.04097,0.52879
6791.11223,0.53073
6789.18348,0.53393
6787.25474,0.53512
6785.32599,0.53425
6783.39725,0.53465
6781.46850,0.53594
6779.53975,0.53551
6777.61101,0.53351
6775.68226,0.53163
6773.75352,0.53188
6771.82477,0.53413
6769.89603,0.53519
6767.96728,0.53324
6766.03854,0.52970
6764.10979,0.52658
6762.18105,0.52452
6760.25230,0.52305
6758.32356,0.52285
6756.39481,0.52454
6754.46607,0.52617
6752.53732,0.52626
6750.60858,0.52541
6748.67983,0.52493
6746.75108,0.52562
6744.82234,0.52591
6742.89359,0.52453
6740.96485,0.52266
6739.03610,0.52171
6737.10736,0.52275
6735.17861,0.52472
6733.24987,0.52538
6731.32112,0.52506
6729.39238,0.52531
6727.46363,0.52635
6725.53489,0.52671
6723.60614,0.52608
6721.67740,0.52686
6719.74865,0.52807
6717.81991,0.52590
6715.89116,0.52289
6713.96241,0.52421
6712.03367,0.52777
6710.10492,0.52870
6708.17618,0.52704
6706.24743,0.52564
6704.31869,0.52591
6702.38994,0.52615
6700.46120,0.52402
6698.53245,0.52002
6696.60371,0.51729
6694.67496,0.51872
6692.74622,0.52318
6690.81747,0.52639
6688.88873,0.52664
6686.95998,0.52622
6685.03123,0.52683
6683.10249,0.52774
6681.17374,0.52790
6679.24500,0.52620
6677.31625,0.52300
6675.38751,0.52134
6673.45876,0.52246
6671.53002,0.52416
6669.60127,0.52474
6667.67253,0.52448
6665.74378,0.52448
6663.81504,0.52567
6661.88629,0.52709
6659.95755,0.52617
6658.02880,0.52336
6656.10006,0.52176
6654.17131,0.52246
6652.24256,0.52433
6650.31382,0.52491
6648.38507,0.52335
6646.45633,0.52295
6644.52758,0.52514
6642.59884,0.52668
6640.67009,0.52606
6638.74135,0.52504
6636.81260,0.52508
6634.88386,0.52590
6632.95511,0.52664
6631.02637,0.52719
6629.09762,0.52850
6627.16888,0.53172
6625.24013,0.53507
6623.31139,0.53553
6621.38264,0.53418
6619.45389,0.53313
6617.52515,0.53154
6615.59640,0.52913
6613.66766,0.52805
6611.73891,0.52995
6609.81017,0.53342
6607.88142,0.53491
6605.95268,0.53315
6604.02393,0.53041
6602.09519,0.52957
6600.16644,0.53134
6598.23770,0.53218
6596.30895,0.52965
6594.38021,0.52809
6592.45146,0.53044
6590.52271,0.53324
6588.59397,0.53367
6586.66522,0.53247
6584.73648,0.53183
6582.80773,0.53251
6580.87899,0.53222
6578.95024,0.53064
6577.02150,0.53024
6575.09275,0.53118
6573.16401,0.53299
6571.23526,0.53542
6569.30652,0.53656
6567.37777,0.53564
6565.44903,0.53338
6563.52028,0.53122
6561.59154,0.53117
6559.66279,0.53200
6557.73404,0.53158
6555.80530,0.53142
6553.87655,0.53265
6551.94781,0.53371
6550.01906,0.53329
6548.09032,0.53255
6546.16157,0.53334
6544.23283,0.53464
6542.30408,0.53456
6540.37534,0.53388
6538.44659,0.53356
6536.51785,0.53354
6534.58910,0.53457
6532.66036,0.53552
6530.73161,0.53406
6528.80287,0.53198
6526.87412,0.53213
6524.94537,0.53327
6523.01663,0.53337
6521.08788,0.53317
6519.15914,0.53315
6517.23039,0.53241
6515.30165,0.53148
6513.37290,0.53189
6511.44416,0.53342
6509.51541,0.53301
6507.58667,0.53076
6505.65792,0.53100
6503.72918,0.53367
6501.80043,0.53538
6499.87169,0.53469
6497.94294,0.53214
6496.01419,0.52980
6494.08545,0.52965
6492.15670,0.53120
6490.22796,0.53148
6488.29921,0.52916
6486.37047,0.52689
6484.44172,0.52663
6482.51298,0.52768
6480.58423,0.52864
6478.65549,0.52828
6476.72674,0.52763
6474.79800,0.52958
6472.86925,0.53313
6470.94051,0.53468
6469.01176,0.53403
6467.08302,0.53284
6465.15427,0.53218
6463.22552,0.53256
6461.29678,0.53330
6459.36803,0.53309
6457.43929,0.53226
6455.51054,0.53109
6453.58180,0.52966
6451.65305,0.53058
6449.72431,0.53410
6447.79556,0.53621
6445.86682,0.53523
6443.93807,0.53334
6442.00933,0.53354
6440.08058,0.53585
6438.15184,0.53746
6436.22309,0.53725
6434.29434,0.53609
6432.36560,0.53440
6430.43685,0.53282
6428.50811,0.53226
6426.57936,0.53245
6424.65062,0.53278
6422.72187,0.53311
6420.79313,0.53353
6418.86438,0.53452
6416.93564,0.53578
6415.00689,0.53602
6413.07815,0.53509
6411.14940,0.53482
6409.22066,0.53583
6407.29191,0.53623
6405.36317,0.53496
6403.43442,0.53291
6401.50567,0.53255
6399.57693,0.53437
6397.64818,0.53533
6395.71944,0.53529
6393.79069,0.53675
6391.86195,0.53870
6389.93320,0.53926
6388.00446,0.53938
6386.07571,0.54009
6384.14697,0.54090
6382.21822,0.54110
6380.28948,0.54037
6378.36073,0.53882
6376.43199,0.53717
6374.50324,0.53649
6372.57450,0.53689
6370.64575,0.53756
6368.71700,0.53780
6366.78826,0.53761
6364.85951,0.53777
6362.93077,0.53818
6361.00202,0.53829
6359.07328,0.53827
6357.14453,0.53770
6355.21579,0.53635
6353.28704,0.53571
6351.35830,0.53649
6349.42955,0.53678
6347.50081,0.53624
6345.57206,0.53726
6343.64332,0.53935
6341.71457,0.53988
6339.78582,0.53900
6337.85708,0.53851
6335.92833,0.53899
6333.99959,0.53972
6332.07084,0.54039
6330.14210,0.54136
6328.21335,0.54187
6326.28461,0.54053
6324.35586,0.53803
6322.42712,0.53661
6320.49837,0.53641
6318.56963,0.53611
6316.64088,0.53555
6314.71214,0.53523
6312.78339,0.53596
6310.85465,0.53785
6308.92590,0.53930
6306.99715,0.53991
6305.06841,0.54136
6303.13966,0.54346
6301.21092,0.54380
6299.28217,0.54269
6297.35343,0.54199
6295.42468,0.54123
6293.49594,0.54022
6291.56719,0.53945
6289.63845,0.53841
6287.70970,0.53717
6285.78096,0.53677
6283.85221,0.53827
6281.92347,0.54091
6279.99472,0.54254
6278.06598,0.54265
6276.13723,0.54217
6274.20848,0.54200
6272.27974,0.54257
6270.35099,0.54349
6268.42225,0.54416
6266.49350,0.54435
6264.56476,0.54430
6262.63601,0.54492
6260.70727,0.54612
6258.77852,0.54681
6256.84978,0.54721
6254.92103,0.54778
6252.99229,0.54801
6251.06354,0.54788
6249.13480,0.54763
6247.20605,0.54748
6245.27730,0.54807
6243.34856,0.54980
6241.41981,0.55205
6239.49107,0.55421
6237.56232,0.55578
6235.63358,0.55571
6233.70483,0.55459
6231.77609,0.55392
6229.84734,0.55330
6227.91860,0.55271
6225.98985,0.55301
6224.06111,0.55375
6222.13236,0.55443
6220.20362,0.55520
6218.27487,0.55582
6216.34613,0.55596
6214.41738,0.55542
6212.48863,0.55448
6210.55989,0.55448
6208.63114,0.55617
6206.70240,0.55881
6204.77365,0.56080
6202.84491,0.56084
6200.91616,0.55942
6198.98742,0.55800
6197.05867,0.55711
6195.12993,0.55669
6193.20118,0.55665
6191.27244,0.55771
6189.34369,0.56073
6187.41495,0.56384
6185.48620,0.56433
6183.55746,0.56282
6181.62871,0.56262
6179.69996,0.56489
6177.77122,0.56623
6175.84247,0.56519
6173.91373,0.56480
6171.98498,0.56581
6170.05624,0.56601
6168.12749,0.56482
6166.19875,0.56430
6164.27000,0.56567
6162.34126,0.56732
6160.41251,0.56758
6158.48377,0.56684
6156.55502,0.56672
6154.62628,0.56762
6152.69753,0.56891
6150.76878,0.56993
6148.84004,0.56925
6146.91129,0.56721
6144.98255,0.56647
6143.05380,0.56798
6141.12506,0.56964
6139.19631,0.57005
6137.26757,0.57022
6135.33882,0.57076
6133.41008,0.57225
6131.48133,0.57434
6129.55259,0.57436
6127.62384,0.57234
6125.69510,0.57094
6123.76635,0.57121
6121.83761,0.57256
6119.90886,0.57369
6117.98011,0.57367
6116.05137,0.57376
6114.12262,0.57528
6112.19388,0.57673
6110.26513,0.57664
6108.33639,0.57626
6106.40764,0.57604
6104.47890,0.57514
6102.55015,0.57450
6100.62141,0.57550
6098.69266,0.57702
6096.76392,0.57724
6094.83517,0.57709
6092.90643,0.57762
6090.97768,0.57801
6089.04893,0.57810
6087.12019,0.57777
6085.19144,0.57713
6083.26270,0.57707
6081.33395,0.57756
6079.40521,0.57883
6077.47646,0.58052
6075.54772,0.58101
6073.61897,0.58044
6071.69023,0.58033
6069.76148,0.58127
6067.83274,0.58249
6065.90399,0.58260
6063.97525,0.58144
6062.04650,0.58087
6060.11776,0.58142
6058.18901,0.58150
6056.26026,0.58137
6054.33152,0.58231
6052.40277,0.58360
6050.47403,0.58406
6048.54528,0.58432
6046.61654,0.58469
6044.68779,0.58413
6042.75905,0.58302
6040.83030,0.58264
6038.90156,0.58273
6036.97281,0.58254
6035.04407,0.58185
6033.11532,0.58179
6031.18658,0.58358
6029.25783,0.58594
6027.32909,0.58674
6025.40034,0.58632
6023.47159,0.58593
6021.54285,0.58597
6019.61410,0.58683
6017.68536,0.58771
6015.75661,0.58746
6013.82787,0.58646
6011.89912,0.58585
6009.97038,0.58664
6008.04163,0.58831
6006.11289,0.58977
6004.18414,0.59060
6002.25540,0.59018
6000.32665,0.58884
5998.39791,0.58797
5996.46916,0.58753
5994.54041,0.58666
5992.61167,0.58585
5990.68292,0.58616
5988.75418,0.58723
5986.82543,0.58752
5984.89669,0.58686
5982.96794,0.58621
5981.03920,0.58614
5979.11045,0.58699
5977.18171,0.58813
5975.25296,0.58914
5973.32422,0.59006
5971.39547,0.58979
5969.46673,0.58886
5967.53798,0.58841
5965.60924,0.58776
5963.68049,0.58748
5961.75174,0.58842
5959.82300,0.58919
5957.89425,0.58897
5955.96551,0.58886
5954.03676,0.58988
5952.10802,0.59140
5950.17927,0.59172
5948.25053,0.59068
5946.32178,0.58954
5944.39304,0.58852
5942.46429,0.58756
5940.53555,0.58751
5938.60680,0.58869
5936.67806,0.59000
5934.74931,0.58978
5932.82057,0.58803
5930.89182,0.58633
5928.96307,0.58560
5927.03433,0.58563
5925.10558,0.58622
5923.17684,0.58696
5921.24809,0.58691
5919.31935,0.58606
5917.39060,0.58567
5915.46186,0.58616
5913.53311,0.58702
5911.60437,0.58800
5909.67562,0.58841
5907.74688,0.58744
5905.81813,0.58626
5903.88939,0.58615
5901.96064,0.58620
5900.03189,0.58562
5898.10315,0.58522
5896.17440,0.58508
5894.24566,0.58453
5892.31691,0.58418
5890.38817,0.58465
5888.45942,0.58457
5886.53068,0.58272
5884.60193,0.58057
5882.67319,0.57993
5880.74444,0.58038
5878.81570,0.58081
5876.88695,0.58043
5874.95821,0.57919
5873.02946,0.57798
5871.10072,0.57750
5869.17197,0.57766
5867.24322,0.57759
5865.31448,0.57680
5863.38573,0.57662
5861.45699,0.57785
5859.52824,0.57904
5857.59950,0.57912
5855.67075,0.57858
5853.74201,0.57838
5851.81326,0.57879
5849.88452,0.57897
5847.95577,0.57891
5846.02703,0.57928
5844.09828,0.57961
5842.16954,0.57944
5840.24079,0.57898
5838.31205,0.57871
5836.38330,0.57884
5834.45455,0.57882
5832.52581,0.57842
5830.59706,0.57800
5828.66832,0.57780
5826.73957,0.57805
5824.81083,0.57858
5822.88208,0.57888
5820.95334,0.57929
5819.02459,0.58006
5817.09585,0.58029
5815.16710,0.57979
5813.23836,0.57926
5811.30961,0.57895
5809.38087,0.57892
5807.45212,0.57899
5805.52337,0.57860
5803.59463,0.57740
5801.66588,0.57610
5799.73714,0.57598
5797.80839,0.57720
5795.87965,0.57835
5793.95090,0.57843
5792.02216,0.57788
5790.09341,0.57738
5788.16467,0.57719
5786.23592,0.57706
5784.30718,0.57718
5782.37843,0.57835
5780.44969,0.57949
5778.52094,0.57891
5776.59220,0.57762
5774.66345,0.57733
5772.73470,0.57780
5770.80596,0.57788
5768.87721,0.57729
5766.94847,0.57694
5765.01972,0.57706
5763.09098,0.57676
5761.16223,0.57638
5759.23349,0.57675
5757.30474,0.57691
5755.37600,0.57638
5753.44725,0.57630
5751.51851,0.57642
5749.58976,0.57586
5747.66102,0.57512
5745.73227,0.57455
5743.80352,0.57470
5741.87478,0.57601
5739.94603,0.57696
5738.01729,0.57667
5736.08854,0.57643
5734.15980,0.57640
5732.23105,0.57584
5730.30231,0.57521
5728.37356,0.57475
5726.44482,0.57481
5724.51607,0.57624
5722.58733,0.57808
5720.65858,0.57808
5718.72984,0.57582
5716.80109,0.57338
5714.87235,0.57275
5712.94360,0.57385
5711.01485,0.57547
5709.08611,0.57622
5707.15736,0.57586
5705.22862,0.57568
5703.29987,0.57560
5701.37113,0.57469
5699.44238,0.57382
5697.51364,0.57369
5695.58489,0.57358
5693.65615,0.57342
5691.72740,0.57382
5689.79866,0.57415
5687.86991,0.57375
5685.94117,0.57326
5684.01242,0.57335
5682.08368,0.57382
5680.15493,0.57406
5678.22618,0.57357
5676.29744,0.57254
5674.36869,0.57133
5672.43995,0.57055
5670.51120,0.57077
5668.58246,0.57116
5666.65371,0.57101
5664.72497,0.57100
5662.79622,0.57177
5660.86748,0.57300
5658.93873,0.57376
5657.00999,0.57344
5655.08124,0.57270
5653.15250,0.57242
5651.22375,0.57236
5649.29500,0.57255
5647.36626,0.57318
5645.43751,0.57345
5643.50877,0.57288
5641.58002,0.57198
5639.65128,0.57159
5637.72253,0.57204
5635.79379,0.57263
5633.86504,0.57293
5631.93630,0.57286
5630.00755,0.57183
5628.07881,0.57060
5626.15006,0.57088
5624.22132,0.57183
5622.29257,0.57172
5620.36383,0.57106
5618.43508,0.57074
5616.50633,0.57058
5614.57759,0.57088
5612.64884,0.57179
5610.72010,0.57225
5608.79135,0.57210
5606.86261,0.57244
5604.93386,0.57298
5603.00512,0.57259
5601.07637,0.57160
5599.14763,0.57142
5597.21888,0.57193
5595.29014,0.57162
5593.36139,0.57058
5591.43265,0.57005
5589.50390,0.57015
5587.57516,0.57019
5585.64641,0.57016
5583.71766,0.57062
5581.78892,0.57142
5579.86017,0.57186
5577.93143,0.57195
5576.00268,0.57246
5574.07394,0.57333
5572.14519,0.57360
5570.21645,0.57358
5568.28770,0.57401
5566.35896,0.57424
5564.43021,0.57389
5562.50147,0.57309
5560.57272,0.57208
5558.64398,0.57158
5556.71523,0.57167
5554.78648,0.57221
5552.85774,0.57354
5550.92899,0.57500
5549.00025,0.57527
5547.07150,0.57452
5545.14276,0.57381
5543.21401,0.57349
5541.28527,0.57330
5539.35652,0.57297
5537.42778,0.57264
5535.49903,0.57253
5533.57029,0.57239
5531.64154,0.57189
5529.71280,0.57116
5527.78405,0.57094
5525.85531,0.57168
5523.92656,0.57222
5521.99781,0.57124
5520.06907,0.57006
5518.14032,0.57062
5516.21158,0.57209
5514.28283,0.57286
5512.35409,0.57320
5510.42534,0.57336
5508.49660,0.57282
5506.56785,0.57196
5504.63911,0.57169
5502.71036,0.57193
5500.78162,0.57192
5498.85287,0.57191
5496.92413,0.57211
5494.99538,0.57196
5493.06664,0.57179
5491.13789,0.57206
5489.20914,0.57271
5487.28040,0.57307
5485.35165,0.57225
5483.42291,0.57131
5481.49416,0.57168
5479.56542,0.57238
5477.63667,0.57213
5475.70793,0.57159
5473.77918,0.57174
5471.85044,0.57217
5469.92169,0.57266
5467.99295,0.57325
5466.06420,0.57300
5464.13546,0.57186
5462.20671,0.57104
5460.27796,0.57134
5458.34922,0.57270
5456.42047,0.57407
5454.49173,0.57450
5452.56298,0.57444
5450.63424,0.57413
5448.70549,0.57328
5446.77675,0.57272
5444.84800,0.57333
5442.91926,0.57455
5440.99051,0.57579
5439.06177,0.57677
5437.13302,0.57668
5435.20428,0.57545
5433.27553,0.57476
5431.34679,0.57558
5429.41804,0.57622
5427.48929,0.57574
5425.56055,0.57547
5423.63180,0.57603
5421.70306,0.57678
5419.77431,0.57730
5417.84557,0.57780
5415.91682,0.57807
5413.98808,0.57738
5412.05933,0.57624
5410.13059,0.57584
5408.20184,0.57686
5406.27310,0.57865
5404.34435,0.57969
5402.41561,0.57951
5400.48686,0.57908
5398.55811,0.57942
5396.62937,0.57998
5394.70062,0.57967
5392.77188,0.57896
5390.84313,0.57870
5388.91439,0.57902
5386.98564,0.57959
5385.05690,0.58010
5383.12815,0.58035
5381.19941,0.57986
5379.27066,0.57901
5377.34192,0.57905
5375.41317,0.57983
5373.48443,0.58026
5371.55568,0.58018
5369.62694,0.58003
5367.69819,0.57990
5365.76944,0.57982
5363.84070,0.58018
5361.91195,0.58113
5359.98321,0.58190
5358.05446,0.58185
5356.12572,0.58160
5354.19697,0.58180
5352.26823,0.58197
5350.33948,0.58154
5348.41074,0.58124
5346.48199,0.58173
5344.55325,0.58178
5342.62450,0.58072
5340.69576,0.57987
5338.76701,0.57997
5336.83827,0.58046
5334.90952,0.58091
5332.98077,0.58108
5331.05203,0.58116
5329.12328,0.58166
5327.19454,0.58206
5325.26579,0.58135
5323.33705,0.58045
5321.40830,0.58066
5319.47956,0.58101
5317.55081,0.58056
5315.62207,0.57998
5313.69332,0.57935
5311.76458,0.57833
5309.83583,0.57742
5307.90709,0.57728
5305.97834,0.57766
5304.04959,0.57778
5302.12085,0.57742
5300.19210,0.57687
5298.26336,0.57665
5296.33461,0.57678
5294.40587,0.57641
5292.47712,0.57550
5290.54838,0.57498
5288.61963,0.57483
5286.69089,0.57429
5284.76214,0.57352
5282.83340,0.57330
5280.90465,0.57351
5278.97591,0.57350
5277.04716,0.57326
5275.11842,0.57301
5273.18967,0.57248
5271.26092,0.57169
5269.33218,0.57105
5267.40343,0.57050
5265.47469,0.56991
5263.54594,0.56943
5261.61720,0.56847
5259.68845,0.56676
5257.75971,0.56540
5255.83096,0.56511
5253.90222,0.56523
5251.97347,0.56492
5250.04473,0.56408
5248.11598,0.56290
5246.18724,0.56156
5244.25849,0.56055
5242.32975,0.56001
5240.40100,0.55965
5238.47225,0.55918
5236.54351,0.55842
5234.61476,0.55748
5232.68602,0.55646
5230.75727,0.55584
5228.82853,0.55578
5226.89978,0.55536
5224.97104,0.55468
5223.04229,0.55462
5221.11355,0.55446
5219.18480,0.55374
5217.25606,0.55333
5215.32731,0.55294
5213.39857,0.55201
5211.46982,0.55140
5209.54107,0.55166
5207.61233,0.55199
5205.68358,0.55188
5203.75484,0.55173
5201.82609,0.55158
5199.89735,0.55096
5197.96860,0.55002
5196.03986,0.54971
5194.11111,0.55035
5192.18237,0.55119
5190.25362,0.55172
5188.32488,0.55174
5186.39613,0.55145
5184.46739,0.55134
5182.53864,0.55113
5180.60990,0.55073
5178.68115,0.55092
5176.75240,0.55158
5174.82366,0.55163
5172.89491,0.55097
5170.96617,0.55036
5169.03742,0.55020
5167.10868,0.55044
5165.17993,0.55037
5163.25119,0.54971
5161.32244,0.54945
5159.39370,0.55030
5157.46495,0.55161
5155.53621,0.55250
5153.60746,0.55292
5151.67872,0.55287
5149.74997,0.55237
5147.82123,0.55222
5145.89248,0.55250
5143.96373,0.55236
5142.03499,0.55212
5140.10624,0.55295
5138.17750,0.55439
5136.24875,0.55471
5134.32001,0.55392
5132.39126,0.55360
5130.46252,0.55416
5128.53377,0.55467
5126.60503,0.55459
5124.67628,0.55415
5122.74754,0.55367
5120.81879,0.55382
5118.89005,0.55483
5116.96130,0.55578
5115.03255,0.55619
5113.10381,0.55650
5111.17506,0.55682
5109.24632,0.55688
5107.31757,0.55665
5105.38883,0.55634
5103.46008,0.55618
5101.53134,0.55636
5099.60259,0.55674
5097.67385,0.55697
5095.74510,0.55695
5093.81636,0.55723
5091.88761,0.55794
5089.95887,0.55849
5088.03012,0.55889
5086.10138,0.55911
5084.17263,0.55882
5082.24388,0.55851
5080.31514,0.55883
5078.38639,0.55958
5076.45765,0.55998
5074.52890,0.55993
5072.60016,0.56000
5070.67141,0.55994
5068.74267,0.55952
5066.81392,0.55932
5064.88518,0.55939
5062.95643,0.55950
5061.02769,0.55988
5059.09894,0.56040
5057.17020,0.56060
5055.24145,0.56042
5053.31270,0.56024
5051.38396,0.56022
5049.45521,0.56032
5047.52647,0.56064
5045.59772,0.56070
5043.66898,0.56013
5041.74023,0.55971
5039.81149,0.55971
5037.88274,0.55990
5035.95400,0.56031
5034.02525,0.56041
5032.09651,0.55995
5030.16776,0.55948
5028.23902,0.55945
5026.31027,0.55976
5024.38153,0.55994
5022.45278,0.55976
5020.52403,0.55954
5018.59529,0.55948
5016.66654,0.55937
5014.73780,0.55900
5012.80905,0.55837
5010.88031,0.55782
5008.95156,0.55749
5007.02282,0.55716
5005.09407,0.55706
5003.16533,0.55727
5001.23658,0.55716
4999.30784,0.55687
4997.37909,0.55683
4995.45035,0.55670
4993.52160,0.55644
4991.59286,0.55643
4989.66411,0.55636
4987.73536,0.55594
4985.80662,0.55542
4983.87787,0.55464
4981.94913,0.55371
4980.02038,0.55317
4978.09164,0.55266
4976.16289,0.55188
4974.23415,0.55118
4972.30540,0.55042
4970.37666,0.54960
4968.44791,0.54924
4966.51917,0.54915
4964.59042,0.54886
4962.66168,0.54850
4960.73293,0.54792
4958.80418,0.54665
4956.87544,0.54498
4954.94669,0.54367
4953.01795,0.54284
4951.08920,0.54203
4949.16046,0.54113
4947.23171,0.54036
4945.30297,0.53938
4943.37422,0.53791
4941.44548,0.53642
4939.51673,0.53507
4937.58799,0.53368
4935.65924,0.53244
4933.73050,0.53134
4931.80175,0.53035
4929.87301,0.52952
4927.94426,0.52824
4926.01551,0.52615
4924.08677,0.52410
4922.15802,0.52254
4920.22928,0.52108
4918.30053,0.51961
4916.37179,0.51797
4914.44304,0.51586
4912.51430,0.51361
4910.58555,0.51188
4908.65681,0.51047
4906.72806,0.50878
4904.79932,0.50719
4902.87057,0.50600
4900.94183,0.50453
4899.01308,0.50255
4897.08434,0.50059
4895.15559,0.49865
4893.22684,0.49631
4891.29810,0.49393
4889.36935,0.49216
4887.44061,0.49096
4885.51186,0.48973
4883.58312,0.48799
4881.65437,0.48596
4879.72563,0.48397
4877.79688,0.48194
4875.86814,0.48008
4873.93939,0.47845
4872.01065,0.47653
4870.08190,0.47433
4868.15316,0.47246
4866.22441,0.47114
4864.29566,0.46996
4862.36692,0.46853
4860.43817,0.46725
4858.50943,0.46650
4856.58068,0.46558
4854.65194,0.46395
4852.72319,0.46196
4850.79445,0.46002
4848.86570,0.45820
4846.93696,0.45630
4845.00821,0.45440
4843.07947,0.45328
4841.15072,0.45284
4839.22198,0.45163
4837.29323,0.44956
4835.36449,0.44766
4833.43574,0.44621
4831.50699,0.44494
4829.57825,0.44346
4827.64950,0.44159
4825.72076,0.43969
4823.79201,0.43827
4821.86327,0.43725
4819.93452,0.43603
4818.00578,0.43462
4816.07703,0.43333
4814.14829,0.43229
4812.21954,0.43160
4810.29080,0.43088
4808.36205,0.42988
4806.43331,0.42896
4804.50456,0.42813
4802.57582,0.42706
4800.64707,0.42594
4798.71832,0.42511
4796.78958,0.42428
4794.86083,0.42350
4792.93209,0.42313
4791.00334,0.42296
4789.07460,0.42266
4787.14585,0.42230
4785.21711,0.42191
4783.28836,0.42128
4781.35962,0.42060
4779.43087,0.41998
4777.50213,0.41922
4775.57338,0.41835
4773.64464,0.41750
4771.71589,0.41692
4769.78714,0.41671
4767.85840,0.41653
4765.92965,0.41634
4764.00091,0.41639
4762.07216,0.41630
4760.14342,0.41584
4758.21467,0.41557
4756.28593,0.41553
4754.35718,0.41529
4752.42844,0.41509
4750.49969,0.41531
4748.57095,0.41574
4746.64220,0.41597
4744.71346,0.41623
4742.78471,0.41674
4740.85597,0.41700
4738.92722,0.41703
4736.99847,0.41744
4735.06973,0.41802
4733.14098,0.41839
4731.21224,0.41854
4729.28349,0.41861
4727.35475,0.41907
4725.42600,0.42006
4723.49726,0.42142
4721.56851,0.42287
4719.63977,0.42384
4717.71102,0.42435
4715.78228,0.42507
4713.85353,0.42603
4711.92479,0.42674
4709.99604,0.42725
4708.06729,0.42783
4706.13855,0.42836
4704.20980,0.42874
4702.28106,0.42930
4700.35231,0.43038
4698.42357,0.43150
4696.49482,0.43224
4694.56608,0.43321
4692.63733,0.43441
4690.70859,0.43540
4688.77984,0.43643
4686.85110,0.43757
4684.92235,0.43851
4682.99361,0.43935
4681.06486,0.44014
4679.13612,0.44044
4677.20737,0.44047
4675.27862,0.44097
4673.34988,0.44188
4671.42113,0.44287
4669.49239,0.44385
4667.56364,0.44490
4665.63490,0.44596
4663.70615,0.44669
4661.77741,0.44717
4659.84866,0.44774
4657.91992,0.44839
4655.99117,0.44929
4654.06243,0.45058
4652.13368,0.45186
4650.20494,0.45269
4648.27619,0.45300
4646.34745,0.45309
4644.41870,0.45345
4642.48995,0.45417
4640.56121,0.45488
4638.63246,0.45554
4636.70372,0.45631
4634.77497,0.45730
4632.84623,0.45881
4630.91748,0.46037
4628.98874,0.46102
4627.05999,0.46097
4625.13125,0.46117
4623.20250,0.46175
4621.27376,0.46230
4619.34501,0.46260
4617.41627,0.46296
4615.48752,0.46395
4613.55877,0.46552
4611.63003,0.46691
4609.70128,0.46773
4607.77254,0.46831
4605.84379,0.46904
4603.91505,0.46984
4601.98630,0.47050
4600.05756,0.47099
4598.12881,0.47130
4596.20007,0.47156
4594.27132,0.47209
4592.34258,0.47300
4590.41383,0.47421
4588.48509,0.47538
4586.55634,0.47609
4584.62760,0.47647
4582.69885,0.47708
4580.77010,0.47800
4578.84136,0.47882
4576.91261,0.47951
4574.98387,0.48047
4573.05512,0.48174
4571.12638,0.48268
4569.19763,0.48304
4567.26889,0.48340
4565.34014,0.48400
4563.41140,0.48468
4561.48265,0.48552
4559.55391,0.48642
4557.62516,0.48699
4555.69642,0.48719
4553.76767,0.48753
4551.83893,0.48845
4549.91018,0.48948
4547.98143,0.48990
4546.05269,0.49014
4544.12394,0.49093
4542.19520,0.49190
4540.26645,0.49262
4538.33771,0.49302
4536.40896,0.49321
4534.48022,0.49334
4532.55147,0.49346
4530.62273,0.49379
4528.69398,0.49445
4526.76524,0.49506
4524.83649,0.49549
4522.90775,0.49614
4520.97900,0.49693
4519.05025,0.49733
4517.12151,0.49730
4515.19276,0.49744
4513.26402,0.49793
4511.33527,0.49818
4509.40653,0.49804
4507.47778,0.49795
4505.54904,0.49801
4503.62029,0.49825
4501.69155,0.49880
4499.76280,0.49943
4497.83406,0.49974
4495.90531,0.49967
4493.97657,0.49977
4492.04782,0.50008
4490.11908,0.50003
4488.19033,0.49980
4486.26158,0.49989
4484.33284,0.50002
4482.40409,0.49971
4480.47535,0.49916
4478.54660,0.49885
4476.61786,0.49897
4474.68911,0.49942
4472.76037,0.49968
4470.83162,0.49912
4468.90288,0.49802
4466.97413,0.49700
4465.04539,0.49617
4463.11664,0.49564
4461.18790,0.49529
4459.25915,0.49459
4457.33041,0.49335
4455.40166,0.49200
4453.47291,0.49081
4451.54417,0.48943
4449.61542,0.48753
4447.68668,0.48548
4445.75793,0.48354
4443.82919,0.48136
4441.90044,0.47919
4439.97170,0.47741
4438.04295,0.47543
4436.11421,0.47292
4434.18546,0.47036
4432.25672,0.46801
4430.32797,0.46573
4428.39923,0.46323
4426.47048,0.46020
4424.54173,0.45679
4422.61299,0.45362
4420.68424,0.45069
4418.75550,0.44757
4416.82675,0.44428
4414.89801,0.44103
4412.96926,0.43791
4411.04052,0.43502
4409.11177,0.43245
4407.18303,0.43027
4405.25428,0.42817
4403.32554,0.42593
4401.39679,0.42412
4399.46805,0.42333
4397.53930,0.42323
4395.61056,0.42327
4393.68181,0.42339
4391.75306,0.42415
4389.82432,0.42567
4387.89557,0.42710
4385.96683,0.42796
4384.03808,0.42889
4382.10934,0.43028
4380.18059,0.43174
4378.25185,0.43288
4376.32310,0.43378
4374.39436,0.43481
4372.46561,0.43615
4370.53687,0.43741
4368.60812,0.43800
4366.67938,0.43799
4364.75063,0.43795
4362.82189,0.43800
4360.89314,0.43793
4358.96439,0.43772
4357.03565,0.43744
4355.10690,0.43708
4353.17816,0.43654
4351.24941,0.43568
4349.32067,0.43453
4347.39192,0.43371
4345.46318,0.43338
4343.53443,0.43284
4341.60569,0.43193
4339.67694,0.43090
4337.74820,0.42994
4335.81945,0.42915
4333.89071,0.42819
4331.96196,0.42672
4330.03321,0.42505
4328.10447,0.42373
4326.17572,0.42270
4324.24698,0.42151
4322.31823,0.42004
4320.38949,0.41857
4318.46074,0.41758
4316.53200,0.41712
4314.60325,0.41651
4312.67451,0.41534
4310.74576,0.41402
4308.81702,0.41304
4306.88827,0.41231
4304.95953,0.41142
4303.03078,0.41021
4301.10204,0.40887
4299.17329,0.40771
4297.24454,0.40689
4295.31580,0.40648
4293.38705,0.40611
4291.45831,0.40525
4289.52956,0.40395
4287.60082,0.40256
4285.67207,0.40146
4283.74333,0.40062
4281.81458,0.39990
4279.88584,0.39949
4277.95709,0.39936
4276.02835,0.39917
4274.09960,0.39884
4272.17086,0.39850
4270.24211,0.39840
4268.31336,0.39867
4266.38462,0.39912
4264.45587,0.39944
4262.52713,0.39959
4260.59838,0.39978
4258.66964,0.40005
4256.74089,0.40016
4254.81215,0.40029
4252.88340,0.40076
4250.95466,0.40134
4249.02591,0.40156
4247.09717,0.40141
4245.16842,0.40142
4243.23968,0.40167
4241.31093,0.40196
4239.38219,0.40262
4237.45344,0.40344
4235.52469,0.40393
4233.59595,0.40431
4231.66720,0.40477
4229.73846,0.40506
4227.80971,0.40518
4225.88097,0.40530
4223.95222,0.40548
4222.02348,0.40582
4220.09473,0.40619
4218.16599,0.40650
4216.23724,0.40686
4214.30850,0.40711
4212.37975,0.40755
4210.45101,0.40861
4208.52226,0.40977
4206.59352,0.41063
4204.66477,0.41155
4202.73602,0.41255
4200.80728,0.41334
4198.87853,0.41393
4196.94979,0.41459
4195.02104,0.41523
4193.09230,0.41543
4191.16355,0.41518
4189.23481,0.41489
4187.30606,0.41495
4185.37732,0.41520
4183.44857,0.41523
4181.51983,0.41527
4179.59108,0.41551
4177.66234,0.41580
4175.73359,0.41610
4173.80484,0.41652
4171.87610,0.41735
4169.94735,0.41841
4168.01861,0.41911
4166.08986,0.41944
4164.16112,0.41986
4162.23237,0.42032
4160.30363,0.42056
4158.37488,0.42060
4156.44614,0.42043
4154.51739,0.42000
4152.58865,0.41962
4150.65990,0.41914
4148.73116,0.41825
4146.80241,0.41751
4144.87367,0.41724
4142.94492,0.41696
4141.01617,0.41655
4139.08743,0.41617
4137.15868,0.41592
4135.22994,0.41592
4133.30119,0.41587
4131.37245,0.41521
4129.44370,0.41421
4127.51496,0.41347
4125.58621,0.41288
4123.65747,0.41199
4121.72872,0.41045
4119.79998,0.40868
4117.87123,0.40728
4115.94249,0.40608
4114.01374,0.40474
4112.08500,0.40325
4110.15625,0.40153
4108.22750,0.39949
4106.29876,0.39757
4104.37001,0.39597
4102.44127,0.39410
4100.51252,0.39163
4098.58378,0.38893
4096.65503,0.38638
4094.72629,0.38397
4092.79754,0.38175
4090.86880,0.37966
4088.94005,0.37743
4087.01131,0.37520
4085.08256,0.37341
4083.15382,0.37197
4081.22507,0.37026
4079.29632,0.36788
4077.36758,0.36515
4075.43883,0.36267
4073.51009,0.36069
4071.58134,0.35888
4069.65260,0.35683
4067.72385,0.35430
4065.79511,0.35138
4063.86636,0.34849
4061.93762,0.34590
4060.00887,0.34350
4058.08013,0.34108
4056.15138,0.33844
4054.22264,0.33558
4052.29389,0.33279
4050.36515,0.33031
4048.43640,0.32793
4046.50765,0.32556
4044.57891,0.32338
4042.65016,0.32132
4040.72142,0.31920
4038.79267,0.31731
4036.86393,0.31581
4034.93518,0.31441
4033.00644,0.31322
4031.07769,0.31237
4029.14895,0.31153
4027.22020,0.31068
4025.29146,0.31027
4023.36271,0.31045
4021.43397,0.31089
4019.50522,0.31110
4017.57648,0.31115
4015.64773,0.31151
4013.71898,0.31199
4011.79024,0.31234
4009.86149,0.31305
4007.93275,0.31435
4006.00400,0.31570
4004.07526,0.31685
4002.14651,0.31817
4000.21777,0.31975
3998.28902,0.32110
3996.36028,0.32205
3994.43153,0.32288
3992.50279,0.32375
3990.57404,0.32475
3988.64530,0.32576
3986.71655,0.32646
3984.78780,0.32707
3982.85906,0.32807
3980.93031,0.32912
3979.00157,0.32996
3977.07282,0.33067
3975.14408,0.33116
3973.21533,0.33160
3971.28659,0.33241
3969.35784,0.33349
3967.42910,0.33435
3965.50035,0.33498
3963.57161,0.33580
3961.64286,0.33710
3959.71412,0.33856
3957.78537,0.33954
3955.85663,0.34018
3953.92788,0.34106
3951.99913,0.34210
3950.07039,0.34293
3948.14164,0.34357
3946.21290,0.34443
3944.28415,0.34566
3942.35541,0.34694
3940.42666,0.34805
3938.49792,0.34932
3936.56917,0.35090
3934.64043,0.35236
3932.71168,0.35352
3930.78294,0.35458
3928.85419,0.35550
3926.92545,0.35641
3924.99670,0.35757
3923.06795,0.35891
3921.13921,0.35995
3919.21046,0.36068
3917.28172,0.36142
3915.35297,0.36212
3913.42423,0.36268
3911.49548,0.36329
3909.56674,0.36406
3907.63799,0.36496
3905.70925,0.36583
3903.78050,0.36662
3901.85176,0.36743
3899.92301,0.36821
3897.99427,0.36880
3896.06552,0.36925
3894.13678,0.36976
3892.20803,0.37050
3890.27928,0.37143
3888.35054,0.37233
3886.42179,0.37319
3884.49305,0.37405
3882.56430,0.37456
3880.63556,0.37474
3878.70681,0.37505
3876.77807,0.37555
3874.84932,0.37610
3872.92058,0.37674
3870.99183,0.37765
3869.06309,0.37890
3867.13434,0.38031
3865.20560,0.38187
3863.27685,0.38365
3861.34811,0.38544
3859.41936,0.38704
3857.49061,0.38847
3855.56187,0.38978
3853.63312,0.39113
3851.70438,0.39245
3849.77563,0.39355
3847.84689,0.39448
3845.91814,0.39542
3843.98940,0.39654
3842.06065,0.39789
3840.13191,0.39925
3838.20316,0.40023
3836.27442,0.40079
3834.34567,0.40116
3832.41693,0.40154
3830.48818,0.40197
3828.55943,0.40242
3826.63069,0.40288
3824.70194,0.40335
3822.77320,0.40366
3820.84445,0.40370
3818.91571,0.40366
3816.98696,0.40354
3815.05822,0.40319
3813.12947,0.40306
3811.20073,0.40337
3809.27198,0.40375
3807.34324,0.40391
3805.41449,0.40401
3803.48575,0.40439
3801.55700,0.40492
3799.62826,0.40530
3797.69951,0.40569
3795.77076,0.40628
3793.84202,0.40691
3791.91327,0.40736
3789.98453,0.40757
3788.05578,0.40761
3786.12704,0.40768
3784.19829,0.40795
3782.26955,0.40830
3780.34080,0.40846
3778.41206,0.40838
3776.48331,0.40821
3774.55457,0.40802
3772.62582,0.40791
3770.69708,0.40813
3768.76833,0.40835
3766.83959,0.40827
3764.91084,0.40806
3762.98209,0.40785
3761.05335,0.40762
3759.12460,0.40737
3757.19586,0.40711
3755.26711,0.40696
3753.33837,0.40687
3751.40962,0.40661
3749.48088,0.40616
3747.55213,0.40563
3745.62339,0.40508
3743.69464,0.40473
3741.76590,0.40445
3739.83715,0.40372
3737.90841,0.40267
3735.97966,0.40192
3734.05091,0.40140
3732.12217,0.40076
3730.19342,0.39992
3728.26468,0.39886
3726.33593,0.39778
3724.40719,0.39678
3722.47844,0.39570
3720.54970,0.39449
3718.62095,0.39313
3716.69221,0.39156
3714.76346,0.38993
3712.83472,0.38837
3710.90597,0.38676
3708.97723,0.38492
3707.04848,0.38286
3705.11974,0.38100
3703.19099,0.37952
3701.26224,0.37790
3699.33350,0.37579
3697.40475,0.37351
3695.47601,0.37125
3693.54726,0.36876
3691.61852,0.36607
3689.68977,0.36345
3687.76103,0.36083
3685.83228,0.35799
3683.90354,0.35484
3681.97479,0.35128
3680.04605,0.34736
3678.11730,0.34352
3676.18856,0.33984
3674.25981,0.33602
3672.33107,0.33211
3670.40232,0.32801
3668.47357,0.32361
3666.54483,0.31913
3664.61608,0.31463
3662.68734,0.30999
3660.75859,0.30510
3658.82985,0.29997
3656.90110,0.29470
3654.97236,0.28942
3653.04361,0.28441
3651.11487,0.27960
3649.18612,0.27463
3647.25738,0.26953
3645.32863,0.26451
3643.39989,0.25948
3641.47114,0.25426
3639.54239,0.24888
3637.61365,0.24355
3635.68490,0.23838
3633.75616,0.23330
3631.82741,0.22814
3629.89867,0.22270
3627.96992,0.21719
3626.04118,0.21184
3624.11243,0.20646
3622.18369,0.20103
3620.25494,0.19559
3618.32620,0.18987
3616.39745,0.18403
3614.46871,0.17846
3612.53996,0.17325
3610.61122,0.16815
3608.68247,0.16300
3606.75372,0.15798
3604.82498,0.15304
3602.89623,0.14819
3600.96749,0.14367
3599.03874,0.13927
3597.11000,0.13485
3595.18125,0.13047
3593.25251,0.12620
3591.32376,0.12227
3589.39502,0.11876
3587.46627,0.11538
3585.53753,0.11184
3583.60878,0.10814
3581.68004,0.10464
3579.75129,0.10166
3577.82254,0.09899
3575.89380,0.09622
3573.96505,0.09348
3572.03631,0.09098
3570.10756,0.08848
3568.17882,0.08577
3566.25007,0.08313
3564.32133,0.08088
3562.39258,0.07880
3560.46384,0.07673
3558.53509,0.07479
3556.60635,0.07296
3554.67760,0.07108
3552.74886,0.06907
3550.82011,0.06708
3548.89137,0.06521
3546.96262,0.06366
3545.03387,0.06234
3543.10513,0.06081
3541.17638,0.05928
3539.24764,0.05809
3537.31889,0.05686
3535.39015,0.05537
3533.46140,0.05393
3531.53266,0.05274
3529.60391,0.05170
3527.67517,0.05060
3525.74642,0.04930
3523.81768,0.04804
3521.88893,0.04701
3519.96019,0.04616
3518.03144,0.04537
3516.10270,0.04444
3514.17395,0.04333
3512.24520,0.04234
3510.31646,0.04159
3508.38771,0.04078
3506.45897,0.03970
3504.53022,0.03876
3502.60148,0.03832
3500.67273,0.03807
3498.74399,0.03755
3496.81524,0.03686
3494.88650,0.03616
3492.95775,0.03543
3491.02901,0.03488
3489.10026,0.03449
3487.17152,0.03408
3485.24277,0.03353
3483.31402,0.03277
3481.38528,0.03215
3479.45653,0.03184
3477.52779,0.03182
3475.59904,0.03200
3473.67030,0.03203
3471.74155,0.03166
3469.81281,0.03115
3467.88406,0.03079
3465.95532,0.03065
3464.02657,0.03075
3462.09783,0.03093
3460.16908,0.03098
3458.24034,0.03087
3456.31159,0.03067
3454.38285,0.03046
3452.45410,0.03037
3450.52535,0.03026
3448.59661,0.03021
3446.66786,0.03032
3444.73912,0.03033
3442.81037,0.03024
3440.88163,0.03026
3438.95288,0.03008
3437.02414,0.02964
3435.09539,0.02962
3433.16665,0.02989
3431.23790,0.02984
3429.30916,0.02971
3427.38041,0.02968
3425.45167,0.02964
3423.52292,0.02971
3421.59418,0.02986
3419.66543,0.02978
3417.73668,0.02958
3415.80794,0.02956
3413.87919,0.02964
3411.95045,0.02968
3410.02170,0.02976
3408.09296,0.02991
3406.16421,0.03024
3404.23547,0.03066
3402.30672,0.03076
3400.37798,0.03059
3398.44923,0.03066
3396.52049,0.03085
3394.59174,0.03076
3392.66300,0.03067
3390.73425,0.03092
3388.80550,0.03132
3386.87676,0.03152
3384.94801,0.03133
3383.01927,0.03113
3381.09052,0.03116
3379.16178,0.03111
3377.23303,0.03104
3375.30429,0.03124
3373.37554,0.03151
3371.44680,0.03163
3369.51805,0.03150
3367.58931,0.03140
3365.66056,0.03154
3363.73182,0.03170
3361.80307,0.03191
3359.87433,0.03247
3357.94558,0.03302
3356.01683,0.03331
3354.08809,0.03365
3352.15934,0.03420
3350.23060,0.03479
3348.30185,0.03540
3346.37311,0.03613
3344.44436,0.03685
3342.51562,0.03742
3340.58687,0.03805
3338.65813,0.03874
3336.72938,0.03910
3334.80064,0.03917
3332.87189,0.03933
3330.94315,0.03961
3329.01440,0.03970
3327.08566,0.03977
3325.15691,0.04004
3323.22816,0.04023
3321.29942,0.03999
3319.37067,0.03956
3317.44193,0.03922
3315.51318,0.03901
3313.58444,0.03880
3311.65569,0.03851
3309.72695,0.03845
3307.79820,0.03888
3305.86946,0.03949
3303.94071,0.03980
3302.01197,0.03979
3300.08322,0.03967
3298.15448,0.03961
3296.22573,0.03967
3294.29698,0.03988
3292.36824,0.04036
3290.43949,0.04097
3288.51075,0.04117
3286.58200,0.04087
3284.65326,0.04080
3282.72451,0.04138
3280.79577,0.04207
3278.86702,0.04238
3276.93828,0.04248
3275.00953,0.04262
3273.08079,0.04274
3271.15204,0.04291
3269.22330,0.04345
3267.29455,0.04419
3265.36581,0.04471
3263.43706,0.04502
3261.50831,0.04531
3259.57957,0.04567
3257.65082,0.04594
3255.72208,0.04618
3253.79333,0.04676
3251.86459,0.04744
3249.93584,0.04784
3248.00710,0.04808
3246.07835,0.04821
3244.14961,0.04836
3242.22086,0.04886
3240.29212,0.04969
3238.36337,0.05040
3236.43463,0.05077
3234.50588,0.05121
3232.57713,0.05204
3230.64839,0.05299
3228.71964,0.05358
3226.79090,0.05384
3224.86215,0.05427
3222.93341,0.05496
3221.00466,0.05574
3219.07592,0.05656
3217.14717,0.05720
3215.21843,0.05759
3213.28968,0.05814
3211.36094,0.05907
3209.43219,0.06016
3207.50345,0.06109
3205.57470,0.06159
3203.64596,0.06183
3201.71721,0.06238
3199.78846,0.06346
3197.85972,0.06476
3195.93097,0.06581
3194.00223,0.06661
3192.07348,0.06748
3190.14474,0.06837
3188.21599,0.06907
3186.28725,0.06966
3184.35850,0.07033
3182.42976,0.07126
3180.50101,0.07231
3178.57227,0.07329
3176.64352,0.07441
3174.71478,0.07543
3172.78603,0.07606
3170.85729,0.07680
3168.92854,0.07786
3166.99979,0.07902
3165.07105,0.08016
3163.14230,0.08101
3161.21356,0.08156
3159.28481,0.08233
3157.35607,0.08352
3155.42732,0.08478
3153.49858,0.08599
3151.56983,0.08729
3149.64109,0.08851
3147.71234,0.08939
3145.78360,0.09022
3143.85485,0.09151
3141.92611,0.09304
3139.99736,0.09421
3138.06861,0.09501
3136.13987,0.09594
3134.21112,0.09713
3132.28238,0.09812
3130.35363,0.09880
3128.42489,0.09964
3126.49614,0.10097
3124.56740,0.10238
3122.63865,0.10346
3120.70991,0.10453
3118.78116,0.10587
3116.85242,0.10729
3114.92367,0.10867
3112.99493,0.10997
3111.06618,0.11134
3109.13744,0.11294
3107.20869,0.11436
3105.27994,0.11538
3103.35120,0.11649
3101.42245,0.11785
3099.49371,0.11922
3097.56496,0.12043
3095.63622,0.12144
3093.70747,0.12237
3091.77873,0.12346
3089.84998,0.12476
3087.92124,0.12619
3085.99249,0.12750
3084.06375,0.12866
3082.13500,0.12994
3080.20626,0.13142
3078.27751,0.13294
3076.34877,0.13433
3074.42002,0.13558
3072.49127,0.13677
3070.56253,0.13791
3068.63378,0.13907
3066.70504,0.14032
3064.77629,0.14156
3062.84755,0.14264
3060.91880,0.14354
3058.99006,0.14440
3057.06131,0.14529
3055.13257,0.14614
3053.20382,0.14696
3051.27508,0.14785
3049.34633,0.14872
3047.41759,0.14947
3045.48884,0.15032
3043.56009,0.15142
3041.63135,0.15253
3039.70260,0.15351
3037.77386,0.15445
3035.84511,0.15519
3033.91637,0.15569
3031.98762,0.15629
3030.05888,0.15708
3028.13013,0.15782
3026.20139,0.15844
3024.27264,0.15898
3022.34390,0.15960
3020.41515,0.16034
3018.48641,0.16086
3016.55766,0.16111
3014.62892,0.16142
3012.70017,0.16172
3010.77142,0.16193
3008.84268,0.16233
3006.91393,0.16276
3004.98519,0.16257
3003.05644,0.16170
3001.12770,0.16055
2999.19895,0.15943
2997.27021,0.15834
2995.34146,0.15707
2993.41272,0.15534
2991.48397,0.15303
2989.55523,0.15041
2987.62648,0.14767
2985.69774,0.14442
2983.76899,0.14025
2981.84025,0.13506
2979.91150,0.12903
2977.98275,0.12249
2976.05401,0.11585
2974.12526,0.10913
2972.19652,0.10234
2970.26777,0.09653
2968.33903,0.09289
2966.41028,0.09152
2964.48154,0.09155
2962.55279,0.09169
2960.62405,0.09106
2958.69530,0.08973
2956.76656,0.08791
2954.83781,0.08554
2952.90907,0.08295
2950.98032,0.08053
2949.05157,0.07835
2947.12283,0.07637
2945.19408,0.07474
2943.26534,0.07385
2941.33659,0.07367
2939.40785,0.07369
2937.47910,0.07365
2935.55036,0.07345
2933.62161,0.07288
2931.69287,0.07192
2929.76412,0.07072
2927.83538,0.06934
2925.90663,0.06778
2923.97789,0.06624
2922.04914,0.06492
2920.12040,0.06349
2918.19165,0.06168
2916.26290,0.05999
2914.33416,0.05876
2912.40541,0.05769
2910.47667,0.05665
2908.54792,0.05589
2906.61918,0.05546
2904.69043,0.05507
2902.76169,0.05470
2900.83294,0.05468
2898.90420,0.05517
2896.97545,0.05607
2895.04671,0.05716
2893.11796,0.05817
2891.18922,0.05898
2889.26047,0.05973
2887.33172,0.06063
2885.40298,0.06183
2883.47423,0.06295
2881.54549,0.06346
2879.61674,0.06367
2877.68800,0.06413
2875.75925,0.06479
2873.83051,0.06521
2871.90176,0.06526
2869.97302,0.06534
2868.04427,0.06569
2866.11553,0.06628
2864.18678,0.06715
2862.25804,0.06825
2860.32929,0.06930
2858.40055,0.07007
2856.47180,0.07080
2854.54305,0.07187
2852.61431,0.07324
2850.68556,0.07492
2848.75682,0.07704
2846.82807,0.07962
2844.89933,0.08260
2842.97058,0.08559
2841.04184,0.08830
2839.11309,0.09082
2837.18435,0.09337
2835.25560,0.09597
2833.32686,0.09839
2831.39811,0.10049
2829.46937,0.10234
2827.54062,0.10416
2825.61188,0.10606
2823.68313,0.10791
2821.75438,0.10980
2819.82564,0.11200
2817.89689,0.11449
2815.96815,0.11700
2814.03940,0.11935
2812.11066,0.12146
2810.18191,0.12339
2808.25317,0.12518
2806.32442,0.12689
2804.39568,0.12858
2802.46693,0.13034
2800.53819,0.13206
2798.60944,0.13348
2796.68070,0.13463
2794.75195,0.13573
2792.82320,0.13678
2790.89446,0.13753
2788.96571,0.13794
2787.03697,0.13834
2785.10822,0.13885
2783.17948,0.13930
2781.25073,0.13966
2779.32199,0.13992
2777.39324,0.14012
2775.46450,0.14044
2773.53575,0.14077
2771.60701,0.14097
2769.67826,0.14107
2767.74952,0.14121
2765.82077,0.14156
2763.89203,0.14201
2761.96328,0.14232
2760.03453,0.14247
2758.10579,0.14252
2756.17704,0.14259
2754.24830,0.14278
2752.31955,0.14298
2750.39081,0.14294
2748.46206,0.14279
2746.53332,0.14272
2744.60457,0.14255
2742.67583,0.14212
2740.74708,0.14174
2738.81834,0.14156
2736.88959,0.14150
2734.96085,0.14168
2733.03210,0.14221
2731.10336,0.14298
2729.17461,0.14371
2727.24586,0.14421
2725.31712,0.14457
2723.38837,0.14488
2721.45963,0.14520
2719.53088,0.14576
2717.60214,0.14660
2715.67339,0.14736
2713.74465,0.14808
2711.81590,0.14919
2709.88716,0.15062
2707.95841,0.15199
2706.02967,0.15323
2704.10092,0.15451
2702.17218,0.15598
2700.24343,0.15755
2698.31468,0.15899
2696.38594,0.16030
2694.45719,0.16172
2692.52845,0.16333
2690.59970,0.16497
2688.67096,0.16657
2686.74221,0.16815
2684.81347,0.16954
2682.88472,0.17068
2680.95598,0.17171
2679.02723,0.17279
2677.09849,0.17384
2675.16974,0.17474
2673.24100,0.17566
2671.31225,0.17658
2669.38351,0.17715
2667.45476,0.17739
2665.52601,0.17768
2663.59727,0.17812
2661.66852,0.17864
2659.73978,0.17918
2657.81103,0.17980
2655.88229,0.18073
2653.95354,0.18184
2652.02480,0.18279
2650.09605,0.18355
2648.16731,0.18434
2646.23856,0.18532
2644.30982,0.18638
2642.38107,0.18728
2640.45233,0.18795
2638.52358,0.18866
2636.59484,0.18964
2634.66609,0.19068
2632.73734,0.19157
2630.80860,0.19230
2628.87985,0.19300
2626.95111,0.19378
2625.02236,0.19463
2623.09362,0.19545
2621.16487,0.19631
2619.23613,0.19718
2617.30738,0.19795
2615.37864,0.19853
2613.44989,0.19883
2611.52115,0.19910
2609.59240,0.19964
2607.66366,0.20040
2605.73491,0.20120
2603.80616,0.20195
2601.87742,0.20263
2599.94867,0.20329
2598.01993,0.20402
2596.09118,0.20479
2594.16244,0.20543
2592.23369,0.20585
2590.30495,0.20619
2588.37620,0.20664
2586.44746,0.20708
2584.51871,0.20740
2582.58997,0.20758
2580.66122,0.20756
2578.73248,0.20752
2576.80373,0.20779
2574.87499,0.20811
2572.94624,0.20794
2571.01749,0.20740
2569.08875,0.20692
2567.16000,0.20656
2565.23126,0.20623
2563.30251,0.20583
2561.37377,0.20529
2559.44502,0.20472
2557.51628,0.20425
2555.58753,0.20385
2553.65879,0.20354
2551.73004,0.20327
2549.80130,0.20287
2547.87255,0.20237
2545.94381,0.20193
2544.01506,0.20169
2542.08631,0.20166
2540.15757,0.20169
2538.22882,0.20175
2536.30008,0.20187
2534.37133,0.20200
2532.44259,0.20223
2530.51384,0.20269
2528.58510,0.20336
2526.65635,0.20394
2524.72761,0.20427
2522.79886,0.20458
2520.87012,0.20489
2518.94137,0.20507
2517.01263,0.20532
2515.08388,0.20594
2513.15514,0.20689
2511.22639,0.20808
2509.29764,0.20948
2507.36890,0.21109
2505.44015,0.21278
2503.51141,0.21437
2501.58266,0.21595
2499.65392,0.21775
2497.72517,0.21955
2495.79643,0.22111
2493.86768,0.22250
2491.93894,0.22379
2490.01019,0.22496
2488.08145,0.22604
2486.15270,0.22701
2484.22396,0.22791
2482.29521,0.22880
2480.36647,0.22971
2478.43772,0.23074
2476.50897,0.23189
2474.58023,0.23302
2472.65148,0.23403
2470.72274,0.23496
2468.79399,0.23581
2466.86525,0.23659
2464.93650,0.23724
2463.00776,0.23773
2461.07901,0.23808
2459.15027,0.23835
2457.22152,0.23879
2455.29278,0.23950
2453.36403,0.24045
2451.43529,0.24156
2449.50654,0.24259
2447.57779,0.24341
2445.64905,0.24429
2443.72030,0.24544
2441.79156,0.24666
2439.86281,0.24779
2437.93407,0.24893
2436.00532,0.25028
2434.07658,0.25175
2432.14783,0.25312
2430.21909,0.25442
2428.29034,0.25564
2426.36160,0.25680
2424.43285,0.25808
2422.50411,0.25956
2420.57536,0.26108
2418.64662,0.26234
2416.71787,0.26335
2414.78912,0.26429
2412.86038,0.26528
2410.93163,0.26626
2409.00289,0.26723
2407.07414,0.26829
2405.14540,0.26941
2403.21665,0.27040
2401.28791,0.27120
2399.35916,0.27198
2397.43042,0.27288
2395.50167,0.27390
2393.57293,0.27492
2391.64418,0.27588
2389.71544,0.27685
2387.78669,0.27784
2385.85795,0.27875
2383.92920,0.27964
2382.00045,0.28072
2380.07171,0.28204
2378.14296,0.28344
2376.21422,0.28480
2374.28547,0.28602
2372.35673,0.28721
2370.42798,0.28857
2368.49924,0.28996
2366.57049,0.29098
2364.64175,0.29167
2362.71300,0.29237
2360.78426,0.29326
2358.85551,0.29418
2356.92677,0.29497
2354.99802,0.29572
2353.06927,0.29655
2351.14053,0.29742
2349.21178,0.29843
2347.28304,0.29965
2345.35429,0.30089
2343.42555,0.30178
2341.49680,0.30239
2339.56806,0.30323
2337.63931,0.30425
2335.71057,0.30499
2333.78182,0.30554
2331.85308,0.30626
2329.92433,0.30720
2327.99559,0.30813
2326.06684,0.30890
2324.13810,0.30951
2322.20935,0.31010
2320.28060,0.31076
2318.35186,0.31133
2316.42311,0.31171
2314.49437,0.31213
2312.56562,0.31259
2310.63688,0.31286
2308.70813,0.31287
2306.77939,0.31271
2304.85064,0.31242
2302.92190,0.31200
2300.99315,0.31152
2299.06441,0.31097
2297.13566,0.31026
2295.20692,0.30958
2293.27817,0.30911
2291.34943,0.30876
2289.42068,0.30845
2287.49193,0.30824
2285.56319,0.30813
2283.63444,0.30800
2281.70570,0.30771
2279.77695,0.30723
2277.84821,0.30660
2275.91946,0.30579
2273.99072,0.30481
2272.06197,0.30371
2270.13323,0.30228
2268.20448,0.30045
2266.27574,0.29854
2264.34699,0.29681
2262.41825,0.29514
2260.48950,0.29353
2258.56075,0.29205
2256.63201,0.29073
2254.70326,0.28970
2252.77452,0.28903
2250.84577,0.28848
2248.91703,0.28785
2246.98828,0.28715
2245.05954,0.28669
2243.13079,0.28643
2241.20205,0.28597
2239.27330,0.28539
2237.34456,0.28497
2235.41581,0.28473
2233.48707,0.28467
2231.55832,0.28486
2229.62958,0.28533
2227.70083,0.28596
2225.77208,0.28659
2223.84334,0.28722
2221.91459,0.28814
2219.98585,0.28950
2218.05710,0.29099
2216.12836,0.29235
2214.19961,0.29345
2212.27087,0.29431
2210.34212,0.29504
2208.41338,0.29566
2206.48463,0.29606
2204.55589,0.29634
2202.62714,0.29646
2200.69840,0.29618
2198.76965,0.29561
2196.84090,0.29495
2194.91216,0.29411
2192.98341,0.29310
2191.05467,0.29198
2189.12592,0.29055
2187.19718,0.28891
2185.26843,0.28728
2183.33969,0.28553
2181.41094,0.28355
2179.48220,0.28148
2177.55345,0.27935
2175.62471,0.27707
2173.69596,0.27475
2171.76722,0.27255
2169.83847,0.27033
2167.90973,0.26810
2165.98098,0.26609
2164.05223,0.26441
2162.12349,0.26287
2160.19474,0.26141
2158.26600,0.26015
2156.33725,0.25894
2154.40851,0.25775
2152.47976,0.25672
2150.55102,0.25579
2148.62227,0.25479
2146.69353,0.25371
2144.76478,0.25268
2142.83604,0.25185
2140.90729,0.25121
2138.97855,0.25060
2137.04980,0.24997
2135.12106,0.24953
2133.19231,0.24950
2131.26356,0.25003
2129.33482,0.25097
2127.40607,0.25204
2125.47733,0.25317
2123.54858,0.25447
2121.61984,0.25573
2119.69109,0.25678
2117.76235,0.25780
2115.83360,0.25892
2113.90486,0.26017
2111.97611,0.26156
2110.04737,0.26303
2108.11862,0.26437
2106.18988,0.26547
2104.26113,0.26648
2102.33238,0.26755
2100.40364,0.26854
2098.47489,0.26938
2096.54615,0.27025
2094.61740,0.27115
2092.68866,0.27195
2090.75991,0.27267
2088.83117,0.27341
2086.90242,0.27417
2084.97368,0.27480
2083.04493,0.27520
2081.11619,0.27540
2079.18744,0.27542
2077.25870,0.27521
2075.32995,0.27485
2073.40121,0.27441
2071.47246,0.27387
2069.54371,0.27341
2067.61497,0.27325
2065.68622,0.27329
2063.75748,0.27331
2061.82873,0.27327
2059.89999,0.27336
2057.97124,0.27361
2056.04250,0.27367
2054.11375,0.27348
2052.18501,0.27336
2050.25626,0.27336
2048.32752,0.27335
2046.39877,0.27349
2044.47003,0.27397
2042.54128,0.27471
2040.61254,0.27559
2038.68379,0.27655
2036.75504,0.27765
2034.82630,0.27910
2032.89755,0.28089
2030.96881,0.28290
2029.04006,0.28510
2027.11132,0.28744
2025.18257,0.28977
2023.25383,0.29202
2021.32508,0.29420
2019.39634,0.29637
2017.46759,0.29850
2015.53885,0.30052
2013.61010,0.30235
2011.68136,0.30398
2009.75261,0.30545
2007.82386,0.30666
2005.89512,0.30742
2003.96637,0.30789
2002.03763,0.30843
2000.10888,0.30905
1998.18014,0.30967
1996.25139,0.31042
1994.32265,0.31145
1992.39390,0.31281
1990.46516,0.31439
1988.53641,0.31591
1986.60767,0.31724
1984.67892,0.31838
1982.75018,0.31933
1980.82143,0.32017
1978.89269,0.32086
1976.96394,0.32128
1975.03519,0.32153
1973.10645,0.32189
1971.17770,0.32239
1969.24896,0.32288
1967.32021,0.32335
1965.39147,0.32374
1963.46272,0.32412
1961.53398,0.32467
1959.60523,0.32541
1957.67649,0.32629
1955.74774,0.32727
1953.81900,0.32832
1951.89025,0.32952
1949.96151,0.33103
1948.03276,0.33279
1946.10402,0.33464
1944.17527,0.33645
1942.24652,0.33814
1940.31778,0.33978
1938.38903,0.34135
1936.46029,0.34276
1934.53154,0.34410
1932.60280,0.34543
1930.67405,0.34675
1928.74531,0.34791
1926.81656,0.34881
1924.88782,0.34951
1922.95907,0.35014
1921.03033,0.35072
1919.10158,0.35126
1917.17284,0.35180
1915.24409,0.35238
1913.31534,0.35297
1911.38660,0.35343
1909.45785,0.35370
1907.52911,0.35395
1905.60036,0.35422
1903.67162,0.35432
1901.74287,0.35422
1899.81413,0.35402
1897.88538,0.35373
1895.95664,0.35338
1894.02789,0.35304
1892.09915,0.35268
1890.17040,0.35237
1888.24166,0.35206
1886.31291,0.35160
1884.38417,0.35112
1882.45542,0.35083
1880.52667,0.35069
1878.59793,0.35055
1876.66918,0.35030
1874.74044,0.34985
1872.81169,0.34927
1870.88295,0.34875
1868.95420,0.34838
1867.02546,0.34803
1865.09671,0.34753
1863.16797,0.34683
1861.23922,0.34600
1859.31048,0.34518
1857.38173,0.34438
1855.45299,0.34347
1853.52424,0.34240
1851.59549,0.34111
1849.66675,0.33965
1847.73800,0.33819
1845.80926,0.33680
1843.88051,0.33536
1841.95177,0.33391
1840.02302,0.33265
1838.09428,0.33166
1836.16553,0.33091
1834.23679,0.33030
1832.30804,0.32965
1830.37930,0.32880
1828.45055,0.32790
1826.52181,0.32716
1824.59306,0.32638
1822.66432,0.32532
1820.73557,0.32414
1818.80682,0.32306
1816.87808,0.32202
1814.94933,0.32098
1813.02059,0.31995
1811.09184,0.31879
1809.16310,0.31739
1807.23435,0.31598
1805.30561,0.31487
1803.37686,0.31385
1801.44812,0.31252
1799.51937,0.31115
1797.59063,0.31008
1795.66188,0.30915
1793.73314,0.30821
1791.80439,0.30723
1789.87565,0.30608
1787.94690,0.30482
1786.01815,0.30364
1784.08941,0.30245
1782.16066,0.30114
1780.23192,0.29987
1778.30317,0.29860
1776.37443,0.29714
1774.44568,0.29545
1772.51694,0.29373
1770.58819,0.29208
1768.65945,0.29042
1766.73070,0.28882
1764.80196,0.28739
1762.87321,0.28608
1760.94447,0.28478
1759.01572,0.28344
1757.08697,0.28214
1755.15823,0.28092
1753.22948,0.27958
1751.30074,0.27785
1749.37199,0.27582
1747.44325,0.27374
1745.51450,0.27158
1743.58576,0.26919
1741.65701,0.26667
1739.72827,0.26432
1737.79952,0.26253
1735.87078,0.26122
1733.94203,0.25976
1732.01329,0.25811
1730.08454,0.25701
1728.15580,0.25652
1726.22705,0.25614
1724.29830,0.25571
1722.36956,0.25530
1720.44081,0.25486
1718.51207,0.25435
1716.58332,0.25371
1714.65458,0.25275
1712.72583,0.25127
1710.79709,0.24949
1708.86834,0.24774
1706.93960,0.24591
1705.01085,0.24370
1703.08211,0.24097
1701.15336,0.23762
1699.22462,0.23388
1697.29587,0.22990
1695.36713,0.22538
1693.43838,0.22048
1691.50963,0.21548
1689.58089,0.21025
1687.65214,0.20483
1685.72340,0.19902
1683.79465,0.19278
1681.86591,0.18692
1679.93716,0.18188
1678.00842,0.17743
1676.07967,0.17341
1674.15093,0.16990
1672.22218,0.16722
1670.29344,0.16519
1668.36469,0.16338
1666.43595,0.16203
1664.50720,0.16138
1662.57845,0.16107
1660.64971,0.16086
1658.72096,0.16110
1656.79222,0.16201
1654.86347,0.16327
1652.93473,0.16439
1651.00598,0.16511
1649.07724,0.16566
1647.14849,0.16631
1645.21975,0.16696
1643.29100,0.16735
1641.36226,0.16742
1639.43351,0.16736
1637.50477,0.16728
1635.57602,0.16723
1633.64728,0.16736
1631.71853,0.16775
1629.78978,0.16830
1627.86104,0.16908
1625.93229,0.17016
1624.00355,0.17133
1622.07480,0.17241
1620.14606,0.17335
1618.21731,0.17423
1616.28857,0.17506
1614.35982,0.17557
1612.43108,0.17576
1610.50233,0.17591
1608.57359,0.17619
1606.64484,0.17653
1604.71610,0.17682
1602.78735,0.17702
1600.85861,0.17717
1598.92986,0.17735
1597.00111,0.17763
1595.07237,0.17799
1593.14362,0.17833
1591.21488,0.17853
1589.28613,0.17858
1587.35739,0.17840
1585.42864,0.17801
1583.49990,0.17747
1581.57115,0.17683
1579.64241,0.17633
1577.71366,0.17616
1575.78492,0.17636
1573.85617,0.17676
1571.92743,0.17718
1569.99868,0.17751
1568.06993,0.17778
1566.14119,0.17804
1564.21244,0.17821
1562.28370,0.17828
1560.35495,0.17826
1558.42621,0.17799
1556.49746,0.17747
1554.56872,0.17687
1552.63997,0.17624
1550.71123,0.17541
1548.78248,0.17438
1546.85374,0.17334
1544.92499,0.17228
1542.99625,0.17106
1541.06750,0.16998
1539.13876,0.16930
1537.21001,0.16893
1535.28126,0.16872
1533.35252,0.16858
1531.42377,0.16830
1529.49503,0.16768
1527.56628,0.16664
1525.63754,0.16526
1523.70879,0.16377
1521.78005,0.16229
1519.85130,0.16076
1517.92256,0.15909
1515.99381,0.15723
1514.06507,0.15521
1512.13632,0.15308
1510.20758,0.15094
1508.27883,0.14875
1506.35008,0.14620
1504.42134,0.14337
1502.49259,0.14064
1500.56385,0.13784
1498.63510,0.13454
1496.70636,0.13067
1494.77761,0.12643
1492.84887,0.12174
1490.92012,0.11611
1488.99138,0.10948
1487.06263,0.10227
1485.13389,0.09510
1483.20514,0.08914
1481.27640,0.08527
1479.34765,0.08299
1477.41891,0.08119
1475.49016,0.07903
1473.56141,0.07625
1471.63267,0.07300
1469.70392,0.06961
1467.77518,0.06619
1465.84643,0.06278
1463.91769,0.05965
1461.98894,0.05705
1460.06020,0.05497
1458.13145,0.05332
1456.20271,0.05198
1454.27396,0.05088
1452.34522,0.05005
1450.41647,0.04939
1448.48773,0.04871
1446.55898,0.04792
1444.63024,0.04701
1442.70149,0.04586
1440.77274,0.04448
1438.84400,0.04314
1436.91525,0.04194
1434.98651,0.04090
1433.05776,0.04027
1431.12902,0.04022
1429.20027,0.04076
1427.27153,0.04181
1425.34278,0.04327
1423.41404,0.04502
1421.48529,0.04704
1419.55655,0.04937
1417.62780,0.05177
1415.69906,0.05372
1413.77031,0.05492
1411.84156,0.05551
1409.91282,0.05575
1407.98407,0.05573
1406.05533,0.05561
1404.12658,0.05553
1402.19784,0.05542
1400.26909,0.05521
1398.34035,0.05486
1396.41160,0.05432
1394.48286,0.05356
1392.55411,0.05245
1390.62537,0.05090
1388.69662,0.04880
1386.76788,0.04631
1384.83913,0.04385
1382.91039,0.04155
1380.98164,0.03947
1379.05289,0.03787
1377.12415,0.03688
1375.19540,0.03627
1373.26666,0.03589
1371.33791,0.03593
1369.40917,0.03642
1367.48042,0.03710
1365.55168,0.03766
1363.62293,0.03798
1361.69419,0.03810
1359.76544,0.03821
1357.83670,0.03842
1355.90795,0.03879
1353.97921,0.03949
1352.05046,0.04040
1350.12172,0.04105
1348.19297,0.04106
1346.26422,0.04047
1344.33548,0.03959
1342.40673,0.03880
1340.47799,0.03826
1338.54924,0.03802
1336.62050,0.03813
1334.69175,0.03857
1332.76301,0.03918
1330.83426,0.03978
1328.90552,0.04011
1326.97677,0.03999
1325.04803,0.03953
1323.11928,0.03901
1321.19054,0.03870
1319.26179,0.03880
1317.33304,0.03936
1315.40430,0.04035
1313.47555,0.04175
1311.54681,0.04339
1309.61806,0.04512
1307.68932,0.04680
1305.76057,0.04834
1303.83183,0.04970
1301.90308,0.05084
1299.97434,0.05171
1298.04559,0.05218
1296.11685,0.05203
1294.18810,0.05132
1292.25936,0.05045
1290.33061,0.04958
1288.40187,0.04850
1286.47312,0.04721
1284.54437,0.04597
1282.61563,0.04531
1280.68688,0.04582
1278.75814,0.04731
1276.82939,0.04897
1274.90065,0.05031
1272.97190,0.05124
1271.04316,0.05190
1269.11441,0.05245
1267.18567,0.05278
1265.25692,0.05273
1263.32818,0.05244
1261.39943,0.05211
1259.47069,0.05176
1257.54194,0.05129
1255.61320,0.05072
1253.68445,0.05000
1251.75570,0.04921
1249.82696,0.04857
1247.89821,0.04823
1245.96947,0.04818
1244.04072,0.04826
1242.11198,0.04823
1240.18323,0.04792
1238.25449,0.04720
1236.32574,0.04640
1234.39700,0.04631
1232.46825,0.04717
1230.53951,0.04825
1228.61076,0.04907
1226.68202,0.04977
1224.75327,0.05036
1222.82452,0.05063
1220.89578,0.05063
1218.96703,0.05035
1217.03829,0.04933
1215.10954,0.04729
1213.18080,0.04456
1211.25205,0.04158
1209.32331,0.03876
1207.39456,0.03662
1205.46582,0.03561
1203.53707,0.03561
1201.60833,0.03585
1199.67958,0.03594
1197.75084,0.03609
1195.82209,0.03626
1193.89335,0.03625
1191.96460,0.03606
1190.03585,0.03569
1188.10711,0.03512
1186.17836,0.03444
1184.24962,0.03393
1182.32087,0.03368
1180.39213,0.03365
1178.46338,0.03434
1176.53464,0.03610
1174.60589,0.03877
1172.67715,0.04220
1170.74840,0.04591
1168.81966,0.04917
1166.89091,0.05142
1164.96217,0.05216
1163.03342,0.05118
1161.10467,0.04886
1159.17593,0.04608
1157.24718,0.04359
1155.31844,0.04165
1153.38969,0.04001
1151.46095,0.03843
1149.53220,0.03692
1147.60346,0.03543
1145.67471,0.03379
1143.74597,0.03203
1141.81722,0.03032
1139.88848,0.02862
1137.95973,0.02694
1136.03099,0.02552
1134.10224,0.02466
1132.17350,0.02445
1130.24475,0.02471
1128.31600,0.02524
1126.38726,0.02616
1124.45851,0.02747
1122.52977,0.02884
1120.60102,0.03014
1118.67228,0.03162
1116.74353,0.03348
1114.81479,0.03573
1112.88604,0.03779
1110.95730,0.03902
1109.02855,0.03934
1107.09981,0.03885
1105.17106,0.03800
1103.24232,0.03750
1101.31357,0.03714
1099.38483,0.03636
1097.45608,0.03532
1095.52733,0.03437
1093.59859,0.03375
1091.66984,0.03338
1089.74110,0.03311
1087.81235,0.03335
1085.88361,0.03471
1083.95486,0.03721
1082.02612,0.04048
1080.09737,0.04426
1078.16863,0.04834
1076.23988,0.05227
1074.31114,0.05568
1072.38239,0.05894
1070.45365,0.06288
1068.52490,0.06777
1066.59615,0.07334
1064.66741,0.07897
1062.73866,0.08325
1060.80992,0.08475
1058.88117,0.08338
1056.95243,0.08043
1055.02368,0.07712
1053.09494,0.07355
1051.16619,0.06956
1049.23745,0.06569
1047.30870,0.06250
1045.37996,0.06023
1043.45121,0.05961
1041.52247,0.06132
1039.59372,0.06487
1037.66498,0.06885
1035.73623,0.07192
1033.80748,0.07338
1031.87874,0.07313
1029.94999,0.07188
1028.02125,0.07054
1026.09250,0.06931
1024.16376,0.06822
1022.23501,0.06730
1020.30627,0.06673
1018.37752,0.06686
1016.44878,0.06758
1014.52003,0.06835
1012.59129,0.06873
1010.66254,0.06845
1008.73380,0.06769
1006.80505,0.06701
1004.87631,0.06674
1002.94756,0.06676
1001.01881,0.06715
999.09007,0.06821
997.16132,0.06956
995.23258,0.07049
993.30383,0.07105
991.37509,0.07165
989.44634,0.07229
987.51760,0.07302
985.58885,0.07468
983.66011,0.07824
981.73136,0.08339
979.80262,0.08903
977.87387,0.09445
975.94513,0.09938
974.01638,0.10353
972.08763,0.10686
970.15889,0.10987
968.23014,0.11279
966.30140,0.11561
964.37265,0.11875
962.44391,0.12263
960.51516,0.12699
958.58642,0.13132
956.65767,0.13554
954.72893,0.13958
952.80018,0.14332
950.87144,0.14666
948.94269,0.14944
947.01395,0.15177
945.08520,0.15373
943.15646,0.15512
941.22771,0.15587
939.29896,0.15616
937.37022,0.15623
935.44147,0.15618
933.51273,0.15611
931.58398,0.15626
929.65524,0.15663
927.72649,0.15714
925.79775,0.15775
923.86900,0.15806
921.94026,0.15765
920.01151,0.15626
918.08277,0.15365
916.15402,0.14985
914.22528,0.14542
912.29653,0.14114
910.36779,0.13736
908.43904,0.13396
906.51029,0.13076
904.58155,0.12758
902.65280,0.12458
900.72406,0.12226
898.79531,0.12087
896.86657,0.12073
894.93782,0.12216
893.00908,0.12492
891.08033,0.12897
889.15159,0.13415
887.22284,0.13955
885.29410,0.14452
883.36535,0.14922
881.43661,0.15399
879.50786,0.15870
877.57911,0.16301
875.65037,0.16714
873.72162,0.17120
871.79288,0.17463
869.86413,0.17725
867.93539,0.17927
866.00664,0.18071
864.07790,0.18165
862.14915,0.18220
860.22041,0.18225
858.29166,0.18175
856.36292,0.18117
854.43417,0.18106
852.50543,0.18111
850.57668,0.18067
848.64794,0.17991
846.71919,0.17907
844.79044,0.17785
842.86170,0.17634
840.93295,0.17487
839.00421,0.17331
837.07546,0.17167
835.14672,0.17010
833.21797,0.16871
831.28923,0.16755
829.36048,0.16632
827.43174,0.16486
825.50299,0.16337
823.57425,0.16175
821.64550,0.15998
819.71676,0.15832
817.78801,0.15664
815.85926,0.15494
813.93052,0.15321
812.00177,0.15115
810.07303,0.14920
808.14428,0.14780
806.21554,0.14621
804.28679,0.14411
802.35805,0.14210
800.42930,0.14034
798.50056,0.13856
796.57181,0.13676
794.64307,0.13508
792.71432,0.13347
790.78558,0.13203
788.85683,0.13069
786.92809,0.12902
784.99934,0.12696
783.07059,0.12480
781.14185,0.12269
779.21310,0.12065
777.28436,0.11868
775.35561,0.11672
773.42687,0.11467
771.49812,0.11252
769.56938,0.11046
767.64063,0.10839
765.71189,0.10591
763.78314,0.10320
761.85440,0.10077
759.92565,0.09865
757.99691,0.09672
756.06816,0.09470
754.13942,0.09254
752.21067,0.09056
750.28192,0.08850
748.35318,0.08604
746.42443,0.08379
744.49569,0.08206
742.56694,0.08024
740.63820,0.07815
738.70945,0.07641
736.78071,0.07516
734.85196,0.07360
732.92322,0.07134
730.99447,0.06886
729.06573,0.06636
727.13698,0.06374
725.20824,0.06134
723.27949,0.05974
721.35074,0.05884
719.42200,0.05788
717.49325,0.05656
715.56451,0.05519
713.63576,0.05428
711.70702,0.05418
709.77827,0.05449
707.84953,0.05459
705.92078,0.05444
703.99204,0.05424
702.06329,0.05411
700.13455,0.05428
698.20580,0.05478
696.27706,0.05523
694.34831,0.05549
692.41957,0.05553
690.49082,0.05521
688.56207,0.05483
686.63333,0.05463
684.70458,0.05431
682.77584,0.05363
680.84709,0.05269
678.91835,0.05183
676.98960,0.05110
675.06086,0.05037
673.13211,0.05010
671.20337,0.05024
669.27462,0.05022
667.34588,0.05024
665.41713,0.05053
663.48839,0.05106
661.55964,0.05167
659.63090,0.05237
657.70215,0.05332
655.77340,0.05409
653.84466,0.05393
651.91591,0.05288
649.98717,0.05166
648.05842,0.05062
646.12968,0.04969
644.20093,0.04897
642.27219,0.04821
640.34344,0.04715
638.41470,0.04566
636.48595,0.04367
634.55721,0.04212
632.62846,0.04189
630.69972,0.04226
628.77097,0.04255
626.84222,0.04310
624.91348,0.04391
622.98473,0.04446
621.05599,0.04550
619.12724,0.04731
617.19850,0.04806
615.26975,0.04764
613.34101,0.04748
611.41226,0.04783
609.48352,0.04851
607.55477,0.04946
605.62603,0.05068
603.69728,0.05200
601.76854,0.05341
599.83979,0.05465
