7497.03301,0.82069
7495.10426,0.81688
7493.17552,0.81811
7491.24677,0.82222
7489.31803,0.81953
7487.38928,0.81401
7485.46054,0.81388
7483.53179,0.81784
7481.60305,0.82045
7479.67430,0.81931
7477.74556,0.81752
7475.81681,0.81901
7473.88807,0.82294
7471.95932,0.82406
7470.03057,0.81945
7468.10183,0.81363
7466.17308,0.81144
7464.24434,0.81100
7462.31559,0.80847
7460.38685,0.80414
7458.45810,0.79970
7456.52936,0.79802
7454.60061,0.80308
7452.67187,0.81241
7450.74312,0.81900
7448.81438,0.82083
7446.88563,0.81900
7444.95689,0.81379
7443.02814,0.80780
7441.09940,0.80095
7439.17065,0.79223
7437.24190,0.78942
7435.31316,0.79531
7433.38441,0.80054
7431.45567,0.79837
7429.52692,0.79183
7427.59818,0.78936
7425.66943,0.79377
7423.74069,0.79999
7421.81194,0.80313
7419.88320,0.80160
7417.95445,0.79782
7416.02571,0.79550
7414.09696,0.79354
7412.16822,0.78906
7410.23947,0.78570
7408.31073,0.78733
7406.38198,0.79280
7404.45323,0.80011
7402.52449,0.80333
7400.59574,0.79894
7398.66700,0.79358
7396.73825,0.79210
7394.80951,0.79277
7392.88076,0.79572
7390.95202,0.80048
7389.02327,0.80244
7387.09453,0.80220
7385.16578,0.80237
7383.23704,0.80053
7381.30829,0.79936
7379.37955,0.80316
7377.45080,0.80658
7375.52205,0.80602
7373.59331,0.80554
7371.66456,0.80723
7369.73582,0.80954
7367.80707,0.81043
7365.87833,0.80997
7363.94958,0.80897
7362.02084,0.80612
7360.09209,0.80321
7358.16335,0.80355
7356.23460,0.80492
7354.30586,0.80533
7352.37711,0.80595
7350.44837,0.80485
7348.51962,0.80109
7346.59088,0.79961
7344.66213,0.80316
7342.73338,0.80705
7340.80464,0.80584
7338.87589,0.80157
7336.94715,0.79837
7335.01840,0.79546
7333.08966,0.79207
7331.16091,0.78813
7329.23217,0.78368
7327.30342,0.78114
7325.37468,0.78229
7323.44593,0.78619
7321.51719,0.78889
7319.58844,0.78641
7317.65970,0.78089
7315.73095,0.77663
7313.80221,0.77549
7311.87346,0.77834
7309.94471,0.78079
7308.01597,0.77660
7306.08722,0.76930
7304.15848,0.76675
7302.22973,0.76932
7300.30099,0.77127
7298.37224,0.76853
7296.44350,0.76358
7294.51475,0.76197
7292.58601,0.76391
7290.65726,0.76478
7288.72852,0.76336
7286.79977,0.76038
7284.87103,0.75629
7282.94228,0.75336
7281.01353,0.75142
7279.08479,0.74786
7277.15604,0.74226
7275.22730,0.73876
7273.29855,0.74202
7271.36981,0.74604
7269.44106,0.74379
7267.51232,0.74024
7265.58357,0.73804
7263.65483,0.73503
7261.72608,0.73355
7259.79734,0.73588
7257.86859,0.74094
7255.93985,0.74224
7254.01110,0.73495
7252.08236,0.72665
7250.15361,0.72570
7248.22486,0.72987
7246.29612,0.73266
7244.36737,0.73219
7242.43863,0.73091
7240.50988,0.73005
7238.58114,0.72871
7236.65239,0.72642
7234.72365,0.72420
7232.79490,0.72287
7230.86616,0.72206
7228.93741,0.72048
7227.00867,0.71794
7225.07992,0.71749
7223.15118,0.71919
7221.22243,0.71904
7219.29369,0.71620
7217.36494,0.71285
7215.43619,0.71123
7213.50745,0.71079
7211.57870,0.70875
7209.64996,0.70563
7207.72121,0.70519
7205.79247,0.70727
7203.86372,0.70557
7201.93498,0.69991
7200.00623,0.69769
7198.07749,0.69874
7196.14874,0.69728
7194.22000,0.69517
7192.29125,0.69701
7190.36251,0.69805
7188.43376,0.69425
7186.50501,0.69158
7184.57627,0.69185
7182.64752,0.69123
7180.71878,0.68891
7178.79003,0.68572
7176.86129,0.68500
7174.93254,0.68807
7173.00380,0.69069
7171.07505,0.69151
7169.14631,0.69252
7167.21756,0.69371
7165.28882,0.69482
7163.36007,0.69500
7161.43133,0.69326
7159.50258,0.69033
7157.57384,0.68684
7155.64509,0.68641
7153.71634,0.69108
7151.78760,0.69494
7149.85885,0.69489
7147.93011,0.69278
7146.00136,0.68870
7144.07262,0.68437
7142.14387,0.68331
7140.21513,0.68597
7138.28638,0.68994
7136.35764,0.69272
7134.42889,0.69316
7132.50015,0.69259
7130.57140,0.69336
7128.64266,0.69446
7126.71391,0.69231
7124.78516,0.68862
7122.85642,0.68764
7120.92767,0.68683
7118.99893,0.68565
7117.07018,0.68782
7115.14144,0.68970
7113.21269,0.68658
7111.28395,0.68131
7109.35520,0.67847
7107.42646,0.67848
7105.49771,0.68026
7103.56897,0.68294
7101.64022,0.68311
7099.71148,0.67970
7097.78273,0.67574
7095.85399,0.67239
7093.92524,0.67174
7091.99649,0.67527
7090.06775,0.67652
7088.13900,0.67251
7086.21026,0.66965
7084.28151,0.66941
7082.35277,0.66767
7080.42402,0.66400
7078.49528,0.66187
7076.56653,0.66356
7074.63779,0.66513
7072.70904,0.66216
7070.78030,0.65887
7068.85155,0.66081
7066.92281,0.66611
7064.99406,0.67011
7063.06532,0.67031
7061.13657,0.66878
7059.20782,0.66931
7057.27908,0.67083
7055.35033,0.67154
7053.42159,0.67255
7051.49284,0.67349
7049.56410,0.67444
7047.63535,0.67737
7045.70661,0.68101
7043.77786,0.68216
7041.84912,0.68151
7039.92037,0.68050
7037.99163,0.67783
7036.06288,0.67487
7034.13414,0.67571
7032.20539,0.67857
7030.27664,0.67817
7028.34790,0.67567
7026.41915,0.67624
7024.49041,0.68086
7022.56166,0.68479
7020.63292,0.68519
7018.70417,0.68572
7016.77543,0.68825
7014.84668,0.68943
7012.91794,0.68752
7010.98919,0.68436
7009.06045,0.68239
7007.13170,0.68307
7005.20296,0.68631
7003.27421,0.68981
7001.34547,0.69067
6999.41672,0.68900
6997.48797,0.68736
6995.55923,0.68528
6993.63048,0.68210
6991.70174,0.68131
6989.77299,0.68453
6987.84425,0.68758
6985.91550,0.68593
6983.98676,0.68169
6982.05801,0.67967
6980.12927,0.68001
6978.20052,0.68064
6976.27178,0.68025
6974.34303,0.68013
6972.41429,0.68289
6970.48554,0.68587
6968.55680,0.68513
6966.62805,0.68280
6964.69930,0.68117
6962.77056,0.68031
6960.84181,0.68264
6958.91307,0.68769
6956.98432,0.69068
6955.05558,0.69132
6953.12683,0.69169
6951.19809,0.69162
6949.26934,0.69177
6947.34060,0.69222
6945.41185,0.69239
6943.48311,0.69302
6941.55436,0.69273
6939.62562,0.69066
6937.69687,0.68961
6935.76812,0.69088
6933.83938,0.69325
6931.91063,0.69600
6929.98189,0.69974
6928.05314,0.70344
6926.12440,0.70351
6924.19565,0.70061
6922.26691,0.69896
6920.33816,0.69996
6918.40942,0.70247
6916.48067,0.70366
6914.55193,0.70141
6912.62318,0.69883
6910.69444,0.70027
6908.76569,0.70431
6906.83695,0.70821
6904.90820,0.71235
6902.97945,0.71408
6901.05071,0.71194
6899.12196,0.71065
6897.19322,0.71104
6895.26447,0.70984
6893.33573,0.70783
6891.40698,0.70793
6889.47824,0.71118
6887.54949,0.71604
6885.62075,0.71937
6883.69200,0.71971
6881.76326,0.71895
6879.83451,0.71919
6877.90577,0.72078
6875.97702,0.72219
6874.04828,0.72180
6872.11953,0.72017
6870.19078,0.71814
6868.26204,0.71711
6866.33329,0.71778
6864.40455,0.71815
6862.47580,0.71801
6860.54706,0.71844
6858.61831,0.71902
6856.68957,0.71983
6854.76082,0.72179
6852.83208,0.72470
6850.90333,0.72703
6848.97459,0.72882
6847.04584,0.73047
6845.11710,0.72972
6843.18835,0.72645
6841.25960,0.72515
6839.33086,0.72691
6837.40211,0.72808
6835.47337,0.72806
6833.54462,0.72828
6831.61588,0.72836
6829.68713,0.72835
6827.75839,0.72835
6825.82964,0.72706
6823.90090,0.72492
6821.97215,0.72539
6820.04341,0.72973
6818.11466,0.73317
6816.18592,0.73104
6814.25717,0.72618
6812.32843,0.72400
6810.39968,0.72548
6808.47093,0.72887
6806.54219,0.73084
6804.61344,0.72855
6802.68470,0.72524
6800.75595,0.72616
6798.82721,0.72974
6796.89846,0.73187
6794.96972,0.73293
6793.04097,0.73390
6791.11223,0.73391
6789.18348,0.73287
6787.25474,0.73285
6785.32599,0.73574
6783.39725,0.73973
6781.46850,0.74116
6779.53975,0.73969
6777.61101,0.73724
6775.68226,0.73512
6773.75352,0.73459
6771.82477,0.73540
6769.89603,0.73707
6767.96728,0.73991
6766.03854,0.74141
6764.10979,0.74027
6762.18105,0.73932
6760.25230,0.73981
6758.32356,0.74045
6756.39481,0.74066
6754.46607,0.74143
6752.53732,0.74236
6750.60858,0.74254
6748.67983,0.74304
6746.75108,0.74337
6744.82234,0.74178
6742.89359,0.73958
6740.96485,0.73938
6739.03610,0.74191
6737.10736,0.74519
6735.17861,0.74594
6733.24987,0.74377
6731.32112,0.74165
6729.39238,0.74184
6727.46363,0.74275
6725.53489,0.74193
6723.60614,0.74031
6721.67740,0.73930
6719.74865,0.73953
6717.81991,0.74133
6715.89116,0.74275
6713.96241,0.74223
6712.03367,0.74099
6710.10492,0.74082
6708.17618,0.74249
6706.24743,0.74633
6704.31869,0.74987
6702.38994,0.74917
6700.46120,0.74662
6698.53245,0.74670
6696.60371,0.74846
6694.67496,0.75003
6692.74622,0.75119
6690.81747,0.75109
6688.88873,0.74988
6686.95998,0.74943
6685.03123,0.75050
6683.10249,0.75305
6681.17374,0.75582
6679.24500,0.75601
6677.31625,0.75415
6675.38751,0.75336
6673.45876,0.75384
6671.53002,0.75379
6669.60127,0.75428
6667.67253,0.75740
6665.74378,0.76051
6663.81504,0.76072
6661.88629,0.75956
6659.95755,0.75930
6658.02880,0.76058
6656.10006,0.76208
6654.17131,0.76208
6652.24256,0.76102
6650.31382,0.76109
6648.38507,0.76362
6646.45633,0.76648
6644.52758,0.76644
6642.59884,0.76388
6640.67009,0.76263
6638.74135,0.76484
6636.81260,0.76746
6634.88386,0.76736
6632.95511,0.76547
6631.02637,0.76355
6629.09762,0.76278
6627.16888,0.76391
6625.24013,0.76569
6623.31139,0.76583
6621.38264,0.76440
6619.45389,0.76416
6617.52515,0.76625
6615.59640,0.76775
6613.66766,0.76741
6611.73891,0.76807
6609.81017,0.76973
6607.88142,0.77036
6605.95268,0.77080
6604.02393,0.77109
6602.09519,0.77011
6600.16644,0.76802
6598.23770,0.76610
6596.30895,0.76627
6594.38021,0.76815
6592.45146,0.77033
6590.52271,0.77202
6588.59397,0.77144
6586.66522,0.76905
6584.73648,0.76777
6582.80773,0.76852
6580.87899,0.77127
6578.95024,0.77469
6577.02150,0.77551
6575.09275,0.77368
6573.16401,0.77228
6571.23526,0.77270
6569.30652,0.77417
6567.37777,0.77593
6565.44903,0.77805
6563.52028,0.77954
6561.59154,0.77922
6559.66279,0.77835
6557.73404,0.77882
6555.80530,0.78037
6553.87655,0.78043
6551.94781,0.77824
6550.01906,0.77722
6548.09032,0.77853
6546.16157,0.77927
6544.23283,0.77894
6542.30408,0.77866
6540.37534,0.77842
6538.44659,0.77938
6536.51785,0.78105
6534.58910,0.78075
6532.66036,0.77950
6530.73161,0.77992
6528.80287,0.78101
6526.87412,0.78135
6524.94537,0.78293
6523.01663,0.78607
6521.08788,0.78692
6519.15914,0.78558
6517.23039,0.78571
6515.30165,0.78610
6513.37290,0.78429
6511.44416,0.78229
6509.51541,0.78252
6507.58667,0.78487
6505.65792,0.78796
6503.72918,0.78984
6501.80043,0.78981
6499.87169,0.79006
6497.94294,0.79134
6496.01419,0.79083
6494.08545,0.78915
6492.15670,0.79043
6490.22796,0.79383
6488.29921,0.79584
6486.37047,0.79658
6484.44172,0.79774
6482.51298,0.79933
6480.58423,0.80040
6478.65549,0.80013
6476.72674,0.79834
6474.79800,0.79742
6472.86925,0.79944
6470.94051,0.80206
6469.01176,0.80230
6467.08302,0.80038
6465.15427,0.79859
6463.22552,0.79868
6461.29678,0.80025
6459.36803,0.80029
6457.43929,0.79759
6455.51054,0.79565
6453.58180,0.79568
6451.65305,0.79554
6449.72431,0.79460
6447.79556,0.79429
6445.86682,0.79714
6443.93807,0.80191
6442.00933,0.80368
6440.08058,0.80137
6438.15184,0.79883
6436.22309,0.79892
6434.29434,0.80011
6432.36560,0.79991
6430.43685,0.79848
6428.50811,0.79780
6426.57936,0.79888
6424.65062,0.80019
6422.72187,0.79978
6420.79313,0.79883
6418.86438,0.79995
6416.93564,0.80184
6415.00689,0.80132
6413.07815,0.79975
6411.14940,0.79951
6409.22066,0.79874
6407.29191,0.79648
6405.36317,0.79520
6403.43442,0.79542
6401.50567,0.79580
6399.57693,0.79585
6397.64818,0.79549
6395.71944,0.79486
6393.79069,0.79434
6391.86195,0.79469
6389.93320,0.79580
6388.00446,0.79579
6386.07571,0.79426
6384.14697,0.79292
6382.21822,0.79160
6380.28948,0.78923
6378.36073,0.78721
6376.43199,0.78677
6374.50324,0.78677
6372.57450,0.78573
6370.64575,0.78354
6368.71700,0.78220
6366.78826,0.78291
6364.85951,0.78375
6362.93077,0.78402
6361.00202,0.78439
6359.07328,0.78282
6357.14453,0.77905
6355.21579,0.77714
6353.28704,0.77815
6351.35830,0.77948
6349.42955,0.78061
6347.50081,0.78165
6345.57206,0.78180
6343.64332,0.78135
6341.71457,0.78082
6339.78582,0.78096
6337.85708,0.78217
6335.92833,0.78344
6333.99959,0.78389
6332.07084,0.78322
6330.14210,0.78195
6328.21335,0.78115
6326.28461,0.78071
6324.35586,0.77974
6322.42712,0.77885
6320.49837,0.77946
6318.56963,0.78071
6316.64088,0.77922
6314.71214,0.77425
6312.78339,0.77055
6310.85465,0.77053
6308.92590,0.77044
6306.99715,0.76908
6305.06841,0.76812
6303.13966,0.76633
6301.21092,0.76340
6299.28217,0.76224
6297.35343,0.76356
6295.42468,0.76483
6293.49594,0.76441
6291.56719,0.76260
6289.63845,0.76066
6287.70970,0.75984
6285.78096,0.76027
6283.85221,0.76176
6281.92347,0.76338
6279.99472,0.76282
6278.06598,0.76014
6276.13723,0.75831
6274.20848,0.75832
6272.27974,0.75895
6270.35099,0.75888
6268.42225,0.75737
6266.49350,0.75519
6264.56476,0.75285
6262.63601,0.75163
6260.70727,0.75280
6258.77852,0.75291
6256.84978,0.74919
6254.92103,0.74437
6252.99229,0.74174
6251.06354,0.74092
6249.13480,0.73967
6247.20605,0.73771
6245.27730,0.73648
6243.34856,0.73671
6241.41981,0.73660
6239.49107,0.73445
6237.56232,0.73169
6235.63358,0.72899
6233.70483,0.72612
6231.77609,0.72413
6229.84734,0.72257
6227.91860,0.72009
6225.98985,0.71706
6224.06111,0.71404
6222.13236,0.71127
6220.20362,0.70996
6218.27487,0.71012
6216.34613,0.71040
6214.41738,0.71001
6212.48863,0.70803
6210.55989,0.70458
6208.63114,0.70118
6206.70240,0.69880
6204.77365,0.69690
6202.84491,0.69405
6200.91616,0.69061
6198.98742,0.68801
6197.05867,0.68555
6195.12993,0.68188
6193.20118,0.67758
6191.27244,0.67352
6189.34369,0.66887
6187.41495,0.66343
6185.48620,0.65888
6183.55746,0.65509
6181.62871,0.65067
6179.69996,0.64663
6177.77122,0.64319
6175.84247,0.63873
6173.91373,0.63394
6171.98498,0.62864
6170.05624,0.62111
6168.12749,0.61280
6166.19875,0.60531
6164.27000,0.59735
6162.34126,0.58788
6160.41251,0.57878
6158.48377,0.57193
6156.55502,0.56598
6154.62628,0.55864
6152.69753,0.54984
6150.76878,0.54069
6148.84004,0.53155
6146.91129,0.52325
6144.98255,0.51628
6143.05380,0.50878
6141.12506,0.50051
6139.19631,0.49491
6137.26757,0.49330
6135.33882,0.49170
6133.41008,0.48778
6131.48133,0.48407
6129.55259,0.48075
6127.62384,0.47571
6125.69510,0.46931
6123.76635,0.46234
6121.83761,0.45476
6119.90886,0.44723
6117.98011,0.44073
6116.05137,0.43552
6114.12262,0.43117
6112.19388,0.42768
6110.26513,0.42598
6108.33639,0.42626
6106.40764,0.42747
6104.47890,0.42900
6102.55015,0.43136
6100.62141,0.43457
6098.69266,0.43736
6096.76392,0.43909
6094.83517,0.43955
6092.90643,0.43842
6090.97768,0.43665
6089.04893,0.43516
6087.12019,0.43379
6085.19144,0.43203
6083.26270,0.42938
6081.33395,0.42596
6079.40521,0.42308
6077.47646,0.42192
6075.54772,0.42182
6073.61897,0.42211
6071.69023,0.42365
6069.76148,0.42656
6067.83274,0.43096
6065.90399,0.43834
6063.97525,0.44710
6062.04650,0.45408
6060.11776,0.45983
6058.18901,0.46564
6056.26026,0.47081
6054.33152,0.47425
6052.40277,0.47553
6050.47403,0.47481
6048.54528,0.47245
6046.61654,0.46920
6044.68779,0.46554
6042.75905,0.46110
6040.83030,0.45488
6038.90156,0.44641
6036.97281,0.43720
6035.04407,0.42831
6033.11532,0.41912
6031.18658,0.40940
6029.25783,0.39950
6027.32909,0.38946
6025.40034,0.37938
6023.47159,0.36867
6021.54285,0.35742
6019.61410,0.34723
6017.68536,0.33808
6015.75661,0.32892
6013.82787,0.32000
6011.89912,0.31157
6009.97038,0.30325
6008.04163,0.29484
6006.11289,0.28705
6004.18414,0.28038
6002.25540,0.27409
6000.32665,0.26736
5998.39791,0.26045
5996.46916,0.25451
5994.54041,0.24948
5992.61167,0.24391
5990.68292,0.23833
5988.75418,0.23424
5986.82543,0.23068
5984.89669,0.22592
5982.96794,0.22066
5981.03920,0.21658
5979.11045,0.21344
5977.18171,0.20970
5975.25296,0.20590
5973.32422,0.20278
5971.39547,0.19897
5969.46673,0.19489
5967.53798,0.19248
5965.60924,0.19192
5963.68049,0.19220
5961.75174,0.19200
5959.82300,0.19127
5957.89425,0.19120
5955.96551,0.19204
5954.03676,0.19272
5952.10802,0.19202
5950.17927,0.19026
5948.25053,0.18852
5946.32178,0.18720
5944.39304,0.18675
5942.46429,0.18718
5940.53555,0.18839
5938.60680,0.19098
5936.67806,0.19464
5934.74931,0.19776
5932.82057,0.19978
5930.89182,0.20196
5928.96307,0.20410
5927.03433,0.20455
5925.10558,0.20433
5923.17684,0.20521
5921.24809,0.20609
5919.31935,0.20561
5917.39060,0.20500
5915.46186,0.20599
5913.53311,0.20872
5911.60437,0.21210
5909.67562,0.21442
5907.74688,0.21553
5905.81813,0.21720
5903.88939,0.21949
5901.96064,0.22084
5900.03189,0.22159
5898.10315,0.22348
5896.17440,0.22662
5894.24566,0.22929
5892.31691,0.23089
5890.38817,0.23314
5888.45942,0.23681
5886.53068,0.24036
5884.60193,0.24369
5882.67319,0.24824
5880.74444,0.25360
5878.81570,0.25894
5876.88695,0.26412
5874.95821,0.26830
5873.02946,0.27171
5871.10072,0.27558
5869.17197,0.27926
5867.24322,0.28191
5865.31448,0.28349
5863.38573,0.28440
5861.45699,0.28613
5859.52824,0.28895
5857.59950,0.29119
5855.67075,0.29198
5853.74201,0.29223
5851.81326,0.29254
5849.88452,0.29231
5847.95577,0.29219
5846.02703,0.29321
5844.09828,0.29439
5842.16954,0.29489
5840.24079,0.29457
5838.31205,0.29308
5836.38330,0.29200
5834.45455,0.29351
5832.52581,0.29635
5830.59706,0.29785
5828.66832,0.29779
5826.73957,0.29754
5824.81083,0.29784
5822.88208,0.29844
5820.95334,0.29871
5819.02459,0.29876
5817.09585,0.29925
5815.16710,0.30006
5813.23836,0.30025
5811.30961,0.29937
5809.38087,0.29838
5807.45212,0.29824
5805.52337,0.29850
5803.59463,0.29806
5801.66588,0.29682
5799.73714,0.29643
5797.80839,0.29733
5795.87965,0.29776
5793.95090,0.29703
5792.02216,0.29597
5790.09341,0.29592
5788.16467,0.29760
5786.23592,0.30035
5784.30718,0.30346
5782.37843,0.30665
5780.44969,0.30989
5778.52094,0.31385
5776.59220,0.31924
5774.66345,0.32529
5772.73470,0.33041
5770.80596,0.33444
5768.87721,0.33848
5766.94847,0.34330
5765.01972,0.34864
5763.09098,0.35384
5761.16223,0.35886
5759.23349,0.36401
5757.30474,0.36929
5755.37600,0.37463
5753.44725,0.37952
5751.51851,0.38335
5749.58976,0.38678
5747.66102,0.39025
5745.73227,0.39320
5743.80352,0.39595
5741.87478,0.39839
5739.94603,0.39934
5738.01729,0.39900
5736.08854,0.39843
5734.15980,0.39759
5732.23105,0.39599
5730.30231,0.39412
5728.37356,0.39218
5726.44482,0.38916
5724.51607,0.38541
5722.58733,0.38163
5720.65858,0.37706
5718.72984,0.37203
5716.80109,0.36785
5714.87235,0.36436
5712.94360,0.36049
5711.01485,0.35602
5709.08611,0.35188
5707.15736,0.34878
5705.22862,0.34644
5703.29987,0.34376
5701.37113,0.34046
5699.44238,0.33792
5697.51364,0.33634
5695.58489,0.33486
5693.65615,0.33403
5691.72740,0.33377
5689.79866,0.33293
5687.86991,0.33141
5685.94117,0.32965
5684.01242,0.32781
5682.08368,0.32627
5680.15493,0.32541
5678.22618,0.32464
5676.29744,0.32295
5674.36869,0.32080
5672.43995,0.31925
5670.51120,0.31812
5668.58246,0.31705
5666.65371,0.31667
5664.72497,0.31766
5662.79622,0.31948
5660.86748,0.32129
5658.93873,0.32337
5657.00999,0.32586
5655.08124,0.32855
5653.15250,0.33219
5651.22375,0.33691
5649.29500,0.34129
5647.36626,0.34488
5645.43751,0.34819
5643.50877,0.35100
5641.58002,0.35288
5639.65128,0.35428
5637.72253,0.35659
5635.79379,0.36005
5633.86504,0.36330
5631.93630,0.36595
5630.00755,0.36866
5628.07881,0.37147
5626.15006,0.37371
5624.22132,0.37543
5622.29257,0.37744
5620.36383,0.37980
5618.43508,0.38181
5616.50633,0.38264
5614.57759,0.38235
5612.64884,0.38225
5610.72010,0.38267
5608.79135,0.38262
5606.86261,0.38184
5604.93386,0.38103
5603.00512,0.38061
5601.07637,0.38069
5599.14763,0.38066
5597.21888,0.37942
5595.29014,0.37750
5593.36139,0.37658
5591.43265,0.37601
5589.50390,0.37404
5587.57516,0.37193
5585.64641,0.37168
5583.71766,0.37283
5581.78892,0.37410
5579.86017,0.37546
5577.93143,0.37763
5576.00268,0.38023
5574.07394,0.38256
5572.14519,0.38444
5570.21645,0.38565
5568.28770,0.38639
5566.35896,0.38701
5564.43021,0.38771
5562.50147,0.38837
5560.57272,0.38851
5558.64398,0.38819
5556.71523,0.38803
5554.78648,0.38810
5552.85774,0.38797
5550.92899,0.38777
5549.00025,0.38758
5547.07150,0.38742
5545.14276,0.38771
5543.21401,0.38800
5541.28527,0.38757
5539.35652,0.38717
5537.42778,0.38780
5535.49903,0.38832
5533.57029,0.38702
5531.64154,0.38508
5529.71280,0.38483
5527.78405,0.38566
5525.85531,0.38597
5523.92656,0.38636
5521.99781,0.38750
5520.06907,0.38861
5518.14032,0.38913
5516.21158,0.38968
5514.28283,0.39083
5512.35409,0.39175
5510.42534,0.39158
5508.49660,0.39096
5506.56785,0.39096
5504.63911,0.39177
5502.71036,0.39272
5500.78162,0.39335
5498.85287,0.39419
5496.92413,0.39545
5494.99538,0.39707
5493.06664,0.39953
5491.13789,0.40243
5489.20914,0.40447
5487.28040,0.40568
5485.35165,0.40689
5483.42291,0.40796
5481.49416,0.40850
5479.56542,0.40883
5477.63667,0.40907
5475.70793,0.40954
5473.77918,0.41103
5471.85044,0.41255
5469.92169,0.41270
5467.99295,0.41250
5466.06420,0.41320
5464.13546,0.41440
5462.20671,0.41522
5460.27796,0.41522
5458.34922,0.41482
5456.42047,0.41449
5454.49173,0.41375
5452.56298,0.41300
5450.63424,0.41345
5448.70549,0.41443
5446.77675,0.41434
5444.84800,0.41331
5442.91926,0.41223
5440.99051,0.41119
5439.06177,0.41016
5437.13302,0.40953
5435.20428,0.40978
5433.27553,0.41051
5431.34679,0.41086
5429.41804,0.41066
5427.48929,0.41001
5425.56055,0.40927
5423.63180,0.40891
5421.70306,0.40862
5419.77431,0.40796
5417.84557,0.40724
5415.91682,0.40698
5413.98808,0.40707
5412.05933,0.40687
5410.13059,0.40658
5408.20184,0.40681
5406.27310,0.40706
5404.34435,0.40674
5402.41561,0.40590
5400.48686,0.40463
5398.55811,0.40362
5396.62937,0.40375
5394.70062,0.40477
5392.77188,0.40553
5390.84313,0.40507
5388.91439,0.40349
5386.98564,0.40172
5385.05690,0.40029
5383.12815,0.39953
5381.19941,0.40000
5379.27066,0.40097
5377.34192,0.40149
5375.41317,0.40213
5373.48443,0.40279
5371.55568,0.40275
5369.62694,0.40271
5367.69819,0.40303
5365.76944,0.40346
5363.84070,0.40449
5361.91195,0.40559
5359.98321,0.40593
5358.05446,0.40665
5356.12572,0.40847
5354.19697,0.41029
5352.26823,0.41147
5350.33948,0.41267
5348.41074,0.41452
5346.48199,0.41679
5344.55325,0.41905
5342.62450,0.42091
5340.69576,0.42188
5338.76701,0.42219
5336.83827,0.42266
5334.90952,0.42345
5332.98077,0.42432
5331.05203,0.42522
5329.12328,0.42600
5327.19454,0.42670
5325.26579,0.42735
5323.33705,0.42783
5321.40830,0.42886
5319.47956,0.43083
5317.55081,0.43268
5315.62207,0.43324
5313.69332,0.43301
5311.76458,0.43311
5309.83583,0.43320
5307.90709,0.43265
5305.97834,0.43176
5304.04959,0.43088
5302.12085,0.43055
5300.19210,0.43122
5298.26336,0.43247
5296.33461,0.43349
5294.40587,0.43357
5292.47712,0.43297
5290.54838,0.43265
5288.61963,0.43284
5286.69089,0.43339
5284.76214,0.43417
5282.83340,0.43472
5280.90465,0.43493
5278.97591,0.43525
5277.04716,0.43575
5275.11842,0.43587
5273.18967,0.43537
5271.26092,0.43483
5269.33218,0.43441
5267.40343,0.43403
5265.47469,0.43398
5263.54594,0.43397
5261.61720,0.43365
5259.68845,0.43359
5257.75971,0.43421
5255.83096,0.43480
5253.90222,0.43459
5251.97347,0.43432
5250.04473,0.43482
5248.11598,0.43495
5246.18724,0.43390
5244.25849,0.43316
5242.32975,0.43334
5240.40100,0.43298
5238.47225,0.43163
5236.54351,0.43059
5234.61476,0.43070
5232.68602,0.43142
5230.75727,0.43198
5228.82853,0.43236
5226.89978,0.43290
5224.97104,0.43408
5223.04229,0.43603
5221.11355,0.43801
5219.18480,0.43944
5217.25606,0.44050
5215.32731,0.44135
5213.39857,0.44185
5211.46982,0.44239
5209.54107,0.44344
5207.61233,0.44434
5205.68358,0.44446
5203.75484,0.44424
5201.82609,0.44440
5199.89735,0.44492
5197.96860,0.44535
5196.03986,0.44611
5194.11111,0.44761
5192.18237,0.44902
5190.25362,0.44958
5188.32488,0.44945
5186.39613,0.44934
5184.46739,0.44961
5182.53864,0.44951
5180.60990,0.44857
5178.68115,0.44765
5176.75240,0.44762
5174.82366,0.44826
5172.89491,0.44901
5170.96617,0.44978
5169.03742,0.45049
5167.10868,0.45077
5165.17993,0.45068
5163.25119,0.45088
5161.32244,0.45147
5159.39370,0.45186
5157.46495,0.45205
5155.53621,0.45212
5153.60746,0.45206
5151.67872,0.45212
5149.74997,0.45151
5147.82123,0.44988
5145.89248,0.44885
5143.96373,0.44901
5142.03499,0.44932
5140.10624,0.44906
5138.17750,0.44823
5136.24875,0.44720
5134.32001,0.44630
5132.39126,0.44556
5130.46252,0.44496
5128.53377,0.44508
5126.60503,0.44551
5124.67628,0.44519
5122.74754,0.44491
5120.81879,0.44538
5118.89005,0.44580
5116.96130,0.44577
5115.03255,0.44557
5113.10381,0.44580
5111.17506,0.44690
5109.24632,0.44790
5107.31757,0.44772
5105.38883,0.44726
5103.46008,0.44786
5101.53134,0.44919
5099.60259,0.45031
5097.67385,0.45098
5095.74510,0.45113
5093.81636,0.45094
5091.88761,0.45093
5089.95887,0.45094
5088.03012,0.45077
5086.10138,0.45082
5084.17263,0.45115
5082.24388,0.45146
5080.31514,0.45152
5078.38639,0.45156
5076.45765,0.45191
5074.52890,0.45235
5072.60016,0.45245
5070.67141,0.45231
5068.74267,0.45238
5066.81392,0.45266
5064.88518,0.45276
5062.95643,0.45266
5061.02769,0.45249
5059.09894,0.45225
5057.17020,0.45226
5055.24145,0.45280
5053.31270,0.45309
5051.38396,0.45244
5049.45521,0.45142
5047.52647,0.45093
5045.59772,0.45107
5043.66898,0.45125
5041.74023,0.45133
5039.81149,0.45160
5037.88274,0.45168
5035.95400,0.45164
5034.02525,0.45222
5032.09651,0.45317
5030.16776,0.45380
5028.23902,0.45423
5026.31027,0.45451
5024.38153,0.45432
5022.45278,0.45393
5020.52403,0.45389
5018.59529,0.45420
5016.66654,0.45441
5014.73780,0.45423
5012.80905,0.45380
5010.88031,0.45358
5008.95156,0.45367
5007.02282,0.45369
5005.09407,0.45320
5003.16533,0.45263
5001.23658,0.45256
4999.30784,0.45246
4997.37909,0.45162
4995.45035,0.45018
4993.52160,0.44836
4991.59286,0.44650
4989.66411,0.44509
4987.73536,0.44382
4985.80662,0.44247
4983.87787,0.44175
4981.94913,0.44189
4980.02038,0.44210
4978.09164,0.44194
4976.16289,0.44171
4974.23415,0.44157
4972.30540,0.44171
4970.37666,0.44252
4968.44791,0.44361
4966.51917,0.44440
4964.59042,0.44486
4962.66168,0.44451
4960.73293,0.44332
4958.80418,0.44260
4956.87544,0.44301
4954.94669,0.44376
4953.01795,0.44420
4951.08920,0.44415
4949.16046,0.44364
4947.23171,0.44330
4945.30297,0.44346
4943.37422,0.44321
4941.44548,0.44205
4939.51673,0.44110
4937.58799,0.44119
4935.65924,0.44180
4933.73050,0.44211
4931.80175,0.44216
4929.87301,0.44253
4927.94426,0.44303
4926.01551,0.44308
4924.08677,0.44284
4922.15802,0.44285
4920.22928,0.44314
4918.30053,0.44333
4916.37179,0.44348
4914.44304,0.44392
4912.51430,0.44419
4910.58555,0.44358
4908.65681,0.44252
4906.72806,0.44181
4904.79932,0.44145
4902.87057,0.44121
4900.94183,0.44089
4899.01308,0.44020
4897.08434,0.43938
4895.15559,0.43877
4893.22684,0.43816
4891.29810,0.43736
4889.36935,0.43663
4887.44061,0.43620
4885.51186,0.43570
4883.58312,0.43480
4881.65437,0.43365
4879.72563,0.43249
4877.79688,0.43132
4875.86814,0.42995
4873.93939,0.42865
4872.01065,0.42804
4870.08190,0.42790
4868.15316,0.42745
4866.22441,0.42669
4864.29566,0.42632
4862.36692,0.42637
4860.43817,0.42626
4858.50943,0.42608
4856.58068,0.42604
4854.65194,0.42545
4852.72319,0.42382
4850.79445,0.42193
4848.86570,0.42073
4846.93696,0.41986
4845.00821,0.41865
4843.07947,0.41721
4841.15072,0.41586
4839.22198,0.41470
4837.29323,0.41370
4835.36449,0.41280
4833.43574,0.41215
4831.50699,0.41197
4829.57825,0.41206
4827.64950,0.41211
4825.72076,0.41231
4823.79201,0.41290
4821.86327,0.41348
4819.93452,0.41359
4818.00578,0.41341
4816.07703,0.41363
4814.14829,0.41459
4812.21954,0.41564
4810.29080,0.41639
4808.36205,0.41699
4806.43331,0.41700
4804.50456,0.41629
4802.57582,0.41557
4800.64707,0.41516
4798.71832,0.41468
4796.78958,0.41385
4794.86083,0.41286
4792.93209,0.41208
4791.00334,0.41134
4789.07460,0.41014
4787.14585,0.40853
4785.21711,0.40667
4783.28836,0.40441
4781.35962,0.40186
4779.43087,0.39928
4777.50213,0.39642
4775.57338,0.39302
4773.64464,0.38929
4771.71589,0.38543
4769.78714,0.38131
4767.85840,0.37734
4765.92965,0.37400
4764.00091,0.37130
4762.07216,0.36942
4760.14342,0.36847
4758.21467,0.36816
4756.28593,0.36810
4754.35718,0.36835
4752.42844,0.36896
4750.49969,0.36923
4748.57095,0.36863
4746.64220,0.36749
4744.71346,0.36595
4742.78471,0.36401
4740.85597,0.36176
4738.92722,0.35931
4736.99847,0.35699
4735.06973,0.35448
4733.14098,0.35106
4731.21224,0.34696
4729.28349,0.34266
4727.35475,0.33809
4725.42600,0.33299
4723.49726,0.32725
4721.56851,0.32120
4719.63977,0.31496
4717.71102,0.30860
4715.78228,0.30266
4713.85353,0.29715
4711.92479,0.29188
4709.99604,0.28761
4708.06729,0.28490
4706.13855,0.28307
4704.20980,0.28107
4702.28106,0.27841
4700.35231,0.27521
4698.42357,0.27146
4696.49482,0.26691
4694.56608,0.26179
4692.63733,0.25625
4690.70859,0.24976
4688.77984,0.24149
4686.85110,0.23119
4684.92235,0.21961
4682.99361,0.20733
4681.06486,0.19464
4679.13612,0.18191
4677.20737,0.16929
4675.27862,0.15762
4673.34988,0.14813
4671.42113,0.14084
4669.49239,0.13507
4667.56364,0.13085
4665.63490,0.12835
4663.70615,0.12739
4661.77741,0.12779
4659.84866,0.12932
4657.91992,0.13186
4655.99117,0.13538
4654.06243,0.14005
4652.13368,0.14572
4650.20494,0.15115
4648.27619,0.15530
4646.34745,0.15805
4644.41870,0.15934
4642.48995,0.15913
4640.56121,0.15736
4638.63246,0.15403
4636.70372,0.15005
4634.77497,0.14632
4632.84623,0.14283
4630.91748,0.13938
4628.98874,0.13597
4627.05999,0.13314
4625.13125,0.13142
4623.20250,0.13043
4621.27376,0.13002
4619.34501,0.13036
4617.41627,0.13053
4615.48752,0.12960
4613.55877,0.12809
4611.63003,0.12656
4609.70128,0.12504
4607.77254,0.12400
4605.84379,0.12422
4603.91505,0.12615
4601.98630,0.12969
4600.05756,0.13459
4598.12881,0.14074
4596.20007,0.14732
4594.27132,0.15325
4592.34258,0.15837
4590.41383,0.16267
4588.48509,0.16573
4586.55634,0.16778
4584.62760,0.16911
4582.69885,0.16880
4580.77010,0.16588
4578.84136,0.16057
4576.91261,0.15406
4574.98387,0.14809
4573.05512,0.14452
4571.12638,0.14393
4569.19763,0.14574
4567.26889,0.15004
4565.34014,0.15690
4563.41140,0.16531
4561.48265,0.17372
4559.55391,0.18102
4557.62516,0.18727
4555.69642,0.19300
4553.76767,0.19851
4551.83893,0.20407
4549.91018,0.20975
4547.98143,0.21555
4546.05269,0.22117
4544.12394,0.22586
4542.19520,0.22925
4540.26645,0.23123
4538.33771,0.23190
4536.40896,0.23198
4534.48022,0.23214
4532.55147,0.23251
4530.62273,0.23330
4528.69398,0.23469
4526.76524,0.23615
4524.83649,0.23701
4522.90775,0.23729
4520.97900,0.23705
4519.05025,0.23628
4517.12151,0.23546
4515.19276,0.23484
4513.26402,0.23412
4511.33527,0.23313
4509.40653,0.23186
4507.47778,0.23044
4505.54904,0.22937
4503.62029,0.22915
4501.69155,0.23006
4499.76280,0.23248
4497.83406,0.23624
4495.90531,0.24031
4493.97657,0.24365
4492.04782,0.24575
4490.11908,0.24652
4488.19033,0.24627
4486.26158,0.24576
4484.33284,0.24554
4482.40409,0.24544
4480.47535,0.24540
4478.54660,0.24612
4476.61786,0.24804
4474.68911,0.25058
4472.76037,0.25298
4470.83162,0.25523
4468.90288,0.25775
4466.97413,0.26014
4465.04539,0.26181
4463.11664,0.26313
4461.18790,0.26427
4459.25915,0.26467
4457.33041,0.26412
4455.40166,0.26275
4453.47291,0.26068
4451.54417,0.25812
4449.61542,0.25510
4447.68668,0.25131
4445.75793,0.24697
4443.82919,0.24317
4441.90044,0.24062
4439.97170,0.23945
4438.04295,0.23934
4436.11421,0.23983
4434.18546,0.24065
4432.25672,0.24137
4430.32797,0.24129
4428.39923,0.24010
4426.47048,0.23807
4424.54173,0.23588
4422.61299,0.23378
4420.68424,0.23130
4418.75550,0.22839
4416.82675,0.22571
4414.89801,0.22351
4412.96926,0.22115
4411.04052,0.21832
4409.11177,0.21559
4407.18303,0.21315
4405.25428,0.21050
4403.32554,0.20751
4401.39679,0.20442
4399.46805,0.20131
4397.53930,0.19821
4395.61056,0.19513
4393.68181,0.19199
4391.75306,0.18877
4389.82432,0.18549
4387.89557,0.18209
4385.96683,0.17857
4384.03808,0.17525
4382.10934,0.17226
4380.18059,0.16922
4378.25185,0.16597
4376.32310,0.16280
4374.39436,0.15983
4372.46561,0.15710
4370.53687,0.15464
4368.60812,0.15202
4366.67938,0.14874
4364.75063,0.14529
4362.82189,0.14236
4360.89314,0.13964
4358.96439,0.13703
4357.03565,0.13496
4355.10690,0.13320
4353.17816,0.13139
4351.24941,0.12971
4349.32067,0.12813
4347.39192,0.12636
4345.46318,0.12448
4343.53443,0.12290
4341.60569,0.12179
4339.67694,0.12074
4337.74820,0.11971
4335.81945,0.11889
4333.89071,0.11809
4331.96196,0.11739
4330.03321,0.11711
4328.10447,0.11743
4326.17572,0.11848
4324.24698,0.11989
4322.31823,0.12144
4320.38949,0.12363
4318.46074,0.12620
4316.53200,0.12847
4314.60325,0.13059
4312.67451,0.13273
4310.74576,0.13438
4308.81702,0.13528
4306.88827,0.13588
4304.95953,0.13634
4303.03078,0.13634
4301.10204,0.13597
4299.17329,0.13555
4297.24454,0.13521
4295.31580,0.13473
4293.38705,0.13394
4291.45831,0.13303
4289.52956,0.13211
4287.60082,0.13103
4285.67207,0.12960
4283.74333,0.12768
4281.81458,0.12545
4279.88584,0.12336
4277.95709,0.12163
4276.02835,0.12021
4274.09960,0.11888
4272.17086,0.11723
4270.24211,0.11525
4268.31336,0.11339
4266.38462,0.11177
4264.45587,0.11009
4262.52713,0.10835
4260.59838,0.10683
4258.66964,0.10561
4256.74089,0.10466
4254.81215,0.10404
4252.88340,0.10374
4250.95466,0.10348
4249.02591,0.10321
4247.09717,0.10312
4245.16842,0.10299
4243.23968,0.10273
4241.31093,0.10280
4239.38219,0.10342
4237.45344,0.10419
4235.52469,0.10484
4233.59595,0.10562
4231.66720,0.10637
4229.73846,0.10672
4227.80971,0.10674
4225.88097,0.10689
4223.95222,0.10731
4222.02348,0.10764
4220.09473,0.10772
4218.16599,0.10782
4216.23724,0.10785
4214.30850,0.10757
4212.37975,0.10714
4210.45101,0.10701
4208.52226,0.10736
4206.59352,0.10794
4204.66477,0.10831
4202.73602,0.10858
4200.80728,0.10927
4198.87853,0.11032
4196.94979,0.11110
4195.02104,0.11167
4193.09230,0.11274
4191.16355,0.11408
4189.23481,0.11500
4187.30606,0.11552
4185.37732,0.11583
4183.44857,0.11598
4181.51983,0.11620
4179.59108,0.11676
4177.66234,0.11744
4175.73359,0.11800
4173.80484,0.11878
4171.87610,0.12005
4169.94735,0.12144
4168.01861,0.12241
4166.08986,0.12280
4164.16112,0.12290
4162.23237,0.12292
4160.30363,0.12299
4158.37488,0.12317
4156.44614,0.12325
4154.51739,0.12310
4152.58865,0.12281
4150.65990,0.12262
4148.73116,0.12276
4146.80241,0.12298
4144.87367,0.12293
4142.94492,0.12264
4141.01617,0.12204
4139.08743,0.12112
4137.15868,0.12035
4135.22994,0.11990
4133.30119,0.11933
4131.37245,0.11839
4129.44370,0.11734
4127.51496,0.11648
4125.58621,0.11584
4123.65747,0.11521
4121.72872,0.11432
4119.79998,0.11324
4117.87123,0.11232
4115.94249,0.11167
4114.01374,0.11101
4112.08500,0.11025
4110.15625,0.10951
4108.22750,0.10895
4106.29876,0.10861
4104.37001,0.10846
4102.44127,0.10845
4100.51252,0.10831
4098.58378,0.10765
4096.65503,0.10660
4094.72629,0.10554
4092.79754,0.10449
4090.86880,0.10337
4088.94005,0.10227
4087.01131,0.10107
4085.08256,0.09957
4083.15382,0.09790
4081.22507,0.09634
4079.29632,0.09481
4077.36758,0.09317
4075.43883,0.09156
4073.51009,0.08989
4071.58134,0.08816
4069.65260,0.08665
4067.72385,0.08551
4065.79511,0.08466
4063.86636,0.08391
4061.93762,0.08328
4060.00887,0.08263
4058.08013,0.08181
4056.15138,0.08116
4054.22264,0.08096
4052.29389,0.08111
4050.36515,0.08142
4048.43640,0.08165
4046.50765,0.08167
4044.57891,0.08158
4042.65016,0.08142
4040.72142,0.08124
4038.79267,0.08113
4036.86393,0.08107
4034.93518,0.08122
4033.00644,0.08184
4031.07769,0.08280
4029.14895,0.08386
4027.22020,0.08508
4025.29146,0.08673
4023.36271,0.08886
4021.43397,0.09129
4019.50522,0.09418
4017.57648,0.09768
4015.64773,0.10111
4013.71898,0.10364
4011.79024,0.10508
4009.86149,0.10590
4007.93275,0.10654
4006.00400,0.10687
4004.07526,0.10687
4002.14651,0.10685
4000.21777,0.10713
3998.28902,0.10817
3996.36028,0.10995
3994.43153,0.11211
3992.50279,0.11444
3990.57404,0.11644
3988.64530,0.11778
3986.71655,0.11867
3984.78780,0.11910
3982.85906,0.11907
3980.93031,0.11890
3979.00157,0.11873
3977.07282,0.11861
3975.14408,0.11878
3973.21533,0.11923
3971.28659,0.11972
3969.35784,0.12019
3967.42910,0.12075
3965.50035,0.12134
3963.57161,0.12177
3961.64286,0.12211
3959.71412,0.12261
3957.78537,0.12321
3955.85663,0.12356
3953.92788,0.12353
3951.99913,0.12345
3950.07039,0.12351
3948.14164,0.12338
3946.21290,0.12282
3944.28415,0.12190
3942.35541,0.12092
3940.42666,0.12032
3938.49792,0.12024
3936.56917,0.12039
3934.64043,0.12053
3932.71168,0.12061
3930.78294,0.12084
3928.85419,0.12133
3926.92545,0.12185
3924.99670,0.12220
3923.06795,0.12251
3921.13921,0.12282
3919.21046,0.12312
3917.28172,0.12363
3915.35297,0.12442
3913.42423,0.12521
3911.49548,0.12560
3909.56674,0.12542
3907.63799,0.12503
3905.70925,0.12488
3903.78050,0.12494
3901.85176,0.12499
3899.92301,0.12502
3897.99427,0.12511
3896.06552,0.12547
3894.13678,0.12605
3892.20803,0.12651
3890.27928,0.12691
3888.35054,0.12754
3886.42179,0.12815
3884.49305,0.12839
3882.56430,0.12855
3880.63556,0.12876
3878.70681,0.12873
3876.77807,0.12850
3874.84932,0.12836
3872.92058,0.12864
3870.99183,0.12915
3869.06309,0.12923
3867.13434,0.12880
3865.20560,0.12820
3863.27685,0.12769
3861.34811,0.12770
3859.41936,0.12821
3857.49061,0.12882
3855.56187,0.12926
3853.63312,0.12928
3851.70438,0.12878
3849.77563,0.12809
3847.84689,0.12754
3845.91814,0.12722
3843.98940,0.12693
3842.06065,0.12639
3840.13191,0.12571
3838.20316,0.12500
3836.27442,0.12438
3834.34567,0.12388
3832.41693,0.12329
3830.48818,0.12256
3828.55943,0.12191
3826.63069,0.12136
3824.70194,0.12088
3822.77320,0.12055
3820.84445,0.12018
3818.91571,0.11965
3816.98696,0.11924
3815.05822,0.11908
3813.12947,0.11916
3811.20073,0.11940
3809.27198,0.11956
3807.34324,0.11950
3805.41449,0.11962
3803.48575,0.12005
3801.55700,0.12046
3799.62826,0.12068
3797.69951,0.12093
3795.77076,0.12155
3793.84202,0.12255
3791.91327,0.12361
3789.98453,0.12457
3788.05578,0.12548
3786.12704,0.12647
3784.19829,0.12760
3782.26955,0.12865
3780.34080,0.12914
3778.41206,0.12904
3776.48331,0.12897
3774.55457,0.12894
3772.62582,0.12865
3770.69708,0.12824
3768.76833,0.12774
3766.83959,0.12714
3764.91084,0.12675
3762.98209,0.12679
3761.05335,0.12719
3759.12460,0.12789
3757.19586,0.12879
3755.26711,0.12982
3753.33837,0.13094
3751.40962,0.13192
3749.48088,0.13258
3747.55213,0.13307
3745.62339,0.13343
3743.69464,0.13351
3741.76590,0.13331
3739.83715,0.13309
3737.90841,0.13301
3735.97966,0.13294
3734.05091,0.13239
3732.12217,0.13124
3730.19342,0.12999
3728.26468,0.12869
3726.33593,0.12694
3724.40719,0.12488
3722.47844,0.12322
3720.54970,0.12261
3718.62095,0.12305
3716.69221,0.12413
3714.76346,0.12548
3712.83472,0.12656
3710.90597,0.12671
3708.97723,0.12565
3707.04848,0.12369
3705.11974,0.12145
3703.19099,0.11943
3701.26224,0.11795
3699.33350,0.11730
3697.40475,0.11732
3695.47601,0.11768
3693.54726,0.11812
3691.61852,0.11862
3689.68977,0.11915
3687.76103,0.11915
3685.83228,0.11822
3683.90354,0.11669
3681.97479,0.11496
3680.04605,0.11351
3678.11730,0.11279
3676.18856,0.11261
3674.25981,0.11259
3672.33107,0.11273
3670.40232,0.11297
3668.47357,0.11290
3666.54483,0.11241
3664.61608,0.11183
3662.68734,0.11113
3660.75859,0.10992
3658.82985,0.10817
3656.90110,0.10621
3654.97236,0.10421
3653.04361,0.10218
3651.11487,0.10011
3649.18612,0.09802
3647.25738,0.09659
3645.32863,0.09687
3643.39989,0.09900
3641.47114,0.10215
3639.54239,0.10575
3637.61365,0.10952
3635.68490,0.11298
3633.75616,0.11565
3631.82741,0.11720
3629.89867,0.11733
3627.96992,0.11610
3626.04118,0.11424
3624.11243,0.11210
3622.18369,0.11007
3620.25494,0.10923
3618.32620,0.11038
3616.39745,0.11340
3614.46871,0.11766
3612.53996,0.12252
3610.61122,0.12706
3608.68247,0.13044
3606.75372,0.13259
3604.82498,0.13405
3602.89623,0.13507
3600.96749,0.13563
3599.03874,0.13562
3597.11000,0.13509
3595.18125,0.13448
3593.25251,0.13402
3591.32376,0.13371
3589.39502,0.13375
3587.46627,0.13422
3585.53753,0.13490
3583.60878,0.13588
3581.68004,0.13725
3579.75129,0.13874
3577.82254,0.14020
3575.89380,0.14173
3573.96505,0.14336
3572.03631,0.14509
3570.10756,0.14687
3568.17882,0.14829
3566.25007,0.14901
3564.32133,0.14920
3562.39258,0.14921
3560.46384,0.14923
3558.53509,0.14940
3556.60635,0.14959
3554.67760,0.14952
3552.74886,0.14919
3550.82011,0.14890
3548.89137,0.14871
3546.96262,0.14840
3545.03387,0.14795
3543.10513,0.14749
3541.17638,0.14706
3539.24764,0.14673
3537.31889,0.14661
3535.39015,0.14637
3533.46140,0.14576
3531.53266,0.14531
3529.60391,0.14530
3527.67517,0.14513
3525.74642,0.14461
3523.81768,0.14419
3521.88893,0.14395
3519.96019,0.14339
3518.03144,0.14252
3516.10270,0.14191
3514.17395,0.14158
3512.24520,0.14135
3510.31646,0.14120
3508.38771,0.14091
3506.45897,0.14048
3504.53022,0.14009
3502.60148,0.13977
3500.67273,0.13928
3498.74399,0.13858
3496.81524,0.13797
3494.88650,0.13732
3492.95775,0.13633
3491.02901,0.13532
3489.10026,0.13464
3487.17152,0.13413
3485.24277,0.13365
3483.31402,0.13321
3481.38528,0.13273
3479.45653,0.13214
3477.52779,0.13134
3475.59904,0.13039
3473.67030,0.12963
3471.74155,0.12934
3469.81281,0.12904
3467.88406,0.12830
3465.95532,0.12754
3464.02657,0.12718
3462.09783,0.12698
3460.16908,0.12689
3458.24034,0.12692
3456.31159,0.12677
3454.38285,0.12630
3452.45410,0.12581
3450.52535,0.12526
3448.59661,0.12433
3446.66786,0.12326
3444.73912,0.12258
3442.81037,0.12230
3440.88163,0.12220
3438.95288,0.12233
3437.02414,0.12276
3435.09539,0.12343
3433.16665,0.12438
3431.23790,0.12568
3429.30916,0.12726
3427.38041,0.12892
3425.45167,0.13050
3423.52292,0.13187
3421.59418,0.13296
3419.66543,0.13375
3417.73668,0.13404
3415.80794,0.13384
3413.87919,0.13370
3411.95045,0.13393
3410.02170,0.13430
3408.09296,0.13466
3406.16421,0.13488
3404.23547,0.13489
3402.30672,0.13497
3400.37798,0.13514
3398.44923,0.13510
3396.52049,0.13499
3394.59174,0.13529
3392.66300,0.13591
3390.73425,0.13619
3388.80550,0.13599
3386.87676,0.13572
3384.94801,0.13549
3383.01927,0.13539
3381.09052,0.13580
3379.16178,0.13659
3377.23303,0.13734
3375.30429,0.13793
3373.37554,0.13856
3371.44680,0.13939
3369.51805,0.14019
3367.58931,0.14071
3365.66056,0.14114
3363.73182,0.14163
3361.80307,0.14202
3359.87433,0.14208
3357.94558,0.14166
3356.01683,0.14094
3354.08809,0.14042
3352.15934,0.14034
3350.23060,0.14045
3348.30185,0.14024
3346.37311,0.13950
3344.44436,0.13849
3342.51562,0.13763
3340.58687,0.13701
3338.65813,0.13651
3336.72938,0.13619
3334.80064,0.13595
3332.87189,0.13546
3330.94315,0.13476
3329.01440,0.13395
3327.08566,0.13303
3325.15691,0.13231
3323.22816,0.13186
3321.29942,0.13128
3319.37067,0.13039
3317.44193,0.12922
3315.51318,0.12782
3313.58444,0.12589
3311.65569,0.12305
3309.72695,0.11944
3307.79820,0.11575
3305.86946,0.11234
3303.94071,0.10923
3302.01197,0.10683
3300.08322,0.10572
3298.15448,0.10597
3296.22573,0.10709
3294.29698,0.10869
3292.36824,0.11075
3290.43949,0.11287
3288.51075,0.11460
3286.58200,0.11603
3284.65326,0.11742
3282.72451,0.11877
3280.79577,0.11986
3278.86702,0.12046
3276.93828,0.12056
3275.00953,0.12057
3273.08079,0.12074
3271.15204,0.12088
3269.22330,0.12078
3267.29455,0.12058
3265.36581,0.12041
3263.43706,0.12019
3261.50831,0.11984
3259.57957,0.11947
3257.65082,0.11913
3255.72208,0.11882
3253.79333,0.11865
3251.86459,0.11840
3249.93584,0.11788
3248.00710,0.11747
3246.07835,0.11732
3244.14961,0.11719
3242.22086,0.11702
3240.29212,0.11681
3238.36337,0.11649
3236.43463,0.11601
3234.50588,0.11536
3232.57713,0.11469
3230.64839,0.11418
3228.71964,0.11372
3226.79090,0.11294
3224.86215,0.11194
3222.93341,0.11107
3221.00466,0.11043
3219.07592,0.10975
3217.14717,0.10886
3215.21843,0.10793
3213.28968,0.10691
3211.36094,0.10557
3209.43219,0.10395
3207.50345,0.10231
3205.57470,0.10076
3203.64596,0.09925
3201.71721,0.09796
3199.78846,0.09732
3197.85972,0.09731
3195.93097,0.09744
3194.00223,0.09751
3192.07348,0.09740
3190.14474,0.09695
3188.21599,0.09632
3186.28725,0.09575
3184.35850,0.09534
3182.42976,0.09494
3180.50101,0.09443
3178.57227,0.09402
3176.64352,0.09357
3174.71478,0.09258
3172.78603,0.09105
3170.85729,0.08924
3168.92854,0.08702
3166.99979,0.08458
3165.07105,0.08245
3163.14230,0.08097
3161.21356,0.08060
3159.28481,0.08136
3157.35607,0.08249
3155.42732,0.08338
3153.49858,0.08405
3151.56983,0.08444
3149.64109,0.08434
3147.71234,0.08403
3145.78360,0.08394
3143.85485,0.08393
3141.92611,0.08360
3139.99736,0.08312
3138.06861,0.08276
3136.13987,0.08216
3134.21112,0.08117
3132.28238,0.08017
3130.35363,0.07935
3128.42489,0.07866
3126.49614,0.07800
3124.56740,0.07726
3122.63865,0.07633
3120.70991,0.07516
3118.78116,0.07379
3116.85242,0.07237
3114.92367,0.07101
3112.99493,0.06966
3111.06618,0.06839
3109.13744,0.06755
3107.20869,0.06716
3105.27994,0.06667
3103.35120,0.06601
3101.42245,0.06578
3099.49371,0.06605
3097.56496,0.06628
3095.63622,0.06632
3093.70747,0.06633
3091.77873,0.06619
3089.84998,0.06572
3087.92124,0.06501
3085.99249,0.06450
3084.06375,0.06436
3082.13500,0.06438
3080.20626,0.06468
3078.27751,0.06530
3076.34877,0.06566
3074.42002,0.06549
3072.49127,0.06511
3070.56253,0.06491
3068.63378,0.06483
3066.70504,0.06469
3064.77629,0.06460
3062.84755,0.06473
3060.91880,0.06495
3058.99006,0.06514
3057.06131,0.06545
3055.13257,0.06596
3053.20382,0.06630
3051.27508,0.06609
3049.34633,0.06563
3047.41759,0.06537
3045.48884,0.06528
3043.56009,0.06527
3041.63135,0.06526
3039.70260,0.06503
3037.77386,0.06455
3035.84511,0.06405
3033.91637,0.06389
3031.98762,0.06418
3030.05888,0.06459
3028.13013,0.06499
3026.20139,0.06561
3024.27264,0.06638
3022.34390,0.06709
3020.41515,0.06755
3018.48641,0.06776
3016.55766,0.06788
3014.62892,0.06798
3012.70017,0.06794
3010.77142,0.06765
3008.84268,0.06722
3006.91393,0.06691
3004.98519,0.06672
3003.05644,0.06657
3001.12770,0.06655
2999.19895,0.06672
2997.27021,0.06703
2995.34146,0.06745
2993.41272,0.06765
2991.48397,0.06738
2989.55523,0.06706
2987.62648,0.06708
2985.69774,0.06724
2983.76899,0.06727
2981.84025,0.06722
2979.91150,0.06719
2977.98275,0.06707
2976.05401,0.06674
2974.12526,0.06627
2972.19652,0.06592
2970.26777,0.06576
2968.33903,0.06567
2966.41028,0.06552
2964.48154,0.06537
2962.55279,0.06526
2960.62405,0.06514
2958.69530,0.06495
2956.76656,0.06480
2954.83781,0.06481
2952.90907,0.06480
2950.98032,0.06452
2949.05157,0.06419
2947.12283,0.06394
2945.19408,0.06362
2943.26534,0.06320
2941.33659,0.06283
2939.40785,0.06267
2937.47910,0.06270
2935.55036,0.06281
2933.62161,0.06311
2931.69287,0.06369
2929.76412,0.06444
2927.83538,0.06529
2925.90663,0.06613
2923.97789,0.06672
2922.04914,0.06731
2920.12040,0.06810
2918.19165,0.06863
2916.26290,0.06860
2914.33416,0.06844
2912.40541,0.06859
2910.47667,0.06884
2908.54792,0.06883
2906.61918,0.06877
2904.69043,0.06892
2902.76169,0.06916
2900.83294,0.06925
2898.90420,0.06909
2896.97545,0.06894
2895.04671,0.06888
2893.11796,0.06882
2891.18922,0.06885
2889.26047,0.06892
2887.33172,0.06887
2885.40298,0.06878
2883.47423,0.06867
2881.54549,0.06848
2879.61674,0.06833
2877.68800,0.06830
2875.75925,0.06842
2873.83051,0.06857
2871.90176,0.06848
2869.97302,0.06816
2868.04427,0.06794
2866.11553,0.06794
2864.18678,0.06800
2862.25804,0.06798
2860.32929,0.06779
2858.40055,0.06761
2856.47180,0.06764
2854.54305,0.06793
2852.61431,0.06834
2850.68556,0.06866
2848.75682,0.06883
2846.82807,0.06897
2844.89933,0.06908
2842.97058,0.06914
2841.04184,0.06924
2839.11309,0.06940
2837.18435,0.06943
2835.25560,0.06930
2833.32686,0.06926
2831.39811,0.06945
2829.46937,0.06980
2827.54062,0.07011
2825.61188,0.07029
2823.68313,0.07045
2821.75438,0.07059
2819.82564,0.07052
2817.89689,0.07038
2815.96815,0.07042
2814.03940,0.07056
2812.11066,0.07068
2810.18191,0.07073
2808.25317,0.07073
2806.32442,0.07074
2804.39568,0.07080
2802.46693,0.07099
2800.53819,0.07124
2798.60944,0.07150
2796.68070,0.07187
2794.75195,0.07225
2792.82320,0.07241
2790.89446,0.07248
2788.96571,0.07267
2787.03697,0.07280
2785.10822,0.07276
2783.17948,0.07273
2781.25073,0.07284
2779.32199,0.07309
2777.39324,0.07327
2775.46450,0.07337
2773.53575,0.07356
2771.60701,0.07395
2769.67826,0.07452
2767.74952,0.07513
2765.82077,0.07547
2763.89203,0.07544
2761.96328,0.07529
2760.03453,0.07532
2758.10579,0.07558
2756.17704,0.07583
2754.24830,0.07596
2752.31955,0.07605
2750.39081,0.07618
2748.46206,0.07637
2746.53332,0.07650
2744.60457,0.07646
2742.67583,0.07635
2740.74708,0.07625
2738.81834,0.07622
2736.88959,0.07617
2734.96085,0.07592
2733.03210,0.07554
2731.10336,0.07527
2729.17461,0.07514
2727.24586,0.07517
2725.31712,0.07508
2723.38837,0.07474
2721.45963,0.07441
2719.53088,0.07432
2717.60214,0.07449
2715.67339,0.07479
2713.74465,0.07493
2711.81590,0.07485
2709.88716,0.07473
2707.95841,0.07473
2706.02967,0.07488
2704.10092,0.07508
2702.17218,0.07517
2700.24343,0.07510
2698.31468,0.07487
2696.38594,0.07460
2694.45719,0.07451
2692.52845,0.07454
2690.59970,0.07441
2688.67096,0.07417
2686.74221,0.07425
2684.81347,0.07453
2682.88472,0.07453
2680.95598,0.07439
2679.02723,0.07441
2677.09849,0.07457
2675.16974,0.07469
2673.24100,0.07466
2671.31225,0.07455
2669.38351,0.07447
2667.45476,0.07442
2665.52601,0.07450
2663.59727,0.07466
2661.66852,0.07476
2659.73978,0.07483
2657.81103,0.07497
2655.88229,0.07506
2653.95354,0.07497
2652.02480,0.07477
2650.09605,0.07465
2648.16731,0.07454
2646.23856,0.07426
2644.30982,0.07399
2642.38107,0.07387
2640.45233,0.07383
2638.52358,0.07368
2636.59484,0.07343
2634.66609,0.07323
2632.73734,0.07300
2630.80860,0.07280
2628.87985,0.07296
2626.95111,0.07353
2625.02236,0.07417
2623.09362,0.07457
2621.16487,0.07471
2619.23613,0.07473
2617.30738,0.07473
2615.37864,0.07476
2613.44989,0.07470
2611.52115,0.07438
2609.59240,0.07392
2607.66366,0.07359
2605.73491,0.07343
2603.80616,0.07331
2601.87742,0.07325
2599.94867,0.07346
2598.01993,0.07401
2596.09118,0.07467
2594.16244,0.07513
2592.23369,0.07536
2590.30495,0.07548
2588.37620,0.07548
2586.44746,0.07521
2584.51871,0.07477
2582.58997,0.07447
2580.66122,0.07438
2578.73248,0.07447
2576.80373,0.07485
2574.87499,0.07551
2572.94624,0.07610
2571.01749,0.07627
2569.08875,0.07613
2567.16000,0.07607
2565.23126,0.07614
2563.30251,0.07610
2561.37377,0.07598
2559.44502,0.07603
2557.51628,0.07627
2555.58753,0.07640
2553.65879,0.07624
2551.73004,0.07583
2549.80130,0.07548
2547.87255,0.07543
2545.94381,0.07553
2544.01506,0.07550
2542.08631,0.07545
2540.15757,0.07561
2538.22882,0.07590
2536.30008,0.07612
2534.37133,0.07611
2532.44259,0.07596
2530.51384,0.07583
2528.58510,0.07574
2526.65635,0.07573
2524.72761,0.07576
2522.79886,0.07562
2520.87012,0.07533
2518.94137,0.07511
2517.01263,0.07507
2515.08388,0.07515
2513.15514,0.07520
2511.22639,0.07509
2509.29764,0.07497
2507.36890,0.07505
2505.44015,0.07530
2503.51141,0.07559
2501.58266,0.07572
2499.65392,0.07570
2497.72517,0.07582
2495.79643,0.07607
2493.86768,0.07621
2491.93894,0.07633
2490.01019,0.07655
2488.08145,0.07673
2486.15270,0.07687
2484.22396,0.07705
2482.29521,0.07726
2480.36647,0.07753
2478.43772,0.07781
2476.50897,0.07806
2474.58023,0.07839
2472.65148,0.07878
2470.72274,0.07911
2468.79399,0.07942
2466.86525,0.07976
2464.93650,0.07998
2463.00776,0.08023
2461.07901,0.08065
2459.15027,0.08090
2457.22152,0.08073
2455.29278,0.08043
2453.36403,0.08021
2451.43529,0.08010
2449.50654,0.08026
2447.57779,0.08063
2445.64905,0.08095
2443.72030,0.08108
2441.79156,0.08097
2439.86281,0.08081
2437.93407,0.08087
2436.00532,0.08110
2434.07658,0.08138
2432.14783,0.08162
2430.21909,0.08176
2428.29034,0.08176
2426.36160,0.08164
2424.43285,0.08158
2422.50411,0.08179
2420.57536,0.08201
2418.64662,0.08184
2416.71787,0.08157
2414.78912,0.08157
2412.86038,0.08155
2410.93163,0.08116
2409.00289,0.08060
2407.07414,0.08031
2405.14540,0.08023
2403.21665,0.08005
2401.28791,0.07971
2399.35916,0.07933
2397.43042,0.07919
2395.50167,0.07931
2393.57293,0.07941
2391.64418,0.07936
2389.71544,0.07932
2387.78669,0.07912
2385.85795,0.07875
2383.92920,0.07860
2382.00045,0.07876
2380.07171,0.07888
2378.14296,0.07876
2376.21422,0.07851
2374.28547,0.07822
2372.35673,0.07794
2370.42798,0.07771
2368.49924,0.07743
2366.57049,0.07700
2364.64175,0.07654
2362.71300,0.07615
2360.78426,0.07582
2358.85551,0.07554
2356.92677,0.07544
2354.99802,0.07558
2353.06927,0.07578
2351.14053,0.07577
2349.21178,0.07553
2347.28304,0.07513
2345.35429,0.07446
2343.42555,0.07355
2341.49680,0.07269
2339.56806,0.07204
2337.63931,0.07160
2335.71057,0.07149
2333.78182,0.07202
2331.85308,0.07314
2329.92433,0.07432
2327.99559,0.07533
2326.06684,0.07624
2324.13810,0.07684
2322.20935,0.07691
2320.28060,0.07643
2318.35186,0.07559
2316.42311,0.07473
2314.49437,0.07406
2312.56562,0.07368
2310.63688,0.07364
2308.70813,0.07393
2306.77939,0.07456
2304.85064,0.07554
2302.92190,0.07648
2300.99315,0.07710
2299.06441,0.07737
2297.13566,0.07734
2295.20692,0.07708
2293.27817,0.07689
2291.34943,0.07705
2289.42068,0.07756
2287.49193,0.07821
2285.56319,0.07876
2283.63444,0.07908
2281.70570,0.07927
2279.77695,0.07952
2277.84821,0.07979
2275.91946,0.07992
2273.99072,0.07979
2272.06197,0.07949
2270.13323,0.07919
2268.20448,0.07893
2266.27574,0.07861
2264.34699,0.07813
2262.41825,0.07758
2260.48950,0.07721
2258.56075,0.07698
2256.63201,0.07676
2254.70326,0.07667
2252.77452,0.07687
2250.84577,0.07723
2248.91703,0.07767
2246.98828,0.07820
2245.05954,0.07868
2243.13079,0.07903
2241.20205,0.07939
2239.27330,0.07981
2237.34456,0.08020
2235.41581,0.08045
2233.48707,0.08053
2231.55832,0.08051
2229.62958,0.08046
2227.70083,0.08056
2225.77208,0.08076
2223.84334,0.08083
2221.91459,0.08096
2219.98585,0.08117
2218.05710,0.08119
2216.12836,0.08112
2214.19961,0.08114
2212.27087,0.08113
2210.34212,0.08104
2208.41338,0.08103
2206.48463,0.08131
2204.55589,0.08171
2202.62714,0.08190
2200.69840,0.08195
2198.76965,0.08199
2196.84090,0.08193
2194.91216,0.08172
2192.98341,0.08146
2191.05467,0.08108
2189.12592,0.08056
2187.19718,0.08015
2185.26843,0.08007
2183.33969,0.08041
2181.41094,0.08104
2179.48220,0.08162
2177.55345,0.08213
2175.62471,0.08265
2173.69596,0.08314
2171.76722,0.08352
2169.83847,0.08373
2167.90973,0.08385
2165.98098,0.08403
2164.05223,0.08419
2162.12349,0.08413
2160.19474,0.08395
2158.26600,0.08394
2156.33725,0.08402
2154.40851,0.08402
2152.47976,0.08392
2150.55102,0.08381
2148.62227,0.08379
2146.69353,0.08390
2144.76478,0.08414
2142.83604,0.08440
2140.90729,0.08462
2138.97855,0.08481
2137.04980,0.08508
2135.12106,0.08547
2133.19231,0.08577
2131.26356,0.08594
2129.33482,0.08616
2127.40607,0.08642
2125.47733,0.08646
2123.54858,0.08629
2121.61984,0.08615
2119.69109,0.08614
2117.76235,0.08624
2115.83360,0.08640
2113.90486,0.08644
2111.97611,0.08636
2110.04737,0.08636
2108.11862,0.08650
2106.18988,0.08670
2104.26113,0.08688
2102.33238,0.08698
2100.40364,0.08711
2098.47489,0.08741
2096.54615,0.08782
2094.61740,0.08819
2092.68866,0.08838
2090.75991,0.08838
2088.83117,0.08834
2086.90242,0.08832
2084.97368,0.08823
2083.04493,0.08807
2081.11619,0.08792
2079.18744,0.08771
2077.25870,0.08735
2075.32995,0.08687
2073.40121,0.08638
2071.47246,0.08593
2069.54371,0.08573
2067.61497,0.08578
2065.68622,0.08585
2063.75748,0.08583
2061.82873,0.08575
2059.89999,0.08572
2057.97124,0.08577
2056.04250,0.08567
2054.11375,0.08543
2052.18501,0.08527
2050.25626,0.08520
2048.32752,0.08509
2046.39877,0.08497
2044.47003,0.08480
2042.54128,0.08448
2040.61254,0.08406
2038.68379,0.08366
2036.75504,0.08322
2034.82630,0.08268
2032.89755,0.08221
2030.96881,0.08197
2029.04006,0.08183
2027.11132,0.08169
2025.18257,0.08160
2023.25383,0.08150
2021.32508,0.08137
2019.39634,0.08126
2017.46759,0.08101
2015.53885,0.08041
2013.61010,0.07963
2011.68136,0.07899
2009.75261,0.07856
2007.82386,0.07828
2005.89512,0.07810
2003.96637,0.07794
2002.03763,0.07765
2000.10888,0.07703
1998.18014,0.07605
1996.25139,0.07504
1994.32265,0.07423
1992.39390,0.07350
1990.46516,0.07260
1988.53641,0.07165
1986.60767,0.07096
1984.67892,0.07055
1982.75018,0.07029
1980.82143,0.07020
1978.89269,0.07019
1976.96394,0.07006
1975.03519,0.06965
1973.10645,0.06904
1971.17770,0.06847
1969.24896,0.06802
1967.32021,0.06751
1965.39147,0.06703
1963.46272,0.06677
1961.53398,0.06664
1959.60523,0.06649
1957.67649,0.06627
1955.74774,0.06612
1953.81900,0.06606
1951.89025,0.06604
1949.96151,0.06614
1948.03276,0.06627
1946.10402,0.06632
1944.17527,0.06631
1942.24652,0.06626
1940.31778,0.06625
1938.38903,0.06646
1936.46029,0.06680
1934.53154,0.06704
1932.60280,0.06719
1930.67405,0.06734
1928.74531,0.06757
1926.81656,0.06792
1924.88782,0.06826
1922.95907,0.06861
1921.03033,0.06913
1919.10158,0.06968
1917.17284,0.06998
1915.24409,0.07005
1913.31534,0.07006
1911.38660,0.07009
1909.45785,0.07008
1907.52911,0.06991
1905.60036,0.06959
1903.67162,0.06915
1901.74287,0.06862
1899.81413,0.06809
1897.88538,0.06764
1895.95664,0.06731
1894.02789,0.06710
1892.09915,0.06690
1890.17040,0.06665
1888.24166,0.06652
1886.31291,0.06656
1884.38417,0.06656
1882.45542,0.06641
1880.52667,0.06625
1878.59793,0.06620
1876.66918,0.06619
1874.74044,0.06621
1872.81169,0.06627
1870.88295,0.06633
1868.95420,0.06639
1867.02546,0.06651
1865.09671,0.06669
1863.16797,0.06684
1861.23922,0.06699
1859.31048,0.06724
1857.38173,0.06755
1855.45299,0.06781
1853.52424,0.06808
1851.59549,0.06849
1849.66675,0.06896
1847.73800,0.06930
1845.80926,0.06955
1843.88051,0.06977
1841.95177,0.06985
1840.02302,0.06968
1838.09428,0.06933
1836.16553,0.06894
1834.23679,0.06867
1832.30804,0.06851
1830.37930,0.06820
1828.45055,0.06763
1826.52181,0.06707
1824.59306,0.06672
1822.66432,0.06654
1820.73557,0.06646
1818.80682,0.06648
1816.87808,0.06640
1814.94933,0.06613
1813.02059,0.06586
1811.09184,0.06572
1809.16310,0.06563
1807.23435,0.06556
1805.30561,0.06555
1803.37686,0.06565
1801.44812,0.06578
1799.51937,0.06576
1797.59063,0.06567
1795.66188,0.06566
1793.73314,0.06577
1791.80439,0.06611
1789.87565,0.06666
1787.94690,0.06718
1786.01815,0.06752
1784.08941,0.06763
1782.16066,0.06755
1780.23192,0.06741
1778.30317,0.06727
1776.37443,0.06716
1774.44568,0.06720
1772.51694,0.06743
1770.58819,0.06760
1768.65945,0.06755
1766.73070,0.06730
1764.80196,0.06696
1762.87321,0.06662
1760.94447,0.06634
1759.01572,0.06604
1757.08697,0.06573
1755.15823,0.06561
1753.22948,0.06564
1751.30074,0.06553
1749.37199,0.06534
1747.44325,0.06533
1745.51450,0.06537
1743.58576,0.06531
1741.65701,0.06520
1739.72827,0.06520
1737.79952,0.06539
1735.87078,0.06572
1733.94203,0.06598
1732.01329,0.06605
1730.08454,0.06612
1728.15580,0.06630
1726.22705,0.06650
1724.29830,0.06665
1722.36956,0.06677
1720.44081,0.06686
1718.51207,0.06692
1716.58332,0.06696
1714.65458,0.06702
1712.72583,0.06710
1710.79709,0.06712
1708.86834,0.06711
1706.93960,0.06714
1705.01085,0.06704
1703.08211,0.06686
1701.15336,0.06668
1699.22462,0.06636
1697.29587,0.06598
1695.36713,0.06588
1693.43838,0.06608
1691.50963,0.06628
1689.58089,0.06623
1687.65214,0.06606
1685.72340,0.06594
1683.79465,0.06572
1681.86591,0.06547
1679.93716,0.06524
1678.00842,0.06493
1676.07967,0.06473
1674.15093,0.06477
1672.22218,0.06488
1670.29344,0.06491
1668.36469,0.06492
1666.43595,0.06502
1664.50720,0.06516
1662.57845,0.06521
1660.64971,0.06506
1658.72096,0.06494
1656.79222,0.06507
1654.86347,0.06530
1652.93473,0.06540
1651.00598,0.06547
1649.07724,0.06571
1647.14849,0.06593
1645.21975,0.06588
1643.29100,0.06570
1641.36226,0.06554
1639.43351,0.06544
1637.50477,0.06541
1635.57602,0.06538
1633.64728,0.06539
1631.71853,0.06552
1629.78978,0.06568
1627.86104,0.06567
1625.93229,0.06552
1624.00355,0.06529
1622.07480,0.06505
1620.14606,0.06488
1618.21731,0.06476
1616.28857,0.06447
1614.35982,0.06398
1612.43108,0.06353
1610.50233,0.06319
1608.57359,0.06280
1606.64484,0.06252
1604.71610,0.06278
1602.78735,0.06367
1600.85861,0.06479
1598.92986,0.06564
1597.00111,0.06600
1595.07237,0.06606
1593.14362,0.06611
1591.21488,0.06598
1589.28613,0.06561
1587.35739,0.06529
1585.42864,0.06512
1583.49990,0.06513
1581.57115,0.06532
1579.64241,0.06554
1577.71366,0.06573
1575.78492,0.06589
1573.85617,0.06593
1571.92743,0.06591
1569.99868,0.06585
1568.06993,0.06576
1566.14119,0.06573
1564.21244,0.06580
1562.28370,0.06591
1560.35495,0.06582
1558.42621,0.06551
1556.49746,0.06522
1554.56872,0.06505
1552.63997,0.06498
1550.71123,0.06491
1548.78248,0.06470
1546.85374,0.06451
1544.92499,0.06455
1542.99625,0.06468
1541.06750,0.06459
1539.13876,0.06420
1537.21001,0.06397
1535.28126,0.06403
1533.35252,0.06415
1531.42377,0.06416
1529.49503,0.06409
1527.56628,0.06407
1525.63754,0.06424
1523.70879,0.06442
1521.78005,0.06435
1519.85130,0.06404
1517.92256,0.06366
1515.99381,0.06338
1514.06507,0.06321
1512.13632,0.06301
1510.20758,0.06273
1508.27883,0.06235
1506.35008,0.06169
1504.42134,0.06103
1502.49259,0.06058
1500.56385,0.05998
1498.63510,0.05915
1496.70636,0.05903
1494.77761,0.06108
1492.84887,0.06491
1490.92012,0.06822
1488.99138,0.06922
1487.06263,0.06859
1485.13389,0.06783
1483.20514,0.06719
1481.27640,0.06659
1479.34765,0.06612
1477.41891,0.06576
1475.49016,0.06536
1473.56141,0.06478
1471.63267,0.06413
1469.70392,0.06367
1467.77518,0.06338
1465.84643,0.06301
1463.91769,0.06249
1461.98894,0.06184
1460.06020,0.06097
1458.13145,0.05977
1456.20271,0.05926
1454.27396,0.06107
1452.34522,0.06454
1450.41647,0.06761
1448.48773,0.06901
1446.55898,0.06925
1444.63024,0.06914
1442.70149,0.06892
1440.77274,0.06877
1438.84400,0.06881
1436.91525,0.06878
1434.98651,0.06848
1433.05776,0.06818
1431.12902,0.06803
1429.20027,0.06790
1427.27153,0.06761
1425.34278,0.06709
1423.41404,0.06661
1421.48529,0.06646
1419.55655,0.06645
1417.62780,0.06637
1415.69906,0.06634
1413.77031,0.06634
1411.84156,0.06618
1409.91282,0.06599
1407.98407,0.06591
1406.05533,0.06588
1404.12658,0.06582
1402.19784,0.06576
1400.26909,0.06566
1398.34035,0.06541
1396.41160,0.06498
1394.48286,0.06462
1392.55411,0.06461
1390.62537,0.06475
1388.69662,0.06475
1386.76788,0.06472
1384.83913,0.06483
1382.91039,0.06486
1380.98164,0.06464
1379.05289,0.06444
1377.12415,0.06451
1375.19540,0.06472
1373.26666,0.06485
1371.33791,0.06486
1369.40917,0.06487
1367.48042,0.06496
1365.55168,0.06502
1363.62293,0.06504
1361.69419,0.06509
1359.76544,0.06513
1357.83670,0.06521
1355.90795,0.06524
1353.97921,0.06518
1352.05046,0.06516
1350.12172,0.06521
1348.19297,0.06531
1346.26422,0.06539
1344.33548,0.06527
1342.40673,0.06513
1340.47799,0.06518
1338.54924,0.06521
1336.62050,0.06509
1334.69175,0.06499
1332.76301,0.06503
1330.83426,0.06508
1328.90552,0.06502
1326.97677,0.06496
1325.04803,0.06497
1323.11928,0.06493
1321.19054,0.06489
1319.26179,0.06493
1317.33304,0.06504
1315.40430,0.06513
1313.47555,0.06512
1311.54681,0.06505
1309.61806,0.06505
1307.68932,0.06511
1305.76057,0.06509
1303.83183,0.06501
1301.90308,0.06495
1299.97434,0.06490
1298.04559,0.06483
1296.11685,0.06484
1294.18810,0.06492
1292.25936,0.06501
1290.33061,0.06507
1288.40187,0.06505
1286.47312,0.06504
1284.54437,0.06521
1282.61563,0.06544
1280.68688,0.06549
1278.75814,0.06549
1276.82939,0.06560
1274.90065,0.06563
1272.97190,0.06560
1271.04316,0.06563
1269.11441,0.06555
1267.18567,0.06543
1265.25692,0.06548
1263.32818,0.06558
1261.39943,0.06561
1259.47069,0.06573
1257.54194,0.06586
1255.61320,0.06572
1253.68445,0.06551
1251.75570,0.06549
1249.82696,0.06562
1247.89821,0.06570
1245.96947,0.06563
1244.04072,0.06548
1242.11198,0.06543
1240.18323,0.06536
1238.25449,0.06516
1236.32574,0.06502
1234.39700,0.06509
1232.46825,0.06517
1230.53951,0.06503
1228.61076,0.06471
1226.68202,0.06445
1224.75327,0.06440
1222.82452,0.06456
1220.89578,0.06471
1218.96703,0.06476
1217.03829,0.06472
1215.10954,0.06462
1213.18080,0.06457
1211.25205,0.06464
1209.32331,0.06468
1207.39456,0.06459
1205.46582,0.06433
1203.53707,0.06397
1201.60833,0.06375
1199.67958,0.06391
1197.75084,0.06427
1195.82209,0.06440
1193.89335,0.06429
1191.96460,0.06418
1190.03585,0.06402
1188.10711,0.06385
1186.17836,0.06382
1184.24962,0.06399
1182.32087,0.06425
1180.39213,0.06440
1178.46338,0.06449
1176.53464,0.06461
1174.60589,0.06471
1172.67715,0.06477
1170.74840,0.06484
1168.81966,0.06486
1166.89091,0.06468
1164.96217,0.06435
1163.03342,0.06418
1161.10467,0.06420
1159.17593,0.06427
1157.24718,0.06445
1155.31844,0.06478
1153.38969,0.06502
1151.46095,0.06512
1149.53220,0.06535
1147.60346,0.06574
1145.67471,0.06611
1143.74597,0.06628
1141.81722,0.06613
1139.88848,0.06578
1137.95973,0.06559
1136.03099,0.06557
1134.10224,0.06557
1132.17350,0.06558
1130.24475,0.06568
1128.31600,0.06582
1126.38726,0.06579
1124.45851,0.06556
1122.52977,0.06532
1120.60102,0.06518
1118.67228,0.06506
1116.74353,0.06486
1114.81479,0.06455
1112.88604,0.06431
1110.95730,0.06434
1109.02855,0.06464
1107.09981,0.06492
1105.17106,0.06498
1103.24232,0.06487
1101.31357,0.06469
1099.38483,0.06444
1097.45608,0.06417
1095.52733,0.06390
1093.59859,0.06349
1091.66984,0.06295
1089.74110,0.06275
1087.81235,0.06289
1085.88361,0.06297
1083.95486,0.06299
1082.02612,0.06304
1080.09737,0.06305
1078.16863,0.06298
1076.23988,0.06280
1074.31114,0.06260
1072.38239,0.06260
1070.45365,0.06302
1068.52490,0.06383
1066.59615,0.06445
1064.66741,0.06463
1062.73866,0.06452
1060.80992,0.06433
1058.88117,0.06427
1056.95243,0.06417
1055.02368,0.06401
1053.09494,0.06421
1051.16619,0.06461
1049.23745,0.06460
1047.30870,0.06425
1045.37996,0.06393
1043.45121,0.06371
1041.52247,0.06360
1039.59372,0.06348
1037.66498,0.06326
1035.73623,0.06297
1033.80748,0.06283
1031.87874,0.06332
1029.94999,0.06446
1028.02125,0.06551
1026.09250,0.06614
1024.16376,0.06659
1022.23501,0.06691
1020.30627,0.06706
1018.37752,0.06703
1016.44878,0.06664
1014.52003,0.06599
1012.59129,0.06570
1010.66254,0.06590
1008.73380,0.06592
1006.80505,0.06539
1004.87631,0.06478
1002.94756,0.06449
1001.01881,0.06443
999.09007,0.06437
997.16132,0.06424
995.23258,0.06419
993.30383,0.06415
991.37509,0.06397
989.44634,0.06385
987.51760,0.06397
985.58885,0.06416
983.66011,0.06425
981.73136,0.06417
979.80262,0.06392
977.87387,0.06368
975.94513,0.06349
974.01638,0.06323
972.08763,0.06299
970.15889,0.06297
968.23014,0.06323
966.30140,0.06367
964.37265,0.06395
962.44391,0.06398
960.51516,0.06401
958.58642,0.06409
956.65767,0.06412
954.72893,0.06413
952.80018,0.06404
950.87144,0.06382
948.94269,0.06377
947.01395,0.06388
945.08520,0.06383
943.15646,0.06360
941.22771,0.06349
939.29896,0.06354
937.37022,0.06349
935.44147,0.06336
933.51273,0.06330
931.58398,0.06315
929.65524,0.06287
927.72649,0.06269
925.79775,0.06278
923.86900,0.06298
921.94026,0.06289
920.01151,0.06249
918.08277,0.06213
916.15402,0.06199
914.22528,0.06193
912.29653,0.06184
910.36779,0.06190
908.43904,0.06238
906.51029,0.06308
904.58155,0.06349
902.65280,0.06356
900.72406,0.06339
898.79531,0.06307
896.86657,0.06289
894.93782,0.06293
893.00908,0.06313
891.08033,0.06344
889.15159,0.06346
887.22284,0.06306
885.29410,0.06272
883.36535,0.06261
881.43661,0.06249
879.50786,0.06243
877.57911,0.06252
875.65037,0.06268
873.72162,0.06273
871.79288,0.06261
869.86413,0.06240
867.93539,0.06220
866.00664,0.06201
864.07790,0.06183
862.14915,0.06182
860.22041,0.06196
858.29166,0.06170
856.36292,0.06100
854.43417,0.06050
852.50543,0.06037
850.57668,0.06031
848.64794,0.06024
846.71919,0.06022
844.79044,0.06033
842.86170,0.06051
840.93295,0.06066
839.00421,0.06066
837.07546,0.06045
835.14672,0.06049
833.21797,0.06110
831.28923,0.06172
829.36048,0.06170
827.43174,0.06120
825.50299,0.06082
823.57425,0.06067
821.64550,0.06057
819.71676,0.06042
817.78801,0.06014
815.85926,0.05973
813.93052,0.05939
812.00177,0.05930
810.07303,0.05952
808.14428,0.05967
806.21554,0.05932
804.28679,0.05885
802.35805,0.05882
800.42930,0.05891
798.50056,0.05867
796.57181,0.05823
794.64307,0.05791
792.71432,0.05755
790.78558,0.05688
788.85683,0.05635
786.92809,0.05630
784.99934,0.05597
783.07059,0.05485
781.14185,0.05379
779.21310,0.05318
777.28436,0.05246
775.35561,0.05182
773.42687,0.05174
771.49812,0.05189
769.56938,0.05198
767.64063,0.05237
765.71189,0.05308
763.78314,0.05405
761.85440,0.05553
759.92565,0.05726
757.99691,0.05891
756.06816,0.06056
754.13942,0.06209
752.21067,0.06324
750.28192,0.06425
748.35318,0.06535
746.42443,0.06621
744.49569,0.06666
742.56694,0.06693
740.63820,0.06700
738.70945,0.06641
736.78071,0.06516
734.85196,0.06365
732.92322,0.06204
730.99447,0.06054
729.06573,0.05934
727.13698,0.05844
725.20824,0.05754
723.27949,0.05641
721.35074,0.05519
719.42200,0.05376
717.49325,0.05177
715.56451,0.04936
713.63576,0.04691
711.70702,0.04451
709.77827,0.04194
707.84953,0.03964
705.92078,0.04015
703.99204,0.04781
702.06329,0.06548
700.13455,0.09053
698.20580,0.11440
696.27706,0.12710
694.34831,0.12503
692.41957,0.11376
690.49082,0.10148
688.56207,0.09252
686.63333,0.08711
684.70458,0.08358
682.77584,0.08094
680.84709,0.07910
678.91835,0.07771
676.98960,0.07642
675.06086,0.07543
673.13211,0.07496
671.20337,0.07483
669.27462,0.07465
667.34588,0.07426
665.41713,0.07378
663.48839,0.07316
661.55964,0.07236
659.63090,0.07184
657.70215,0.07195
655.77340,0.07229
653.84466,0.07250
651.91591,0.07247
649.98717,0.07211
648.05842,0.07138
646.12968,0.07041
644.20093,0.06959
642.27219,0.06931
640.34344,0.06915
638.41470,0.06901
636.48595,0.06928
634.55721,0.06943
632.62846,0.06877
630.69972,0.06762
628.77097,0.06691
626.84222,0.06721
624.91348,0.06790
622.98473,0.06805
621.05599,0.06779
619.12724,0.06804
617.19850,0.06842
615.26975,0.06783
613.34101,0.06719
611.41226,0.06762
609.48352,0.06793
607.55477,0.06704
605.62603,0.06606
603.69728,0.06597
601.76854,0.06637
599.83979,0.06687
