7497.03301,0.83013
7495.10426,0.82748
7493.17552,0.82836
7491.24677,0.83061
7489.31803,0.82759
7487.38928,0.82196
7485.46054,0.82026
7483.53179,0.82059
7481.60305,0.81831
7479.67430,0.81506
7477.74556,0.81299
7475.81681,0.81190
7473.88807,0.81266
7471.95932,0.81404
7470.03057,0.81401
7468.10183,0.81486
7466.17308,0.81648
7464.24434,0.81470
7462.31559,0.81230
7460.38685,0.81385
7458.45810,0.81537
7456.52936,0.81332
7454.60061,0.81099
7452.67187,0.81045
7450.74312,0.80941
7448.81438,0.80718
7446.88563,0.80671
7444.95689,0.80775
7443.02814,0.80485
7441.09940,0.79748
7439.17065,0.79174
7437.24190,0.79043
7435.31316,0.79230
7433.38441,0.79790
7431.45567,0.80457
7429.52692,0.80574
7427.59818,0.80321
7425.66943,0.80186
7423.74069,0.79978
7421.81194,0.79684
7419.88320,0.79540
7417.95445,0.79316
7416.02571,0.78814
7414.09696,0.78508
7412.16822,0.78798
7410.23947,0.79255
7408.31073,0.79418
7406.38198,0.79589
7404.45323,0.80057
7402.52449,0.80303
7400.59574,0.79993
7398.66700,0.79676
7396.73825,0.79758
7394.80951,0.80059
7392.88076,0.80306
7390.95202,0.80403
7389.02327,0.80255
7387.09453,0.79911
7385.16578,0.79804
7383.23704,0.80097
7381.30829,0.80610
7379.37955,0.81080
7377.45080,0.81086
7375.52205,0.80623
7373.59331,0.79988
7371.66456,0.79383
7369.73582,0.79246
7367.80707,0.79628
7365.87833,0.79863
7363.94958,0.79728
7362.02084,0.79739
7360.09209,0.80032
7358.16335,0.80218
7356.23460,0.80310
7354.30586,0.80667
7352.37711,0.81220
7350.44837,0.81371
7348.51962,0.80872
7346.59088,0.80188
7344.66213,0.79778
7342.73338,0.79855
7340.80464,0.80164
7338.87589,0.80220
7336.94715,0.80024
7335.01840,0.79700
7333.08966,0.79335
7331.16091,0.78938
7329.23217,0.78442
7327.30342,0.78046
7325.37468,0.77867
7323.44593,0.77746
7321.51719,0.77539
7319.58844,0.77440
7317.65970,0.77602
7315.73095,0.77753
7313.80221,0.77827
7311.87346,0.77911
7309.94471,0.77963
7308.01597,0.77983
7306.08722,0.77931
7304.15848,0.77728
7302.22973,0.77143
7300.30099,0.76207
7298.37224,0.75636
7296.44350,0.75839
7294.51475,0.76200
7292.58601,0.75999
7290.65726,0.75526
7288.72852,0.75404
7286.79977,0.75512
7284.87103,0.75479
7282.94228,0.75273
7281.01353,0.74969
7279.08479,0.74733
7277.15604,0.74788
7275.22730,0.74875
7273.29855,0.74573
7271.36981,0.74215
7269.44106,0.74256
7267.51232,0.74394
7265.58357,0.74267
7263.65483,0.73930
7261.72608,0.73578
7259.79734,0.73530
7257.86859,0.73726
7255.93985,0.73745
7254.01110,0.73564
7252.08236,0.73241
7250.15361,0.72782
7248.22486,0.72417
7246.29612,0.72300
7244.36737,0.72395
7242.43863,0.72540
7240.50988,0.72591
7238.58114,0.72525
7236.65239,0.72363
7234.72365,0.72055
7232.79490,0.71683
7230.86616,0.71723
7228.93741,0.72112
7227.00867,0.72265
7225.07992,0.72274
7223.15118,0.72282
7221.22243,0.72137
7219.29369,0.72005
7217.36494,0.71840
7215.43619,0.71442
7213.50745,0.71100
7211.57870,0.71002
7209.64996,0.70765
7207.72121,0.70273
7205.79247,0.70020
7203.86372,0.70191
7201.93498,0.70499
7200.00623,0.70662
7198.07749,0.70350
7196.14874,0.69644
7194.22000,0.69319
7192.29125,0.69780
7190.36251,0.70248
7188.43376,0.69884
7186.50501,0.69208
7184.57627,0.68911
7182.64752,0.68824
7180.71878,0.68973
7178.79003,0.69431
7176.86129,0.69604
7174.93254,0.69230
7173.00380,0.68907
7171.07505,0.69010
7169.14631,0.69267
7167.21756,0.69458
7165.28882,0.69611
7163.36007,0.69767
7161.43133,0.69701
7159.50258,0.69295
7157.57384,0.69013
7155.64509,0.69005
7153.71634,0.68977
7151.78760,0.69012
7149.85885,0.69153
7147.93011,0.69236
7146.00136,0.69351
7144.07262,0.69597
7142.14387,0.69822
7140.21513,0.69803
7138.28638,0.69531
7136.35764,0.69321
7134.42889,0.69365
7132.50015,0.69349
7130.57140,0.69024
7128.64266,0.68693
7126.71391,0.68759
7124.78516,0.69129
7122.85642,0.69334
7120.92767,0.69122
7118.99893,0.68761
7117.07018,0.68747
7115.14144,0.68897
7113.21269,0.68588
7111.28395,0.68100
7109.35520,0.67917
7107.42646,0.67791
7105.49771,0.67643
7103.56897,0.67704
7101.64022,0.67816
7099.71148,0.67743
7097.78273,0.67675
7095.85399,0.67682
7093.92524,0.67448
7091.99649,0.67134
7090.06775,0.67227
7088.13900,0.67529
7086.21026,0.67454
7084.28151,0.66930
7082.35277,0.66620
7080.42402,0.66926
7078.49528,0.67160
7076.56653,0.66900
7074.63779,0.66714
7072.70904,0.66754
7070.78030,0.66818
7068.85155,0.67025
7066.92281,0.67272
7064.99406,0.67245
7063.06532,0.66993
7061.13657,0.66854
7059.20782,0.66953
7057.27908,0.67148
7055.35033,0.67274
7053.42159,0.67215
7051.49284,0.67163
7049.56410,0.67395
7047.63535,0.67720
7045.70661,0.67878
7043.77786,0.67925
7041.84912,0.67881
7039.92037,0.67777
7037.99163,0.67875
7036.06288,0.68237
7034.13414,0.68610
7032.20539,0.68851
7030.27664,0.68912
7028.34790,0.68869
7026.41915,0.68858
7024.49041,0.68648
7022.56166,0.68116
7020.63292,0.67752
7018.70417,0.67847
7016.77543,0.68115
7014.84668,0.68361
7012.91794,0.68602
7010.98919,0.68685
7009.06045,0.68524
7007.13170,0.68428
7005.20296,0.68556
7003.27421,0.68700
7001.34547,0.68800
6999.41672,0.68723
6997.48797,0.68420
6995.55923,0.68314
6993.63048,0.68425
6991.70174,0.68445
6989.77299,0.68306
6987.84425,0.67929
6985.91550,0.67587
6983.98676,0.67678
6982.05801,0.67950
6980.12927,0.68040
6978.20052,0.68033
6976.27178,0.67971
6974.34303,0.67748
6972.41429,0.67615
6970.48554,0.67859
6968.55680,0.68271
6966.62805,0.68506
6964.69930,0.68517
6962.77056,0.68381
6960.84181,0.68180
6958.91307,0.68110
6956.98432,0.68318
6955.05558,0.68669
6953.12683,0.68765
6951.19809,0.68503
6949.26934,0.68250
6947.34060,0.68283
6945.41185,0.68677
6943.48311,0.69215
6941.55436,0.69529
6939.62562,0.69543
6937.69687,0.69414
6935.76812,0.69399
6933.83938,0.69588
6931.91063,0.69766
6929.98189,0.69737
6928.05314,0.69610
6926.12440,0.69599
6924.19565,0.69699
6922.26691,0.69892
6920.33816,0.70114
6918.40942,0.70202
6916.48067,0.70257
6914.55193,0.70386
6912.62318,0.70431
6910.69444,0.70409
6908.76569,0.70424
6906.83695,0.70358
6904.90820,0.70274
6902.97945,0.70312
6901.05071,0.70451
6899.12196,0.70720
6897.19322,0.70976
6895.26447,0.71010
6893.33573,0.70816
6891.40698,0.70464
6889.47824,0.70186
6887.54949,0.70223
6885.62075,0.70502
6883.69200,0.70801
6881.76326,0.70992
6879.83451,0.71030
6877.90577,0.71001
6875.97702,0.71033
6874.04828,0.71072
6872.11953,0.71149
6870.19078,0.71395
6868.26204,0.71745
6866.33329,0.72044
6864.40455,0.72107
6862.47580,0.71979
6860.54706,0.71944
6858.61831,0.71938
6856.68957,0.71766
6854.76082,0.71616
6852.83208,0.71743
6850.90333,0.72103
6848.97459,0.72367
6847.04584,0.72429
6845.11710,0.72504
6843.18835,0.72591
6841.25960,0.72578
6839.33086,0.72544
6837.40211,0.72681
6835.47337,0.72910
6833.54462,0.72882
6831.61588,0.72657
6829.68713,0.72505
6827.75839,0.72497
6825.82964,0.72652
6823.90090,0.72757
6821.97215,0.72617
6820.04341,0.72451
6818.11466,0.72539
6816.18592,0.72791
6814.25717,0.72903
6812.32843,0.72795
6810.39968,0.72632
6808.47093,0.72584
6806.54219,0.72671
6804.61344,0.72716
6802.68470,0.72626
6800.75595,0.72633
6798.82721,0.72910
6796.89846,0.73213
6794.96972,0.73256
6793.04097,0.73061
6791.11223,0.72916
6789.18348,0.73103
6787.25474,0.73455
6785.32599,0.73632
6783.39725,0.73677
6781.46850,0.73704
6779.53975,0.73671
6777.61101,0.73665
6775.68226,0.73766
6773.75352,0.73821
6771.82477,0.73770
6769.89603,0.73782
6767.96728,0.73878
6766.03854,0.73951
6764.10979,0.73921
6762.18105,0.73833
6760.25230,0.73927
6758.32356,0.74191
6756.39481,0.74315
6754.46607,0.74223
6752.53732,0.74237
6750.60858,0.74528
6748.67983,0.74738
6746.75108,0.74621
6744.82234,0.74286
6742.89359,0.73960
6740.96485,0.73946
6739.03610,0.74114
6737.10736,0.74064
6735.17861,0.73896
6733.24987,0.73905
6731.32112,0.73982
6729.39238,0.73969
6727.46363,0.73955
6725.53489,0.73933
6723.60614,0.73901
6721.67740,0.74008
6719.74865,0.74208
6717.81991,0.74409
6715.89116,0.74546
6713.96241,0.74529
6712.03367,0.74508
6710.10492,0.74594
6708.17618,0.74650
6706.24743,0.74540
6704.31869,0.74276
6702.38994,0.74153
6700.46120,0.74399
6698.53245,0.74786
6696.60371,0.75002
6694.67496,0.75049
6692.74622,0.74995
6690.81747,0.74821
6688.88873,0.74750
6686.95998,0.75009
6685.03123,0.75368
6683.10249,0.75426
6681.17374,0.75192
6679.24500,0.75078
6677.31625,0.75240
6675.38751,0.75545
6673.45876,0.75854
6671.53002,0.75922
6669.60127,0.75811
6667.67253,0.75852
6665.74378,0.76017
6663.81504,0.76092
6661.88629,0.76054
6659.95755,0.75935
6658.02880,0.75751
6656.10006,0.75695
6654.17131,0.75972
6652.24256,0.76369
6650.31382,0.76525
6648.38507,0.76487
6646.45633,0.76444
6644.52758,0.76300
6642.59884,0.75997
6640.67009,0.75823
6638.74135,0.76032
6636.81260,0.76402
6634.88386,0.76456
6632.95511,0.76210
6631.02637,0.76132
6629.09762,0.76229
6627.16888,0.76172
6625.24013,0.76084
6623.31139,0.76273
6621.38264,0.76615
6619.45389,0.76720
6617.52515,0.76567
6615.59640,0.76405
6613.66766,0.76315
6611.73891,0.76347
6609.81017,0.76538
6607.88142,0.76786
6605.95268,0.76982
6604.02393,0.77066
6602.09519,0.76945
6600.16644,0.76603
6598.23770,0.76374
6596.30895,0.76498
6594.38021,0.76679
6592.45146,0.76707
6590.52271,0.76771
6588.59397,0.76965
6586.66522,0.77157
6584.73648,0.77243
6582.80773,0.77306
6580.87899,0.77463
6578.95024,0.77562
6577.02150,0.77425
6575.09275,0.77244
6573.16401,0.77196
6571.23526,0.77175
6569.30652,0.77140
6567.37777,0.77203
6565.44903,0.77429
6563.52028,0.77694
6561.59154,0.77834
6559.66279,0.77912
6557.73404,0.77979
6555.80530,0.77914
6553.87655,0.77774
6551.94781,0.77725
6550.01906,0.77702
6548.09032,0.77588
6546.16157,0.77521
6544.23283,0.77687
6542.30408,0.77999
6540.37534,0.78155
6538.44659,0.77975
6536.51785,0.77711
6534.58910,0.77733
6532.66036,0.78014
6530.73161,0.78237
6528.80287,0.78246
6526.87412,0.78097
6524.94537,0.77885
6523.01663,0.77937
6521.08788,0.78425
6519.15914,0.78832
6517.23039,0.78781
6515.30165,0.78555
6513.37290,0.78434
6511.44416,0.78376
6509.51541,0.78362
6507.58667,0.78529
6505.65792,0.78782
6503.72918,0.78826
6501.80043,0.78665
6499.87169,0.78504
6497.94294,0.78463
6496.01419,0.78645
6494.08545,0.78906
6492.15670,0.78994
6490.22796,0.79000
6488.29921,0.79041
6486.37047,0.79094
6484.44172,0.79181
6482.51298,0.79320
6480.58423,0.79390
6478.65549,0.79261
6476.72674,0.79235
6474.79800,0.79547
6472.86925,0.79758
6470.94051,0.79567
6469.01176,0.79282
6467.08302,0.79247
6465.15427,0.79462
6463.22552,0.79716
6461.29678,0.79835
6459.36803,0.79761
6457.43929,0.79583
6455.51054,0.79529
6453.58180,0.79625
6451.65305,0.79657
6449.72431,0.79624
6447.79556,0.79670
6445.86682,0.79788
6443.93807,0.79873
6442.00933,0.79808
6440.08058,0.79671
6438.15184,0.79687
6436.22309,0.79876
6434.29434,0.80070
6432.36560,0.80090
6430.43685,0.79936
6428.50811,0.79780
6426.57936,0.79657
6424.65062,0.79580
6422.72187,0.79656
6420.79313,0.79743
6418.86438,0.79706
6416.93564,0.79599
6415.00689,0.79446
6413.07815,0.79379
6411.14940,0.79490
6409.22066,0.79592
6407.29191,0.79483
6405.36317,0.79321
6403.43442,0.79335
6401.50567,0.79371
6399.57693,0.79373
6397.64818,0.79483
6395.71944,0.79476
6393.79069,0.79201
6391.86195,0.79060
6389.93320,0.79203
6388.00446,0.79273
6386.07571,0.79275
6384.14697,0.79438
6382.21822,0.79577
6380.28948,0.79431
6378.36073,0.79093
6376.43199,0.78860
6374.50324,0.78803
6372.57450,0.78658
6370.64575,0.78335
6368.71700,0.78125
6366.78826,0.78147
6364.85951,0.78197
6362.93077,0.78159
6361.00202,0.78044
6359.07328,0.77963
6357.14453,0.78005
6355.21579,0.78146
6353.28704,0.78337
6351.35830,0.78439
6349.42955,0.78364
6347.50081,0.78195
6345.57206,0.77962
6343.64332,0.77733
6341.71457,0.77723
6339.78582,0.77859
6337.85708,0.77738
6335.92833,0.77405
6333.99959,0.77354
6332.07084,0.77595
6330.14210,0.77733
6328.21335,0.77701
6326.28461,0.77653
6324.35586,0.77583
6322.42712,0.77459
6320.49837,0.77385
6318.56963,0.77405
6316.64088,0.77359
6314.71214,0.77148
6312.78339,0.76925
6310.85465,0.76864
6308.92590,0.76889
6306.99715,0.76821
6305.06841,0.76637
6303.13966,0.76461
6301.21092,0.76409
6299.28217,0.76427
6297.35343,0.76334
6295.42468,0.76111
6293.49594,0.75953
6291.56719,0.75964
6289.63845,0.76023
6287.70970,0.76056
6285.78096,0.76104
6283.85221,0.76094
6281.92347,0.75972
6279.99472,0.75859
6278.06598,0.75798
6276.13723,0.75773
6274.20848,0.75792
6272.27974,0.75713
6270.35099,0.75519
6268.42225,0.75444
6266.49350,0.75431
6264.56476,0.75237
6262.63601,0.74971
6260.70727,0.74856
6258.77852,0.74890
6256.84978,0.74913
6254.92103,0.74718
6252.99229,0.74319
6251.06354,0.73990
6249.13480,0.73851
6247.20605,0.73712
6245.27730,0.73423
6243.34856,0.73165
6241.41981,0.73109
6239.49107,0.73161
6237.56232,0.73115
6235.63358,0.72902
6233.70483,0.72719
6231.77609,0.72545
6229.84734,0.72201
6227.91860,0.71841
6225.98985,0.71579
6224.06111,0.71427
6222.13236,0.71505
6220.20362,0.71693
6218.27487,0.71737
6216.34613,0.71532
6214.41738,0.71084
6212.48863,0.70566
6210.55989,0.70195
6208.63114,0.69946
6206.70240,0.69641
6204.77365,0.69224
6202.84491,0.68843
6200.91616,0.68644
6198.98742,0.68493
6197.05867,0.68239
6195.12993,0.67958
6193.20118,0.67659
6191.27244,0.67208
6189.34369,0.66599
6187.41495,0.66109
6185.48620,0.65945
6183.55746,0.65830
6181.62871,0.65376
6179.69996,0.64677
6177.77122,0.64090
6175.84247,0.63590
6173.91373,0.62922
6171.98498,0.62133
6170.05624,0.61433
6168.12749,0.60844
6166.19875,0.60273
6164.27000,0.59615
6162.34126,0.58812
6160.41251,0.57995
6158.48377,0.57315
6156.55502,0.56687
6154.62628,0.55996
6152.69753,0.55161
6150.76878,0.54125
6148.84004,0.53113
6146.91129,0.52372
6144.98255,0.51743
6143.05380,0.51123
6141.12506,0.50654
6139.19631,0.50244
6137.26757,0.49745
6135.33882,0.49238
6133.41008,0.48780
6131.48133,0.48308
6129.55259,0.47778
6127.62384,0.47224
6125.69510,0.46642
6123.76635,0.45937
6121.83761,0.45123
6119.90886,0.44418
6117.98011,0.43949
6116.05137,0.43602
6114.12262,0.43301
6112.19388,0.43095
6110.26513,0.43017
6108.33639,0.43001
6106.40764,0.42972
6104.47890,0.43002
6102.55015,0.43140
6100.62141,0.43353
6098.69266,0.43604
6096.76392,0.43755
6094.83517,0.43759
6092.90643,0.43728
6090.97768,0.43663
6089.04893,0.43452
6087.12019,0.43143
6085.19144,0.42937
6083.26270,0.42832
6081.33395,0.42636
6079.40521,0.42333
6077.47646,0.42083
6075.54772,0.41900
6073.61897,0.41707
6071.69023,0.41718
6069.76148,0.42185
6067.83274,0.43029
6065.90399,0.43977
6063.97525,0.44783
6062.04650,0.45426
6060.11776,0.46004
6058.18901,0.46475
6056.26026,0.46763
6054.33152,0.46900
6052.40277,0.46992
6050.47403,0.47142
6048.54528,0.47233
6046.61654,0.46992
6044.68779,0.46370
6042.75905,0.45559
6040.83030,0.44801
6038.90156,0.44197
6036.97281,0.43528
6035.04407,0.42582
6033.11532,0.41562
6031.18658,0.40678
6029.25783,0.39848
6027.32909,0.38999
6025.40034,0.38095
6023.47159,0.37030
6021.54285,0.35844
6019.61410,0.34730
6017.68536,0.33745
6015.75661,0.32848
6013.82787,0.32042
6011.89912,0.31216
6009.97038,0.30268
6008.04163,0.29330
6006.11289,0.28504
6004.18414,0.27789
6002.25540,0.27170
6000.32665,0.26595
5998.39791,0.26042
5996.46916,0.25506
5994.54041,0.24999
5992.61167,0.24517
5990.68292,0.23985
5988.75418,0.23460
5986.82543,0.23043
5984.89669,0.22623
5982.96794,0.22106
5981.03920,0.21554
5979.11045,0.21062
5977.18171,0.20687
5975.25296,0.20378
5973.32422,0.20028
5971.39547,0.19656
5969.46673,0.19385
5967.53798,0.19262
5965.60924,0.19215
5963.68049,0.19177
5961.75174,0.19141
5959.82300,0.19129
5957.89425,0.19167
5955.96551,0.19219
5954.03676,0.19214
5952.10802,0.19100
5950.17927,0.18887
5948.25053,0.18674
5946.32178,0.18569
5944.39304,0.18619
5942.46429,0.18762
5940.53555,0.18919
5938.60680,0.19095
5936.67806,0.19314
5934.74931,0.19605
5932.82057,0.19903
5930.89182,0.20061
5928.96307,0.20092
5927.03433,0.20174
5925.10558,0.20394
5923.17684,0.20649
5921.24809,0.20836
5919.31935,0.20893
5917.39060,0.20804
5915.46186,0.20667
5913.53311,0.20638
5911.60437,0.20796
5909.67562,0.21060
5907.74688,0.21304
5905.81813,0.21528
5903.88939,0.21793
5901.96064,0.22016
5900.03189,0.22111
5898.10315,0.22248
5896.17440,0.22521
5894.24566,0.22772
5892.31691,0.22969
5890.38817,0.23200
5888.45942,0.23463
5886.53068,0.23785
5884.60193,0.24244
5882.67319,0.24812
5880.74444,0.25390
5878.81570,0.25939
5876.88695,0.26445
5874.95821,0.26874
5873.02946,0.27240
5871.10072,0.27607
5869.17197,0.27933
5867.24322,0.28156
5865.31448,0.28381
5863.38573,0.28682
5861.45699,0.28962
5859.52824,0.29140
5857.59950,0.29217
5855.67075,0.29205
5853.74201,0.29134
5851.81326,0.29053
5849.88452,0.29066
5847.95577,0.29198
5846.02703,0.29272
5844.09828,0.29225
5842.16954,0.29159
5840.24079,0.29130
5838.31205,0.29211
5836.38330,0.29424
5834.45455,0.29596
5832.52581,0.29625
5830.59706,0.29640
5828.66832,0.29733
5826.73957,0.29824
5824.81083,0.29820
5822.88208,0.29816
5820.95334,0.29975
5819.02459,0.30152
5817.09585,0.30107
5815.16710,0.29885
5813.23836,0.29630
5811.30961,0.29424
5809.38087,0.29308
5807.45212,0.29286
5805.52337,0.29385
5803.59463,0.29570
5801.66588,0.29720
5799.73714,0.29781
5797.80839,0.29793
5795.87965,0.29764
5793.95090,0.29660
5792.02216,0.29560
5790.09341,0.29629
5788.16467,0.29822
5786.23592,0.29975
5784.30718,0.30156
5782.37843,0.30512
5780.44969,0.30965
5778.52094,0.31387
5776.59220,0.31811
5774.66345,0.32270
5772.73470,0.32752
5770.80596,0.33284
5768.87721,0.33864
5766.94847,0.34443
5765.01972,0.34936
5763.09098,0.35382
5761.16223,0.35917
5759.23349,0.36479
5757.30474,0.36959
5755.37600,0.37414
5753.44725,0.37875
5751.51851,0.38271
5749.58976,0.38565
5747.66102,0.38839
5745.73227,0.39177
5743.80352,0.39462
5741.87478,0.39560
5739.94603,0.39601
5738.01729,0.39728
5736.08854,0.39867
5734.15980,0.39872
5732.23105,0.39704
5730.30231,0.39478
5728.37356,0.39234
5726.44482,0.38891
5724.51607,0.38457
5722.58733,0.38004
5720.65858,0.37582
5718.72984,0.37180
5716.80109,0.36747
5714.87235,0.36273
5712.94360,0.35780
5711.01485,0.35292
5709.08611,0.34866
5707.15736,0.34560
5705.22862,0.34351
5703.29987,0.34177
5701.37113,0.33961
5699.44238,0.33700
5697.51364,0.33542
5695.58489,0.33553
5693.65615,0.33582
5691.72740,0.33502
5689.79866,0.33368
5687.86991,0.33229
5685.94117,0.33047
5684.01242,0.32843
5682.08368,0.32682
5680.15493,0.32569
5678.22618,0.32428
5676.29744,0.32235
5674.36869,0.32049
5672.43995,0.31876
5670.51120,0.31705
5668.58246,0.31607
5666.65371,0.31639
5664.72497,0.31742
5662.79622,0.31858
5660.86748,0.32012
5658.93873,0.32262
5657.00999,0.32622
5655.08124,0.33005
5653.15250,0.33365
5651.22375,0.33700
5649.29500,0.33996
5647.36626,0.34300
5645.43751,0.34602
5643.50877,0.34851
5641.58002,0.35065
5639.65128,0.35300
5637.72253,0.35606
5635.79379,0.35945
5633.86504,0.36274
5631.93630,0.36613
5630.00755,0.36911
5628.07881,0.37108
5626.15006,0.37311
5624.22132,0.37586
5622.29257,0.37806
5620.36383,0.37899
5618.43508,0.37943
5616.50633,0.37992
5614.57759,0.38003
5612.64884,0.37986
5610.72010,0.37987
5608.79135,0.38003
5606.86261,0.38055
5604.93386,0.38117
5603.00512,0.38132
5601.07637,0.38073
5599.14763,0.37958
5597.21888,0.37865
5595.29014,0.37777
5593.36139,0.37631
5591.43265,0.37440
5589.50390,0.37232
5587.57516,0.37063
5585.64641,0.37049
5583.71766,0.37186
5581.78892,0.37328
5579.86017,0.37446
5577.93143,0.37638
5576.00268,0.37913
5574.07394,0.38195
5572.14519,0.38417
5570.21645,0.38544
5568.28770,0.38576
5566.35896,0.38573
5564.43021,0.38616
5562.50147,0.38675
5560.57272,0.38682
5558.64398,0.38673
5556.71523,0.38696
5554.78648,0.38735
5552.85774,0.38727
5550.92899,0.38656
5549.00025,0.38585
5547.07150,0.38520
5545.14276,0.38476
5543.21401,0.38523
5541.28527,0.38608
5539.35652,0.38644
5537.42778,0.38624
5535.49903,0.38581
5533.57029,0.38568
5531.64154,0.38587
5529.71280,0.38605
5527.78405,0.38619
5525.85531,0.38644
5523.92656,0.38658
5521.99781,0.38676
5520.06907,0.38764
5518.14032,0.38896
5516.21158,0.38987
5514.28283,0.39004
5512.35409,0.38976
5510.42534,0.38980
5508.49660,0.39069
5506.56785,0.39204
5504.63911,0.39266
5502.71036,0.39243
5500.78162,0.39291
5498.85287,0.39457
5496.92413,0.39619
5494.99538,0.39785
5493.06664,0.40025
5491.13789,0.40245
5489.20914,0.40410
5487.28040,0.40584
5485.35165,0.40721
5483.42291,0.40811
5481.49416,0.40921
5479.56542,0.41015
5477.63667,0.41066
5475.70793,0.41146
5473.77918,0.41216
5471.85044,0.41191
5469.92169,0.41146
5467.99295,0.41185
5466.06420,0.41286
5464.13546,0.41348
5462.20671,0.41326
5460.27796,0.41301
5458.34922,0.41339
5456.42047,0.41382
5454.49173,0.41386
5452.56298,0.41373
5450.63424,0.41366
5448.70549,0.41343
5446.77675,0.41241
5444.84800,0.41124
5442.91926,0.41115
5440.99051,0.41134
5439.06177,0.41089
5437.13302,0.41041
5435.20428,0.41007
5433.27553,0.40941
5431.34679,0.40888
5429.41804,0.40900
5427.48929,0.40919
5425.56055,0.40860
5423.63180,0.40744
5421.70306,0.40684
5419.77431,0.40719
5417.84557,0.40748
5415.91682,0.40707
5413.98808,0.40672
5412.05933,0.40683
5410.13059,0.40650
5408.20184,0.40575
5406.27310,0.40531
5404.34435,0.40519
5402.41561,0.40512
5400.48686,0.40470
5398.55811,0.40411
5396.62937,0.40406
5394.70062,0.40422
5392.77188,0.40382
5390.84313,0.40318
5388.91439,0.40277
5386.98564,0.40246
5385.05690,0.40186
5383.12815,0.40125
5381.19941,0.40137
5379.27066,0.40189
5377.34192,0.40200
5375.41317,0.40177
5373.48443,0.40155
5371.55568,0.40157
5369.62694,0.40182
5367.69819,0.40232
5365.76944,0.40351
5363.84070,0.40535
5361.91195,0.40680
5359.98321,0.40691
5358.05446,0.40637
5356.12572,0.40669
5354.19697,0.40801
5352.26823,0.40929
5350.33948,0.41077
5348.41074,0.41353
5346.48199,0.41645
5344.55325,0.41778
5342.62450,0.41845
5340.69576,0.41977
5338.76701,0.42099
5336.83827,0.42165
5334.90952,0.42269
5332.98077,0.42438
5331.05203,0.42550
5329.12328,0.42543
5327.19454,0.42561
5325.26579,0.42709
5323.33705,0.42878
5321.40830,0.42992
5319.47956,0.43122
5317.55081,0.43252
5315.62207,0.43284
5313.69332,0.43235
5311.76458,0.43193
5309.83583,0.43174
5307.90709,0.43146
5305.97834,0.43099
5304.04959,0.43057
5302.12085,0.43036
5300.19210,0.43051
5298.26336,0.43092
5296.33461,0.43131
5294.40587,0.43140
5292.47712,0.43149
5290.54838,0.43237
5288.61963,0.43339
5286.69089,0.43342
5284.76214,0.43331
5282.83340,0.43397
5280.90465,0.43435
5278.97591,0.43409
5277.04716,0.43432
5275.11842,0.43491
5273.18967,0.43519
5271.26092,0.43560
5269.33218,0.43617
5267.40343,0.43631
5265.47469,0.43606
5263.54594,0.43563
5261.61720,0.43507
5259.68845,0.43458
5257.75971,0.43454
5255.83096,0.43527
5253.90222,0.43591
5251.97347,0.43554
5250.04473,0.43492
5248.11598,0.43473
5246.18724,0.43456
5244.25849,0.43414
5242.32975,0.43387
5240.40100,0.43390
5238.47225,0.43347
5236.54351,0.43238
5234.61476,0.43163
5232.68602,0.43194
5230.75727,0.43306
5228.82853,0.43415
5226.89978,0.43458
5224.97104,0.43485
5223.04229,0.43541
5221.11355,0.43621
5219.18480,0.43770
5217.25606,0.43981
5215.32731,0.44163
5213.39857,0.44254
5211.46982,0.44271
5209.54107,0.44317
5207.61233,0.44404
5205.68358,0.44434
5203.75484,0.44429
5201.82609,0.44445
5199.89735,0.44463
5197.96860,0.44486
5196.03986,0.44526
5194.11111,0.44580
5192.18237,0.44678
5190.25362,0.44797
5188.32488,0.44874
5186.39613,0.44906
5184.46739,0.44907
5182.53864,0.44872
5180.60990,0.44818
5178.68115,0.44775
5176.75240,0.44776
5174.82366,0.44834
5172.89491,0.44901
5170.96617,0.44933
5169.03742,0.44921
5167.10868,0.44891
5165.17993,0.44907
5163.25119,0.45008
5161.32244,0.45135
5159.39370,0.45189
5157.46495,0.45132
5155.53621,0.45044
5153.60746,0.45036
5151.67872,0.45103
5149.74997,0.45111
5147.82123,0.45015
5145.89248,0.44890
5143.96373,0.44788
5142.03499,0.44718
5140.10624,0.44664
5138.17750,0.44600
5136.24875,0.44564
5134.32001,0.44593
5132.39126,0.44590
5130.46252,0.44505
5128.53377,0.44466
5126.60503,0.44513
5124.67628,0.44541
5122.74754,0.44532
5120.81879,0.44559
5118.89005,0.44605
5116.96130,0.44620
5115.03255,0.44618
5113.10381,0.44615
5111.17506,0.44637
5109.24632,0.44699
5107.31757,0.44766
5105.38883,0.44831
5103.46008,0.44907
5101.53134,0.44986
5099.60259,0.45056
5097.67385,0.45100
5095.74510,0.45100
5093.81636,0.45089
5091.88761,0.45119
5089.95887,0.45171
5088.03012,0.45178
5086.10138,0.45128
5084.17263,0.45103
5082.24388,0.45151
5080.31514,0.45201
5078.38639,0.45233
5076.45765,0.45278
5074.52890,0.45301
5072.60016,0.45292
5070.67141,0.45277
5068.74267,0.45236
5066.81392,0.45202
5064.88518,0.45261
5062.95643,0.45348
5061.02769,0.45345
5059.09894,0.45283
5057.17020,0.45240
5055.24145,0.45225
5053.31270,0.45191
5051.38396,0.45108
5049.45521,0.45010
5047.52647,0.44986
5045.59772,0.45053
5043.66898,0.45086
5041.74023,0.45039
5039.81149,0.44981
5037.88274,0.44955
5035.95400,0.44992
5034.02525,0.45090
5032.09651,0.45193
5030.16776,0.45254
5028.23902,0.45269
5026.31027,0.45252
5024.38153,0.45232
5022.45278,0.45244
5020.52403,0.45303
5018.59529,0.45367
5016.66654,0.45365
5014.73780,0.45318
5012.80905,0.45283
5010.88031,0.45283
5008.95156,0.45316
5007.02282,0.45318
5005.09407,0.45281
5003.16533,0.45219
5001.23658,0.45080
4999.30784,0.44920
4997.37909,0.44833
4995.45035,0.44778
4993.52160,0.44706
4991.59286,0.44636
4989.66411,0.44562
4987.73536,0.44477
4985.80662,0.44380
4983.87787,0.44247
4981.94913,0.44144
4980.02038,0.44142
4978.09164,0.44172
4976.16289,0.44175
4974.23415,0.44172
4972.30540,0.44164
4970.37666,0.44137
4968.44791,0.44125
4966.51917,0.44171
4964.59042,0.44237
4962.66168,0.44263
4960.73293,0.44255
4958.80418,0.44253
4956.87544,0.44285
4954.94669,0.44333
4953.01795,0.44341
4951.08920,0.44313
4949.16046,0.44270
4947.23171,0.44185
4945.30297,0.44099
4943.37422,0.44099
4941.44548,0.44143
4939.51673,0.44131
4937.58799,0.44080
4935.65924,0.44059
4933.73050,0.44057
4931.80175,0.44056
4929.87301,0.44098
4927.94426,0.44191
4926.01551,0.44277
4924.08677,0.44305
4922.15802,0.44267
4920.22928,0.44215
4918.30053,0.44200
4916.37179,0.44185
4914.44304,0.44139
4912.51430,0.44126
4910.58555,0.44194
4908.65681,0.44252
4906.72806,0.44206
4904.79932,0.44117
4902.87057,0.44051
4900.94183,0.43988
4899.01308,0.43919
4897.08434,0.43850
4895.15559,0.43784
4893.22684,0.43717
4891.29810,0.43625
4889.36935,0.43522
4887.44061,0.43448
4885.51186,0.43371
4883.58312,0.43252
4881.65437,0.43129
4879.72563,0.43010
4877.79688,0.42903
4875.86814,0.42850
4873.93939,0.42800
4872.01065,0.42694
4870.08190,0.42606
4868.15316,0.42580
4866.22441,0.42557
4864.29566,0.42535
4862.36692,0.42551
4860.43817,0.42559
4858.50943,0.42513
4856.58068,0.42439
4854.65194,0.42356
4852.72319,0.42261
4850.79445,0.42172
4848.86570,0.42089
4846.93696,0.41968
4845.00821,0.41808
4843.07947,0.41651
4841.15072,0.41514
4839.22198,0.41387
4837.29323,0.41281
4835.36449,0.41195
4833.43574,0.41106
4831.50699,0.41032
4829.57825,0.41013
4827.64950,0.41043
4825.72076,0.41090
4823.79201,0.41148
4821.86327,0.41199
4819.93452,0.41239
4818.00578,0.41299
4816.07703,0.41357
4814.14829,0.41369
4812.21954,0.41356
4810.29080,0.41365
4808.36205,0.41421
4806.43331,0.41497
4804.50456,0.41524
4802.57582,0.41466
4800.64707,0.41392
4798.71832,0.41361
4796.78958,0.41328
4794.86083,0.41237
4792.93209,0.41100
4791.00334,0.40985
4789.07460,0.40903
4787.14585,0.40764
4785.21711,0.40559
4783.28836,0.40356
4781.35962,0.40146
4779.43087,0.39887
4777.50213,0.39596
4775.57338,0.39295
4773.64464,0.38948
4771.71589,0.38533
4769.78714,0.38091
4767.85840,0.37675
4765.92965,0.37329
4764.00091,0.37083
4762.07216,0.36909
4760.14342,0.36798
4758.21467,0.36792
4756.28593,0.36883
4754.35718,0.36990
4752.42844,0.37013
4750.49969,0.36918
4748.57095,0.36765
4746.64220,0.36621
4744.71346,0.36476
4742.78471,0.36310
4740.85597,0.36134
4738.92722,0.35937
4736.99847,0.35675
4735.06973,0.35344
4733.14098,0.34984
4731.21224,0.34630
4729.28349,0.34257
4727.35475,0.33811
4725.42600,0.33285
4723.49726,0.32710
4721.56851,0.32095
4719.63977,0.31452
4717.71102,0.30808
4715.78228,0.30185
4713.85353,0.29611
4711.92479,0.29114
4709.99604,0.28717
4708.06729,0.28404
4706.13855,0.28125
4704.20980,0.27888
4702.28106,0.27681
4700.35231,0.27428
4698.42357,0.27092
4696.49482,0.26678
4694.56608,0.26193
4692.63733,0.25636
4690.70859,0.24953
4688.77984,0.24092
4686.85110,0.23083
4684.92235,0.21971
4682.99361,0.20752
4681.06486,0.19444
4679.13612,0.18144
4677.20737,0.16929
4675.27862,0.15833
4673.34988,0.14884
4671.42113,0.14101
4669.49239,0.13493
4667.56364,0.13050
4665.63490,0.12755
4663.70615,0.12633
4661.77741,0.12714
4659.84866,0.12944
4657.91992,0.13262
4655.99117,0.13637
4654.06243,0.14054
4652.13368,0.14541
4650.20494,0.15063
4648.27619,0.15481
4646.34745,0.15744
4644.41870,0.15877
4642.48995,0.15844
4640.56121,0.15640
4638.63246,0.15331
4636.70372,0.14964
4634.77497,0.14575
4632.84623,0.14218
4630.91748,0.13907
4628.98874,0.13621
4627.05999,0.13370
4625.13125,0.13180
4623.20250,0.13061
4621.27376,0.12994
4619.34501,0.12951
4617.41627,0.12926
4615.48752,0.12909
4613.55877,0.12845
4611.63003,0.12706
4609.70128,0.12543
4607.77254,0.12435
4605.84379,0.12437
4603.91505,0.12597
4601.98630,0.12938
4600.05756,0.13425
4598.12881,0.14015
4596.20007,0.14651
4594.27132,0.15234
4592.34258,0.15726
4590.41383,0.16168
4588.48509,0.16539
4586.55634,0.16776
4584.62760,0.16850
4582.69885,0.16740
4580.77010,0.16432
4578.84136,0.15927
4576.91261,0.15298
4574.98387,0.14739
4573.05512,0.14391
4571.12638,0.14267
4569.19763,0.14399
4567.26889,0.14858
4565.34014,0.15582
4563.41140,0.16427
4561.48265,0.17273
4559.55391,0.18034
4557.62516,0.18664
4555.69642,0.19180
4553.76767,0.19677
4551.83893,0.20255
4549.91018,0.20912
4547.98143,0.21572
4546.05269,0.22161
4544.12394,0.22624
4542.19520,0.22941
4540.26645,0.23105
4538.33771,0.23128
4536.40896,0.23092
4534.48022,0.23091
4532.55147,0.23141
4530.62273,0.23243
4528.69398,0.23397
4526.76524,0.23566
4524.83649,0.23673
4522.90775,0.23683
4520.97900,0.23639
4519.05025,0.23609
4517.12151,0.23606
4515.19276,0.23557
4513.26402,0.23452
4511.33527,0.23349
4509.40653,0.23221
4507.47778,0.23044
4505.54904,0.22886
4503.62029,0.22811
4501.69155,0.22879
4499.76280,0.23143
4497.83406,0.23554
4495.90531,0.24001
4493.97657,0.24372
4492.04782,0.24573
4490.11908,0.24608
4488.19033,0.24565
4486.26158,0.24506
4484.33284,0.24453
4482.40409,0.24427
4480.47535,0.24454
4478.54660,0.24550
4476.61786,0.24723
4474.68911,0.24952
4472.76037,0.25220
4470.83162,0.25508
4468.90288,0.25774
4466.97413,0.26011
4465.04539,0.26210
4463.11664,0.26353
4461.18790,0.26448
4459.25915,0.26479
4457.33041,0.26430
4455.40166,0.26321
4453.47291,0.26149
4451.54417,0.25877
4449.61542,0.25494
4447.68668,0.25052
4445.75793,0.24623
4443.82919,0.24279
4441.90044,0.24055
4439.97170,0.23931
4438.04295,0.23882
4436.11421,0.23914
4434.18546,0.23982
4432.25672,0.24009
4430.32797,0.23986
4428.39923,0.23908
4426.47048,0.23752
4424.54173,0.23544
4422.61299,0.23312
4420.68424,0.23057
4418.75550,0.22782
4416.82675,0.22527
4414.89801,0.22303
4412.96926,0.22066
4411.04052,0.21805
4409.11177,0.21539
4407.18303,0.21269
4405.25428,0.20996
4403.32554,0.20721
4401.39679,0.20434
4399.46805,0.20130
4397.53930,0.19802
4395.61056,0.19457
4393.68181,0.19113
4391.75306,0.18790
4389.82432,0.18493
4387.89557,0.18199
4385.96683,0.17903
4384.03808,0.17614
4382.10934,0.17301
4380.18059,0.16945
4378.25185,0.16614
4376.32310,0.16331
4374.39436,0.16029
4372.46561,0.15694
4370.53687,0.15383
4368.60812,0.15091
4366.67938,0.14789
4364.75063,0.14487
4362.82189,0.14195
4360.89314,0.13922
4358.96439,0.13662
4357.03565,0.13432
4355.10690,0.13252
4353.17816,0.13079
4351.24941,0.12873
4349.32067,0.12684
4347.39192,0.12559
4345.46318,0.12447
4343.53443,0.12304
4341.60569,0.12170
4339.67694,0.12073
4337.74820,0.11997
4335.81945,0.11933
4333.89071,0.11875
4331.96196,0.11828
4330.03321,0.11800
4328.10447,0.11809
4326.17572,0.11868
4324.24698,0.11962
4322.31823,0.12107
4320.38949,0.12325
4318.46074,0.12563
4316.53200,0.12772
4314.60325,0.12985
4312.67451,0.13226
4310.74576,0.13437
4308.81702,0.13570
4306.88827,0.13635
4304.95953,0.13655
4303.03078,0.13664
4301.10204,0.13655
4299.17329,0.13581
4297.24454,0.13470
4295.31580,0.13388
4293.38705,0.13327
4291.45831,0.13259
4289.52956,0.13160
4287.60082,0.13024
4285.67207,0.12873
4283.74333,0.12704
4281.81458,0.12525
4279.88584,0.12365
4277.95709,0.12194
4276.02835,0.11990
4274.09960,0.11782
4272.17086,0.11602
4270.24211,0.11462
4268.31336,0.11333
4266.38462,0.11181
4264.45587,0.11012
4262.52713,0.10852
4260.59838,0.10713
4258.66964,0.10575
4256.74089,0.10454
4254.81215,0.10392
4252.88340,0.10355
4250.95466,0.10310
4249.02591,0.10281
4247.09717,0.10277
4245.16842,0.10268
4243.23968,0.10272
4241.31093,0.10332
4239.38219,0.10432
4237.45344,0.10517
4235.52469,0.10552
4233.59595,0.10552
4231.66720,0.10560
4229.73846,0.10591
4227.80971,0.10622
4225.88097,0.10625
4223.95222,0.10621
4222.02348,0.10646
4220.09473,0.10682
4218.16599,0.10692
4216.23724,0.10686
4214.30850,0.10681
4212.37975,0.10688
4210.45101,0.10703
4208.52226,0.10710
4206.59352,0.10726
4204.66477,0.10769
4202.73602,0.10826
4200.80728,0.10896
4198.87853,0.10992
4196.94979,0.11112
4195.02104,0.11229
4193.09230,0.11329
4191.16355,0.11412
4189.23481,0.11475
4187.30606,0.11532
4185.37732,0.11600
4183.44857,0.11652
4181.51983,0.11652
4179.59108,0.11639
4177.66234,0.11671
4175.73359,0.11751
4173.80484,0.11851
4171.87610,0.11956
4169.94735,0.12076
4168.01861,0.12201
4166.08986,0.12276
4164.16112,0.12285
4162.23237,0.12267
4160.30363,0.12246
4158.37488,0.12234
4156.44614,0.12244
4154.51739,0.12265
4152.58865,0.12287
4150.65990,0.12307
4148.73116,0.12303
4146.80241,0.12276
4144.87367,0.12242
4142.94492,0.12215
4141.01617,0.12191
4139.08743,0.12121
4137.15868,0.12001
4135.22994,0.11902
4133.30119,0.11846
4131.37245,0.11803
4129.44370,0.11745
4127.51496,0.11660
4125.58621,0.11558
4123.65747,0.11458
4121.72872,0.11361
4119.79998,0.11263
4117.87123,0.11183
4115.94249,0.11146
4114.01374,0.11127
4112.08500,0.11084
4110.15625,0.11023
4108.22750,0.10962
4106.29876,0.10904
4104.37001,0.10864
4102.44127,0.10848
4100.51252,0.10815
4098.58378,0.10749
4096.65503,0.10686
4094.72629,0.10616
4092.79754,0.10501
4090.86880,0.10355
4088.94005,0.10194
4087.01131,0.10016
4085.08256,0.09856
4083.15382,0.09745
4081.22507,0.09636
4079.29632,0.09485
4077.36758,0.09319
4075.43883,0.09157
4073.51009,0.09001
4071.58134,0.08851
4069.65260,0.08710
4067.72385,0.08588
4065.79511,0.08467
4063.86636,0.08336
4061.93762,0.08239
4060.00887,0.08212
4058.08013,0.08219
4056.15138,0.08204
4054.22264,0.08171
4052.29389,0.08148
4050.36515,0.08140
4048.43640,0.08148
4046.50765,0.08177
4044.57891,0.08194
4042.65016,0.08155
4040.72142,0.08080
4038.79267,0.08027
4036.86393,0.08015
4034.93518,0.08049
4033.00644,0.08143
4031.07769,0.08256
4029.14895,0.08352
4027.22020,0.08476
4025.29146,0.08648
4023.36271,0.08836
4021.43397,0.09044
4019.50522,0.09307
4017.57648,0.09626
4015.64773,0.09972
4013.71898,0.10289
4011.79024,0.10513
4009.86149,0.10628
4007.93275,0.10666
4006.00400,0.10671
4004.07526,0.10668
4002.14651,0.10665
4000.21777,0.10693
3998.28902,0.10785
3996.36028,0.10945
3994.43153,0.11153
3992.50279,0.11378
3990.57404,0.11579
3988.64530,0.11735
3986.71655,0.11847
3984.78780,0.11914
3982.85906,0.11931
3980.93031,0.11921
3979.00157,0.11912
3977.07282,0.11900
3975.14408,0.11878
3973.21533,0.11882
3971.28659,0.11933
3969.35784,0.11997
3967.42910,0.12052
3965.50035,0.12106
3963.57161,0.12151
3961.64286,0.12184
3959.71412,0.12217
3957.78537,0.12239
3955.85663,0.12263
3953.92788,0.12309
3951.99913,0.12346
3950.07039,0.12353
3948.14164,0.12321
3946.21290,0.12246
3944.28415,0.12172
3942.35541,0.12116
3940.42666,0.12062
3938.49792,0.12028
3936.56917,0.12027
3934.64043,0.12042
3932.71168,0.12068
3930.78294,0.12102
3928.85419,0.12134
3926.92545,0.12162
3924.99670,0.12190
3923.06795,0.12228
3921.13921,0.12282
3919.21046,0.12335
3917.28172,0.12370
3915.35297,0.12393
3913.42423,0.12422
3911.49548,0.12453
3909.56674,0.12482
3907.63799,0.12505
3905.70925,0.12507
3903.78050,0.12485
3901.85176,0.12476
3899.92301,0.12498
3897.99427,0.12521
3896.06552,0.12557
3894.13678,0.12634
3892.20803,0.12705
3890.27928,0.12735
3888.35054,0.12759
3886.42179,0.12784
3884.49305,0.12783
3882.56430,0.12784
3880.63556,0.12810
3878.70681,0.12839
3876.77807,0.12847
3874.84932,0.12831
3872.92058,0.12817
3870.99183,0.12827
3869.06309,0.12828
3867.13434,0.12787
3865.20560,0.12733
3863.27685,0.12719
3861.34811,0.12758
3859.41936,0.12807
3857.49061,0.12841
3855.56187,0.12858
3853.63312,0.12841
3851.70438,0.12802
3849.77563,0.12760
3847.84689,0.12708
3845.91814,0.12649
3843.98940,0.12594
3842.06065,0.12555
3840.13191,0.12521
3838.20316,0.12459
3836.27442,0.12379
3834.34567,0.12317
3832.41693,0.12277
3830.48818,0.12250
3828.55943,0.12210
3826.63069,0.12152
3824.70194,0.12100
3822.77320,0.12063
3820.84445,0.12028
3818.91571,0.11994
3816.98696,0.11972
3815.05822,0.11967
3813.12947,0.11966
3811.20073,0.11958
3809.27198,0.11951
3807.34324,0.11956
3805.41449,0.11968
3803.48575,0.11962
3801.55700,0.11940
3799.62826,0.11950
3797.69951,0.12010
3795.77076,0.12094
3793.84202,0.12193
3791.91327,0.12308
3789.98453,0.12421
3788.05578,0.12519
3786.12704,0.12612
3784.19829,0.12713
3782.26955,0.12808
3780.34080,0.12872
3778.41206,0.12891
3776.48331,0.12869
3774.55457,0.12832
3772.62582,0.12791
3770.69708,0.12749
3768.76833,0.12724
3766.83959,0.12716
3764.91084,0.12718
3762.98209,0.12728
3761.05335,0.12757
3759.12460,0.12820
3757.19586,0.12892
3755.26711,0.12948
3753.33837,0.13036
3751.40962,0.13187
3749.48088,0.13324
3747.55213,0.13395
3745.62339,0.13419
3743.69464,0.13404
3741.76590,0.13359
3739.83715,0.13297
3737.90841,0.13244
3735.97966,0.13228
3734.05091,0.13215
3732.12217,0.13132
3730.19342,0.12984
3728.26468,0.12824
3726.33593,0.12646
3724.40719,0.12451
3722.47844,0.12313
3720.54970,0.12289
3718.62095,0.12363
3716.69221,0.12486
3714.76346,0.12622
3712.83472,0.12728
3710.90597,0.12737
3708.97723,0.12629
3707.04848,0.12438
3705.11974,0.12204
3703.19099,0.11971
3701.26224,0.11791
3699.33350,0.11712
3697.40475,0.11738
3695.47601,0.11825
3693.54726,0.11916
3691.61852,0.11995
3689.68977,0.12051
3687.76103,0.12033
3685.83228,0.11945
3683.90354,0.11837
3681.97479,0.11714
3680.04605,0.11581
3678.11730,0.11473
3676.18856,0.11424
3674.25981,0.11424
3672.33107,0.11440
3670.40232,0.11470
3668.47357,0.11513
3666.54483,0.11527
3664.61608,0.11479
3662.68734,0.11353
3660.75859,0.11167
3658.82985,0.10962
3656.90110,0.10735
3654.97236,0.10474
3653.04361,0.10222
3651.11487,0.10003
3649.18612,0.09821
3647.25738,0.09733
3645.32863,0.09780
3643.39989,0.09945
3641.47114,0.10220
3639.54239,0.10596
3637.61365,0.11003
3635.68490,0.11365
3633.75616,0.11645
3631.82741,0.11803
3629.89867,0.11805
3627.96992,0.11661
3626.04118,0.11441
3624.11243,0.11196
3622.18369,0.10982
3620.25494,0.10886
3618.32620,0.10998
3616.39745,0.11330
3614.46871,0.11811
3612.53996,0.12341
3610.61122,0.12800
3608.68247,0.13127
3606.75372,0.13340
3604.82498,0.13482
3602.89623,0.13606
3600.96749,0.13702
3599.03874,0.13725
3597.11000,0.13686
3595.18125,0.13631
3593.25251,0.13592
3591.32376,0.13571
3589.39502,0.13564
3587.46627,0.13601
3585.53753,0.13687
3583.60878,0.13783
3581.68004,0.13881
3579.75129,0.14004
3577.82254,0.14153
3575.89380,0.14311
3573.96505,0.14468
3572.03631,0.14631
3570.10756,0.14795
3568.17882,0.14916
3566.25007,0.14960
3564.32133,0.14961
3562.39258,0.14945
3560.46384,0.14911
3558.53509,0.14896
3556.60635,0.14912
3554.67760,0.14934
3552.74886,0.14941
3550.82011,0.14942
3548.89137,0.14930
3546.96262,0.14887
3545.03387,0.14826
3543.10513,0.14784
3541.17638,0.14772
3539.24764,0.14766
3537.31889,0.14717
3535.39015,0.14643
3533.46140,0.14590
3531.53266,0.14557
3529.60391,0.14540
3527.67517,0.14532
3525.74642,0.14496
3523.81768,0.14430
3521.88893,0.14364
3519.96019,0.14323
3518.03144,0.14295
3516.10270,0.14259
3514.17395,0.14227
3512.24520,0.14221
3510.31646,0.14203
3508.38771,0.14138
3506.45897,0.14066
3504.53022,0.14024
3502.60148,0.13990
3500.67273,0.13938
3498.74399,0.13875
3496.81524,0.13809
3494.88650,0.13733
3492.95775,0.13653
3491.02901,0.13591
3489.10026,0.13525
3487.17152,0.13424
3485.24277,0.13322
3483.31402,0.13262
3481.38528,0.13212
3479.45653,0.13148
3477.52779,0.13092
3475.59904,0.13047
3473.67030,0.12997
3471.74155,0.12936
3469.81281,0.12856
3467.88406,0.12774
3465.95532,0.12741
3464.02657,0.12748
3462.09783,0.12730
3460.16908,0.12676
3458.24034,0.12634
3456.31159,0.12621
3454.38285,0.12623
3452.45410,0.12606
3450.52535,0.12540
3448.59661,0.12445
3446.66786,0.12347
3444.73912,0.12247
3442.81037,0.12162
3440.88163,0.12105
3438.95288,0.12106
3437.02414,0.12196
3435.09539,0.12344
3433.16665,0.12501
3431.23790,0.12646
3429.30916,0.12783
3427.38041,0.12938
3425.45167,0.13079
3423.52292,0.13163
3421.59418,0.13231
3419.66543,0.13304
3417.73668,0.13361
3415.80794,0.13405
3413.87919,0.13432
3411.95045,0.13433
3410.02170,0.13439
3408.09296,0.13457
3406.16421,0.13467
3404.23547,0.13485
3402.30672,0.13522
3400.37798,0.13551
3398.44923,0.13551
3396.52049,0.13548
3394.59174,0.13564
3392.66300,0.13586
3390.73425,0.13592
3388.80550,0.13576
3386.87676,0.13553
3384.94801,0.13551
3383.01927,0.13580
3381.09052,0.13636
3379.16178,0.13706
3377.23303,0.13773
3375.30429,0.13836
3373.37554,0.13895
3371.44680,0.13955
3369.51805,0.14017
3367.58931,0.14079
3365.66056,0.14149
3363.73182,0.14216
3361.80307,0.14239
3359.87433,0.14211
3357.94558,0.14163
3356.01683,0.14116
3354.08809,0.14059
3352.15934,0.14000
3350.23060,0.13951
3348.30185,0.13898
3346.37311,0.13855
3344.44436,0.13827
3342.51562,0.13771
3340.58687,0.13689
3338.65813,0.13641
3336.72938,0.13638
3334.80064,0.13634
3332.87189,0.13600
3330.94315,0.13542
3329.01440,0.13474
3327.08566,0.13391
3325.15691,0.13290
3323.22816,0.13177
3321.29942,0.13075
3319.37067,0.12985
3317.44193,0.12875
3315.51318,0.12711
3313.58444,0.12496
3311.65569,0.12257
3309.72695,0.11988
3307.79820,0.11651
3305.86946,0.11260
3303.94071,0.10904
3302.01197,0.10674
3300.08322,0.10592
3298.15448,0.10620
3296.22573,0.10728
3294.29698,0.10889
3292.36824,0.11071
3290.43949,0.11270
3288.51075,0.11481
3286.58200,0.11657
3284.65326,0.11783
3282.72451,0.11875
3280.79577,0.11936
3278.86702,0.11973
3276.93828,0.11995
3275.00953,0.12012
3273.08079,0.12038
3271.15204,0.12081
3269.22330,0.12110
3267.29455,0.12103
3265.36581,0.12070
3263.43706,0.12023
3261.50831,0.11980
3259.57957,0.11952
3257.65082,0.11932
3255.72208,0.11923
3253.79333,0.11912
3251.86459,0.11874
3249.93584,0.11822
3248.00710,0.11774
3246.07835,0.11724
3244.14961,0.11677
3242.22086,0.11651
3240.29212,0.11634
3238.36337,0.11603
3236.43463,0.11564
3234.50588,0.11510
3232.57713,0.11404
3230.64839,0.11278
3228.71964,0.11214
3226.79090,0.11194
3224.86215,0.11148
3222.93341,0.11097
3221.00466,0.11081
3219.07592,0.11040
3217.14717,0.10935
3215.21843,0.10815
3213.28968,0.10691
3211.36094,0.10535
3209.43219,0.10375
3207.50345,0.10245
3205.57470,0.10118
3203.64596,0.09982
3201.71721,0.09879
3199.78846,0.09811
3197.85972,0.09770
3195.93097,0.09766
3194.00223,0.09765
3192.07348,0.09731
3190.14474,0.09674
3188.21599,0.09625
3186.28725,0.09579
3184.35850,0.09511
3182.42976,0.09443
3180.50101,0.09424
3178.57227,0.09426
3176.64352,0.09361
3174.71478,0.09231
3172.78603,0.09086
3170.85729,0.08912
3168.92854,0.08684
3166.99979,0.08439
3165.07105,0.08231
3163.14230,0.08105
3161.21356,0.08084
3159.28481,0.08143
3157.35607,0.08237
3155.42732,0.08329
3153.49858,0.08389
3151.56983,0.08419
3149.64109,0.08429
3147.71234,0.08413
3145.78360,0.08391
3143.85485,0.08383
3141.92611,0.08373
3139.99736,0.08328
3138.06861,0.08255
3136.13987,0.08181
3134.21112,0.08103
3132.28238,0.08014
3130.35363,0.07939
3128.42489,0.07879
3126.49614,0.07795
3124.56740,0.07689
3122.63865,0.07588
3120.70991,0.07481
3118.78116,0.07349
3116.85242,0.07200
3114.92367,0.07045
3112.99493,0.06912
3111.06618,0.06831
3109.13744,0.06770
3107.20869,0.06702
3105.27994,0.06642
3103.35120,0.06598
3101.42245,0.06570
3099.49371,0.06563
3097.56496,0.06588
3095.63622,0.06627
3093.70747,0.06629
3091.77873,0.06581
3089.84998,0.06531
3087.92124,0.06502
3085.99249,0.06479
3084.06375,0.06466
3082.13500,0.06486
3080.20626,0.06520
3078.27751,0.06535
3076.34877,0.06523
3074.42002,0.06494
3072.49127,0.06468
3070.56253,0.06446
3068.63378,0.06414
3066.70504,0.06396
3064.77629,0.06416
3062.84755,0.06462
3060.91880,0.06517
3058.99006,0.06563
3057.06131,0.06597
3055.13257,0.06625
3053.20382,0.06633
3051.27508,0.06616
3049.34633,0.06582
3047.41759,0.06538
3045.48884,0.06501
3043.56009,0.06486
3041.63135,0.06480
3039.70260,0.06459
3037.77386,0.06432
3035.84511,0.06412
3033.91637,0.06394
3031.98762,0.06393
3030.05888,0.06425
3028.13013,0.06488
3026.20139,0.06582
3024.27264,0.06691
3022.34390,0.06778
3020.41515,0.06816
3018.48641,0.06815
3016.55766,0.06800
3014.62892,0.06787
3012.70017,0.06772
3010.77142,0.06748
3008.84268,0.06730
3006.91393,0.06721
3004.98519,0.06696
3003.05644,0.06664
3001.12770,0.06666
2999.19895,0.06692
2997.27021,0.06708
2995.34146,0.06721
2993.41272,0.06731
2991.48397,0.06725
2989.55523,0.06718
2987.62648,0.06723
2985.69774,0.06721
2983.76899,0.06715
2981.84025,0.06717
2979.91150,0.06712
2977.98275,0.06689
2976.05401,0.06661
2974.12526,0.06640
2972.19652,0.06632
2970.26777,0.06619
2968.33903,0.06583
2966.41028,0.06538
2964.48154,0.06501
2962.55279,0.06482
2960.62405,0.06478
2958.69530,0.06478
2956.76656,0.06475
2954.83781,0.06461
2952.90907,0.06424
2950.98032,0.06376
2949.05157,0.06343
2947.12283,0.06334
2945.19408,0.06327
2943.26534,0.06304
2941.33659,0.06290
2939.40785,0.06304
2937.47910,0.06317
2935.55036,0.06325
2933.62161,0.06337
2931.69287,0.06354
2929.76412,0.06402
2927.83538,0.06483
2925.90663,0.06566
2923.97789,0.06628
2922.04914,0.06668
2920.12040,0.06722
2918.19165,0.06808
2916.26290,0.06884
2914.33416,0.06916
2912.40541,0.06912
2910.47667,0.06900
2908.54792,0.06896
2906.61918,0.06893
2904.69043,0.06887
2902.76169,0.06889
2900.83294,0.06903
2898.90420,0.06911
2896.97545,0.06904
2895.04671,0.06899
2893.11796,0.06892
2891.18922,0.06867
2889.26047,0.06840
2887.33172,0.06824
2885.40298,0.06825
2883.47423,0.06825
2881.54549,0.06798
2879.61674,0.06767
2877.68800,0.06766
2875.75925,0.06783
2873.83051,0.06783
2871.90176,0.06760
2869.97302,0.06738
2868.04427,0.06738
2866.11553,0.06745
2864.18678,0.06731
2862.25804,0.06717
2860.32929,0.06735
2858.40055,0.06763
2856.47180,0.06770
2854.54305,0.06770
2852.61431,0.06780
2850.68556,0.06800
2848.75682,0.06818
2846.82807,0.06821
2844.89933,0.06815
2842.97058,0.06820
2841.04184,0.06842
2839.11309,0.06871
2837.18435,0.06894
2835.25560,0.06905
2833.32686,0.06909
2831.39811,0.06910
2829.46937,0.06914
2827.54062,0.06930
2825.61188,0.06950
2823.68313,0.06965
2821.75438,0.06989
2819.82564,0.07022
2817.89689,0.07047
2815.96815,0.07057
2814.03940,0.07065
2812.11066,0.07073
2810.18191,0.07079
2808.25317,0.07088
2806.32442,0.07100
2804.39568,0.07109
2802.46693,0.07111
2800.53819,0.07120
2798.60944,0.07155
2796.68070,0.07199
2794.75195,0.07227
2792.82320,0.07237
2790.89446,0.07237
2788.96571,0.07236
2787.03697,0.07252
2785.10822,0.07278
2783.17948,0.07290
2781.25073,0.07291
2779.32199,0.07295
2777.39324,0.07320
2775.46450,0.07362
2773.53575,0.07399
2771.60701,0.07421
2769.67826,0.07439
2767.74952,0.07472
2765.82077,0.07514
2763.89203,0.07538
2761.96328,0.07543
2760.03453,0.07562
2758.10579,0.07594
2756.17704,0.07606
2754.24830,0.07602
2752.31955,0.07603
2750.39081,0.07613
2748.46206,0.07622
2746.53332,0.07626
2744.60457,0.07637
2742.67583,0.07653
2740.74708,0.07648
2738.81834,0.07618
2736.88959,0.07589
2734.96085,0.07575
2733.03210,0.07569
2731.10336,0.07559
2729.17461,0.07535
2727.24586,0.07503
2725.31712,0.07485
2723.38837,0.07493
2721.45963,0.07505
2719.53088,0.07494
2717.60214,0.07481
2715.67339,0.07486
2713.74465,0.07494
2711.81590,0.07493
2709.88716,0.07499
2707.95841,0.07513
2706.02967,0.07515
2704.10092,0.07507
2702.17218,0.07501
2700.24343,0.07492
2698.31468,0.07485
2696.38594,0.07486
2694.45719,0.07483
2692.52845,0.07474
2690.59970,0.07463
2688.67096,0.07446
2686.74221,0.07432
2684.81347,0.07425
2682.88472,0.07421
2680.95598,0.07425
2679.02723,0.07437
2677.09849,0.07446
2675.16974,0.07449
2673.24100,0.07453
2671.31225,0.07446
2669.38351,0.07432
2667.45476,0.07425
2665.52601,0.07430
2663.59727,0.07448
2661.66852,0.07473
2659.73978,0.07477
2657.81103,0.07451
2655.88229,0.07424
2653.95354,0.07425
2652.02480,0.07447
2650.09605,0.07458
2648.16731,0.07438
2646.23856,0.07411
2644.30982,0.07400
2642.38107,0.07398
2640.45233,0.07388
2638.52358,0.07360
2636.59484,0.07331
2634.66609,0.07316
2632.73734,0.07305
2630.80860,0.07292
2628.87985,0.07301
2626.95111,0.07346
2625.02236,0.07404
2623.09362,0.07449
2621.16487,0.07474
2619.23613,0.07484
2617.30738,0.07492
2615.37864,0.07502
2613.44989,0.07510
2611.52115,0.07504
2609.59240,0.07467
2607.66366,0.07401
2605.73491,0.07328
2603.80616,0.07276
2601.87742,0.07276
2599.94867,0.07326
2598.01993,0.07380
2596.09118,0.07426
2594.16244,0.07471
2592.23369,0.07501
2590.30495,0.07509
2588.37620,0.07497
2586.44746,0.07466
2584.51871,0.07426
2582.58997,0.07400
2580.66122,0.07397
2578.73248,0.07425
2576.80373,0.07491
2574.87499,0.07564
2572.94624,0.07602
2571.01749,0.07589
2569.08875,0.07560
2567.16000,0.07557
2565.23126,0.07573
2563.30251,0.07584
2561.37377,0.07583
2559.44502,0.07572
2557.51628,0.07556
2555.58753,0.07550
2553.65879,0.07551
2551.73004,0.07544
2549.80130,0.07535
2547.87255,0.07528
2545.94381,0.07525
2544.01506,0.07536
2542.08631,0.07552
2540.15757,0.07571
2538.22882,0.07601
2536.30008,0.07628
2534.37133,0.07640
2532.44259,0.07636
2530.51384,0.07626
2528.58510,0.07618
2526.65635,0.07595
2524.72761,0.07559
2522.79886,0.07540
2520.87012,0.07524
2518.94137,0.07500
2517.01263,0.07502
2515.08388,0.07523
2513.15514,0.07523
2511.22639,0.07506
2509.29764,0.07485
2507.36890,0.07476
2505.44015,0.07495
2503.51141,0.07523
2501.58266,0.07536
2499.65392,0.07542
2497.72517,0.07561
2495.79643,0.07586
2493.86768,0.07597
2491.93894,0.07605
2490.01019,0.07625
2488.08145,0.07647
2486.15270,0.07657
2484.22396,0.07668
2482.29521,0.07697
2480.36647,0.07739
2478.43772,0.07775
2476.50897,0.07795
2474.58023,0.07818
2472.65148,0.07870
2470.72274,0.07936
2468.79399,0.07983
2466.86525,0.08006
2464.93650,0.08010
2463.00776,0.08005
2461.07901,0.08005
2459.15027,0.08019
2457.22152,0.08038
2455.29278,0.08041
2453.36403,0.08024
2451.43529,0.08015
2449.50654,0.08032
2447.57779,0.08041
2445.64905,0.08038
2443.72030,0.08055
2441.79156,0.08081
2439.86281,0.08086
2437.93407,0.08081
2436.00532,0.08080
2434.07658,0.08086
2432.14783,0.08109
2430.21909,0.08144
2428.29034,0.08176
2426.36160,0.08200
2424.43285,0.08212
2422.50411,0.08207
2420.57536,0.08184
2418.64662,0.08160
2416.71787,0.08144
2414.78912,0.08138
2412.86038,0.08126
2410.93163,0.08087
2409.00289,0.08045
2407.07414,0.08028
2405.14540,0.08020
2403.21665,0.07996
2401.28791,0.07967
2399.35916,0.07963
2397.43042,0.07970
2395.50167,0.07962
2393.57293,0.07937
2391.64418,0.07910
2389.71544,0.07893
2387.78669,0.07881
2385.85795,0.07878
2383.92920,0.07888
2382.00045,0.07894
2380.07171,0.07883
2378.14296,0.07868
2376.21422,0.07868
2374.28547,0.07861
2372.35673,0.07830
2370.42798,0.07785
2368.49924,0.07732
2366.57049,0.07677
2364.64175,0.07645
2362.71300,0.07633
2360.78426,0.07615
2358.85551,0.07588
2356.92677,0.07558
2354.99802,0.07535
2353.06927,0.07532
2351.14053,0.07534
2349.21178,0.07516
2347.28304,0.07475
2345.35429,0.07411
2343.42555,0.07334
2341.49680,0.07268
2339.56806,0.07210
2337.63931,0.07159
2335.71057,0.07153
2333.78182,0.07220
2331.85308,0.07329
2329.92433,0.07433
2327.99559,0.07522
2326.06684,0.07603
2324.13810,0.07656
2322.20935,0.07651
2320.28060,0.07601
2318.35186,0.07538
2316.42311,0.07462
2314.49437,0.07375
2312.56562,0.07310
2310.63688,0.07302
2308.70813,0.07360
2306.77939,0.07474
2304.85064,0.07605
2302.92190,0.07708
2300.99315,0.07753
2299.06441,0.07747
2297.13566,0.07721
2295.20692,0.07702
2293.27817,0.07698
2291.34943,0.07711
2289.42068,0.07750
2287.49193,0.07797
2285.56319,0.07828
2283.63444,0.07860
2281.70570,0.07910
2279.77695,0.07957
2277.84821,0.07976
2275.91946,0.07965
2273.99072,0.07943
2272.06197,0.07928
2270.13323,0.07912
2268.20448,0.07888
2266.27574,0.07858
2264.34699,0.07814
2262.41825,0.07761
2260.48950,0.07718
2258.56075,0.07693
2256.63201,0.07686
2254.70326,0.07691
2252.77452,0.07701
2250.84577,0.07719
2248.91703,0.07750
2246.98828,0.07784
2245.05954,0.07812
2243.13079,0.07847
2241.20205,0.07892
2239.27330,0.07931
2237.34456,0.07958
2235.41581,0.07978
2233.48707,0.07996
2231.55832,0.08025
2229.62958,0.08060
2227.70083,0.08076
2225.77208,0.08077
2223.84334,0.08082
2221.91459,0.08087
2219.98585,0.08090
2218.05710,0.08096
2216.12836,0.08090
2214.19961,0.08067
2212.27087,0.08044
2210.34212,0.08051
2208.41338,0.08091
2206.48463,0.08141
2204.55589,0.08186
2202.62714,0.08215
2200.69840,0.08224
2198.76965,0.08217
2196.84090,0.08193
2194.91216,0.08163
2192.98341,0.08133
2191.05467,0.08091
2189.12592,0.08040
2187.19718,0.08005
2185.26843,0.08002
2183.33969,0.08031
2181.41094,0.08086
2179.48220,0.08138
2177.55345,0.08173
2175.62471,0.08214
2173.69596,0.08270
2171.76722,0.08319
2169.83847,0.08349
2167.90973,0.08364
2165.98098,0.08376
2164.05223,0.08396
2162.12349,0.08416
2160.19474,0.08424
2158.26600,0.08413
2156.33725,0.08387
2154.40851,0.08361
2152.47976,0.08360
2150.55102,0.08386
2148.62227,0.08405
2146.69353,0.08401
2144.76478,0.08401
2142.83604,0.08424
2140.90729,0.08459
2138.97855,0.08485
2137.04980,0.08507
2135.12106,0.08533
2133.19231,0.08561
2131.26356,0.08580
2129.33482,0.08584
2127.40607,0.08588
2125.47733,0.08596
2123.54858,0.08600
2121.61984,0.08599
2119.69109,0.08605
2117.76235,0.08613
2115.83360,0.08607
2113.90486,0.08591
2111.97611,0.08589
2110.04737,0.08617
2108.11862,0.08659
2106.18988,0.08682
2104.26113,0.08684
2102.33238,0.08698
2100.40364,0.08735
2098.47489,0.08777
2096.54615,0.08802
2094.61740,0.08813
2092.68866,0.08820
2090.75991,0.08816
2088.83117,0.08804
2086.90242,0.08799
2084.97368,0.08797
2083.04493,0.08779
2081.11619,0.08748
2079.18744,0.08718
2077.25870,0.08692
2075.32995,0.08664
2073.40121,0.08630
2071.47246,0.08592
2069.54371,0.08563
2067.61497,0.08551
2065.68622,0.08544
2063.75748,0.08532
2061.82873,0.08512
2059.89999,0.08495
2057.97124,0.08496
2056.04250,0.08513
2054.11375,0.08532
2052.18501,0.08532
2050.25626,0.08513
2048.32752,0.08494
2046.39877,0.08488
2044.47003,0.08481
2042.54128,0.08449
2040.61254,0.08393
2038.68379,0.08343
2036.75504,0.08304
2034.82630,0.08260
2032.89755,0.08210
2030.96881,0.08175
2029.04006,0.08160
2027.11132,0.08145
2025.18257,0.08132
2023.25383,0.08137
2021.32508,0.08144
2019.39634,0.08121
2017.46759,0.08070
2015.53885,0.08015
2013.61010,0.07956
2011.68136,0.07892
2009.75261,0.07835
2007.82386,0.07784
2005.89512,0.07743
2003.96637,0.07714
2002.03763,0.07685
2000.10888,0.07645
1998.18014,0.07590
1996.25139,0.07526
1994.32265,0.07437
1992.39390,0.07316
1990.46516,0.07195
1988.53641,0.07100
1986.60767,0.07036
1984.67892,0.07011
1982.75018,0.07024
1980.82143,0.07034
1978.89269,0.07018
1976.96394,0.06987
1975.03519,0.06947
1973.10645,0.06896
1971.17770,0.06831
1969.24896,0.06755
1967.32021,0.06698
1965.39147,0.06675
1963.46272,0.06669
1961.53398,0.06669
1959.60523,0.06673
1957.67649,0.06663
1955.74774,0.06640
1953.81900,0.06618
1951.89025,0.06605
1949.96151,0.06603
1948.03276,0.06605
1946.10402,0.06608
1944.17527,0.06614
1942.24652,0.06614
1940.31778,0.06614
1938.38903,0.06644
1936.46029,0.06683
1934.53154,0.06689
1932.60280,0.06680
1930.67405,0.06693
1928.74531,0.06725
1926.81656,0.06767
1924.88782,0.06803
1922.95907,0.06836
1921.03033,0.06874
1919.10158,0.06909
1917.17284,0.06944
1915.24409,0.06984
1913.31534,0.07011
1911.38660,0.07007
1909.45785,0.06990
1907.52911,0.06980
1905.60036,0.06956
1903.67162,0.06906
1901.74287,0.06858
1899.81413,0.06813
1897.88538,0.06761
1895.95664,0.06717
1894.02789,0.06686
1892.09915,0.06667
1890.17040,0.06660
1888.24166,0.06655
1886.31291,0.06637
1884.38417,0.06617
1882.45542,0.06599
1880.52667,0.06585
1878.59793,0.06592
1876.66918,0.06608
1874.74044,0.06609
1872.81169,0.06603
1870.88295,0.06611
1868.95420,0.06628
1867.02546,0.06639
1865.09671,0.06653
1863.16797,0.06677
1861.23922,0.06701
1859.31048,0.06712
1857.38173,0.06721
1855.45299,0.06746
1853.52424,0.06785
1851.59549,0.06825
1849.66675,0.06863
1847.73800,0.06899
1845.80926,0.06930
1843.88051,0.06955
1841.95177,0.06964
1840.02302,0.06959
1838.09428,0.06945
1836.16553,0.06921
1834.23679,0.06888
1832.30804,0.06846
1830.37930,0.06792
1828.45055,0.06733
1826.52181,0.06687
1824.59306,0.06652
1822.66432,0.06622
1820.73557,0.06606
1818.80682,0.06605
1816.87808,0.06602
1814.94933,0.06594
1813.02059,0.06582
1811.09184,0.06564
1809.16310,0.06551
1807.23435,0.06554
1805.30561,0.06573
1803.37686,0.06589
1801.44812,0.06587
1799.51937,0.06582
1797.59063,0.06589
1795.66188,0.06588
1793.73314,0.06585
1791.80439,0.06604
1789.87565,0.06639
1787.94690,0.06674
1786.01815,0.06705
1784.08941,0.06733
1782.16066,0.06755
1780.23192,0.06763
1778.30317,0.06745
1776.37443,0.06710
1774.44568,0.06690
1772.51694,0.06696
1770.58819,0.06703
1768.65945,0.06698
1766.73070,0.06687
1764.80196,0.06679
1762.87321,0.06669
1760.94447,0.06646
1759.01572,0.06619
1757.08697,0.06590
1755.15823,0.06560
1753.22948,0.06549
1751.30074,0.06560
1749.37199,0.06568
1747.44325,0.06550
1745.51450,0.06530
1743.58576,0.06536
1741.65701,0.06560
1739.72827,0.06567
1737.79952,0.06558
1735.87078,0.06552
1733.94203,0.06556
1732.01329,0.06574
1730.08454,0.06597
1728.15580,0.06621
1726.22705,0.06653
1724.29830,0.06687
1722.36956,0.06715
1720.44081,0.06731
1718.51207,0.06731
1716.58332,0.06720
1714.65458,0.06703
1712.72583,0.06691
1710.79709,0.06695
1708.86834,0.06702
1706.93960,0.06693
1705.01085,0.06672
1703.08211,0.06658
1701.15336,0.06648
1699.22462,0.06632
1697.29587,0.06619
1695.36713,0.06609
1693.43838,0.06592
1691.50963,0.06572
1689.58089,0.06559
1687.65214,0.06552
1685.72340,0.06547
1683.79465,0.06541
1681.86591,0.06537
1679.93716,0.06528
1678.00842,0.06510
1676.07967,0.06490
1674.15093,0.06485
1672.22218,0.06495
1670.29344,0.06501
1668.36469,0.06497
1666.43595,0.06500
1664.50720,0.06511
1662.57845,0.06518
1660.64971,0.06525
1658.72096,0.06543
1656.79222,0.06566
1654.86347,0.06584
1652.93473,0.06584
1651.00598,0.06573
1649.07724,0.06572
1647.14849,0.06577
1645.21975,0.06576
1643.29100,0.06573
1641.36226,0.06572
1639.43351,0.06566
1637.50477,0.06552
1635.57602,0.06544
1633.64728,0.06547
1631.71853,0.06544
1629.78978,0.06529
1627.86104,0.06515
1625.93229,0.06504
1624.00355,0.06487
1622.07480,0.06473
1620.14606,0.06468
1618.21731,0.06458
1616.28857,0.06429
1614.35982,0.06396
1612.43108,0.06370
1610.50233,0.06333
1608.57359,0.06282
1606.64484,0.06251
1604.71610,0.06269
1602.78735,0.06346
1600.85861,0.06464
1598.92986,0.06563
1597.00111,0.06599
1595.07237,0.06591
1593.14362,0.06588
1591.21488,0.06605
1589.28613,0.06612
1587.35739,0.06581
1585.42864,0.06543
1583.49990,0.06536
1581.57115,0.06560
1579.64241,0.06588
1577.71366,0.06601
1575.78492,0.06594
1573.85617,0.06596
1571.92743,0.06605
1569.99868,0.06589
1568.06993,0.06565
1566.14119,0.06567
1564.21244,0.06582
1562.28370,0.06578
1560.35495,0.06546
1558.42621,0.06517
1556.49746,0.06509
1554.56872,0.06498
1552.63997,0.06480
1550.71123,0.06470
1548.78248,0.06466
1546.85374,0.06470
1544.92499,0.06477
1542.99625,0.06474
1541.06750,0.06452
1539.13876,0.06432
1537.21001,0.06443
1535.28126,0.06465
1533.35252,0.06465
1531.42377,0.06447
1529.49503,0.06436
1527.56628,0.06433
1525.63754,0.06424
1523.70879,0.06409
1521.78005,0.06399
1519.85130,0.06400
1517.92256,0.06395
1515.99381,0.06369
1514.06507,0.06325
1512.13632,0.06280
1510.20758,0.06247
1508.27883,0.06217
1506.35008,0.06170
1504.42134,0.06116
1502.49259,0.06051
1500.56385,0.05954
1498.63510,0.05850
1496.70636,0.05849
1494.77761,0.06073
1492.84887,0.06461
1490.92012,0.06787
1488.99138,0.06888
1487.06263,0.06832
1485.13389,0.06750
1483.20514,0.06678
1481.27640,0.06611
1479.34765,0.06550
1477.41891,0.06504
1475.49016,0.06478
1473.56141,0.06456
1471.63267,0.06417
1469.70392,0.06372
1467.77518,0.06331
1465.84643,0.06283
1463.91769,0.06230
1461.98894,0.06183
1460.06020,0.06118
1458.13145,0.06000
1456.20271,0.05920
1454.27396,0.06076
1452.34522,0.06432
1450.41647,0.06765
1448.48773,0.06924
1446.55898,0.06945
1444.63024,0.06926
1442.70149,0.06904
1440.77274,0.06885
1438.84400,0.06869
1436.91525,0.06843
1434.98651,0.06804
1433.05776,0.06773
1431.12902,0.06751
1429.20027,0.06730
1427.27153,0.06719
1425.34278,0.06711
1423.41404,0.06692
1421.48529,0.06667
1419.55655,0.06652
1417.62780,0.06656
1415.69906,0.06665
1413.77031,0.06655
1411.84156,0.06627
1409.91282,0.06616
1407.98407,0.06614
1406.05533,0.06593
1404.12658,0.06567
1402.19784,0.06553
1400.26909,0.06537
1398.34035,0.06514
1396.41160,0.06500
1394.48286,0.06492
1392.55411,0.06474
1390.62537,0.06449
1388.69662,0.06431
1386.76788,0.06417
1384.83913,0.06410
1382.91039,0.06420
1380.98164,0.06433
1379.05289,0.06439
1377.12415,0.06444
1375.19540,0.06456
1373.26666,0.06468
1371.33791,0.06475
1369.40917,0.06473
1367.48042,0.06480
1365.55168,0.06502
1363.62293,0.06516
1361.69419,0.06510
1359.76544,0.06511
1357.83670,0.06526
1355.90795,0.06533
1353.97921,0.06528
1352.05046,0.06519
1350.12172,0.06510
1348.19297,0.06510
1346.26422,0.06511
1344.33548,0.06516
1342.40673,0.06526
1340.47799,0.06516
1338.54924,0.06489
1336.62050,0.06472
1334.69175,0.06465
1332.76301,0.06463
1330.83426,0.06466
1328.90552,0.06472
1326.97677,0.06479
1325.04803,0.06490
1323.11928,0.06498
1321.19054,0.06502
1319.26179,0.06503
1317.33304,0.06496
1315.40430,0.06475
1313.47555,0.06468
1311.54681,0.06479
1309.61806,0.06483
1307.68932,0.06483
1305.76057,0.06497
1303.83183,0.06514
1301.90308,0.06515
1299.97434,0.06509
1298.04559,0.06515
1296.11685,0.06530
1294.18810,0.06536
1292.25936,0.06531
1290.33061,0.06532
1288.40187,0.06532
1286.47312,0.06516
1284.54437,0.06495
1282.61563,0.06489
1280.68688,0.06502
1278.75814,0.06534
1276.82939,0.06562
1274.90065,0.06561
1272.97190,0.06537
1271.04316,0.06511
1269.11441,0.06501
1267.18567,0.06516
1265.25692,0.06541
1263.32818,0.06558
1261.39943,0.06557
1259.47069,0.06546
1257.54194,0.06540
1255.61320,0.06538
1253.68445,0.06530
1251.75570,0.06512
1249.82696,0.06486
1247.89821,0.06468
1245.96947,0.06469
1244.04072,0.06478
1242.11198,0.06484
1240.18323,0.06484
1238.25449,0.06488
1236.32574,0.06499
1234.39700,0.06495
1232.46825,0.06474
1230.53951,0.06460
1228.61076,0.06466
1226.68202,0.06485
1224.75327,0.06499
1222.82452,0.06484
1220.89578,0.06450
1218.96703,0.06443
1217.03829,0.06456
1215.10954,0.06457
1213.18080,0.06450
1211.25205,0.06446
1209.32331,0.06435
1207.39456,0.06426
1205.46582,0.06420
1203.53707,0.06405
1201.60833,0.06398
1199.67958,0.06412
1197.75084,0.06423
1195.82209,0.06428
1193.89335,0.06441
1191.96460,0.06436
1190.03585,0.06407
1188.10711,0.06388
1186.17836,0.06386
1184.24962,0.06398
1182.32087,0.06437
1180.39213,0.06488
1178.46338,0.06527
1176.53464,0.06537
1174.60589,0.06517
1172.67715,0.06496
1170.74840,0.06493
1168.81966,0.06495
1166.89091,0.06495
1164.96217,0.06485
1163.03342,0.06454
1161.10467,0.06427
1159.17593,0.06436
1157.24718,0.06472
1155.31844,0.06509
1153.38969,0.06535
1151.46095,0.06547
1149.53220,0.06550
1147.60346,0.06549
1145.67471,0.06551
1143.74597,0.06560
1141.81722,0.06580
1139.88848,0.06597
1137.95973,0.06589
1136.03099,0.06571
1134.10224,0.06565
1132.17350,0.06572
1130.24475,0.06577
1128.31600,0.06583
1126.38726,0.06576
1124.45851,0.06542
1122.52977,0.06502
1120.60102,0.06468
1118.67228,0.06433
1116.74353,0.06411
1114.81479,0.06421
1112.88604,0.06445
1110.95730,0.06462
1109.02855,0.06463
1107.09981,0.06437
1105.17106,0.06395
1103.24232,0.06381
1101.31357,0.06405
1099.38483,0.06426
1097.45608,0.06421
1095.52733,0.06396
1093.59859,0.06367
1091.66984,0.06350
1089.74110,0.06342
1087.81235,0.06311
1085.88361,0.06263
1083.95486,0.06244
1082.02612,0.06261
1080.09737,0.06294
1078.16863,0.06328
1076.23988,0.06347
1074.31114,0.06353
1072.38239,0.06356
1070.45365,0.06358
1068.52490,0.06364
1066.59615,0.06369
1064.66741,0.06369
1062.73866,0.06374
1060.80992,0.06388
1058.88117,0.06416
1056.95243,0.06430
1055.02368,0.06399
1053.09494,0.06378
1051.16619,0.06419
1049.23745,0.06474
1047.30870,0.06487
1045.37996,0.06465
1043.45121,0.06437
1041.52247,0.06408
1039.59372,0.06384
1037.66498,0.06377
1035.73623,0.06363
1033.80748,0.06321
1031.87874,0.06308
1029.94999,0.06380
1028.02125,0.06498
1026.09250,0.06584
1024.16376,0.06614
1022.23501,0.06632
1020.30627,0.06651
1018.37752,0.06644
1016.44878,0.06620
1014.52003,0.06602
1012.59129,0.06579
1010.66254,0.06545
1008.73380,0.06515
1006.80505,0.06497
1004.87631,0.06502
1002.94756,0.06527
1001.01881,0.06547
999.09007,0.06534
997.16132,0.06507
995.23258,0.06491
993.30383,0.06470
991.37509,0.06430
989.44634,0.06400
987.51760,0.06400
985.58885,0.06408
983.66011,0.06402
981.73136,0.06384
979.80262,0.06371
977.87387,0.06383
975.94513,0.06403
974.01638,0.06397
972.08763,0.06359
970.15889,0.06321
968.23014,0.06312
966.30140,0.06320
964.37265,0.06336
962.44391,0.06360
960.51516,0.06369
958.58642,0.06368
956.65767,0.06371
954.72893,0.06362
952.80018,0.06354
950.87144,0.06371
948.94269,0.06388
947.01395,0.06373
945.08520,0.06350
943.15646,0.06347
941.22771,0.06366
939.29896,0.06393
937.37022,0.06403
935.44147,0.06374
933.51273,0.06333
931.58398,0.06312
929.65524,0.06314
927.72649,0.06312
925.79775,0.06279
923.86900,0.06248
921.94026,0.06261
920.01151,0.06265
918.08277,0.06216
916.15402,0.06173
914.22528,0.06153
912.29653,0.06117
910.36779,0.06116
908.43904,0.06205
906.51029,0.06321
904.58155,0.06379
902.65280,0.06375
900.72406,0.06363
898.79531,0.06363
896.86657,0.06344
894.93782,0.06309
893.00908,0.06291
891.08033,0.06289
889.15159,0.06287
887.22284,0.06273
885.29410,0.06249
883.36535,0.06236
881.43661,0.06235
879.50786,0.06224
877.57911,0.06192
875.65037,0.06167
873.72162,0.06184
871.79288,0.06226
869.86413,0.06250
867.93539,0.06250
866.00664,0.06240
864.07790,0.06209
862.14915,0.06145
860.22041,0.06085
858.29166,0.06068
856.36292,0.06080
854.43417,0.06108
852.50543,0.06128
850.57668,0.06107
848.64794,0.06065
846.71919,0.06060
844.79044,0.06095
842.86170,0.06120
840.93295,0.06117
839.00421,0.06104
837.07546,0.06109
835.14672,0.06128
833.21797,0.06134
831.28923,0.06115
829.36048,0.06085
827.43174,0.06061
825.50299,0.06039
823.57425,0.06049
821.64550,0.06095
819.71676,0.06092
817.78801,0.06016
815.85926,0.05948
813.93052,0.05932
812.00177,0.05937
810.07303,0.05924
808.14428,0.05893
806.21554,0.05852
804.28679,0.05811
802.35805,0.05804
800.42930,0.05835
798.50056,0.05834
796.57181,0.05779
794.64307,0.05741
792.71432,0.05718
790.78558,0.05674
788.85683,0.05632
786.92809,0.05610
784.99934,0.05582
783.07059,0.05521
781.14185,0.05413
779.21310,0.05295
777.28436,0.05230
775.35561,0.05197
773.42687,0.05157
771.49812,0.05146
769.56938,0.05189
767.64063,0.05277
765.71189,0.05383
763.78314,0.05474
761.85440,0.05573
759.92565,0.05736
757.99691,0.05957
756.06816,0.06174
754.13942,0.06334
752.21067,0.06419
750.28192,0.06465
748.35318,0.06521
746.42443,0.06605
744.49569,0.06684
742.56694,0.06695
740.63820,0.06617
738.70945,0.06523
736.78071,0.06467
734.85196,0.06396
732.92322,0.06256
730.99447,0.06065
729.06573,0.05903
727.13698,0.05807
725.20824,0.05698
723.27949,0.05554
721.35074,0.05444
719.42200,0.05346
717.49325,0.05192
715.56451,0.04980
713.63576,0.04740
711.70702,0.04466
709.77827,0.04130
707.84953,0.03861
705.92078,0.03993
703.99204,0.04875
702.06329,0.06649
700.13455,0.09123
698.20580,0.11535
696.27706,0.12771
694.34831,0.12405
692.41957,0.11165
690.49082,0.10018
688.56207,0.09279
686.63333,0.08811
684.70458,0.08469
682.77584,0.08206
680.84709,0.08018
678.91835,0.07871
676.98960,0.07728
675.06086,0.07614
673.13211,0.07544
671.20337,0.07512
669.27462,0.07497
667.34588,0.07449
665.41713,0.07360
663.48839,0.07300
661.55964,0.07283
659.63090,0.07261
657.70215,0.07217
655.77340,0.07186
653.84466,0.07180
651.91591,0.07177
649.98717,0.07129
648.05842,0.07036
646.12968,0.06980
644.20093,0.06964
642.27219,0.06917
640.34344,0.06858
638.41470,0.06847
636.48595,0.06878
634.55721,0.06895
632.62846,0.06888
630.69972,0.06872
628.77097,0.06828
626.84222,0.06758
624.91348,0.06719
622.98473,0.06743
621.05599,0.06821
619.12724,0.06902
617.19850,0.06899
615.26975,0.06844
613.34101,0.06854
611.41226,0.06880
609.48352,0.06804
607.55477,0.06668
605.62603,0.06594
603.69728,0.06610
601.76854,0.06603
599.83979,0.06526
