7497.03301,0.66658
7495.10426,0.65251
7493.17552,0.64573
7491.24677,0.65016
7489.31803,0.65605
7487.38928,0.65546
7485.46054,0.65319
7483.53179,0.65528
7481.60305,0.65788
7479.67430,0.65599
7477.74556,0.65372
7475.81681,0.65791
7473.88807,0.66517
7471.95932,0.66670
7470.03057,0.66217
7468.10183,0.65554
7466.17308,0.64978
7464.24434,0.64870
7462.31559,0.65157
7460.38685,0.65238
7458.45810,0.65062
7456.52936,0.65242
7454.60061,0.65680
7452.67187,0.65613
7450.74312,0.65092
7448.81438,0.64817
7446.88563,0.64991
7444.95689,0.65028
7443.02814,0.64351
7441.09940,0.63537
7439.17065,0.63524
7437.24190,0.63871
7435.31316,0.63777
7433.38441,0.63592
7431.45567,0.63822
7429.52692,0.64319
7427.59818,0.64510
7425.66943,0.64067
7423.74069,0.63719
7421.81194,0.64040
7419.88320,0.64406
7417.95445,0.64331
7416.02571,0.63970
7414.09696,0.63538
7412.16822,0.63435
7410.23947,0.63795
7408.31073,0.64070
7406.38198,0.63921
7404.45323,0.63585
7402.52449,0.63304
7400.59574,0.63178
7398.66700,0.63216
7396.73825,0.63230
7394.80951,0.63180
7392.88076,0.63329
7390.95202,0.63690
7389.02327,0.63839
7387.09453,0.63457
7385.16578,0.62776
7383.23704,0.62521
7381.30829,0.62926
7379.37955,0.63251
7377.45080,0.63168
7375.52205,0.62974
7373.59331,0.62537
7371.66456,0.62009
7369.73582,0.62017
7367.80707,0.62311
7365.87833,0.62241
7363.94958,0.62177
7362.02084,0.62390
7360.09209,0.62298
7358.16335,0.61938
7356.23460,0.61906
7354.30586,0.62125
7352.37711,0.62235
7350.44837,0.62336
7348.51962,0.62254
7346.59088,0.61691
7344.66213,0.61186
7342.73338,0.61104
7340.80464,0.61265
7338.87589,0.61461
7336.94715,0.61449
7335.01840,0.61404
7333.08966,0.61541
7331.16091,0.61472
7329.23217,0.60899
7327.30342,0.60449
7325.37468,0.60682
7323.44593,0.61064
7321.51719,0.61215
7319.58844,0.61290
7317.65970,0.61351
7315.73095,0.61525
7313.80221,0.61761
7311.87346,0.61726
7309.94471,0.61414
7308.01597,0.61140
7306.08722,0.60890
7304.15848,0.60500
7302.22973,0.60213
7300.30099,0.60167
7298.37224,0.60113
7296.44350,0.60099
7294.51475,0.60301
7292.58601,0.60428
7290.65726,0.60344
7288.72852,0.60433
7286.79977,0.60765
7284.87103,0.60938
7282.94228,0.60742
7281.01353,0.60170
7279.08479,0.59636
7277.15604,0.59833
7275.22730,0.60434
7273.29855,0.60594
7271.36981,0.60448
7269.44106,0.60415
7267.51232,0.60493
7265.58357,0.60639
7263.65483,0.60801
7261.72608,0.60869
7259.79734,0.60850
7257.86859,0.60779
7255.93985,0.60527
7254.01110,0.60134
7252.08236,0.59897
7250.15361,0.60011
7248.22486,0.60350
7246.29612,0.60444
7244.36737,0.60030
7242.43863,0.59629
7240.50988,0.59861
7238.58114,0.60420
7236.65239,0.60781
7234.72365,0.60937
7232.79490,0.60872
7230.86616,0.60539
7228.93741,0.60330
7227.00867,0.60622
7225.07992,0.60978
7223.15118,0.60645
7221.22243,0.60012
7219.29369,0.60031
7217.36494,0.60634
7215.43619,0.61147
7213.50745,0.61321
7211.57870,0.61289
7209.64996,0.61318
7207.72121,0.61462
7205.79247,0.61396
7203.86372,0.60924
7201.93498,0.60407
7200.00623,0.60230
7198.07749,0.60330
7196.14874,0.60560
7194.22000,0.60805
7192.29125,0.60743
7190.36251,0.60349
7188.43376,0.60216
7186.50501,0.60452
7184.57627,0.60368
7182.64752,0.59922
7180.71878,0.59880
7178.79003,0.60317
7176.86129,0.60297
7174.93254,0.59769
7173.00380,0.59821
7171.07505,0.60409
7169.14631,0.60546
7167.21756,0.60164
7165.28882,0.59742
7163.36007,0.59307
7161.43133,0.58979
7159.50258,0.59135
7157.57384,0.59457
7155.64509,0.59353
7153.71634,0.58963
7151.78760,0.58772
7149.85885,0.58962
7147.93011,0.59276
7146.00136,0.59388
7144.07262,0.59162
7142.14387,0.58731
7140.21513,0.58597
7138.28638,0.58881
7136.35764,0.59064
7134.42889,0.58969
7132.50015,0.58870
7130.57140,0.58764
7128.64266,0.58416
7126.71391,0.57911
7124.78516,0.57528
7122.85642,0.57289
7120.92767,0.57290
7118.99893,0.57589
7117.07018,0.57694
7115.14144,0.57365
7113.21269,0.56961
7111.28395,0.56603
7109.35520,0.56082
7107.42646,0.55582
7105.49771,0.55639
7103.56897,0.55928
7101.64022,0.55777
7099.71148,0.55476
7097.78273,0.55362
7095.85399,0.55286
7093.92524,0.55194
7091.99649,0.55000
7090.06775,0.54681
7088.13900,0.54314
7086.21026,0.53792
7084.28151,0.53349
7082.35277,0.53386
7080.42402,0.53544
7078.49528,0.53473
7076.56653,0.53576
7074.63779,0.54000
7072.70904,0.54223
7070.78030,0.53906
7068.85155,0.53292
7066.92281,0.52762
7064.99406,0.52481
7063.06532,0.52394
7061.13657,0.52350
7059.20782,0.52182
7057.27908,0.51766
7055.35033,0.51322
7053.42159,0.51254
7051.49284,0.51435
7049.56410,0.51380
7047.63535,0.51077
7045.70661,0.50845
7043.77786,0.50734
7041.84912,0.50610
7039.92037,0.50308
7037.99163,0.49842
7036.06288,0.49516
7034.13414,0.49418
7032.20539,0.49331
7030.27664,0.49170
7028.34790,0.49006
7026.41915,0.48784
7024.49041,0.48460
7022.56166,0.48050
7020.63292,0.47622
7018.70417,0.47627
7016.77543,0.48068
7014.84668,0.48179
7012.91794,0.47972
7010.98919,0.48063
7009.06045,0.48330
7007.13170,0.48232
7005.20296,0.47738
7003.27421,0.47195
7001.34547,0.46673
6999.41672,0.46323
6997.48797,0.46472
6995.55923,0.46907
6993.63048,0.47184
6991.70174,0.47165
6989.77299,0.46898
6987.84425,0.46637
6985.91550,0.46615
6983.98676,0.46710
6982.05801,0.46701
6980.12927,0.46614
6978.20052,0.46545
6976.27178,0.46439
6974.34303,0.46260
6972.41429,0.46194
6970.48554,0.46395
6968.55680,0.46546
6966.62805,0.46303
6964.69930,0.46056
6962.77056,0.46180
6960.84181,0.46358
6958.91307,0.46340
6956.98432,0.46263
6955.05558,0.46360
6953.12683,0.46640
6951.19809,0.46635
6949.26934,0.46052
6947.34060,0.45325
6945.41185,0.44994
6943.48311,0.45264
6941.55436,0.45860
6939.62562,0.46070
6937.69687,0.45674
6935.76812,0.45220
6933.83938,0.44964
6931.91063,0.44743
6929.98189,0.44728
6928.05314,0.44884
6926.12440,0.44785
6924.19565,0.44787
6922.26691,0.45337
6920.33816,0.45815
6918.40942,0.45707
6916.48067,0.45399
6914.55193,0.45431
6912.62318,0.45781
6910.69444,0.45932
6908.76569,0.45700
6906.83695,0.45541
6904.90820,0.45620
6902.97945,0.45467
6901.05071,0.45049
6899.12196,0.44801
6897.19322,0.44748
6895.26447,0.44811
6893.33573,0.45040
6891.40698,0.45293
6889.47824,0.45433
6887.54949,0.45548
6885.62075,0.45741
6883.69200,0.45956
6881.76326,0.46040
6879.83451,0.45832
6877.90577,0.45361
6875.97702,0.44909
6874.04828,0.44745
6872.11953,0.44875
6870.19078,0.45156
6868.26204,0.45603
6866.33329,0.46139
6864.40455,0.46376
6862.47580,0.46194
6860.54706,0.45955
6858.61831,0.45911
6856.68957,0.45884
6854.76082,0.45713
6852.83208,0.45468
6850.90333,0.45215
6848.97459,0.45086
6847.04584,0.45169
6845.11710,0.45222
6843.18835,0.45119
6841.25960,0.45137
6839.33086,0.45474
6837.40211,0.45899
6835.47337,0.45900
6833.54462,0.45452
6831.61588,0.45165
6829.68713,0.45324
6827.75839,0.45636
6825.82964,0.45777
6823.90090,0.45706
6821.97215,0.45631
6820.04341,0.45677
6818.11466,0.45712
6816.18592,0.45679
6814.25717,0.45687
6812.32843,0.45742
6810.39968,0.45772
6808.47093,0.45766
6806.54219,0.45787
6804.61344,0.45906
6802.68470,0.46022
6800.75595,0.45920
6798.82721,0.45592
6796.89846,0.45313
6794.96972,0.45248
6793.04097,0.45280
6791.11223,0.45413
6789.18348,0.45687
6787.25474,0.45754
6785.32599,0.45442
6783.39725,0.45227
6781.46850,0.45383
6779.53975,0.45583
6777.61101,0.45650
6775.68226,0.45765
6773.75352,0.45944
6771.82477,0.45903
6769.89603,0.45624
6767.96728,0.45402
6766.03854,0.45299
6764.10979,0.45247
6762.18105,0.45279
6760.25230,0.45387
6758.32356,0.45570
6756.39481,0.45821
6754.46607,0.45951
6752.53732,0.45753
6750.60858,0.45432
6748.67983,0.45438
6746.75108,0.45743
6744.82234,0.45902
6742.89359,0.45851
6740.96485,0.45871
6739.03610,0.46013
6737.10736,0.46000
6735.17861,0.45592
6733.24987,0.45124
6731.32112,0.45122
6729.39238,0.45425
6727.46363,0.45508
6725.53489,0.45316
6723.60614,0.45183
6721.67740,0.45226
6719.74865,0.45302
6717.81991,0.45526
6715.89116,0.46048
6713.96241,0.46462
6712.03367,0.46313
6710.10492,0.45866
6708.17618,0.45674
6706.24743,0.45756
6704.31869,0.45813
6702.38994,0.45843
6700.46120,0.45907
6698.53245,0.45946
6696.60371,0.46028
6694.67496,0.46080
6692.74622,0.46010
6690.81747,0.45993
6688.88873,0.46053
6686.95998,0.46131
6685.03123,0.46202
6683.10249,0.46168
6681.17374,0.46213
6679.24500,0.46419
6677.31625,0.46428
6675.38751,0.46213
6673.45876,0.46036
6671.53002,0.45886
6669.60127,0.45756
6667.67253,0.45748
6665.74378,0.45942
6663.81504,0.46323
6661.88629,0.46672
6659.95755,0.46755
6658.02880,0.46518
6656.10006,0.46172
6654.17131,0.46049
6652.24256,0.46146
6650.31382,0.46227
6648.38507,0.46339
6646.45633,0.46617
6644.52758,0.46869
6642.59884,0.46916
6640.67009,0.46800
6638.74135,0.46501
6636.81260,0.46178
6634.88386,0.46157
6632.95511,0.46436
6631.02637,0.46779
6629.09762,0.46917
6627.16888,0.46739
6625.24013,0.46570
6623.31139,0.46688
6621.38264,0.46894
6619.45389,0.47071
6617.52515,0.47262
6615.59640,0.47273
6613.66766,0.47149
6611.73891,0.47165
6609.81017,0.47157
6607.88142,0.46938
6605.95268,0.46776
6604.02393,0.46855
6602.09519,0.46903
6600.16644,0.46864
6598.23770,0.47072
6596.30895,0.47419
6594.38021,0.47599
6592.45146,0.47676
6590.52271,0.47724
6588.59397,0.47684
6586.66522,0.47532
6584.73648,0.47408
6582.80773,0.47492
6580.87899,0.47741
6578.95024,0.47923
6577.02150,0.47934
6575.09275,0.47842
6573.16401,0.47619
6571.23526,0.47372
6569.30652,0.47441
6567.37777,0.47791
6565.44903,0.48002
6563.52028,0.47828
6561.59154,0.47482
6559.66279,0.47414
6557.73404,0.47661
6555.80530,0.47846
6553.87655,0.47908
6551.94781,0.47949
6550.01906,0.47861
6548.09032,0.47833
6546.16157,0.48071
6544.23283,0.48367
6542.30408,0.48592
6540.37534,0.48633
6538.44659,0.48348
6536.51785,0.47960
6534.58910,0.47861
6532.66036,0.48064
6530.73161,0.48151
6528.80287,0.47983
6526.87412,0.47961
6524.94537,0.48156
6523.01663,0.48168
6521.08788,0.48080
6519.15914,0.48204
6517.23039,0.48302
6515.30165,0.48169
6513.37290,0.48051
6511.44416,0.48020
6509.51541,0.47945
6507.58667,0.47967
6505.65792,0.48202
6503.72918,0.48387
6501.80043,0.48390
6499.87169,0.48421
6497.94294,0.48511
6496.01419,0.48520
6494.08545,0.48471
6492.15670,0.48396
6490.22796,0.48286
6488.29921,0.48253
6486.37047,0.48375
6484.44172,0.48491
6482.51298,0.48401
6480.58423,0.48247
6478.65549,0.48299
6476.72674,0.48559
6474.79800,0.48846
6472.86925,0.48937
6470.94051,0.48823
6469.01176,0.48722
6467.08302,0.48716
6465.15427,0.48762
6463.22552,0.48799
6461.29678,0.48750
6459.36803,0.48571
6457.43929,0.48328
6455.51054,0.48197
6453.58180,0.48275
6451.65305,0.48464
6449.72431,0.48557
6447.79556,0.48526
6445.86682,0.48478
6443.93807,0.48447
6442.00933,0.48533
6440.08058,0.48709
6438.15184,0.48864
6436.22309,0.49013
6434.29434,0.49112
6432.36560,0.49159
6430.43685,0.49200
6428.50811,0.49174
6426.57936,0.49099
6424.65062,0.49009
6422.72187,0.48890
6420.79313,0.48804
6418.86438,0.48708
6416.93564,0.48573
6415.00689,0.48605
6413.07815,0.48844
6411.14940,0.49086
6409.22066,0.49249
6407.29191,0.49242
6405.36317,0.49028
6403.43442,0.48902
6401.50567,0.49062
6399.57693,0.49241
6397.64818,0.49188
6395.71944,0.49067
6393.79069,0.49004
6391.86195,0.48919
6389.93320,0.48881
6388.00446,0.48946
6386.07571,0.49030
6384.14697,0.49143
6382.21822,0.49307
6380.28948,0.49483
6378.36073,0.49561
6376.43199,0.49444
6374.50324,0.49230
6372.57450,0.49121
6370.64575,0.49158
6368.71700,0.49164
6366.78826,0.49124
6364.85951,0.49178
6362.93077,0.49338
6361.00202,0.49613
6359.07328,0.49907
6357.14453,0.49998
6355.21579,0.49886
6353.28704,0.49772
6351.35830,0.49737
6349.42955,0.49666
6347.50081,0.49539
6345.57206,0.49472
6343.64332,0.49492
6341.71457,0.49596
6339.78582,0.49758
6337.85708,0.49853
6335.92833,0.49846
6333.99959,0.49854
6332.07084,0.49930
6330.14210,0.50030
6328.21335,0.50032
6326.28461,0.49778
6324.35586,0.49493
6322.42712,0.49543
6320.49837,0.49732
6318.56963,0.49813
6316.64088,0.49910
6314.71214,0.49986
6312.78339,0.49942
6310.85465,0.49915
6308.92590,0.49955
6306.99715,0.49985
6305.06841,0.49998
6303.13966,0.50014
6301.21092,0.49979
6299.28217,0.49874
6297.35343,0.49860
6295.42468,0.49998
6293.49594,0.50149
6291.56719,0.50268
6289.63845,0.50320
6287.70970,0.50327
6285.78096,0.50482
6283.85221,0.50623
6281.92347,0.50438
6279.99472,0.50207
6278.06598,0.50242
6276.13723,0.50417
6274.20848,0.50664
6272.27974,0.50953
6270.35099,0.51067
6268.42225,0.51003
6266.49350,0.50987
6264.56476,0.50993
6262.63601,0.50863
6260.70727,0.50650
6258.77852,0.50506
6256.84978,0.50534
6254.92103,0.50768
6252.99229,0.51071
6251.06354,0.51304
6249.13480,0.51539
6247.20605,0.51738
6245.27730,0.51761
6243.34856,0.51728
6241.41981,0.51728
6239.49107,0.51696
6237.56232,0.51755
6235.63358,0.51946
6233.70483,0.52073
6231.77609,0.52127
6229.84734,0.52255
6227.91860,0.52369
6225.98985,0.52301
6224.06111,0.52218
6222.13236,0.52387
6220.20362,0.52659
6218.27487,0.52745
6216.34613,0.52718
6214.41738,0.52775
6212.48863,0.52882
6210.55989,0.52925
6208.63114,0.52945
6206.70240,0.52999
6204.77365,0.52962
6202.84491,0.52777
6200.91616,0.52765
6198.98742,0.53103
6197.05867,0.53354
6195.12993,0.53300
6193.20118,0.53270
6191.27244,0.53328
6189.34369,0.53323
6187.41495,0.53289
6185.48620,0.53314
6183.55746,0.53407
6181.62871,0.53595
6179.69996,0.53788
6177.77122,0.53784
6175.84247,0.53693
6173.91373,0.53712
6171.98498,0.53750
6170.05624,0.53822
6168.12749,0.53979
6166.19875,0.54011
6164.27000,0.53885
6162.34126,0.53885
6160.41251,0.54037
6158.48377,0.54130
6156.55502,0.54135
6154.62628,0.54122
6152.69753,0.54155
6150.76878,0.54285
6148.84004,0.54452
6146.91129,0.54507
6144.98255,0.54450
6143.05380,0.54474
6141.12506,0.54528
6139.19631,0.54427
6137.26757,0.54351
6135.33882,0.54530
6133.41008,0.54835
6131.48133,0.55034
6129.55259,0.55054
6127.62384,0.54986
6125.69510,0.54993
6123.76635,0.55059
6121.83761,0.55002
6119.90886,0.54867
6117.98011,0.54861
6116.05137,0.54947
6114.12262,0.55011
6112.19388,0.55044
6110.26513,0.55050
6108.33639,0.55103
6106.40764,0.55190
6104.47890,0.55192
6102.55015,0.55176
6100.62141,0.55166
6098.69266,0.55087
6096.76392,0.55034
6094.83517,0.55144
6092.90643,0.55330
6090.97768,0.55370
6089.04893,0.55297
6087.12019,0.55316
6085.19144,0.55356
6083.26270,0.55277
6081.33395,0.55168
6079.40521,0.55058
6077.47646,0.54873
6075.54772,0.54735
6073.61897,0.54776
6071.69023,0.54902
6069.76148,0.54946
6067.83274,0.54864
6065.90399,0.54833
6063.97525,0.54974
6062.04650,0.55072
6060.11776,0.54957
6058.18901,0.54813
6056.26026,0.54797
6054.33152,0.54881
6052.40277,0.55029
6050.47403,0.55076
6048.54528,0.54950
6046.61654,0.54895
6044.68779,0.54907
6042.75905,0.54761
6040.83030,0.54639
6038.90156,0.54744
6036.97281,0.54865
6035.04407,0.54893
6033.11532,0.54881
6031.18658,0.54753
6029.25783,0.54577
6027.32909,0.54551
6025.40034,0.54604
6023.47159,0.54484
6021.54285,0.54257
6019.61410,0.54223
6017.68536,0.54307
6015.75661,0.54239
6013.82787,0.54086
6011.89912,0.54032
6009.97038,0.54090
6008.04163,0.54124
6006.11289,0.54029
6004.18414,0.53916
6002.25540,0.53936
6000.32665,0.54021
5998.39791,0.53983
5996.46916,0.53790
5994.54041,0.53658
5992.61167,0.53773
5990.68292,0.54003
5988.75418,0.54077
5986.82543,0.53964
5984.89669,0.53799
5982.96794,0.53687
5981.03920,0.53689
5979.11045,0.53748
5977.18171,0.53753
5975.25296,0.53652
5973.32422,0.53534
5971.39547,0.53501
5969.46673,0.53468
5967.53798,0.53428
5965.60924,0.53499
5963.68049,0.53599
5961.75174,0.53539
5959.82300,0.53336
5957.89425,0.53210
5955.96551,0.53166
5954.03676,0.53033
5952.10802,0.52909
5950.17927,0.52887
5948.25053,0.52832
5946.32178,0.52740
5944.39304,0.52749
5942.46429,0.52829
5940.53555,0.52800
5938.60680,0.52709
5936.67806,0.52723
5934.74931,0.52764
5932.82057,0.52774
5930.89182,0.52826
5928.96307,0.52881
5927.03433,0.52869
5925.10558,0.52808
5923.17684,0.52736
5921.24809,0.52674
5919.31935,0.52695
5917.39060,0.52766
5915.46186,0.52710
5913.53311,0.52621
5911.60437,0.52706
5909.67562,0.52824
5907.74688,0.52787
5905.81813,0.52673
5903.88939,0.52556
5901.96064,0.52431
5900.03189,0.52326
5898.10315,0.52200
5896.17440,0.52106
5894.24566,0.52206
5892.31691,0.52360
5890.38817,0.52317
5888.45942,0.52133
5886.53068,0.51986
5884.60193,0.51979
5882.67319,0.52050
5880.74444,0.52046
5878.81570,0.51981
5876.88695,0.51905
5874.95821,0.51758
5873.02946,0.51575
5871.10072,0.51491
5869.17197,0.51490
5867.24322,0.51481
5865.31448,0.51469
5863.38573,0.51448
5861.45699,0.51401
5859.52824,0.51378
5857.59950,0.51377
5855.67075,0.51308
5853.74201,0.51169
5851.81326,0.51086
5849.88452,0.51100
5847.95577,0.51179
5846.02703,0.51348
5844.09828,0.51528
5842.16954,0.51511
5840.24079,0.51294
5838.31205,0.51165
5836.38330,0.51231
5834.45455,0.51270
5832.52581,0.51174
5830.59706,0.51073
5828.66832,0.51059
5826.73957,0.51033
5824.81083,0.50891
5822.88208,0.50670
5820.95334,0.50440
5819.02459,0.50264
5817.09585,0.50168
5815.16710,0.50195
5813.23836,0.50340
5811.30961,0.50454
5809.38087,0.50459
5807.45212,0.50443
5805.52337,0.50441
5803.59463,0.50447
5801.66588,0.50486
5799.73714,0.50486
5797.80839,0.50398
5795.87965,0.50315
5793.95090,0.50290
5792.02216,0.50345
5790.09341,0.50488
5788.16467,0.50664
5786.23592,0.50773
5784.30718,0.50752
5782.37843,0.50682
5780.44969,0.50622
5778.52094,0.50622
5776.59220,0.50777
5774.66345,0.51018
5772.73470,0.51178
5770.80596,0.51172
5768.87721,0.51072
5766.94847,0.51021
5765.01972,0.51039
5763.09098,0.51063
5761.16223,0.51076
5759.23349,0.51128
5757.30474,0.51258
5755.37600,0.51390
5753.44725,0.51439
5751.51851,0.51443
5749.58976,0.51468
5747.66102,0.51532
5745.73227,0.51617
5743.80352,0.51671
5741.87478,0.51718
5739.94603,0.51809
5738.01729,0.51855
5736.08854,0.51788
5734.15980,0.51723
5732.23105,0.51731
5730.30231,0.51755
5728.37356,0.51734
5726.44482,0.51685
5724.51607,0.51727
5722.58733,0.51842
5720.65858,0.51894
5718.72984,0.51938
5716.80109,0.52005
5714.87235,0.52006
5712.94360,0.52011
5711.01485,0.52053
5709.08611,0.52054
5707.15736,0.52060
5705.22862,0.52056
5703.29987,0.51929
5701.37113,0.51798
5699.44238,0.51827
5697.51364,0.51905
5695.58489,0.51920
5693.65615,0.51890
5691.72740,0.51797
5689.79866,0.51680
5687.86991,0.51629
5685.94117,0.51646
5684.01242,0.51671
5682.08368,0.51672
5680.15493,0.51623
5678.22618,0.51509
5676.29744,0.51410
5674.36869,0.51412
5672.43995,0.51446
5670.51120,0.51422
5668.58246,0.51405
5666.65371,0.51463
5664.72497,0.51564
5662.79622,0.51666
5660.86748,0.51714
5658.93873,0.51688
5657.00999,0.51644
5655.08124,0.51603
5653.15250,0.51600
5651.22375,0.51658
5649.29500,0.51720
5647.36626,0.51757
5645.43751,0.51810
5643.50877,0.51877
5641.58002,0.51813
5639.65128,0.51588
5637.72253,0.51404
5635.79379,0.51342
5633.86504,0.51379
5631.93630,0.51553
5630.00755,0.51750
5628.07881,0.51788
5626.15006,0.51705
5624.22132,0.51661
5622.29257,0.51694
5620.36383,0.51721
5618.43508,0.51685
5616.50633,0.51622
5614.57759,0.51583
5612.64884,0.51570
5610.72010,0.51623
5608.79135,0.51749
5606.86261,0.51805
5604.93386,0.51755
5603.00512,0.51768
5601.07637,0.51905
5599.14763,0.52002
5597.21888,0.51949
5595.29014,0.51836
5593.36139,0.51749
5591.43265,0.51670
5589.50390,0.51593
5587.57516,0.51581
5585.64641,0.51609
5583.71766,0.51588
5581.78892,0.51583
5579.86017,0.51668
5577.93143,0.51775
5576.00268,0.51855
5574.07394,0.51901
5572.14519,0.51928
5570.21645,0.51944
5568.28770,0.51935
5566.35896,0.51920
5564.43021,0.51912
5562.50147,0.51910
5560.57272,0.51922
5558.64398,0.51918
5556.71523,0.51893
5554.78648,0.51897
5552.85774,0.51954
5550.92899,0.52060
5549.00025,0.52169
5547.07150,0.52205
5545.14276,0.52166
5543.21401,0.52143
5541.28527,0.52213
5539.35652,0.52285
5537.42778,0.52230
5535.49903,0.52141
5533.57029,0.52170
5531.64154,0.52272
5529.71280,0.52309
5527.78405,0.52253
5525.85531,0.52184
5523.92656,0.52179
5521.99781,0.52240
5520.06907,0.52284
5518.14032,0.52252
5516.21158,0.52213
5514.28283,0.52239
5512.35409,0.52310
5510.42534,0.52430
5508.49660,0.52542
5506.56785,0.52595
5504.63911,0.52656
5502.71036,0.52698
5500.78162,0.52698
5498.85287,0.52686
5496.92413,0.52608
5494.99538,0.52509
5493.06664,0.52496
5491.13789,0.52533
5489.20914,0.52534
5487.28040,0.52491
5485.35165,0.52472
5483.42291,0.52511
5481.49416,0.52556
5479.56542,0.52551
5477.63667,0.52532
5475.70793,0.52553
5473.77918,0.52559
5471.85044,0.52497
5469.92169,0.52459
5467.99295,0.52525
5466.06420,0.52595
5464.13546,0.52576
5462.20671,0.52583
5460.27796,0.52712
5458.34922,0.52857
5456.42047,0.52935
5454.49173,0.53004
5452.56298,0.53059
5450.63424,0.53044
5448.70549,0.52974
5446.77675,0.52895
5444.84800,0.52882
5442.91926,0.52969
5440.99051,0.53087
5439.06177,0.53167
5437.13302,0.53279
5435.20428,0.53500
5433.27553,0.53692
5431.34679,0.53685
5429.41804,0.53574
5427.48929,0.53552
5425.56055,0.53649
5423.63180,0.53759
5421.70306,0.53775
5419.77431,0.53724
5417.84557,0.53700
5415.91682,0.53770
5413.98808,0.53947
5412.05933,0.54083
5410.13059,0.54072
5408.20184,0.54054
5406.27310,0.54111
5404.34435,0.54146
5402.41561,0.54099
5400.48686,0.54011
5398.55811,0.53968
5396.62937,0.54026
5394.70062,0.54118
5392.77188,0.54170
5390.84313,0.54216
5388.91439,0.54265
5386.98564,0.54293
5385.05690,0.54314
5383.12815,0.54324
5381.19941,0.54289
5379.27066,0.54225
5377.34192,0.54192
5375.41317,0.54234
5373.48443,0.54297
5371.55568,0.54299
5369.62694,0.54272
5367.69819,0.54246
5365.76944,0.54219
5363.84070,0.54270
5361.91195,0.54410
5359.98321,0.54468
5358.05446,0.54363
5356.12572,0.54254
5354.19697,0.54274
5352.26823,0.54379
5350.33948,0.54450
5348.41074,0.54449
5346.48199,0.54440
5344.55325,0.54416
5342.62450,0.54307
5340.69576,0.54186
5338.76701,0.54172
5336.83827,0.54225
5334.90952,0.54219
5332.98077,0.54179
5331.05203,0.54191
5329.12328,0.54179
5327.19454,0.54040
5325.26579,0.53862
5323.33705,0.53739
5321.40830,0.53650
5319.47956,0.53578
5317.55081,0.53499
5315.62207,0.53379
5313.69332,0.53213
5311.76458,0.53042
5309.83583,0.52908
5307.90709,0.52793
5305.97834,0.52669
5304.04959,0.52546
5302.12085,0.52418
5300.19210,0.52239
5298.26336,0.52032
5296.33461,0.51828
5294.40587,0.51604
5292.47712,0.51409
5290.54838,0.51299
5288.61963,0.51197
5286.69089,0.50960
5284.76214,0.50587
5282.83340,0.50241
5280.90465,0.49981
5278.97591,0.49710
5277.04716,0.49394
5275.11842,0.49095
5273.18967,0.48856
5271.26092,0.48630
5269.33218,0.48369
5267.40343,0.48063
5265.47469,0.47688
5263.54594,0.47263
5261.61720,0.46867
5259.68845,0.46572
5257.75971,0.46344
5255.83096,0.46087
5253.90222,0.45835
5251.97347,0.45624
5250.04473,0.45378
5248.11598,0.45128
5246.18724,0.44951
5244.25849,0.44761
5242.32975,0.44483
5240.40100,0.44199
5238.47225,0.44004
5236.54351,0.43869
5234.61476,0.43731
5232.68602,0.43556
5230.75727,0.43363
5228.82853,0.43211
5226.89978,0.43098
5224.97104,0.42999
5223.04229,0.42932
5221.11355,0.42855
5219.18480,0.42722
5217.25606,0.42533
5215.32731,0.42323
5213.39857,0.42226
5211.46982,0.42301
5209.54107,0.42392
5207.61233,0.42384
5205.68358,0.42320
5203.75484,0.42269
5201.82609,0.42245
5199.89735,0.42254
5197.96860,0.42304
5196.03986,0.42320
5194.11111,0.42208
5192.18237,0.42059
5190.25362,0.42069
5188.32488,0.42253
5186.39613,0.42438
5184.46739,0.42535
5182.53864,0.42615
5180.60990,0.42710
5178.68115,0.42723
5176.75240,0.42647
5174.82366,0.42624
5172.89491,0.42698
5170.96617,0.42792
5169.03742,0.42835
5167.10868,0.42835
5165.17993,0.42891
5163.25119,0.43043
5161.32244,0.43225
5159.39370,0.43375
5157.46495,0.43463
5155.53621,0.43521
5153.60746,0.43600
5151.67872,0.43695
5149.74997,0.43787
5147.82123,0.43880
5145.89248,0.43967
5143.96373,0.44072
5142.03499,0.44222
5140.10624,0.44361
5138.17750,0.44437
5136.24875,0.44482
5134.32001,0.44555
5132.39126,0.44658
5130.46252,0.44711
5128.53377,0.44715
5126.60503,0.44799
5124.67628,0.44987
5122.74754,0.45190
5120.81879,0.45372
5118.89005,0.45508
5116.96130,0.45564
5115.03255,0.45564
5113.10381,0.45557
5111.17506,0.45604
5109.24632,0.45710
5107.31757,0.45810
5105.38883,0.45895
5103.46008,0.45966
5101.53134,0.46007
5099.60259,0.46082
5097.67385,0.46193
5095.74510,0.46262
5093.81636,0.46316
5091.88761,0.46418
5089.95887,0.46515
5088.03012,0.46569
5086.10138,0.46632
5084.17263,0.46715
5082.24388,0.46795
5080.31514,0.46874
5078.38639,0.46936
5076.45765,0.46988
5074.52890,0.47076
5072.60016,0.47189
5070.67141,0.47287
5068.74267,0.47361
5066.81392,0.47418
5064.88518,0.47494
5062.95643,0.47595
5061.02769,0.47647
5059.09894,0.47649
5057.17020,0.47675
5055.24145,0.47685
5053.31270,0.47663
5051.38396,0.47716
5049.45521,0.47822
5047.52647,0.47873
5045.59772,0.47887
5043.66898,0.47925
5041.74023,0.47962
5039.81149,0.47989
5037.88274,0.48086
5035.95400,0.48198
5034.02525,0.48211
5032.09651,0.48178
5030.16776,0.48172
5028.23902,0.48165
5026.31027,0.48164
5024.38153,0.48206
5022.45278,0.48270
5020.52403,0.48280
5018.59529,0.48220
5016.66654,0.48201
5014.73780,0.48268
5012.80905,0.48281
5010.88031,0.48196
5008.95156,0.48141
5007.02282,0.48139
5005.09407,0.48126
5003.16533,0.48076
5001.23658,0.47999
4999.30784,0.47903
4997.37909,0.47794
4995.45035,0.47715
4993.52160,0.47696
4991.59286,0.47668
4989.66411,0.47567
4987.73536,0.47425
4985.80662,0.47296
4983.87787,0.47209
4981.94913,0.47143
4980.02038,0.47065
4978.09164,0.46990
4976.16289,0.46901
4974.23415,0.46775
4972.30540,0.46629
4970.37666,0.46457
4968.44791,0.46274
4966.51917,0.46129
4964.59042,0.45991
4962.66168,0.45805
4960.73293,0.45602
4958.80418,0.45438
4956.87544,0.45291
4954.94669,0.45118
4953.01795,0.44927
4951.08920,0.44757
4949.16046,0.44623
4947.23171,0.44486
4945.30297,0.44311
4943.37422,0.44089
4941.44548,0.43824
4939.51673,0.43545
4937.58799,0.43304
4935.65924,0.43122
4933.73050,0.42945
4931.80175,0.42755
4929.87301,0.42580
4927.94426,0.42385
4926.01551,0.42159
4924.08677,0.41921
4922.15802,0.41678
4920.22928,0.41458
4918.30053,0.41275
4916.37179,0.41126
4914.44304,0.40970
4912.51430,0.40758
4910.58555,0.40551
4908.65681,0.40393
4906.72806,0.40220
4904.79932,0.40027
4902.87057,0.39869
4900.94183,0.39707
4899.01308,0.39511
4897.08434,0.39344
4895.15559,0.39211
4893.22684,0.39046
4891.29810,0.38842
4889.36935,0.38647
4887.44061,0.38506
4885.51186,0.38401
4883.58312,0.38275
4881.65437,0.38112
4879.72563,0.37921
4877.79688,0.37717
4875.86814,0.37536
4873.93939,0.37398
4872.01065,0.37285
4870.08190,0.37173
4868.15316,0.37059
4866.22441,0.36969
4864.29566,0.36860
4862.36692,0.36694
4860.43817,0.36538
4858.50943,0.36434
4856.58068,0.36352
4854.65194,0.36260
4852.72319,0.36114
4850.79445,0.35914
4848.86570,0.35719
4846.93696,0.35588
4845.00821,0.35517
4843.07947,0.35445
4841.15072,0.35338
4839.22198,0.35203
4837.29323,0.35096
4835.36449,0.35041
4833.43574,0.34977
4831.50699,0.34877
4829.57825,0.34790
4827.64950,0.34737
4825.72076,0.34679
4823.79201,0.34581
4821.86327,0.34454
4819.93452,0.34321
4818.00578,0.34201
4816.07703,0.34110
4814.14829,0.34065
4812.21954,0.34033
4810.29080,0.33990
4808.36205,0.33966
4806.43331,0.33935
4804.50456,0.33855
4802.57582,0.33780
4800.64707,0.33753
4798.71832,0.33718
4796.78958,0.33674
4794.86083,0.33677
4792.93209,0.33673
4791.00334,0.33595
4789.07460,0.33484
4787.14585,0.33385
4785.21711,0.33328
4783.28836,0.33350
4781.35962,0.33391
4779.43087,0.33365
4777.50213,0.33323
4775.57338,0.33339
4773.64464,0.33361
4771.71589,0.33346
4769.78714,0.33344
4767.85840,0.33355
4765.92965,0.33333
4764.00091,0.33282
4762.07216,0.33228
4760.14342,0.33208
4758.21467,0.33233
4756.28593,0.33286
4754.35718,0.33318
4752.42844,0.33271
4750.49969,0.33188
4748.57095,0.33152
4746.64220,0.33162
4744.71346,0.33184
4742.78471,0.33217
4740.85597,0.33281
4738.92722,0.33357
4736.99847,0.33431
4735.06973,0.33493
4733.14098,0.33497
4731.21224,0.33458
4729.28349,0.33454
4727.35475,0.33498
4725.42600,0.33542
4723.49726,0.33560
4721.56851,0.33564
4719.63977,0.33577
4717.71102,0.33619
4715.78228,0.33691
4713.85353,0.33742
4711.92479,0.33749
4709.99604,0.33774
4708.06729,0.33832
4706.13855,0.33860
4704.20980,0.33858
4702.28106,0.33886
4700.35231,0.33959
4698.42357,0.34041
4696.49482,0.34114
4694.56608,0.34160
4692.63733,0.34163
4690.70859,0.34169
4688.77984,0.34204
4686.85110,0.34257
4684.92235,0.34322
4682.99361,0.34384
4681.06486,0.34435
4679.13612,0.34500
4677.20737,0.34583
4675.27862,0.34661
4673.34988,0.34738
4671.42113,0.34800
4669.49239,0.34835
4667.56364,0.34885
4665.63490,0.34990
4663.70615,0.35120
4661.77741,0.35228
4659.84866,0.35315
4657.91992,0.35405
4655.99117,0.35512
4654.06243,0.35588
4652.13368,0.35606
4650.20494,0.35661
4648.27619,0.35791
4646.34745,0.35911
4644.41870,0.35977
4642.48995,0.36031
4640.56121,0.36116
4638.63246,0.36230
4636.70372,0.36325
4634.77497,0.36368
4632.84623,0.36398
4630.91748,0.36439
4628.98874,0.36471
4627.05999,0.36546
4625.13125,0.36690
4623.20250,0.36815
4621.27376,0.36877
4619.34501,0.36932
4617.41627,0.37010
4615.48752,0.37075
4613.55877,0.37136
4611.63003,0.37226
4609.70128,0.37312
4607.77254,0.37367
4605.84379,0.37410
4603.91505,0.37461
4601.98630,0.37527
4600.05756,0.37598
4598.12881,0.37654
4596.20007,0.37711
4594.27132,0.37788
4592.34258,0.37861
4590.41383,0.37916
4588.48509,0.37949
4586.55634,0.37990
4584.62760,0.38082
4582.69885,0.38165
4580.77010,0.38168
4578.84136,0.38152
4576.91261,0.38164
4574.98387,0.38198
4573.05512,0.38251
4571.12638,0.38309
4569.19763,0.38365
4567.26889,0.38436
4565.34014,0.38524
4563.41140,0.38601
4561.48265,0.38643
4559.55391,0.38668
4557.62516,0.38684
4555.69642,0.38706
4553.76767,0.38780
4551.83893,0.38882
4549.91018,0.38935
4547.98143,0.38936
4546.05269,0.38951
4544.12394,0.38996
4542.19520,0.39015
4540.26645,0.39010
4538.33771,0.39036
4536.40896,0.39092
4534.48022,0.39141
4532.55147,0.39151
4530.62273,0.39125
4528.69398,0.39123
4526.76524,0.39180
4524.83649,0.39226
4522.90775,0.39237
4520.97900,0.39269
4519.05025,0.39290
4517.12151,0.39253
4515.19276,0.39202
4513.26402,0.39161
4511.33527,0.39090
4509.40653,0.38991
4507.47778,0.38926
4505.54904,0.38919
4503.62029,0.38910
4501.69155,0.38852
4499.76280,0.38732
4497.83406,0.38578
4495.90531,0.38472
4493.97657,0.38420
4492.04782,0.38353
4490.11908,0.38244
4488.19033,0.38086
4486.26158,0.37884
4484.33284,0.37688
4482.40409,0.37511
4480.47535,0.37334
4478.54660,0.37167
4476.61786,0.36975
4474.68911,0.36704
4472.76037,0.36420
4470.83162,0.36195
4468.90288,0.35972
4466.97413,0.35728
4465.04539,0.35507
4463.11664,0.35305
4461.18790,0.35075
4459.25915,0.34807
4457.33041,0.34535
4455.40166,0.34291
4453.47291,0.34042
4451.54417,0.33762
4449.61542,0.33493
4447.68668,0.33264
4445.75793,0.33077
4443.82919,0.32892
4441.90044,0.32667
4439.97170,0.32439
4438.04295,0.32240
4436.11421,0.32032
4434.18546,0.31797
4432.25672,0.31572
4430.32797,0.31375
4428.39923,0.31200
4426.47048,0.31076
4424.54173,0.30986
4422.61299,0.30862
4420.68424,0.30703
4418.75550,0.30544
4416.82675,0.30387
4414.89801,0.30254
4412.96926,0.30146
4411.04052,0.30013
4409.11177,0.29876
4407.18303,0.29781
4405.25428,0.29717
4403.32554,0.29697
4401.39679,0.29708
4399.46805,0.29701
4397.53930,0.29693
4395.61056,0.29716
4393.68181,0.29741
4391.75306,0.29740
4389.82432,0.29750
4387.89557,0.29809
4385.96683,0.29913
4384.03808,0.30026
4382.10934,0.30112
4380.18059,0.30186
4378.25185,0.30265
4376.32310,0.30344
4374.39436,0.30439
4372.46561,0.30536
4370.53687,0.30611
4368.60812,0.30675
4366.67938,0.30735
4364.75063,0.30788
4362.82189,0.30838
4360.89314,0.30882
4358.96439,0.30895
4357.03565,0.30878
4355.10690,0.30852
4353.17816,0.30827
4351.24941,0.30800
4349.32067,0.30784
4347.39192,0.30784
4345.46318,0.30768
4343.53443,0.30694
4341.60569,0.30579
4339.67694,0.30479
4337.74820,0.30386
4335.81945,0.30283
4333.89071,0.30211
4331.96196,0.30183
4330.03321,0.30155
4328.10447,0.30086
4326.17572,0.29983
4324.24698,0.29884
4322.31823,0.29833
4320.38949,0.29827
4318.46074,0.29828
4316.53200,0.29807
4314.60325,0.29761
4312.67451,0.29696
4310.74576,0.29633
4308.81702,0.29588
4306.88827,0.29543
4304.95953,0.29481
4303.03078,0.29411
4301.10204,0.29343
4299.17329,0.29299
4297.24454,0.29274
4295.31580,0.29234
4293.38705,0.29187
4291.45831,0.29142
4289.52956,0.29102
4287.60082,0.29103
4285.67207,0.29120
4283.74333,0.29102
4281.81458,0.29041
4279.88584,0.28975
4277.95709,0.28959
4276.02835,0.28987
4274.09960,0.29021
4272.17086,0.29049
4270.24211,0.29058
4268.31336,0.29064
4266.38462,0.29093
4264.45587,0.29131
4262.52713,0.29174
4260.59838,0.29219
4258.66964,0.29255
4256.74089,0.29276
4254.81215,0.29280
4252.88340,0.29288
4250.95466,0.29308
4249.02591,0.29315
4247.09717,0.29317
4245.16842,0.29354
4243.23968,0.29419
4241.31093,0.29469
4239.38219,0.29513
4237.45344,0.29568
4235.52469,0.29606
4233.59595,0.29638
4231.66720,0.29674
4229.73846,0.29689
4227.80971,0.29701
4225.88097,0.29718
4223.95222,0.29721
4222.02348,0.29733
4220.09473,0.29763
4218.16599,0.29770
4216.23724,0.29750
4214.30850,0.29750
4212.37975,0.29781
4210.45101,0.29825
4208.52226,0.29867
4206.59352,0.29893
4204.66477,0.29915
4202.73602,0.29970
4200.80728,0.30021
4198.87853,0.30014
4196.94979,0.30003
4195.02104,0.30038
4193.09230,0.30090
4191.16355,0.30126
4189.23481,0.30118
4187.30606,0.30051
4185.37732,0.29981
4183.44857,0.29968
4181.51983,0.30018
4179.59108,0.30103
4177.66234,0.30194
4175.73359,0.30271
4173.80484,0.30310
4171.87610,0.30330
4169.94735,0.30387
4168.01861,0.30479
4166.08986,0.30534
4164.16112,0.30528
4162.23237,0.30526
4160.30363,0.30560
4158.37488,0.30588
4156.44614,0.30579
4154.51739,0.30542
4152.58865,0.30495
4150.65990,0.30460
4148.73116,0.30440
4146.80241,0.30423
4144.87367,0.30401
4142.94492,0.30348
4141.01617,0.30258
4139.08743,0.30164
4137.15868,0.30065
4135.22994,0.29965
4133.30119,0.29890
4131.37245,0.29842
4129.44370,0.29780
4127.51496,0.29675
4125.58621,0.29551
4123.65747,0.29447
4121.72872,0.29373
4119.79998,0.29298
4117.87123,0.29187
4115.94249,0.29050
4114.01374,0.28929
4112.08500,0.28830
4110.15625,0.28732
4108.22750,0.28623
4106.29876,0.28495
4104.37001,0.28342
4102.44127,0.28169
4100.51252,0.27994
4098.58378,0.27854
4096.65503,0.27742
4094.72629,0.27615
4092.79754,0.27465
4090.86880,0.27315
4088.94005,0.27143
4087.01131,0.26923
4085.08256,0.26721
4083.15382,0.26590
4081.22507,0.26499
4079.29632,0.26387
4077.36758,0.26229
4075.43883,0.26048
4073.51009,0.25884
4071.58134,0.25739
4069.65260,0.25586
4067.72385,0.25443
4065.79511,0.25321
4063.86636,0.25185
4061.93762,0.25027
4060.00887,0.24890
4058.08013,0.24818
4056.15138,0.24750
4054.22264,0.24590
4052.29389,0.24377
4050.36515,0.24213
4048.43640,0.24112
4046.50765,0.24037
4044.57891,0.23965
4042.65016,0.23870
4040.72142,0.23732
4038.79267,0.23585
4036.86393,0.23472
4034.93518,0.23395
4033.00644,0.23338
4031.07769,0.23290
4029.14895,0.23239
4027.22020,0.23180
4025.29146,0.23107
4023.36271,0.23023
4021.43397,0.22956
4019.50522,0.22941
4017.57648,0.22980
4015.64773,0.23037
4013.71898,0.23082
4011.79024,0.23118
4009.86149,0.23160
4007.93275,0.23197
4006.00400,0.23207
4004.07526,0.23214
4002.14651,0.23264
4000.21777,0.23344
3998.28902,0.23411
3996.36028,0.23454
3994.43153,0.23477
3992.50279,0.23487
3990.57404,0.23512
3988.64530,0.23564
3986.71655,0.23621
3984.78780,0.23682
3982.85906,0.23747
3980.93031,0.23784
3979.00157,0.23792
3977.07282,0.23817
3975.14408,0.23880
3973.21533,0.23963
3971.28659,0.24050
3969.35784,0.24128
3967.42910,0.24185
3965.50035,0.24238
3963.57161,0.24302
3961.64286,0.24366
3959.71412,0.24448
3957.78537,0.24545
3955.85663,0.24610
3953.92788,0.24661
3951.99913,0.24752
3950.07039,0.24852
3948.14164,0.24929
3946.21290,0.25010
3944.28415,0.25086
3942.35541,0.25150
3940.42666,0.25240
3938.49792,0.25364
3936.56917,0.25480
3934.64043,0.25549
3932.71168,0.25590
3930.78294,0.25659
3928.85419,0.25754
3926.92545,0.25845
3924.99670,0.25935
3923.06795,0.26017
3921.13921,0.26090
3919.21046,0.26183
3917.28172,0.26296
3915.35297,0.26394
3913.42423,0.26449
3911.49548,0.26475
3909.56674,0.26522
3907.63799,0.26601
3905.70925,0.26700
3903.78050,0.26814
3901.85176,0.26899
3899.92301,0.26930
3897.99427,0.26955
3896.06552,0.27017
3894.13678,0.27106
3892.20803,0.27179
3890.27928,0.27225
3888.35054,0.27285
3886.42179,0.27343
3884.49305,0.27379
3882.56430,0.27453
3880.63556,0.27554
3878.70681,0.27626
3876.77807,0.27666
3874.84932,0.27698
3872.92058,0.27756
3870.99183,0.27860
3869.06309,0.27982
3867.13434,0.28086
3865.20560,0.28191
3863.27685,0.28305
3861.34811,0.28398
3859.41936,0.28496
3857.49061,0.28616
3855.56187,0.28733
3853.63312,0.28815
3851.70438,0.28859
3849.77563,0.28931
3847.84689,0.29047
3845.91814,0.29157
3843.98940,0.29227
3842.06065,0.29288
3840.13191,0.29363
3838.20316,0.29413
3836.27442,0.29436
3834.34567,0.29488
3832.41693,0.29541
3830.48818,0.29550
3828.55943,0.29561
3826.63069,0.29613
3824.70194,0.29677
3822.77320,0.29720
3820.84445,0.29726
3818.91571,0.29715
3816.98696,0.29721
3815.05822,0.29744
3813.12947,0.29749
3811.20073,0.29729
3809.27198,0.29728
3807.34324,0.29768
3805.41449,0.29796
3803.48575,0.29801
3801.55700,0.29821
3799.62826,0.29837
3797.69951,0.29834
3795.77076,0.29835
3793.84202,0.29852
3791.91327,0.29877
3789.98453,0.29886
3788.05578,0.29882
3786.12704,0.29880
3784.19829,0.29883
3782.26955,0.29891
3780.34080,0.29888
3778.41206,0.29870
3776.48331,0.29847
3774.55457,0.29809
3772.62582,0.29761
3770.69708,0.29728
3768.76833,0.29694
3766.83959,0.29641
3764.91084,0.29597
3762.98209,0.29580
3761.05335,0.29561
3759.12460,0.29505
3757.19586,0.29432
3755.26711,0.29389
3753.33837,0.29357
3751.40962,0.29293
3749.48088,0.29220
3747.55213,0.29171
3745.62339,0.29114
3743.69464,0.29034
3741.76590,0.28957
3739.83715,0.28883
3737.90841,0.28807
3735.97966,0.28720
3734.05091,0.28590
3732.12217,0.28440
3730.19342,0.28326
3728.26468,0.28232
3726.33593,0.28127
3724.40719,0.28006
3722.47844,0.27845
3720.54970,0.27642
3718.62095,0.27452
3716.69221,0.27300
3714.76346,0.27149
3712.83472,0.26942
3710.90597,0.26652
3708.97723,0.26365
3707.04848,0.26137
3705.11974,0.25922
3703.19099,0.25690
3701.26224,0.25427
3699.33350,0.25128
3697.40475,0.24805
3695.47601,0.24483
3693.54726,0.24189
3691.61852,0.23888
3689.68977,0.23495
3687.76103,0.23019
3685.83228,0.22577
3683.90354,0.22177
3681.97479,0.21751
3680.04605,0.21281
3678.11730,0.20792
3676.18856,0.20274
3674.25981,0.19738
3672.33107,0.19247
3670.40232,0.18767
3668.47357,0.18273
3666.54483,0.17789
3664.61608,0.17303
3662.68734,0.16828
3660.75859,0.16389
3658.82985,0.15960
3656.90110,0.15494
3654.97236,0.15042
3653.04361,0.14682
3651.11487,0.14334
3649.18612,0.13889
3647.25738,0.13422
3645.32863,0.13046
3643.39989,0.12729
3641.47114,0.12417
3639.54239,0.12113
3637.61365,0.11810
3635.68490,0.11496
3633.75616,0.11194
3631.82741,0.10925
3629.89867,0.10630
3627.96992,0.10293
3626.04118,0.09999
3624.11243,0.09746
3622.18369,0.09487
3620.25494,0.09202
3618.32620,0.08920
3616.39745,0.08718
3614.46871,0.08568
3612.53996,0.08385
3610.61122,0.08163
3608.68247,0.07933
3606.75372,0.07691
3604.82498,0.07446
3602.89623,0.07233
3600.96749,0.07071
3599.03874,0.06937
3597.11000,0.06778
3595.18125,0.06598
3593.25251,0.06436
3591.32376,0.06298
3589.39502,0.06158
3587.46627,0.05998
3585.53753,0.05836
3583.60878,0.05700
3581.68004,0.05591
3579.75129,0.05510
3577.82254,0.05420
3575.89380,0.05291
3573.96505,0.05170
3572.03631,0.05092
3570.10756,0.05027
3568.17882,0.04940
3566.25007,0.04834
3564.32133,0.04731
3562.39258,0.04641
3560.46384,0.04580
3558.53509,0.04532
3556.60635,0.04459
3554.67760,0.04380
3552.74886,0.04332
3550.82011,0.04289
3548.89137,0.04214
3546.96262,0.04138
3545.03387,0.04092
3543.10513,0.04070
3541.17638,0.04051
3539.24764,0.04020
3537.31889,0.03969
3535.39015,0.03901
3533.46140,0.03833
3531.53266,0.03787
3529.60391,0.03741
3527.67517,0.03697
3525.74642,0.03689
3523.81768,0.03702
3521.88893,0.03684
3519.96019,0.03626
3518.03144,0.03558
3516.10270,0.03506
3514.17395,0.03486
3512.24520,0.03480
3510.31646,0.03456
3508.38771,0.03410
3506.45897,0.03366
3504.53022,0.03341
3502.60148,0.03324
3500.67273,0.03307
3498.74399,0.03310
3496.81524,0.03320
3494.88650,0.03309
3492.95775,0.03281
3491.02901,0.03241
3489.10026,0.03212
3487.17152,0.03216
3485.24277,0.03214
3483.31402,0.03180
3481.38528,0.03141
3479.45653,0.03112
3477.52779,0.03090
3475.59904,0.03079
3473.67030,0.03079
3471.74155,0.03087
3469.81281,0.03105
3467.88406,0.03124
3465.95532,0.03121
3464.02657,0.03101
3462.09783,0.03085
3460.16908,0.03075
3458.24034,0.03068
3456.31159,0.03070
3454.38285,0.03071
3452.45410,0.03057
3450.52535,0.03043
3448.59661,0.03052
3446.66786,0.03072
3444.73912,0.03079
3442.81037,0.03062
3440.88163,0.03020
3438.95288,0.02990
3437.02414,0.03001
3435.09539,0.03016
3433.16665,0.03008
3431.23790,0.03006
3429.30916,0.03008
3427.38041,0.02992
3425.45167,0.02972
3423.52292,0.02973
3421.59418,0.03004
3419.66543,0.03035
3417.73668,0.03027
3415.80794,0.02990
3413.87919,0.02965
3411.95045,0.02964
3410.02170,0.02982
3408.09296,0.03019
3406.16421,0.03044
3404.23547,0.03040
3402.30672,0.03035
3400.37798,0.03040
3398.44923,0.03037
3396.52049,0.03020
3394.59174,0.03002
3392.66300,0.02998
3390.73425,0.03001
3388.80550,0.03010
3386.87676,0.03046
3384.94801,0.03089
3383.01927,0.03096
3381.09052,0.03083
3379.16178,0.03098
3377.23303,0.03120
3375.30429,0.03104
3373.37554,0.03067
3371.44680,0.03046
3369.51805,0.03033
3367.58931,0.03035
3365.66056,0.03066
3363.73182,0.03098
3361.80307,0.03112
3359.87433,0.03106
3357.94558,0.03086
3356.01683,0.03087
3354.08809,0.03116
3352.15934,0.03147
3350.23060,0.03165
3348.30185,0.03170
3346.37311,0.03179
3344.44436,0.03209
3342.51562,0.03246
3340.58687,0.03261
3338.65813,0.03238
3336.72938,0.03214
3334.80064,0.03227
3332.87189,0.03262
3330.94315,0.03303
3329.01440,0.03333
3327.08566,0.03337
3325.15691,0.03335
3323.22816,0.03348
3321.29942,0.03345
3319.37067,0.03319
3317.44193,0.03315
3315.51318,0.03334
3313.58444,0.03357
3311.65569,0.03391
3309.72695,0.03419
3307.79820,0.03423
3305.86946,0.03431
3303.94071,0.03462
3302.01197,0.03520
3300.08322,0.03579
3298.15448,0.03598
3296.22573,0.03591
3294.29698,0.03582
3292.36824,0.03576
3290.43949,0.03583
3288.51075,0.03603
3286.58200,0.03641
3284.65326,0.03710
3282.72451,0.03780
3280.79577,0.03803
3278.86702,0.03784
3276.93828,0.03770
3275.00953,0.03787
3273.08079,0.03815
3271.15204,0.03842
3269.22330,0.03866
3267.29455,0.03877
3265.36581,0.03893
3263.43706,0.03945
3261.50831,0.04014
3259.57957,0.04070
3257.65082,0.04102
3255.72208,0.04116
3253.79333,0.04126
3251.86459,0.04129
3249.93584,0.04136
3248.00710,0.04176
3246.07835,0.04248
3244.14961,0.04305
3242.22086,0.04315
3240.29212,0.04315
3238.36337,0.04347
3236.43463,0.04403
3234.50588,0.04466
3232.57713,0.04529
3230.64839,0.04584
3228.71964,0.04642
3226.79090,0.04704
3224.86215,0.04756
3222.93341,0.04773
3221.00466,0.04773
3219.07592,0.04811
3217.14717,0.04885
3215.21843,0.04957
3213.28968,0.04995
3211.36094,0.04986
3209.43219,0.04979
3207.50345,0.05028
3205.57470,0.05126
3203.64596,0.05211
3201.71721,0.05257
3199.78846,0.05313
3197.85972,0.05380
3195.93097,0.05404
3194.00223,0.05406
3192.07348,0.05449
3190.14474,0.05522
3188.21599,0.05577
3186.28725,0.05600
3184.35850,0.05622
3182.42976,0.05667
3180.50101,0.05718
3178.57227,0.05772
3176.64352,0.05849
3174.71478,0.05921
3172.78603,0.05968
3170.85729,0.06016
3168.92854,0.06065
3166.99979,0.06102
3165.07105,0.06152
3163.14230,0.06220
3161.21356,0.06287
3159.28481,0.06358
3157.35607,0.06439
3155.42732,0.06512
3153.49858,0.06565
3151.56983,0.06611
3149.64109,0.06659
3147.71234,0.06697
3145.78360,0.06742
3143.85485,0.06807
3141.92611,0.06870
3139.99736,0.06910
3138.06861,0.06961
3136.13987,0.07046
3134.21112,0.07119
3132.28238,0.07156
3130.35363,0.07190
3128.42489,0.07248
3126.49614,0.07319
3124.56740,0.07379
3122.63865,0.07439
3120.70991,0.07507
3118.78116,0.07557
3116.85242,0.07569
3114.92367,0.07577
3112.99493,0.07636
3111.06618,0.07725
3109.13744,0.07792
3107.20869,0.07833
3105.27994,0.07866
3103.35120,0.07902
3101.42245,0.07955
3099.49371,0.08017
3097.56496,0.08074
3095.63622,0.08135
3093.70747,0.08187
3091.77873,0.08213
3089.84998,0.08239
3087.92124,0.08296
3085.99249,0.08357
3084.06375,0.08394
3082.13500,0.08433
3080.20626,0.08496
3078.27751,0.08561
3076.34877,0.08602
3074.42002,0.08633
3072.49127,0.08663
3070.56253,0.08686
3068.63378,0.08710
3066.70504,0.08746
3064.77629,0.08798
3062.84755,0.08856
3060.91880,0.08909
3058.99006,0.08964
3057.06131,0.09015
3055.13257,0.09062
3053.20382,0.09113
3051.27508,0.09144
3049.34633,0.09161
3047.41759,0.09198
3045.48884,0.09236
3043.56009,0.09259
3041.63135,0.09287
3039.70260,0.09304
3037.77386,0.09290
3035.84511,0.09272
3033.91637,0.09275
3031.98762,0.09278
3030.05888,0.09254
3028.13013,0.09201
3026.20139,0.09147
3024.27264,0.09105
3022.34390,0.09043
3020.41515,0.08969
3018.48641,0.08914
3016.55766,0.08843
3014.62892,0.08729
3012.70017,0.08611
3010.77142,0.08527
3008.84268,0.08465
3006.91393,0.08403
3004.98519,0.08326
3003.05644,0.08229
3001.12770,0.08116
2999.19895,0.08006
2997.27021,0.07918
2995.34146,0.07849
2993.41272,0.07783
2991.48397,0.07687
2989.55523,0.07561
2987.62648,0.07442
2985.69774,0.07318
2983.76899,0.07156
2981.84025,0.06972
2979.91150,0.06801
2977.98275,0.06641
2976.05401,0.06476
2974.12526,0.06313
2972.19652,0.06161
2970.26777,0.06015
2968.33903,0.05897
2966.41028,0.05828
2964.48154,0.05790
2962.55279,0.05755
2960.62405,0.05697
2958.69530,0.05603
2956.76656,0.05495
2954.83781,0.05403
2952.90907,0.05341
2950.98032,0.05295
2949.05157,0.05257
2947.12283,0.05225
2945.19408,0.05187
2943.26534,0.05115
2941.33659,0.05025
2939.40785,0.04970
2937.47910,0.04963
2935.55036,0.04975
2933.62161,0.04975
2931.69287,0.04953
2929.76412,0.04934
2927.83538,0.04931
2925.90663,0.04912
2923.97789,0.04868
2922.04914,0.04841
2920.12040,0.04833
2918.19165,0.04827
2916.26290,0.04843
2914.33416,0.04885
2912.40541,0.04918
2910.47667,0.04933
2908.54792,0.04941
2906.61918,0.04945
2904.69043,0.04951
2902.76169,0.04961
2900.83294,0.04975
2898.90420,0.04998
2896.97545,0.05032
2895.04671,0.05072
2893.11796,0.05114
2891.18922,0.05148
2889.26047,0.05185
2887.33172,0.05247
2885.40298,0.05314
2883.47423,0.05351
2881.54549,0.05366
2879.61674,0.05389
2877.68800,0.05436
2875.75925,0.05482
2873.83051,0.05510
2871.90176,0.05547
2869.97302,0.05601
2868.04427,0.05653
2866.11553,0.05687
2864.18678,0.05693
2862.25804,0.05709
2860.32929,0.05767
2858.40055,0.05837
2856.47180,0.05898
2854.54305,0.05948
2852.61431,0.05971
2850.68556,0.05996
2848.75682,0.06080
2846.82807,0.06210
2844.89933,0.06348
2842.97058,0.06505
2841.04184,0.06688
2839.11309,0.06852
2837.18435,0.06991
2835.25560,0.07169
2833.32686,0.07397
2831.39811,0.07619
2829.46937,0.07799
2827.54062,0.07942
2825.61188,0.08083
2823.68313,0.08252
2821.75438,0.08435
2819.82564,0.08591
2817.89689,0.08710
2815.96815,0.08827
2814.03940,0.08969
2812.11066,0.09118
2810.18191,0.09238
2808.25317,0.09350
2806.32442,0.09481
2804.39568,0.09606
2802.46693,0.09692
2800.53819,0.09753
2798.60944,0.09818
2796.68070,0.09899
2794.75195,0.09995
2792.82320,0.10100
2790.89446,0.10189
2788.96571,0.10236
2787.03697,0.10261
2785.10822,0.10296
2783.17948,0.10337
2781.25073,0.10373
2779.32199,0.10418
2777.39324,0.10464
2775.46450,0.10484
2773.53575,0.10493
2771.60701,0.10525
2769.67826,0.10592
2767.74952,0.10674
2765.82077,0.10725
2763.89203,0.10734
2761.96328,0.10733
2760.03453,0.10747
2758.10579,0.10771
2756.17704,0.10798
2754.24830,0.10827
2752.31955,0.10859
2750.39081,0.10880
2748.46206,0.10884
2746.53332,0.10881
2744.60457,0.10879
2742.67583,0.10890
2740.74708,0.10922
2738.81834,0.10944
2736.88959,0.10942
2734.96085,0.10953
2733.03210,0.10988
2731.10336,0.11019
2729.17461,0.11045
2727.24586,0.11086
2725.31712,0.11130
2723.38837,0.11167
2721.45963,0.11213
2719.53088,0.11269
2717.60214,0.11323
2715.67339,0.11389
2713.74465,0.11476
2711.81590,0.11559
2709.88716,0.11621
2707.95841,0.11676
2706.02967,0.11740
2704.10092,0.11810
2702.17218,0.11878
2700.24343,0.11944
2698.31468,0.12012
2696.38594,0.12090
2694.45719,0.12173
2692.52845,0.12240
2690.59970,0.12290
2688.67096,0.12343
2686.74221,0.12405
2684.81347,0.12461
2682.88472,0.12506
2680.95598,0.12559
2679.02723,0.12628
2677.09849,0.12696
2675.16974,0.12752
2673.24100,0.12802
2671.31225,0.12853
2669.38351,0.12897
2667.45476,0.12919
2665.52601,0.12918
2663.59727,0.12924
2661.66852,0.12956
2659.73978,0.12994
2657.81103,0.13016
2655.88229,0.13039
2653.95354,0.13095
2652.02480,0.13162
2650.09605,0.13206
2648.16731,0.13243
2646.23856,0.13282
2644.30982,0.13311
2642.38107,0.13341
2640.45233,0.13394
2638.52358,0.13455
2636.59484,0.13502
2634.66609,0.13547
2632.73734,0.13606
2630.80860,0.13660
2628.87985,0.13704
2626.95111,0.13756
2625.02236,0.13813
2623.09362,0.13871
2621.16487,0.13933
2619.23613,0.13975
2617.30738,0.14001
2615.37864,0.14061
2613.44989,0.14145
2611.52115,0.14202
2609.59240,0.14239
2607.66366,0.14289
2605.73491,0.14343
2603.80616,0.14378
2601.87742,0.14397
2599.94867,0.14434
2598.01993,0.14484
2596.09118,0.14525
2594.16244,0.14560
2592.23369,0.14599
2590.30495,0.14639
2588.37620,0.14669
2586.44746,0.14695
2584.51871,0.14739
2582.58997,0.14789
2580.66122,0.14828
2578.73248,0.14853
2576.80373,0.14866
2574.87499,0.14883
2572.94624,0.14917
2571.01749,0.14939
2569.08875,0.14927
2567.16000,0.14909
2565.23126,0.14903
2563.30251,0.14905
2561.37377,0.14908
2559.44502,0.14908
2557.51628,0.14917
2555.58753,0.14949
2553.65879,0.14977
2551.73004,0.14976
2549.80130,0.14965
2547.87255,0.14963
2545.94381,0.14964
2544.01506,0.14972
2542.08631,0.14992
2540.15757,0.15007
2538.22882,0.15012
2536.30008,0.15038
2534.37133,0.15092
2532.44259,0.15136
2530.51384,0.15157
2528.58510,0.15180
2526.65635,0.15204
2524.72761,0.15224
2522.79886,0.15254
2520.87012,0.15292
2518.94137,0.15315
2517.01263,0.15323
2515.08388,0.15342
2513.15514,0.15379
2511.22639,0.15425
2509.29764,0.15480
2507.36890,0.15539
2505.44015,0.15594
2503.51141,0.15662
2501.58266,0.15754
2499.65392,0.15842
2497.72517,0.15905
2495.79643,0.15957
2493.86768,0.16020
2491.93894,0.16083
2490.01019,0.16130
2488.08145,0.16177
2486.15270,0.16241
2484.22396,0.16307
2482.29521,0.16373
2480.36647,0.16436
2478.43772,0.16485
2476.50897,0.16517
2474.58023,0.16546
2472.65148,0.16586
2470.72274,0.16642
2468.79399,0.16705
2466.86525,0.16754
2464.93650,0.16779
2463.00776,0.16797
2461.07901,0.16827
2459.15027,0.16863
2457.22152,0.16907
2455.29278,0.16965
2453.36403,0.17028
2451.43529,0.17090
2449.50654,0.17140
2447.57779,0.17193
2445.64905,0.17279
2443.72030,0.17378
2441.79156,0.17456
2439.86281,0.17517
2437.93407,0.17576
2436.00532,0.17641
2434.07658,0.17717
2432.14783,0.17793
2430.21909,0.17864
2428.29034,0.17929
2426.36160,0.17984
2424.43285,0.18043
2422.50411,0.18121
2420.57536,0.18213
2418.64662,0.18301
2416.71787,0.18371
2414.78912,0.18434
2412.86038,0.18515
2410.93163,0.18608
2409.00289,0.18698
2407.07414,0.18789
2405.14540,0.18888
2403.21665,0.18973
2401.28791,0.19037
2399.35916,0.19094
2397.43042,0.19153
2395.50167,0.19209
2393.57293,0.19261
2391.64418,0.19315
2389.71544,0.19382
2387.78669,0.19456
2385.85795,0.19530
2383.92920,0.19596
2382.00045,0.19647
2380.07171,0.19685
2378.14296,0.19729
2376.21422,0.19792
2374.28547,0.19864
2372.35673,0.19938
2370.42798,0.20018
2368.49924,0.20094
2366.57049,0.20154
2364.64175,0.20204
2362.71300,0.20262
2360.78426,0.20325
2358.85551,0.20380
2356.92677,0.20439
2354.99802,0.20507
2353.06927,0.20574
2351.14053,0.20645
2349.21178,0.20713
2347.28304,0.20759
2345.35429,0.20810
2343.42555,0.20882
2341.49680,0.20939
2339.56806,0.20977
2337.63931,0.21027
2335.71057,0.21077
2333.78182,0.21119
2331.85308,0.21175
2329.92433,0.21229
2327.99559,0.21253
2326.06684,0.21262
2324.13810,0.21280
2322.20935,0.21303
2320.28060,0.21329
2318.35186,0.21354
2316.42311,0.21364
2314.49437,0.21363
2312.56562,0.21372
2310.63688,0.21380
2308.70813,0.21371
2306.77939,0.21346
2304.85064,0.21323
2302.92190,0.21311
2300.99315,0.21293
2299.06441,0.21262
2297.13566,0.21246
2295.20692,0.21251
2293.27817,0.21254
2291.34943,0.21253
2289.42068,0.21258
2287.49193,0.21253
2285.56319,0.21233
2283.63444,0.21216
2281.70570,0.21205
2279.77695,0.21174
2277.84821,0.21120
2275.91946,0.21067
2273.99072,0.21022
2272.06197,0.20972
2270.13323,0.20920
2268.20448,0.20873
2266.27574,0.20812
2264.34699,0.20740
2262.41825,0.20668
2260.48950,0.20590
2258.56075,0.20516
2256.63201,0.20454
2254.70326,0.20389
2252.77452,0.20317
2250.84577,0.20261
2248.91703,0.20234
2246.98828,0.20215
2245.05954,0.20180
2243.13079,0.20141
2241.20205,0.20122
2239.27330,0.20113
2237.34456,0.20103
2235.41581,0.20114
2233.48707,0.20149
2231.55832,0.20182
2229.62958,0.20210
2227.70083,0.20245
2225.77208,0.20286
2223.84334,0.20314
2221.91459,0.20330
2219.98585,0.20359
2218.05710,0.20406
2216.12836,0.20445
2214.19961,0.20458
2212.27087,0.20452
2210.34212,0.20444
2208.41338,0.20434
2206.48463,0.20418
2204.55589,0.20401
2202.62714,0.20383
2200.69840,0.20356
2198.76965,0.20312
2196.84090,0.20260
2194.91216,0.20205
2192.98341,0.20131
2191.05467,0.20046
2189.12592,0.19957
2187.19718,0.19850
2185.26843,0.19731
2183.33969,0.19624
2181.41094,0.19512
2179.48220,0.19383
2177.55345,0.19262
2175.62471,0.19158
2173.69596,0.19041
2171.76722,0.18905
2169.83847,0.18764
2167.90973,0.18642
2165.98098,0.18546
2164.05223,0.18460
2162.12349,0.18381
2160.19474,0.18307
2158.26600,0.18227
2156.33725,0.18139
2154.40851,0.18071
2152.47976,0.18030
2150.55102,0.17984
2148.62227,0.17929
2146.69353,0.17879
2144.76478,0.17839
2142.83604,0.17812
2140.90729,0.17786
2138.97855,0.17758
2137.04980,0.17744
2135.12106,0.17745
2133.19231,0.17742
2131.26356,0.17733
2129.33482,0.17737
2127.40607,0.17763
2125.47733,0.17795
2123.54858,0.17821
2121.61984,0.17858
2119.69109,0.17905
2117.76235,0.17944
2115.83360,0.17981
2113.90486,0.18026
2111.97611,0.18073
2110.04737,0.18112
2108.11862,0.18139
2106.18988,0.18168
2104.26113,0.18224
2102.33238,0.18294
2100.40364,0.18352
2098.47489,0.18401
2096.54615,0.18454
2094.61740,0.18505
2092.68866,0.18542
2090.75991,0.18577
2088.83117,0.18618
2086.90242,0.18656
2084.97368,0.18683
2083.04493,0.18700
2081.11619,0.18710
2079.18744,0.18721
2077.25870,0.18739
2075.32995,0.18742
2073.40121,0.18717
2071.47246,0.18701
2069.54371,0.18723
2067.61497,0.18758
2065.68622,0.18783
2063.75748,0.18802
2061.82873,0.18817
2059.89999,0.18813
2057.97124,0.18803
2056.04250,0.18823
2054.11375,0.18867
2052.18501,0.18900
2050.25626,0.18927
2048.32752,0.18972
2046.39877,0.19032
2044.47003,0.19090
2042.54128,0.19143
2040.61254,0.19191
2038.68379,0.19238
2036.75504,0.19301
2034.82630,0.19385
2032.89755,0.19473
2030.96881,0.19556
2029.04006,0.19635
2027.11132,0.19724
2025.18257,0.19835
2023.25383,0.19948
2021.32508,0.20047
2019.39634,0.20149
2017.46759,0.20259
2015.53885,0.20359
2013.61010,0.20464
2011.68136,0.20589
2009.75261,0.20708
2007.82386,0.20796
2005.89512,0.20863
2003.96637,0.20922
2002.03763,0.20972
2000.10888,0.21019
1998.18014,0.21071
1996.25139,0.21124
1994.32265,0.21179
1992.39390,0.21238
1990.46516,0.21289
1988.53641,0.21326
1986.60767,0.21356
1984.67892,0.21387
1982.75018,0.21415
1980.82143,0.21428
1978.89269,0.21426
1976.96394,0.21418
1975.03519,0.21403
1973.10645,0.21382
1971.17770,0.21361
1969.24896,0.21341
1967.32021,0.21312
1965.39147,0.21265
1963.46272,0.21224
1961.53398,0.21205
1959.60523,0.21197
1957.67649,0.21193
1955.74774,0.21200
1953.81900,0.21221
1951.89025,0.21247
1949.96151,0.21283
1948.03276,0.21342
1946.10402,0.21418
1944.17527,0.21499
1942.24652,0.21578
1940.31778,0.21650
1938.38903,0.21733
1936.46029,0.21838
1934.53154,0.21950
1932.60280,0.22063
1930.67405,0.22172
1928.74531,0.22274
1926.81656,0.22378
1924.88782,0.22484
1922.95907,0.22580
1921.03033,0.22658
1919.10158,0.22727
1917.17284,0.22792
1915.24409,0.22849
1913.31534,0.22906
1911.38660,0.22957
1909.45785,0.22997
1907.52911,0.23037
1905.60036,0.23077
1903.67162,0.23113
1901.74287,0.23145
1899.81413,0.23173
1897.88538,0.23184
1895.95664,0.23181
1894.02789,0.23190
1892.09915,0.23208
1890.17040,0.23221
1888.24166,0.23228
1886.31291,0.23224
1884.38417,0.23198
1882.45542,0.23164
1880.52667,0.23137
1878.59793,0.23111
1876.66918,0.23068
1874.74044,0.23008
1872.81169,0.22953
1870.88295,0.22912
1868.95420,0.22856
1867.02546,0.22768
1865.09671,0.22664
1863.16797,0.22564
1861.23922,0.22468
1859.31048,0.22370
1857.38173,0.22275
1855.45299,0.22178
1853.52424,0.22065
1851.59549,0.21933
1849.66675,0.21793
1847.73800,0.21657
1845.80926,0.21527
1843.88051,0.21387
1841.95177,0.21235
1840.02302,0.21093
1838.09428,0.20965
1836.16553,0.20842
1834.23679,0.20714
1832.30804,0.20572
1830.37930,0.20406
1828.45055,0.20222
1826.52181,0.20025
1824.59306,0.19806
1822.66432,0.19599
1820.73557,0.19417
1818.80682,0.19217
1816.87808,0.18989
1814.94933,0.18752
1813.02059,0.18507
1811.09184,0.18236
1809.16310,0.17937
1807.23435,0.17629
1805.30561,0.17323
1803.37686,0.17020
1801.44812,0.16702
1799.51937,0.16363
1797.59063,0.16015
1795.66188,0.15664
1793.73314,0.15301
1791.80439,0.14919
1789.87565,0.14541
1787.94690,0.14158
1786.01815,0.13721
1784.08941,0.13226
1782.16066,0.12702
1780.23192,0.12144
1778.30317,0.11566
1776.37443,0.11001
1774.44568,0.10419
1772.51694,0.09750
1770.58819,0.09049
1768.65945,0.08406
1766.73070,0.07830
1764.80196,0.07357
1762.87321,0.06957
1760.94447,0.06594
1759.01572,0.06316
1757.08697,0.06107
1755.15823,0.05938
1753.22948,0.05798
1751.30074,0.05667
1749.37199,0.05556
1747.44325,0.05491
1745.51450,0.05455
1743.58576,0.05422
1741.65701,0.05396
1739.72827,0.05386
1737.79952,0.05401
1735.87078,0.05439
1733.94203,0.05482
1732.01329,0.05526
1730.08454,0.05587
1728.15580,0.05658
1726.22705,0.05730
1724.29830,0.05820
1722.36956,0.05942
1720.44081,0.06093
1718.51207,0.06268
1716.58332,0.06450
1714.65458,0.06622
1712.72583,0.06785
1710.79709,0.06948
1708.86834,0.07117
1706.93960,0.07296
1705.01085,0.07478
1703.08211,0.07645
1701.15336,0.07792
1699.22462,0.07904
1697.29587,0.07988
1695.36713,0.08078
1693.43838,0.08166
1691.50963,0.08233
1689.58089,0.08268
1687.65214,0.08280
1685.72340,0.08285
1683.79465,0.08259
1681.86591,0.08189
1679.93716,0.08118
1678.00842,0.08049
1676.07967,0.07961
1674.15093,0.07854
1672.22218,0.07764
1670.29344,0.07686
1668.36469,0.07605
1666.43595,0.07553
1664.50720,0.07528
1662.57845,0.07491
1660.64971,0.07436
1658.72096,0.07392
1656.79222,0.07365
1654.86347,0.07340
1652.93473,0.07289
1651.00598,0.07242
1649.07724,0.07238
1647.14849,0.07247
1645.21975,0.07240
1643.29100,0.07223
1641.36226,0.07207
1639.43351,0.07205
1637.50477,0.07210
1635.57602,0.07184
1633.64728,0.07126
1631.71853,0.07075
1629.78978,0.07035
1627.86104,0.06993
1625.93229,0.06931
1624.00355,0.06828
1622.07480,0.06700
1620.14606,0.06587
1618.21731,0.06474
1616.28857,0.06323
1614.35982,0.06155
1612.43108,0.05998
1610.50233,0.05854
1608.57359,0.05736
1606.64484,0.05649
1604.71610,0.05570
1602.78735,0.05465
1600.85861,0.05333
1598.92986,0.05198
1597.00111,0.05083
1595.07237,0.05006
1593.14362,0.04995
1591.21488,0.05075
1589.28613,0.05251
1587.35739,0.05503
1585.42864,0.05802
1583.49990,0.06127
1581.57115,0.06471
1579.64241,0.06836
1577.71366,0.07232
1575.78492,0.07666
1573.85617,0.08059
1571.92743,0.08407
1569.99868,0.08772
1568.06993,0.09110
1566.14119,0.09360
1564.21244,0.09560
1562.28370,0.09746
1560.35495,0.09923
1558.42621,0.10038
1556.49746,0.10057
1554.56872,0.10067
1552.63997,0.10090
1550.71123,0.10094
1548.78248,0.10073
1546.85374,0.10050
1544.92499,0.10020
1542.99625,0.09956
1541.06750,0.09841
1539.13876,0.09714
1537.21001,0.09647
1535.28126,0.09591
1533.35252,0.09461
1531.42377,0.09261
1529.49503,0.09028
1527.56628,0.08722
1525.63754,0.08333
1523.70879,0.07905
1521.78005,0.07399
1519.85130,0.06860
1517.92256,0.06434
1515.99381,0.06116
1514.06507,0.05871
1512.13632,0.05680
1510.20758,0.05536
1508.27883,0.05417
1506.35008,0.05287
1504.42134,0.05207
1502.49259,0.05220
1500.56385,0.05300
1498.63510,0.05430
1496.70636,0.05585
1494.77761,0.05736
1492.84887,0.05875
1490.92012,0.05995
1488.99138,0.06060
1487.06263,0.06039
1485.13389,0.05955
1483.20514,0.05832
1481.27640,0.05661
1479.34765,0.05445
1477.41891,0.05206
1475.49016,0.04945
1473.56141,0.04658
1471.63267,0.04381
1469.70392,0.04174
1467.77518,0.04037
1465.84643,0.03949
1463.91769,0.03912
1461.98894,0.03918
1460.06020,0.03934
1458.13145,0.03948
1456.20271,0.03974
1454.27396,0.04020
1452.34522,0.04065
1450.41647,0.04093
1448.48773,0.04118
1446.55898,0.04154
1444.63024,0.04184
1442.70149,0.04188
1440.77274,0.04165
1438.84400,0.04110
1436.91525,0.04032
1434.98651,0.03972
1433.05776,0.03932
1431.12902,0.03893
1429.20027,0.03889
1427.27153,0.03938
1425.34278,0.03998
1423.41404,0.04046
1421.48529,0.04104
1419.55655,0.04179
1417.62780,0.04252
1415.69906,0.04322
1413.77031,0.04391
1411.84156,0.04456
1409.91282,0.04514
1407.98407,0.04564
1406.05533,0.04589
1404.12658,0.04572
1402.19784,0.04542
1400.26909,0.04520
1398.34035,0.04482
1396.41160,0.04412
1394.48286,0.04321
1392.55411,0.04223
1390.62537,0.04113
1388.69662,0.03977
1386.76788,0.03830
1384.83913,0.03704
1382.91039,0.03595
1380.98164,0.03507
1379.05289,0.03452
1377.12415,0.03418
1375.19540,0.03401
1373.26666,0.03391
1371.33791,0.03383
1369.40917,0.03383
1367.48042,0.03391
1365.55168,0.03409
1363.62293,0.03441
1361.69419,0.03475
1359.76544,0.03495
1357.83670,0.03509
1355.90795,0.03526
1353.97921,0.03544
1352.05046,0.03547
1350.12172,0.03534
1348.19297,0.03509
1346.26422,0.03480
1344.33548,0.03455
1342.40673,0.03439
1340.47799,0.03422
1338.54924,0.03397
1336.62050,0.03365
1334.69175,0.03339
1332.76301,0.03329
1330.83426,0.03327
1328.90552,0.03328
1326.97677,0.03350
1325.04803,0.03379
1323.11928,0.03393
1321.19054,0.03406
1319.26179,0.03431
1317.33304,0.03456
1315.40430,0.03488
1313.47555,0.03541
1311.54681,0.03609
1309.61806,0.03675
1307.68932,0.03730
1305.76057,0.03772
1303.83183,0.03802
1301.90308,0.03817
1299.97434,0.03820
1298.04559,0.03817
1296.11685,0.03796
1294.18810,0.03748
1292.25936,0.03684
1290.33061,0.03623
1288.40187,0.03558
1286.47312,0.03483
1284.54437,0.03418
1282.61563,0.03375
1280.68688,0.03340
1278.75814,0.03298
1276.82939,0.03255
1274.90065,0.03228
1272.97190,0.03221
1271.04316,0.03209
1269.11441,0.03177
1267.18567,0.03139
1265.25692,0.03100
1263.32818,0.03064
1261.39943,0.03039
1259.47069,0.03018
1257.54194,0.02998
1255.61320,0.02988
1253.68445,0.02975
1251.75570,0.02945
1249.82696,0.02926
1247.89821,0.02930
1245.96947,0.02940
1244.04072,0.02958
1242.11198,0.02980
1240.18323,0.03005
1238.25449,0.03037
1236.32574,0.03062
1234.39700,0.03072
1232.46825,0.03078
1230.53951,0.03104
1228.61076,0.03151
1226.68202,0.03197
1224.75327,0.03241
1222.82452,0.03286
1220.89578,0.03329
1218.96703,0.03377
1217.03829,0.03429
1215.10954,0.03476
1213.18080,0.03513
1211.25205,0.03517
1209.32331,0.03485
1207.39456,0.03477
1205.46582,0.03500
1203.53707,0.03525
1201.60833,0.03550
1199.67958,0.03564
1197.75084,0.03563
1195.82209,0.03560
1193.89335,0.03550
1191.96460,0.03520
1190.03585,0.03478
1188.10711,0.03426
1186.17836,0.03352
1184.24962,0.03270
1182.32087,0.03204
1180.39213,0.03147
1178.46338,0.03088
1176.53464,0.03033
1174.60589,0.02975
1172.67715,0.02912
1170.74840,0.02873
1168.81966,0.02880
1166.89091,0.02927
1164.96217,0.03001
1163.03342,0.03072
1161.10467,0.03112
1159.17593,0.03116
1157.24718,0.03108
1155.31844,0.03108
1153.38969,0.03094
1151.46095,0.03061
1149.53220,0.03032
1147.60346,0.03008
1145.67471,0.02975
1143.74597,0.02919
1141.81722,0.02832
1139.88848,0.02737
1137.95973,0.02673
1136.03099,0.02636
1134.10224,0.02604
1132.17350,0.02589
1130.24475,0.02616
1128.31600,0.02676
1126.38726,0.02736
1124.45851,0.02781
1122.52977,0.02829
1120.60102,0.02877
1118.67228,0.02900
1116.74353,0.02915
1114.81479,0.02951
1112.88604,0.03006
1110.95730,0.03062
1109.02855,0.03096
1107.09981,0.03115
1105.17106,0.03131
1103.24232,0.03134
1101.31357,0.03125
1099.38483,0.03123
1097.45608,0.03115
1095.52733,0.03080
1093.59859,0.03034
1091.66984,0.03009
1089.74110,0.03019
1087.81235,0.03036
1085.88361,0.03051
1083.95486,0.03092
1082.02612,0.03156
1080.09737,0.03227
1078.16863,0.03303
1076.23988,0.03382
1074.31114,0.03449
1072.38239,0.03502
1070.45365,0.03580
1068.52490,0.03692
1066.59615,0.03815
1064.66741,0.03957
1062.73866,0.04127
1060.80992,0.04280
1058.88117,0.04358
1056.95243,0.04390
1055.02368,0.04419
1053.09494,0.04425
1051.16619,0.04401
1049.23745,0.04373
1047.30870,0.04344
1045.37996,0.04318
1043.45121,0.04322
1041.52247,0.04375
1039.59372,0.04455
1037.66498,0.04540
1035.73623,0.04614
1033.80748,0.04654
1031.87874,0.04683
1029.94999,0.04718
1028.02125,0.04727
1026.09250,0.04714
1024.16376,0.04718
1022.23501,0.04741
1020.30627,0.04765
1018.37752,0.04800
1016.44878,0.04857
1014.52003,0.04899
1012.59129,0.04902
1010.66254,0.04893
1008.73380,0.04889
1006.80505,0.04888
1004.87631,0.04894
1002.94756,0.04920
1001.01881,0.04969
999.09007,0.05008
997.16132,0.05038
995.23258,0.05096
993.30383,0.05167
991.37509,0.05217
989.44634,0.05257
987.51760,0.05345
985.58885,0.05498
983.66011,0.05670
981.73136,0.05838
979.80262,0.06014
977.87387,0.06170
975.94513,0.06266
974.01638,0.06324
972.08763,0.06414
970.15889,0.06548
968.23014,0.06682
966.30140,0.06816
964.37265,0.06987
962.44391,0.07184
960.51516,0.07380
958.58642,0.07570
956.65767,0.07759
954.72893,0.07971
952.80018,0.08197
950.87144,0.08389
948.94269,0.08543
947.01395,0.08684
945.08520,0.08794
943.15646,0.08857
941.22771,0.08900
939.29896,0.08919
937.37022,0.08887
935.44147,0.08817
933.51273,0.08747
931.58398,0.08695
929.65524,0.08685
927.72649,0.08691
925.79775,0.08655
923.86900,0.08597
921.94026,0.08571
920.01151,0.08563
918.08277,0.08528
916.15402,0.08460
914.22528,0.08375
912.29653,0.08287
910.36779,0.08188
908.43904,0.08055
906.51029,0.07902
904.58155,0.07756
902.65280,0.07616
900.72406,0.07495
898.79531,0.07443
896.86657,0.07496
894.93782,0.07637
893.00908,0.07842
891.08033,0.08082
889.15159,0.08310
887.22284,0.08509
885.29410,0.08687
883.36535,0.08835
881.43661,0.08945
879.50786,0.09020
877.57911,0.09066
875.65037,0.09100
873.72162,0.09140
871.79288,0.09215
869.86413,0.09339
867.93539,0.09491
866.00664,0.09650
864.07790,0.09788
862.14915,0.09860
860.22041,0.09867
858.29166,0.09840
856.36292,0.09794
854.43417,0.09756
852.50543,0.09733
850.57668,0.09695
848.64794,0.09624
846.71919,0.09543
844.79044,0.09491
842.86170,0.09474
840.93295,0.09457
839.00421,0.09412
837.07546,0.09368
835.14672,0.09379
833.21797,0.09402
831.28923,0.09389
829.36048,0.09395
827.43174,0.09472
825.50299,0.09586
823.57425,0.09660
821.64550,0.09676
819.71676,0.09697
817.78801,0.09765
815.85926,0.09847
813.93052,0.09904
812.00177,0.09931
810.07303,0.09943
808.14428,0.09948
806.21554,0.09942
804.28679,0.09933
802.35805,0.09922
800.42930,0.09883
798.50056,0.09818
796.57181,0.09776
794.64307,0.09778
792.71432,0.09787
790.78558,0.09768
788.85683,0.09728
786.92809,0.09683
784.99934,0.09617
783.07059,0.09513
781.14185,0.09394
779.21310,0.09274
777.28436,0.09123
775.35561,0.08949
773.42687,0.08804
771.49812,0.08705
769.56938,0.08628
767.64063,0.08552
765.71189,0.08485
763.78314,0.08447
761.85440,0.08401
759.92565,0.08296
757.99691,0.08168
756.06816,0.08086
754.13942,0.08036
752.21067,0.07960
750.28192,0.07859
748.35318,0.07770
746.42443,0.07688
744.49569,0.07596
742.56694,0.07506
740.63820,0.07430
738.70945,0.07382
736.78071,0.07314
734.85196,0.07160
732.92322,0.07003
730.99447,0.06933
729.06573,0.06873
727.13698,0.06763
725.20824,0.06664
723.27949,0.06596
721.35074,0.06523
719.42200,0.06469
717.49325,0.06449
715.56451,0.06423
713.63576,0.06368
711.70702,0.06297
709.77827,0.06268
707.84953,0.06298
705.92078,0.06312
703.99204,0.06258
702.06329,0.06177
700.13455,0.06136
698.20580,0.06125
696.27706,0.06102
694.34831,0.06107
692.41957,0.06156
690.49082,0.06164
688.56207,0.06093
686.63333,0.06005
684.70458,0.05932
682.77584,0.05859
680.84709,0.05774
678.91835,0.05682
676.98960,0.05609
675.06086,0.05582
673.13211,0.05579
671.20337,0.05557
669.27462,0.05526
667.34588,0.05533
665.41713,0.05579
663.48839,0.05623
661.55964,0.05641
659.63090,0.05652
657.70215,0.05678
655.77340,0.05704
653.84466,0.05694
651.91591,0.05661
649.98717,0.05654
648.05842,0.05633
646.12968,0.05571
644.20093,0.05550
642.27219,0.05550
640.34344,0.05479
638.41470,0.05374
636.48595,0.05279
634.55721,0.05182
632.62846,0.05133
630.69972,0.05137
628.77097,0.05126
626.84222,0.05071
624.91348,0.04977
622.98473,0.04903
621.05599,0.04926
619.12724,0.05016
617.19850,0.05102
615.26975,0.05152
613.34101,0.05155
611.41226,0.05122
609.48352,0.05104
607.55477,0.05178
605.62603,0.05304
603.69728,0.05358
601.76854,0.05360
599.83979,0.05354
