7497.03301,0.65392
7495.10426,0.65265
7493.17552,0.65311
7491.24677,0.65578
7489.31803,0.65646
7487.38928,0.65471
7485.46054,0.65524
7483.53179,0.65527
7481.60305,0.65027
7479.67430,0.64590
7477.74556,0.64537
7475.81681,0.64450
7473.88807,0.64366
7471.95932,0.64499
7470.03057,0.64558
7468.10183,0.64576
7466.17308,0.64848
7464.24434,0.65021
7462.31559,0.64761
7460.38685,0.64212
7458.45810,0.63655
7456.52936,0.63460
7454.60061,0.63772
7452.67187,0.64476
7450.74312,0.65185
7448.81438,0.65472
7446.88563,0.65350
7444.95689,0.65036
7443.02814,0.64758
7441.09940,0.64545
7439.17065,0.64296
7437.24190,0.63997
7435.31316,0.63544
7433.38441,0.63232
7431.45567,0.63352
7429.52692,0.63578
7427.59818,0.63569
7425.66943,0.63272
7423.74069,0.63196
7421.81194,0.63715
7419.88320,0.64128
7417.95445,0.63707
7416.02571,0.62807
7414.09696,0.62301
7412.16822,0.62324
7410.23947,0.62387
7408.31073,0.62363
7406.38198,0.62518
7404.45323,0.62875
7402.52449,0.63020
7400.59574,0.62824
7398.66700,0.62579
7396.73825,0.62509
7394.80951,0.62674
7392.88076,0.62705
7390.95202,0.62320
7389.02327,0.61809
7387.09453,0.61346
7385.16578,0.60968
7383.23704,0.60942
7381.30829,0.61484
7379.37955,0.62330
7377.45080,0.62704
7375.52205,0.62201
7373.59331,0.61590
7371.66456,0.61681
7369.73582,0.62005
7367.80707,0.61749
7365.87833,0.61264
7363.94958,0.61211
7362.02084,0.61294
7360.09209,0.61276
7358.16335,0.61378
7356.23460,0.61487
7354.30586,0.61629
7352.37711,0.61994
7350.44837,0.62177
7348.51962,0.61923
7346.59088,0.61817
7344.66213,0.62092
7342.73338,0.62007
7340.80464,0.61354
7338.87589,0.61094
7336.94715,0.61360
7335.01840,0.61235
7333.08966,0.60731
7331.16091,0.60394
7329.23217,0.60320
7327.30342,0.60670
7325.37468,0.61346
7323.44593,0.61896
7321.51719,0.62182
7319.58844,0.61999
7317.65970,0.61161
7315.73095,0.60278
7313.80221,0.60028
7311.87346,0.60320
7309.94471,0.60561
7308.01597,0.60335
7306.08722,0.60065
7304.15848,0.60198
7302.22973,0.60338
7300.30099,0.60228
7298.37224,0.60146
7296.44350,0.60096
7294.51475,0.59898
7292.58601,0.59925
7290.65726,0.60352
7288.72852,0.60524
7286.79977,0.60351
7284.87103,0.60316
7282.94228,0.60381
7281.01353,0.60398
7279.08479,0.60270
7277.15604,0.59908
7275.22730,0.59523
7273.29855,0.59543
7271.36981,0.59991
7269.44106,0.60191
7267.51232,0.59938
7265.58357,0.59644
7263.65483,0.59341
7261.72608,0.59167
7259.79734,0.59320
7257.86859,0.59684
7255.93985,0.60273
7254.01110,0.60814
7252.08236,0.60897
7250.15361,0.60689
7248.22486,0.60407
7246.29612,0.60102
7244.36737,0.60054
7242.43863,0.60428
7240.50988,0.60797
7238.58114,0.60629
7236.65239,0.60097
7234.72365,0.59747
7232.79490,0.59631
7230.86616,0.59494
7228.93741,0.59358
7227.00867,0.59347
7225.07992,0.59405
7223.15118,0.59390
7221.22243,0.59464
7219.29369,0.59787
7217.36494,0.60093
7215.43619,0.60231
7213.50745,0.60130
7211.57870,0.59607
7209.64996,0.58947
7207.72121,0.58841
7205.79247,0.59336
7203.86372,0.59477
7201.93498,0.59053
7200.00623,0.58975
7198.07749,0.59232
7196.14874,0.59369
7194.22000,0.59746
7192.29125,0.60215
7190.36251,0.60093
7188.43376,0.59577
7186.50501,0.59094
7184.57627,0.58723
7182.64752,0.58631
7180.71878,0.58751
7178.79003,0.58671
7176.86129,0.58278
7174.93254,0.58077
7173.00380,0.58472
7171.07505,0.58892
7169.14631,0.58626
7167.21756,0.58049
7165.28882,0.57869
7163.36007,0.58029
7161.43133,0.58124
7159.50258,0.58023
7157.57384,0.57829
7155.64509,0.57646
7153.71634,0.57499
7151.78760,0.57314
7149.85885,0.57060
7147.93011,0.56965
7146.00136,0.57163
7144.07262,0.57365
7142.14387,0.57362
7140.21513,0.57171
7138.28638,0.56979
7136.35764,0.57200
7134.42889,0.57759
7132.50015,0.57871
7130.57140,0.57358
7128.64266,0.56992
7126.71391,0.56979
7124.78516,0.56882
7122.85642,0.56718
7120.92767,0.56569
7118.99893,0.56324
7117.07018,0.55997
7115.14144,0.55620
7113.21269,0.55443
7111.28395,0.55578
7109.35520,0.55598
7107.42646,0.55397
7105.49771,0.55425
7103.56897,0.55520
7101.64022,0.55040
7099.71148,0.54235
7097.78273,0.53826
7095.85399,0.53909
7093.92524,0.54185
7091.99649,0.54324
7090.06775,0.54186
7088.13900,0.53806
7086.21026,0.53189
7084.28151,0.52701
7082.35277,0.52694
7080.42402,0.52934
7078.49528,0.53236
7076.56653,0.53495
7074.63779,0.53383
7072.70904,0.53004
7070.78030,0.52702
7068.85155,0.52511
7066.92281,0.52452
7064.99406,0.52361
7063.06532,0.51943
7061.13657,0.51397
7059.20782,0.51057
7057.27908,0.50868
7055.35033,0.50688
7053.42159,0.50523
7051.49284,0.50465
7049.56410,0.50491
7047.63535,0.50345
7045.70661,0.49950
7043.77786,0.49661
7041.84912,0.49667
7039.92037,0.49636
7037.99163,0.49273
7036.06288,0.48775
7034.13414,0.48538
7032.20539,0.48511
7030.27664,0.48319
7028.34790,0.48017
7026.41915,0.47841
7024.49041,0.47790
7022.56166,0.47861
7020.63292,0.47976
7018.70417,0.47996
7016.77543,0.47814
7014.84668,0.47481
7012.91794,0.47240
7010.98919,0.46960
7009.06045,0.46584
7007.13170,0.46568
7005.20296,0.46853
7003.27421,0.46868
7001.34547,0.46563
6999.41672,0.46291
6997.48797,0.46184
6995.55923,0.46211
6993.63048,0.46323
6991.70174,0.46343
6989.77299,0.46188
6987.84425,0.45977
6985.91550,0.45765
6983.98676,0.45604
6982.05801,0.45720
6980.12927,0.46092
6978.20052,0.46252
6976.27178,0.45934
6974.34303,0.45378
6972.41429,0.45077
6970.48554,0.45267
6968.55680,0.45496
6966.62805,0.45324
6964.69930,0.45113
6962.77056,0.45317
6960.84181,0.45695
6958.91307,0.45866
6956.98432,0.45804
6955.05558,0.45652
6953.12683,0.45535
6951.19809,0.45354
6949.26934,0.45126
6947.34060,0.45158
6945.41185,0.45385
6943.48311,0.45473
6941.55436,0.45380
6939.62562,0.45322
6937.69687,0.45496
6935.76812,0.45721
6933.83938,0.45677
6931.91063,0.45429
6929.98189,0.45121
6928.05314,0.44913
6926.12440,0.45035
6924.19565,0.45243
6922.26691,0.45145
6920.33816,0.44892
6918.40942,0.44771
6916.48067,0.44811
6914.55193,0.44931
6912.62318,0.45005
6910.69444,0.44974
6908.76569,0.44959
6906.83695,0.45002
6904.90820,0.44994
6902.97945,0.44968
6901.05071,0.44994
6899.12196,0.44999
6897.19322,0.44879
6895.26447,0.44655
6893.33573,0.44548
6891.40698,0.44673
6889.47824,0.44895
6887.54949,0.45087
6885.62075,0.45158
6883.69200,0.45094
6881.76326,0.45112
6879.83451,0.45321
6877.90577,0.45482
6875.97702,0.45417
6874.04828,0.45190
6872.11953,0.44930
6870.19078,0.44921
6868.26204,0.45278
6866.33329,0.45556
6864.40455,0.45344
6862.47580,0.44851
6860.54706,0.44545
6858.61831,0.44620
6856.68957,0.44892
6854.76082,0.44986
6852.83208,0.44750
6850.90333,0.44551
6848.97459,0.44654
6847.04584,0.44917
6845.11710,0.45209
6843.18835,0.45283
6841.25960,0.45059
6839.33086,0.44849
6837.40211,0.44714
6835.47337,0.44655
6833.54462,0.44875
6831.61588,0.45197
6829.68713,0.45202
6827.75839,0.44870
6825.82964,0.44470
6823.90090,0.44179
6821.97215,0.44118
6820.04341,0.44322
6818.11466,0.44643
6816.18592,0.44821
6814.25717,0.44724
6812.32843,0.44703
6810.39968,0.45004
6808.47093,0.45227
6806.54219,0.45130
6804.61344,0.44907
6802.68470,0.44797
6800.75595,0.44841
6798.82721,0.44766
6796.89846,0.44564
6794.96972,0.44626
6793.04097,0.44961
6791.11223,0.45086
6789.18348,0.44883
6787.25474,0.44727
6785.32599,0.44761
6783.39725,0.44849
6781.46850,0.44763
6779.53975,0.44376
6777.61101,0.44049
6775.68226,0.44153
6773.75352,0.44488
6771.82477,0.44687
6769.89603,0.44786
6767.96728,0.44925
6766.03854,0.44893
6764.10979,0.44722
6762.18105,0.44806
6760.25230,0.44988
6758.32356,0.44897
6756.39481,0.44862
6754.46607,0.45151
6752.53732,0.45277
6750.60858,0.45108
6748.67983,0.45158
6746.75108,0.45413
6744.82234,0.45410
6742.89359,0.45155
6740.96485,0.44855
6739.03610,0.44505
6737.10736,0.44302
6735.17861,0.44447
6733.24987,0.44777
6731.32112,0.45108
6729.39238,0.45341
6727.46363,0.45413
6725.53489,0.45311
6723.60614,0.45157
6721.67740,0.45177
6719.74865,0.45211
6717.81991,0.45039
6715.89116,0.44892
6713.96241,0.44918
6712.03367,0.44963
6710.10492,0.44999
6708.17618,0.45111
6706.24743,0.45269
6704.31869,0.45468
6702.38994,0.45630
6700.46120,0.45581
6698.53245,0.45489
6696.60371,0.45546
6694.67496,0.45584
6692.74622,0.45485
6690.81747,0.45406
6688.88873,0.45407
6686.95998,0.45374
6685.03123,0.45326
6683.10249,0.45191
6681.17374,0.44984
6679.24500,0.45081
6677.31625,0.45420
6675.38751,0.45419
6673.45876,0.45002
6671.53002,0.44749
6669.60127,0.44934
6667.67253,0.45238
6665.74378,0.45347
6663.81504,0.45260
6661.88629,0.45255
6659.95755,0.45383
6658.02880,0.45375
6656.10006,0.45275
6654.17131,0.45329
6652.24256,0.45459
6650.31382,0.45507
6648.38507,0.45479
6646.45633,0.45437
6644.52758,0.45541
6642.59884,0.45846
6640.67009,0.46144
6638.74135,0.46285
6636.81260,0.46295
6634.88386,0.46309
6632.95511,0.46421
6631.02637,0.46519
6629.09762,0.46481
6627.16888,0.46488
6625.24013,0.46703
6623.31139,0.46945
6621.38264,0.46982
6619.45389,0.46676
6617.52515,0.46157
6615.59640,0.45806
6613.66766,0.45790
6611.73891,0.45998
6609.81017,0.46240
6607.88142,0.46397
6605.95268,0.46483
6604.02393,0.46623
6602.09519,0.46925
6600.16644,0.47244
6598.23770,0.47245
6596.30895,0.46899
6594.38021,0.46708
6592.45146,0.46887
6590.52271,0.47041
6588.59397,0.46957
6586.66522,0.46844
6584.73648,0.46879
6582.80773,0.47019
6580.87899,0.47133
6578.95024,0.47039
6577.02150,0.46711
6575.09275,0.46438
6573.16401,0.46400
6571.23526,0.46575
6569.30652,0.46868
6567.37777,0.47083
6565.44903,0.47137
6563.52028,0.47204
6561.59154,0.47442
6559.66279,0.47676
6557.73404,0.47683
6555.80530,0.47538
6553.87655,0.47365
6551.94781,0.47295
6550.01906,0.47398
6548.09032,0.47527
6546.16157,0.47507
6544.23283,0.47311
6542.30408,0.47137
6540.37534,0.47229
6538.44659,0.47499
6536.51785,0.47675
6534.58910,0.47673
6532.66036,0.47638
6530.73161,0.47647
6528.80287,0.47558
6526.87412,0.47344
6524.94537,0.47122
6523.01663,0.47058
6521.08788,0.47274
6519.15914,0.47518
6517.23039,0.47532
6515.30165,0.47522
6513.37290,0.47645
6511.44416,0.47716
6509.51541,0.47665
6507.58667,0.47523
6505.65792,0.47267
6503.72918,0.47116
6501.80043,0.47291
6499.87169,0.47619
6497.94294,0.47813
6496.01419,0.47937
6494.08545,0.48126
6492.15670,0.48104
6490.22796,0.47834
6488.29921,0.47674
6486.37047,0.47613
6484.44172,0.47524
6482.51298,0.47502
6480.58423,0.47556
6478.65549,0.47582
6476.72674,0.47512
6474.79800,0.47450
6472.86925,0.47616
6470.94051,0.47870
6469.01176,0.47866
6467.08302,0.47690
6465.15427,0.47649
6463.22552,0.47709
6461.29678,0.47648
6459.36803,0.47505
6457.43929,0.47513
6455.51054,0.47678
6453.58180,0.47820
6451.65305,0.47920
6449.72431,0.48104
6447.79556,0.48381
6445.86682,0.48489
6443.93807,0.48232
6442.00933,0.47931
6440.08058,0.47908
6438.15184,0.48061
6436.22309,0.48259
6434.29434,0.48394
6432.36560,0.48462
6430.43685,0.48591
6428.50811,0.48613
6426.57936,0.48453
6424.65062,0.48309
6422.72187,0.48219
6420.79313,0.48231
6418.86438,0.48384
6416.93564,0.48424
6415.00689,0.48260
6413.07815,0.48237
6411.14940,0.48494
6409.22066,0.48708
6407.29191,0.48736
6405.36317,0.48770
6403.43442,0.48817
6401.50567,0.48769
6399.57693,0.48739
6397.64818,0.48769
6395.71944,0.48727
6393.79069,0.48596
6391.86195,0.48462
6389.93320,0.48411
6388.00446,0.48400
6386.07571,0.48308
6384.14697,0.48285
6382.21822,0.48472
6380.28948,0.48613
6378.36073,0.48548
6376.43199,0.48526
6374.50324,0.48669
6372.57450,0.48811
6370.64575,0.48873
6368.71700,0.48916
6366.78826,0.48930
6364.85951,0.48824
6362.93077,0.48694
6361.00202,0.48745
6359.07328,0.48950
6357.14453,0.49175
6355.21579,0.49290
6353.28704,0.49205
6351.35830,0.48995
6349.42955,0.48837
6347.50081,0.48871
6345.57206,0.49006
6343.64332,0.49083
6341.71457,0.49178
6339.78582,0.49345
6337.85708,0.49489
6335.92833,0.49471
6333.99959,0.49241
6332.07084,0.49001
6330.14210,0.48887
6328.21335,0.48803
6326.28461,0.48823
6324.35586,0.49042
6322.42712,0.49197
6320.49837,0.49113
6318.56963,0.48974
6316.64088,0.48895
6314.71214,0.48903
6312.78339,0.49056
6310.85465,0.49280
6308.92590,0.49427
6306.99715,0.49459
6305.06841,0.49472
6303.13966,0.49553
6301.21092,0.49653
6299.28217,0.49620
6297.35343,0.49460
6295.42468,0.49346
6293.49594,0.49321
6291.56719,0.49297
6289.63845,0.49255
6287.70970,0.49262
6285.78096,0.49346
6283.85221,0.49401
6281.92347,0.49418
6279.99472,0.49535
6278.06598,0.49657
6276.13723,0.49650
6274.20848,0.49732
6272.27974,0.50013
6270.35099,0.50163
6268.42225,0.50003
6266.49350,0.49825
6264.56476,0.49823
6262.63601,0.49880
6260.70727,0.49935
6258.77852,0.49981
6256.84978,0.50029
6254.92103,0.50129
6252.99229,0.50236
6251.06354,0.50388
6249.13480,0.50588
6247.20605,0.50717
6245.27730,0.50840
6243.34856,0.50930
6241.41981,0.50875
6239.49107,0.50876
6237.56232,0.50977
6235.63358,0.50998
6233.70483,0.51069
6231.77609,0.51340
6229.84734,0.51650
6227.91860,0.51749
6225.98985,0.51586
6224.06111,0.51461
6222.13236,0.51593
6220.20362,0.51712
6218.27487,0.51636
6216.34613,0.51564
6214.41738,0.51582
6212.48863,0.51678
6210.55989,0.51760
6208.63114,0.51707
6206.70240,0.51697
6204.77365,0.51854
6202.84491,0.52016
6200.91616,0.52027
6198.98742,0.51954
6197.05867,0.52083
6195.12993,0.52392
6193.20118,0.52541
6191.27244,0.52530
6189.34369,0.52600
6187.41495,0.52738
6185.48620,0.52848
6183.55746,0.52927
6181.62871,0.52888
6179.69996,0.52763
6177.77122,0.52743
6175.84247,0.52854
6173.91373,0.52970
6171.98498,0.53006
6170.05624,0.52999
6168.12749,0.52986
6166.19875,0.52969
6164.27000,0.52974
6162.34126,0.53013
6160.41251,0.53096
6158.48377,0.53247
6156.55502,0.53470
6154.62628,0.53637
6152.69753,0.53691
6150.76878,0.53763
6148.84004,0.53830
6146.91129,0.53849
6144.98255,0.53824
6143.05380,0.53701
6141.12506,0.53600
6139.19631,0.53620
6137.26757,0.53668
6135.33882,0.53685
6133.41008,0.53706
6131.48133,0.53719
6129.55259,0.53710
6127.62384,0.53826
6125.69510,0.54112
6123.76635,0.54279
6121.83761,0.54230
6119.90886,0.54193
6117.98011,0.54151
6116.05137,0.53990
6114.12262,0.53847
6112.19388,0.53879
6110.26513,0.54117
6108.33639,0.54402
6106.40764,0.54496
6104.47890,0.54406
6102.55015,0.54337
6100.62141,0.54413
6098.69266,0.54537
6096.76392,0.54501
6094.83517,0.54303
6092.90643,0.54166
6090.97768,0.54233
6089.04893,0.54407
6087.12019,0.54480
6085.19144,0.54457
6083.26270,0.54467
6081.33395,0.54433
6079.40521,0.54303
6077.47646,0.54254
6075.54772,0.54362
6073.61897,0.54490
6071.69023,0.54554
6069.76148,0.54523
6067.83274,0.54313
6065.90399,0.54034
6063.97525,0.53923
6062.04650,0.53986
6060.11776,0.54125
6058.18901,0.54317
6056.26026,0.54411
6054.33152,0.54237
6052.40277,0.53962
6050.47403,0.53853
6048.54528,0.53954
6046.61654,0.54174
6044.68779,0.54306
6042.75905,0.54182
6040.83030,0.53943
6038.90156,0.53847
6036.97281,0.53884
6035.04407,0.53939
6033.11532,0.54051
6031.18658,0.54167
6029.25783,0.54109
6027.32909,0.53852
6025.40034,0.53617
6023.47159,0.53601
6021.54285,0.53697
6019.61410,0.53717
6017.68536,0.53658
6015.75661,0.53598
6013.82787,0.53578
6011.89912,0.53558
6009.97038,0.53499
6008.04163,0.53423
6006.11289,0.53292
6004.18414,0.53120
6002.25540,0.53020
6000.32665,0.52979
5998.39791,0.53003
5996.46916,0.53181
5994.54041,0.53373
5992.61167,0.53376
5990.68292,0.53264
5988.75418,0.53188
5986.82543,0.53126
5984.89669,0.53055
5982.96794,0.53064
5981.03920,0.53094
5979.11045,0.53048
5977.18171,0.53041
5975.25296,0.53157
5973.32422,0.53223
5971.39547,0.53073
5969.46673,0.52790
5967.53798,0.52537
5965.60924,0.52443
5963.68049,0.52525
5961.75174,0.52534
5959.82300,0.52405
5957.89425,0.52360
5955.96551,0.52334
5954.03676,0.52186
5952.10802,0.52110
5950.17927,0.52208
5948.25053,0.52299
5946.32178,0.52277
5944.39304,0.52234
5942.46429,0.52285
5940.53555,0.52347
5938.60680,0.52327
5936.67806,0.52401
5934.74931,0.52531
5932.82057,0.52461
5930.89182,0.52329
5928.96307,0.52330
5927.03433,0.52386
5925.10558,0.52435
5923.17684,0.52407
5921.24809,0.52304
5919.31935,0.52252
5917.39060,0.52198
5915.46186,0.52073
5913.53311,0.52029
5911.60437,0.52077
5909.67562,0.52042
5907.74688,0.51927
5905.81813,0.51833
5903.88939,0.51783
5901.96064,0.51769
5900.03189,0.51715
5898.10315,0.51570
5896.17440,0.51470
5894.24566,0.51515
5892.31691,0.51589
5890.38817,0.51597
5888.45942,0.51559
5886.53068,0.51501
5884.60193,0.51437
5882.67319,0.51395
5880.74444,0.51366
5878.81570,0.51299
5876.88695,0.51230
5874.95821,0.51171
5873.02946,0.51024
5871.10072,0.50897
5869.17197,0.50968
5867.24322,0.51095
5865.31448,0.51122
5863.38573,0.51102
5861.45699,0.51076
5859.52824,0.51044
5857.59950,0.51001
5855.67075,0.50978
5853.74201,0.50984
5851.81326,0.50977
5849.88452,0.50990
5847.95577,0.51025
5846.02703,0.51017
5844.09828,0.50972
5842.16954,0.50938
5840.24079,0.50919
5838.31205,0.50834
5836.38330,0.50626
5834.45455,0.50412
5832.52581,0.50372
5830.59706,0.50468
5828.66832,0.50525
5826.73957,0.50466
5824.81083,0.50329
5822.88208,0.50235
5820.95334,0.50206
5819.02459,0.50173
5817.09585,0.50144
5815.16710,0.50069
5813.23836,0.49891
5811.30961,0.49683
5809.38087,0.49549
5807.45212,0.49555
5805.52337,0.49702
5803.59463,0.49847
5801.66588,0.49850
5799.73714,0.49813
5797.80839,0.49828
5795.87965,0.49818
5793.95090,0.49740
5792.02216,0.49657
5790.09341,0.49694
5788.16467,0.49860
5786.23592,0.49995
5784.30718,0.50029
5782.37843,0.50061
5780.44969,0.50147
5778.52094,0.50280
5776.59220,0.50453
5774.66345,0.50536
5772.73470,0.50447
5770.80596,0.50341
5768.87721,0.50373
5766.94847,0.50526
5765.01972,0.50651
5763.09098,0.50667
5761.16223,0.50654
5759.23349,0.50666
5757.30474,0.50716
5755.37600,0.50836
5753.44725,0.50966
5751.51851,0.51021
5749.58976,0.51033
5747.66102,0.51056
5745.73227,0.51076
5743.80352,0.51095
5741.87478,0.51145
5739.94603,0.51168
5738.01729,0.51148
5736.08854,0.51195
5734.15980,0.51265
5732.23105,0.51270
5730.30231,0.51256
5728.37356,0.51170
5726.44482,0.51013
5724.51607,0.50960
5722.58733,0.51025
5720.65858,0.51078
5718.72984,0.51097
5716.80109,0.51129
5714.87235,0.51138
5712.94360,0.51117
5711.01485,0.51169
5709.08611,0.51304
5707.15736,0.51394
5705.22862,0.51321
5703.29987,0.51093
5701.37113,0.50894
5699.44238,0.50912
5697.51364,0.51061
5695.58489,0.51069
5693.65615,0.50920
5691.72740,0.50851
5689.79866,0.50969
5687.86991,0.51220
5685.94117,0.51449
5684.01242,0.51473
5682.08368,0.51288
5680.15493,0.51036
5678.22618,0.50864
5676.29744,0.50820
5674.36869,0.50876
5672.43995,0.50985
5670.51120,0.51039
5668.58246,0.50978
5666.65371,0.50856
5664.72497,0.50765
5662.79622,0.50760
5660.86748,0.50803
5658.93873,0.50868
5657.00999,0.50911
5655.08124,0.50852
5653.15250,0.50801
5651.22375,0.50896
5649.29500,0.51024
5647.36626,0.51012
5645.43751,0.50848
5643.50877,0.50678
5641.58002,0.50636
5639.65128,0.50680
5637.72253,0.50709
5635.79379,0.50750
5633.86504,0.50831
5631.93630,0.50915
5630.00755,0.50937
5628.07881,0.50874
5626.15006,0.50842
5624.22132,0.50898
5622.29257,0.50936
5620.36383,0.50901
5618.43508,0.50863
5616.50633,0.50907
5614.57759,0.51042
5612.64884,0.51179
5610.72010,0.51204
5608.79135,0.51141
5606.86261,0.51102
5604.93386,0.51093
5603.00512,0.51106
5601.07637,0.51137
5599.14763,0.51095
5597.21888,0.50983
5595.29014,0.50913
5593.36139,0.50894
5591.43265,0.50874
5589.50390,0.50917
5587.57516,0.51065
5585.64641,0.51167
5583.71766,0.51126
5581.78892,0.51036
5579.86017,0.50981
5577.93143,0.50975
5576.00268,0.51033
5574.07394,0.51112
5572.14519,0.51093
5570.21645,0.51010
5568.28770,0.51012
5566.35896,0.51084
5564.43021,0.51102
5562.50147,0.51037
5560.57272,0.51019
5558.64398,0.51167
5556.71523,0.51380
5554.78648,0.51476
5552.85774,0.51482
5550.92899,0.51512
5549.00025,0.51529
5547.07150,0.51487
5545.14276,0.51448
5543.21401,0.51466
5541.28527,0.51496
5539.35652,0.51508
5537.42778,0.51573
5535.49903,0.51652
5533.57029,0.51623
5531.64154,0.51529
5529.71280,0.51496
5527.78405,0.51532
5525.85531,0.51548
5523.92656,0.51465
5521.99781,0.51311
5520.06907,0.51241
5518.14032,0.51281
5516.21158,0.51292
5514.28283,0.51270
5512.35409,0.51275
5510.42534,0.51315
5508.49660,0.51412
5506.56785,0.51536
5504.63911,0.51614
5502.71036,0.51618
5500.78162,0.51576
5498.85287,0.51558
5496.92413,0.51596
5494.99538,0.51643
5493.06664,0.51652
5491.13789,0.51638
5489.20914,0.51655
5487.28040,0.51706
5485.35165,0.51736
5483.42291,0.51728
5481.49416,0.51717
5479.56542,0.51726
5477.63667,0.51753
5475.70793,0.51756
5473.77918,0.51738
5471.85044,0.51771
5469.92169,0.51848
5467.99295,0.51876
5466.06420,0.51836
5464.13546,0.51795
5462.20671,0.51825
5460.27796,0.51952
5458.34922,0.52066
5456.42047,0.52095
5454.49173,0.52140
5452.56298,0.52192
5450.63424,0.52187
5448.70549,0.52211
5446.77675,0.52294
5444.84800,0.52348
5442.91926,0.52339
5440.99051,0.52338
5439.06177,0.52415
5437.13302,0.52511
5435.20428,0.52562
5433.27553,0.52624
5431.34679,0.52763
5429.41804,0.52943
5427.48929,0.53015
5425.56055,0.52931
5423.63180,0.52854
5421.70306,0.52872
5419.77431,0.52905
5417.84557,0.52929
5415.91682,0.52986
5413.98808,0.53059
5412.05933,0.53102
5410.13059,0.53115
5408.20184,0.53116
5406.27310,0.53099
5404.34435,0.53119
5402.41561,0.53219
5400.48686,0.53293
5398.55811,0.53294
5396.62937,0.53290
5394.70062,0.53299
5392.77188,0.53312
5390.84313,0.53325
5388.91439,0.53345
5386.98564,0.53366
5385.05690,0.53355
5383.12815,0.53364
5381.19941,0.53435
5379.27066,0.53477
5377.34192,0.53466
5375.41317,0.53479
5373.48443,0.53513
5371.55568,0.53537
5369.62694,0.53536
5367.69819,0.53508
5365.76944,0.53467
5363.84070,0.53424
5361.91195,0.53412
5359.98321,0.53406
5358.05446,0.53374
5356.12572,0.53377
5354.19697,0.53414
5352.26823,0.53401
5350.33948,0.53357
5348.41074,0.53374
5346.48199,0.53431
5344.55325,0.53418
5342.62450,0.53307
5340.69576,0.53159
5338.76701,0.53040
5336.83827,0.52970
5334.90952,0.52917
5332.98077,0.52861
5331.05203,0.52827
5329.12328,0.52804
5327.19454,0.52724
5325.26579,0.52589
5323.33705,0.52428
5321.40830,0.52244
5319.47956,0.52073
5317.55081,0.51921
5315.62207,0.51744
5313.69332,0.51587
5311.76458,0.51536
5309.83583,0.51494
5307.90709,0.51347
5305.97834,0.51165
5304.04959,0.50986
5302.12085,0.50770
5300.19210,0.50544
5298.26336,0.50327
5296.33461,0.50055
5294.40587,0.49749
5292.47712,0.49519
5290.54838,0.49319
5288.61963,0.49029
5286.69089,0.48690
5284.76214,0.48391
5282.83340,0.48103
5280.90465,0.47788
5278.97591,0.47489
5277.04716,0.47174
5275.11842,0.46773
5273.18967,0.46339
5271.26092,0.45944
5269.33218,0.45631
5267.40343,0.45401
5265.47469,0.45162
5263.54594,0.44880
5261.61720,0.44603
5259.68845,0.44295
5257.75971,0.43926
5255.83096,0.43546
5253.90222,0.43183
5251.97347,0.42860
5250.04473,0.42618
5248.11598,0.42449
5246.18724,0.42303
5244.25849,0.42114
5242.32975,0.41849
5240.40100,0.41541
5238.47225,0.41250
5236.54351,0.41044
5234.61476,0.40905
5232.68602,0.40760
5230.75727,0.40642
5228.82853,0.40578
5226.89978,0.40460
5224.97104,0.40250
5223.04229,0.40107
5221.11355,0.40056
5219.18480,0.39914
5217.25606,0.39699
5215.32731,0.39584
5213.39857,0.39540
5211.46982,0.39507
5209.54107,0.39552
5207.61233,0.39636
5205.68358,0.39648
5203.75484,0.39600
5201.82609,0.39525
5199.89735,0.39442
5197.96860,0.39408
5196.03986,0.39424
5194.11111,0.39437
5192.18237,0.39421
5190.25362,0.39392
5188.32488,0.39399
5186.39613,0.39477
5184.46739,0.39586
5182.53864,0.39668
5180.60990,0.39701
5178.68115,0.39713
5176.75240,0.39723
5174.82366,0.39735
5172.89491,0.39786
5170.96617,0.39898
5169.03742,0.40029
5167.10868,0.40108
5165.17993,0.40142
5163.25119,0.40214
5161.32244,0.40334
5159.39370,0.40445
5157.46495,0.40526
5155.53621,0.40590
5153.60746,0.40689
5151.67872,0.40844
5149.74997,0.41015
5147.82123,0.41139
5145.89248,0.41164
5143.96373,0.41140
5142.03499,0.41193
5140.10624,0.41347
5138.17750,0.41525
5136.24875,0.41660
5134.32001,0.41762
5132.39126,0.41871
5130.46252,0.41966
5128.53377,0.42074
5126.60503,0.42197
5124.67628,0.42284
5122.74754,0.42375
5120.81879,0.42480
5118.89005,0.42568
5116.96130,0.42692
5115.03255,0.42866
5113.10381,0.43002
5111.17506,0.43046
5109.24632,0.43075
5107.31757,0.43153
5105.38883,0.43248
5103.46008,0.43335
5101.53134,0.43387
5099.60259,0.43378
5097.67385,0.43379
5095.74510,0.43478
5093.81636,0.43630
5091.88761,0.43742
5089.95887,0.43792
5088.03012,0.43840
5086.10138,0.43956
5084.17263,0.44137
5082.24388,0.44316
5080.31514,0.44408
5078.38639,0.44407
5076.45765,0.44396
5074.52890,0.44415
5072.60016,0.44487
5070.67141,0.44637
5068.74267,0.44805
5066.81392,0.44931
5064.88518,0.45042
5062.95643,0.45147
5061.02769,0.45180
5059.09894,0.45127
5057.17020,0.45114
5055.24145,0.45235
5053.31270,0.45405
5051.38396,0.45548
5049.45521,0.45688
5047.52647,0.45807
5045.59772,0.45834
5043.66898,0.45773
5041.74023,0.45735
5039.81149,0.45792
5037.88274,0.45916
5035.95400,0.46048
5034.02525,0.46122
5032.09651,0.46107
5030.16776,0.46049
5028.23902,0.45999
5026.31027,0.46000
5024.38153,0.46081
5022.45278,0.46182
5020.52403,0.46244
5018.59529,0.46293
5016.66654,0.46346
5014.73780,0.46366
5012.80905,0.46351
5010.88031,0.46339
5008.95156,0.46306
5007.02282,0.46248
5005.09407,0.46235
5003.16533,0.46248
5001.23658,0.46235
4999.30784,0.46212
4997.37909,0.46187
4995.45035,0.46158
4993.52160,0.46126
4991.59286,0.46081
4989.66411,0.46044
4987.73536,0.46018
4985.80662,0.45962
4983.87787,0.45885
4981.94913,0.45816
4980.02038,0.45757
4978.09164,0.45695
4976.16289,0.45597
4974.23415,0.45477
4972.30540,0.45378
4970.37666,0.45262
4968.44791,0.45094
4966.51917,0.44940
4964.59042,0.44835
4962.66168,0.44723
4960.73293,0.44554
4958.80418,0.44361
4956.87544,0.44214
4954.94669,0.44132
4953.01795,0.44078
4951.08920,0.43966
4949.16046,0.43768
4947.23171,0.43557
4945.30297,0.43360
4943.37422,0.43169
4941.44548,0.42996
4939.51673,0.42833
4937.58799,0.42671
4935.65924,0.42507
4933.73050,0.42316
4931.80175,0.42079
4929.87301,0.41821
4927.94426,0.41589
4926.01551,0.41427
4924.08677,0.41309
4922.15802,0.41163
4920.22928,0.41007
4918.30053,0.40891
4916.37179,0.40775
4914.44304,0.40602
4912.51430,0.40374
4910.58555,0.40120
4908.65681,0.39888
4906.72806,0.39723
4904.79932,0.39595
4902.87057,0.39418
4900.94183,0.39204
4899.01308,0.39028
4897.08434,0.38913
4895.15559,0.38822
4893.22684,0.38716
4891.29810,0.38568
4889.36935,0.38374
4887.44061,0.38162
4885.51186,0.38021
4883.58312,0.37964
4881.65437,0.37856
4879.72563,0.37649
4877.79688,0.37448
4875.86814,0.37319
4873.93939,0.37215
4872.01065,0.37066
4870.08190,0.36868
4868.15316,0.36677
4866.22441,0.36540
4864.29566,0.36439
4862.36692,0.36301
4860.43817,0.36124
4858.50943,0.35999
4856.58068,0.35925
4854.65194,0.35828
4852.72319,0.35702
4850.79445,0.35582
4848.86570,0.35484
4846.93696,0.35387
4845.00821,0.35275
4843.07947,0.35164
4841.15072,0.35052
4839.22198,0.34928
4837.29323,0.34813
4835.36449,0.34717
4833.43574,0.34644
4831.50699,0.34576
4829.57825,0.34476
4827.64950,0.34363
4825.72076,0.34255
4823.79201,0.34160
4821.86327,0.34073
4819.93452,0.33957
4818.00578,0.33848
4816.07703,0.33794
4814.14829,0.33757
4812.21954,0.33716
4810.29080,0.33667
4808.36205,0.33609
4806.43331,0.33578
4804.50456,0.33556
4802.57582,0.33487
4800.64707,0.33403
4798.71832,0.33352
4796.78958,0.33317
4794.86083,0.33282
4792.93209,0.33265
4791.00334,0.33247
4789.07460,0.33204
4787.14585,0.33164
4785.21711,0.33151
4783.28836,0.33148
4781.35962,0.33142
4779.43087,0.33121
4777.50213,0.33064
4775.57338,0.32994
4773.64464,0.32976
4771.71589,0.33007
4769.78714,0.33023
4767.85840,0.32999
4765.92965,0.32965
4764.00091,0.32958
4762.07216,0.32971
4760.14342,0.32969
4758.21467,0.32945
4756.28593,0.32917
4754.35718,0.32892
4752.42844,0.32898
4750.49969,0.32955
4748.57095,0.33024
4746.64220,0.33045
4744.71346,0.33024
4742.78471,0.33030
4740.85597,0.33075
4738.92722,0.33112
4736.99847,0.33125
4735.06973,0.33116
4733.14098,0.33107
4731.21224,0.33125
4729.28349,0.33145
4727.35475,0.33148
4725.42600,0.33163
4723.49726,0.33204
4721.56851,0.33256
4719.63977,0.33316
4717.71102,0.33368
4715.78228,0.33393
4713.85353,0.33417
4711.92479,0.33436
4709.99604,0.33413
4708.06729,0.33376
4706.13855,0.33375
4704.20980,0.33422
4702.28106,0.33480
4700.35231,0.33505
4698.42357,0.33532
4696.49482,0.33601
4694.56608,0.33672
4692.63733,0.33739
4690.70859,0.33841
4688.77984,0.33946
4686.85110,0.34012
4684.92235,0.34066
4682.99361,0.34124
4681.06486,0.34164
4679.13612,0.34205
4677.20737,0.34269
4675.27862,0.34331
4673.34988,0.34390
4671.42113,0.34451
4669.49239,0.34501
4667.56364,0.34557
4665.63490,0.34632
4663.70615,0.34721
4661.77741,0.34832
4659.84866,0.34948
4657.91992,0.35059
4655.99117,0.35172
4654.06243,0.35259
4652.13368,0.35324
4650.20494,0.35394
4648.27619,0.35475
4646.34745,0.35547
4644.41870,0.35605
4642.48995,0.35693
4640.56121,0.35802
4638.63246,0.35849
4636.70372,0.35832
4634.77497,0.35828
4632.84623,0.35909
4630.91748,0.36060
4628.98874,0.36169
4627.05999,0.36181
4625.13125,0.36183
4623.20250,0.36263
4621.27376,0.36393
4619.34501,0.36509
4617.41627,0.36601
4615.48752,0.36705
4613.55877,0.36814
4611.63003,0.36887
4609.70128,0.36922
4607.77254,0.36941
4605.84379,0.36976
4603.91505,0.37054
4601.98630,0.37148
4600.05756,0.37240
4598.12881,0.37321
4596.20007,0.37369
4594.27132,0.37384
4592.34258,0.37391
4590.41383,0.37426
4588.48509,0.37508
4586.55634,0.37586
4584.62760,0.37623
4582.69885,0.37670
4580.77010,0.37749
4578.84136,0.37823
4576.91261,0.37884
4574.98387,0.37929
4573.05512,0.37960
4571.12638,0.37977
4569.19763,0.37979
4567.26889,0.37996
4565.34014,0.38061
4563.41140,0.38167
4561.48265,0.38245
4559.55391,0.38235
4557.62516,0.38202
4555.69642,0.38221
4553.76767,0.38248
4551.83893,0.38249
4549.91018,0.38267
4547.98143,0.38359
4546.05269,0.38515
4544.12394,0.38621
4542.19520,0.38619
4540.26645,0.38578
4538.33771,0.38560
4536.40896,0.38586
4534.48022,0.38641
4532.55147,0.38691
4530.62273,0.38736
4528.69398,0.38767
4526.76524,0.38777
4524.83649,0.38774
4522.90775,0.38754
4520.97900,0.38726
4519.05025,0.38731
4517.12151,0.38752
4515.19276,0.38722
4513.26402,0.38656
4511.33527,0.38627
4509.40653,0.38625
4507.47778,0.38583
4505.54904,0.38509
4503.62029,0.38454
4501.69155,0.38412
4499.76280,0.38362
4497.83406,0.38281
4495.90531,0.38145
4493.97657,0.37993
4492.04782,0.37846
4490.11908,0.37688
4488.19033,0.37537
4486.26158,0.37399
4484.33284,0.37242
4482.40409,0.37072
4480.47535,0.36919
4478.54660,0.36764
4476.61786,0.36566
4474.68911,0.36333
4472.76037,0.36103
4470.83162,0.35895
4468.90288,0.35674
4466.97413,0.35398
4465.04539,0.35092
4463.11664,0.34816
4461.18790,0.34591
4459.25915,0.34374
4457.33041,0.34135
4455.40166,0.33904
4453.47291,0.33698
4451.54417,0.33479
4449.61542,0.33242
4447.68668,0.33018
4445.75793,0.32798
4443.82919,0.32550
4441.90044,0.32294
4439.97170,0.32068
4438.04295,0.31878
4436.11421,0.31704
4434.18546,0.31524
4432.25672,0.31352
4430.32797,0.31194
4428.39923,0.31021
4426.47048,0.30853
4424.54173,0.30729
4422.61299,0.30612
4420.68424,0.30471
4418.75550,0.30326
4416.82675,0.30192
4414.89801,0.30046
4412.96926,0.29900
4411.04052,0.29805
4409.11177,0.29751
4407.18303,0.29685
4405.25428,0.29608
4403.32554,0.29536
4401.39679,0.29468
4399.46805,0.29434
4397.53930,0.29461
4395.61056,0.29525
4393.68181,0.29591
4391.75306,0.29639
4389.82432,0.29677
4387.89557,0.29717
4385.96683,0.29759
4384.03808,0.29803
4382.10934,0.29857
4380.18059,0.29914
4378.25185,0.29987
4376.32310,0.30099
4374.39436,0.30227
4372.46561,0.30319
4370.53687,0.30375
4368.60812,0.30420
4366.67938,0.30487
4364.75063,0.30577
4362.82189,0.30636
4360.89314,0.30639
4358.96439,0.30645
4357.03565,0.30677
4355.10690,0.30682
4353.17816,0.30638
4351.24941,0.30574
4349.32067,0.30527
4347.39192,0.30511
4345.46318,0.30497
4343.53443,0.30455
4341.60569,0.30395
4339.67694,0.30309
4337.74820,0.30202
4335.81945,0.30112
4333.89071,0.30034
4331.96196,0.29948
4330.03321,0.29864
4328.10447,0.29787
4326.17572,0.29716
4324.24698,0.29650
4322.31823,0.29588
4320.38949,0.29557
4318.46074,0.29566
4316.53200,0.29551
4314.60325,0.29492
4312.67451,0.29453
4310.74576,0.29434
4308.81702,0.29380
4306.88827,0.29287
4304.95953,0.29198
4303.03078,0.29156
4301.10204,0.29138
4299.17329,0.29101
4297.24454,0.29040
4295.31580,0.28980
4293.38705,0.28936
4291.45831,0.28908
4289.52956,0.28874
4287.60082,0.28813
4285.67207,0.28747
4283.74333,0.28710
4281.81458,0.28713
4279.88584,0.28734
4277.95709,0.28750
4276.02835,0.28769
4274.09960,0.28801
4272.17086,0.28811
4270.24211,0.28810
4268.31336,0.28844
4266.38462,0.28894
4264.45587,0.28916
4262.52713,0.28926
4260.59838,0.28954
4258.66964,0.28994
4256.74089,0.29021
4254.81215,0.29052
4252.88340,0.29096
4250.95466,0.29118
4249.02591,0.29114
4247.09717,0.29126
4245.16842,0.29165
4243.23968,0.29200
4241.31093,0.29211
4239.38219,0.29219
4237.45344,0.29231
4235.52469,0.29244
4233.59595,0.29265
4231.66720,0.29280
4229.73846,0.29298
4227.80971,0.29357
4225.88097,0.29432
4223.95222,0.29452
4222.02348,0.29426
4220.09473,0.29426
4218.16599,0.29451
4216.23724,0.29462
4214.30850,0.29469
4212.37975,0.29485
4210.45101,0.29491
4208.52226,0.29506
4206.59352,0.29543
4204.66477,0.29562
4202.73602,0.29570
4200.80728,0.29605
4198.87853,0.29640
4196.94979,0.29653
4195.02104,0.29674
4193.09230,0.29709
4191.16355,0.29725
4189.23481,0.29710
4187.30606,0.29698
4185.37732,0.29701
4183.44857,0.29685
4181.51983,0.29686
4179.59108,0.29752
4177.66234,0.29825
4175.73359,0.29861
4173.80484,0.29891
4171.87610,0.29945
4169.94735,0.30020
4168.01861,0.30098
4166.08986,0.30167
4164.16112,0.30202
4162.23237,0.30180
4160.30363,0.30123
4158.37488,0.30075
4156.44614,0.30065
4154.51739,0.30083
4152.58865,0.30098
4150.65990,0.30101
4148.73116,0.30078
4146.80241,0.30016
4144.87367,0.29942
4142.94492,0.29880
4141.01617,0.29828
4139.08743,0.29777
4137.15868,0.29711
4135.22994,0.29631
4133.30119,0.29553
4131.37245,0.29473
4129.44370,0.29383
4127.51496,0.29299
4125.58621,0.29219
4123.65747,0.29105
4121.72872,0.28958
4119.79998,0.28833
4117.87123,0.28741
4115.94249,0.28656
4114.01374,0.28554
4112.08500,0.28424
4110.15625,0.28278
4108.22750,0.28136
4106.29876,0.28011
4104.37001,0.27919
4102.44127,0.27836
4100.51252,0.27721
4098.58378,0.27580
4096.65503,0.27429
4094.72629,0.27264
4092.79754,0.27076
4090.86880,0.26893
4088.94005,0.26756
4087.01131,0.26654
4085.08256,0.26542
4083.15382,0.26394
4081.22507,0.26217
4079.29632,0.26045
4077.36758,0.25902
4075.43883,0.25782
4073.51009,0.25665
4071.58134,0.25539
4069.65260,0.25397
4067.72385,0.25237
4065.79511,0.25067
4063.86636,0.24902
4061.93762,0.24752
4060.00887,0.24630
4058.08013,0.24514
4056.15138,0.24375
4054.22264,0.24235
4052.29389,0.24109
4050.36515,0.23988
4048.43640,0.23882
4046.50765,0.23786
4044.57891,0.23682
4042.65016,0.23574
4040.72142,0.23485
4038.79267,0.23408
4036.86393,0.23321
4034.93518,0.23219
4033.00644,0.23114
4031.07769,0.23034
4029.14895,0.22995
4027.22020,0.22969
4025.29146,0.22925
4023.36271,0.22867
4021.43397,0.22818
4019.50522,0.22815
4017.57648,0.22865
4015.64773,0.22913
4013.71898,0.22945
4011.79024,0.22979
4009.86149,0.22986
4007.93275,0.22967
4006.00400,0.22979
4004.07526,0.23033
4002.14651,0.23085
4000.21777,0.23101
3998.28902,0.23100
3996.36028,0.23129
3994.43153,0.23186
3992.50279,0.23243
3990.57404,0.23282
3988.64530,0.23317
3986.71655,0.23359
3984.78780,0.23395
3982.85906,0.23425
3980.93031,0.23455
3979.00157,0.23493
3977.07282,0.23560
3975.14408,0.23645
3973.21533,0.23709
3971.28659,0.23741
3969.35784,0.23762
3967.42910,0.23808
3965.50035,0.23904
3963.57161,0.24016
3961.64286,0.24100
3959.71412,0.24168
3957.78537,0.24251
3955.85663,0.24353
3953.92788,0.24435
3951.99913,0.24492
3950.07039,0.24555
3948.14164,0.24627
3946.21290,0.24691
3944.28415,0.24748
3942.35541,0.24810
3940.42666,0.24883
3938.49792,0.24961
3936.56917,0.25038
3934.64043,0.25107
3932.71168,0.25188
3930.78294,0.25285
3928.85419,0.25378
3926.92545,0.25469
3924.99670,0.25566
3923.06795,0.25652
3921.13921,0.25708
3919.21046,0.25741
3917.28172,0.25787
3915.35297,0.25871
3913.42423,0.25966
3911.49548,0.26038
3909.56674,0.26105
3907.63799,0.26208
3905.70925,0.26337
3903.78050,0.26440
3901.85176,0.26499
3899.92301,0.26531
3897.99427,0.26557
3896.06552,0.26602
3894.13678,0.26668
3892.20803,0.26740
3890.27928,0.26817
3888.35054,0.26896
3886.42179,0.26966
3884.49305,0.27022
3882.56430,0.27079
3880.63556,0.27127
3878.70681,0.27149
3876.77807,0.27167
3874.84932,0.27215
3872.92058,0.27301
3870.99183,0.27407
3869.06309,0.27516
3867.13434,0.27613
3865.20560,0.27702
3863.27685,0.27793
3861.34811,0.27894
3859.41936,0.28018
3857.49061,0.28148
3855.56187,0.28250
3853.63312,0.28290
3851.70438,0.28306
3849.77563,0.28384
3847.84689,0.28508
3845.91814,0.28616
3843.98940,0.28685
3842.06065,0.28732
3840.13191,0.28767
3838.20316,0.28800
3836.27442,0.28844
3834.34567,0.28890
3832.41693,0.28935
3830.48818,0.28975
3828.55943,0.29005
3826.63069,0.29035
3824.70194,0.29080
3822.77320,0.29121
3820.84445,0.29140
3818.91571,0.29159
3816.98696,0.29165
3815.05822,0.29145
3813.12947,0.29145
3811.20073,0.29172
3809.27198,0.29190
3807.34324,0.29198
3805.41449,0.29210
3803.48575,0.29222
3801.55700,0.29222
3799.62826,0.29200
3797.69951,0.29186
3795.77076,0.29189
3793.84202,0.29184
3791.91327,0.29174
3789.98453,0.29182
3788.05578,0.29190
3786.12704,0.29170
3784.19829,0.29154
3782.26955,0.29162
3780.34080,0.29147
3778.41206,0.29077
3776.48331,0.29007
3774.55457,0.29003
3772.62582,0.29038
3770.69708,0.29038
3768.76833,0.28974
3766.83959,0.28889
3764.91084,0.28829
3762.98209,0.28790
3761.05335,0.28750
3759.12460,0.28677
3757.19586,0.28581
3755.26711,0.28528
3753.33837,0.28533
3751.40962,0.28517
3749.48088,0.28421
3747.55213,0.28332
3745.62339,0.28270
3743.69464,0.28171
3741.76590,0.28057
3739.83715,0.27980
3737.90841,0.27919
3735.97966,0.27829
3734.05091,0.27721
3732.12217,0.27595
3730.19342,0.27438
3728.26468,0.27288
3726.33593,0.27145
3724.40719,0.26984
3722.47844,0.26815
3720.54970,0.26659
3718.62095,0.26512
3716.69221,0.26338
3714.76346,0.26128
3712.83472,0.25900
3710.90597,0.25662
3708.97723,0.25413
3707.04848,0.25173
3705.11974,0.24954
3703.19099,0.24689
3701.26224,0.24341
3699.33350,0.23997
3697.40475,0.23695
3695.47601,0.23385
3693.54726,0.23064
3691.61852,0.22724
3689.68977,0.22274
3687.76103,0.21728
3685.83228,0.21248
3683.90354,0.20849
3681.97479,0.20441
3680.04605,0.20009
3678.11730,0.19558
3676.18856,0.19012
3674.25981,0.18424
3672.33107,0.17908
3670.40232,0.17372
3668.47357,0.16817
3666.54483,0.16342
3664.61608,0.15899
3662.68734,0.15451
3660.75859,0.15007
3658.82985,0.14564
3656.90110,0.14107
3654.97236,0.13669
3653.04361,0.13315
3651.11487,0.13003
3649.18612,0.12636
3647.25738,0.12235
3645.32863,0.11885
3643.39989,0.11585
3641.47114,0.11294
3639.54239,0.11000
3637.61365,0.10710
3635.68490,0.10429
3633.75616,0.10168
3631.82741,0.09933
3629.89867,0.09673
3627.96992,0.09383
3626.04118,0.09147
3624.11243,0.08951
3622.18369,0.08748
3620.25494,0.08538
3618.32620,0.08332
3616.39745,0.08139
3614.46871,0.07951
3612.53996,0.07766
3610.61122,0.07583
3608.68247,0.07376
3606.75372,0.07153
3604.82498,0.06961
3602.89623,0.06818
3600.96749,0.06702
3599.03874,0.06576
3597.11000,0.06424
3595.18125,0.06259
3593.25251,0.06101
3591.32376,0.05964
3589.39502,0.05814
3587.46627,0.05645
3585.53753,0.05530
3583.60878,0.05479
3581.68004,0.05430
3579.75129,0.05342
3577.82254,0.05212
3575.89380,0.05081
3573.96505,0.04977
3572.03631,0.04875
3570.10756,0.04773
3568.17882,0.04701
3566.25007,0.04658
3564.32133,0.04626
3562.39258,0.04581
3560.46384,0.04523
3558.53509,0.04475
3556.60635,0.04425
3554.67760,0.04328
3552.74886,0.04227
3550.82011,0.04192
3548.89137,0.04182
3546.96262,0.04140
3545.03387,0.04078
3543.10513,0.03998
3541.17638,0.03923
3539.24764,0.03888
3537.31889,0.03892
3535.39015,0.03905
3533.46140,0.03896
3531.53266,0.03853
3529.60391,0.03777
3527.67517,0.03695
3525.74642,0.03652
3523.81768,0.03642
3521.88893,0.03625
3519.96019,0.03601
3518.03144,0.03575
3516.10270,0.03525
3514.17395,0.03462
3512.24520,0.03418
3510.31646,0.03404
3508.38771,0.03420
3506.45897,0.03435
3504.53022,0.03417
3502.60148,0.03377
3500.67273,0.03348
3498.74399,0.03330
3496.81524,0.03300
3494.88650,0.03265
3492.95775,0.03257
3491.02901,0.03264
3489.10026,0.03242
3487.17152,0.03195
3485.24277,0.03179
3483.31402,0.03187
3481.38528,0.03183
3479.45653,0.03163
3477.52779,0.03136
3475.59904,0.03117
3473.67030,0.03097
3471.74155,0.03075
3469.81281,0.03075
3467.88406,0.03093
3465.95532,0.03098
3464.02657,0.03092
3462.09783,0.03086
3460.16908,0.03066
3458.24034,0.03039
3456.31159,0.03019
3454.38285,0.02998
3452.45410,0.02988
3450.52535,0.02999
3448.59661,0.03013
3446.66786,0.03007
3444.73912,0.02983
3442.81037,0.02972
3440.88163,0.02996
3438.95288,0.03012
3437.02414,0.02988
3435.09539,0.02970
3433.16665,0.02982
3431.23790,0.02992
3429.30916,0.02995
3427.38041,0.02994
3425.45167,0.02985
3423.52292,0.02986
3421.59418,0.03003
3419.66543,0.03012
3417.73668,0.03003
3415.80794,0.02984
3413.87919,0.02958
3411.95045,0.02944
3410.02170,0.02951
3408.09296,0.02964
3406.16421,0.02992
3404.23547,0.03043
3402.30672,0.03072
3400.37798,0.03051
3398.44923,0.03025
3396.52049,0.03036
3394.59174,0.03060
3392.66300,0.03083
3390.73425,0.03112
3388.80550,0.03124
3386.87676,0.03110
3384.94801,0.03093
3383.01927,0.03070
3381.09052,0.03018
3379.16178,0.02972
3377.23303,0.02969
3375.30429,0.02992
3373.37554,0.03021
3371.44680,0.03044
3369.51805,0.03043
3367.58931,0.03028
3365.66056,0.03027
3363.73182,0.03048
3361.80307,0.03085
3359.87433,0.03128
3357.94558,0.03145
3356.01683,0.03130
3354.08809,0.03121
3352.15934,0.03130
3350.23060,0.03134
3348.30185,0.03132
3346.37311,0.03128
3344.44436,0.03120
3342.51562,0.03129
3340.58687,0.03167
3338.65813,0.03205
3336.72938,0.03230
3334.80064,0.03254
3332.87189,0.03286
3330.94315,0.03314
3329.01440,0.03311
3327.08566,0.03295
3325.15691,0.03307
3323.22816,0.03325
3321.29942,0.03347
3319.37067,0.03384
3317.44193,0.03391
3315.51318,0.03372
3313.58444,0.03388
3311.65569,0.03430
3309.72695,0.03450
3307.79820,0.03440
3305.86946,0.03429
3303.94071,0.03449
3302.01197,0.03491
3300.08322,0.03517
3298.15448,0.03515
3296.22573,0.03508
3294.29698,0.03519
3292.36824,0.03540
3290.43949,0.03556
3288.51075,0.03569
3286.58200,0.03597
3284.65326,0.03643
3282.72451,0.03663
3280.79577,0.03642
3278.86702,0.03640
3276.93828,0.03694
3275.00953,0.03765
3273.08079,0.03800
3271.15204,0.03806
3269.22330,0.03818
3267.29455,0.03839
3265.36581,0.03860
3263.43706,0.03899
3261.50831,0.03959
3259.57957,0.03998
3257.65082,0.04002
3255.72208,0.04011
3253.79333,0.04062
3251.86459,0.04145
3249.93584,0.04213
3248.00710,0.04223
3246.07835,0.04207
3244.14961,0.04225
3242.22086,0.04273
3240.29212,0.04304
3238.36337,0.04308
3236.43463,0.04340
3234.50588,0.04428
3232.57713,0.04505
3230.64839,0.04526
3228.71964,0.04542
3226.79090,0.04569
3224.86215,0.04576
3222.93341,0.04591
3221.00466,0.04638
3219.07592,0.04683
3217.14717,0.04718
3215.21843,0.04761
3213.28968,0.04810
3211.36094,0.04861
3209.43219,0.04911
3207.50345,0.04956
3205.57470,0.04994
3203.64596,0.05042
3201.71721,0.05105
3199.78846,0.05156
3197.85972,0.05179
3195.93097,0.05186
3194.00223,0.05215
3192.07348,0.05298
3190.14474,0.05420
3188.21599,0.05510
3186.28725,0.05550
3184.35850,0.05583
3182.42976,0.05621
3180.50101,0.05655
3178.57227,0.05675
3176.64352,0.05695
3174.71478,0.05731
3172.78603,0.05787
3170.85729,0.05850
3168.92854,0.05906
3166.99979,0.05971
3165.07105,0.06043
3163.14230,0.06096
3161.21356,0.06147
3159.28481,0.06202
3157.35607,0.06258
3155.42732,0.06323
3153.49858,0.06393
3151.56983,0.06453
3149.64109,0.06504
3147.71234,0.06552
3145.78360,0.06592
3143.85485,0.06618
3141.92611,0.06644
3139.99736,0.06694
3138.06861,0.06764
3136.13987,0.06834
3134.21112,0.06887
3132.28238,0.06913
3130.35363,0.06926
3128.42489,0.06966
3126.49614,0.07031
3124.56740,0.07084
3122.63865,0.07131
3120.70991,0.07188
3118.78116,0.07244
3116.85242,0.07300
3114.92367,0.07361
3112.99493,0.07419
3111.06618,0.07484
3109.13744,0.07550
3107.20869,0.07598
3105.27994,0.07639
3103.35120,0.07681
3101.42245,0.07721
3099.49371,0.07757
3097.56496,0.07804
3095.63622,0.07882
3093.70747,0.07949
3091.77873,0.07959
3089.84998,0.07960
3087.92124,0.08004
3085.99249,0.08060
3084.06375,0.08084
3082.13500,0.08113
3080.20626,0.08176
3078.27751,0.08239
3076.34877,0.08291
3074.42002,0.08337
3072.49127,0.08369
3070.56253,0.08402
3068.63378,0.08459
3066.70504,0.08519
3064.77629,0.08548
3062.84755,0.08573
3060.91880,0.08630
3058.99006,0.08703
3057.06131,0.08775
3055.13257,0.08833
3053.20382,0.08865
3051.27508,0.08882
3049.34633,0.08908
3047.41759,0.08940
3045.48884,0.08958
3043.56009,0.08965
3041.63135,0.08980
3039.70260,0.09005
3037.77386,0.09031
3035.84511,0.09028
3033.91637,0.08996
3031.98762,0.08976
3030.05888,0.08987
3028.13013,0.08997
3026.20139,0.08976
3024.27264,0.08923
3022.34390,0.08852
3020.41515,0.08768
3018.48641,0.08686
3016.55766,0.08640
3014.62892,0.08604
3012.70017,0.08518
3010.77142,0.08400
3008.84268,0.08308
3006.91393,0.08249
3004.98519,0.08188
3003.05644,0.08105
3001.12770,0.08013
2999.19895,0.07937
2997.27021,0.07862
2995.34146,0.07761
2993.41272,0.07649
2991.48397,0.07544
2989.55523,0.07443
2987.62648,0.07340
2985.69774,0.07222
2983.76899,0.07078
2981.84025,0.06922
2979.91150,0.06776
2977.98275,0.06625
2976.05401,0.06463
2974.12526,0.06298
2972.19652,0.06130
2970.26777,0.05983
2968.33903,0.05887
2966.41028,0.05815
2964.48154,0.05730
2962.55279,0.05645
2960.62405,0.05579
2958.69530,0.05513
2956.76656,0.05441
2954.83781,0.05381
2952.90907,0.05324
2950.98032,0.05249
2949.05157,0.05162
2947.12283,0.05099
2945.19408,0.05059
2943.26534,0.05023
2941.33659,0.05004
2939.40785,0.05004
2937.47910,0.04987
2935.55036,0.04954
2933.62161,0.04940
2931.69287,0.04940
2929.76412,0.04937
2927.83538,0.04924
2925.90663,0.04909
2923.97789,0.04909
2922.04914,0.04908
2920.12040,0.04884
2918.19165,0.04855
2916.26290,0.04843
2914.33416,0.04845
2912.40541,0.04855
2910.47667,0.04872
2908.54792,0.04891
2906.61918,0.04917
2904.69043,0.04953
2902.76169,0.04975
2900.83294,0.04974
2898.90420,0.04988
2896.97545,0.05049
2895.04671,0.05127
2893.11796,0.05183
2891.18922,0.05216
2889.26047,0.05246
2887.33172,0.05269
2885.40298,0.05281
2883.47423,0.05301
2881.54549,0.05343
2879.61674,0.05390
2877.68800,0.05416
2875.75925,0.05426
2873.83051,0.05442
2871.90176,0.05480
2869.97302,0.05548
2868.04427,0.05624
2866.11553,0.05670
2864.18678,0.05693
2862.25804,0.05724
2860.32929,0.05761
2858.40055,0.05780
2856.47180,0.05795
2854.54305,0.05821
2852.61431,0.05854
2850.68556,0.05921
2848.75682,0.06039
2846.82807,0.06176
2844.89933,0.06302
2842.97058,0.06425
2841.04184,0.06572
2839.11309,0.06749
2837.18435,0.06941
2835.25560,0.07132
2833.32686,0.07320
2831.39811,0.07505
2829.46937,0.07693
2827.54062,0.07896
2825.61188,0.08096
2823.68313,0.08269
2821.75438,0.08412
2819.82564,0.08524
2817.89689,0.08621
2815.96815,0.08752
2814.03940,0.08926
2812.11066,0.09080
2810.18191,0.09188
2808.25317,0.09278
2806.32442,0.09372
2804.39568,0.09467
2802.46693,0.09562
2800.53819,0.09659
2798.60944,0.09751
2796.68070,0.09822
2794.75195,0.09891
2792.82320,0.09976
2790.89446,0.10045
2788.96571,0.10085
2787.03697,0.10119
2785.10822,0.10155
2783.17948,0.10183
2781.25073,0.10218
2779.32199,0.10273
2777.39324,0.10333
2775.46450,0.10383
2773.53575,0.10432
2771.60701,0.10477
2769.67826,0.10508
2767.74952,0.10537
2765.82077,0.10579
2763.89203,0.10612
2761.96328,0.10616
2760.03453,0.10615
2758.10579,0.10635
2756.17704,0.10686
2754.24830,0.10751
2752.31955,0.10786
2750.39081,0.10781
2748.46206,0.10770
2746.53332,0.10765
2744.60457,0.10767
2742.67583,0.10777
2740.74708,0.10798
2738.81834,0.10825
2736.88959,0.10853
2734.96085,0.10864
2733.03210,0.10860
2731.10336,0.10877
2729.17461,0.10928
2727.24586,0.10983
2725.31712,0.11027
2723.38837,0.11066
2721.45963,0.11100
2719.53088,0.11130
2717.60214,0.11181
2715.67339,0.11254
2713.74465,0.11328
2711.81590,0.11403
2709.88716,0.11490
2707.95841,0.11576
2706.02967,0.11643
2704.10092,0.11692
2702.17218,0.11728
2700.24343,0.11768
2698.31468,0.11847
2696.38594,0.11954
2694.45719,0.12043
2692.52845,0.12105
2690.59970,0.12152
2688.67096,0.12207
2686.74221,0.12283
2684.81347,0.12349
2682.88472,0.12393
2680.95598,0.12439
2679.02723,0.12498
2677.09849,0.12550
2675.16974,0.12587
2673.24100,0.12624
2671.31225,0.12664
2669.38351,0.12695
2667.45476,0.12725
2665.52601,0.12767
2663.59727,0.12816
2661.66852,0.12864
2659.73978,0.12895
2657.81103,0.12901
2655.88229,0.12904
2653.95354,0.12934
2652.02480,0.12997
2650.09605,0.13067
2648.16731,0.13106
2646.23856,0.13126
2644.30982,0.13169
2642.38107,0.13221
2640.45233,0.13262
2638.52358,0.13305
2636.59484,0.13354
2634.66609,0.13401
2632.73734,0.13453
2630.80860,0.13512
2628.87985,0.13570
2626.95111,0.13617
2625.02236,0.13663
2623.09362,0.13726
2621.16487,0.13800
2619.23613,0.13859
2617.30738,0.13903
2615.37864,0.13943
2613.44989,0.13975
2611.52115,0.14009
2609.59240,0.14058
2607.66366,0.14111
2605.73491,0.14159
2603.80616,0.14191
2601.87742,0.14216
2599.94867,0.14265
2598.01993,0.14335
2596.09118,0.14387
2594.16244,0.14416
2592.23369,0.14442
2590.30495,0.14472
2588.37620,0.14506
2586.44746,0.14543
2584.51871,0.14578
2582.58997,0.14616
2580.66122,0.14653
2578.73248,0.14673
2576.80373,0.14677
2574.87499,0.14678
2572.94624,0.14685
2571.01749,0.14691
2569.08875,0.14690
2567.16000,0.14682
2565.23126,0.14679
2563.30251,0.14686
2561.37377,0.14696
2559.44502,0.14706
2557.51628,0.14710
2555.58753,0.14714
2553.65879,0.14733
2551.73004,0.14757
2549.80130,0.14762
2547.87255,0.14753
2545.94381,0.14755
2544.01506,0.14771
2542.08631,0.14791
2540.15757,0.14818
2538.22882,0.14853
2536.30008,0.14881
2534.37133,0.14889
2532.44259,0.14893
2530.51384,0.14924
2528.58510,0.14984
2526.65635,0.15038
2524.72761,0.15061
2522.79886,0.15077
2520.87012,0.15105
2518.94137,0.15138
2517.01263,0.15167
2515.08388,0.15195
2513.15514,0.15231
2511.22639,0.15287
2509.29764,0.15343
2507.36890,0.15390
2505.44015,0.15452
2503.51141,0.15523
2501.58266,0.15587
2499.65392,0.15649
2497.72517,0.15716
2495.79643,0.15782
2493.86768,0.15840
2491.93894,0.15892
2490.01019,0.15948
2488.08145,0.15992
2486.15270,0.16020
2484.22396,0.16061
2482.29521,0.16121
2480.36647,0.16176
2478.43772,0.16217
2476.50897,0.16263
2474.58023,0.16326
2472.65148,0.16389
2470.72274,0.16437
2468.79399,0.16473
2466.86525,0.16510
2464.93650,0.16559
2463.00776,0.16616
2461.07901,0.16670
2459.15027,0.16711
2457.22152,0.16741
2455.29278,0.16774
2453.36403,0.16824
2451.43529,0.16885
2449.50654,0.16940
2447.57779,0.16996
2445.64905,0.17064
2443.72030,0.17126
2441.79156,0.17184
2439.86281,0.17255
2437.93407,0.17336
2436.00532,0.17417
2434.07658,0.17493
2432.14783,0.17564
2430.21909,0.17628
2428.29034,0.17680
2426.36160,0.17733
2424.43285,0.17802
2422.50411,0.17883
2420.57536,0.17970
2418.64662,0.18061
2416.71787,0.18150
2414.78912,0.18231
2412.86038,0.18310
2410.93163,0.18394
2409.00289,0.18482
2407.07414,0.18555
2405.14540,0.18620
2403.21665,0.18696
2401.28791,0.18776
2399.35916,0.18847
2397.43042,0.18907
2395.50167,0.18956
2393.57293,0.19000
2391.64418,0.19043
2389.71544,0.19095
2387.78669,0.19159
2385.85795,0.19230
2383.92920,0.19297
2382.00045,0.19366
2380.07171,0.19444
2378.14296,0.19512
2376.21422,0.19563
2374.28547,0.19610
2372.35673,0.19658
2370.42798,0.19709
2368.49924,0.19765
2366.57049,0.19834
2364.64175,0.19909
2362.71300,0.19971
2360.78426,0.20022
2358.85551,0.20076
2356.92677,0.20142
2354.99802,0.20223
2353.06927,0.20294
2351.14053,0.20346
2349.21178,0.20396
2347.28304,0.20443
2345.35429,0.20486
2343.42555,0.20539
2341.49680,0.20606
2339.56806,0.20668
2337.63931,0.20712
2335.71057,0.20755
2333.78182,0.20805
2331.85308,0.20847
2329.92433,0.20876
2327.99559,0.20909
2326.06684,0.20947
2324.13810,0.20977
2322.20935,0.21005
2320.28060,0.21031
2318.35186,0.21036
2316.42311,0.21035
2314.49437,0.21038
2312.56562,0.21027
2310.63688,0.21007
2308.70813,0.20989
2306.77939,0.20969
2304.85064,0.20949
2302.92190,0.20929
2300.99315,0.20916
2299.06441,0.20912
2297.13566,0.20901
2295.20692,0.20875
2293.27817,0.20853
2291.34943,0.20841
2289.42068,0.20836
2287.49193,0.20834
2285.56319,0.20835
2283.63444,0.20828
2281.70570,0.20803
2279.77695,0.20772
2277.84821,0.20745
2275.91946,0.20713
2273.99072,0.20668
2272.06197,0.20615
2270.13323,0.20560
2268.20448,0.20504
2266.27574,0.20439
2264.34699,0.20363
2262.41825,0.20280
2260.48950,0.20200
2258.56075,0.20134
2256.63201,0.20076
2254.70326,0.20020
2252.77452,0.19969
2250.84577,0.19921
2248.91703,0.19875
2246.98828,0.19832
2245.05954,0.19793
2243.13079,0.19760
2241.20205,0.19736
2239.27330,0.19736
2237.34456,0.19755
2235.41581,0.19769
2233.48707,0.19776
2231.55832,0.19791
2229.62958,0.19807
2227.70083,0.19823
2225.77208,0.19853
2223.84334,0.19886
2221.91459,0.19903
2219.98585,0.19915
2218.05710,0.19937
2216.12836,0.19967
2214.19961,0.19994
2212.27087,0.20003
2210.34212,0.20001
2208.41338,0.20006
2206.48463,0.20004
2204.55589,0.19978
2202.62714,0.19939
2200.69840,0.19905
2198.76965,0.19869
2196.84090,0.19830
2194.91216,0.19772
2192.98341,0.19679
2191.05467,0.19578
2189.12592,0.19483
2187.19718,0.19382
2185.26843,0.19268
2183.33969,0.19155
2181.41094,0.19055
2179.48220,0.18965
2177.55345,0.18858
2175.62471,0.18724
2173.69596,0.18583
2171.76722,0.18457
2169.83847,0.18349
2167.90973,0.18256
2165.98098,0.18167
2164.05223,0.18063
2162.12349,0.17950
2160.19474,0.17854
2158.26600,0.17780
2156.33725,0.17725
2154.40851,0.17686
2152.47976,0.17647
2150.55102,0.17600
2148.62227,0.17546
2146.69353,0.17491
2144.76478,0.17459
2142.83604,0.17449
2140.90729,0.17436
2138.97855,0.17411
2137.04980,0.17375
2135.12106,0.17340
2133.19231,0.17334
2131.26356,0.17355
2129.33482,0.17375
2127.40607,0.17395
2125.47733,0.17422
2123.54858,0.17452
2121.61984,0.17488
2119.69109,0.17523
2117.76235,0.17553
2115.83360,0.17576
2113.90486,0.17602
2111.97611,0.17637
2110.04737,0.17679
2108.11862,0.17725
2106.18988,0.17771
2104.26113,0.17817
2102.33238,0.17875
2100.40364,0.17933
2098.47489,0.17975
2096.54615,0.18015
2094.61740,0.18075
2092.68866,0.18137
2090.75991,0.18177
2088.83117,0.18205
2086.90242,0.18240
2084.97368,0.18274
2083.04493,0.18289
2081.11619,0.18293
2079.18744,0.18299
2077.25870,0.18303
2075.32995,0.18302
2073.40121,0.18293
2071.47246,0.18268
2069.54371,0.18243
2067.61497,0.18248
2065.68622,0.18280
2063.75748,0.18311
2061.82873,0.18327
2059.89999,0.18344
2057.97124,0.18364
2056.04250,0.18381
2054.11375,0.18399
2052.18501,0.18429
2050.25626,0.18470
2048.32752,0.18519
2046.39877,0.18571
2044.47003,0.18619
2042.54128,0.18655
2040.61254,0.18691
2038.68379,0.18744
2036.75504,0.18817
2034.82630,0.18897
2032.89755,0.18973
2030.96881,0.19051
2029.04006,0.19145
2027.11132,0.19254
2025.18257,0.19365
2023.25383,0.19475
2021.32508,0.19582
2019.39634,0.19685
2017.46759,0.19794
2015.53885,0.19901
2013.61010,0.19992
2011.68136,0.20074
2009.75261,0.20156
2007.82386,0.20241
2005.89512,0.20328
2003.96637,0.20402
2002.03763,0.20445
2000.10888,0.20484
1998.18014,0.20549
1996.25139,0.20619
1994.32265,0.20677
1992.39390,0.20731
1990.46516,0.20779
1988.53641,0.20817
1986.60767,0.20853
1984.67892,0.20881
1982.75018,0.20897
1980.82143,0.20904
1978.89269,0.20899
1976.96394,0.20891
1975.03519,0.20887
1973.10645,0.20877
1971.17770,0.20854
1969.24896,0.20819
1967.32021,0.20774
1965.39147,0.20739
1963.46272,0.20723
1961.53398,0.20713
1959.60523,0.20699
1957.67649,0.20694
1955.74774,0.20704
1953.81900,0.20711
1951.89025,0.20720
1949.96151,0.20757
1948.03276,0.20825
1946.10402,0.20902
1944.17527,0.20984
1942.24652,0.21073
1940.31778,0.21175
1938.38903,0.21279
1936.46029,0.21374
1934.53154,0.21473
1932.60280,0.21582
1930.67405,0.21693
1928.74531,0.21794
1926.81656,0.21879
1924.88782,0.21959
1922.95907,0.22053
1921.03033,0.22150
1919.10158,0.22230
1917.17284,0.22292
1915.24409,0.22346
1913.31534,0.22398
1911.38660,0.22452
1909.45785,0.22507
1907.52911,0.22548
1905.60036,0.22572
1903.67162,0.22590
1901.74287,0.22607
1899.81413,0.22624
1897.88538,0.22648
1895.95664,0.22673
1894.02789,0.22687
1892.09915,0.22696
1890.17040,0.22695
1888.24166,0.22672
1886.31291,0.22647
1884.38417,0.22646
1882.45542,0.22652
1880.52667,0.22639
1878.59793,0.22607
1876.66918,0.22563
1874.74044,0.22512
1872.81169,0.22461
1870.88295,0.22413
1868.95420,0.22351
1867.02546,0.22264
1865.09671,0.22172
1863.16797,0.22090
1861.23922,0.22012
1859.31048,0.21926
1857.38173,0.21827
1855.45299,0.21711
1853.52424,0.21581
1851.59549,0.21457
1849.66675,0.21360
1847.73800,0.21276
1845.80926,0.21167
1843.88051,0.21017
1841.95177,0.20865
1840.02302,0.20735
1838.09428,0.20591
1836.16553,0.20423
1834.23679,0.20265
1832.30804,0.20124
1830.37930,0.19971
1828.45055,0.19801
1826.52181,0.19637
1824.59306,0.19461
1822.66432,0.19266
1820.73557,0.19072
1818.80682,0.18869
1816.87808,0.18650
1814.94933,0.18432
1813.02059,0.18211
1811.09184,0.17959
1809.16310,0.17679
1807.23435,0.17393
1805.30561,0.17110
1803.37686,0.16812
1801.44812,0.16480
1799.51937,0.16137
1797.59063,0.15815
1795.66188,0.15510
1793.73314,0.15183
1791.80439,0.14800
1789.87565,0.14408
1787.94690,0.14030
1786.01815,0.13614
1784.08941,0.13153
1782.16066,0.12678
1780.23192,0.12161
1778.30317,0.11608
1776.37443,0.11068
1774.44568,0.10503
1772.51694,0.09829
1770.58819,0.09118
1768.65945,0.08477
1766.73070,0.07902
1764.80196,0.07421
1762.87321,0.07007
1760.94447,0.06635
1759.01572,0.06339
1757.08697,0.06105
1755.15823,0.05935
1753.22948,0.05828
1751.30074,0.05716
1749.37199,0.05583
1747.44325,0.05491
1745.51450,0.05445
1743.58576,0.05419
1741.65701,0.05410
1739.72827,0.05405
1737.79952,0.05407
1735.87078,0.05429
1733.94203,0.05467
1732.01329,0.05510
1730.08454,0.05558
1728.15580,0.05622
1726.22705,0.05703
1724.29830,0.05799
1722.36956,0.05906
1720.44081,0.06022
1718.51207,0.06165
1716.58332,0.06345
1714.65458,0.06533
1712.72583,0.06700
1710.79709,0.06849
1708.86834,0.07001
1706.93960,0.07167
1705.01085,0.07335
1703.08211,0.07487
1701.15336,0.07624
1699.22462,0.07740
1697.29587,0.07820
1695.36713,0.07890
1693.43838,0.07962
1691.50963,0.08019
1689.58089,0.08061
1687.65214,0.08095
1685.72340,0.08096
1683.79465,0.08042
1681.86591,0.07969
1679.93716,0.07899
1678.00842,0.07826
1676.07967,0.07739
1674.15093,0.07637
1672.22218,0.07545
1670.29344,0.07456
1668.36469,0.07345
1666.43595,0.07257
1664.50720,0.07211
1662.57845,0.07172
1660.64971,0.07121
1658.72096,0.07076
1656.79222,0.07053
1654.86347,0.07040
1652.93473,0.06994
1651.00598,0.06946
1649.07724,0.06937
1647.14849,0.06922
1645.21975,0.06892
1643.29100,0.06887
1641.36226,0.06899
1639.43351,0.06910
1637.50477,0.06912
1635.57602,0.06891
1633.64728,0.06837
1631.71853,0.06782
1629.78978,0.06735
1627.86104,0.06687
1625.93229,0.06637
1624.00355,0.06564
1622.07480,0.06466
1620.14606,0.06373
1618.21731,0.06277
1616.28857,0.06146
1614.35982,0.06006
1612.43108,0.05872
1610.50233,0.05734
1608.57359,0.05611
1606.64484,0.05515
1604.71610,0.05439
1602.78735,0.05369
1600.85861,0.05285
1598.92986,0.05175
1597.00111,0.05056
1595.07237,0.04970
1593.14362,0.04969
1591.21488,0.05064
1589.28613,0.05232
1587.35739,0.05463
1585.42864,0.05754
1583.49990,0.06087
1581.57115,0.06444
1579.64241,0.06807
1577.71366,0.07191
1575.78492,0.07615
1573.85617,0.08007
1571.92743,0.08348
1569.99868,0.08678
1568.06993,0.08966
1566.14119,0.09197
1564.21244,0.09399
1562.28370,0.09568
1560.35495,0.09712
1558.42621,0.09822
1556.49746,0.09878
1554.56872,0.09913
1552.63997,0.09926
1550.71123,0.09906
1548.78248,0.09867
1546.85374,0.09823
1544.92499,0.09784
1542.99625,0.09750
1541.06750,0.09696
1539.13876,0.09592
1537.21001,0.09492
1535.28126,0.09399
1533.35252,0.09255
1531.42377,0.09061
1529.49503,0.08845
1527.56628,0.08569
1525.63754,0.08215
1523.70879,0.07803
1521.78005,0.07311
1519.85130,0.06807
1517.92256,0.06394
1515.99381,0.06065
1514.06507,0.05832
1512.13632,0.05665
1510.20758,0.05518
1508.27883,0.05381
1506.35008,0.05238
1504.42134,0.05145
1502.49259,0.05161
1500.56385,0.05272
1498.63510,0.05438
1496.70636,0.05608
1494.77761,0.05761
1492.84887,0.05895
1490.92012,0.05997
1488.99138,0.06046
1487.06263,0.06026
1485.13389,0.05948
1483.20514,0.05831
1481.27640,0.05661
1479.34765,0.05440
1477.41891,0.05190
1475.49016,0.04922
1473.56141,0.04633
1471.63267,0.04352
1469.70392,0.04153
1467.77518,0.04032
1465.84643,0.03942
1463.91769,0.03893
1461.98894,0.03894
1460.06020,0.03915
1458.13145,0.03936
1456.20271,0.03960
1454.27396,0.03985
1452.34522,0.04013
1450.41647,0.04051
1448.48773,0.04094
1446.55898,0.04119
1444.63024,0.04119
1442.70149,0.04107
1440.77274,0.04089
1438.84400,0.04067
1436.91525,0.04031
1434.98651,0.03979
1433.05776,0.03934
1431.12902,0.03900
1429.20027,0.03882
1427.27153,0.03893
1425.34278,0.03936
1423.41404,0.03999
1421.48529,0.04070
1419.55655,0.04155
1417.62780,0.04248
1415.69906,0.04330
1413.77031,0.04400
1411.84156,0.04466
1409.91282,0.04522
1407.98407,0.04564
1406.05533,0.04585
1404.12658,0.04585
1402.19784,0.04570
1400.26909,0.04537
1398.34035,0.04488
1396.41160,0.04427
1394.48286,0.04334
1392.55411,0.04207
1390.62537,0.04080
1388.69662,0.03962
1386.76788,0.03836
1384.83913,0.03711
1382.91039,0.03604
1380.98164,0.03517
1379.05289,0.03447
1377.12415,0.03384
1375.19540,0.03339
1373.26666,0.03329
1371.33791,0.03342
1369.40917,0.03365
1367.48042,0.03392
1365.55168,0.03418
1363.62293,0.03442
1361.69419,0.03474
1359.76544,0.03507
1357.83670,0.03529
1355.90795,0.03535
1353.97921,0.03536
1352.05046,0.03540
1350.12172,0.03534
1348.19297,0.03515
1346.26422,0.03491
1344.33548,0.03454
1342.40673,0.03410
1340.47799,0.03371
1338.54924,0.03340
1336.62050,0.03325
1334.69175,0.03333
1332.76301,0.03343
1330.83426,0.03346
1328.90552,0.03350
1326.97677,0.03358
1325.04803,0.03373
1323.11928,0.03389
1321.19054,0.03380
1319.26179,0.03371
1317.33304,0.03410
1315.40430,0.03479
1313.47555,0.03529
1311.54681,0.03563
1309.61806,0.03622
1307.68932,0.03698
1305.76057,0.03762
1303.83183,0.03809
1301.90308,0.03828
1299.97434,0.03814
1298.04559,0.03791
1296.11685,0.03765
1294.18810,0.03720
1292.25936,0.03665
1290.33061,0.03613
1288.40187,0.03554
1286.47312,0.03484
1284.54437,0.03422
1282.61563,0.03373
1280.68688,0.03341
1278.75814,0.03319
1276.82939,0.03291
1274.90065,0.03241
1272.97190,0.03178
1271.04316,0.03122
1269.11441,0.03092
1267.18567,0.03087
1265.25692,0.03090
1263.32818,0.03081
1261.39943,0.03052
1259.47069,0.03009
1257.54194,0.02975
1255.61320,0.02962
1253.68445,0.02950
1251.75570,0.02926
1249.82696,0.02908
1247.89821,0.02914
1245.96947,0.02952
1244.04072,0.02998
1242.11198,0.03009
1240.18323,0.02998
1238.25449,0.03010
1236.32574,0.03038
1234.39700,0.03058
1232.46825,0.03081
1230.53951,0.03121
1228.61076,0.03182
1226.68202,0.03240
1224.75327,0.03280
1222.82452,0.03320
1220.89578,0.03366
1218.96703,0.03405
1217.03829,0.03445
1215.10954,0.03487
1213.18080,0.03510
1211.25205,0.03513
1209.32331,0.03512
1207.39456,0.03512
1205.46582,0.03519
1203.53707,0.03538
1201.60833,0.03556
1199.67958,0.03552
1197.75084,0.03546
1195.82209,0.03559
1193.89335,0.03578
1191.96460,0.03576
1190.03585,0.03532
1188.10711,0.03446
1186.17836,0.03349
1184.24962,0.03271
1182.32087,0.03210
1180.39213,0.03137
1178.46338,0.03054
1176.53464,0.02986
1174.60589,0.02931
1172.67715,0.02885
1170.74840,0.02856
1168.81966,0.02860
1166.89091,0.02908
1164.96217,0.02985
1163.03342,0.03054
1161.10467,0.03098
1159.17593,0.03111
1157.24718,0.03107
1155.31844,0.03113
1153.38969,0.03117
1151.46095,0.03099
1149.53220,0.03068
1147.60346,0.03022
1145.67471,0.02954
1143.74597,0.02878
1141.81722,0.02805
1139.88848,0.02733
1137.95973,0.02667
1136.03099,0.02627
1134.10224,0.02622
1132.17350,0.02628
1130.24475,0.02628
1128.31600,0.02657
1126.38726,0.02730
1124.45851,0.02798
1122.52977,0.02839
1120.60102,0.02865
1118.67228,0.02888
1116.74353,0.02925
1114.81479,0.02961
1112.88604,0.02992
1110.95730,0.03046
1109.02855,0.03105
1107.09981,0.03130
1105.17106,0.03131
1103.24232,0.03128
1101.31357,0.03113
1099.38483,0.03090
1097.45608,0.03081
1095.52733,0.03078
1093.59859,0.03075
1091.66984,0.03081
1089.74110,0.03089
1087.81235,0.03094
1085.88361,0.03106
1083.95486,0.03131
1082.02612,0.03160
1080.09737,0.03164
1078.16863,0.03160
1076.23988,0.03202
1074.31114,0.03297
1072.38239,0.03402
1070.45365,0.03497
1068.52490,0.03604
1066.59615,0.03742
1064.66741,0.03912
1062.73866,0.04095
1060.80992,0.04238
1058.88117,0.04327
1056.95243,0.04365
1055.02368,0.04344
1053.09494,0.04308
1051.16619,0.04304
1049.23745,0.04311
1047.30870,0.04316
1045.37996,0.04318
1043.45121,0.04308
1041.52247,0.04318
1039.59372,0.04390
1037.66498,0.04495
1035.73623,0.04570
1033.80748,0.04617
1031.87874,0.04666
1029.94999,0.04716
1028.02125,0.04741
1026.09250,0.04722
1024.16376,0.04678
1022.23501,0.04661
1020.30627,0.04684
1018.37752,0.04734
1016.44878,0.04811
1014.52003,0.04879
1012.59129,0.04915
1010.66254,0.04950
1008.73380,0.04979
1006.80505,0.04962
1004.87631,0.04920
1002.94756,0.04915
1001.01881,0.04969
999.09007,0.05044
997.16132,0.05105
995.23258,0.05137
993.30383,0.05142
991.37509,0.05148
989.44634,0.05193
987.51760,0.05295
985.58885,0.05446
983.66011,0.05626
981.73136,0.05809
979.80262,0.05977
977.87387,0.06119
975.94513,0.06237
974.01638,0.06331
972.08763,0.06414
970.15889,0.06510
968.23014,0.06637
966.30140,0.06787
964.37265,0.06952
962.44391,0.07135
960.51516,0.07347
958.58642,0.07586
956.65767,0.07809
954.72893,0.07983
952.80018,0.08143
950.87144,0.08330
948.94269,0.08525
947.01395,0.08663
945.08520,0.08741
943.15646,0.08800
941.22771,0.08838
939.29896,0.08833
937.37022,0.08792
935.44147,0.08721
933.51273,0.08644
931.58398,0.08596
929.65524,0.08587
927.72649,0.08576
925.79775,0.08533
923.86900,0.08474
921.94026,0.08430
920.01151,0.08395
918.08277,0.08341
916.15402,0.08277
914.22528,0.08221
912.29653,0.08155
910.36779,0.08066
908.43904,0.07957
906.51029,0.07825
904.58155,0.07678
902.65280,0.07548
900.72406,0.07475
898.79531,0.07475
896.86657,0.07542
894.93782,0.07654
893.00908,0.07795
891.08033,0.07979
889.15159,0.08197
887.22284,0.08387
885.29410,0.08524
883.36535,0.08642
881.43661,0.08767
879.50786,0.08868
877.57911,0.08933
875.65037,0.08995
873.72162,0.09085
871.79288,0.09181
869.86413,0.09260
867.93539,0.09333
866.00664,0.09422
864.07790,0.09528
862.14915,0.09627
860.22041,0.09676
858.29166,0.09667
856.36292,0.09623
854.43417,0.09566
852.50543,0.09509
850.57668,0.09454
848.64794,0.09401
846.71919,0.09352
844.79044,0.09306
842.86170,0.09289
840.93295,0.09302
839.00421,0.09289
837.07546,0.09236
835.14672,0.09176
833.21797,0.09144
831.28923,0.09166
829.36048,0.09238
827.43174,0.09321
825.50299,0.09372
823.57425,0.09403
821.64550,0.09446
819.71676,0.09509
817.78801,0.09588
815.85926,0.09652
813.93052,0.09673
812.00177,0.09671
810.07303,0.09659
808.14428,0.09637
806.21554,0.09613
804.28679,0.09601
802.35805,0.09584
800.42930,0.09539
798.50056,0.09499
796.57181,0.09493
794.64307,0.09485
792.71432,0.09456
790.78558,0.09422
788.85683,0.09377
786.92809,0.09327
784.99934,0.09296
783.07059,0.09252
781.14185,0.09146
779.21310,0.08997
777.28436,0.08847
775.35561,0.08692
773.42687,0.08530
771.49812,0.08405
769.56938,0.08340
767.64063,0.08297
765.71189,0.08237
763.78314,0.08160
761.85440,0.08075
759.92565,0.07979
757.99691,0.07873
756.06816,0.07772
754.13942,0.07703
752.21067,0.07679
750.28192,0.07665
748.35318,0.07602
746.42443,0.07499
744.49569,0.07426
742.56694,0.07396
740.63820,0.07340
738.70945,0.07222
736.78071,0.07088
734.85196,0.07003
732.92322,0.06967
730.99447,0.06904
729.06573,0.06788
727.13698,0.06671
725.20824,0.06557
723.27949,0.06451
721.35074,0.06407
719.42200,0.06389
717.49325,0.06325
715.56451,0.06258
713.63576,0.06255
711.70702,0.06273
709.77827,0.06275
707.84953,0.06262
705.92078,0.06218
703.99204,0.06166
702.06329,0.06153
700.13455,0.06171
698.20580,0.06185
696.27706,0.06179
694.34831,0.06139
692.41957,0.06074
690.49082,0.06031
688.56207,0.06003
686.63333,0.05932
684.70458,0.05822
682.77584,0.05737
680.84709,0.05675
678.91835,0.05590
676.98960,0.05476
675.06086,0.05378
673.13211,0.05376
671.20337,0.05447
669.27462,0.05470
667.34588,0.05427
665.41713,0.05402
663.48839,0.05422
661.55964,0.05468
659.63090,0.05553
657.70215,0.05615
655.77340,0.05566
653.84466,0.05485
651.91591,0.05500
649.98717,0.05560
648.05842,0.05533
646.12968,0.05445
644.20093,0.05368
642.27219,0.05316
640.34344,0.05301
638.41470,0.05276
636.48595,0.05197
634.55721,0.05100
632.62846,0.05036
630.69972,0.05051
628.77097,0.05121
626.84222,0.05158
624.91348,0.05141
622.98473,0.05115
621.05599,0.05086
619.12724,0.05025
617.19850,0.04961
615.26975,0.04957
613.34101,0.05020
611.41226,0.05104
609.48352,0.05137
607.55477,0.05102
605.62603,0.05123
603.69728,0.05237
601.76854,0.05301
599.83979,0.05240
