7497.03301,0.65610
7495.10426,0.65844
7493.17552,0.65880
7491.24677,0.65726
7489.31803,0.65537
7487.38928,0.65360
7485.46054,0.65101
7483.53179,0.64894
7481.60305,0.64785
7479.67430,0.64609
7477.74556,0.64254
7475.81681,0.63915
7473.88807,0.63835
7471.95932,0.63648
7470.03057,0.62981
7468.10183,0.62550
7466.17308,0.63145
7464.24434,0.64129
7462.31559,0.64437
7460.38685,0.63978
7458.45810,0.63307
7456.52936,0.63182
7454.60061,0.63789
7452.67187,0.64305
7450.74312,0.64394
7448.81438,0.64619
7446.88563,0.64910
7444.95689,0.64678
7443.02814,0.64083
7441.09940,0.63670
7439.17065,0.63439
7437.24190,0.63154
7435.31316,0.62976
7433.38441,0.63175
7431.45567,0.63639
7429.52692,0.63841
7427.59818,0.63374
7425.66943,0.62708
7423.74069,0.62616
7421.81194,0.62906
7419.88320,0.62874
7417.95445,0.62530
7416.02571,0.62313
7414.09696,0.62371
7412.16822,0.62275
7410.23947,0.61689
7408.31073,0.61334
7406.38198,0.61696
7404.45323,0.62156
7402.52449,0.62194
7400.59574,0.61914
7398.66700,0.61592
7396.73825,0.61225
7394.80951,0.61023
7392.88076,0.61517
7390.95202,0.62341
7389.02327,0.62572
7387.09453,0.62128
7385.16578,0.61623
7383.23704,0.61504
7381.30829,0.61845
7379.37955,0.62377
7377.45080,0.62458
7375.52205,0.62141
7373.59331,0.62322
7371.66456,0.62836
7369.73582,0.62716
7367.80707,0.61990
7365.87833,0.61339
7363.94958,0.61208
7362.02084,0.61521
7360.09209,0.61688
7358.16335,0.61508
7356.23460,0.61459
7354.30586,0.61790
7352.37711,0.62259
7350.44837,0.62658
7348.51962,0.62671
7346.59088,0.62095
7344.66213,0.61574
7342.73338,0.61550
7340.80464,0.61547
7338.87589,0.61158
7336.94715,0.60391
7335.01840,0.59619
7333.08966,0.59343
7331.16091,0.59575
7329.23217,0.59879
7327.30342,0.59886
7325.37468,0.59805
7323.44593,0.60028
7321.51719,0.60342
7319.58844,0.60262
7317.65970,0.59770
7315.73095,0.59410
7313.80221,0.59658
7311.87346,0.60212
7309.94471,0.60371
7308.01597,0.60105
7306.08722,0.59993
7304.15848,0.60166
7302.22973,0.60190
7300.30099,0.59865
7298.37224,0.59475
7296.44350,0.59386
7294.51475,0.59699
7292.58601,0.60122
7290.65726,0.60134
7288.72852,0.59820
7286.79977,0.59938
7284.87103,0.60549
7282.94228,0.60940
7281.01353,0.60895
7279.08479,0.60713
7277.15604,0.60682
7275.22730,0.60953
7273.29855,0.61135
7271.36981,0.60745
7269.44106,0.60103
7267.51232,0.59599
7265.58357,0.59276
7263.65483,0.59317
7261.72608,0.59665
7259.79734,0.59988
7257.86859,0.60170
7255.93985,0.60292
7254.01110,0.60455
7252.08236,0.60534
7250.15361,0.60190
7248.22486,0.59450
7246.29612,0.58926
7244.36737,0.59088
7242.43863,0.59676
7240.50988,0.60094
7238.58114,0.60119
7236.65239,0.59917
7234.72365,0.59632
7232.79490,0.59433
7230.86616,0.59573
7228.93741,0.59931
7227.00867,0.60088
7225.07992,0.60067
7223.15118,0.60143
7221.22243,0.60097
7219.29369,0.59664
7217.36494,0.59280
7215.43619,0.59325
7213.50745,0.59486
7211.57870,0.59476
7209.64996,0.59218
7207.72121,0.58631
7205.79247,0.58088
7203.86372,0.58013
7201.93498,0.58124
7200.00623,0.58119
7198.07749,0.58129
7196.14874,0.58145
7194.22000,0.58065
7192.29125,0.58015
7190.36251,0.58095
7188.43376,0.58274
7186.50501,0.58566
7184.57627,0.58848
7182.64752,0.58853
7180.71878,0.58615
7178.79003,0.58356
7176.86129,0.58128
7174.93254,0.57927
7173.00380,0.57652
7171.07505,0.57240
7169.14631,0.57003
7167.21756,0.57206
7165.28882,0.57483
7163.36007,0.57432
7161.43133,0.57326
7159.50258,0.57432
7157.57384,0.57560
7155.64509,0.57650
7153.71634,0.57639
7151.78760,0.57322
7149.85885,0.57025
7147.93011,0.57042
7146.00136,0.56844
7144.07262,0.56210
7142.14387,0.55729
7140.21513,0.55765
7138.28638,0.56104
7136.35764,0.56328
7134.42889,0.56281
7132.50015,0.56048
7130.57140,0.55702
7128.64266,0.55273
7126.71391,0.54812
7124.78516,0.54724
7122.85642,0.55256
7120.92767,0.55722
7118.99893,0.55488
7117.07018,0.54932
7115.14144,0.54621
7113.21269,0.54437
7111.28395,0.54106
7109.35520,0.53914
7107.42646,0.54104
7105.49771,0.54375
7103.56897,0.54475
7101.64022,0.54304
7099.71148,0.53847
7097.78273,0.53434
7095.85399,0.53296
7093.92524,0.53287
7091.99649,0.53099
7090.06775,0.52633
7088.13900,0.52175
7086.21026,0.52027
7084.28151,0.52228
7082.35277,0.52591
7080.42402,0.52843
7078.49528,0.52815
7076.56653,0.52563
7074.63779,0.52214
7072.70904,0.51735
7070.78030,0.51207
7068.85155,0.50853
7066.92281,0.50814
7064.99406,0.51034
7063.06532,0.51145
7061.13657,0.50795
7059.20782,0.50033
7057.27908,0.49483
7055.35033,0.49694
7053.42159,0.50198
7051.49284,0.50206
7049.56410,0.49787
7047.63535,0.49555
7045.70661,0.49614
7043.77786,0.49458
7041.84912,0.49081
7039.92037,0.48986
7037.99163,0.49083
7036.06288,0.48928
7034.13414,0.48492
7032.20539,0.48089
7030.27664,0.48037
7028.34790,0.48230
7026.41915,0.48274
7024.49041,0.48144
7022.56166,0.48009
7020.63292,0.47828
7018.70417,0.47615
7016.77543,0.47487
7014.84668,0.47264
7012.91794,0.46758
7010.98919,0.46376
7009.06045,0.46392
7007.13170,0.46318
7005.20296,0.46083
7003.27421,0.46071
7001.34547,0.46104
6999.41672,0.45942
6997.48797,0.45698
6995.55923,0.45610
6993.63048,0.45761
6991.70174,0.45833
6989.77299,0.45643
6987.84425,0.45455
6985.91550,0.45499
6983.98676,0.45707
6982.05801,0.45869
6980.12927,0.45769
6978.20052,0.45358
6976.27178,0.44950
6974.34303,0.44925
6972.41429,0.45243
6970.48554,0.45440
6968.55680,0.45266
6966.62805,0.44997
6964.69930,0.44893
6962.77056,0.44929
6960.84181,0.44931
6958.91307,0.44822
6956.98432,0.44700
6955.05558,0.44625
6953.12683,0.44700
6951.19809,0.44977
6949.26934,0.45209
6947.34060,0.45233
6945.41185,0.45238
6943.48311,0.45293
6941.55436,0.45183
6939.62562,0.44888
6937.69687,0.44669
6935.76812,0.44656
6933.83938,0.44650
6931.91063,0.44472
6929.98189,0.44441
6928.05314,0.44849
6926.12440,0.45198
6924.19565,0.45062
6922.26691,0.44850
6920.33816,0.44794
6918.40942,0.44723
6916.48067,0.44690
6914.55193,0.44634
6912.62318,0.44473
6910.69444,0.44408
6908.76569,0.44410
6906.83695,0.44323
6904.90820,0.44304
6902.97945,0.44487
6901.05071,0.44708
6899.12196,0.44751
6897.19322,0.44596
6895.26447,0.44320
6893.33573,0.44125
6891.40698,0.44233
6889.47824,0.44418
6887.54949,0.44398
6885.62075,0.44312
6883.69200,0.44246
6881.76326,0.44076
6879.83451,0.43798
6877.90577,0.43632
6875.97702,0.43681
6874.04828,0.43836
6872.11953,0.44169
6870.19078,0.44712
6868.26204,0.45048
6866.33329,0.44866
6864.40455,0.44455
6862.47580,0.44210
6860.54706,0.44226
6858.61831,0.44409
6856.68957,0.44496
6854.76082,0.44317
6852.83208,0.44140
6850.90333,0.44209
6848.97459,0.44247
6847.04584,0.44188
6845.11710,0.44347
6843.18835,0.44556
6841.25960,0.44430
6839.33086,0.44072
6837.40211,0.43952
6835.47337,0.44219
6833.54462,0.44517
6831.61588,0.44570
6829.68713,0.44402
6827.75839,0.44252
6825.82964,0.44277
6823.90090,0.44346
6821.97215,0.44357
6820.04341,0.44413
6818.11466,0.44488
6816.18592,0.44339
6814.25717,0.44135
6812.32843,0.44184
6810.39968,0.44196
6808.47093,0.43986
6806.54219,0.43895
6804.61344,0.44048
6802.68470,0.44098
6800.75595,0.44053
6798.82721,0.44337
6796.89846,0.44791
6794.96972,0.44903
6793.04097,0.44643
6791.11223,0.44262
6789.18348,0.44021
6787.25474,0.44092
6785.32599,0.44314
6783.39725,0.44435
6781.46850,0.44354
6779.53975,0.44099
6777.61101,0.43969
6775.68226,0.44022
6773.75352,0.43974
6771.82477,0.43992
6769.89603,0.44269
6767.96728,0.44447
6766.03854,0.44336
6764.10979,0.44166
6762.18105,0.44031
6760.25230,0.43863
6758.32356,0.43809
6756.39481,0.44087
6754.46607,0.44467
6752.53732,0.44504
6750.60858,0.44234
6748.67983,0.43944
6746.75108,0.43746
6744.82234,0.43828
6742.89359,0.44168
6740.96485,0.44374
6739.03610,0.44391
6737.10736,0.44419
6735.17861,0.44488
6733.24987,0.44608
6731.32112,0.44673
6729.39238,0.44667
6727.46363,0.44710
6725.53489,0.44614
6723.60614,0.44309
6721.67740,0.44160
6719.74865,0.44382
6717.81991,0.44707
6715.89116,0.44729
6713.96241,0.44485
6712.03367,0.44459
6710.10492,0.44826
6708.17618,0.45059
6706.24743,0.44827
6704.31869,0.44544
6702.38994,0.44573
6700.46120,0.44786
6698.53245,0.44936
6696.60371,0.45015
6694.67496,0.45121
6692.74622,0.45097
6690.81747,0.44861
6688.88873,0.44806
6686.95998,0.45031
6685.03123,0.45023
6683.10249,0.44752
6681.17374,0.44692
6679.24500,0.44871
6677.31625,0.45051
6675.38751,0.45194
6673.45876,0.45316
6671.53002,0.45358
6669.60127,0.45289
6667.67253,0.45110
6665.74378,0.44918
6663.81504,0.44895
6661.88629,0.44988
6659.95755,0.45056
6658.02880,0.45156
6656.10006,0.45242
6654.17131,0.45125
6652.24256,0.44863
6650.31382,0.44663
6648.38507,0.44542
6646.45633,0.44476
6644.52758,0.44543
6642.59884,0.44780
6640.67009,0.45104
6638.74135,0.45273
6636.81260,0.45128
6634.88386,0.44928
6632.95511,0.44928
6631.02637,0.45063
6629.09762,0.45346
6627.16888,0.45725
6625.24013,0.45948
6623.31139,0.46036
6621.38264,0.46142
6619.45389,0.46167
6617.52515,0.46004
6615.59640,0.45846
6613.66766,0.45817
6611.73891,0.45794
6609.81017,0.45811
6607.88142,0.45844
6605.95268,0.45778
6604.02393,0.45813
6602.09519,0.45987
6600.16644,0.46051
6598.23770,0.46003
6596.30895,0.46014
6594.38021,0.46101
6592.45146,0.46068
6590.52271,0.45867
6588.59397,0.45858
6586.66522,0.46098
6584.73648,0.46222
6582.80773,0.46215
6580.87899,0.46208
6578.95024,0.46190
6577.02150,0.46242
6575.09275,0.46290
6573.16401,0.46143
6571.23526,0.45953
6569.30652,0.46052
6567.37777,0.46384
6565.44903,0.46644
6563.52028,0.46678
6561.59154,0.46580
6559.66279,0.46630
6557.73404,0.46868
6555.80530,0.46926
6553.87655,0.46671
6551.94781,0.46500
6550.01906,0.46709
6548.09032,0.46943
6546.16157,0.46867
6544.23283,0.46660
6542.30408,0.46468
6540.37534,0.46387
6538.44659,0.46587
6536.51785,0.46938
6534.58910,0.47170
6532.66036,0.47167
6530.73161,0.47008
6528.80287,0.46968
6526.87412,0.47133
6524.94537,0.47174
6523.01663,0.46954
6521.08788,0.46821
6519.15914,0.46937
6517.23039,0.47075
6515.30165,0.47063
6513.37290,0.46923
6511.44416,0.46811
6509.51541,0.46834
6507.58667,0.46911
6505.65792,0.46904
6503.72918,0.46835
6501.80043,0.46899
6499.87169,0.47126
6497.94294,0.47335
6496.01419,0.47358
6494.08545,0.47219
6492.15670,0.47166
6490.22796,0.47285
6488.29921,0.47384
6486.37047,0.47355
6484.44172,0.47338
6482.51298,0.47353
6480.58423,0.47212
6478.65549,0.46971
6476.72674,0.46808
6474.79800,0.46765
6472.86925,0.46744
6470.94051,0.46716
6469.01176,0.46963
6467.08302,0.47356
6465.15427,0.47383
6463.22552,0.47216
6461.29678,0.47295
6459.36803,0.47457
6457.43929,0.47378
6455.51054,0.47112
6453.58180,0.46957
6451.65305,0.47036
6449.72431,0.47200
6447.79556,0.47337
6445.86682,0.47415
6443.93807,0.47438
6442.00933,0.47552
6440.08058,0.47757
6438.15184,0.47761
6436.22309,0.47514
6434.29434,0.47275
6432.36560,0.47192
6430.43685,0.47289
6428.50811,0.47436
6426.57936,0.47446
6424.65062,0.47407
6422.72187,0.47597
6420.79313,0.48007
6418.86438,0.48155
6416.93564,0.47826
6415.00689,0.47538
6413.07815,0.47634
6411.14940,0.47809
6409.22066,0.47805
6407.29191,0.47711
6405.36317,0.47591
6403.43442,0.47564
6401.50567,0.47803
6399.57693,0.48105
6397.64818,0.48124
6395.71944,0.47901
6393.79069,0.47793
6391.86195,0.47874
6389.93320,0.47896
6388.00446,0.47801
6386.07571,0.47712
6384.14697,0.47676
6382.21822,0.47593
6380.28948,0.47445
6378.36073,0.47392
6376.43199,0.47459
6374.50324,0.47556
6372.57450,0.47649
6370.64575,0.47661
6368.71700,0.47587
6366.78826,0.47648
6364.85951,0.47918
6362.93077,0.48146
6361.00202,0.48227
6359.07328,0.48228
6357.14453,0.48120
6355.21579,0.47948
6353.28704,0.47856
6351.35830,0.47945
6349.42955,0.48152
6347.50081,0.48260
6345.57206,0.48247
6343.64332,0.48290
6341.71457,0.48404
6339.78582,0.48484
6337.85708,0.48452
6335.92833,0.48389
6333.99959,0.48467
6332.07084,0.48630
6330.14210,0.48598
6328.21335,0.48323
6326.28461,0.48203
6324.35586,0.48407
6322.42712,0.48604
6320.49837,0.48651
6318.56963,0.48667
6316.64088,0.48621
6314.71214,0.48527
6312.78339,0.48540
6310.85465,0.48644
6308.92590,0.48632
6306.99715,0.48512
6305.06841,0.48530
6303.13966,0.48692
6301.21092,0.48789
6299.28217,0.48835
6297.35343,0.48904
6295.42468,0.48958
6293.49594,0.49023
6291.56719,0.49104
6289.63845,0.49127
6287.70970,0.49036
6285.78096,0.48837
6283.85221,0.48674
6281.92347,0.48774
6279.99472,0.49080
6278.06598,0.49207
6276.13723,0.49061
6274.20848,0.48979
6272.27974,0.49125
6270.35099,0.49292
6268.42225,0.49299
6266.49350,0.49270
6264.56476,0.49378
6262.63601,0.49480
6260.70727,0.49498
6258.77852,0.49578
6256.84978,0.49652
6254.92103,0.49668
6252.99229,0.49767
6251.06354,0.49874
6249.13480,0.49846
6247.20605,0.49827
6245.27730,0.49969
6243.34856,0.50127
6241.41981,0.50138
6239.49107,0.50096
6237.56232,0.50168
6235.63358,0.50310
6233.70483,0.50480
6231.77609,0.50790
6229.84734,0.51019
6227.91860,0.50974
6225.98985,0.50886
6224.06111,0.50765
6222.13236,0.50645
6220.20362,0.50755
6218.27487,0.50968
6216.34613,0.51127
6214.41738,0.51239
6212.48863,0.51273
6210.55989,0.51265
6208.63114,0.51257
6206.70240,0.51297
6204.77365,0.51423
6202.84491,0.51590
6200.91616,0.51767
6198.98742,0.51877
6197.05867,0.51782
6195.12993,0.51579
6193.20118,0.51603
6191.27244,0.51891
6189.34369,0.52074
6187.41495,0.52038
6185.48620,0.52011
6183.55746,0.52097
6181.62871,0.52205
6179.69996,0.52211
6177.77122,0.52157
6175.84247,0.52172
6173.91373,0.52311
6171.98498,0.52528
6170.05624,0.52714
6168.12749,0.52852
6166.19875,0.52877
6164.27000,0.52681
6162.34126,0.52437
6160.41251,0.52416
6158.48377,0.52627
6156.55502,0.52879
6154.62628,0.53082
6152.69753,0.53255
6150.76878,0.53291
6148.84004,0.53095
6146.91129,0.52850
6144.98255,0.52846
6143.05380,0.53098
6141.12506,0.53332
6139.19631,0.53360
6137.26757,0.53288
6135.33882,0.53298
6133.41008,0.53320
6131.48133,0.53225
6129.55259,0.53164
6127.62384,0.53234
6125.69510,0.53273
6123.76635,0.53207
6121.83761,0.53186
6119.90886,0.53243
6117.98011,0.53214
6116.05137,0.53163
6114.12262,0.53261
6112.19388,0.53425
6110.26513,0.53574
6108.33639,0.53701
6106.40764,0.53763
6104.47890,0.53799
6102.55015,0.53831
6100.62141,0.53724
6098.69266,0.53531
6096.76392,0.53453
6094.83517,0.53403
6092.90643,0.53322
6090.97768,0.53374
6089.04893,0.53539
6087.12019,0.53661
6085.19144,0.53675
6083.26270,0.53590
6081.33395,0.53516
6079.40521,0.53527
6077.47646,0.53509
6075.54772,0.53496
6073.61897,0.53667
6071.69023,0.53813
6069.76148,0.53667
6067.83274,0.53456
6065.90399,0.53447
6063.97525,0.53593
6062.04650,0.53733
6060.11776,0.53765
6058.18901,0.53687
6056.26026,0.53518
6054.33152,0.53337
6052.40277,0.53332
6050.47403,0.53481
6048.54528,0.53556
6046.61654,0.53516
6044.68779,0.53487
6042.75905,0.53518
6040.83030,0.53593
6038.90156,0.53728
6036.97281,0.53843
6035.04407,0.53800
6033.11532,0.53637
6031.18658,0.53421
6029.25783,0.53135
6027.32909,0.52893
6025.40034,0.52876
6023.47159,0.53054
6021.54285,0.53221
6019.61410,0.53283
6017.68536,0.53282
6015.75661,0.53195
6013.82787,0.53012
6011.89912,0.52846
6009.97038,0.52726
6008.04163,0.52640
6006.11289,0.52667
6004.18414,0.52792
6002.25540,0.52831
6000.32665,0.52694
5998.39791,0.52555
5996.46916,0.52547
5994.54041,0.52523
5992.61167,0.52381
5990.68292,0.52296
5988.75418,0.52380
5986.82543,0.52467
5984.89669,0.52433
5982.96794,0.52381
5981.03920,0.52423
5979.11045,0.52501
5977.18171,0.52483
5975.25296,0.52375
5973.32422,0.52280
5971.39547,0.52212
5969.46673,0.52138
5967.53798,0.52095
5965.60924,0.52144
5963.68049,0.52289
5961.75174,0.52446
5959.82300,0.52521
5957.89425,0.52497
5955.96551,0.52415
5954.03676,0.52356
5952.10802,0.52325
5950.17927,0.52192
5948.25053,0.51965
5946.32178,0.51793
5944.39304,0.51714
5942.46429,0.51692
5940.53555,0.51769
5938.60680,0.51936
5936.67806,0.51949
5934.74931,0.51704
5932.82057,0.51512
5930.89182,0.51574
5928.96307,0.51661
5927.03433,0.51614
5925.10558,0.51647
5923.17684,0.51910
5921.24809,0.52158
5919.31935,0.52099
5917.39060,0.51822
5915.46186,0.51640
5913.53311,0.51663
5911.60437,0.51738
5909.67562,0.51659
5907.74688,0.51429
5905.81813,0.51283
5903.88939,0.51251
5901.96064,0.51242
5900.03189,0.51269
5898.10315,0.51193
5896.17440,0.51010
5894.24566,0.50989
5892.31691,0.51109
5890.38817,0.51114
5888.45942,0.50971
5886.53068,0.50842
5884.60193,0.50777
5882.67319,0.50697
5880.74444,0.50675
5878.81570,0.50769
5876.88695,0.50803
5874.95821,0.50736
5873.02946,0.50633
5871.10072,0.50452
5869.17197,0.50299
5867.24322,0.50312
5865.31448,0.50437
5863.38573,0.50587
5861.45699,0.50688
5859.52824,0.50690
5857.59950,0.50650
5855.67075,0.50651
5853.74201,0.50659
5851.81326,0.50623
5849.88452,0.50606
5847.95577,0.50585
5846.02703,0.50510
5844.09828,0.50477
5842.16954,0.50477
5840.24079,0.50427
5838.31205,0.50415
5836.38330,0.50431
5834.45455,0.50325
5832.52581,0.50151
5830.59706,0.50053
5828.66832,0.49946
5826.73957,0.49734
5824.81083,0.49568
5822.88208,0.49583
5820.95334,0.49701
5819.02459,0.49794
5817.09585,0.49757
5815.16710,0.49635
5813.23836,0.49593
5811.30961,0.49554
5809.38087,0.49411
5807.45212,0.49312
5805.52337,0.49324
5803.59463,0.49394
5801.66588,0.49488
5799.73714,0.49525
5797.80839,0.49466
5795.87965,0.49378
5793.95090,0.49368
5792.02216,0.49491
5790.09341,0.49667
5788.16467,0.49759
5786.23592,0.49734
5784.30718,0.49718
5782.37843,0.49791
5780.44969,0.49873
5778.52094,0.49925
5776.59220,0.49980
5774.66345,0.50058
5772.73470,0.50156
5770.80596,0.50228
5768.87721,0.50266
5766.94847,0.50287
5765.01972,0.50263
5763.09098,0.50284
5761.16223,0.50475
5759.23349,0.50687
5757.30474,0.50720
5755.37600,0.50625
5753.44725,0.50527
5751.51851,0.50459
5749.58976,0.50427
5747.66102,0.50457
5745.73227,0.50513
5743.80352,0.50497
5741.87478,0.50395
5739.94603,0.50352
5738.01729,0.50442
5736.08854,0.50564
5734.15980,0.50672
5732.23105,0.50784
5730.30231,0.50862
5728.37356,0.50903
5726.44482,0.50899
5724.51607,0.50828
5722.58733,0.50765
5720.65858,0.50781
5718.72984,0.50823
5716.80109,0.50808
5714.87235,0.50680
5712.94360,0.50476
5711.01485,0.50378
5709.08611,0.50492
5707.15736,0.50693
5705.22862,0.50777
5703.29987,0.50720
5701.37113,0.50646
5699.44238,0.50576
5697.51364,0.50521
5695.58489,0.50536
5693.65615,0.50536
5691.72740,0.50436
5689.79866,0.50357
5687.86991,0.50430
5685.94117,0.50542
5684.01242,0.50509
5682.08368,0.50386
5680.15493,0.50334
5678.22618,0.50348
5676.29744,0.50306
5674.36869,0.50231
5672.43995,0.50266
5670.51120,0.50413
5668.58246,0.50517
5666.65371,0.50500
5664.72497,0.50432
5662.79622,0.50350
5660.86748,0.50257
5658.93873,0.50188
5657.00999,0.50153
5655.08124,0.50184
5653.15250,0.50278
5651.22375,0.50353
5649.29500,0.50398
5647.36626,0.50514
5645.43751,0.50671
5643.50877,0.50678
5641.58002,0.50522
5639.65128,0.50420
5637.72253,0.50440
5635.79379,0.50445
5633.86504,0.50400
5631.93630,0.50407
5630.00755,0.50491
5628.07881,0.50558
5626.15006,0.50531
5624.22132,0.50451
5622.29257,0.50367
5620.36383,0.50273
5618.43508,0.50189
5616.50633,0.50130
5614.57759,0.50092
5612.64884,0.50094
5610.72010,0.50160
5608.79135,0.50250
5606.86261,0.50277
5604.93386,0.50243
5603.00512,0.50224
5601.07637,0.50253
5599.14763,0.50307
5597.21888,0.50352
5595.29014,0.50376
5593.36139,0.50373
5591.43265,0.50375
5589.50390,0.50404
5587.57516,0.50399
5585.64641,0.50339
5583.71766,0.50308
5581.78892,0.50365
5579.86017,0.50460
5577.93143,0.50511
5576.00268,0.50522
5574.07394,0.50501
5572.14519,0.50405
5570.21645,0.50339
5568.28770,0.50420
5566.35896,0.50545
5564.43021,0.50625
5562.50147,0.50681
5560.57272,0.50706
5558.64398,0.50699
5556.71523,0.50703
5554.78648,0.50749
5552.85774,0.50778
5550.92899,0.50767
5549.00025,0.50810
5547.07150,0.50873
5545.14276,0.50845
5543.21401,0.50776
5541.28527,0.50741
5539.35652,0.50726
5537.42778,0.50719
5535.49903,0.50686
5533.57029,0.50629
5531.64154,0.50630
5529.71280,0.50682
5527.78405,0.50747
5525.85531,0.50813
5523.92656,0.50826
5521.99781,0.50786
5520.06907,0.50777
5518.14032,0.50821
5516.21158,0.50874
5514.28283,0.50896
5512.35409,0.50892
5510.42534,0.50927
5508.49660,0.51037
5506.56785,0.51154
5504.63911,0.51158
5502.71036,0.51064
5500.78162,0.51046
5498.85287,0.51164
5496.92413,0.51273
5494.99538,0.51205
5493.06664,0.51021
5491.13789,0.50955
5489.20914,0.51038
5487.28040,0.51127
5485.35165,0.51199
5483.42291,0.51264
5481.49416,0.51260
5479.56542,0.51194
5477.63667,0.51199
5475.70793,0.51294
5473.77918,0.51313
5471.85044,0.51198
5469.92169,0.51092
5467.99295,0.51118
5466.06420,0.51271
5464.13546,0.51433
5462.20671,0.51477
5460.27796,0.51419
5458.34922,0.51377
5456.42047,0.51420
5454.49173,0.51524
5452.56298,0.51595
5450.63424,0.51616
5448.70549,0.51652
5446.77675,0.51704
5444.84800,0.51750
5442.91926,0.51779
5440.99051,0.51768
5439.06177,0.51742
5437.13302,0.51755
5435.20428,0.51826
5433.27553,0.51922
5431.34679,0.52008
5429.41804,0.52090
5427.48929,0.52152
5425.56055,0.52203
5423.63180,0.52263
5421.70306,0.52305
5419.77431,0.52336
5417.84557,0.52371
5415.91682,0.52406
5413.98808,0.52431
5412.05933,0.52435
5410.13059,0.52463
5408.20184,0.52521
5406.27310,0.52555
5404.34435,0.52571
5402.41561,0.52604
5400.48686,0.52648
5398.55811,0.52646
5396.62937,0.52606
5394.70062,0.52593
5392.77188,0.52627
5390.84313,0.52645
5388.91439,0.52600
5386.98564,0.52607
5385.05690,0.52704
5383.12815,0.52714
5381.19941,0.52641
5379.27066,0.52627
5377.34192,0.52652
5375.41317,0.52629
5373.48443,0.52592
5371.55568,0.52615
5369.62694,0.52657
5367.69819,0.52637
5365.76944,0.52580
5363.84070,0.52542
5361.91195,0.52539
5359.98321,0.52576
5358.05446,0.52631
5356.12572,0.52635
5354.19697,0.52562
5352.26823,0.52459
5350.33948,0.52375
5348.41074,0.52356
5346.48199,0.52403
5344.55325,0.52433
5342.62450,0.52401
5340.69576,0.52322
5338.76701,0.52172
5336.83827,0.51973
5334.90952,0.51850
5332.98077,0.51827
5331.05203,0.51818
5329.12328,0.51790
5327.19454,0.51711
5325.26579,0.51502
5323.33705,0.51237
5321.40830,0.51056
5319.47956,0.50959
5317.55081,0.50889
5315.62207,0.50829
5313.69332,0.50746
5311.76458,0.50573
5309.83583,0.50311
5307.90709,0.50042
5305.97834,0.49809
5304.04959,0.49604
5302.12085,0.49395
5300.19210,0.49146
5298.26336,0.48866
5296.33461,0.48577
5294.40587,0.48300
5292.47712,0.48029
5290.54838,0.47728
5288.61963,0.47409
5286.69089,0.47100
5284.76214,0.46797
5282.83340,0.46469
5280.90465,0.46074
5278.97591,0.45667
5277.04716,0.45328
5275.11842,0.45012
5273.18967,0.44665
5271.26092,0.44304
5269.33218,0.43921
5267.40343,0.43513
5265.47469,0.43111
5263.54594,0.42769
5261.61720,0.42484
5259.68845,0.42159
5257.75971,0.41753
5255.83096,0.41389
5253.90222,0.41156
5251.97347,0.40943
5250.04473,0.40671
5248.11598,0.40349
5246.18724,0.39959
5244.25849,0.39588
5242.32975,0.39373
5240.40100,0.39247
5238.47225,0.39024
5236.54351,0.38722
5234.61476,0.38512
5232.68602,0.38379
5230.75727,0.38242
5228.82853,0.38165
5226.89978,0.38140
5224.97104,0.38044
5223.04229,0.37843
5221.11355,0.37621
5219.18480,0.37489
5217.25606,0.37447
5215.32731,0.37379
5213.39857,0.37265
5211.46982,0.37199
5209.54107,0.37183
5207.61233,0.37160
5205.68358,0.37133
5203.75484,0.37105
5201.82609,0.37086
5199.89735,0.37084
5197.96860,0.37042
5196.03986,0.36963
5194.11111,0.36954
5192.18237,0.37039
5190.25362,0.37108
5188.32488,0.37083
5186.39613,0.37036
5184.46739,0.37058
5182.53864,0.37098
5180.60990,0.37105
5178.68115,0.37127
5176.75240,0.37191
5174.82366,0.37291
5172.89491,0.37425
5170.96617,0.37553
5169.03742,0.37640
5167.10868,0.37693
5165.17993,0.37718
5163.25119,0.37773
5161.32244,0.37938
5159.39370,0.38177
5157.46495,0.38360
5155.53621,0.38405
5153.60746,0.38393
5151.67872,0.38470
5149.74997,0.38604
5147.82123,0.38680
5145.89248,0.38742
5143.96373,0.38840
5142.03499,0.38938
5140.10624,0.39059
5138.17750,0.39189
5136.24875,0.39214
5134.32001,0.39220
5132.39126,0.39389
5130.46252,0.39627
5128.53377,0.39776
5126.60503,0.39885
5124.67628,0.40025
5122.74754,0.40155
5120.81879,0.40233
5118.89005,0.40298
5116.96130,0.40385
5115.03255,0.40486
5113.10381,0.40593
5111.17506,0.40674
5109.24632,0.40705
5107.31757,0.40750
5105.38883,0.40847
5103.46008,0.40936
5101.53134,0.41041
5099.60259,0.41232
5097.67385,0.41429
5095.74510,0.41543
5093.81636,0.41618
5091.88761,0.41692
5089.95887,0.41755
5088.03012,0.41805
5086.10138,0.41859
5084.17263,0.41948
5082.24388,0.42065
5080.31514,0.42149
5078.38639,0.42212
5076.45765,0.42304
5074.52890,0.42391
5072.60016,0.42484
5070.67141,0.42631
5068.74267,0.42766
5066.81392,0.42855
5064.88518,0.42956
5062.95643,0.43060
5061.02769,0.43118
5059.09894,0.43160
5057.17020,0.43238
5055.24145,0.43336
5053.31270,0.43421
5051.38396,0.43496
5049.45521,0.43558
5047.52647,0.43588
5045.59772,0.43597
5043.66898,0.43620
5041.74023,0.43728
5039.81149,0.43908
5037.88274,0.44027
5035.95400,0.44049
5034.02525,0.44043
5032.09651,0.44045
5030.16776,0.44092
5028.23902,0.44216
5026.31027,0.44355
5024.38153,0.44417
5022.45278,0.44412
5020.52403,0.44431
5018.59529,0.44522
5016.66654,0.44609
5014.73780,0.44631
5012.80905,0.44639
5010.88031,0.44640
5008.95156,0.44631
5007.02282,0.44638
5005.09407,0.44627
5003.16533,0.44605
5001.23658,0.44618
4999.30784,0.44632
4997.37909,0.44601
4995.45035,0.44566
4993.52160,0.44600
4991.59286,0.44655
4989.66411,0.44640
4987.73536,0.44602
4985.80662,0.44562
4983.87787,0.44465
4981.94913,0.44376
4980.02038,0.44357
4978.09164,0.44367
4976.16289,0.44346
4974.23415,0.44285
4972.30540,0.44232
4970.37666,0.44180
4968.44791,0.44066
4966.51917,0.43897
4964.59042,0.43751
4962.66168,0.43662
4960.73293,0.43593
4958.80418,0.43491
4956.87544,0.43355
4954.94669,0.43253
4953.01795,0.43165
4951.08920,0.42995
4949.16046,0.42785
4947.23171,0.42637
4945.30297,0.42528
4943.37422,0.42381
4941.44548,0.42199
4939.51673,0.42032
4937.58799,0.41887
4935.65924,0.41739
4933.73050,0.41593
4931.80175,0.41474
4929.87301,0.41349
4927.94426,0.41176
4926.01551,0.41000
4924.08677,0.40850
4922.15802,0.40682
4920.22928,0.40477
4918.30053,0.40293
4916.37179,0.40149
4914.44304,0.40015
4912.51430,0.39885
4910.58555,0.39749
4908.65681,0.39606
4906.72806,0.39486
4904.79932,0.39368
4902.87057,0.39185
4900.94183,0.38949
4899.01308,0.38768
4897.08434,0.38669
4895.15559,0.38549
4893.22684,0.38367
4891.29810,0.38171
4889.36935,0.37992
4887.44061,0.37832
4885.51186,0.37671
4883.58312,0.37492
4881.65437,0.37349
4879.72563,0.37270
4877.79688,0.37156
4875.86814,0.36970
4873.93939,0.36804
4872.01065,0.36666
4870.08190,0.36523
4868.15316,0.36417
4866.22441,0.36350
4864.29566,0.36264
4862.36692,0.36129
4860.43817,0.35960
4858.50943,0.35805
4856.58068,0.35676
4854.65194,0.35559
4852.72319,0.35483
4850.79445,0.35457
4848.86570,0.35410
4846.93696,0.35285
4845.00821,0.35118
4843.07947,0.34969
4841.15072,0.34863
4839.22198,0.34795
4837.29323,0.34716
4835.36449,0.34593
4833.43574,0.34466
4831.50699,0.34363
4829.57825,0.34274
4827.64950,0.34190
4825.72076,0.34077
4823.79201,0.33956
4821.86327,0.33898
4819.93452,0.33855
4818.00578,0.33754
4816.07703,0.33665
4814.14829,0.33613
4812.21954,0.33550
4810.29080,0.33499
4808.36205,0.33471
4806.43331,0.33399
4804.50456,0.33272
4802.57582,0.33178
4800.64707,0.33178
4798.71832,0.33208
4796.78958,0.33182
4794.86083,0.33103
4792.93209,0.33014
4791.00334,0.32959
4789.07460,0.32962
4787.14585,0.32999
4785.21711,0.33034
4783.28836,0.33031
4781.35962,0.32990
4779.43087,0.32951
4777.50213,0.32931
4775.57338,0.32905
4773.64464,0.32839
4771.71589,0.32756
4769.78714,0.32737
4767.85840,0.32769
4765.92965,0.32782
4764.00091,0.32787
4762.07216,0.32780
4760.14342,0.32747
4758.21467,0.32726
4756.28593,0.32729
4754.35718,0.32713
4752.42844,0.32692
4750.49969,0.32727
4748.57095,0.32765
4746.64220,0.32751
4744.71346,0.32746
4742.78471,0.32782
4740.85597,0.32805
4738.92722,0.32810
4736.99847,0.32836
4735.06973,0.32856
4733.14098,0.32846
4731.21224,0.32858
4729.28349,0.32914
4727.35475,0.32986
4725.42600,0.33028
4723.49726,0.33015
4721.56851,0.32995
4719.63977,0.33012
4717.71102,0.33035
4715.78228,0.33047
4713.85353,0.33089
4711.92479,0.33156
4709.99604,0.33202
4708.06729,0.33238
4706.13855,0.33289
4704.20980,0.33336
4702.28106,0.33377
4700.35231,0.33395
4698.42357,0.33366
4696.49482,0.33353
4694.56608,0.33403
4692.63733,0.33462
4690.70859,0.33533
4688.77984,0.33634
4686.85110,0.33687
4684.92235,0.33689
4682.99361,0.33724
4681.06486,0.33812
4679.13612,0.33933
4677.20737,0.34041
4675.27862,0.34079
4673.34988,0.34088
4671.42113,0.34129
4669.49239,0.34183
4667.56364,0.34247
4665.63490,0.34348
4663.70615,0.34445
4661.77741,0.34532
4659.84866,0.34626
4657.91992,0.34695
4655.99117,0.34744
4654.06243,0.34828
4652.13368,0.34963
4650.20494,0.35101
4648.27619,0.35178
4646.34745,0.35224
4644.41870,0.35301
4642.48995,0.35388
4640.56121,0.35454
4638.63246,0.35520
4636.70372,0.35591
4634.77497,0.35648
4632.84623,0.35707
4630.91748,0.35795
4628.98874,0.35888
4627.05999,0.35952
4625.13125,0.36013
4623.20250,0.36105
4621.27376,0.36204
4619.34501,0.36270
4617.41627,0.36315
4615.48752,0.36361
4613.55877,0.36387
4611.63003,0.36396
4609.70128,0.36447
4607.77254,0.36556
4605.84379,0.36655
4603.91505,0.36716
4601.98630,0.36792
4600.05756,0.36879
4598.12881,0.36939
4596.20007,0.36977
4594.27132,0.37013
4592.34258,0.37056
4590.41383,0.37104
4588.48509,0.37160
4586.55634,0.37235
4584.62760,0.37326
4582.69885,0.37423
4580.77010,0.37490
4578.84136,0.37505
4576.91261,0.37501
4574.98387,0.37508
4573.05512,0.37530
4571.12638,0.37572
4569.19763,0.37642
4567.26889,0.37708
4565.34014,0.37726
4563.41140,0.37737
4561.48265,0.37798
4559.55391,0.37864
4557.62516,0.37896
4555.69642,0.37908
4553.76767,0.37920
4551.83893,0.37964
4549.91018,0.38042
4547.98143,0.38108
4546.05269,0.38137
4544.12394,0.38142
4542.19520,0.38153
4540.26645,0.38198
4538.33771,0.38262
4536.40896,0.38312
4534.48022,0.38346
4532.55147,0.38365
4530.62273,0.38363
4528.69398,0.38369
4526.76524,0.38393
4524.83649,0.38390
4522.90775,0.38352
4520.97900,0.38322
4519.05025,0.38305
4517.12151,0.38303
4515.19276,0.38342
4513.26402,0.38376
4511.33527,0.38321
4509.40653,0.38217
4507.47778,0.38165
4505.54904,0.38146
4503.62029,0.38095
4501.69155,0.38043
4499.76280,0.37992
4497.83406,0.37894
4495.90531,0.37773
4493.97657,0.37668
4492.04782,0.37557
4490.11908,0.37436
4488.19033,0.37326
4486.26158,0.37204
4484.33284,0.37034
4482.40409,0.36829
4480.47535,0.36622
4478.54660,0.36414
4476.61786,0.36190
4474.68911,0.35957
4472.76037,0.35753
4470.83162,0.35577
4468.90288,0.35367
4466.97413,0.35098
4465.04539,0.34833
4463.11664,0.34610
4461.18790,0.34388
4459.25915,0.34142
4457.33041,0.33915
4455.40166,0.33700
4453.47291,0.33464
4451.54417,0.33256
4449.61542,0.33057
4447.68668,0.32804
4445.75793,0.32541
4443.82919,0.32330
4441.90044,0.32156
4439.97170,0.31972
4438.04295,0.31751
4436.11421,0.31533
4434.18546,0.31350
4432.25672,0.31160
4430.32797,0.30938
4428.39923,0.30752
4426.47048,0.30650
4424.54173,0.30564
4422.61299,0.30434
4420.68424,0.30287
4418.75550,0.30135
4416.82675,0.29968
4414.89801,0.29823
4412.96926,0.29732
4411.04052,0.29675
4409.11177,0.29614
4407.18303,0.29536
4405.25428,0.29472
4403.32554,0.29441
4401.39679,0.29414
4399.46805,0.29374
4397.53930,0.29342
4395.61056,0.29349
4393.68181,0.29392
4391.75306,0.29432
4389.82432,0.29468
4387.89557,0.29537
4385.96683,0.29620
4384.03808,0.29677
4382.10934,0.29727
4380.18059,0.29803
4378.25185,0.29906
4376.32310,0.30007
4374.39436,0.30099
4372.46561,0.30197
4370.53687,0.30275
4368.60812,0.30322
4366.67938,0.30364
4364.75063,0.30408
4362.82189,0.30443
4360.89314,0.30484
4358.96439,0.30523
4357.03565,0.30524
4355.10690,0.30483
4353.17816,0.30431
4351.24941,0.30396
4349.32067,0.30367
4347.39192,0.30310
4345.46318,0.30234
4343.53443,0.30165
4341.60569,0.30103
4339.67694,0.30065
4337.74820,0.30040
4335.81945,0.29981
4333.89071,0.29886
4331.96196,0.29801
4330.03321,0.29751
4328.10447,0.29711
4326.17572,0.29650
4324.24698,0.29579
4322.31823,0.29527
4320.38949,0.29485
4318.46074,0.29412
4316.53200,0.29309
4314.60325,0.29236
4312.67451,0.29206
4310.74576,0.29180
4308.81702,0.29134
4306.88827,0.29073
4304.95953,0.29017
4303.03078,0.28957
4301.10204,0.28886
4299.17329,0.28843
4297.24454,0.28827
4295.31580,0.28798
4293.38705,0.28765
4291.45831,0.28733
4289.52956,0.28684
4287.60082,0.28623
4285.67207,0.28579
4283.74333,0.28554
4281.81458,0.28516
4279.88584,0.28474
4277.95709,0.28468
4276.02835,0.28477
4274.09960,0.28480
4272.17086,0.28514
4270.24211,0.28589
4268.31336,0.28655
4266.38462,0.28706
4264.45587,0.28765
4262.52713,0.28798
4260.59838,0.28797
4258.66964,0.28813
4256.74089,0.28832
4254.81215,0.28815
4252.88340,0.28796
4250.95466,0.28807
4249.02591,0.28835
4247.09717,0.28858
4245.16842,0.28866
4243.23968,0.28871
4241.31093,0.28897
4239.38219,0.28950
4237.45344,0.29017
4235.52469,0.29076
4233.59595,0.29117
4231.66720,0.29144
4229.73846,0.29175
4227.80971,0.29219
4225.88097,0.29253
4223.95222,0.29255
4222.02348,0.29230
4220.09473,0.29197
4218.16599,0.29191
4216.23724,0.29243
4214.30850,0.29315
4212.37975,0.29348
4210.45101,0.29336
4208.52226,0.29325
4206.59352,0.29346
4204.66477,0.29365
4202.73602,0.29374
4200.80728,0.29386
4198.87853,0.29376
4196.94979,0.29361
4195.02104,0.29378
4193.09230,0.29409
4191.16355,0.29426
4189.23481,0.29440
4187.30606,0.29455
4185.37732,0.29459
4183.44857,0.29449
4181.51983,0.29435
4179.59108,0.29458
4177.66234,0.29520
4175.73359,0.29574
4173.80484,0.29614
4171.87610,0.29667
4169.94735,0.29729
4168.01861,0.29781
4166.08986,0.29806
4164.16112,0.29825
4162.23237,0.29868
4160.30363,0.29913
4158.37488,0.29911
4156.44614,0.29857
4154.51739,0.29794
4152.58865,0.29755
4150.65990,0.29732
4148.73116,0.29714
4146.80241,0.29693
4144.87367,0.29645
4142.94492,0.29573
4141.01617,0.29499
4139.08743,0.29420
4137.15868,0.29336
4135.22994,0.29263
4133.30119,0.29199
4131.37245,0.29134
4129.44370,0.29043
4127.51496,0.28929
4125.58621,0.28836
4123.65747,0.28762
4121.72872,0.28665
4119.79998,0.28553
4117.87123,0.28448
4115.94249,0.28364
4114.01374,0.28292
4112.08500,0.28209
4110.15625,0.28095
4108.22750,0.27937
4106.29876,0.27758
4104.37001,0.27588
4102.44127,0.27442
4100.51252,0.27348
4098.58378,0.27268
4096.65503,0.27136
4094.72629,0.26967
4092.79754,0.26794
4090.86880,0.26623
4088.94005,0.26481
4087.01131,0.26379
4085.08256,0.26265
4083.15382,0.26122
4081.22507,0.25973
4079.29632,0.25817
4077.36758,0.25653
4075.43883,0.25498
4073.51009,0.25339
4071.58134,0.25180
4069.65260,0.25043
4067.72385,0.24925
4065.79511,0.24814
4063.86636,0.24697
4061.93762,0.24551
4060.00887,0.24401
4058.08013,0.24276
4056.15138,0.24157
4054.22264,0.24024
4052.29389,0.23885
4050.36515,0.23752
4048.43640,0.23640
4046.50765,0.23538
4044.57891,0.23430
4042.65016,0.23330
4040.72142,0.23247
4038.79267,0.23164
4036.86393,0.23074
4034.93518,0.22987
4033.00644,0.22918
4031.07769,0.22864
4029.14895,0.22777
4027.22020,0.22663
4025.29146,0.22597
4023.36271,0.22593
4021.43397,0.22616
4019.50522,0.22636
4017.57648,0.22644
4015.64773,0.22641
4013.71898,0.22624
4011.79024,0.22621
4009.86149,0.22663
4007.93275,0.22726
4006.00400,0.22777
4004.07526,0.22820
4002.14651,0.22846
4000.21777,0.22848
3998.28902,0.22864
3996.36028,0.22918
3994.43153,0.22988
3992.50279,0.23037
3990.57404,0.23058
3988.64530,0.23082
3986.71655,0.23114
3984.78780,0.23160
3982.85906,0.23236
3980.93031,0.23303
3979.00157,0.23314
3977.07282,0.23315
3975.14408,0.23365
3973.21533,0.23437
3971.28659,0.23491
3969.35784,0.23524
3967.42910,0.23552
3965.50035,0.23604
3963.57161,0.23697
3961.64286,0.23807
3959.71412,0.23895
3957.78537,0.23969
3955.85663,0.24043
3953.92788,0.24102
3951.99913,0.24149
3950.07039,0.24207
3948.14164,0.24299
3946.21290,0.24395
3944.28415,0.24458
3942.35541,0.24525
3940.42666,0.24615
3938.49792,0.24681
3936.56917,0.24735
3934.64043,0.24830
3932.71168,0.24938
3930.78294,0.25004
3928.85419,0.25048
3926.92545,0.25106
3924.99670,0.25176
3923.06795,0.25266
3921.13921,0.25373
3919.21046,0.25466
3917.28172,0.25541
3915.35297,0.25592
3913.42423,0.25618
3911.49548,0.25662
3909.56674,0.25742
3907.63799,0.25843
3905.70925,0.25960
3903.78050,0.26057
3901.85176,0.26089
3899.92301,0.26116
3897.99427,0.26195
3896.06552,0.26274
3894.13678,0.26318
3892.20803,0.26349
3890.27928,0.26400
3888.35054,0.26475
3886.42179,0.26533
3884.49305,0.26564
3882.56430,0.26615
3880.63556,0.26682
3878.70681,0.26744
3876.77807,0.26803
3874.84932,0.26858
3872.92058,0.26916
3870.99183,0.26997
3869.06309,0.27105
3867.13434,0.27218
3865.20560,0.27323
3863.27685,0.27416
3861.34811,0.27499
3859.41936,0.27574
3857.49061,0.27641
3855.56187,0.27700
3853.63312,0.27743
3851.70438,0.27800
3849.77563,0.27906
3847.84689,0.28021
3845.91814,0.28094
3843.98940,0.28141
3842.06065,0.28206
3840.13191,0.28281
3838.20316,0.28335
3836.27442,0.28369
3834.34567,0.28387
3832.41693,0.28396
3830.48818,0.28419
3828.55943,0.28446
3826.63069,0.28466
3824.70194,0.28513
3822.77320,0.28582
3820.84445,0.28606
3818.91571,0.28589
3816.98696,0.28577
3815.05822,0.28571
3813.12947,0.28570
3811.20073,0.28577
3809.27198,0.28584
3807.34324,0.28567
3805.41449,0.28539
3803.48575,0.28547
3801.55700,0.28576
3799.62826,0.28599
3797.69951,0.28599
3795.77076,0.28576
3793.84202,0.28570
3791.91327,0.28577
3789.98453,0.28557
3788.05578,0.28521
3786.12704,0.28487
3784.19829,0.28465
3782.26955,0.28439
3780.34080,0.28371
3778.41206,0.28292
3776.48331,0.28269
3774.55457,0.28292
3772.62582,0.28309
3770.69708,0.28288
3768.76833,0.28205
3766.83959,0.28105
3764.91084,0.28044
3762.98209,0.27998
3761.05335,0.27943
3759.12460,0.27881
3757.19586,0.27826
3755.26711,0.27792
3753.33837,0.27756
3751.40962,0.27673
3749.48088,0.27560
3747.55213,0.27483
3745.62339,0.27395
3743.69464,0.27248
3741.76590,0.27142
3739.83715,0.27105
3737.90841,0.27044
3735.97966,0.26900
3734.05091,0.26740
3732.12217,0.26607
3730.19342,0.26460
3728.26468,0.26300
3726.33593,0.26150
3724.40719,0.26002
3722.47844,0.25835
3720.54970,0.25666
3718.62095,0.25485
3716.69221,0.25280
3714.76346,0.25089
3712.83472,0.24912
3710.90597,0.24685
3708.97723,0.24397
3707.04848,0.24094
3705.11974,0.23813
3703.19099,0.23538
3701.26224,0.23231
3699.33350,0.22891
3697.40475,0.22538
3695.47601,0.22194
3693.54726,0.21860
3691.61852,0.21482
3689.68977,0.20997
3687.76103,0.20455
3685.83228,0.19984
3683.90354,0.19561
3681.97479,0.19104
3680.04605,0.18616
3678.11730,0.18125
3676.18856,0.17594
3674.25981,0.17045
3672.33107,0.16554
3670.40232,0.16054
3668.47357,0.15528
3666.54483,0.15048
3664.61608,0.14576
3662.68734,0.14102
3660.75859,0.13686
3658.82985,0.13313
3656.90110,0.12894
3654.97236,0.12457
3653.04361,0.12111
3651.11487,0.11787
3649.18612,0.11384
3647.25738,0.10979
3645.32863,0.10658
3643.39989,0.10397
3641.47114,0.10161
3639.54239,0.09924
3637.61365,0.09670
3635.68490,0.09424
3633.75616,0.09211
3631.82741,0.09003
3629.89867,0.08747
3627.96992,0.08468
3626.04118,0.08242
3624.11243,0.08058
3622.18369,0.07900
3620.25494,0.07767
3618.32620,0.07623
3616.39745,0.07449
3614.46871,0.07253
3612.53996,0.07047
3610.61122,0.06865
3608.68247,0.06723
3606.75372,0.06603
3604.82498,0.06488
3602.89623,0.06364
3600.96749,0.06230
3599.03874,0.06111
3597.11000,0.05995
3595.18125,0.05841
3593.25251,0.05667
3591.32376,0.05543
3589.39502,0.05472
3587.46627,0.05400
3585.53753,0.05317
3583.60878,0.05238
3581.68004,0.05156
3579.75129,0.05067
3577.82254,0.04966
3575.89380,0.04863
3573.96505,0.04778
3572.03631,0.04721
3570.10756,0.04680
3568.17882,0.04617
3566.25007,0.04532
3564.32133,0.04467
3562.39258,0.04417
3560.46384,0.04364
3558.53509,0.04321
3556.60635,0.04288
3554.67760,0.04234
3552.74886,0.04154
3550.82011,0.04095
3548.89137,0.04076
3546.96262,0.04052
3545.03387,0.04007
3543.10513,0.03957
3541.17638,0.03910
3539.24764,0.03869
3537.31889,0.03843
3535.39015,0.03827
3533.46140,0.03804
3531.53266,0.03760
3529.60391,0.03709
3527.67517,0.03681
3525.74642,0.03662
3523.81768,0.03611
3521.88893,0.03541
3519.96019,0.03506
3518.03144,0.03510
3516.10270,0.03518
3514.17395,0.03504
3512.24520,0.03470
3510.31646,0.03438
3508.38771,0.03424
3506.45897,0.03414
3504.53022,0.03372
3502.60148,0.03298
3500.67273,0.03251
3498.74399,0.03264
3496.81524,0.03305
3494.88650,0.03323
3492.95775,0.03292
3491.02901,0.03253
3489.10026,0.03248
3487.17152,0.03262
3485.24277,0.03238
3483.31402,0.03170
3481.38528,0.03123
3479.45653,0.03121
3477.52779,0.03122
3475.59904,0.03116
3473.67030,0.03122
3471.74155,0.03124
3469.81281,0.03112
3467.88406,0.03098
3465.95532,0.03075
3464.02657,0.03048
3462.09783,0.03032
3460.16908,0.03008
3458.24034,0.02981
3456.31159,0.02983
3454.38285,0.03006
3452.45410,0.03016
3450.52535,0.03012
3448.59661,0.03011
3446.66786,0.02996
3444.73912,0.02960
3442.81037,0.02953
3440.88163,0.02979
3438.95288,0.02989
3437.02414,0.02983
3435.09539,0.02977
3433.16665,0.02964
3431.23790,0.02956
3429.30916,0.02979
3427.38041,0.03009
3425.45167,0.03011
3423.52292,0.02988
3421.59418,0.02966
3419.66543,0.02963
3417.73668,0.02967
3415.80794,0.02963
3413.87919,0.02967
3411.95045,0.02979
3410.02170,0.02988
3408.09296,0.02999
3406.16421,0.03005
3404.23547,0.03004
3402.30672,0.03001
3400.37798,0.02987
3398.44923,0.02975
3396.52049,0.02976
3394.59174,0.02981
3392.66300,0.02993
3390.73425,0.03004
3388.80550,0.03005
3386.87676,0.03016
3384.94801,0.03040
3383.01927,0.03048
3381.09052,0.03027
3379.16178,0.03013
3377.23303,0.03034
3375.30429,0.03055
3373.37554,0.03065
3371.44680,0.03081
3369.51805,0.03077
3367.58931,0.03056
3365.66056,0.03065
3363.73182,0.03091
3361.80307,0.03099
3359.87433,0.03086
3357.94558,0.03057
3356.01683,0.03042
3354.08809,0.03067
3352.15934,0.03109
3350.23060,0.03132
3348.30185,0.03121
3346.37311,0.03111
3344.44436,0.03148
3342.51562,0.03203
3340.58687,0.03225
3338.65813,0.03211
3336.72938,0.03191
3334.80064,0.03183
3332.87189,0.03191
3330.94315,0.03229
3329.01440,0.03273
3327.08566,0.03280
3325.15691,0.03280
3323.22816,0.03298
3321.29942,0.03317
3319.37067,0.03338
3317.44193,0.03359
3315.51318,0.03373
3313.58444,0.03381
3311.65569,0.03385
3309.72695,0.03383
3307.79820,0.03388
3305.86946,0.03416
3303.94071,0.03457
3302.01197,0.03480
3300.08322,0.03478
3298.15448,0.03472
3296.22573,0.03481
3294.29698,0.03506
3292.36824,0.03534
3290.43949,0.03559
3288.51075,0.03579
3286.58200,0.03600
3284.65326,0.03639
3282.72451,0.03689
3280.79577,0.03709
3278.86702,0.03686
3276.93828,0.03668
3275.00953,0.03692
3273.08079,0.03739
3271.15204,0.03782
3269.22330,0.03801
3267.29455,0.03808
3265.36581,0.03850
3263.43706,0.03924
3261.50831,0.03983
3259.57957,0.04009
3257.65082,0.04021
3255.72208,0.04046
3253.79333,0.04091
3251.86459,0.04119
3249.93584,0.04116
3248.00710,0.04124
3246.07835,0.04175
3244.14961,0.04242
3242.22086,0.04272
3240.29212,0.04259
3238.36337,0.04270
3236.43463,0.04332
3234.50588,0.04388
3232.57713,0.04409
3230.64839,0.04431
3228.71964,0.04468
3226.79090,0.04511
3224.86215,0.04557
3222.93341,0.04598
3221.00466,0.04615
3219.07592,0.04623
3217.14717,0.04659
3215.21843,0.04717
3213.28968,0.04762
3211.36094,0.04800
3209.43219,0.04855
3207.50345,0.04928
3205.57470,0.04993
3203.64596,0.05022
3201.71721,0.05039
3199.78846,0.05075
3197.85972,0.05118
3195.93097,0.05161
3194.00223,0.05201
3192.07348,0.05215
3190.14474,0.05218
3188.21599,0.05253
3186.28725,0.05320
3184.35850,0.05386
3182.42976,0.05436
3180.50101,0.05484
3178.57227,0.05535
3176.64352,0.05572
3174.71478,0.05595
3172.78603,0.05628
3170.85729,0.05672
3168.92854,0.05717
3166.99979,0.05756
3165.07105,0.05793
3163.14230,0.05852
3161.21356,0.05923
3159.28481,0.05971
3157.35607,0.05987
3155.42732,0.06001
3153.49858,0.06054
3151.56983,0.06130
3149.64109,0.06188
3147.71234,0.06232
3145.78360,0.06271
3143.85485,0.06320
3141.92611,0.06397
3139.99736,0.06485
3138.06861,0.06549
3136.13987,0.06587
3134.21112,0.06625
3132.28238,0.06677
3130.35363,0.06724
3128.42489,0.06755
3126.49614,0.06788
3124.56740,0.06825
3122.63865,0.06860
3120.70991,0.06914
3118.78116,0.06982
3116.85242,0.07037
3114.92367,0.07085
3112.99493,0.07141
3111.06618,0.07189
3109.13744,0.07210
3107.20869,0.07223
3105.27994,0.07252
3103.35120,0.07322
3101.42245,0.07428
3099.49371,0.07508
3097.56496,0.07538
3095.63622,0.07568
3093.70747,0.07606
3091.77873,0.07634
3089.84998,0.07669
3087.92124,0.07714
3085.99249,0.07748
3084.06375,0.07772
3082.13500,0.07816
3080.20626,0.07874
3078.27751,0.07923
3076.34877,0.07976
3074.42002,0.08051
3072.49127,0.08122
3070.56253,0.08148
3068.63378,0.08150
3066.70504,0.08181
3064.77629,0.08247
3062.84755,0.08322
3060.91880,0.08390
3058.99006,0.08437
3057.06131,0.08452
3055.13257,0.08462
3053.20382,0.08486
3051.27508,0.08517
3049.34633,0.08552
3047.41759,0.08580
3045.48884,0.08597
3043.56009,0.08620
3041.63135,0.08649
3039.70260,0.08688
3037.77386,0.08735
3035.84511,0.08762
3033.91637,0.08755
3031.98762,0.08737
3030.05888,0.08724
3028.13013,0.08700
3026.20139,0.08656
3024.27264,0.08601
3022.34390,0.08540
3020.41515,0.08475
3018.48641,0.08412
3016.55766,0.08367
3014.62892,0.08335
3012.70017,0.08289
3010.77142,0.08220
3008.84268,0.08145
3006.91393,0.08068
3004.98519,0.07982
3003.05644,0.07905
3001.12770,0.07857
2999.19895,0.07809
2997.27021,0.07735
2995.34146,0.07646
2993.41272,0.07549
2991.48397,0.07444
2989.55523,0.07348
2987.62648,0.07259
2985.69774,0.07150
2983.76899,0.07022
2981.84025,0.06878
2979.91150,0.06699
2977.98275,0.06506
2976.05401,0.06343
2974.12526,0.06213
2972.19652,0.06094
2970.26777,0.05975
2968.33903,0.05872
2966.41028,0.05792
2964.48154,0.05718
2962.55279,0.05633
2960.62405,0.05558
2958.69530,0.05514
2956.76656,0.05467
2954.83781,0.05395
2952.90907,0.05316
2950.98032,0.05241
2949.05157,0.05174
2947.12283,0.05108
2945.19408,0.05047
2943.26534,0.05004
2941.33659,0.04972
2939.40785,0.04962
2937.47910,0.04973
2935.55036,0.04961
2933.62161,0.04935
2931.69287,0.04940
2929.76412,0.04955
2927.83538,0.04940
2925.90663,0.04911
2923.97789,0.04886
2922.04914,0.04867
2920.12040,0.04858
2918.19165,0.04844
2916.26290,0.04818
2914.33416,0.04804
2912.40541,0.04830
2910.47667,0.04888
2908.54792,0.04932
2906.61918,0.04935
2904.69043,0.04927
2902.76169,0.04936
2900.83294,0.04968
2898.90420,0.05018
2896.97545,0.05066
2895.04671,0.05098
2893.11796,0.05122
2891.18922,0.05149
2889.26047,0.05183
2887.33172,0.05218
2885.40298,0.05259
2883.47423,0.05296
2881.54549,0.05317
2879.61674,0.05341
2877.68800,0.05385
2875.75925,0.05425
2873.83051,0.05454
2871.90176,0.05495
2869.97302,0.05542
2868.04427,0.05569
2866.11553,0.05581
2864.18678,0.05603
2862.25804,0.05647
2860.32929,0.05692
2858.40055,0.05714
2856.47180,0.05727
2854.54305,0.05762
2852.61431,0.05828
2850.68556,0.05912
2848.75682,0.06004
2846.82807,0.06122
2844.89933,0.06266
2842.97058,0.06417
2841.04184,0.06574
2839.11309,0.06743
2837.18435,0.06921
2835.25560,0.07114
2833.32686,0.07317
2831.39811,0.07505
2829.46937,0.07683
2827.54062,0.07852
2825.61188,0.08007
2823.68313,0.08158
2821.75438,0.08306
2819.82564,0.08444
2817.89689,0.08571
2815.96815,0.08691
2814.03940,0.08807
2812.11066,0.08920
2810.18191,0.09034
2808.25317,0.09148
2806.32442,0.09246
2804.39568,0.09334
2802.46693,0.09432
2800.53819,0.09536
2798.60944,0.09637
2796.68070,0.09726
2794.75195,0.09798
2792.82320,0.09863
2790.89446,0.09929
2788.96571,0.09977
2787.03697,0.10001
2785.10822,0.10033
2783.17948,0.10087
2781.25073,0.10134
2779.32199,0.10158
2777.39324,0.10182
2775.46450,0.10230
2773.53575,0.10285
2771.60701,0.10315
2769.67826,0.10328
2767.74952,0.10352
2765.82077,0.10384
2763.89203,0.10404
2761.96328,0.10416
2760.03453,0.10440
2758.10579,0.10479
2756.17704,0.10526
2754.24830,0.10568
2752.31955,0.10594
2750.39081,0.10605
2748.46206,0.10618
2746.53332,0.10638
2744.60457,0.10656
2742.67583,0.10675
2740.74708,0.10687
2738.81834,0.10675
2736.88959,0.10666
2734.96085,0.10695
2733.03210,0.10740
2731.10336,0.10781
2729.17461,0.10821
2727.24586,0.10855
2725.31712,0.10871
2723.38837,0.10892
2721.45963,0.10938
2719.53088,0.10985
2717.60214,0.11025
2715.67339,0.11079
2713.74465,0.11156
2711.81590,0.11243
2709.88716,0.11327
2707.95841,0.11400
2706.02967,0.11463
2704.10092,0.11525
2702.17218,0.11597
2700.24343,0.11670
2698.31468,0.11735
2696.38594,0.11798
2694.45719,0.11857
2692.52845,0.11910
2690.59970,0.11963
2688.67096,0.12019
2686.74221,0.12083
2684.81347,0.12153
2682.88472,0.12219
2680.95598,0.12276
2679.02723,0.12331
2677.09849,0.12381
2675.16974,0.12427
2673.24100,0.12466
2671.31225,0.12490
2669.38351,0.12509
2667.45476,0.12533
2665.52601,0.12573
2663.59727,0.12621
2661.66852,0.12650
2659.73978,0.12668
2657.81103,0.12707
2655.88229,0.12755
2653.95354,0.12799
2652.02480,0.12842
2650.09605,0.12876
2648.16731,0.12911
2646.23856,0.12967
2644.30982,0.13022
2642.38107,0.13058
2640.45233,0.13101
2638.52358,0.13161
2636.59484,0.13221
2634.66609,0.13282
2632.73734,0.13336
2630.80860,0.13374
2628.87985,0.13415
2626.95111,0.13464
2625.02236,0.13518
2623.09362,0.13577
2621.16487,0.13622
2619.23613,0.13641
2617.30738,0.13661
2615.37864,0.13701
2613.44989,0.13753
2611.52115,0.13810
2609.59240,0.13876
2607.66366,0.13939
2605.73491,0.13975
2603.80616,0.13984
2601.87742,0.14009
2599.94867,0.14076
2598.01993,0.14149
2596.09118,0.14194
2594.16244,0.14228
2592.23369,0.14263
2590.30495,0.14304
2588.37620,0.14352
2586.44746,0.14384
2584.51871,0.14395
2582.58997,0.14404
2580.66122,0.14419
2578.73248,0.14442
2576.80373,0.14468
2574.87499,0.14486
2572.94624,0.14502
2571.01749,0.14516
2569.08875,0.14527
2567.16000,0.14544
2565.23126,0.14572
2563.30251,0.14597
2561.37377,0.14605
2559.44502,0.14600
2557.51628,0.14593
2555.58753,0.14587
2553.65879,0.14581
2551.73004,0.14587
2549.80130,0.14608
2547.87255,0.14619
2545.94381,0.14613
2544.01506,0.14609
2542.08631,0.14625
2540.15757,0.14661
2538.22882,0.14699
2536.30008,0.14723
2534.37133,0.14737
2532.44259,0.14749
2530.51384,0.14772
2528.58510,0.14827
2526.65635,0.14882
2524.72761,0.14895
2522.79886,0.14894
2520.87012,0.14914
2518.94137,0.14950
2517.01263,0.14986
2515.08388,0.15017
2513.15514,0.15052
2511.22639,0.15096
2509.29764,0.15148
2507.36890,0.15215
2505.44015,0.15277
2503.51141,0.15319
2501.58266,0.15358
2499.65392,0.15413
2497.72517,0.15493
2495.79643,0.15591
2493.86768,0.15681
2491.93894,0.15738
2490.01019,0.15759
2488.08145,0.15777
2486.15270,0.15829
2484.22396,0.15899
2482.29521,0.15964
2480.36647,0.16022
2478.43772,0.16079
2476.50897,0.16129
2474.58023,0.16171
2472.65148,0.16214
2470.72274,0.16258
2468.79399,0.16301
2466.86525,0.16352
2464.93650,0.16405
2463.00776,0.16449
2461.07901,0.16480
2459.15027,0.16511
2457.22152,0.16556
2455.29278,0.16609
2453.36403,0.16667
2451.43529,0.16735
2449.50654,0.16800
2447.57779,0.16854
2445.64905,0.16914
2443.72030,0.16976
2441.79156,0.17033
2439.86281,0.17093
2437.93407,0.17165
2436.00532,0.17238
2434.07658,0.17303
2432.14783,0.17364
2430.21909,0.17430
2428.29034,0.17507
2426.36160,0.17597
2424.43285,0.17682
2422.50411,0.17756
2420.57536,0.17821
2418.64662,0.17865
2416.71787,0.17910
2414.78912,0.17993
2412.86038,0.18096
2410.93163,0.18185
2409.00289,0.18255
2407.07414,0.18320
2405.14540,0.18396
2403.21665,0.18478
2401.28791,0.18557
2399.35916,0.18631
2397.43042,0.18689
2395.50167,0.18727
2393.57293,0.18764
2391.64418,0.18804
2389.71544,0.18851
2387.78669,0.18916
2385.85795,0.18983
2383.92920,0.19042
2382.00045,0.19109
2380.07171,0.19182
2378.14296,0.19241
2376.21422,0.19291
2374.28547,0.19350
2372.35673,0.19418
2370.42798,0.19479
2368.49924,0.19526
2366.57049,0.19571
2364.64175,0.19626
2362.71300,0.19691
2360.78426,0.19760
2358.85551,0.19818
2356.92677,0.19867
2354.99802,0.19917
2353.06927,0.19967
2351.14053,0.20014
2349.21178,0.20057
2347.28304,0.20104
2345.35429,0.20164
2343.42555,0.20240
2341.49680,0.20313
2339.56806,0.20354
2337.63931,0.20379
2335.71057,0.20420
2333.78182,0.20462
2331.85308,0.20481
2329.92433,0.20493
2327.99559,0.20518
2326.06684,0.20552
2324.13810,0.20575
2322.20935,0.20591
2320.28060,0.20609
2318.35186,0.20625
2316.42311,0.20641
2314.49437,0.20655
2312.56562,0.20661
2310.63688,0.20660
2308.70813,0.20652
2306.77939,0.20639
2304.85064,0.20622
2302.92190,0.20599
2300.99315,0.20570
2299.06441,0.20529
2297.13566,0.20483
2295.20692,0.20458
2293.27817,0.20457
2291.34943,0.20454
2289.42068,0.20447
2287.49193,0.20445
2285.56319,0.20440
2283.63444,0.20425
2281.70570,0.20409
2279.77695,0.20392
2277.84821,0.20370
2275.91946,0.20342
2273.99072,0.20299
2272.06197,0.20236
2270.13323,0.20167
2268.20448,0.20094
2266.27574,0.20012
2264.34699,0.19937
2262.41825,0.19873
2260.48950,0.19805
2258.56075,0.19733
2256.63201,0.19669
2254.70326,0.19614
2252.77452,0.19561
2250.84577,0.19505
2248.91703,0.19452
2246.98828,0.19412
2245.05954,0.19393
2243.13079,0.19386
2241.20205,0.19367
2239.27330,0.19331
2237.34456,0.19303
2235.41581,0.19305
2233.48707,0.19325
2231.55832,0.19338
2229.62958,0.19341
2227.70083,0.19357
2225.77208,0.19389
2223.84334,0.19422
2221.91459,0.19455
2219.98585,0.19484
2218.05710,0.19497
2216.12836,0.19504
2214.19961,0.19516
2212.27087,0.19531
2210.34212,0.19543
2208.41338,0.19539
2206.48463,0.19513
2204.55589,0.19479
2202.62714,0.19439
2200.69840,0.19390
2198.76965,0.19336
2196.84090,0.19283
2194.91216,0.19229
2192.98341,0.19166
2191.05467,0.19093
2189.12592,0.19010
2187.19718,0.18911
2185.26843,0.18795
2183.33969,0.18684
2181.41094,0.18581
2179.48220,0.18470
2177.55345,0.18347
2175.62471,0.18232
2173.69596,0.18127
2171.76722,0.18019
2169.83847,0.17906
2167.90973,0.17793
2165.98098,0.17689
2164.05223,0.17597
2162.12349,0.17508
2160.19474,0.17429
2158.26600,0.17378
2156.33725,0.17337
2154.40851,0.17277
2152.47976,0.17204
2150.55102,0.17143
2148.62227,0.17100
2146.69353,0.17067
2144.76478,0.17042
2142.83604,0.17015
2140.90729,0.16980
2138.97855,0.16954
2137.04980,0.16941
2135.12106,0.16933
2133.19231,0.16933
2131.26356,0.16946
2129.33482,0.16968
2127.40607,0.16984
2125.47733,0.16988
2123.54858,0.16994
2121.61984,0.17025
2119.69109,0.17079
2117.76235,0.17123
2115.83360,0.17137
2113.90486,0.17150
2111.97611,0.17185
2110.04737,0.17225
2108.11862,0.17261
2106.18988,0.17294
2104.26113,0.17326
2102.33238,0.17357
2100.40364,0.17392
2098.47489,0.17453
2096.54615,0.17534
2094.61740,0.17592
2092.68866,0.17617
2090.75991,0.17644
2088.83117,0.17681
2086.90242,0.17710
2084.97368,0.17726
2083.04493,0.17735
2081.11619,0.17740
2079.18744,0.17749
2077.25870,0.17773
2075.32995,0.17795
2073.40121,0.17800
2071.47246,0.17805
2069.54371,0.17817
2067.61497,0.17818
2065.68622,0.17805
2063.75748,0.17800
2061.82873,0.17818
2059.89999,0.17853
2057.97124,0.17885
2056.04250,0.17906
2054.11375,0.17924
2052.18501,0.17944
2050.25626,0.17971
2048.32752,0.18015
2046.39877,0.18068
2044.47003,0.18114
2042.54128,0.18161
2040.61254,0.18225
2038.68379,0.18299
2036.75504,0.18365
2034.82630,0.18426
2032.89755,0.18496
2030.96881,0.18581
2029.04006,0.18671
2027.11132,0.18757
2025.18257,0.18843
2023.25383,0.18935
2021.32508,0.19039
2019.39634,0.19149
2017.46759,0.19252
2015.53885,0.19347
2013.61010,0.19440
2011.68136,0.19535
2009.75261,0.19627
2007.82386,0.19702
2005.89512,0.19767
2003.96637,0.19836
2002.03763,0.19901
2000.10888,0.19951
1998.18014,0.20002
1996.25139,0.20067
1994.32265,0.20128
1992.39390,0.20174
1990.46516,0.20219
1988.53641,0.20260
1986.60767,0.20290
1984.67892,0.20316
1982.75018,0.20342
1980.82143,0.20354
1978.89269,0.20355
1976.96394,0.20354
1975.03519,0.20343
1973.10645,0.20313
1971.17770,0.20282
1969.24896,0.20265
1967.32021,0.20249
1965.39147,0.20227
1963.46272,0.20215
1961.53398,0.20218
1959.60523,0.20224
1957.67649,0.20228
1955.74774,0.20232
1953.81900,0.20240
1951.89025,0.20260
1949.96151,0.20294
1948.03276,0.20342
1946.10402,0.20405
1944.17527,0.20475
1942.24652,0.20552
1940.31778,0.20641
1938.38903,0.20738
1936.46029,0.20836
1934.53154,0.20929
1932.60280,0.21020
1930.67405,0.21125
1928.74531,0.21238
1926.81656,0.21338
1924.88782,0.21426
1922.95907,0.21518
1921.03033,0.21613
1919.10158,0.21693
1917.17284,0.21755
1915.24409,0.21808
1913.31534,0.21856
1911.38660,0.21897
1909.45785,0.21928
1907.52911,0.21965
1905.60036,0.22009
1903.67162,0.22047
1901.74287,0.22072
1899.81413,0.22093
1897.88538,0.22117
1895.95664,0.22134
1894.02789,0.22145
1892.09915,0.22150
1890.17040,0.22147
1888.24166,0.22143
1886.31291,0.22144
1884.38417,0.22138
1882.45542,0.22121
1880.52667,0.22101
1878.59793,0.22077
1876.66918,0.22048
1874.74044,0.22013
1872.81169,0.21975
1870.88295,0.21924
1868.95420,0.21849
1867.02546,0.21766
1865.09671,0.21693
1863.16797,0.21614
1861.23922,0.21519
1859.31048,0.21424
1857.38173,0.21342
1855.45299,0.21264
1853.52424,0.21178
1851.59549,0.21077
1849.66675,0.20958
1847.73800,0.20839
1845.80926,0.20728
1843.88051,0.20592
1841.95177,0.20427
1840.02302,0.20277
1838.09428,0.20147
1836.16553,0.20022
1834.23679,0.19898
1832.30804,0.19776
1830.37930,0.19638
1828.45055,0.19479
1826.52181,0.19310
1824.59306,0.19120
1822.66432,0.18931
1820.73557,0.18763
1818.80682,0.18581
1816.87808,0.18365
1814.94933,0.18141
1813.02059,0.17926
1811.09184,0.17697
1809.16310,0.17430
1807.23435,0.17142
1805.30561,0.16850
1803.37686,0.16559
1801.44812,0.16254
1799.51937,0.15937
1797.59063,0.15626
1795.66188,0.15331
1793.73314,0.15021
1791.80439,0.14667
1789.87565,0.14308
1787.94690,0.13961
1786.01815,0.13577
1784.08941,0.13142
1782.16066,0.12683
1780.23192,0.12189
1778.30317,0.11659
1776.37443,0.11119
1774.44568,0.10540
1772.51694,0.09862
1770.58819,0.09159
1768.65945,0.08532
1766.73070,0.07968
1764.80196,0.07478
1762.87321,0.07037
1760.94447,0.06637
1759.01572,0.06335
1757.08697,0.06112
1755.15823,0.05948
1753.22948,0.05837
1751.30074,0.05724
1749.37199,0.05591
1747.44325,0.05479
1745.51450,0.05410
1743.58576,0.05371
1741.65701,0.05345
1739.72827,0.05323
1737.79952,0.05323
1735.87078,0.05349
1733.94203,0.05383
1732.01329,0.05423
1730.08454,0.05478
1728.15580,0.05544
1726.22705,0.05623
1724.29830,0.05724
1722.36956,0.05845
1720.44081,0.05977
1718.51207,0.06117
1716.58332,0.06280
1714.65458,0.06464
1712.72583,0.06642
1710.79709,0.06800
1708.86834,0.06947
1706.93960,0.07096
1705.01085,0.07240
1703.08211,0.07363
1701.15336,0.07470
1699.22462,0.07571
1697.29587,0.07652
1695.36713,0.07711
1693.43838,0.07761
1691.50963,0.07800
1689.58089,0.07814
1687.65214,0.07817
1685.72340,0.07813
1683.79465,0.07745
1681.86591,0.07644
1679.93716,0.07579
1678.00842,0.07529
1676.07967,0.07446
1674.15093,0.07330
1672.22218,0.07229
1670.29344,0.07142
1668.36469,0.07049
1666.43595,0.06967
1664.50720,0.06891
1662.57845,0.06805
1660.64971,0.06737
1658.72096,0.06704
1656.79222,0.06696
1654.86347,0.06682
1652.93473,0.06613
1651.00598,0.06544
1649.07724,0.06540
1647.14849,0.06550
1645.21975,0.06538
1643.29100,0.06521
1641.36226,0.06514
1639.43351,0.06519
1637.50477,0.06523
1635.57602,0.06504
1633.64728,0.06475
1631.71853,0.06459
1629.78978,0.06434
1627.86104,0.06389
1625.93229,0.06338
1624.00355,0.06279
1622.07480,0.06215
1620.14606,0.06170
1618.21731,0.06121
1616.28857,0.06017
1614.35982,0.05879
1612.43108,0.05753
1610.50233,0.05636
1608.57359,0.05525
1606.64484,0.05429
1604.71610,0.05353
1602.78735,0.05293
1600.85861,0.05228
1598.92986,0.05137
1597.00111,0.05034
1595.07237,0.04958
1593.14362,0.04950
1591.21488,0.05034
1589.28613,0.05211
1587.35739,0.05463
1585.42864,0.05764
1583.49990,0.06093
1581.57115,0.06434
1579.64241,0.06759
1577.71366,0.07095
1575.78492,0.07498
1573.85617,0.07885
1571.92743,0.08201
1569.99868,0.08493
1568.06993,0.08754
1566.14119,0.08971
1564.21244,0.09163
1562.28370,0.09332
1560.35495,0.09485
1558.42621,0.09612
1556.49746,0.09679
1554.56872,0.09717
1552.63997,0.09729
1550.71123,0.09702
1548.78248,0.09658
1546.85374,0.09618
1544.92499,0.09575
1542.99625,0.09529
1541.06750,0.09469
1539.13876,0.09380
1537.21001,0.09308
1535.28126,0.09240
1533.35252,0.09115
1531.42377,0.08932
1529.49503,0.08717
1527.56628,0.08452
1525.63754,0.08122
1523.70879,0.07722
1521.78005,0.07220
1519.85130,0.06714
1517.92256,0.06330
1515.99381,0.06020
1514.06507,0.05767
1512.13632,0.05593
1510.20758,0.05475
1508.27883,0.05372
1506.35008,0.05250
1504.42134,0.05175
1502.49259,0.05201
1500.56385,0.05298
1498.63510,0.05428
1496.70636,0.05579
1494.77761,0.05735
1492.84887,0.05860
1490.92012,0.05943
1488.99138,0.05991
1487.06263,0.05985
1485.13389,0.05903
1483.20514,0.05762
1481.27640,0.05587
1479.34765,0.05378
1477.41891,0.05132
1475.49016,0.04861
1473.56141,0.04580
1471.63267,0.04315
1469.70392,0.04128
1467.77518,0.04012
1465.84643,0.03935
1463.91769,0.03893
1461.98894,0.03885
1460.06020,0.03888
1458.13145,0.03891
1456.20271,0.03913
1454.27396,0.03954
1452.34522,0.04001
1450.41647,0.04053
1448.48773,0.04104
1446.55898,0.04133
1444.63024,0.04130
1442.70149,0.04110
1440.77274,0.04090
1438.84400,0.04061
1436.91525,0.04000
1434.98651,0.03933
1433.05776,0.03889
1431.12902,0.03864
1429.20027,0.03872
1427.27153,0.03900
1425.34278,0.03927
1423.41404,0.03967
1421.48529,0.04037
1419.55655,0.04126
1417.62780,0.04232
1415.69906,0.04338
1413.77031,0.04427
1411.84156,0.04499
1409.91282,0.04553
1407.98407,0.04584
1406.05533,0.04589
1404.12658,0.04578
1402.19784,0.04563
1400.26909,0.04539
1398.34035,0.04492
1396.41160,0.04417
1394.48286,0.04320
1392.55411,0.04222
1390.62537,0.04117
1388.69662,0.03984
1386.76788,0.03836
1384.83913,0.03704
1382.91039,0.03590
1380.98164,0.03493
1379.05289,0.03432
1377.12415,0.03402
1375.19540,0.03378
1373.26666,0.03372
1371.33791,0.03394
1369.40917,0.03416
1367.48042,0.03428
1365.55168,0.03441
1363.62293,0.03447
1361.69419,0.03443
1359.76544,0.03455
1357.83670,0.03487
1355.90795,0.03524
1353.97921,0.03555
1352.05046,0.03566
1350.12172,0.03558
1348.19297,0.03541
1346.26422,0.03507
1344.33548,0.03462
1342.40673,0.03437
1340.47799,0.03432
1338.54924,0.03410
1336.62050,0.03371
1334.69175,0.03352
1332.76301,0.03359
1330.83426,0.03360
1328.90552,0.03355
1326.97677,0.03371
1325.04803,0.03389
1323.11928,0.03392
1321.19054,0.03398
1319.26179,0.03417
1317.33304,0.03453
1315.40430,0.03503
1313.47555,0.03559
1311.54681,0.03613
1309.61806,0.03664
1307.68932,0.03711
1305.76057,0.03756
1303.83183,0.03799
1301.90308,0.03826
1299.97434,0.03821
1298.04559,0.03786
1296.11685,0.03747
1294.18810,0.03715
1292.25936,0.03678
1290.33061,0.03611
1288.40187,0.03519
1286.47312,0.03433
1284.54437,0.03376
1282.61563,0.03354
1280.68688,0.03342
1278.75814,0.03309
1276.82939,0.03260
1274.90065,0.03229
1272.97190,0.03219
1271.04316,0.03191
1269.11441,0.03146
1267.18567,0.03119
1265.25692,0.03103
1263.32818,0.03077
1261.39943,0.03050
1259.47069,0.03029
1257.54194,0.03016
1255.61320,0.03007
1253.68445,0.02994
1251.75570,0.02986
1249.82696,0.02994
1247.89821,0.02997
1245.96947,0.02976
1244.04072,0.02960
1242.11198,0.02972
1240.18323,0.02998
1238.25449,0.03026
1236.32574,0.03066
1234.39700,0.03114
1232.46825,0.03148
1230.53951,0.03180
1228.61076,0.03214
1226.68202,0.03243
1224.75327,0.03286
1222.82452,0.03340
1220.89578,0.03384
1218.96703,0.03425
1217.03829,0.03468
1215.10954,0.03498
1213.18080,0.03509
1211.25205,0.03515
1209.32331,0.03525
1207.39456,0.03536
1205.46582,0.03556
1203.53707,0.03581
1201.60833,0.03593
1199.67958,0.03587
1197.75084,0.03581
1195.82209,0.03577
1193.89335,0.03558
1191.96460,0.03522
1190.03585,0.03481
1188.10711,0.03427
1186.17836,0.03354
1184.24962,0.03273
1182.32087,0.03194
1180.39213,0.03131
1178.46338,0.03078
1176.53464,0.03016
1174.60589,0.02961
1172.67715,0.02943
1170.74840,0.02947
1168.81966,0.02953
1166.89091,0.02975
1164.96217,0.03022
1163.03342,0.03068
1161.10467,0.03094
1159.17593,0.03111
1157.24718,0.03127
1155.31844,0.03130
1153.38969,0.03109
1151.46095,0.03070
1149.53220,0.03036
1147.60346,0.02994
1145.67471,0.02928
1143.74597,0.02857
1141.81722,0.02796
1139.88848,0.02745
1137.95973,0.02700
1136.03099,0.02656
1134.10224,0.02615
1132.17350,0.02595
1130.24475,0.02615
1128.31600,0.02676
1126.38726,0.02755
1124.45851,0.02824
1122.52977,0.02881
1120.60102,0.02925
1118.67228,0.02946
1116.74353,0.02955
1114.81479,0.02974
1112.88604,0.03012
1110.95730,0.03056
1109.02855,0.03078
1107.09981,0.03082
1105.17106,0.03084
1103.24232,0.03086
1101.31357,0.03093
1099.38483,0.03093
1097.45608,0.03073
1095.52733,0.03040
1093.59859,0.03008
1091.66984,0.02999
1089.74110,0.03006
1087.81235,0.03004
1085.88361,0.03016
1083.95486,0.03061
1082.02612,0.03131
1080.09737,0.03220
1078.16863,0.03299
1076.23988,0.03347
1074.31114,0.03385
1072.38239,0.03452
1070.45365,0.03546
1068.52490,0.03641
1066.59615,0.03746
1064.66741,0.03867
1062.73866,0.03998
1060.80992,0.04136
1058.88117,0.04255
1056.95243,0.04332
1055.02368,0.04356
1053.09494,0.04337
1051.16619,0.04307
1049.23745,0.04291
1047.30870,0.04292
1045.37996,0.04296
1043.45121,0.04289
1041.52247,0.04298
1039.59372,0.04367
1037.66498,0.04492
1035.73623,0.04627
1033.80748,0.04724
1031.87874,0.04764
1029.94999,0.04753
1028.02125,0.04715
1026.09250,0.04686
1024.16376,0.04684
1022.23501,0.04715
1020.30627,0.04755
1018.37752,0.04777
1016.44878,0.04796
1014.52003,0.04832
1012.59129,0.04871
1010.66254,0.04890
1008.73380,0.04884
1006.80505,0.04873
1004.87631,0.04887
1002.94756,0.04924
1001.01881,0.04966
999.09007,0.05013
997.16132,0.05049
995.23258,0.05072
993.30383,0.05124
991.37509,0.05202
989.44634,0.05278
987.51760,0.05375
985.58885,0.05513
983.66011,0.05654
981.73136,0.05781
979.80262,0.05927
977.87387,0.06097
975.94513,0.06244
974.01638,0.06340
972.08763,0.06421
970.15889,0.06537
968.23014,0.06684
966.30140,0.06827
964.37265,0.06975
962.44391,0.07146
960.51516,0.07336
958.58642,0.07542
956.65767,0.07751
954.72893,0.07949
952.80018,0.08131
950.87144,0.08305
948.94269,0.08473
947.01395,0.08604
945.08520,0.08676
943.15646,0.08709
941.22771,0.08723
939.29896,0.08710
937.37022,0.08674
935.44147,0.08651
933.51273,0.08645
931.58398,0.08631
929.65524,0.08598
927.72649,0.08547
925.79775,0.08505
923.86900,0.08479
921.94026,0.08432
920.01151,0.08367
918.08277,0.08314
916.15402,0.08259
914.22528,0.08191
912.29653,0.08114
910.36779,0.08017
908.43904,0.07899
906.51029,0.07764
904.58155,0.07605
902.65280,0.07442
900.72406,0.07334
898.79531,0.07308
896.86657,0.07363
894.93782,0.07499
893.00908,0.07694
891.08033,0.07928
889.15159,0.08180
887.22284,0.08387
885.29410,0.08516
883.36535,0.08612
881.43661,0.08707
879.50786,0.08770
877.57911,0.08787
875.65037,0.08794
873.72162,0.08845
871.79288,0.08953
869.86413,0.09097
867.93539,0.09224
866.00664,0.09303
864.07790,0.09371
862.14915,0.09447
860.22041,0.09499
858.29166,0.09506
856.36292,0.09466
854.43417,0.09391
852.50543,0.09326
850.57668,0.09290
848.64794,0.09251
846.71919,0.09185
844.79044,0.09126
842.86170,0.09077
840.93295,0.09013
839.00421,0.08960
837.07546,0.08945
835.14672,0.08938
833.21797,0.08916
831.28923,0.08905
829.36048,0.08925
827.43174,0.08972
825.50299,0.09034
823.57425,0.09089
821.64550,0.09149
819.71676,0.09238
817.78801,0.09321
815.85926,0.09337
813.93052,0.09282
812.00177,0.09222
810.07303,0.09196
808.14428,0.09179
806.21554,0.09174
804.28679,0.09202
802.35805,0.09219
800.42930,0.09192
798.50056,0.09154
796.57181,0.09151
794.64307,0.09176
792.71432,0.09185
790.78558,0.09144
788.85683,0.09037
786.92809,0.08922
784.99934,0.08876
783.07059,0.08858
781.14185,0.08772
779.21310,0.08608
777.28436,0.08414
775.35561,0.08249
773.42687,0.08132
771.49812,0.08048
769.56938,0.08010
767.64063,0.07996
765.71189,0.07950
763.78314,0.07886
761.85440,0.07832
759.92565,0.07748
757.99691,0.07633
756.06816,0.07556
754.13942,0.07507
752.21067,0.07429
750.28192,0.07334
748.35318,0.07249
746.42443,0.07178
744.49569,0.07122
742.56694,0.07062
740.63820,0.07000
738.70945,0.06949
736.78071,0.06894
734.85196,0.06829
732.92322,0.06762
730.99447,0.06674
729.06573,0.06552
727.13698,0.06424
725.20824,0.06329
723.27949,0.06300
721.35074,0.06299
719.42200,0.06269
717.49325,0.06204
715.56451,0.06124
713.63576,0.06068
711.70702,0.06070
709.77827,0.06115
707.84953,0.06153
705.92078,0.06137
703.99204,0.06064
702.06329,0.05995
700.13455,0.05966
698.20580,0.05954
696.27706,0.05953
694.34831,0.05935
692.41957,0.05867
690.49082,0.05790
688.56207,0.05738
686.63333,0.05710
684.70458,0.05695
682.77584,0.05663
680.84709,0.05612
678.91835,0.05557
676.98960,0.05516
675.06086,0.05509
673.13211,0.05517
671.20337,0.05511
669.27462,0.05489
667.34588,0.05438
665.41713,0.05393
663.48839,0.05410
661.55964,0.05435
659.63090,0.05413
657.70215,0.05417
655.77340,0.05513
653.84466,0.05596
651.91591,0.05555
649.98717,0.05460
648.05842,0.05374
646.12968,0.05282
644.20093,0.05228
642.27219,0.05238
640.34344,0.05251
638.41470,0.05255
636.48595,0.05293
634.55721,0.05332
632.62846,0.05280
630.69972,0.05116
628.77097,0.04959
626.84222,0.04916
624.91348,0.04946
622.98473,0.05000
621.05599,0.05053
619.12724,0.05045
617.19850,0.04988
615.26975,0.04928
613.34101,0.04864
611.41226,0.04845
609.48352,0.04922
607.55477,0.05036
605.62603,0.05104
603.69728,0.05135
601.76854,0.05168
599.83979,0.05181
