7497.03301,0.65813
7495.10426,0.65905
7493.17552,0.65983
7491.24677,0.66171
7489.31803,0.66147
7487.38928,0.65986
7485.46054,0.66108
7483.53179,0.66228
7481.60305,0.66013
7479.67430,0.65774
7477.74556,0.65520
7475.81681,0.65115
7473.88807,0.64902
7471.95932,0.64903
7470.03057,0.64748
7468.10183,0.64655
7466.17308,0.64987
7464.24434,0.65327
7462.31559,0.65171
7460.38685,0.64777
7458.45810,0.64782
7456.52936,0.65196
7454.60061,0.65373
7452.67187,0.65229
7450.74312,0.65147
7448.81438,0.64997
7446.88563,0.64595
7444.95689,0.64111
7443.02814,0.63661
7441.09940,0.63429
7439.17065,0.63702
7437.24190,0.64278
7435.31316,0.64538
7433.38441,0.64241
7431.45567,0.63869
7429.52692,0.63781
7427.59818,0.63813
7425.66943,0.63926
7423.74069,0.64078
7421.81194,0.64141
7419.88320,0.64089
7417.95445,0.63894
7416.02571,0.63773
7414.09696,0.63786
7412.16822,0.63534
7410.23947,0.62875
7408.31073,0.62297
7406.38198,0.62405
7404.45323,0.62841
7402.52449,0.62744
7400.59574,0.62494
7398.66700,0.62890
7396.73825,0.63507
7394.80951,0.63531
7392.88076,0.62992
7390.95202,0.62611
7389.02327,0.62709
7387.09453,0.62733
7385.16578,0.62382
7383.23704,0.62039
7381.30829,0.61897
7379.37955,0.61798
7377.45080,0.61757
7375.52205,0.61927
7373.59331,0.62191
7371.66456,0.62211
7369.73582,0.61846
7367.80707,0.61434
7365.87833,0.61393
7363.94958,0.61835
7362.02084,0.62514
7360.09209,0.62560
7358.16335,0.61696
7356.23460,0.60971
7354.30586,0.60992
7352.37711,0.61436
7350.44837,0.62089
7348.51962,0.62772
7346.59088,0.62848
7344.66213,0.62224
7342.73338,0.61794
7340.80464,0.61948
7338.87589,0.62089
7336.94715,0.61730
7335.01840,0.61084
7333.08966,0.60530
7331.16091,0.60157
7329.23217,0.60169
7327.30342,0.60542
7325.37468,0.60580
7323.44593,0.60156
7321.51719,0.60081
7319.58844,0.60645
7317.65970,0.61281
7315.73095,0.61533
7313.80221,0.61345
7311.87346,0.60841
7309.94471,0.60295
7308.01597,0.60061
7306.08722,0.60194
7304.15848,0.60406
7302.22973,0.60552
7300.30099,0.60589
7298.37224,0.60615
7296.44350,0.60764
7294.51475,0.60799
7292.58601,0.60664
7290.65726,0.60506
7288.72852,0.60140
7286.79977,0.59706
7284.87103,0.59695
7282.94228,0.60078
7281.01353,0.60360
7279.08479,0.60173
7277.15604,0.59678
7275.22730,0.59502
7273.29855,0.59806
7271.36981,0.60143
7269.44106,0.60237
7267.51232,0.60145
7265.58357,0.60219
7263.65483,0.60481
7261.72608,0.60465
7259.79734,0.60350
7257.86859,0.60450
7255.93985,0.60493
7254.01110,0.60406
7252.08236,0.60173
7250.15361,0.59694
7248.22486,0.59307
7246.29612,0.59411
7244.36737,0.59934
7242.43863,0.60356
7240.50988,0.60290
7238.58114,0.59970
7236.65239,0.59867
7234.72365,0.60195
7232.79490,0.60801
7230.86616,0.61255
7228.93741,0.61218
7227.00867,0.60769
7225.07992,0.60307
7223.15118,0.60060
7221.22243,0.59912
7219.29369,0.59843
7217.36494,0.59899
7215.43619,0.60090
7213.50745,0.60541
7211.57870,0.60997
7209.64996,0.61001
7207.72121,0.60554
7205.79247,0.60033
7203.86372,0.59859
7201.93498,0.60002
7200.00623,0.60113
7198.07749,0.60056
7196.14874,0.59898
7194.22000,0.59809
7192.29125,0.59794
7190.36251,0.59711
7188.43376,0.59589
7186.50501,0.59569
7184.57627,0.59740
7182.64752,0.59876
7180.71878,0.59686
7178.79003,0.59380
7176.86129,0.59312
7174.93254,0.59532
7173.00380,0.59730
7171.07505,0.59599
7169.14631,0.59349
7167.21756,0.59222
7165.28882,0.59272
7163.36007,0.59443
7161.43133,0.59341
7159.50258,0.59043
7157.57384,0.59027
7155.64509,0.59078
7153.71634,0.58872
7151.78760,0.58708
7149.85885,0.58898
7147.93011,0.59146
7146.00136,0.58952
7144.07262,0.58507
7142.14387,0.58376
7140.21513,0.58575
7138.28638,0.58742
7136.35764,0.58674
7134.42889,0.58496
7132.50015,0.58269
7130.57140,0.57699
7128.64266,0.57011
7126.71391,0.56864
7124.78516,0.57135
7122.85642,0.57142
7120.92767,0.56806
7118.99893,0.56615
7117.07018,0.56636
7115.14144,0.56671
7113.21269,0.56670
7111.28395,0.56354
7109.35520,0.55809
7107.42646,0.55637
7105.49771,0.55805
7103.56897,0.55781
7101.64022,0.55580
7099.71148,0.55449
7097.78273,0.55343
7095.85399,0.55290
7093.92524,0.55225
7091.99649,0.54838
7090.06775,0.54301
7088.13900,0.54158
7086.21026,0.54297
7084.28151,0.54186
7082.35277,0.54019
7080.42402,0.54288
7078.49528,0.54684
7076.56653,0.54430
7074.63779,0.53672
7072.70904,0.53322
7070.78030,0.53449
7068.85155,0.53447
7066.92281,0.53175
7064.99406,0.52871
7063.06532,0.52590
7061.13657,0.52147
7059.20782,0.51540
7057.27908,0.51034
7055.35033,0.50872
7053.42159,0.51043
7051.49284,0.51211
7049.56410,0.50988
7047.63535,0.50487
7045.70661,0.50169
7043.77786,0.50125
7041.84912,0.50176
7039.92037,0.50164
7037.99163,0.49950
7036.06288,0.49665
7034.13414,0.49438
7032.20539,0.49069
7030.27664,0.48566
7028.34790,0.48338
7026.41915,0.48485
7024.49041,0.48595
7022.56166,0.48428
7020.63292,0.48190
7018.70417,0.48113
7016.77543,0.48074
7014.84668,0.47855
7012.91794,0.47668
7010.98919,0.47726
7009.06045,0.47799
7007.13170,0.47680
7005.20296,0.47481
7003.27421,0.47370
7001.34547,0.47370
6999.41672,0.47337
6997.48797,0.47158
6995.55923,0.46895
6993.63048,0.46606
6991.70174,0.46388
6989.77299,0.46427
6987.84425,0.46588
6985.91550,0.46555
6983.98676,0.46356
6982.05801,0.46288
6980.12927,0.46451
6978.20052,0.46538
6976.27178,0.46417
6974.34303,0.46378
6972.41429,0.46409
6970.48554,0.46217
6968.55680,0.45743
6966.62805,0.45283
6964.69930,0.45157
6962.77056,0.45244
6960.84181,0.45234
6958.91307,0.45221
6956.98432,0.45402
6955.05558,0.45509
6953.12683,0.45368
6951.19809,0.45336
6949.26934,0.45524
6947.34060,0.45668
6945.41185,0.45587
6943.48311,0.45263
6941.55436,0.44954
6939.62562,0.44954
6937.69687,0.45230
6935.76812,0.45596
6933.83938,0.45828
6931.91063,0.45786
6929.98189,0.45685
6928.05314,0.45702
6926.12440,0.45668
6924.19565,0.45501
6922.26691,0.45284
6920.33816,0.45159
6918.40942,0.45280
6916.48067,0.45513
6914.55193,0.45556
6912.62318,0.45462
6910.69444,0.45407
6908.76569,0.45307
6906.83695,0.45260
6904.90820,0.45377
6902.97945,0.45418
6901.05071,0.45384
6899.12196,0.45464
6897.19322,0.45543
6895.26447,0.45352
6893.33573,0.44984
6891.40698,0.44887
6889.47824,0.45053
6887.54949,0.45117
6885.62075,0.45091
6883.69200,0.45197
6881.76326,0.45451
6879.83451,0.45723
6877.90577,0.45801
6875.97702,0.45544
6874.04828,0.45228
6872.11953,0.45232
6870.19078,0.45465
6868.26204,0.45603
6866.33329,0.45568
6864.40455,0.45589
6862.47580,0.45735
6860.54706,0.45687
6858.61831,0.45347
6856.68957,0.44992
6854.76082,0.44772
6852.83208,0.44746
6850.90333,0.45088
6848.97459,0.45580
6847.04584,0.45574
6845.11710,0.45066
6843.18835,0.44712
6841.25960,0.44796
6839.33086,0.45128
6837.40211,0.45452
6835.47337,0.45581
6833.54462,0.45472
6831.61588,0.45254
6829.68713,0.45163
6827.75839,0.45345
6825.82964,0.45581
6823.90090,0.45482
6821.97215,0.45178
6820.04341,0.45242
6818.11466,0.45725
6816.18592,0.45957
6814.25717,0.45565
6812.32843,0.45029
6810.39968,0.44934
6808.47093,0.45273
6806.54219,0.45609
6804.61344,0.45554
6802.68470,0.45158
6800.75595,0.44935
6798.82721,0.45130
6796.89846,0.45224
6794.96972,0.44942
6793.04097,0.44688
6791.11223,0.44748
6789.18348,0.45027
6787.25474,0.45136
6785.32599,0.44928
6783.39725,0.44698
6781.46850,0.44621
6779.53975,0.44762
6777.61101,0.45144
6775.68226,0.45516
6773.75352,0.45546
6771.82477,0.45332
6769.89603,0.45307
6767.96728,0.45455
6766.03854,0.45369
6764.10979,0.45025
6762.18105,0.44832
6760.25230,0.44981
6758.32356,0.45243
6756.39481,0.45332
6754.46607,0.45189
6752.53732,0.44975
6750.60858,0.44891
6748.67983,0.45017
6746.75108,0.45129
6744.82234,0.45014
6742.89359,0.44911
6740.96485,0.45051
6739.03610,0.45298
6737.10736,0.45481
6735.17861,0.45544
6733.24987,0.45349
6731.32112,0.44943
6729.39238,0.44647
6727.46363,0.44659
6725.53489,0.44899
6723.60614,0.45026
6721.67740,0.44953
6719.74865,0.44933
6717.81991,0.45025
6715.89116,0.45163
6713.96241,0.45338
6712.03367,0.45605
6710.10492,0.45850
6708.17618,0.45818
6706.24743,0.45619
6704.31869,0.45612
6702.38994,0.45831
6700.46120,0.45889
6698.53245,0.45706
6696.60371,0.45671
6694.67496,0.45822
6692.74622,0.45876
6690.81747,0.45835
6688.88873,0.45823
6686.95998,0.45839
6685.03123,0.46000
6683.10249,0.46238
6681.17374,0.46210
6679.24500,0.46034
6677.31625,0.46055
6675.38751,0.46208
6673.45876,0.46356
6671.53002,0.46444
6669.60127,0.46294
6667.67253,0.45999
6665.74378,0.45967
6663.81504,0.46095
6661.88629,0.46040
6659.95755,0.45996
6658.02880,0.46159
6656.10006,0.46377
6654.17131,0.46490
6652.24256,0.46419
6650.31382,0.46309
6648.38507,0.46301
6646.45633,0.46203
6644.52758,0.45929
6642.59884,0.45687
6640.67009,0.45639
6638.74135,0.45787
6636.81260,0.46042
6634.88386,0.46289
6632.95511,0.46482
6631.02637,0.46658
6629.09762,0.46707
6627.16888,0.46525
6625.24013,0.46319
6623.31139,0.46369
6621.38264,0.46633
6619.45389,0.46821
6617.52515,0.46885
6615.59640,0.46929
6613.66766,0.46975
6611.73891,0.47146
6609.81017,0.47375
6607.88142,0.47344
6605.95268,0.47138
6604.02393,0.47145
6602.09519,0.47304
6600.16644,0.47207
6598.23770,0.46920
6596.30895,0.46932
6594.38021,0.47216
6592.45146,0.47383
6590.52271,0.47382
6588.59397,0.47254
6586.66522,0.47036
6584.73648,0.46963
6582.80773,0.47143
6580.87899,0.47401
6578.95024,0.47533
6577.02150,0.47502
6575.09275,0.47475
6573.16401,0.47551
6571.23526,0.47552
6569.30652,0.47409
6567.37777,0.47370
6565.44903,0.47521
6563.52028,0.47626
6561.59154,0.47552
6559.66279,0.47489
6557.73404,0.47603
6555.80530,0.47758
6553.87655,0.47806
6551.94781,0.47798
6550.01906,0.47739
6548.09032,0.47664
6546.16157,0.47827
6544.23283,0.48257
6542.30408,0.48625
6540.37534,0.48588
6538.44659,0.48158
6536.51785,0.47870
6534.58910,0.48047
6532.66036,0.48314
6530.73161,0.48271
6528.80287,0.48129
6526.87412,0.48203
6524.94537,0.48257
6523.01663,0.48181
6521.08788,0.48121
6519.15914,0.47968
6517.23039,0.47747
6515.30165,0.47636
6513.37290,0.47730
6511.44416,0.48043
6509.51541,0.48342
6507.58667,0.48330
6505.65792,0.48019
6503.72918,0.47691
6501.80043,0.47557
6499.87169,0.47583
6497.94294,0.47618
6496.01419,0.47641
6494.08545,0.47755
6492.15670,0.47952
6490.22796,0.48082
6488.29921,0.48034
6486.37047,0.47910
6484.44172,0.47842
6482.51298,0.47860
6480.58423,0.48076
6478.65549,0.48362
6476.72674,0.48425
6474.79800,0.48391
6472.86925,0.48391
6470.94051,0.48304
6469.01176,0.48238
6467.08302,0.48313
6465.15427,0.48434
6463.22552,0.48559
6461.29678,0.48573
6459.36803,0.48352
6457.43929,0.48129
6455.51054,0.48136
6453.58180,0.48286
6451.65305,0.48438
6449.72431,0.48494
6447.79556,0.48495
6445.86682,0.48592
6443.93807,0.48630
6442.00933,0.48403
6440.08058,0.48204
6438.15184,0.48254
6436.22309,0.48369
6434.29434,0.48492
6432.36560,0.48664
6430.43685,0.48794
6428.50811,0.48776
6426.57936,0.48668
6424.65062,0.48626
6422.72187,0.48578
6420.79313,0.48386
6418.86438,0.48253
6416.93564,0.48440
6415.00689,0.48763
6413.07815,0.48876
6411.14940,0.48849
6409.22066,0.48930
6407.29191,0.49026
6405.36317,0.48928
6403.43442,0.48775
6401.50567,0.48799
6399.57693,0.48981
6397.64818,0.49221
6395.71944,0.49365
6393.79069,0.49237
6391.86195,0.48900
6389.93320,0.48685
6388.00446,0.48759
6386.07571,0.48950
6384.14697,0.49087
6382.21822,0.49151
6380.28948,0.49250
6378.36073,0.49396
6376.43199,0.49404
6374.50324,0.49257
6372.57450,0.49053
6370.64575,0.48871
6368.71700,0.48810
6366.78826,0.48866
6364.85951,0.49007
6362.93077,0.49170
6361.00202,0.49310
6359.07328,0.49451
6357.14453,0.49532
6355.21579,0.49598
6353.28704,0.49696
6351.35830,0.49642
6349.42955,0.49400
6347.50081,0.49224
6345.57206,0.49297
6343.64332,0.49476
6341.71457,0.49534
6339.78582,0.49485
6337.85708,0.49451
6335.92833,0.49450
6333.99959,0.49365
6332.07084,0.49190
6330.14210,0.49115
6328.21335,0.49231
6326.28461,0.49532
6324.35586,0.49841
6322.42712,0.49902
6320.49837,0.49772
6318.56963,0.49658
6316.64088,0.49668
6314.71214,0.49812
6312.78339,0.50007
6310.85465,0.50085
6308.92590,0.49898
6306.99715,0.49639
6305.06841,0.49664
6303.13966,0.49858
6301.21092,0.49892
6299.28217,0.49883
6297.35343,0.50010
6295.42468,0.50067
6293.49594,0.49948
6291.56719,0.49921
6289.63845,0.50100
6287.70970,0.50176
6285.78096,0.50107
6283.85221,0.50184
6281.92347,0.50268
6279.99472,0.50197
6278.06598,0.50175
6276.13723,0.50187
6274.20848,0.50124
6272.27974,0.50143
6270.35099,0.50370
6268.42225,0.50648
6266.49350,0.50708
6264.56476,0.50548
6262.63601,0.50380
6260.70727,0.50328
6258.77852,0.50402
6256.84978,0.50535
6254.92103,0.50713
6252.99229,0.50940
6251.06354,0.51138
6249.13480,0.51290
6247.20605,0.51403
6245.27730,0.51478
6243.34856,0.51580
6241.41981,0.51695
6239.49107,0.51756
6237.56232,0.51759
6235.63358,0.51704
6233.70483,0.51692
6231.77609,0.51878
6229.84734,0.52151
6227.91860,0.52271
6225.98985,0.52194
6224.06111,0.52063
6222.13236,0.52027
6220.20362,0.52011
6218.27487,0.51885
6216.34613,0.51857
6214.41738,0.52050
6212.48863,0.52179
6210.55989,0.52183
6208.63114,0.52287
6206.70240,0.52527
6204.77365,0.52781
6202.84491,0.52938
6200.91616,0.53038
6198.98742,0.53166
6197.05867,0.53230
6195.12993,0.53191
6193.20118,0.53221
6191.27244,0.53329
6189.34369,0.53304
6187.41495,0.53253
6185.48620,0.53421
6183.55746,0.53630
6181.62871,0.53570
6179.69996,0.53338
6177.77122,0.53244
6175.84247,0.53424
6173.91373,0.53739
6171.98498,0.53792
6170.05624,0.53558
6168.12749,0.53529
6166.19875,0.53757
6164.27000,0.53945
6162.34126,0.54034
6160.41251,0.54034
6158.48377,0.53996
6156.55502,0.54008
6154.62628,0.54074
6152.69753,0.54145
6150.76878,0.54138
6148.84004,0.54024
6146.91129,0.54052
6144.98255,0.54379
6143.05380,0.54696
6141.12506,0.54795
6139.19631,0.54764
6137.26757,0.54663
6135.33882,0.54574
6133.41008,0.54531
6131.48133,0.54492
6129.55259,0.54455
6127.62384,0.54439
6125.69510,0.54482
6123.76635,0.54588
6121.83761,0.54753
6119.90886,0.54926
6117.98011,0.54907
6116.05137,0.54712
6114.12262,0.54607
6112.19388,0.54641
6110.26513,0.54772
6108.33639,0.54928
6106.40764,0.54922
6104.47890,0.54798
6102.55015,0.54804
6100.62141,0.54957
6098.69266,0.54988
6096.76392,0.54742
6094.83517,0.54495
6092.90643,0.54571
6090.97768,0.54806
6089.04893,0.54891
6087.12019,0.54844
6085.19144,0.54780
6083.26270,0.54784
6081.33395,0.54888
6079.40521,0.54899
6077.47646,0.54726
6075.54772,0.54610
6073.61897,0.54659
6071.69023,0.54677
6069.76148,0.54640
6067.83274,0.54706
6065.90399,0.54854
6063.97525,0.54978
6062.04650,0.55009
6060.11776,0.54967
6058.18901,0.54962
6056.26026,0.54891
6054.33152,0.54669
6052.40277,0.54542
6050.47403,0.54584
6048.54528,0.54611
6046.61654,0.54599
6044.68779,0.54561
6042.75905,0.54471
6040.83030,0.54450
6038.90156,0.54551
6036.97281,0.54673
6035.04407,0.54745
6033.11532,0.54711
6031.18658,0.54572
6029.25783,0.54400
6027.32909,0.54269
6025.40034,0.54237
6023.47159,0.54259
6021.54285,0.54233
6019.61410,0.54166
6017.68536,0.54128
6015.75661,0.54063
6013.82787,0.53988
6011.89912,0.53982
6009.97038,0.53919
6008.04163,0.53840
6006.11289,0.53868
6004.18414,0.53870
6002.25540,0.53793
6000.32665,0.53665
5998.39791,0.53561
5996.46916,0.53630
5994.54041,0.53730
5992.61167,0.53677
5990.68292,0.53598
5988.75418,0.53543
5986.82543,0.53477
5984.89669,0.53470
5982.96794,0.53480
5981.03920,0.53464
5979.11045,0.53490
5977.18171,0.53481
5975.25296,0.53359
5973.32422,0.53236
5971.39547,0.53176
5969.46673,0.53102
5967.53798,0.52975
5965.60924,0.52822
5963.68049,0.52711
5961.75174,0.52724
5959.82300,0.52885
5957.89425,0.53103
5955.96551,0.53188
5954.03676,0.53134
5952.10802,0.53050
5950.17927,0.52933
5948.25053,0.52846
5946.32178,0.52799
5944.39304,0.52682
5942.46429,0.52561
5940.53555,0.52581
5938.60680,0.52726
5936.67806,0.52798
5934.74931,0.52672
5932.82057,0.52575
5930.89182,0.52715
5928.96307,0.52853
5927.03433,0.52717
5925.10558,0.52475
5923.17684,0.52394
5921.24809,0.52462
5919.31935,0.52528
5917.39060,0.52545
5915.46186,0.52641
5913.53311,0.52787
5911.60437,0.52742
5909.67562,0.52535
5907.74688,0.52354
5905.81813,0.52211
5903.88939,0.52091
5901.96064,0.52048
5900.03189,0.52040
5898.10315,0.51968
5896.17440,0.51878
5894.24566,0.51836
5892.31691,0.51775
5890.38817,0.51651
5888.45942,0.51546
5886.53068,0.51543
5884.60193,0.51594
5882.67319,0.51643
5880.74444,0.51683
5878.81570,0.51652
5876.88695,0.51557
5874.95821,0.51542
5873.02946,0.51612
5871.10072,0.51559
5869.17197,0.51327
5867.24322,0.51110
5865.31448,0.51003
5863.38573,0.50995
5861.45699,0.51095
5859.52824,0.51279
5857.59950,0.51464
5855.67075,0.51541
5853.74201,0.51487
5851.81326,0.51359
5849.88452,0.51253
5847.95577,0.51240
5846.02703,0.51245
5844.09828,0.51239
5842.16954,0.51276
5840.24079,0.51274
5838.31205,0.51164
5836.38330,0.51025
5834.45455,0.50953
5832.52581,0.50954
5830.59706,0.50990
5828.66832,0.51029
5826.73957,0.50994
5824.81083,0.50857
5822.88208,0.50707
5820.95334,0.50579
5819.02459,0.50435
5817.09585,0.50248
5815.16710,0.50016
5813.23836,0.49859
5811.30961,0.49890
5809.38087,0.49982
5807.45212,0.49985
5805.52337,0.49929
5803.59463,0.49921
5801.66588,0.50017
5799.73714,0.50123
5797.80839,0.50144
5795.87965,0.50112
5793.95090,0.50103
5792.02216,0.50150
5790.09341,0.50208
5788.16467,0.50257
5786.23592,0.50337
5784.30718,0.50390
5782.37843,0.50367
5780.44969,0.50358
5778.52094,0.50431
5776.59220,0.50533
5774.66345,0.50585
5772.73470,0.50591
5770.80596,0.50636
5768.87721,0.50712
5766.94847,0.50777
5765.01972,0.50906
5763.09098,0.51110
5761.16223,0.51259
5759.23349,0.51301
5757.30474,0.51312
5755.37600,0.51351
5753.44725,0.51422
5751.51851,0.51512
5749.58976,0.51539
5747.66102,0.51475
5745.73227,0.51440
5743.80352,0.51477
5741.87478,0.51502
5739.94603,0.51523
5738.01729,0.51598
5736.08854,0.51659
5734.15980,0.51650
5732.23105,0.51622
5730.30231,0.51623
5728.37356,0.51671
5726.44482,0.51704
5724.51607,0.51620
5722.58733,0.51468
5720.65858,0.51396
5718.72984,0.51457
5716.80109,0.51569
5714.87235,0.51644
5712.94360,0.51639
5711.01485,0.51549
5709.08611,0.51454
5707.15736,0.51453
5705.22862,0.51551
5703.29987,0.51647
5701.37113,0.51641
5699.44238,0.51575
5697.51364,0.51513
5695.58489,0.51458
5693.65615,0.51469
5691.72740,0.51573
5689.79866,0.51688
5687.86991,0.51699
5685.94117,0.51574
5684.01242,0.51434
5682.08368,0.51367
5680.15493,0.51305
5678.22618,0.51254
5676.29744,0.51267
5674.36869,0.51295
5672.43995,0.51332
5670.51120,0.51413
5668.58246,0.51486
5666.65371,0.51452
5664.72497,0.51347
5662.79622,0.51336
5660.86748,0.51330
5658.93873,0.51202
5657.00999,0.51204
5655.08124,0.51437
5653.15250,0.51630
5651.22375,0.51663
5649.29500,0.51529
5647.36626,0.51260
5645.43751,0.51084
5643.50877,0.51158
5641.58002,0.51342
5639.65128,0.51417
5637.72253,0.51356
5635.79379,0.51260
5633.86504,0.51197
5631.93630,0.51232
5630.00755,0.51379
5628.07881,0.51506
5626.15006,0.51489
5624.22132,0.51422
5622.29257,0.51441
5620.36383,0.51487
5618.43508,0.51500
5616.50633,0.51472
5614.57759,0.51367
5612.64884,0.51305
5610.72010,0.51354
5608.79135,0.51371
5606.86261,0.51346
5604.93386,0.51373
5603.00512,0.51453
5601.07637,0.51556
5599.14763,0.51622
5597.21888,0.51607
5595.29014,0.51524
5593.36139,0.51424
5591.43265,0.51412
5589.50390,0.51537
5587.57516,0.51669
5585.64641,0.51672
5583.71766,0.51615
5581.78892,0.51576
5579.86017,0.51513
5577.93143,0.51470
5576.00268,0.51544
5574.07394,0.51672
5572.14519,0.51710
5570.21645,0.51674
5568.28770,0.51688
5566.35896,0.51773
5564.43021,0.51868
5562.50147,0.51914
5560.57272,0.51945
5558.64398,0.52018
5556.71523,0.52076
5554.78648,0.52054
5552.85774,0.51965
5550.92899,0.51917
5549.00025,0.52008
5547.07150,0.52164
5545.14276,0.52212
5543.21401,0.52078
5541.28527,0.51893
5539.35652,0.51871
5537.42778,0.51992
5535.49903,0.52058
5533.57029,0.52051
5531.64154,0.52081
5529.71280,0.52111
5527.78405,0.52053
5525.85531,0.51947
5523.92656,0.51916
5521.99781,0.51960
5520.06907,0.51980
5518.14032,0.51973
5516.21158,0.52018
5514.28283,0.52113
5512.35409,0.52201
5510.42534,0.52285
5508.49660,0.52376
5506.56785,0.52388
5504.63911,0.52282
5502.71036,0.52177
5500.78162,0.52131
5498.85287,0.52085
5496.92413,0.52055
5494.99538,0.52067
5493.06664,0.52109
5491.13789,0.52204
5489.20914,0.52343
5487.28040,0.52471
5485.35165,0.52486
5483.42291,0.52365
5481.49416,0.52249
5479.56542,0.52251
5477.63667,0.52314
5475.70793,0.52340
5473.77918,0.52309
5471.85044,0.52292
5469.92169,0.52350
5467.99295,0.52455
5466.06420,0.52547
5464.13546,0.52571
5462.20671,0.52500
5460.27796,0.52453
5458.34922,0.52510
5456.42047,0.52577
5454.49173,0.52604
5452.56298,0.52618
5450.63424,0.52637
5448.70549,0.52696
5446.77675,0.52781
5444.84800,0.52833
5442.91926,0.52851
5440.99051,0.52911
5439.06177,0.53006
5437.13302,0.53020
5435.20428,0.52948
5433.27553,0.52912
5431.34679,0.52964
5429.41804,0.53089
5427.48929,0.53235
5425.56055,0.53315
5423.63180,0.53340
5421.70306,0.53382
5419.77431,0.53434
5417.84557,0.53468
5415.91682,0.53488
5413.98808,0.53529
5412.05933,0.53637
5410.13059,0.53772
5408.20184,0.53871
5406.27310,0.53930
5404.34435,0.53940
5402.41561,0.53900
5400.48686,0.53840
5398.55811,0.53770
5396.62937,0.53722
5394.70062,0.53746
5392.77188,0.53847
5390.84313,0.53992
5388.91439,0.54084
5386.98564,0.54028
5385.05690,0.53939
5383.12815,0.53981
5381.19941,0.54091
5379.27066,0.54152
5377.34192,0.54147
5375.41317,0.54094
5373.48443,0.54031
5371.55568,0.54015
5369.62694,0.54045
5367.69819,0.54071
5365.76944,0.54084
5363.84070,0.54082
5361.91195,0.54075
5359.98321,0.54063
5358.05446,0.54017
5356.12572,0.53961
5354.19697,0.53912
5352.26823,0.53845
5350.33948,0.53833
5348.41074,0.53922
5346.48199,0.53981
5344.55325,0.53954
5342.62450,0.53932
5340.69576,0.53923
5338.76701,0.53910
5336.83827,0.53884
5334.90952,0.53794
5332.98077,0.53679
5331.05203,0.53620
5329.12328,0.53622
5327.19454,0.53645
5325.26579,0.53636
5323.33705,0.53566
5321.40830,0.53462
5319.47956,0.53341
5317.55081,0.53198
5315.62207,0.53056
5313.69332,0.52937
5311.76458,0.52851
5309.83583,0.52776
5307.90709,0.52654
5305.97834,0.52469
5304.04959,0.52273
5302.12085,0.52134
5300.19210,0.52031
5298.26336,0.51860
5296.33461,0.51607
5294.40587,0.51369
5292.47712,0.51171
5290.54838,0.50898
5288.61963,0.50542
5286.69089,0.50260
5284.76214,0.50095
5282.83340,0.49919
5280.90465,0.49653
5278.97591,0.49360
5277.04716,0.49077
5275.11842,0.48770
5273.18967,0.48439
5271.26092,0.48137
5269.33218,0.47877
5267.40343,0.47572
5265.47469,0.47147
5263.54594,0.46696
5261.61720,0.46368
5259.68845,0.46152
5257.75971,0.45944
5255.83096,0.45659
5253.90222,0.45268
5251.97347,0.44907
5250.04473,0.44687
5248.11598,0.44508
5246.18724,0.44333
5244.25849,0.44202
5242.32975,0.44026
5240.40100,0.43745
5238.47225,0.43457
5236.54351,0.43262
5234.61476,0.43092
5232.68602,0.42861
5230.75727,0.42687
5228.82853,0.42657
5226.89978,0.42618
5224.97104,0.42475
5223.04229,0.42322
5221.11355,0.42189
5219.18480,0.42054
5217.25606,0.41984
5215.32731,0.41982
5213.39857,0.41963
5211.46982,0.41933
5209.54107,0.41919
5207.61233,0.41861
5205.68358,0.41738
5203.75484,0.41620
5201.82609,0.41563
5199.89735,0.41570
5197.96860,0.41623
5196.03986,0.41695
5194.11111,0.41739
5192.18237,0.41727
5190.25362,0.41699
5188.32488,0.41701
5186.39613,0.41735
5184.46739,0.41774
5182.53864,0.41814
5180.60990,0.41873
5178.68115,0.41915
5176.75240,0.41933
5174.82366,0.41973
5172.89491,0.42028
5170.96617,0.42089
5169.03742,0.42181
5167.10868,0.42292
5165.17993,0.42391
5163.25119,0.42473
5161.32244,0.42590
5159.39370,0.42748
5157.46495,0.42866
5155.53621,0.42961
5153.60746,0.43097
5151.67872,0.43213
5149.74997,0.43253
5147.82123,0.43276
5145.89248,0.43347
5143.96373,0.43460
5142.03499,0.43588
5140.10624,0.43719
5138.17750,0.43813
5136.24875,0.43857
5134.32001,0.43913
5132.39126,0.43989
5130.46252,0.44043
5128.53377,0.44115
5126.60503,0.44246
5124.67628,0.44404
5122.74754,0.44567
5120.81879,0.44711
5118.89005,0.44753
5116.96130,0.44694
5115.03255,0.44667
5113.10381,0.44767
5111.17506,0.44937
5109.24632,0.45068
5107.31757,0.45147
5105.38883,0.45211
5103.46008,0.45287
5101.53134,0.45418
5099.60259,0.45564
5097.67385,0.45635
5095.74510,0.45662
5093.81636,0.45713
5091.88761,0.45775
5089.95887,0.45823
5088.03012,0.45872
5086.10138,0.45939
5084.17263,0.46049
5082.24388,0.46198
5080.31514,0.46327
5078.38639,0.46400
5076.45765,0.46471
5074.52890,0.46588
5072.60016,0.46697
5070.67141,0.46708
5068.74267,0.46656
5066.81392,0.46666
5064.88518,0.46775
5062.95643,0.46915
5061.02769,0.47026
5059.09894,0.47087
5057.17020,0.47137
5055.24145,0.47217
5053.31270,0.47316
5051.38396,0.47417
5049.45521,0.47474
5047.52647,0.47484
5045.59772,0.47492
5043.66898,0.47508
5041.74023,0.47542
5039.81149,0.47605
5037.88274,0.47673
5035.95400,0.47698
5034.02525,0.47689
5032.09651,0.47708
5030.16776,0.47746
5028.23902,0.47754
5026.31027,0.47740
5024.38153,0.47757
5022.45278,0.47814
5020.52403,0.47845
5018.59529,0.47814
5016.66654,0.47766
5014.73780,0.47732
5012.80905,0.47701
5010.88031,0.47675
5008.95156,0.47662
5007.02282,0.47643
5005.09407,0.47627
5003.16533,0.47629
5001.23658,0.47609
4999.30784,0.47547
4997.37909,0.47469
4995.45035,0.47384
4993.52160,0.47321
4991.59286,0.47309
4989.66411,0.47294
4987.73536,0.47222
4985.80662,0.47121
4983.87787,0.47009
4981.94913,0.46890
4980.02038,0.46774
4978.09164,0.46653
4976.16289,0.46538
4974.23415,0.46420
4972.30540,0.46252
4970.37666,0.46074
4968.44791,0.45970
4966.51917,0.45904
4964.59042,0.45770
4962.66168,0.45553
4960.73293,0.45348
4958.80418,0.45191
4956.87544,0.45025
4954.94669,0.44832
4953.01795,0.44655
4951.08920,0.44474
4949.16046,0.44257
4947.23171,0.44020
4945.30297,0.43777
4943.37422,0.43580
4941.44548,0.43465
4939.51673,0.43351
4937.58799,0.43161
4935.65924,0.42945
4933.73050,0.42770
4931.80175,0.42602
4929.87301,0.42388
4927.94426,0.42132
4926.01551,0.41866
4924.08677,0.41613
4922.15802,0.41375
4920.22928,0.41186
4918.30053,0.41070
4916.37179,0.40963
4914.44304,0.40791
4912.51430,0.40571
4910.58555,0.40380
4908.65681,0.40237
4906.72806,0.40093
4904.79932,0.39922
4902.87057,0.39716
4900.94183,0.39496
4899.01308,0.39342
4897.08434,0.39254
4895.15559,0.39131
4893.22684,0.38935
4891.29810,0.38713
4889.36935,0.38514
4887.44061,0.38344
4885.51186,0.38182
4883.58312,0.38032
4881.65437,0.37891
4879.72563,0.37762
4877.79688,0.37655
4875.86814,0.37518
4873.93939,0.37315
4872.01065,0.37119
4870.08190,0.36999
4868.15316,0.36894
4866.22441,0.36762
4864.29566,0.36659
4862.36692,0.36567
4860.43817,0.36427
4858.50943,0.36266
4856.58068,0.36137
4854.65194,0.36058
4852.72319,0.35958
4850.79445,0.35798
4848.86570,0.35666
4846.93696,0.35585
4845.00821,0.35477
4843.07947,0.35320
4841.15072,0.35195
4839.22198,0.35126
4837.29323,0.35047
4835.36449,0.34954
4833.43574,0.34875
4831.50699,0.34795
4829.57825,0.34690
4827.64950,0.34529
4825.72076,0.34357
4823.79201,0.34268
4821.86327,0.34224
4819.93452,0.34143
4818.00578,0.34060
4816.07703,0.34028
4814.14829,0.34009
4812.21954,0.33935
4810.29080,0.33816
4808.36205,0.33721
4806.43331,0.33675
4804.50456,0.33655
4802.57582,0.33625
4800.64707,0.33602
4798.71832,0.33620
4796.78958,0.33621
4794.86083,0.33563
4792.93209,0.33480
4791.00334,0.33407
4789.07460,0.33364
4787.14585,0.33350
4785.21711,0.33352
4783.28836,0.33361
4781.35962,0.33356
4779.43087,0.33322
4777.50213,0.33316
4775.57338,0.33361
4773.64464,0.33345
4771.71589,0.33226
4769.78714,0.33107
4767.85840,0.33039
4765.92965,0.33028
4764.00091,0.33090
4762.07216,0.33171
4760.14342,0.33183
4758.21467,0.33130
4756.28593,0.33090
4754.35718,0.33093
4752.42844,0.33113
4750.49969,0.33162
4748.57095,0.33226
4746.64220,0.33255
4744.71346,0.33246
4742.78471,0.33212
4740.85597,0.33195
4738.92722,0.33244
4736.99847,0.33325
4735.06973,0.33365
4733.14098,0.33339
4731.21224,0.33296
4729.28349,0.33311
4727.35475,0.33397
4725.42600,0.33473
4723.49726,0.33472
4721.56851,0.33447
4719.63977,0.33467
4717.71102,0.33505
4715.78228,0.33542
4713.85353,0.33605
4711.92479,0.33676
4709.99604,0.33719
4708.06729,0.33739
4706.13855,0.33758
4704.20980,0.33774
4702.28106,0.33770
4700.35231,0.33800
4698.42357,0.33915
4696.49482,0.34017
4694.56608,0.34012
4692.63733,0.33983
4690.70859,0.34022
4688.77984,0.34101
4686.85110,0.34174
4684.92235,0.34244
4682.99361,0.34315
4681.06486,0.34374
4679.13612,0.34412
4677.20737,0.34456
4675.27862,0.34536
4673.34988,0.34626
4671.42113,0.34690
4669.49239,0.34757
4667.56364,0.34871
4665.63490,0.34983
4663.70615,0.35024
4661.77741,0.35041
4659.84866,0.35104
4657.91992,0.35194
4655.99117,0.35288
4654.06243,0.35396
4652.13368,0.35499
4650.20494,0.35587
4648.27619,0.35653
4646.34745,0.35695
4644.41870,0.35771
4642.48995,0.35896
4640.56121,0.35979
4638.63246,0.36013
4636.70372,0.36082
4634.77497,0.36195
4632.84623,0.36322
4630.91748,0.36442
4628.98874,0.36514
4627.05999,0.36531
4625.13125,0.36552
4623.20250,0.36631
4621.27376,0.36729
4619.34501,0.36791
4617.41627,0.36837
4615.48752,0.36894
4613.55877,0.36959
4611.63003,0.37054
4609.70128,0.37170
4607.77254,0.37244
4605.84379,0.37276
4603.91505,0.37324
4601.98630,0.37403
4600.05756,0.37498
4598.12881,0.37580
4596.20007,0.37604
4594.27132,0.37589
4592.34258,0.37622
4590.41383,0.37727
4588.48509,0.37844
4586.55634,0.37932
4584.62760,0.37987
4582.69885,0.38023
4580.77010,0.38072
4578.84136,0.38134
4576.91261,0.38172
4574.98387,0.38180
4573.05512,0.38190
4571.12638,0.38217
4569.19763,0.38231
4567.26889,0.38238
4565.34014,0.38299
4563.41140,0.38399
4561.48265,0.38470
4559.55391,0.38511
4557.62516,0.38571
4555.69642,0.38654
4553.76767,0.38721
4551.83893,0.38775
4549.91018,0.38826
4547.98143,0.38836
4546.05269,0.38842
4544.12394,0.38889
4542.19520,0.38935
4540.26645,0.38970
4538.33771,0.38991
4536.40896,0.38990
4534.48022,0.39004
4532.55147,0.39018
4530.62273,0.39015
4528.69398,0.39027
4526.76524,0.39040
4524.83649,0.39039
4522.90775,0.39041
4520.97900,0.39053
4519.05025,0.39051
4517.12151,0.39022
4515.19276,0.38982
4513.26402,0.38940
4511.33527,0.38909
4509.40653,0.38926
4507.47778,0.38960
4505.54904,0.38925
4503.62029,0.38811
4501.69155,0.38681
4499.76280,0.38568
4497.83406,0.38469
4495.90531,0.38363
4493.97657,0.38250
4492.04782,0.38144
4490.11908,0.38020
4488.19033,0.37839
4486.26158,0.37638
4484.33284,0.37471
4482.40409,0.37309
4480.47535,0.37121
4478.54660,0.36945
4476.61786,0.36781
4474.68911,0.36588
4472.76037,0.36377
4470.83162,0.36160
4468.90288,0.35929
4466.97413,0.35692
4465.04539,0.35450
4463.11664,0.35215
4461.18790,0.34973
4459.25915,0.34666
4457.33041,0.34333
4455.40166,0.34069
4453.47291,0.33865
4451.54417,0.33663
4449.61542,0.33440
4447.68668,0.33196
4445.75793,0.32942
4443.82919,0.32684
4441.90044,0.32443
4439.97170,0.32260
4438.04295,0.32115
4436.11421,0.31943
4434.18546,0.31744
4432.25672,0.31547
4430.32797,0.31352
4428.39923,0.31163
4426.47048,0.31005
4424.54173,0.30889
4422.61299,0.30776
4420.68424,0.30606
4418.75550,0.30421
4416.82675,0.30290
4414.89801,0.30177
4412.96926,0.30043
4411.04052,0.29895
4409.11177,0.29763
4407.18303,0.29696
4405.25428,0.29688
4403.32554,0.29690
4401.39679,0.29702
4399.46805,0.29743
4397.53930,0.29763
4395.61056,0.29716
4393.68181,0.29667
4391.75306,0.29699
4389.82432,0.29772
4387.89557,0.29815
4385.96683,0.29852
4384.03808,0.29919
4382.10934,0.30004
4380.18059,0.30085
4378.25185,0.30148
4376.32310,0.30205
4374.39436,0.30292
4372.46561,0.30410
4370.53687,0.30520
4368.60812,0.30590
4366.67938,0.30636
4364.75063,0.30674
4362.82189,0.30703
4360.89314,0.30721
4358.96439,0.30731
4357.03565,0.30733
4355.10690,0.30735
4353.17816,0.30723
4351.24941,0.30680
4349.32067,0.30614
4347.39192,0.30544
4345.46318,0.30497
4343.53443,0.30470
4341.60569,0.30439
4339.67694,0.30393
4337.74820,0.30323
4335.81945,0.30244
4333.89071,0.30177
4331.96196,0.30101
4330.03321,0.30030
4328.10447,0.29990
4326.17572,0.29952
4324.24698,0.29898
4322.31823,0.29850
4320.38949,0.29804
4318.46074,0.29758
4316.53200,0.29728
4314.60325,0.29684
4312.67451,0.29595
4310.74576,0.29509
4308.81702,0.29456
4306.88827,0.29409
4304.95953,0.29367
4303.03078,0.29335
4301.10204,0.29275
4299.17329,0.29173
4297.24454,0.29089
4295.31580,0.29052
4293.38705,0.29020
4291.45831,0.28984
4289.52956,0.28967
4287.60082,0.28964
4285.67207,0.28944
4283.74333,0.28906
4281.81458,0.28874
4279.88584,0.28847
4277.95709,0.28827
4276.02835,0.28837
4274.09960,0.28862
4272.17086,0.28884
4270.24211,0.28908
4268.31336,0.28949
4266.38462,0.29014
4264.45587,0.29074
4262.52713,0.29101
4260.59838,0.29114
4258.66964,0.29134
4256.74089,0.29178
4254.81215,0.29236
4252.88340,0.29264
4250.95466,0.29257
4249.02591,0.29250
4247.09717,0.29263
4245.16842,0.29294
4243.23968,0.29345
4241.31093,0.29392
4239.38219,0.29412
4237.45344,0.29411
4235.52469,0.29411
4233.59595,0.29433
4231.66720,0.29464
4229.73846,0.29485
4227.80971,0.29511
4225.88097,0.29553
4223.95222,0.29616
4222.02348,0.29683
4220.09473,0.29692
4218.16599,0.29647
4216.23724,0.29624
4214.30850,0.29650
4212.37975,0.29686
4210.45101,0.29710
4208.52226,0.29738
4206.59352,0.29785
4204.66477,0.29829
4202.73602,0.29850
4200.80728,0.29869
4198.87853,0.29884
4196.94979,0.29884
4195.02104,0.29882
4193.09230,0.29896
4191.16355,0.29910
4189.23481,0.29905
4187.30606,0.29907
4185.37732,0.29952
4183.44857,0.30026
4181.51983,0.30077
4179.59108,0.30092
4177.66234,0.30102
4175.73359,0.30119
4173.80484,0.30142
4171.87610,0.30181
4169.94735,0.30214
4168.01861,0.30221
4166.08986,0.30245
4164.16112,0.30314
4162.23237,0.30375
4160.30363,0.30396
4158.37488,0.30398
4156.44614,0.30396
4154.51739,0.30392
4152.58865,0.30385
4150.65990,0.30356
4148.73116,0.30316
4146.80241,0.30278
4144.87367,0.30216
4142.94492,0.30143
4141.01617,0.30091
4139.08743,0.30038
4137.15868,0.29969
4135.22994,0.29892
4133.30119,0.29807
4131.37245,0.29727
4129.44370,0.29644
4127.51496,0.29532
4125.58621,0.29409
4123.65747,0.29318
4121.72872,0.29250
4119.79998,0.29161
4117.87123,0.29043
4115.94249,0.28912
4114.01374,0.28799
4112.08500,0.28725
4110.15625,0.28650
4108.22750,0.28531
4106.29876,0.28381
4104.37001,0.28213
4102.44127,0.28035
4100.51252,0.27880
4098.58378,0.27761
4096.65503,0.27649
4094.72629,0.27514
4092.79754,0.27332
4090.86880,0.27125
4088.94005,0.26964
4087.01131,0.26856
4085.08256,0.26734
4083.15382,0.26575
4081.22507,0.26417
4079.29632,0.26283
4077.36758,0.26144
4075.43883,0.25981
4073.51009,0.25824
4071.58134,0.25669
4069.65260,0.25500
4067.72385,0.25345
4065.79511,0.25208
4063.86636,0.25072
4061.93762,0.24943
4060.00887,0.24823
4058.08013,0.24705
4056.15138,0.24573
4054.22264,0.24423
4052.29389,0.24290
4050.36515,0.24179
4048.43640,0.24042
4046.50765,0.23890
4044.57891,0.23775
4042.65016,0.23701
4040.72142,0.23627
4038.79267,0.23519
4036.86393,0.23393
4034.93518,0.23299
4033.00644,0.23257
4031.07769,0.23228
4029.14895,0.23188
4027.22020,0.23145
4025.29146,0.23099
4023.36271,0.23062
4021.43397,0.23061
4019.50522,0.23071
4017.57648,0.23056
4015.64773,0.23032
4013.71898,0.23020
4011.79024,0.23026
4009.86149,0.23052
4007.93275,0.23100
4006.00400,0.23149
4004.07526,0.23167
4002.14651,0.23163
4000.21777,0.23185
3998.28902,0.23258
3996.36028,0.23344
3994.43153,0.23400
3992.50279,0.23444
3990.57404,0.23490
3988.64530,0.23521
3986.71655,0.23558
3984.78780,0.23621
3982.85906,0.23672
3980.93031,0.23682
3979.00157,0.23698
3977.07282,0.23759
3975.14408,0.23824
3973.21533,0.23868
3971.28659,0.23919
3969.35784,0.23972
3967.42910,0.24011
3965.50035,0.24062
3963.57161,0.24145
3961.64286,0.24247
3959.71412,0.24357
3957.78537,0.24474
3955.85663,0.24580
3953.92788,0.24659
3951.99913,0.24710
3950.07039,0.24750
3948.14164,0.24820
3946.21290,0.24910
3944.28415,0.24982
3942.35541,0.25062
3940.42666,0.25174
3938.49792,0.25290
3936.56917,0.25381
3934.64043,0.25448
3932.71168,0.25492
3930.78294,0.25520
3928.85419,0.25569
3926.92545,0.25651
3924.99670,0.25738
3923.06795,0.25819
3921.13921,0.25918
3919.21046,0.26029
3917.28172,0.26127
3915.35297,0.26208
3913.42423,0.26280
3911.49548,0.26354
3909.56674,0.26433
3907.63799,0.26516
3905.70925,0.26594
3903.78050,0.26657
3901.85176,0.26700
3899.92301,0.26735
3897.99427,0.26798
3896.06552,0.26903
3894.13678,0.26997
3892.20803,0.27066
3890.27928,0.27139
3888.35054,0.27220
3886.42179,0.27298
3884.49305,0.27353
3882.56430,0.27366
3880.63556,0.27363
3878.70681,0.27404
3876.77807,0.27498
3874.84932,0.27603
3872.92058,0.27697
3870.99183,0.27779
3869.06309,0.27852
3867.13434,0.27926
3865.20560,0.28011
3863.27685,0.28109
3861.34811,0.28220
3859.41936,0.28340
3857.49061,0.28465
3855.56187,0.28581
3853.63312,0.28659
3851.70438,0.28714
3849.77563,0.28784
3847.84689,0.28873
3845.91814,0.28968
3843.98940,0.29036
3842.06065,0.29088
3840.13191,0.29157
3838.20316,0.29207
3836.27442,0.29240
3834.34567,0.29308
3832.41693,0.29376
3830.48818,0.29412
3828.55943,0.29444
3826.63069,0.29483
3824.70194,0.29533
3822.77320,0.29575
3820.84445,0.29581
3818.91571,0.29592
3816.98696,0.29610
3815.05822,0.29576
3813.12947,0.29531
3811.20073,0.29540
3809.27198,0.29584
3807.34324,0.29634
3805.41449,0.29676
3803.48575,0.29706
3801.55700,0.29711
3799.62826,0.29699
3797.69951,0.29695
3795.77076,0.29690
3793.84202,0.29691
3791.91327,0.29706
3789.98453,0.29713
3788.05578,0.29699
3786.12704,0.29706
3784.19829,0.29733
3782.26955,0.29730
3780.34080,0.29695
3778.41206,0.29647
3776.48331,0.29603
3774.55457,0.29583
3772.62582,0.29574
3770.69708,0.29569
3768.76833,0.29559
3766.83959,0.29512
3764.91084,0.29445
3762.98209,0.29412
3761.05335,0.29399
3759.12460,0.29362
3757.19586,0.29314
3755.26711,0.29278
3753.33837,0.29240
3751.40962,0.29181
3749.48088,0.29108
3747.55213,0.29042
3745.62339,0.28938
3743.69464,0.28798
3741.76590,0.28720
3739.83715,0.28695
3737.90841,0.28664
3735.97966,0.28591
3734.05091,0.28457
3732.12217,0.28287
3730.19342,0.28133
3728.26468,0.28006
3726.33593,0.27897
3724.40719,0.27786
3722.47844,0.27644
3720.54970,0.27481
3718.62095,0.27305
3716.69221,0.27115
3714.76346,0.26927
3712.83472,0.26714
3710.90597,0.26453
3708.97723,0.26202
3707.04848,0.25980
3705.11974,0.25758
3703.19099,0.25510
3701.26224,0.25209
3699.33350,0.24883
3697.40475,0.24566
3695.47601,0.24238
3693.54726,0.23891
3691.61852,0.23542
3689.68977,0.23194
3687.76103,0.22805
3685.83228,0.22367
3683.90354,0.21911
3681.97479,0.21450
3680.04605,0.20994
3678.11730,0.20554
3676.18856,0.20087
3674.25981,0.19579
3672.33107,0.19089
3670.40232,0.18576
3668.47357,0.18027
3666.54483,0.17523
3664.61608,0.17067
3662.68734,0.16620
3660.75859,0.16159
3658.82985,0.15702
3656.90110,0.15264
3654.97236,0.14859
3653.04361,0.14511
3651.11487,0.14161
3649.18612,0.13733
3647.25738,0.13279
3645.32863,0.12890
3643.39989,0.12557
3641.47114,0.12237
3639.54239,0.11916
3637.61365,0.11598
3635.68490,0.11293
3633.75616,0.11011
3631.82741,0.10742
3629.89867,0.10438
3627.96992,0.10107
3626.04118,0.09836
3624.11243,0.09621
3622.18369,0.09422
3620.25494,0.09206
3618.32620,0.08945
3616.39745,0.08690
3614.46871,0.08481
3612.53996,0.08281
3610.61122,0.08046
3608.68247,0.07801
3606.75372,0.07577
3604.82498,0.07369
3602.89623,0.07178
3600.96749,0.07018
3599.03874,0.06879
3597.11000,0.06718
3595.18125,0.06522
3593.25251,0.06340
3591.32376,0.06209
3589.39502,0.06093
3587.46627,0.05939
3585.53753,0.05776
3583.60878,0.05661
3581.68004,0.05574
3579.75129,0.05462
3577.82254,0.05320
3575.89380,0.05189
3573.96505,0.05113
3572.03631,0.05081
3570.10756,0.05031
3568.17882,0.04931
3566.25007,0.04822
3564.32133,0.04735
3562.39258,0.04650
3560.46384,0.04571
3558.53509,0.04503
3556.60635,0.04436
3554.67760,0.04379
3552.74886,0.04326
3550.82011,0.04273
3548.89137,0.04233
3546.96262,0.04178
3545.03387,0.04109
3543.10513,0.04065
3541.17638,0.04020
3539.24764,0.03940
3537.31889,0.03864
3535.39015,0.03829
3533.46140,0.03827
3531.53266,0.03817
3529.60391,0.03770
3527.67517,0.03721
3525.74642,0.03693
3523.81768,0.03666
3521.88893,0.03644
3519.96019,0.03642
3518.03144,0.03628
3516.10270,0.03567
3514.17395,0.03472
3512.24520,0.03403
3510.31646,0.03394
3508.38771,0.03407
3506.45897,0.03417
3504.53022,0.03424
3502.60148,0.03415
3500.67273,0.03376
3498.74399,0.03320
3496.81524,0.03280
3494.88650,0.03272
3492.95775,0.03279
3491.02901,0.03265
3489.10026,0.03224
3487.17152,0.03180
3485.24277,0.03157
3483.31402,0.03168
3481.38528,0.03194
3479.45653,0.03198
3477.52779,0.03174
3475.59904,0.03138
3473.67030,0.03103
3471.74155,0.03090
3469.81281,0.03103
3467.88406,0.03102
3465.95532,0.03078
3464.02657,0.03063
3462.09783,0.03070
3460.16908,0.03087
3458.24034,0.03095
3456.31159,0.03083
3454.38285,0.03052
3452.45410,0.03010
3450.52535,0.02991
3448.59661,0.03010
3446.66786,0.03031
3444.73912,0.03031
3442.81037,0.03031
3440.88163,0.03056
3438.95288,0.03082
3437.02414,0.03066
3435.09539,0.03024
3433.16665,0.03017
3431.23790,0.03043
3429.30916,0.03044
3427.38041,0.02994
3425.45167,0.02942
3423.52292,0.02945
3421.59418,0.02988
3419.66543,0.03010
3417.73668,0.03003
3415.80794,0.03003
3413.87919,0.03009
3411.95045,0.03020
3410.02170,0.03059
3408.09296,0.03097
3406.16421,0.03073
3404.23547,0.03012
3402.30672,0.02983
3400.37798,0.02982
3398.44923,0.02995
3396.52049,0.03014
3394.59174,0.03028
3392.66300,0.03046
3390.73425,0.03065
3388.80550,0.03056
3386.87676,0.03028
3384.94801,0.03016
3383.01927,0.03021
3381.09052,0.03033
3379.16178,0.03047
3377.23303,0.03052
3375.30429,0.03055
3373.37554,0.03048
3371.44680,0.03008
3369.51805,0.02965
3367.58931,0.02989
3365.66056,0.03058
3363.73182,0.03091
3361.80307,0.03089
3359.87433,0.03096
3357.94558,0.03118
3356.01683,0.03139
3354.08809,0.03156
3352.15934,0.03170
3350.23060,0.03174
3348.30185,0.03177
3346.37311,0.03189
3344.44436,0.03189
3342.51562,0.03165
3340.58687,0.03146
3338.65813,0.03161
3336.72938,0.03210
3334.80064,0.03257
3332.87189,0.03266
3330.94315,0.03256
3329.01440,0.03277
3327.08566,0.03332
3325.15691,0.03371
3323.22816,0.03363
3321.29942,0.03358
3319.37067,0.03392
3317.44193,0.03412
3315.51318,0.03398
3313.58444,0.03397
3311.65569,0.03415
3309.72695,0.03438
3307.79820,0.03447
3305.86946,0.03432
3303.94071,0.03450
3302.01197,0.03509
3300.08322,0.03539
3298.15448,0.03541
3296.22573,0.03558
3294.29698,0.03570
3292.36824,0.03565
3290.43949,0.03569
3288.51075,0.03587
3286.58200,0.03606
3284.65326,0.03623
3282.72451,0.03645
3280.79577,0.03682
3278.86702,0.03726
3276.93828,0.03759
3275.00953,0.03789
3273.08079,0.03827
3271.15204,0.03851
3269.22330,0.03862
3267.29455,0.03886
3265.36581,0.03918
3263.43706,0.03948
3261.50831,0.03963
3259.57957,0.03964
3257.65082,0.03971
3255.72208,0.04000
3253.79333,0.04057
3251.86459,0.04121
3249.93584,0.04168
3248.00710,0.04218
3246.07835,0.04279
3244.14961,0.04334
3242.22086,0.04365
3240.29212,0.04387
3238.36337,0.04428
3236.43463,0.04475
3234.50588,0.04505
3232.57713,0.04512
3230.64839,0.04523
3228.71964,0.04558
3226.79090,0.04592
3224.86215,0.04625
3222.93341,0.04677
3221.00466,0.04732
3219.07592,0.04781
3217.14717,0.04841
3215.21843,0.04910
3213.28968,0.04966
3211.36094,0.05003
3209.43219,0.05025
3207.50345,0.05042
3205.57470,0.05097
3203.64596,0.05191
3201.71721,0.05260
3199.78846,0.05289
3197.85972,0.05312
3195.93097,0.05360
3194.00223,0.05422
3192.07348,0.05471
3190.14474,0.05507
3188.21599,0.05547
3186.28725,0.05608
3184.35850,0.05680
3182.42976,0.05730
3180.50101,0.05764
3178.57227,0.05817
3176.64352,0.05878
3174.71478,0.05925
3172.78603,0.05972
3170.85729,0.06020
3168.92854,0.06059
3166.99979,0.06092
3165.07105,0.06131
3163.14230,0.06184
3161.21356,0.06235
3159.28481,0.06278
3157.35607,0.06336
3155.42732,0.06404
3153.49858,0.06454
3151.56983,0.06499
3149.64109,0.06574
3147.71234,0.06663
3145.78360,0.06726
3143.85485,0.06772
3141.92611,0.06831
3139.99736,0.06891
3138.06861,0.06927
3136.13987,0.06955
3134.21112,0.06993
3132.28238,0.07039
3130.35363,0.07106
3128.42489,0.07190
3126.49614,0.07245
3124.56740,0.07265
3122.63865,0.07315
3120.70991,0.07391
3118.78116,0.07456
3116.85242,0.07517
3114.92367,0.07584
3112.99493,0.07637
3111.06618,0.07679
3109.13744,0.07735
3107.20869,0.07805
3105.27994,0.07862
3103.35120,0.07892
3101.42245,0.07919
3099.49371,0.07975
3097.56496,0.08041
3095.63622,0.08083
3093.70747,0.08093
3091.77873,0.08112
3089.84998,0.08170
3087.92124,0.08248
3085.99249,0.08323
3084.06375,0.08386
3082.13500,0.08428
3080.20626,0.08447
3078.27751,0.08466
3076.34877,0.08507
3074.42002,0.08558
3072.49127,0.08605
3070.56253,0.08647
3068.63378,0.08697
3066.70504,0.08756
3064.77629,0.08813
3062.84755,0.08873
3060.91880,0.08922
3058.99006,0.08946
3057.06131,0.08967
3055.13257,0.08993
3053.20382,0.09023
3051.27508,0.09060
3049.34633,0.09095
3047.41759,0.09125
3045.48884,0.09158
3043.56009,0.09193
3041.63135,0.09223
3039.70260,0.09240
3037.77386,0.09240
3035.84511,0.09231
3033.91637,0.09212
3031.98762,0.09187
3030.05888,0.09159
3028.13013,0.09124
3026.20139,0.09086
3024.27264,0.09032
3022.34390,0.08959
3020.41515,0.08887
3018.48641,0.08827
3016.55766,0.08785
3014.62892,0.08740
3012.70017,0.08667
3010.77142,0.08567
3008.84268,0.08464
3006.91393,0.08386
3004.98519,0.08329
3003.05644,0.08254
3001.12770,0.08144
2999.19895,0.08023
2997.27021,0.07927
2995.34146,0.07853
2993.41272,0.07779
2991.48397,0.07692
2989.55523,0.07593
2987.62648,0.07476
2985.69774,0.07332
2983.76899,0.07166
2981.84025,0.06998
2979.91150,0.06832
2977.98275,0.06664
2976.05401,0.06492
2974.12526,0.06311
2972.19652,0.06141
2970.26777,0.06007
2968.33903,0.05908
2966.41028,0.05830
2964.48154,0.05749
2962.55279,0.05669
2960.62405,0.05615
2958.69530,0.05580
2956.76656,0.05520
2954.83781,0.05425
2952.90907,0.05327
2950.98032,0.05246
2949.05157,0.05175
2947.12283,0.05122
2945.19408,0.05086
2943.26534,0.05039
2941.33659,0.04982
2939.40785,0.04948
2937.47910,0.04956
2935.55036,0.04970
2933.62161,0.04970
2931.69287,0.04979
2929.76412,0.04985
2927.83538,0.04962
2925.90663,0.04939
2923.97789,0.04929
2922.04914,0.04912
2920.12040,0.04892
2918.19165,0.04872
2916.26290,0.04848
2914.33416,0.04846
2912.40541,0.04883
2910.47667,0.04925
2908.54792,0.04949
2906.61918,0.04960
2904.69043,0.04967
2902.76169,0.04980
2900.83294,0.05003
2898.90420,0.05031
2896.97545,0.05063
2895.04671,0.05099
2893.11796,0.05136
2891.18922,0.05172
2889.26047,0.05205
2887.33172,0.05231
2885.40298,0.05269
2883.47423,0.05323
2881.54549,0.05362
2879.61674,0.05386
2877.68800,0.05418
2875.75925,0.05454
2873.83051,0.05475
2871.90176,0.05482
2869.97302,0.05501
2868.04427,0.05542
2866.11553,0.05592
2864.18678,0.05649
2862.25804,0.05701
2860.32929,0.05743
2858.40055,0.05797
2856.47180,0.05862
2854.54305,0.05914
2852.61431,0.05941
2850.68556,0.05968
2848.75682,0.06034
2846.82807,0.06150
2844.89933,0.06303
2842.97058,0.06480
2841.04184,0.06668
2839.11309,0.06849
2837.18435,0.07016
2835.25560,0.07195
2833.32686,0.07397
2831.39811,0.07587
2829.46937,0.07763
2827.54062,0.07943
2825.61188,0.08107
2823.68313,0.08241
2821.75438,0.08382
2819.82564,0.08544
2817.89689,0.08714
2815.96815,0.08876
2814.03940,0.09009
2812.11066,0.09109
2810.18191,0.09203
2808.25317,0.09316
2806.32442,0.09440
2804.39568,0.09558
2802.46693,0.09667
2800.53819,0.09760
2798.60944,0.09835
2796.68070,0.09897
2794.75195,0.09953
2792.82320,0.10014
2790.89446,0.10085
2788.96571,0.10154
2787.03697,0.10204
2785.10822,0.10244
2783.17948,0.10293
2781.25073,0.10358
2779.32199,0.10419
2777.39324,0.10453
2775.46450,0.10485
2773.53575,0.10531
2771.60701,0.10565
2769.67826,0.10585
2767.74952,0.10615
2765.82077,0.10654
2763.89203,0.10688
2761.96328,0.10722
2760.03453,0.10762
2758.10579,0.10802
2756.17704,0.10826
2754.24830,0.10816
2752.31955,0.10798
2750.39081,0.10812
2748.46206,0.10849
2746.53332,0.10862
2744.60457,0.10860
2742.67583,0.10884
2740.74708,0.10927
2738.81834,0.10960
2736.88959,0.10970
2734.96085,0.10965
2733.03210,0.10965
2731.10336,0.10986
2729.17461,0.11026
2727.24586,0.11073
2725.31712,0.11120
2723.38837,0.11164
2721.45963,0.11215
2719.53088,0.11280
2717.60214,0.11347
2715.67339,0.11406
2713.74465,0.11451
2711.81590,0.11500
2709.88716,0.11581
2707.95841,0.11679
2706.02967,0.11765
2704.10092,0.11835
2702.17218,0.11891
2700.24343,0.11946
2698.31468,0.12012
2696.38594,0.12079
2694.45719,0.12131
2692.52845,0.12187
2690.59970,0.12257
2688.67096,0.12321
2686.74221,0.12374
2684.81347,0.12423
2682.88472,0.12465
2680.95598,0.12507
2679.02723,0.12574
2677.09849,0.12647
2675.16974,0.12696
2673.24100,0.12746
2671.31225,0.12809
2669.38351,0.12859
2667.45476,0.12893
2665.52601,0.12923
2663.59727,0.12946
2661.66852,0.12965
2659.73978,0.12990
2657.81103,0.13021
2655.88229,0.13053
2653.95354,0.13083
2652.02480,0.13113
2650.09605,0.13150
2648.16731,0.13187
2646.23856,0.13221
2644.30982,0.13264
2642.38107,0.13321
2640.45233,0.13367
2638.52358,0.13399
2636.59484,0.13443
2634.66609,0.13509
2632.73734,0.13588
2630.80860,0.13654
2628.87985,0.13699
2626.95111,0.13754
2625.02236,0.13834
2623.09362,0.13911
2621.16487,0.13952
2619.23613,0.13960
2617.30738,0.13972
2615.37864,0.14017
2613.44989,0.14075
2611.52115,0.14119
2609.59240,0.14154
2607.66366,0.14198
2605.73491,0.14253
2603.80616,0.14302
2601.87742,0.14338
2599.94867,0.14380
2598.01993,0.14436
2596.09118,0.14497
2594.16244,0.14540
2592.23369,0.14572
2590.30495,0.14623
2588.37620,0.14681
2586.44746,0.14714
2584.51871,0.14733
2582.58997,0.14746
2580.66122,0.14748
2578.73248,0.14769
2576.80373,0.14805
2574.87499,0.14820
2572.94624,0.14827
2571.01749,0.14846
2569.08875,0.14855
2567.16000,0.14847
2565.23126,0.14838
2563.30251,0.14835
2561.37377,0.14840
2559.44502,0.14845
2557.51628,0.14853
2555.58753,0.14869
2553.65879,0.14880
2551.73004,0.14880
2549.80130,0.14886
2547.87255,0.14910
2545.94381,0.14930
2544.01506,0.14921
2542.08631,0.14907
2540.15757,0.14921
2538.22882,0.14953
2536.30008,0.14982
2534.37133,0.15005
2532.44259,0.15031
2530.51384,0.15061
2528.58510,0.15099
2526.65635,0.15151
2524.72761,0.15188
2522.79886,0.15193
2520.87012,0.15199
2518.94137,0.15227
2517.01263,0.15251
2515.08388,0.15271
2513.15514,0.15314
2511.22639,0.15374
2509.29764,0.15432
2507.36890,0.15494
2505.44015,0.15566
2503.51141,0.15650
2501.58266,0.15723
2499.65392,0.15763
2497.72517,0.15798
2495.79643,0.15866
2493.86768,0.15952
2491.93894,0.16030
2490.01019,0.16092
2488.08145,0.16143
2486.15270,0.16188
2484.22396,0.16233
2482.29521,0.16283
2480.36647,0.16343
2478.43772,0.16402
2476.50897,0.16455
2474.58023,0.16511
2472.65148,0.16566
2470.72274,0.16610
2468.79399,0.16643
2466.86525,0.16680
2464.93650,0.16733
2463.00776,0.16773
2461.07901,0.16787
2459.15027,0.16808
2457.22152,0.16849
2455.29278,0.16910
2453.36403,0.16983
2451.43529,0.17052
2449.50654,0.17112
2447.57779,0.17176
2445.64905,0.17247
2443.72030,0.17310
2441.79156,0.17364
2439.86281,0.17422
2437.93407,0.17488
2436.00532,0.17551
2434.07658,0.17618
2432.14783,0.17699
2430.21909,0.17778
2428.29034,0.17844
2426.36160,0.17911
2424.43285,0.17984
2422.50411,0.18052
2420.57536,0.18132
2418.64662,0.18240
2416.71787,0.18333
2414.78912,0.18390
2412.86038,0.18448
2410.93163,0.18536
2409.00289,0.18630
2407.07414,0.18701
2405.14540,0.18766
2403.21665,0.18843
2401.28791,0.18914
2399.35916,0.18976
2397.43042,0.19053
2395.50167,0.19138
2393.57293,0.19194
2391.64418,0.19237
2389.71544,0.19297
2387.78669,0.19368
2385.85795,0.19431
2383.92920,0.19486
2382.00045,0.19547
2380.07171,0.19615
2378.14296,0.19683
2376.21422,0.19745
2374.28547,0.19796
2372.35673,0.19847
2370.42798,0.19918
2368.49924,0.19999
2366.57049,0.20067
2364.64175,0.20118
2362.71300,0.20158
2360.78426,0.20198
2358.85551,0.20261
2356.92677,0.20349
2354.99802,0.20434
2353.06927,0.20505
2351.14053,0.20569
2349.21178,0.20624
2347.28304,0.20675
2345.35429,0.20735
2343.42555,0.20804
2341.49680,0.20877
2339.56806,0.20943
2337.63931,0.20988
2335.71057,0.21027
2333.78182,0.21064
2331.85308,0.21095
2329.92433,0.21125
2327.99559,0.21166
2326.06684,0.21217
2324.13810,0.21249
2322.20935,0.21254
2320.28060,0.21257
2318.35186,0.21273
2316.42311,0.21284
2314.49437,0.21281
2312.56562,0.21289
2310.63688,0.21315
2308.70813,0.21333
2306.77939,0.21326
2304.85064,0.21289
2302.92190,0.21236
2300.99315,0.21193
2299.06441,0.21167
2297.13566,0.21148
2295.20692,0.21137
2293.27817,0.21138
2291.34943,0.21140
2289.42068,0.21126
2287.49193,0.21102
2285.56319,0.21089
2283.63444,0.21090
2281.70570,0.21089
2279.77695,0.21075
2277.84821,0.21045
2275.91946,0.21005
2273.99072,0.20964
2272.06197,0.20919
2270.13323,0.20859
2268.20448,0.20784
2266.27574,0.20705
2264.34699,0.20630
2262.41825,0.20567
2260.48950,0.20518
2258.56075,0.20462
2256.63201,0.20385
2254.70326,0.20310
2252.77452,0.20248
2250.84577,0.20183
2248.91703,0.20127
2246.98828,0.20110
2245.05954,0.20118
2243.13079,0.20110
2241.20205,0.20082
2239.27330,0.20066
2237.34456,0.20068
2235.41581,0.20061
2233.48707,0.20051
2231.55832,0.20061
2229.62958,0.20084
2227.70083,0.20108
2225.77208,0.20136
2223.84334,0.20182
2221.91459,0.20235
2219.98585,0.20276
2218.05710,0.20306
2216.12836,0.20331
2214.19961,0.20346
2212.27087,0.20353
2210.34212,0.20365
2208.41338,0.20371
2206.48463,0.20363
2204.55589,0.20338
2202.62714,0.20293
2200.69840,0.20246
2198.76965,0.20209
2196.84090,0.20160
2194.91216,0.20085
2192.98341,0.19995
2191.05467,0.19910
2189.12592,0.19836
2187.19718,0.19750
2185.26843,0.19639
2183.33969,0.19525
2181.41094,0.19408
2179.48220,0.19285
2177.55345,0.19168
2175.62471,0.19054
2173.69596,0.18930
2171.76722,0.18799
2169.83847,0.18677
2167.90973,0.18567
2165.98098,0.18467
2164.05223,0.18377
2162.12349,0.18291
2160.19474,0.18204
2158.26600,0.18130
2156.33725,0.18065
2154.40851,0.17997
2152.47976,0.17945
2150.55102,0.17909
2148.62227,0.17855
2146.69353,0.17789
2144.76478,0.17730
2142.83604,0.17681
2140.90729,0.17651
2138.97855,0.17640
2137.04980,0.17634
2135.12106,0.17626
2133.19231,0.17624
2131.26356,0.17645
2129.33482,0.17690
2127.40607,0.17736
2125.47733,0.17764
2123.54858,0.17779
2121.61984,0.17794
2119.69109,0.17820
2117.76235,0.17859
2115.83360,0.17906
2113.90486,0.17945
2111.97611,0.17967
2110.04737,0.17994
2108.11862,0.18033
2106.18988,0.18081
2104.26113,0.18142
2102.33238,0.18202
2100.40364,0.18252
2098.47489,0.18296
2096.54615,0.18338
2094.61740,0.18396
2092.68866,0.18475
2090.75991,0.18547
2088.83117,0.18585
2086.90242,0.18595
2084.97368,0.18608
2083.04493,0.18628
2081.11619,0.18633
2079.18744,0.18622
2077.25870,0.18616
2075.32995,0.18621
2073.40121,0.18626
2071.47246,0.18630
2069.54371,0.18637
2067.61497,0.18644
2065.68622,0.18659
2063.75748,0.18676
2061.82873,0.18687
2059.89999,0.18697
2057.97124,0.18710
2056.04250,0.18724
2054.11375,0.18745
2052.18501,0.18778
2050.25626,0.18822
2048.32752,0.18868
2046.39877,0.18913
2044.47003,0.18966
2042.54128,0.19025
2040.61254,0.19075
2038.68379,0.19130
2036.75504,0.19207
2034.82630,0.19299
2032.89755,0.19390
2030.96881,0.19478
2029.04006,0.19558
2027.11132,0.19639
2025.18257,0.19728
2023.25383,0.19822
2021.32508,0.19924
2019.39634,0.20043
2017.46759,0.20169
2015.53885,0.20278
2013.61010,0.20375
2011.68136,0.20474
2009.75261,0.20576
2007.82386,0.20677
2005.89512,0.20764
2003.96637,0.20829
2002.03763,0.20887
2000.10888,0.20941
1998.18014,0.20983
1996.25139,0.21023
1994.32265,0.21070
1992.39390,0.21116
1990.46516,0.21160
1988.53641,0.21199
1986.60767,0.21226
1984.67892,0.21243
1982.75018,0.21262
1980.82143,0.21278
1978.89269,0.21279
1976.96394,0.21270
1975.03519,0.21266
1973.10645,0.21262
1971.17770,0.21241
1969.24896,0.21215
1967.32021,0.21199
1965.39147,0.21171
1963.46272,0.21120
1961.53398,0.21082
1959.60523,0.21080
1957.67649,0.21089
1955.74774,0.21092
1953.81900,0.21108
1951.89025,0.21148
1949.96151,0.21192
1948.03276,0.21237
1946.10402,0.21287
1944.17527,0.21352
1942.24652,0.21445
1940.31778,0.21559
1938.38903,0.21673
1936.46029,0.21783
1934.53154,0.21893
1932.60280,0.21998
1930.67405,0.22082
1928.74531,0.22155
1926.81656,0.22250
1924.88782,0.22367
1922.95907,0.22475
1921.03033,0.22556
1919.10158,0.22623
1917.17284,0.22686
1915.24409,0.22737
1913.31534,0.22785
1911.38660,0.22843
1909.45785,0.22890
1907.52911,0.22917
1905.60036,0.22945
1903.67162,0.22976
1901.74287,0.23000
1899.81413,0.23018
1897.88538,0.23035
1895.95664,0.23048
1894.02789,0.23054
1892.09915,0.23052
1890.17040,0.23050
1888.24166,0.23051
1886.31291,0.23054
1884.38417,0.23057
1882.45542,0.23054
1880.52667,0.23032
1878.59793,0.22999
1876.66918,0.22964
1874.74044,0.22918
1872.81169,0.22861
1870.88295,0.22799
1868.95420,0.22729
1867.02546,0.22649
1865.09671,0.22547
1863.16797,0.22433
1861.23922,0.22339
1859.31048,0.22257
1857.38173,0.22158
1855.45299,0.22047
1853.52424,0.21941
1851.59549,0.21838
1849.66675,0.21728
1847.73800,0.21613
1845.80926,0.21483
1843.88051,0.21322
1841.95177,0.21165
1840.02302,0.21045
1838.09428,0.20924
1836.16553,0.20765
1834.23679,0.20595
1832.30804,0.20443
1830.37930,0.20284
1828.45055,0.20103
1826.52181,0.19924
1824.59306,0.19736
1822.66432,0.19529
1820.73557,0.19318
1818.80682,0.19104
1816.87808,0.18873
1814.94933,0.18636
1813.02059,0.18408
1811.09184,0.18166
1809.16310,0.17886
1807.23435,0.17577
1805.30561,0.17268
1803.37686,0.16972
1801.44812,0.16665
1799.51937,0.16334
1797.59063,0.15988
1795.66188,0.15635
1793.73314,0.15261
1791.80439,0.14852
1789.87565,0.14458
1787.94690,0.14081
1786.01815,0.13658
1784.08941,0.13181
1782.16066,0.12684
1780.23192,0.12159
1778.30317,0.11603
1776.37443,0.11031
1774.44568,0.10419
1772.51694,0.09725
1770.58819,0.09022
1768.65945,0.08393
1766.73070,0.07829
1764.80196,0.07347
1762.87321,0.06932
1760.94447,0.06576
1759.01572,0.06303
1757.08697,0.06085
1755.15823,0.05901
1753.22948,0.05753
1751.30074,0.05635
1749.37199,0.05547
1747.44325,0.05487
1745.51450,0.05437
1743.58576,0.05395
1741.65701,0.05375
1739.72827,0.05377
1737.79952,0.05389
1735.87078,0.05423
1733.94203,0.05480
1732.01329,0.05534
1730.08454,0.05586
1728.15580,0.05656
1726.22705,0.05738
1724.29830,0.05827
1722.36956,0.05928
1720.44081,0.06043
1718.51207,0.06187
1716.58332,0.06375
1714.65458,0.06576
1712.72583,0.06754
1710.79709,0.06920
1708.86834,0.07087
1706.93960,0.07254
1705.01085,0.07410
1703.08211,0.07555
1701.15336,0.07707
1699.22462,0.07866
1697.29587,0.08000
1695.36713,0.08091
1693.43838,0.08151
1691.50963,0.08199
1689.58089,0.08217
1687.65214,0.08212
1685.72340,0.08212
1683.79465,0.08187
1681.86591,0.08128
1679.93716,0.08070
1678.00842,0.08011
1676.07967,0.07934
1674.15093,0.07835
1672.22218,0.07744
1670.29344,0.07658
1668.36469,0.07561
1666.43595,0.07474
1664.50720,0.07412
1662.57845,0.07368
1660.64971,0.07339
1658.72096,0.07316
1656.79222,0.07300
1654.86347,0.07290
1652.93473,0.07256
1651.00598,0.07219
1649.07724,0.07215
1647.14849,0.07216
1645.21975,0.07205
1643.29100,0.07189
1641.36226,0.07171
1639.43351,0.07158
1637.50477,0.07150
1635.57602,0.07115
1633.64728,0.07047
1631.71853,0.06991
1629.78978,0.06960
1627.86104,0.06930
1625.93229,0.06860
1624.00355,0.06743
1622.07480,0.06618
1620.14606,0.06518
1618.21731,0.06409
1616.28857,0.06269
1614.35982,0.06136
1612.43108,0.06010
1610.50233,0.05853
1608.57359,0.05689
1606.64484,0.05577
1604.71610,0.05514
1602.78735,0.05450
1600.85861,0.05348
1598.92986,0.05217
1597.00111,0.05098
1595.07237,0.05033
1593.14362,0.05040
1591.21488,0.05124
1589.28613,0.05281
1587.35739,0.05500
1585.42864,0.05782
1583.49990,0.06125
1581.57115,0.06503
1579.64241,0.06881
1577.71366,0.07274
1575.78492,0.07702
1573.85617,0.08092
1571.92743,0.08432
1569.99868,0.08772
1568.06993,0.09075
1566.14119,0.09309
1564.21244,0.09504
1562.28370,0.09677
1560.35495,0.09843
1558.42621,0.09980
1556.49746,0.10021
1554.56872,0.10028
1552.63997,0.10036
1550.71123,0.10031
1548.78248,0.10007
1546.85374,0.09976
1544.92499,0.09944
1542.99625,0.09895
1541.06750,0.09812
1539.13876,0.09709
1537.21001,0.09631
1535.28126,0.09556
1533.35252,0.09421
1531.42377,0.09224
1529.49503,0.08993
1527.56628,0.08696
1525.63754,0.08312
1523.70879,0.07866
1521.78005,0.07344
1519.85130,0.06813
1517.92256,0.06395
1515.99381,0.06083
1514.06507,0.05846
1512.13632,0.05657
1510.20758,0.05503
1508.27883,0.05372
1506.35008,0.05245
1504.42134,0.05174
1502.49259,0.05188
1500.56385,0.05260
1498.63510,0.05371
1496.70636,0.05518
1494.77761,0.05677
1492.84887,0.05820
1490.92012,0.05939
1488.99138,0.06004
1487.06263,0.05985
1485.13389,0.05913
1483.20514,0.05806
1481.27640,0.05647
1479.34765,0.05438
1477.41891,0.05198
1475.49016,0.04935
1473.56141,0.04647
1471.63267,0.04367
1469.70392,0.04160
1467.77518,0.04038
1465.84643,0.03973
1463.91769,0.03944
1461.98894,0.03937
1460.06020,0.03941
1458.13145,0.03950
1456.20271,0.03966
1454.27396,0.03992
1452.34522,0.04034
1450.41647,0.04088
1448.48773,0.04132
1446.55898,0.04161
1444.63024,0.04181
1442.70149,0.04180
1440.77274,0.04147
1438.84400,0.04089
1436.91525,0.04010
1434.98651,0.03935
1433.05776,0.03904
1431.12902,0.03907
1429.20027,0.03908
1427.27153,0.03909
1425.34278,0.03934
1423.41404,0.03987
1421.48529,0.04063
1419.55655,0.04160
1417.62780,0.04252
1415.69906,0.04329
1413.77031,0.04401
1411.84156,0.04464
1409.91282,0.04522
1407.98407,0.04568
1406.05533,0.04580
1404.12658,0.04558
1402.19784,0.04526
1400.26909,0.04494
1398.34035,0.04453
1396.41160,0.04394
1394.48286,0.04309
1392.55411,0.04197
1390.62537,0.04082
1388.69662,0.03972
1386.76788,0.03842
1384.83913,0.03691
1382.91039,0.03551
1380.98164,0.03450
1379.05289,0.03394
1377.12415,0.03363
1375.19540,0.03336
1373.26666,0.03327
1371.33791,0.03352
1369.40917,0.03378
1367.48042,0.03383
1365.55168,0.03387
1363.62293,0.03403
1361.69419,0.03437
1359.76544,0.03483
1357.83670,0.03516
1355.90795,0.03530
1353.97921,0.03535
1352.05046,0.03543
1350.12172,0.03548
1348.19297,0.03537
1346.26422,0.03512
1344.33548,0.03478
1342.40673,0.03437
1340.47799,0.03404
1338.54924,0.03379
1336.62050,0.03353
1334.69175,0.03333
1332.76301,0.03321
1330.83426,0.03310
1328.90552,0.03308
1326.97677,0.03328
1325.04803,0.03356
1323.11928,0.03374
1321.19054,0.03384
1319.26179,0.03394
1317.33304,0.03422
1315.40430,0.03480
1313.47555,0.03563
1311.54681,0.03637
1309.61806,0.03682
1307.68932,0.03711
1305.76057,0.03740
1303.83183,0.03767
1301.90308,0.03793
1299.97434,0.03817
1298.04559,0.03821
1296.11685,0.03795
1294.18810,0.03755
1292.25936,0.03708
1290.33061,0.03642
1288.40187,0.03558
1286.47312,0.03481
1284.54437,0.03423
1282.61563,0.03383
1280.68688,0.03350
1278.75814,0.03300
1276.82939,0.03233
1274.90065,0.03188
1272.97190,0.03179
1271.04316,0.03178
1269.11441,0.03154
1267.18567,0.03114
1265.25692,0.03083
1263.32818,0.03063
1261.39943,0.03044
1259.47069,0.03015
1257.54194,0.02980
1255.61320,0.02955
1253.68445,0.02942
1251.75570,0.02935
1249.82696,0.02944
1247.89821,0.02963
1245.96947,0.02974
1244.04072,0.02979
1242.11198,0.02993
1240.18323,0.03016
1238.25449,0.03035
1236.32574,0.03047
1234.39700,0.03058
1232.46825,0.03078
1230.53951,0.03114
1228.61076,0.03163
1226.68202,0.03223
1224.75327,0.03288
1222.82452,0.03328
1220.89578,0.03335
1218.96703,0.03345
1217.03829,0.03386
1215.10954,0.03443
1213.18080,0.03490
1211.25205,0.03532
1209.32331,0.03553
1207.39456,0.03534
1205.46582,0.03507
1203.53707,0.03504
1201.60833,0.03519
1199.67958,0.03544
1197.75084,0.03571
1195.82209,0.03573
1193.89335,0.03545
1191.96460,0.03513
1190.03585,0.03468
1188.10711,0.03397
1186.17836,0.03313
1184.24962,0.03224
1182.32087,0.03144
1180.39213,0.03077
1178.46338,0.03013
1176.53464,0.02959
1174.60589,0.02921
1172.67715,0.02890
1170.74840,0.02882
1168.81966,0.02907
1166.89091,0.02948
1164.96217,0.02996
1163.03342,0.03044
1161.10467,0.03086
1159.17593,0.03108
1157.24718,0.03102
1155.31844,0.03103
1153.38969,0.03128
1151.46095,0.03136
1149.53220,0.03109
1147.60346,0.03063
1145.67471,0.02989
1143.74597,0.02901
1141.81722,0.02824
1139.88848,0.02745
1137.95973,0.02673
1136.03099,0.02636
1134.10224,0.02620
1132.17350,0.02610
1130.24475,0.02642
1128.31600,0.02705
1126.38726,0.02755
1124.45851,0.02803
1122.52977,0.02863
1120.60102,0.02906
1118.67228,0.02920
1116.74353,0.02932
1114.81479,0.02963
1112.88604,0.03002
1110.95730,0.03035
1109.02855,0.03064
1107.09981,0.03094
1105.17106,0.03124
1103.24232,0.03153
1101.31357,0.03152
1099.38483,0.03104
1097.45608,0.03053
1095.52733,0.03034
1093.59859,0.03027
1091.66984,0.03008
1089.74110,0.02966
1087.81235,0.02934
1085.88361,0.02949
1083.95486,0.03008
1082.02612,0.03087
1080.09737,0.03160
1078.16863,0.03226
1076.23988,0.03295
1074.31114,0.03357
1072.38239,0.03416
1070.45365,0.03491
1068.52490,0.03593
1066.59615,0.03745
1064.66741,0.03938
1062.73866,0.04100
1060.80992,0.04207
1058.88117,0.04287
1056.95243,0.04324
1055.02368,0.04320
1053.09494,0.04313
1051.16619,0.04301
1049.23745,0.04287
1047.30870,0.04307
1045.37996,0.04353
1043.45121,0.04374
1041.52247,0.04383
1039.59372,0.04432
1037.66498,0.04514
1035.73623,0.04591
1033.80748,0.04661
1031.87874,0.04714
1029.94999,0.04721
1028.02125,0.04694
1026.09250,0.04683
1024.16376,0.04685
1022.23501,0.04689
1020.30627,0.04723
1018.37752,0.04770
1016.44878,0.04799
1014.52003,0.04834
1012.59129,0.04885
1010.66254,0.04906
1008.73380,0.04891
1006.80505,0.04882
1004.87631,0.04896
1002.94756,0.04928
1001.01881,0.04974
999.09007,0.05023
997.16132,0.05065
995.23258,0.05113
993.30383,0.05168
991.37509,0.05231
989.44634,0.05300
987.51760,0.05369
985.58885,0.05453
983.66011,0.05589
981.73136,0.05772
979.80262,0.05950
977.87387,0.06107
975.94513,0.06246
974.01638,0.06366
972.08763,0.06472
970.15889,0.06571
968.23014,0.06676
966.30140,0.06810
964.37265,0.06979
962.44391,0.07157
960.51516,0.07329
958.58642,0.07529
956.65767,0.07772
954.72893,0.08009
952.80018,0.08216
950.87144,0.08413
948.94269,0.08595
947.01395,0.08740
945.08520,0.08845
943.15646,0.08908
941.22771,0.08933
939.29896,0.08923
937.37022,0.08885
935.44147,0.08828
933.51273,0.08765
931.58398,0.08715
929.65524,0.08680
927.72649,0.08660
925.79775,0.08647
923.86900,0.08621
921.94026,0.08585
920.01151,0.08532
918.08277,0.08466
916.15402,0.08408
914.22528,0.08352
912.29653,0.08274
910.36779,0.08174
908.43904,0.08052
906.51029,0.07903
904.58155,0.07754
902.65280,0.07637
900.72406,0.07545
898.79531,0.07479
896.86657,0.07491
894.93782,0.07616
893.00908,0.07819
891.08033,0.08047
889.15159,0.08272
887.22284,0.08481
885.29410,0.08674
883.36535,0.08834
881.43661,0.08938
879.50786,0.08998
877.57911,0.09031
875.65037,0.09071
873.72162,0.09144
871.79288,0.09226
869.86413,0.09311
867.93539,0.09434
866.00664,0.09582
864.07790,0.09704
862.14915,0.09758
860.22041,0.09750
858.29166,0.09723
856.36292,0.09696
854.43417,0.09653
852.50543,0.09601
850.57668,0.09584
848.64794,0.09601
846.71919,0.09587
844.79044,0.09523
842.86170,0.09455
840.93295,0.09409
839.00421,0.09369
837.07546,0.09322
835.14672,0.09280
833.21797,0.09259
831.28923,0.09285
829.36048,0.09364
827.43174,0.09464
825.50299,0.09566
823.57425,0.09663
821.64550,0.09717
819.71676,0.09726
817.78801,0.09744
815.85926,0.09799
813.93052,0.09846
812.00177,0.09841
810.07303,0.09811
808.14428,0.09801
806.21554,0.09827
804.28679,0.09870
802.35805,0.09877
800.42930,0.09837
798.50056,0.09788
796.57181,0.09756
794.64307,0.09730
792.71432,0.09696
790.78558,0.09670
788.85683,0.09645
786.92809,0.09609
784.99934,0.09566
783.07059,0.09507
781.14185,0.09402
779.21310,0.09255
777.28436,0.09110
775.35561,0.08961
773.42687,0.08796
771.49812,0.08663
769.56938,0.08574
767.64063,0.08493
765.71189,0.08406
763.78314,0.08327
761.85440,0.08273
759.92565,0.08224
757.99691,0.08145
756.06816,0.08022
754.13942,0.07871
752.21067,0.07745
750.28192,0.07693
748.35318,0.07681
746.42443,0.07644
744.49569,0.07595
742.56694,0.07553
740.63820,0.07485
738.70945,0.07385
736.78071,0.07289
734.85196,0.07176
732.92322,0.07026
730.99447,0.06895
729.06573,0.06823
727.13698,0.06785
725.20824,0.06739
723.27949,0.06666
721.35074,0.06560
719.42200,0.06454
717.49325,0.06415
715.56451,0.06412
713.63576,0.06389
711.70702,0.06379
709.77827,0.06372
707.84953,0.06320
705.92078,0.06261
703.99204,0.06231
702.06329,0.06211
700.13455,0.06201
698.20580,0.06198
696.27706,0.06178
694.34831,0.06137
692.41957,0.06102
690.49082,0.06089
688.56207,0.06083
686.63333,0.06052
684.70458,0.05976
682.77584,0.05871
680.84709,0.05772
678.91835,0.05691
676.98960,0.05608
675.06086,0.05510
673.13211,0.05431
671.20337,0.05409
669.27462,0.05425
667.34588,0.05420
665.41713,0.05382
663.48839,0.05368
661.55964,0.05443
659.63090,0.05552
657.70215,0.05572
655.77340,0.05510
653.84466,0.05453
651.91591,0.05437
649.98717,0.05428
648.05842,0.05389
646.12968,0.05406
644.20093,0.05523
642.27219,0.05600
640.34344,0.05524
638.41470,0.05378
636.48595,0.05294
634.55721,0.05285
632.62846,0.05268
630.69972,0.05200
628.77097,0.05168
626.84222,0.05176
624.91348,0.05123
622.98473,0.05028
621.05599,0.04957
619.12724,0.04967
617.19850,0.05047
615.26975,0.05057
613.34101,0.04994
611.41226,0.04974
609.48352,0.04997
607.55477,0.05003
605.62603,0.05010
603.69728,0.05133
601.76854,0.05405
599.83979,0.05595
