7497.03301,0.65549
7495.10426,0.66122
7493.17552,0.66226
7491.24677,0.66029
7489.31803,0.65830
7487.38928,0.65519
7485.46054,0.65143
7483.53179,0.64928
7481.60305,0.64999
7479.67430,0.64894
7477.74556,0.64344
7475.81681,0.64226
7473.88807,0.65063
7471.95932,0.65847
7470.03057,0.65753
7468.10183,0.65389
7466.17308,0.65324
7464.24434,0.65414
7462.31559,0.65308
7460.38685,0.64587
7458.45810,0.63734
7456.52936,0.63673
7454.60061,0.63995
7452.67187,0.64059
7450.74312,0.64204
7448.81438,0.64457
7446.88563,0.64395
7444.95689,0.64151
7443.02814,0.64198
7441.09940,0.64550
7439.17065,0.64622
7437.24190,0.64189
7435.31316,0.63758
7433.38441,0.63503
7431.45567,0.63210
7429.52692,0.63072
7427.59818,0.63393
7425.66943,0.64183
7423.74069,0.65010
7421.81194,0.65067
7419.88320,0.64199
7417.95445,0.63207
7416.02571,0.62826
7414.09696,0.63108
7412.16822,0.63602
7410.23947,0.63894
7408.31073,0.63826
7406.38198,0.63550
7404.45323,0.63401
7402.52449,0.63414
7400.59574,0.63475
7398.66700,0.63493
7396.73825,0.63329
7394.80951,0.63165
7392.88076,0.63071
7390.95202,0.62762
7389.02327,0.62447
7387.09453,0.62533
7385.16578,0.62872
7383.23704,0.63062
7381.30829,0.62850
7379.37955,0.62434
7377.45080,0.62048
7375.52205,0.61565
7373.59331,0.61305
7371.66456,0.61727
7369.73582,0.62314
7367.80707,0.62441
7365.87833,0.62326
7363.94958,0.62305
7362.02084,0.62262
7360.09209,0.61920
7358.16335,0.61432
7356.23460,0.61388
7354.30586,0.61735
7352.37711,0.61823
7350.44837,0.61679
7348.51962,0.61652
7346.59088,0.61673
7344.66213,0.61555
7342.73338,0.61351
7340.80464,0.61413
7338.87589,0.61731
7336.94715,0.61768
7335.01840,0.61426
7333.08966,0.61086
7331.16091,0.60960
7329.23217,0.61077
7327.30342,0.61208
7325.37468,0.60959
7323.44593,0.60346
7321.51719,0.59768
7319.58844,0.59580
7317.65970,0.59896
7315.73095,0.60572
7313.80221,0.61240
7311.87346,0.61388
7309.94471,0.60983
7308.01597,0.60501
7306.08722,0.60147
7304.15848,0.60070
7302.22973,0.60560
7300.30099,0.61392
7298.37224,0.61875
7296.44350,0.61758
7294.51475,0.61375
7292.58601,0.61084
7290.65726,0.61041
7288.72852,0.61021
7286.79977,0.60674
7284.87103,0.60247
7282.94228,0.60217
7281.01353,0.60463
7279.08479,0.60691
7277.15604,0.60759
7275.22730,0.60506
7273.29855,0.60201
7271.36981,0.60304
7269.44106,0.60653
7267.51232,0.60833
7265.58357,0.60795
7263.65483,0.60777
7261.72608,0.60966
7259.79734,0.61286
7257.86859,0.61392
7255.93985,0.60995
7254.01110,0.60379
7252.08236,0.60173
7250.15361,0.60530
7248.22486,0.60938
7246.29612,0.60967
7244.36737,0.60891
7242.43863,0.60919
7240.50988,0.60821
7238.58114,0.60724
7236.65239,0.60734
7234.72365,0.60646
7232.79490,0.60479
7230.86616,0.60302
7228.93741,0.60232
7227.00867,0.60420
7225.07992,0.60705
7223.15118,0.60937
7221.22243,0.61087
7219.29369,0.60936
7217.36494,0.60576
7215.43619,0.60406
7213.50745,0.60454
7211.57870,0.60418
7209.64996,0.59985
7207.72121,0.59276
7205.79247,0.58968
7203.86372,0.59394
7201.93498,0.60057
7200.00623,0.60297
7198.07749,0.60053
7196.14874,0.59922
7194.22000,0.60152
7192.29125,0.60070
7190.36251,0.59529
7188.43376,0.59245
7186.50501,0.59311
7184.57627,0.59383
7182.64752,0.59380
7180.71878,0.59367
7178.79003,0.59477
7176.86129,0.59653
7174.93254,0.59735
7173.00380,0.59668
7171.07505,0.59466
7169.14631,0.59183
7167.21756,0.58803
7165.28882,0.58511
7163.36007,0.58623
7161.43133,0.58836
7159.50258,0.58714
7157.57384,0.58614
7155.64509,0.58807
7153.71634,0.58936
7151.78760,0.58830
7149.85885,0.58546
7147.93011,0.58204
7146.00136,0.58119
7144.07262,0.58194
7142.14387,0.58002
7140.21513,0.57731
7138.28638,0.57846
7136.35764,0.58130
7134.42889,0.57955
7132.50015,0.57420
7130.57140,0.57215
7128.64266,0.57238
7126.71391,0.57065
7124.78516,0.56949
7122.85642,0.56973
7120.92767,0.57003
7118.99893,0.57160
7117.07018,0.57285
7115.14144,0.57200
7113.21269,0.57103
7111.28395,0.56962
7109.35520,0.56509
7107.42646,0.55889
7105.49771,0.55576
7103.56897,0.55589
7101.64022,0.55474
7099.71148,0.55111
7097.78273,0.54819
7095.85399,0.54756
7093.92524,0.54606
7091.99649,0.54267
7090.06775,0.54332
7088.13900,0.54766
7086.21026,0.54706
7084.28151,0.54121
7082.35277,0.53750
7080.42402,0.53814
7078.49528,0.53880
7076.56653,0.53743
7074.63779,0.53517
7072.70904,0.53075
7070.78030,0.52560
7068.85155,0.52345
7066.92281,0.52157
7064.99406,0.51744
7063.06532,0.51619
7061.13657,0.52032
7059.20782,0.52396
7057.27908,0.52386
7055.35033,0.52214
7053.42159,0.51871
7051.49284,0.51327
7049.56410,0.50822
7047.63535,0.50478
7045.70661,0.50219
7043.77786,0.50042
7041.84912,0.49924
7039.92037,0.49729
7037.99163,0.49494
7036.06288,0.49404
7034.13414,0.49346
7032.20539,0.49135
7030.27664,0.49051
7028.34790,0.49233
7026.41915,0.49354
7024.49041,0.49300
7022.56166,0.49186
7020.63292,0.48957
7018.70417,0.48453
7016.77543,0.47850
7014.84668,0.47665
7012.91794,0.47851
7010.98919,0.47790
7009.06045,0.47449
7007.13170,0.47215
7005.20296,0.47054
7003.27421,0.46968
7001.34547,0.47097
6999.41672,0.47191
6997.48797,0.47041
6995.55923,0.46801
6993.63048,0.46658
6991.70174,0.46575
6989.77299,0.46500
6987.84425,0.46548
6985.91550,0.46551
6983.98676,0.46247
6982.05801,0.45954
6980.12927,0.46008
6978.20052,0.46247
6976.27178,0.46539
6974.34303,0.46734
6972.41429,0.46547
6970.48554,0.46095
6968.55680,0.45653
6966.62805,0.45539
6964.69930,0.45837
6962.77056,0.45882
6960.84181,0.45492
6958.91307,0.45219
6956.98432,0.45086
6955.05558,0.45035
6953.12683,0.45279
6951.19809,0.45581
6949.26934,0.45683
6947.34060,0.45768
6945.41185,0.45825
6943.48311,0.45700
6941.55436,0.45534
6939.62562,0.45438
6937.69687,0.45385
6935.76812,0.45406
6933.83938,0.45361
6931.91063,0.45158
6929.98189,0.45086
6928.05314,0.45195
6926.12440,0.45245
6924.19565,0.45278
6922.26691,0.45408
6920.33816,0.45652
6918.40942,0.45911
6916.48067,0.45860
6914.55193,0.45421
6912.62318,0.45122
6910.69444,0.45342
6908.76569,0.45717
6906.83695,0.45836
6904.90820,0.45727
6902.97945,0.45604
6901.05071,0.45519
6899.12196,0.45308
6897.19322,0.45066
6895.26447,0.45066
6893.33573,0.45239
6891.40698,0.45392
6889.47824,0.45479
6887.54949,0.45365
6885.62075,0.45180
6883.69200,0.45331
6881.76326,0.45616
6879.83451,0.45694
6877.90577,0.45636
6875.97702,0.45464
6874.04828,0.45314
6872.11953,0.45379
6870.19078,0.45463
6868.26204,0.45314
6866.33329,0.45123
6864.40455,0.45125
6862.47580,0.45167
6860.54706,0.45125
6858.61831,0.45103
6856.68957,0.45099
6854.76082,0.45095
6852.83208,0.45234
6850.90333,0.45424
6848.97459,0.45373
6847.04584,0.45258
6845.11710,0.45371
6843.18835,0.45425
6841.25960,0.45213
6839.33086,0.45094
6837.40211,0.45070
6835.47337,0.44927
6833.54462,0.44948
6831.61588,0.45175
6829.68713,0.45270
6827.75839,0.45233
6825.82964,0.45292
6823.90090,0.45455
6821.97215,0.45437
6820.04341,0.45152
6818.11466,0.44875
6816.18592,0.44816
6814.25717,0.44955
6812.32843,0.45235
6810.39968,0.45524
6808.47093,0.45609
6806.54219,0.45589
6804.61344,0.45684
6802.68470,0.45701
6800.75595,0.45459
6798.82721,0.45243
6796.89846,0.45269
6794.96972,0.45365
6793.04097,0.45276
6791.11223,0.45099
6789.18348,0.45076
6787.25474,0.45037
6785.32599,0.44858
6783.39725,0.44675
6781.46850,0.44549
6779.53975,0.44646
6777.61101,0.44891
6775.68226,0.44899
6773.75352,0.44741
6771.82477,0.44726
6769.89603,0.44792
6767.96728,0.44764
6766.03854,0.44697
6764.10979,0.44748
6762.18105,0.44930
6760.25230,0.45105
6758.32356,0.45179
6756.39481,0.45219
6754.46607,0.45241
6752.53732,0.45154
6750.60858,0.45046
6748.67983,0.45045
6746.75108,0.45063
6744.82234,0.45072
6742.89359,0.45115
6740.96485,0.45114
6739.03610,0.45052
6737.10736,0.44991
6735.17861,0.45036
6733.24987,0.45303
6731.32112,0.45512
6729.39238,0.45272
6727.46363,0.44886
6725.53489,0.44880
6723.60614,0.45145
6721.67740,0.45313
6719.74865,0.45335
6717.81991,0.45379
6715.89116,0.45480
6713.96241,0.45418
6712.03367,0.45277
6710.10492,0.45397
6708.17618,0.45615
6706.24743,0.45621
6704.31869,0.45464
6702.38994,0.45287
6700.46120,0.45229
6698.53245,0.45323
6696.60371,0.45367
6694.67496,0.45294
6692.74622,0.45361
6690.81747,0.45584
6688.88873,0.45745
6686.95998,0.45888
6685.03123,0.45932
6683.10249,0.45685
6681.17374,0.45406
6679.24500,0.45456
6677.31625,0.45798
6675.38751,0.46132
6673.45876,0.46183
6671.53002,0.45940
6669.60127,0.45681
6667.67253,0.45597
6665.74378,0.45672
6663.81504,0.45827
6661.88629,0.45964
6659.95755,0.46134
6658.02880,0.46364
6656.10006,0.46419
6654.17131,0.46332
6652.24256,0.46367
6650.31382,0.46294
6648.38507,0.45947
6646.45633,0.45771
6644.52758,0.45864
6642.59884,0.45868
6640.67009,0.45820
6638.74135,0.45914
6636.81260,0.45987
6634.88386,0.45897
6632.95511,0.45856
6631.02637,0.46125
6629.09762,0.46551
6627.16888,0.46605
6625.24013,0.46361
6623.31139,0.46444
6621.38264,0.46821
6619.45389,0.47041
6617.52515,0.46903
6615.59640,0.46508
6613.66766,0.46171
6611.73891,0.46116
6609.81017,0.46456
6607.88142,0.46983
6605.95268,0.47227
6604.02393,0.47154
6602.09519,0.47035
6600.16644,0.46916
6598.23770,0.46907
6596.30895,0.47146
6594.38021,0.47363
6592.45146,0.47439
6590.52271,0.47620
6588.59397,0.47795
6586.66522,0.47801
6584.73648,0.47758
6582.80773,0.47604
6580.87899,0.47301
6578.95024,0.47090
6577.02150,0.47143
6575.09275,0.47410
6573.16401,0.47647
6571.23526,0.47605
6569.30652,0.47374
6567.37777,0.47258
6565.44903,0.47334
6563.52028,0.47394
6561.59154,0.47303
6559.66279,0.47190
6557.73404,0.47214
6555.80530,0.47336
6553.87655,0.47522
6551.94781,0.47884
6550.01906,0.48173
6548.09032,0.47993
6546.16157,0.47633
6544.23283,0.47593
6542.30408,0.47744
6540.37534,0.47701
6538.44659,0.47511
6536.51785,0.47412
6534.58910,0.47447
6532.66036,0.47621
6530.73161,0.47829
6528.80287,0.47934
6526.87412,0.48009
6524.94537,0.48021
6523.01663,0.47939
6521.08788,0.47905
6519.15914,0.47891
6517.23039,0.47914
6515.30165,0.48053
6513.37290,0.48177
6511.44416,0.48180
6509.51541,0.48182
6507.58667,0.48294
6505.65792,0.48348
6503.72918,0.48335
6501.80043,0.48462
6499.87169,0.48527
6497.94294,0.48288
6496.01419,0.47964
6494.08545,0.47819
6492.15670,0.47856
6490.22796,0.47980
6488.29921,0.48149
6486.37047,0.48363
6484.44172,0.48576
6482.51298,0.48604
6480.58423,0.48470
6478.65549,0.48529
6476.72674,0.48763
6474.79800,0.48710
6472.86925,0.48358
6470.94051,0.48163
6469.01176,0.48214
6467.08302,0.48304
6465.15427,0.48380
6463.22552,0.48342
6461.29678,0.48129
6459.36803,0.48010
6457.43929,0.48129
6455.51054,0.48246
6453.58180,0.48285
6451.65305,0.48367
6449.72431,0.48454
6447.79556,0.48496
6445.86682,0.48484
6443.93807,0.48428
6442.00933,0.48395
6440.08058,0.48392
6438.15184,0.48426
6436.22309,0.48525
6434.29434,0.48686
6432.36560,0.48838
6430.43685,0.48794
6428.50811,0.48557
6426.57936,0.48397
6424.65062,0.48411
6422.72187,0.48500
6420.79313,0.48600
6418.86438,0.48690
6416.93564,0.48800
6415.00689,0.48903
6413.07815,0.48957
6411.14940,0.49067
6409.22066,0.49151
6407.29191,0.49067
6405.36317,0.49026
6403.43442,0.49076
6401.50567,0.49022
6399.57693,0.48920
6397.64818,0.48907
6395.71944,0.48999
6393.79069,0.49102
6391.86195,0.49115
6389.93320,0.49046
6388.00446,0.48934
6386.07571,0.48913
6384.14697,0.49065
6382.21822,0.49219
6380.28948,0.49299
6378.36073,0.49300
6376.43199,0.49151
6374.50324,0.49069
6372.57450,0.49260
6370.64575,0.49463
6368.71700,0.49427
6366.78826,0.49288
6364.85951,0.49212
6362.93077,0.49276
6361.00202,0.49447
6359.07328,0.49523
6357.14453,0.49417
6355.21579,0.49234
6353.28704,0.49170
6351.35830,0.49255
6349.42955,0.49245
6347.50081,0.49164
6345.57206,0.49160
6343.64332,0.49169
6341.71457,0.49154
6339.78582,0.49049
6337.85708,0.49015
6335.92833,0.49285
6333.99959,0.49616
6332.07084,0.49692
6330.14210,0.49581
6328.21335,0.49554
6326.28461,0.49623
6324.35586,0.49637
6322.42712,0.49577
6320.49837,0.49422
6318.56963,0.49369
6316.64088,0.49561
6314.71214,0.49661
6312.78339,0.49546
6310.85465,0.49443
6308.92590,0.49381
6306.99715,0.49325
6305.06841,0.49386
6303.13966,0.49652
6301.21092,0.49966
6299.28217,0.50105
6297.35343,0.50093
6295.42468,0.50062
6293.49594,0.50024
6291.56719,0.49952
6289.63845,0.49914
6287.70970,0.49987
6285.78096,0.50073
6283.85221,0.50044
6281.92347,0.49957
6279.99472,0.49941
6278.06598,0.49984
6276.13723,0.50041
6274.20848,0.50170
6272.27974,0.50318
6270.35099,0.50304
6268.42225,0.50144
6266.49350,0.50094
6264.56476,0.50244
6262.63601,0.50432
6260.70727,0.50657
6258.77852,0.50897
6256.84978,0.50885
6254.92103,0.50723
6252.99229,0.50755
6251.06354,0.50972
6249.13480,0.51177
6247.20605,0.51250
6245.27730,0.51255
6243.34856,0.51260
6241.41981,0.51280
6239.49107,0.51443
6237.56232,0.51655
6235.63358,0.51675
6233.70483,0.51555
6231.77609,0.51432
6229.84734,0.51353
6227.91860,0.51324
6225.98985,0.51351
6224.06111,0.51502
6222.13236,0.51820
6220.20362,0.52162
6218.27487,0.52343
6216.34613,0.52380
6214.41738,0.52343
6212.48863,0.52194
6210.55989,0.51993
6208.63114,0.51892
6206.70240,0.51907
6204.77365,0.52033
6202.84491,0.52248
6200.91616,0.52371
6198.98742,0.52384
6197.05867,0.52518
6195.12993,0.52848
6193.20118,0.53195
6191.27244,0.53288
6189.34369,0.53105
6187.41495,0.52937
6185.48620,0.52910
6183.55746,0.52995
6181.62871,0.53205
6179.69996,0.53359
6177.77122,0.53431
6175.84247,0.53594
6173.91373,0.53701
6171.98498,0.53635
6170.05624,0.53552
6168.12749,0.53535
6166.19875,0.53553
6164.27000,0.53628
6162.34126,0.53839
6160.41251,0.54068
6158.48377,0.54157
6156.55502,0.54158
6154.62628,0.54080
6152.69753,0.53967
6150.76878,0.54027
6148.84004,0.54184
6146.91129,0.54217
6144.98255,0.54223
6143.05380,0.54278
6141.12506,0.54296
6139.19631,0.54322
6137.26757,0.54366
6135.33882,0.54285
6133.41008,0.54126
6131.48133,0.54169
6129.55259,0.54458
6127.62384,0.54681
6125.69510,0.54629
6123.76635,0.54434
6121.83761,0.54341
6119.90886,0.54456
6117.98011,0.54698
6116.05137,0.54868
6114.12262,0.54806
6112.19388,0.54520
6110.26513,0.54240
6108.33639,0.54208
6106.40764,0.54380
6104.47890,0.54563
6102.55015,0.54618
6100.62141,0.54577
6098.69266,0.54642
6096.76392,0.54806
6094.83517,0.54929
6092.90643,0.55008
6090.97768,0.54976
6089.04893,0.54826
6087.12019,0.54709
6085.19144,0.54716
6083.26270,0.54861
6081.33395,0.55022
6079.40521,0.55059
6077.47646,0.54945
6075.54772,0.54723
6073.61897,0.54598
6071.69023,0.54711
6069.76148,0.54928
6067.83274,0.55045
6065.90399,0.54905
6063.97525,0.54549
6062.04650,0.54247
6060.11776,0.54201
6058.18901,0.54366
6056.26026,0.54579
6054.33152,0.54659
6052.40277,0.54551
6050.47403,0.54425
6048.54528,0.54378
6046.61654,0.54315
6044.68779,0.54242
6042.75905,0.54259
6040.83030,0.54308
6038.90156,0.54255
6036.97281,0.54153
6035.04407,0.54146
6033.11532,0.54240
6031.18658,0.54315
6029.25783,0.54264
6027.32909,0.54078
6025.40034,0.53895
6023.47159,0.53842
6021.54285,0.53834
6019.61410,0.53810
6017.68536,0.53831
6015.75661,0.53877
6013.82787,0.53923
6011.89912,0.53964
6009.97038,0.53921
6008.04163,0.53742
6006.11289,0.53568
6004.18414,0.53586
6002.25540,0.53723
6000.32665,0.53732
5998.39791,0.53591
5996.46916,0.53551
5994.54041,0.53711
5992.61167,0.53851
5990.68292,0.53811
5988.75418,0.53664
5986.82543,0.53494
5984.89669,0.53330
5982.96794,0.53288
5981.03920,0.53420
5979.11045,0.53513
5977.18171,0.53416
5975.25296,0.53272
5973.32422,0.53179
5971.39547,0.53122
5969.46673,0.53112
5967.53798,0.53083
5965.60924,0.53015
5963.68049,0.52966
5961.75174,0.52882
5959.82300,0.52750
5957.89425,0.52672
5955.96551,0.52658
5954.03676,0.52657
5952.10802,0.52717
5950.17927,0.52843
5948.25053,0.52878
5946.32178,0.52769
5944.39304,0.52630
5942.46429,0.52474
5940.53555,0.52328
5938.60680,0.52340
5936.67806,0.52487
5934.74931,0.52590
5932.82057,0.52598
5930.89182,0.52598
5928.96307,0.52662
5927.03433,0.52750
5925.10558,0.52757
5923.17684,0.52656
5921.24809,0.52591
5919.31935,0.52634
5917.39060,0.52590
5915.46186,0.52413
5913.53311,0.52300
5911.60437,0.52275
5909.67562,0.52238
5907.74688,0.52178
5905.81813,0.52144
5903.88939,0.52140
5901.96064,0.52036
5900.03189,0.51749
5898.10315,0.51490
5896.17440,0.51469
5894.24566,0.51561
5892.31691,0.51598
5890.38817,0.51605
5888.45942,0.51575
5886.53068,0.51500
5884.60193,0.51443
5882.67319,0.51329
5880.74444,0.51190
5878.81570,0.51240
5876.88695,0.51374
5874.95821,0.51425
5873.02946,0.51504
5871.10072,0.51546
5869.17197,0.51426
5867.24322,0.51291
5865.31448,0.51278
5863.38573,0.51339
5861.45699,0.51290
5859.52824,0.51106
5857.59950,0.51079
5855.67075,0.51296
5853.74201,0.51433
5851.81326,0.51384
5849.88452,0.51353
5847.95577,0.51320
5846.02703,0.51169
5844.09828,0.51048
5842.16954,0.51068
5840.24079,0.51084
5838.31205,0.50944
5836.38330,0.50753
5834.45455,0.50722
5832.52581,0.50783
5830.59706,0.50723
5828.66832,0.50586
5826.73957,0.50507
5824.81083,0.50445
5822.88208,0.50368
5820.95334,0.50359
5819.02459,0.50384
5817.09585,0.50360
5815.16710,0.50351
5813.23836,0.50345
5811.30961,0.50232
5809.38087,0.50068
5807.45212,0.49975
5805.52337,0.49970
5803.59463,0.50010
5801.66588,0.50007
5799.73714,0.49909
5797.80839,0.49821
5795.87965,0.49862
5793.95090,0.49968
5792.02216,0.49998
5790.09341,0.49969
5788.16467,0.50019
5786.23592,0.50184
5784.30718,0.50379
5782.37843,0.50506
5780.44969,0.50558
5778.52094,0.50605
5776.59220,0.50616
5774.66345,0.50588
5772.73470,0.50619
5770.80596,0.50695
5768.87721,0.50798
5766.94847,0.50880
5765.01972,0.50846
5763.09098,0.50813
5761.16223,0.50863
5759.23349,0.50923
5757.30474,0.50993
5755.37600,0.51120
5753.44725,0.51269
5751.51851,0.51275
5749.58976,0.51078
5747.66102,0.50883
5745.73227,0.50920
5743.80352,0.51235
5741.87478,0.51583
5739.94603,0.51710
5738.01729,0.51668
5736.08854,0.51579
5734.15980,0.51505
5732.23105,0.51476
5730.30231,0.51474
5728.37356,0.51520
5726.44482,0.51631
5724.51607,0.51731
5722.58733,0.51713
5720.65858,0.51578
5718.72984,0.51466
5716.80109,0.51505
5714.87235,0.51649
5712.94360,0.51686
5711.01485,0.51575
5709.08611,0.51514
5707.15736,0.51540
5705.22862,0.51514
5703.29987,0.51422
5701.37113,0.51367
5699.44238,0.51385
5697.51364,0.51453
5695.58489,0.51542
5693.65615,0.51595
5691.72740,0.51554
5689.79866,0.51455
5687.86991,0.51337
5685.94117,0.51154
5684.01242,0.50983
5682.08368,0.50999
5680.15493,0.51147
5678.22618,0.51274
5676.29744,0.51363
5674.36869,0.51375
5672.43995,0.51268
5670.51120,0.51153
5668.58246,0.51166
5666.65371,0.51285
5664.72497,0.51357
5662.79622,0.51311
5660.86748,0.51270
5658.93873,0.51322
5657.00999,0.51398
5655.08124,0.51423
5653.15250,0.51359
5651.22375,0.51250
5649.29500,0.51158
5647.36626,0.51066
5645.43751,0.50994
5643.50877,0.51032
5641.58002,0.51147
5639.65128,0.51256
5637.72253,0.51364
5635.79379,0.51404
5633.86504,0.51335
5631.93630,0.51285
5630.00755,0.51281
5628.07881,0.51255
5626.15006,0.51206
5624.22132,0.51151
5622.29257,0.51136
5620.36383,0.51181
5618.43508,0.51223
5616.50633,0.51260
5614.57759,0.51327
5612.64884,0.51329
5610.72010,0.51218
5608.79135,0.51165
5606.86261,0.51285
5604.93386,0.51442
5603.00512,0.51477
5601.07637,0.51395
5599.14763,0.51294
5597.21888,0.51268
5595.29014,0.51335
5593.36139,0.51378
5591.43265,0.51330
5589.50390,0.51260
5587.57516,0.51262
5585.64641,0.51358
5583.71766,0.51440
5581.78892,0.51455
5579.86017,0.51454
5577.93143,0.51449
5576.00268,0.51464
5574.07394,0.51524
5572.14519,0.51620
5570.21645,0.51665
5568.28770,0.51604
5566.35896,0.51570
5564.43021,0.51590
5562.50147,0.51589
5560.57272,0.51641
5558.64398,0.51702
5556.71523,0.51628
5554.78648,0.51527
5552.85774,0.51538
5550.92899,0.51564
5549.00025,0.51522
5547.07150,0.51504
5545.14276,0.51584
5543.21401,0.51698
5541.28527,0.51763
5539.35652,0.51794
5537.42778,0.51764
5535.49903,0.51658
5533.57029,0.51628
5531.64154,0.51743
5529.71280,0.51868
5527.78405,0.51919
5525.85531,0.51906
5523.92656,0.51873
5521.99781,0.51893
5520.06907,0.51929
5518.14032,0.51921
5516.21158,0.51910
5514.28283,0.51901
5512.35409,0.51879
5510.42534,0.51898
5508.49660,0.51953
5506.56785,0.51941
5504.63911,0.51888
5502.71036,0.51926
5500.78162,0.52003
5498.85287,0.52032
5496.92413,0.52059
5494.99538,0.52049
5493.06664,0.51980
5491.13789,0.51975
5489.20914,0.52019
5487.28040,0.51982
5485.35165,0.51910
5483.42291,0.51935
5481.49416,0.52047
5479.56542,0.52131
5477.63667,0.52111
5475.70793,0.52077
5473.77918,0.52192
5471.85044,0.52411
5469.92169,0.52522
5467.99295,0.52468
5466.06420,0.52387
5464.13546,0.52390
5462.20671,0.52446
5460.27796,0.52431
5458.34922,0.52346
5456.42047,0.52354
5454.49173,0.52476
5452.56298,0.52570
5450.63424,0.52581
5448.70549,0.52590
5446.77675,0.52631
5444.84800,0.52638
5442.91926,0.52639
5440.99051,0.52718
5439.06177,0.52852
5437.13302,0.52988
5435.20428,0.53086
5433.27553,0.53099
5431.34679,0.53067
5429.41804,0.53091
5427.48929,0.53213
5425.56055,0.53366
5423.63180,0.53445
5421.70306,0.53455
5419.77431,0.53475
5417.84557,0.53510
5415.91682,0.53504
5413.98808,0.53456
5412.05933,0.53445
5410.13059,0.53491
5408.20184,0.53510
5406.27310,0.53519
5404.34435,0.53610
5402.41561,0.53735
5400.48686,0.53800
5398.55811,0.53807
5396.62937,0.53791
5394.70062,0.53792
5392.77188,0.53797
5390.84313,0.53785
5388.91439,0.53797
5386.98564,0.53843
5385.05690,0.53902
5383.12815,0.53907
5381.19941,0.53802
5379.27066,0.53699
5377.34192,0.53727
5375.41317,0.53803
5373.48443,0.53792
5371.55568,0.53710
5369.62694,0.53650
5367.69819,0.53674
5365.76944,0.53754
5363.84070,0.53788
5361.91195,0.53794
5359.98321,0.53863
5358.05446,0.53922
5356.12572,0.53883
5354.19697,0.53792
5352.26823,0.53697
5350.33948,0.53656
5348.41074,0.53709
5346.48199,0.53778
5344.55325,0.53782
5342.62450,0.53738
5340.69576,0.53693
5338.76701,0.53670
5336.83827,0.53655
5334.90952,0.53648
5332.98077,0.53645
5331.05203,0.53611
5329.12328,0.53531
5327.19454,0.53433
5325.26579,0.53321
5323.33705,0.53218
5321.40830,0.53158
5319.47956,0.53113
5317.55081,0.53073
5315.62207,0.52997
5313.69332,0.52803
5311.76458,0.52583
5309.83583,0.52422
5307.90709,0.52245
5305.97834,0.52052
5304.04959,0.51874
5302.12085,0.51670
5300.19210,0.51445
5298.26336,0.51256
5296.33461,0.51152
5294.40587,0.51085
5292.47712,0.50925
5290.54838,0.50663
5288.61963,0.50360
5286.69089,0.50054
5284.76214,0.49763
5282.83340,0.49462
5280.90465,0.49156
5278.97591,0.48863
5277.04716,0.48549
5275.11842,0.48233
5273.18967,0.47939
5271.26092,0.47626
5269.33218,0.47304
5267.40343,0.46960
5265.47469,0.46579
5263.54594,0.46273
5261.61720,0.46051
5259.68845,0.45773
5257.75971,0.45424
5255.83096,0.45088
5253.90222,0.44844
5251.97347,0.44692
5250.04473,0.44555
5248.11598,0.44372
5246.18724,0.44106
5244.25849,0.43788
5242.32975,0.43485
5240.40100,0.43238
5238.47225,0.43064
5236.54351,0.42962
5234.61476,0.42875
5232.68602,0.42746
5230.75727,0.42590
5228.82853,0.42417
5226.89978,0.42228
5224.97104,0.42064
5223.04229,0.41943
5221.11355,0.41841
5219.18480,0.41759
5217.25606,0.41712
5215.32731,0.41637
5213.39857,0.41472
5211.46982,0.41281
5209.54107,0.41171
5207.61233,0.41154
5205.68358,0.41184
5203.75484,0.41253
5201.82609,0.41333
5199.89735,0.41388
5197.96860,0.41408
5196.03986,0.41366
5194.11111,0.41285
5192.18237,0.41250
5190.25362,0.41274
5188.32488,0.41296
5186.39613,0.41309
5184.46739,0.41355
5182.53864,0.41432
5180.60990,0.41510
5178.68115,0.41606
5176.75240,0.41734
5174.82366,0.41830
5172.89491,0.41880
5170.96617,0.41912
5169.03742,0.41915
5167.10868,0.41946
5165.17993,0.42078
5163.25119,0.42250
5161.32244,0.42301
5159.39370,0.42241
5157.46495,0.42249
5155.53621,0.42371
5153.60746,0.42539
5151.67872,0.42697
5149.74997,0.42819
5147.82123,0.42950
5145.89248,0.43097
5143.96373,0.43194
5142.03499,0.43247
5140.10624,0.43319
5138.17750,0.43389
5136.24875,0.43423
5134.32001,0.43456
5132.39126,0.43534
5130.46252,0.43655
5128.53377,0.43805
5126.60503,0.43966
5124.67628,0.44086
5122.74754,0.44182
5120.81879,0.44297
5118.89005,0.44363
5116.96130,0.44370
5115.03255,0.44403
5113.10381,0.44491
5111.17506,0.44617
5109.24632,0.44785
5107.31757,0.44933
5105.38883,0.45023
5103.46008,0.45128
5101.53134,0.45228
5099.60259,0.45258
5097.67385,0.45298
5095.74510,0.45395
5093.81636,0.45448
5091.88761,0.45435
5089.95887,0.45472
5088.03012,0.45580
5086.10138,0.45651
5084.17263,0.45666
5082.24388,0.45733
5080.31514,0.45889
5078.38639,0.46038
5076.45765,0.46149
5074.52890,0.46264
5072.60016,0.46339
5070.67141,0.46344
5068.74267,0.46376
5066.81392,0.46481
5064.88518,0.46565
5062.95643,0.46585
5061.02769,0.46640
5059.09894,0.46753
5057.17020,0.46812
5055.24145,0.46821
5053.31270,0.46897
5051.38396,0.47049
5049.45521,0.47168
5047.52647,0.47204
5045.59772,0.47216
5043.66898,0.47235
5041.74023,0.47261
5039.81149,0.47313
5037.88274,0.47341
5035.95400,0.47323
5034.02525,0.47322
5032.09651,0.47347
5030.16776,0.47335
5028.23902,0.47274
5026.31027,0.47287
5024.38153,0.47430
5022.45278,0.47556
5020.52403,0.47563
5018.59529,0.47539
5016.66654,0.47530
5014.73780,0.47482
5012.80905,0.47425
5010.88031,0.47435
5008.95156,0.47483
5007.02282,0.47501
5005.09407,0.47483
5003.16533,0.47445
5001.23658,0.47363
4999.30784,0.47262
4997.37909,0.47218
4995.45035,0.47197
4993.52160,0.47104
4991.59286,0.46989
4989.66411,0.46948
4987.73536,0.46945
4985.80662,0.46902
4983.87787,0.46813
4981.94913,0.46693
4980.02038,0.46522
4978.09164,0.46334
4976.16289,0.46214
4974.23415,0.46168
4972.30540,0.46122
4970.37666,0.46017
4968.44791,0.45853
4966.51917,0.45673
4964.59042,0.45482
4962.66168,0.45308
4960.73293,0.45200
4958.80418,0.45093
4956.87544,0.44917
4954.94669,0.44713
4953.01795,0.44535
4951.08920,0.44366
4949.16046,0.44165
4947.23171,0.43971
4945.30297,0.43847
4943.37422,0.43732
4941.44548,0.43534
4939.51673,0.43305
4937.58799,0.43128
4935.65924,0.42956
4933.73050,0.42723
4931.80175,0.42482
4929.87301,0.42334
4927.94426,0.42207
4926.01551,0.41952
4924.08677,0.41660
4922.15802,0.41474
4920.22928,0.41319
4918.30053,0.41118
4916.37179,0.40933
4914.44304,0.40777
4912.51430,0.40579
4910.58555,0.40356
4908.65681,0.40164
4906.72806,0.39990
4904.79932,0.39807
4902.87057,0.39616
4900.94183,0.39447
4899.01308,0.39289
4897.08434,0.39118
4895.15559,0.38948
4893.22684,0.38745
4891.29810,0.38528
4889.36935,0.38388
4887.44061,0.38276
4885.51186,0.38123
4883.58312,0.37996
4881.65437,0.37897
4879.72563,0.37747
4877.79688,0.37544
4875.86814,0.37355
4873.93939,0.37215
4872.01065,0.37083
4870.08190,0.36929
4868.15316,0.36793
4866.22441,0.36694
4864.29566,0.36578
4862.36692,0.36416
4860.43817,0.36263
4858.50943,0.36156
4856.58068,0.36047
4854.65194,0.35890
4852.72319,0.35759
4850.79445,0.35738
4848.86570,0.35739
4846.93696,0.35626
4845.00821,0.35422
4843.07947,0.35249
4841.15072,0.35144
4839.22198,0.35034
4837.29323,0.34910
4835.36449,0.34824
4833.43574,0.34754
4831.50699,0.34653
4829.57825,0.34514
4827.64950,0.34379
4825.72076,0.34291
4823.79201,0.34229
4821.86327,0.34170
4819.93452,0.34104
4818.00578,0.34020
4816.07703,0.33943
4814.14829,0.33887
4812.21954,0.33829
4810.29080,0.33772
4808.36205,0.33729
4806.43331,0.33688
4804.50456,0.33644
4802.57582,0.33600
4800.64707,0.33532
4798.71832,0.33472
4796.78958,0.33490
4794.86083,0.33540
4792.93209,0.33525
4791.00334,0.33424
4789.07460,0.33264
4787.14585,0.33130
4785.21711,0.33106
4783.28836,0.33156
4781.35962,0.33210
4779.43087,0.33243
4777.50213,0.33229
4775.57338,0.33185
4773.64464,0.33166
4771.71589,0.33158
4769.78714,0.33135
4767.85840,0.33105
4765.92965,0.33069
4764.00091,0.33058
4762.07216,0.33091
4760.14342,0.33094
4758.21467,0.33041
4756.28593,0.33016
4754.35718,0.33055
4752.42844,0.33101
4750.49969,0.33103
4748.57095,0.33096
4746.64220,0.33132
4744.71346,0.33175
4742.78471,0.33177
4740.85597,0.33158
4738.92722,0.33144
4736.99847,0.33149
4735.06973,0.33181
4733.14098,0.33233
4731.21224,0.33310
4729.28349,0.33412
4727.35475,0.33477
4725.42600,0.33479
4723.49726,0.33450
4721.56851,0.33411
4719.63977,0.33403
4717.71102,0.33452
4715.78228,0.33503
4713.85353,0.33518
4711.92479,0.33548
4709.99604,0.33588
4708.06729,0.33593
4706.13855,0.33611
4704.20980,0.33670
4702.28106,0.33716
4700.35231,0.33714
4698.42357,0.33705
4696.49482,0.33750
4694.56608,0.33836
4692.63733,0.33944
4690.70859,0.34046
4688.77984,0.34076
4686.85110,0.34065
4684.92235,0.34106
4682.99361,0.34173
4681.06486,0.34222
4679.13612,0.34292
4677.20737,0.34400
4675.27862,0.34523
4673.34988,0.34635
4671.42113,0.34700
4669.49239,0.34728
4667.56364,0.34756
4665.63490,0.34802
4663.70615,0.34896
4661.77741,0.35030
4659.84866,0.35136
4657.91992,0.35185
4655.99117,0.35211
4654.06243,0.35267
4652.13368,0.35372
4650.20494,0.35504
4648.27619,0.35624
4646.34745,0.35693
4644.41870,0.35747
4642.48995,0.35838
4640.56121,0.35935
4638.63246,0.36002
4636.70372,0.36070
4634.77497,0.36150
4632.84623,0.36216
4630.91748,0.36260
4628.98874,0.36296
4627.05999,0.36354
4625.13125,0.36443
4623.20250,0.36539
4621.27376,0.36611
4619.34501,0.36656
4617.41627,0.36723
4615.48752,0.36829
4613.55877,0.36909
4611.63003,0.36966
4609.70128,0.37056
4607.77254,0.37159
4605.84379,0.37245
4603.91505,0.37322
4601.98630,0.37379
4600.05756,0.37397
4598.12881,0.37399
4596.20007,0.37445
4594.27132,0.37537
4592.34258,0.37610
4590.41383,0.37673
4588.48509,0.37768
4586.55634,0.37856
4584.62760,0.37879
4582.69885,0.37870
4580.77010,0.37871
4578.84136,0.37887
4576.91261,0.37932
4574.98387,0.37999
4573.05512,0.38052
4571.12638,0.38114
4569.19763,0.38205
4567.26889,0.38273
4565.34014,0.38284
4563.41140,0.38286
4561.48265,0.38352
4559.55391,0.38472
4557.62516,0.38542
4555.69642,0.38545
4553.76767,0.38563
4551.83893,0.38595
4549.91018,0.38614
4547.98143,0.38651
4546.05269,0.38689
4544.12394,0.38700
4542.19520,0.38719
4540.26645,0.38740
4538.33771,0.38744
4536.40896,0.38770
4534.48022,0.38814
4532.55147,0.38839
4530.62273,0.38878
4528.69398,0.38947
4526.76524,0.38998
4524.83649,0.38990
4522.90775,0.38946
4520.97900,0.38949
4519.05025,0.39024
4517.12151,0.39085
4515.19276,0.39045
4513.26402,0.38927
4511.33527,0.38825
4509.40653,0.38779
4507.47778,0.38748
4505.54904,0.38706
4503.62029,0.38668
4501.69155,0.38598
4499.76280,0.38480
4497.83406,0.38390
4495.90531,0.38329
4493.97657,0.38239
4492.04782,0.38113
4490.11908,0.37965
4488.19033,0.37790
4486.26158,0.37596
4484.33284,0.37431
4482.40409,0.37299
4480.47535,0.37149
4478.54660,0.36956
4476.61786,0.36722
4474.68911,0.36465
4472.76037,0.36218
4470.83162,0.35991
4468.90288,0.35773
4466.97413,0.35557
4465.04539,0.35344
4463.11664,0.35126
4461.18790,0.34870
4459.25915,0.34582
4457.33041,0.34327
4455.40166,0.34123
4453.47291,0.33894
4451.54417,0.33619
4449.61542,0.33359
4447.68668,0.33134
4445.75793,0.32916
4443.82919,0.32692
4441.90044,0.32487
4439.97170,0.32304
4438.04295,0.32092
4436.11421,0.31855
4434.18546,0.31661
4432.25672,0.31500
4430.32797,0.31313
4428.39923,0.31119
4426.47048,0.30964
4424.54173,0.30828
4422.61299,0.30671
4420.68424,0.30491
4418.75550,0.30314
4416.82675,0.30176
4414.89801,0.30090
4412.96926,0.30024
4411.04052,0.29931
4409.11177,0.29801
4407.18303,0.29676
4405.25428,0.29601
4403.32554,0.29582
4401.39679,0.29598
4399.46805,0.29610
4397.53930,0.29601
4395.61056,0.29589
4393.68181,0.29599
4391.75306,0.29650
4389.82432,0.29720
4387.89557,0.29775
4385.96683,0.29830
4384.03808,0.29895
4382.10934,0.29944
4380.18059,0.29990
4378.25185,0.30086
4376.32310,0.30219
4374.39436,0.30327
4372.46561,0.30404
4370.53687,0.30487
4368.60812,0.30575
4366.67938,0.30662
4364.75063,0.30746
4362.82189,0.30794
4360.89314,0.30781
4358.96439,0.30727
4357.03565,0.30690
4355.10690,0.30685
4353.17816,0.30669
4351.24941,0.30635
4349.32067,0.30606
4347.39192,0.30576
4345.46318,0.30523
4343.53443,0.30449
4341.60569,0.30371
4339.67694,0.30301
4337.74820,0.30236
4335.81945,0.30176
4333.89071,0.30126
4331.96196,0.30067
4330.03321,0.29974
4328.10447,0.29876
4326.17572,0.29833
4324.24698,0.29829
4322.31823,0.29787
4320.38949,0.29703
4318.46074,0.29641
4316.53200,0.29619
4314.60325,0.29597
4312.67451,0.29567
4310.74576,0.29541
4308.81702,0.29503
4306.88827,0.29454
4304.95953,0.29410
4303.03078,0.29348
4301.10204,0.29252
4299.17329,0.29157
4297.24454,0.29098
4295.31580,0.29070
4293.38705,0.29046
4291.45831,0.29019
4289.52956,0.28985
4287.60082,0.28950
4285.67207,0.28924
4283.74333,0.28891
4281.81458,0.28844
4279.88584,0.28815
4277.95709,0.28825
4276.02835,0.28846
4274.09960,0.28854
4272.17086,0.28866
4270.24211,0.28884
4268.31336,0.28905
4266.38462,0.28954
4264.45587,0.29024
4262.52713,0.29077
4260.59838,0.29095
4258.66964,0.29091
4256.74089,0.29095
4254.81215,0.29137
4252.88340,0.29200
4250.95466,0.29240
4249.02591,0.29242
4247.09717,0.29230
4245.16842,0.29236
4243.23968,0.29265
4241.31093,0.29281
4239.38219,0.29277
4237.45344,0.29300
4235.52469,0.29357
4233.59595,0.29401
4231.66720,0.29420
4229.73846,0.29442
4227.80971,0.29470
4225.88097,0.29488
4223.95222,0.29491
4222.02348,0.29499
4220.09473,0.29517
4218.16599,0.29536
4216.23724,0.29579
4214.30850,0.29635
4212.37975,0.29659
4210.45101,0.29673
4208.52226,0.29694
4206.59352,0.29691
4204.66477,0.29680
4202.73602,0.29702
4200.80728,0.29754
4198.87853,0.29799
4196.94979,0.29792
4195.02104,0.29771
4193.09230,0.29810
4191.16355,0.29875
4189.23481,0.29905
4187.30606,0.29921
4185.37732,0.29933
4183.44857,0.29906
4181.51983,0.29874
4179.59108,0.29907
4177.66234,0.29992
4175.73359,0.30059
4173.80484,0.30098
4171.87610,0.30144
4169.94735,0.30177
4168.01861,0.30175
4166.08986,0.30195
4164.16112,0.30271
4162.23237,0.30353
4160.30363,0.30394
4158.37488,0.30384
4156.44614,0.30321
4154.51739,0.30239
4152.58865,0.30190
4150.65990,0.30184
4148.73116,0.30197
4146.80241,0.30198
4144.87367,0.30159
4142.94492,0.30078
4141.01617,0.29999
4139.08743,0.29958
4137.15868,0.29916
4135.22994,0.29850
4133.30119,0.29787
4131.37245,0.29718
4129.44370,0.29624
4127.51496,0.29534
4125.58621,0.29452
4123.65747,0.29344
4121.72872,0.29208
4119.79998,0.29065
4117.87123,0.28939
4115.94249,0.28827
4114.01374,0.28707
4112.08500,0.28599
4110.15625,0.28513
4108.22750,0.28400
4106.29876,0.28236
4104.37001,0.28060
4102.44127,0.27916
4100.51252,0.27796
4098.58378,0.27678
4096.65503,0.27561
4094.72629,0.27429
4092.79754,0.27274
4090.86880,0.27123
4088.94005,0.26981
4087.01131,0.26828
4085.08256,0.26664
4083.15382,0.26493
4081.22507,0.26350
4079.29632,0.26237
4077.36758,0.26092
4075.43883,0.25926
4073.51009,0.25790
4071.58134,0.25661
4069.65260,0.25506
4067.72385,0.25339
4065.79511,0.25184
4063.86636,0.25038
4061.93762,0.24897
4060.00887,0.24760
4058.08013,0.24629
4056.15138,0.24495
4054.22264,0.24346
4052.29389,0.24200
4050.36515,0.24077
4048.43640,0.23968
4046.50765,0.23863
4044.57891,0.23772
4042.65016,0.23693
4040.72142,0.23615
4038.79267,0.23536
4036.86393,0.23448
4034.93518,0.23340
4033.00644,0.23241
4031.07769,0.23184
4029.14895,0.23136
4027.22020,0.23059
4025.29146,0.22987
4023.36271,0.22949
4021.43397,0.22948
4019.50522,0.22964
4017.57648,0.22953
4015.64773,0.22937
4013.71898,0.22971
4011.79024,0.23015
4009.86149,0.23023
4007.93275,0.23030
4006.00400,0.23060
4004.07526,0.23088
4002.14651,0.23120
4000.21777,0.23187
3998.28902,0.23266
3996.36028,0.23326
3994.43153,0.23379
3992.50279,0.23420
3990.57404,0.23443
3988.64530,0.23485
3986.71655,0.23545
3984.78780,0.23586
3982.85906,0.23620
3980.93031,0.23690
3979.00157,0.23774
3977.07282,0.23826
3975.14408,0.23828
3973.21533,0.23821
3971.28659,0.23867
3969.35784,0.23942
3967.42910,0.24007
3965.50035,0.24089
3963.57161,0.24174
3961.64286,0.24232
3959.71412,0.24313
3957.78537,0.24428
3955.85663,0.24522
3953.92788,0.24576
3951.99913,0.24636
3950.07039,0.24717
3948.14164,0.24771
3946.21290,0.24818
3944.28415,0.24922
3942.35541,0.25042
3940.42666,0.25102
3938.49792,0.25148
3936.56917,0.25229
3934.64043,0.25326
3932.71168,0.25419
3930.78294,0.25503
3928.85419,0.25561
3926.92545,0.25619
3924.99670,0.25703
3923.06795,0.25793
3921.13921,0.25888
3919.21046,0.25999
3917.28172,0.26100
3915.35297,0.26160
3913.42423,0.26208
3911.49548,0.26288
3909.56674,0.26380
3907.63799,0.26449
3905.70925,0.26516
3903.78050,0.26599
3901.85176,0.26666
3899.92301,0.26701
3897.99427,0.26726
3896.06552,0.26773
3894.13678,0.26858
3892.20803,0.26955
3890.27928,0.27033
3888.35054,0.27108
3886.42179,0.27188
3884.49305,0.27238
3882.56430,0.27283
3880.63556,0.27357
3878.70681,0.27425
3876.77807,0.27474
3874.84932,0.27536
3872.92058,0.27620
3870.99183,0.27713
3869.06309,0.27801
3867.13434,0.27873
3865.20560,0.27925
3863.27685,0.27977
3861.34811,0.28067
3859.41936,0.28195
3857.49061,0.28318
3855.56187,0.28420
3853.63312,0.28514
3851.70438,0.28605
3849.77563,0.28694
3847.84689,0.28791
3845.91814,0.28889
3843.98940,0.28976
3842.06065,0.29064
3840.13191,0.29147
3838.20316,0.29188
3836.27442,0.29200
3834.34567,0.29242
3832.41693,0.29304
3830.48818,0.29347
3828.55943,0.29370
3826.63069,0.29392
3824.70194,0.29447
3822.77320,0.29529
3820.84445,0.29558
3818.91571,0.29535
3816.98696,0.29528
3815.05822,0.29543
3813.12947,0.29572
3811.20073,0.29601
3809.27198,0.29605
3807.34324,0.29582
3805.41449,0.29578
3803.48575,0.29608
3801.55700,0.29616
3799.62826,0.29595
3797.69951,0.29598
3795.77076,0.29613
3793.84202,0.29610
3791.91327,0.29609
3789.98453,0.29635
3788.05578,0.29676
3786.12704,0.29683
3784.19829,0.29638
3782.26955,0.29576
3780.34080,0.29518
3778.41206,0.29489
3776.48331,0.29503
3774.55457,0.29524
3772.62582,0.29520
3770.69708,0.29496
3768.76833,0.29471
3766.83959,0.29431
3764.91084,0.29370
3762.98209,0.29317
3761.05335,0.29267
3759.12460,0.29205
3757.19586,0.29149
3755.26711,0.29103
3753.33837,0.29055
3751.40962,0.29007
3749.48088,0.28956
3747.55213,0.28898
3745.62339,0.28826
3743.69464,0.28751
3741.76590,0.28653
3739.83715,0.28519
3737.90841,0.28387
3735.97966,0.28300
3734.05091,0.28239
3732.12217,0.28146
3730.19342,0.28026
3728.26468,0.27911
3726.33593,0.27785
3724.40719,0.27622
3722.47844,0.27438
3720.54970,0.27265
3718.62095,0.27114
3716.69221,0.26967
3714.76346,0.26818
3712.83472,0.26651
3710.90597,0.26423
3708.97723,0.26151
3707.04848,0.25886
3705.11974,0.25623
3703.19099,0.25341
3701.26224,0.25047
3699.33350,0.24748
3697.40475,0.24438
3695.47601,0.24113
3693.54726,0.23776
3691.61852,0.23437
3689.68977,0.23084
3687.76103,0.22651
3685.83228,0.22169
3683.90354,0.21712
3681.97479,0.21277
3680.04605,0.20850
3678.11730,0.20418
3676.18856,0.19915
3674.25981,0.19378
3672.33107,0.18897
3670.40232,0.18378
3668.47357,0.17822
3666.54483,0.17353
3664.61608,0.16927
3662.68734,0.16466
3660.75859,0.15985
3658.82985,0.15532
3656.90110,0.15110
3654.97236,0.14706
3653.04361,0.14335
3651.11487,0.13945
3649.18612,0.13487
3647.25738,0.13059
3645.32863,0.12719
3643.39989,0.12402
3641.47114,0.12074
3639.54239,0.11754
3637.61365,0.11466
3635.68490,0.11194
3633.75616,0.10909
3631.82741,0.10622
3629.89867,0.10336
3627.96992,0.10052
3626.04118,0.09808
3624.11243,0.09589
3622.18369,0.09370
3620.25494,0.09138
3618.32620,0.08894
3616.39745,0.08661
3614.46871,0.08428
3612.53996,0.08197
3610.61122,0.07989
3608.68247,0.07780
3606.75372,0.07552
3604.82498,0.07335
3602.89623,0.07157
3600.96749,0.07007
3599.03874,0.06857
3597.11000,0.06700
3595.18125,0.06530
3593.25251,0.06354
3591.32376,0.06195
3589.39502,0.06041
3587.46627,0.05876
3585.53753,0.05729
3583.60878,0.05621
3581.68004,0.05532
3579.75129,0.05446
3577.82254,0.05368
3575.89380,0.05281
3573.96505,0.05190
3572.03631,0.05119
3570.10756,0.05046
3568.17882,0.04943
3566.25007,0.04826
3564.32133,0.04722
3562.39258,0.04646
3560.46384,0.04585
3558.53509,0.04507
3556.60635,0.04415
3554.67760,0.04341
3552.74886,0.04299
3550.82011,0.04257
3548.89137,0.04202
3546.96262,0.04157
3545.03387,0.04117
3543.10513,0.04068
3541.17638,0.04011
3539.24764,0.03958
3537.31889,0.03925
3535.39015,0.03906
3533.46140,0.03876
3531.53266,0.03835
3529.60391,0.03810
3527.67517,0.03794
3525.74642,0.03752
3523.81768,0.03687
3521.88893,0.03632
3519.96019,0.03598
3518.03144,0.03563
3516.10270,0.03529
3514.17395,0.03510
3512.24520,0.03486
3510.31646,0.03435
3508.38771,0.03386
3506.45897,0.03372
3504.53022,0.03392
3502.60148,0.03429
3500.67273,0.03446
3498.74399,0.03423
3496.81524,0.03373
3494.88650,0.03321
3492.95775,0.03287
3491.02901,0.03261
3489.10026,0.03233
3487.17152,0.03220
3485.24277,0.03227
3483.31402,0.03233
3481.38528,0.03210
3479.45653,0.03174
3477.52779,0.03157
3475.59904,0.03154
3473.67030,0.03161
3471.74155,0.03162
3469.81281,0.03140
3467.88406,0.03109
3465.95532,0.03087
3464.02657,0.03098
3462.09783,0.03117
3460.16908,0.03104
3458.24034,0.03075
3456.31159,0.03047
3454.38285,0.03019
3452.45410,0.02990
3450.52535,0.02956
3448.59661,0.02931
3446.66786,0.02932
3444.73912,0.02948
3442.81037,0.02963
3440.88163,0.02990
3438.95288,0.03016
3437.02414,0.03014
3435.09539,0.03003
3433.16665,0.03004
3431.23790,0.03018
3429.30916,0.03028
3427.38041,0.03012
3425.45167,0.02984
3423.52292,0.02975
3421.59418,0.02982
3419.66543,0.02985
3417.73668,0.02993
3415.80794,0.03022
3413.87919,0.03059
3411.95045,0.03064
3410.02170,0.03035
3408.09296,0.03017
3406.16421,0.03028
3404.23547,0.03036
3402.30672,0.03019
3400.37798,0.02996
3398.44923,0.03015
3396.52049,0.03078
3394.59174,0.03113
3392.66300,0.03084
3390.73425,0.03049
3388.80550,0.03040
3386.87676,0.03032
3384.94801,0.03030
3383.01927,0.03041
3381.09052,0.03052
3379.16178,0.03067
3377.23303,0.03090
3375.30429,0.03106
3373.37554,0.03094
3371.44680,0.03060
3369.51805,0.03033
3367.58931,0.03034
3365.66056,0.03063
3363.73182,0.03091
3361.80307,0.03104
3359.87433,0.03102
3357.94558,0.03091
3356.01683,0.03101
3354.08809,0.03136
3352.15934,0.03158
3350.23060,0.03162
3348.30185,0.03151
3346.37311,0.03118
3344.44436,0.03099
3342.51562,0.03121
3340.58687,0.03181
3338.65813,0.03243
3336.72938,0.03277
3334.80064,0.03296
3332.87189,0.03304
3330.94315,0.03303
3329.01440,0.03300
3327.08566,0.03301
3325.15691,0.03317
3323.22816,0.03351
3321.29942,0.03391
3319.37067,0.03418
3317.44193,0.03435
3315.51318,0.03450
3313.58444,0.03458
3311.65569,0.03457
3309.72695,0.03459
3307.79820,0.03476
3305.86946,0.03496
3303.94071,0.03509
3302.01197,0.03526
3300.08322,0.03545
3298.15448,0.03548
3296.22573,0.03551
3294.29698,0.03580
3292.36824,0.03617
3290.43949,0.03630
3288.51075,0.03618
3286.58200,0.03614
3284.65326,0.03640
3282.72451,0.03664
3280.79577,0.03642
3278.86702,0.03622
3276.93828,0.03679
3275.00953,0.03772
3273.08079,0.03819
3271.15204,0.03838
3269.22330,0.03868
3267.29455,0.03890
3265.36581,0.03895
3263.43706,0.03898
3261.50831,0.03906
3259.57957,0.03944
3257.65082,0.04014
3255.72208,0.04074
3253.79333,0.04113
3251.86459,0.04155
3249.93584,0.04202
3248.00710,0.04240
3246.07835,0.04264
3244.14961,0.04297
3242.22086,0.04343
3240.29212,0.04383
3238.36337,0.04418
3236.43463,0.04447
3234.50588,0.04473
3232.57713,0.04494
3230.64839,0.04515
3228.71964,0.04553
3226.79090,0.04604
3224.86215,0.04654
3222.93341,0.04714
3221.00466,0.04762
3219.07592,0.04781
3217.14717,0.04804
3215.21843,0.04845
3213.28968,0.04876
3211.36094,0.04919
3209.43219,0.05004
3207.50345,0.05092
3205.57470,0.05129
3203.64596,0.05141
3201.71721,0.05194
3199.78846,0.05274
3197.85972,0.05321
3195.93097,0.05344
3194.00223,0.05384
3192.07348,0.05435
3190.14474,0.05473
3188.21599,0.05518
3186.28725,0.05593
3184.35850,0.05664
3182.42976,0.05710
3180.50101,0.05761
3178.57227,0.05818
3176.64352,0.05848
3174.71478,0.05854
3172.78603,0.05878
3170.85729,0.05944
3168.92854,0.06024
3166.99979,0.06083
3165.07105,0.06143
3163.14230,0.06227
3161.21356,0.06312
3159.28481,0.06383
3157.35607,0.06451
3155.42732,0.06508
3153.49858,0.06543
3151.56983,0.06561
3149.64109,0.06597
3147.71234,0.06664
3145.78360,0.06716
3143.85485,0.06750
3141.92611,0.06800
3139.99736,0.06867
3138.06861,0.06933
3136.13987,0.06979
3134.21112,0.07027
3132.28238,0.07106
3130.35363,0.07192
3128.42489,0.07242
3126.49614,0.07271
3124.56740,0.07320
3122.63865,0.07370
3120.70991,0.07389
3118.78116,0.07424
3116.85242,0.07497
3114.92367,0.07573
3112.99493,0.07628
3111.06618,0.07656
3109.13744,0.07677
3107.20869,0.07726
3105.27994,0.07795
3103.35120,0.07869
3101.42245,0.07940
3099.49371,0.07973
3097.56496,0.07982
3095.63622,0.08019
3093.70747,0.08072
3091.77873,0.08114
3089.84998,0.08163
3087.92124,0.08215
3085.99249,0.08254
3084.06375,0.08298
3082.13500,0.08350
3080.20626,0.08400
3078.27751,0.08449
3076.34877,0.08489
3074.42002,0.08526
3072.49127,0.08574
3070.56253,0.08624
3068.63378,0.08669
3066.70504,0.08707
3064.77629,0.08735
3062.84755,0.08768
3060.91880,0.08826
3058.99006,0.08896
3057.06131,0.08942
3055.13257,0.08967
3053.20382,0.09012
3051.27508,0.09081
3049.34633,0.09135
3047.41759,0.09159
3045.48884,0.09176
3043.56009,0.09191
3041.63135,0.09183
3039.70260,0.09168
3037.77386,0.09179
3035.84511,0.09201
3033.91637,0.09205
3031.98762,0.09188
3030.05888,0.09153
3028.13013,0.09103
3026.20139,0.09053
3024.27264,0.09010
3022.34390,0.08958
3020.41515,0.08893
3018.48641,0.08817
3016.55766,0.08739
3014.62892,0.08671
3012.70017,0.08602
3010.77142,0.08520
3008.84268,0.08422
3006.91393,0.08305
3004.98519,0.08186
3003.05644,0.08097
3001.12770,0.08050
2999.19895,0.08010
2997.27021,0.07934
2995.34146,0.07838
2993.41272,0.07768
2991.48397,0.07695
2989.55523,0.07577
2987.62648,0.07437
2985.69774,0.07302
2983.76899,0.07166
2981.84025,0.07003
2979.91150,0.06801
2977.98275,0.06600
2976.05401,0.06445
2974.12526,0.06317
2972.19652,0.06171
2970.26777,0.06015
2968.33903,0.05886
2966.41028,0.05786
2964.48154,0.05703
2962.55279,0.05631
2960.62405,0.05563
2958.69530,0.05499
2956.76656,0.05441
2954.83781,0.05387
2952.90907,0.05324
2950.98032,0.05252
2949.05157,0.05207
2947.12283,0.05178
2945.19408,0.05111
2943.26534,0.05016
2941.33659,0.04948
2939.40785,0.04933
2937.47910,0.04955
2935.55036,0.04973
2933.62161,0.04986
2931.69287,0.04992
2929.76412,0.04958
2927.83538,0.04915
2925.90663,0.04911
2923.97789,0.04913
2922.04914,0.04891
2920.12040,0.04868
2918.19165,0.04864
2916.26290,0.04876
2914.33416,0.04890
2912.40541,0.04891
2910.47667,0.04884
2908.54792,0.04900
2906.61918,0.04926
2904.69043,0.04929
2902.76169,0.04920
2900.83294,0.04932
2898.90420,0.04977
2896.97545,0.05034
2895.04671,0.05089
2893.11796,0.05146
2891.18922,0.05187
2889.26047,0.05211
2887.33172,0.05244
2885.40298,0.05289
2883.47423,0.05343
2881.54549,0.05393
2879.61674,0.05420
2877.68800,0.05433
2875.75925,0.05449
2873.83051,0.05474
2871.90176,0.05508
2869.97302,0.05549
2868.04427,0.05595
2866.11553,0.05641
2864.18678,0.05673
2862.25804,0.05706
2860.32929,0.05770
2858.40055,0.05839
2856.47180,0.05885
2854.54305,0.05908
2852.61431,0.05916
2850.68556,0.05942
2848.75682,0.06036
2846.82807,0.06195
2844.89933,0.06355
2842.97058,0.06486
2841.04184,0.06620
2839.11309,0.06783
2837.18435,0.06951
2835.25560,0.07116
2833.32686,0.07305
2831.39811,0.07519
2829.46937,0.07733
2827.54062,0.07934
2825.61188,0.08116
2823.68313,0.08281
2821.75438,0.08427
2819.82564,0.08555
2817.89689,0.08679
2815.96815,0.08803
2814.03940,0.08924
2812.11066,0.09054
2810.18191,0.09189
2808.25317,0.09314
2806.32442,0.09435
2804.39568,0.09538
2802.46693,0.09620
2800.53819,0.09703
2798.60944,0.09793
2796.68070,0.09873
2794.75195,0.09937
2792.82320,0.09988
2790.89446,0.10041
2788.96571,0.10099
2787.03697,0.10164
2785.10822,0.10240
2783.17948,0.10312
2781.25073,0.10361
2779.32199,0.10393
2777.39324,0.10406
2775.46450,0.10414
2773.53575,0.10438
2771.60701,0.10479
2769.67826,0.10526
2767.74952,0.10569
2765.82077,0.10610
2763.89203,0.10658
2761.96328,0.10713
2760.03453,0.10762
2758.10579,0.10793
2756.17704,0.10805
2754.24830,0.10805
2752.31955,0.10803
2750.39081,0.10810
2748.46206,0.10823
2746.53332,0.10833
2744.60457,0.10834
2742.67583,0.10842
2740.74708,0.10873
2738.81834,0.10904
2736.88959,0.10924
2734.96085,0.10951
2733.03210,0.10984
2731.10336,0.11003
2729.17461,0.11022
2727.24586,0.11050
2725.31712,0.11084
2723.38837,0.11131
2721.45963,0.11192
2719.53088,0.11244
2717.60214,0.11277
2715.67339,0.11317
2713.74465,0.11377
2711.81590,0.11444
2709.88716,0.11512
2707.95841,0.11586
2706.02967,0.11676
2704.10092,0.11761
2702.17218,0.11829
2700.24343,0.11902
2698.31468,0.11976
2696.38594,0.12037
2694.45719,0.12092
2692.52845,0.12153
2690.59970,0.12230
2688.67096,0.12313
2686.74221,0.12375
2684.81347,0.12413
2682.88472,0.12451
2680.95598,0.12497
2679.02723,0.12555
2677.09849,0.12619
2675.16974,0.12665
2673.24100,0.12696
2671.31225,0.12740
2669.38351,0.12792
2667.45476,0.12846
2665.52601,0.12898
2663.59727,0.12915
2661.66852,0.12904
2659.73978,0.12921
2657.81103,0.12980
2655.88229,0.13043
2653.95354,0.13085
2652.02480,0.13121
2650.09605,0.13162
2648.16731,0.13195
2646.23856,0.13219
2644.30982,0.13252
2642.38107,0.13293
2640.45233,0.13336
2638.52358,0.13386
2636.59484,0.13433
2634.66609,0.13463
2632.73734,0.13487
2630.80860,0.13541
2628.87985,0.13629
2626.95111,0.13703
2625.02236,0.13744
2623.09362,0.13787
2621.16487,0.13848
2619.23613,0.13907
2617.30738,0.13958
2615.37864,0.14019
2613.44989,0.14076
2611.52115,0.14094
2609.59240,0.14101
2607.66366,0.14146
2605.73491,0.14213
2603.80616,0.14266
2601.87742,0.14306
2599.94867,0.14352
2598.01993,0.14410
2596.09118,0.14467
2594.16244,0.14510
2592.23369,0.14542
2590.30495,0.14571
2588.37620,0.14600
2586.44746,0.14632
2584.51871,0.14662
2582.58997,0.14686
2580.66122,0.14707
2578.73248,0.14722
2576.80373,0.14728
2574.87499,0.14735
2572.94624,0.14748
2571.01749,0.14762
2569.08875,0.14774
2567.16000,0.14782
2565.23126,0.14791
2563.30251,0.14809
2561.37377,0.14836
2559.44502,0.14857
2557.51628,0.14857
2555.58753,0.14834
2553.65879,0.14811
2551.73004,0.14827
2549.80130,0.14872
2547.87255,0.14888
2545.94381,0.14887
2544.01506,0.14902
2542.08631,0.14918
2540.15757,0.14928
2538.22882,0.14945
2536.30008,0.14970
2534.37133,0.14994
2532.44259,0.15020
2530.51384,0.15054
2528.58510,0.15096
2526.65635,0.15142
2524.72761,0.15176
2522.79886,0.15196
2520.87012,0.15223
2518.94137,0.15252
2517.01263,0.15272
2515.08388,0.15296
2513.15514,0.15328
2511.22639,0.15359
2509.29764,0.15408
2507.36890,0.15474
2505.44015,0.15540
2503.51141,0.15615
2501.58266,0.15689
2499.65392,0.15741
2497.72517,0.15799
2495.79643,0.15868
2493.86768,0.15926
2491.93894,0.15976
2490.01019,0.16021
2488.08145,0.16058
2486.15270,0.16101
2484.22396,0.16161
2482.29521,0.16237
2480.36647,0.16306
2478.43772,0.16342
2476.50897,0.16377
2474.58023,0.16442
2472.65148,0.16504
2470.72274,0.16546
2468.79399,0.16593
2466.86525,0.16645
2464.93650,0.16688
2463.00776,0.16724
2461.07901,0.16754
2459.15027,0.16791
2457.22152,0.16845
2455.29278,0.16908
2453.36403,0.16967
2451.43529,0.17022
2449.50654,0.17070
2447.57779,0.17122
2445.64905,0.17182
2443.72030,0.17244
2441.79156,0.17315
2439.86281,0.17403
2437.93407,0.17480
2436.00532,0.17531
2434.07658,0.17584
2432.14783,0.17640
2430.21909,0.17691
2428.29034,0.17762
2426.36160,0.17854
2424.43285,0.17945
2422.50411,0.18031
2420.57536,0.18114
2418.64662,0.18190
2416.71787,0.18270
2414.78912,0.18354
2412.86038,0.18433
2410.93163,0.18513
2409.00289,0.18595
2407.07414,0.18666
2405.14540,0.18727
2403.21665,0.18794
2401.28791,0.18864
2399.35916,0.18927
2397.43042,0.19001
2395.50167,0.19084
2393.57293,0.19147
2391.64418,0.19195
2389.71544,0.19253
2387.78669,0.19314
2385.85795,0.19360
2383.92920,0.19408
2382.00045,0.19478
2380.07171,0.19550
2378.14296,0.19599
2376.21422,0.19655
2374.28547,0.19731
2372.35673,0.19795
2370.42798,0.19847
2368.49924,0.19908
2366.57049,0.19974
2364.64175,0.20042
2362.71300,0.20111
2360.78426,0.20177
2358.85551,0.20248
2356.92677,0.20319
2354.99802,0.20374
2353.06927,0.20422
2351.14053,0.20480
2349.21178,0.20546
2347.28304,0.20621
2345.35429,0.20708
2343.42555,0.20784
2341.49680,0.20826
2339.56806,0.20854
2337.63931,0.20899
2335.71057,0.20960
2333.78182,0.21005
2331.85308,0.21013
2329.92433,0.21016
2327.99559,0.21049
2326.06684,0.21103
2324.13810,0.21148
2322.20935,0.21175
2320.28060,0.21199
2318.35186,0.21223
2316.42311,0.21232
2314.49437,0.21231
2312.56562,0.21234
2310.63688,0.21231
2308.70813,0.21221
2306.77939,0.21211
2304.85064,0.21197
2302.92190,0.21167
2300.99315,0.21137
2299.06441,0.21119
2297.13566,0.21100
2295.20692,0.21073
2293.27817,0.21054
2291.34943,0.21050
2289.42068,0.21051
2287.49193,0.21046
2285.56319,0.21034
2283.63444,0.21029
2281.70570,0.21027
2279.77695,0.21012
2277.84821,0.20979
2275.91946,0.20935
2273.99072,0.20890
2272.06197,0.20845
2270.13323,0.20791
2268.20448,0.20718
2266.27574,0.20627
2264.34699,0.20541
2262.41825,0.20467
2260.48950,0.20405
2258.56075,0.20361
2256.63201,0.20321
2254.70326,0.20262
2252.77452,0.20183
2250.84577,0.20109
2248.91703,0.20068
2246.98828,0.20047
2245.05954,0.20024
2243.13079,0.19996
2241.20205,0.19973
2239.27330,0.19971
2237.34456,0.19987
2235.41581,0.19996
2233.48707,0.19990
2231.55832,0.19985
2229.62958,0.20005
2227.70083,0.20047
2225.77208,0.20087
2223.84334,0.20123
2221.91459,0.20161
2219.98585,0.20194
2218.05710,0.20225
2216.12836,0.20256
2214.19961,0.20273
2212.27087,0.20277
2210.34212,0.20277
2208.41338,0.20276
2206.48463,0.20269
2204.55589,0.20253
2202.62714,0.20227
2200.69840,0.20191
2198.76965,0.20147
2196.84090,0.20088
2194.91216,0.20017
2192.98341,0.19941
2191.05467,0.19860
2189.12592,0.19768
2187.19718,0.19663
2185.26843,0.19551
2183.33969,0.19442
2181.41094,0.19341
2179.48220,0.19229
2177.55345,0.19098
2175.62471,0.18965
2173.69596,0.18841
2171.76722,0.18732
2169.83847,0.18634
2167.90973,0.18527
2165.98098,0.18412
2164.05223,0.18309
2162.12349,0.18228
2160.19474,0.18160
2158.26600,0.18084
2156.33725,0.18004
2154.40851,0.17938
2152.47976,0.17890
2150.55102,0.17845
2148.62227,0.17792
2146.69353,0.17739
2144.76478,0.17701
2142.83604,0.17671
2140.90729,0.17636
2138.97855,0.17607
2137.04980,0.17601
2135.12106,0.17612
2133.19231,0.17626
2131.26356,0.17638
2129.33482,0.17647
2127.40607,0.17651
2125.47733,0.17656
2123.54858,0.17673
2121.61984,0.17708
2119.69109,0.17754
2117.76235,0.17797
2115.83360,0.17833
2113.90486,0.17865
2111.97611,0.17899
2110.04737,0.17947
2108.11862,0.17998
2106.18988,0.18041
2104.26113,0.18086
2102.33238,0.18138
2100.40364,0.18189
2098.47489,0.18231
2096.54615,0.18273
2094.61740,0.18324
2092.68866,0.18371
2090.75991,0.18410
2088.83117,0.18451
2086.90242,0.18507
2084.97368,0.18565
2083.04493,0.18586
2081.11619,0.18566
2079.18744,0.18547
2077.25870,0.18555
2075.32995,0.18572
2073.40121,0.18587
2071.47246,0.18587
2069.54371,0.18553
2067.61497,0.18519
2065.68622,0.18535
2063.75748,0.18577
2061.82873,0.18611
2059.89999,0.18638
2057.97124,0.18662
2056.04250,0.18682
2054.11375,0.18708
2052.18501,0.18738
2050.25626,0.18767
2048.32752,0.18800
2046.39877,0.18843
2044.47003,0.18891
2042.54128,0.18935
2040.61254,0.18984
2038.68379,0.19054
2036.75504,0.19138
2034.82630,0.19224
2032.89755,0.19303
2030.96881,0.19379
2029.04006,0.19466
2027.11132,0.19572
2025.18257,0.19687
2023.25383,0.19799
2021.32508,0.19897
2019.39634,0.19985
2017.46759,0.20093
2015.53885,0.20214
2013.61010,0.20313
2011.68136,0.20391
2009.75261,0.20482
2007.82386,0.20586
2005.89512,0.20674
2003.96637,0.20741
2002.03763,0.20800
2000.10888,0.20856
1998.18014,0.20902
1996.25139,0.20945
1994.32265,0.20989
1992.39390,0.21032
1990.46516,0.21081
1988.53641,0.21131
1986.60767,0.21163
1984.67892,0.21188
1982.75018,0.21218
1980.82143,0.21233
1978.89269,0.21221
1976.96394,0.21201
1975.03519,0.21190
1973.10645,0.21178
1971.17770,0.21151
1969.24896,0.21119
1967.32021,0.21096
1965.39147,0.21075
1963.46272,0.21046
1961.53398,0.21020
1959.60523,0.21003
1957.67649,0.21000
1955.74774,0.21016
1953.81900,0.21046
1951.89025,0.21074
1949.96151,0.21103
1948.03276,0.21149
1946.10402,0.21219
1944.17527,0.21307
1942.24652,0.21404
1940.31778,0.21492
1938.38903,0.21577
1936.46029,0.21677
1934.53154,0.21785
1932.60280,0.21879
1930.67405,0.21974
1928.74531,0.22077
1926.81656,0.22172
1924.88782,0.22260
1922.95907,0.22348
1921.03033,0.22424
1919.10158,0.22485
1917.17284,0.22544
1915.24409,0.22612
1913.31534,0.22676
1911.38660,0.22726
1909.45785,0.22772
1907.52911,0.22819
1905.60036,0.22864
1903.67162,0.22907
1901.74287,0.22945
1899.81413,0.22975
1897.88538,0.22993
1895.95664,0.22997
1894.02789,0.22995
1892.09915,0.23004
1890.17040,0.23022
1888.24166,0.23023
1886.31291,0.23008
1884.38417,0.22987
1882.45542,0.22951
1880.52667,0.22905
1878.59793,0.22861
1876.66918,0.22823
1874.74044,0.22780
1872.81169,0.22736
1870.88295,0.22700
1868.95420,0.22650
1867.02546,0.22561
1865.09671,0.22445
1863.16797,0.22336
1861.23922,0.22234
1859.31048,0.22124
1857.38173,0.22022
1855.45299,0.21938
1853.52424,0.21860
1851.59549,0.21769
1849.66675,0.21655
1847.73800,0.21524
1845.80926,0.21384
1843.88051,0.21232
1841.95177,0.21081
1840.02302,0.20954
1838.09428,0.20831
1836.16553,0.20688
1834.23679,0.20537
1832.30804,0.20380
1830.37930,0.20204
1828.45055,0.20029
1826.52181,0.19862
1824.59306,0.19678
1822.66432,0.19482
1820.73557,0.19287
1818.80682,0.19079
1816.87808,0.18855
1814.94933,0.18625
1813.02059,0.18383
1811.09184,0.18107
1809.16310,0.17809
1807.23435,0.17526
1805.30561,0.17256
1803.37686,0.16968
1801.44812,0.16643
1799.51937,0.16287
1797.59063,0.15928
1795.66188,0.15584
1793.73314,0.15226
1791.80439,0.14825
1789.87565,0.14422
1787.94690,0.14037
1786.01815,0.13624
1784.08941,0.13158
1782.16066,0.12660
1780.23192,0.12129
1778.30317,0.11562
1776.37443,0.10980
1774.44568,0.10383
1772.51694,0.09726
1770.58819,0.09036
1768.65945,0.08395
1766.73070,0.07823
1764.80196,0.07342
1762.87321,0.06922
1760.94447,0.06545
1759.01572,0.06263
1757.08697,0.06057
1755.15823,0.05894
1753.22948,0.05776
1751.30074,0.05688
1749.37199,0.05598
1747.44325,0.05503
1745.51450,0.05426
1743.58576,0.05382
1741.65701,0.05371
1739.72827,0.05383
1737.79952,0.05417
1735.87078,0.05457
1733.94203,0.05474
1732.01329,0.05489
1730.08454,0.05535
1728.15580,0.05616
1726.22705,0.05721
1724.29830,0.05841
1722.36956,0.05954
1720.44081,0.06061
1718.51207,0.06198
1716.58332,0.06375
1714.65458,0.06566
1712.72583,0.06745
1710.79709,0.06909
1708.86834,0.07067
1706.93960,0.07243
1705.01085,0.07425
1703.08211,0.07595
1701.15336,0.07761
1699.22462,0.07896
1697.29587,0.07974
1695.36713,0.08033
1693.43838,0.08099
1691.50963,0.08167
1689.58089,0.08216
1687.65214,0.08235
1685.72340,0.08227
1683.79465,0.08187
1681.86591,0.08138
1679.93716,0.08090
1678.00842,0.08013
1676.07967,0.07897
1674.15093,0.07785
1672.22218,0.07709
1670.29344,0.07626
1668.36469,0.07525
1666.43595,0.07456
1664.50720,0.07411
1662.57845,0.07345
1660.64971,0.07273
1658.72096,0.07240
1656.79222,0.07232
1654.86347,0.07218
1652.93473,0.07184
1651.00598,0.07171
1649.07724,0.07191
1647.14849,0.07186
1645.21975,0.07145
1643.29100,0.07121
1641.36226,0.07112
1639.43351,0.07098
1637.50477,0.07085
1635.57602,0.07049
1633.64728,0.06981
1631.71853,0.06942
1629.78978,0.06923
1627.86104,0.06871
1625.93229,0.06784
1624.00355,0.06692
1622.07480,0.06600
1620.14606,0.06513
1618.21731,0.06416
1616.28857,0.06279
1614.35982,0.06124
1612.43108,0.05985
1610.50233,0.05843
1608.57359,0.05699
1606.64484,0.05588
1604.71610,0.05507
1602.78735,0.05428
1600.85861,0.05331
1598.92986,0.05215
1597.00111,0.05106
1595.07237,0.05034
1593.14362,0.05021
1591.21488,0.05097
1589.28613,0.05273
1587.35739,0.05518
1585.42864,0.05794
1583.49990,0.06100
1581.57115,0.06454
1579.64241,0.06840
1577.71366,0.07253
1575.78492,0.07692
1573.85617,0.08076
1571.92743,0.08406
1569.99868,0.08754
1568.06993,0.09080
1566.14119,0.09317
1564.21244,0.09480
1562.28370,0.09614
1560.35495,0.09760
1558.42621,0.09905
1556.49746,0.09990
1554.56872,0.10033
1552.63997,0.10054
1550.71123,0.10044
1548.78248,0.10002
1546.85374,0.09950
1544.92499,0.09908
1542.99625,0.09863
1541.06750,0.09784
1539.13876,0.09661
1537.21001,0.09559
1535.28126,0.09482
1533.35252,0.09361
1531.42377,0.09182
1529.49503,0.08962
1527.56628,0.08669
1525.63754,0.08297
1523.70879,0.07887
1521.78005,0.07395
1519.85130,0.06868
1517.92256,0.06437
1515.99381,0.06105
1514.06507,0.05852
1512.13632,0.05654
1510.20758,0.05494
1508.27883,0.05374
1506.35008,0.05265
1504.42134,0.05196
1502.49259,0.05199
1500.56385,0.05260
1498.63510,0.05383
1496.70636,0.05547
1494.77761,0.05696
1492.84887,0.05821
1490.92012,0.05937
1488.99138,0.06020
1487.06263,0.06022
1485.13389,0.05947
1483.20514,0.05822
1481.27640,0.05647
1479.34765,0.05432
1477.41891,0.05194
1475.49016,0.04928
1473.56141,0.04622
1471.63267,0.04325
1469.70392,0.04119
1467.77518,0.03998
1465.84643,0.03921
1463.91769,0.03875
1461.98894,0.03860
1460.06020,0.03882
1458.13145,0.03932
1456.20271,0.03970
1454.27396,0.03997
1452.34522,0.04047
1450.41647,0.04111
1448.48773,0.04160
1446.55898,0.04179
1444.63024,0.04172
1442.70149,0.04157
1440.77274,0.04144
1438.84400,0.04118
1436.91525,0.04060
1434.98651,0.03991
1433.05776,0.03939
1431.12902,0.03908
1429.20027,0.03894
1427.27153,0.03901
1425.34278,0.03932
1423.41404,0.03980
1421.48529,0.04045
1419.55655,0.04134
1417.62780,0.04218
1415.69906,0.04291
1413.77031,0.04381
1411.84156,0.04476
1409.91282,0.04539
1407.98407,0.04560
1406.05533,0.04562
1404.12658,0.04569
1402.19784,0.04579
1400.26909,0.04570
1398.34035,0.04517
1396.41160,0.04416
1394.48286,0.04296
1392.55411,0.04196
1390.62537,0.04109
1388.69662,0.03987
1386.76788,0.03819
1384.83913,0.03660
1382.91039,0.03546
1380.98164,0.03469
1379.05289,0.03410
1377.12415,0.03366
1375.19540,0.03345
1373.26666,0.03351
1371.33791,0.03372
1369.40917,0.03394
1367.48042,0.03410
1365.55168,0.03414
1363.62293,0.03422
1361.69419,0.03450
1359.76544,0.03487
1357.83670,0.03514
1355.90795,0.03524
1353.97921,0.03524
1352.05046,0.03527
1350.12172,0.03526
1348.19297,0.03504
1346.26422,0.03465
1344.33548,0.03425
1342.40673,0.03403
1340.47799,0.03398
1338.54924,0.03390
1336.62050,0.03362
1334.69175,0.03312
1332.76301,0.03278
1330.83426,0.03286
1328.90552,0.03310
1326.97677,0.03324
1325.04803,0.03333
1323.11928,0.03353
1321.19054,0.03390
1319.26179,0.03425
1317.33304,0.03450
1315.40430,0.03485
1313.47555,0.03537
1311.54681,0.03594
1309.61806,0.03661
1307.68932,0.03737
1305.76057,0.03793
1303.83183,0.03806
1301.90308,0.03798
1299.97434,0.03791
1298.04559,0.03785
1296.11685,0.03765
1294.18810,0.03721
1292.25936,0.03657
1290.33061,0.03590
1288.40187,0.03528
1286.47312,0.03470
1284.54437,0.03422
1282.61563,0.03388
1280.68688,0.03361
1278.75814,0.03326
1276.82939,0.03272
1274.90065,0.03210
1272.97190,0.03162
1271.04316,0.03145
1269.11441,0.03151
1267.18567,0.03139
1265.25692,0.03094
1263.32818,0.03049
1261.39943,0.03020
1259.47069,0.03002
1257.54194,0.03002
1255.61320,0.03008
1253.68445,0.03000
1251.75570,0.02979
1249.82696,0.02950
1247.89821,0.02923
1245.96947,0.02911
1244.04072,0.02915
1242.11198,0.02933
1240.18323,0.02964
1238.25449,0.02996
1236.32574,0.03031
1234.39700,0.03079
1232.46825,0.03123
1230.53951,0.03150
1228.61076,0.03181
1226.68202,0.03222
1224.75327,0.03264
1222.82452,0.03312
1220.89578,0.03364
1218.96703,0.03407
1217.03829,0.03436
1215.10954,0.03469
1213.18080,0.03512
1211.25205,0.03541
1209.32331,0.03551
1207.39456,0.03550
1205.46582,0.03545
1203.53707,0.03547
1201.60833,0.03559
1199.67958,0.03585
1197.75084,0.03607
1195.82209,0.03601
1193.89335,0.03565
1191.96460,0.03508
1190.03585,0.03444
1188.10711,0.03390
1186.17836,0.03342
1184.24962,0.03280
1182.32087,0.03194
1180.39213,0.03095
1178.46338,0.03006
1176.53464,0.02938
1174.60589,0.02874
1172.67715,0.02829
1170.74840,0.02830
1168.81966,0.02869
1166.89091,0.02942
1164.96217,0.03031
1163.03342,0.03083
1161.10467,0.03096
1159.17593,0.03102
1157.24718,0.03098
1155.31844,0.03081
1153.38969,0.03067
1151.46095,0.03068
1149.53220,0.03071
1147.60346,0.03054
1145.67471,0.03008
1143.74597,0.02937
1141.81722,0.02861
1139.88848,0.02777
1137.95973,0.02685
1136.03099,0.02620
1134.10224,0.02602
1132.17350,0.02620
1130.24475,0.02666
1128.31600,0.02723
1126.38726,0.02772
1124.45851,0.02824
1122.52977,0.02881
1120.60102,0.02919
1118.67228,0.02935
1116.74353,0.02941
1114.81479,0.02973
1112.88604,0.03034
1110.95730,0.03069
1109.02855,0.03073
1107.09981,0.03089
1105.17106,0.03116
1103.24232,0.03125
1101.31357,0.03110
1099.38483,0.03103
1097.45608,0.03115
1095.52733,0.03114
1093.59859,0.03067
1091.66984,0.03007
1089.74110,0.02999
1087.81235,0.03028
1085.88361,0.03027
1083.95486,0.03012
1082.02612,0.03038
1080.09737,0.03102
1078.16863,0.03186
1076.23988,0.03278
1074.31114,0.03363
1072.38239,0.03452
1070.45365,0.03555
1068.52490,0.03660
1066.59615,0.03780
1064.66741,0.03931
1062.73866,0.04076
1060.80992,0.04172
1058.88117,0.04237
1056.95243,0.04293
1055.02368,0.04329
1053.09494,0.04351
1051.16619,0.04372
1049.23745,0.04371
1047.30870,0.04330
1045.37996,0.04282
1043.45121,0.04285
1041.52247,0.04356
1039.59372,0.04458
1037.66498,0.04548
1035.73623,0.04614
1033.80748,0.04666
1031.87874,0.04692
1029.94999,0.04679
1028.02125,0.04666
1026.09250,0.04674
1024.16376,0.04674
1022.23501,0.04660
1020.30627,0.04654
1018.37752,0.04682
1016.44878,0.04740
1014.52003,0.04808
1012.59129,0.04877
1010.66254,0.04926
1008.73380,0.04937
1006.80505,0.04926
1004.87631,0.04928
1002.94756,0.04966
1001.01881,0.05012
999.09007,0.05018
997.16132,0.04998
995.23258,0.05003
993.30383,0.05050
991.37509,0.05123
989.44634,0.05222
987.51760,0.05354
985.58885,0.05497
983.66011,0.05651
981.73136,0.05835
979.80262,0.06010
977.87387,0.06144
975.94513,0.06259
974.01638,0.06361
972.08763,0.06446
970.15889,0.06543
968.23014,0.06677
966.30140,0.06828
964.37265,0.06971
962.44391,0.07121
960.51516,0.07298
958.58642,0.07516
956.65767,0.07759
954.72893,0.07989
952.80018,0.08198
950.87144,0.08395
948.94269,0.08574
947.01395,0.08715
945.08520,0.08803
943.15646,0.08849
941.22771,0.08877
939.29896,0.08878
937.37022,0.08849
935.44147,0.08813
933.51273,0.08779
931.58398,0.08734
929.65524,0.08684
927.72649,0.08644
925.79775,0.08625
923.86900,0.08605
921.94026,0.08555
920.01151,0.08482
918.08277,0.08413
916.15402,0.08364
914.22528,0.08318
912.29653,0.08244
910.36779,0.08151
908.43904,0.08058
906.51029,0.07938
904.58155,0.07770
902.65280,0.07611
900.72406,0.07525
898.79531,0.07514
896.86657,0.07560
894.93782,0.07670
893.00908,0.07838
891.08033,0.08034
889.15159,0.08240
887.22284,0.08450
885.29410,0.08647
883.36535,0.08801
881.43661,0.08895
879.50786,0.08947
877.57911,0.08978
875.65037,0.09019
873.72162,0.09095
871.79288,0.09211
869.86413,0.09356
867.93539,0.09486
866.00664,0.09576
864.07790,0.09646
862.14915,0.09704
860.22041,0.09729
858.29166,0.09708
856.36292,0.09657
854.43417,0.09619
852.50543,0.09609
850.57668,0.09595
848.64794,0.09545
846.71919,0.09483
844.79044,0.09450
842.86170,0.09440
840.93295,0.09420
839.00421,0.09385
837.07546,0.09356
835.14672,0.09349
833.21797,0.09350
831.28923,0.09347
829.36048,0.09362
827.43174,0.09420
825.50299,0.09521
823.57425,0.09628
821.64550,0.09702
819.71676,0.09741
817.78801,0.09771
815.85926,0.09815
813.93052,0.09855
812.00177,0.09861
810.07303,0.09849
808.14428,0.09827
806.21554,0.09796
804.28679,0.09781
802.35805,0.09773
800.42930,0.09754
798.50056,0.09744
796.57181,0.09757
794.64307,0.09766
792.71432,0.09723
790.78558,0.09647
788.85683,0.09595
786.92809,0.09557
784.99934,0.09489
783.07059,0.09392
781.14185,0.09299
779.21310,0.09195
777.28436,0.09025
775.35561,0.08812
773.42687,0.08648
771.49812,0.08562
769.56938,0.08507
767.64063,0.08463
765.71189,0.08417
763.78314,0.08365
761.85440,0.08307
759.92565,0.08213
757.99691,0.08089
756.06816,0.07981
754.13942,0.07885
752.21067,0.07783
750.28192,0.07685
748.35318,0.07609
746.42443,0.07562
744.49569,0.07521
742.56694,0.07462
740.63820,0.07387
738.70945,0.07298
736.78071,0.07209
734.85196,0.07124
732.92322,0.07031
730.99447,0.06936
729.06573,0.06842
727.13698,0.06731
725.20824,0.06598
723.27949,0.06512
721.35074,0.06505
719.42200,0.06506
717.49325,0.06482
715.56451,0.06453
713.63576,0.06408
711.70702,0.06357
709.77827,0.06331
707.84953,0.06306
705.92078,0.06242
703.99204,0.06205
702.06329,0.06237
700.13455,0.06257
698.20580,0.06210
696.27706,0.06137
694.34831,0.06065
692.41957,0.06027
690.49082,0.06052
688.56207,0.06086
686.63333,0.06052
684.70458,0.05957
682.77584,0.05859
680.84709,0.05786
678.91835,0.05714
676.98960,0.05611
675.06086,0.05500
673.13211,0.05454
671.20337,0.05491
669.27462,0.05534
667.34588,0.05508
665.41713,0.05468
663.48839,0.05504
661.55964,0.05565
659.63090,0.05578
657.70215,0.05588
655.77340,0.05628
653.84466,0.05628
651.91591,0.05563
649.98717,0.05530
648.05842,0.05580
646.12968,0.05612
644.20093,0.05564
642.27219,0.05492
640.34344,0.05413
638.41470,0.05337
636.48595,0.05301
634.55721,0.05255
632.62846,0.05147
630.69972,0.05013
628.77097,0.04935
626.84222,0.04947
624.91348,0.05015
622.98473,0.05074
621.05599,0.05041
619.12724,0.04906
617.19850,0.04781
615.26975,0.04804
613.34101,0.04932
611.41226,0.04995
609.48352,0.05041
607.55477,0.05186
605.62603,0.05309
603.69728,0.05236
601.76854,0.05088
599.83979,0.05118
