5996.40973,0.59289
5994.48101,0.59361
5992.55228,0.59611
5990.62356,0.59691
5988.69483,0.59766
5986.76610,0.59729
5984.83738,0.59347
5982.90865,0.59128
5980.97992,0.59167
5979.05120,0.58922
5977.12247,0.58398
5975.19375,0.58056
5973.26502,0.58246
5971.33629,0.58728
5969.40757,0.58891
5967.47884,0.58737
5965.55011,0.58560
5963.62139,0.58392
5961.69266,0.58462
5959.76394,0.58837
5957.83521,0.59042
5955.90648,0.58798
5953.97776,0.58406
5952.04903,0.58310
5950.12031,0.58390
5948.19158,0.58338
5946.26285,0.58430
5944.33413,0.58797
5942.40540,0.59141
5940.47667,0.59332
5938.54795,0.59342
5936.61922,0.59291
5934.69050,0.59165
5932.76177,0.58797
5930.83304,0.58590
5928.90432,0.58852
5926.97559,0.59128
5925.04686,0.59110
5923.11814,0.58965
5921.18941,0.58737
5919.26069,0.58270
5917.33196,0.57705
5915.40323,0.57436
5913.47451,0.57530
5911.54578,0.57685
5909.61706,0.57698
5907.68833,0.57785
5905.75960,0.58174
5903.83088,0.58589
5901.90215,0.58456
5899.97342,0.57637
5898.04470,0.56956
5896.11597,0.57094
5894.18725,0.57499
5892.25852,0.57552
5890.32979,0.57521
5888.40107,0.57703
5886.47234,0.57860
5884.54361,0.57744
5882.61489,0.57579
5880.68616,0.57663
5878.75744,0.57815
5876.82871,0.57633
5874.89998,0.57333
5872.97126,0.57462
5871.04253,0.57894
5869.11381,0.58259
5867.18508,0.58407
5865.25635,0.58372
5863.32763,0.58409
5861.39890,0.58297
5859.47017,0.57769
5857.54145,0.57322
5855.61272,0.57226
5853.68400,0.57438
5851.75527,0.58037
5849.82654,0.58698
5847.89782,0.59035
5845.96909,0.58945
5844.04036,0.58437
5842.11164,0.57816
5840.18291,0.57402
5838.25419,0.57235
5836.32546,0.57244
5834.39673,0.57272
5832.46801,0.57163
5830.53928,0.57036
5828.61056,0.57105
5826.68183,0.57230
5824.75310,0.57214
5822.82438,0.57105
5820.89565,0.57051
5818.96692,0.57236
5817.03820,0.57396
5815.10947,0.57073
5813.18075,0.56628
5811.25202,0.56610
5809.32329,0.56753
5807.39457,0.56700
5805.46584,0.56729
5803.53711,0.56921
5801.60839,0.56884
5799.67966,0.56637
5797.75094,0.56426
5795.82221,0.56303
5793.89348,0.56395
5791.96476,0.56715
5790.03603,0.57081
5788.10731,0.57340
5786.17858,0.57371
5784.24985,0.57346
5782.32113,0.57478
5780.39240,0.57547
5778.46367,0.57431
5776.53495,0.57336
5774.60622,0.57317
5772.67750,0.57233
5770.74877,0.56987
5768.82004,0.56754
5766.89132,0.56765
5764.96259,0.56904
5763.03386,0.57091
5761.10514,0.57407
5759.17641,0.57705
5757.24769,0.57842
5755.31896,0.57759
5753.39023,0.57590
5751.46151,0.57681
5749.53278,0.57828
5747.60406,0.57861
5745.67533,0.58269
5743.74660,0.58980
5741.81788,0.59222
5739.88915,0.58788
5737.96042,0.58224
5736.03170,0.57912
5734.10297,0.57654
5732.17425,0.57344
5730.24552,0.57376
5728.31679,0.57890
5726.38807,0.58435
5724.45934,0.58626
5722.53061,0.58425
5720.60189,0.58156
5718.67316,0.58102
5716.74444,0.57988
5714.81571,0.57711
5712.88698,0.57640
5710.95826,0.57797
5709.02953,0.57815
5707.10081,0.57728
5705.17208,0.57870
5703.24335,0.58067
5701.31463,0.57919
5699.38590,0.57474
5697.45717,0.57099
5695.52845,0.57068
5693.59972,0.57172
5691.67100,0.57178
5689.74227,0.57368
5687.81354,0.57674
5685.88482,0.57696
5683.95609,0.57563
5682.02736,0.57429
5680.09864,0.57420
5678.16991,0.57726
5676.24119,0.57903
5674.31246,0.57613
5672.38373,0.57311
5670.45501,0.57443
5668.52628,0.57932
5666.59756,0.58386
5664.66883,0.58511
5662.74010,0.58320
5660.81138,0.57961
5658.88265,0.57562
5656.95392,0.57405
5655.02520,0.57627
5653.09647,0.57818
5651.16775,0.57634
5649.23902,0.57284
5647.31029,0.57146
5645.38157,0.57266
5643.45284,0.57432
5641.52411,0.57616
5639.59539,0.57786
5637.66666,0.57834
5635.73794,0.57834
5633.80921,0.57770
5631.88048,0.57609
5629.95176,0.57620
5628.02303,0.57930
5626.09430,0.58202
5624.16558,0.58212
5622.23685,0.58140
5620.30813,0.58109
5618.37940,0.58081
5616.45067,0.58055
5614.52195,0.57861
5612.59322,0.57420
5610.66450,0.57135
5608.73577,0.57252
5606.80704,0.57641
5604.87832,0.58102
5602.94959,0.58349
5601.02086,0.58279
5599.09214,0.58036
5597.16341,0.57861
5595.23469,0.57956
5593.30596,0.58168
5591.37723,0.58288
5589.44851,0.58385
5587.51978,0.58403
5585.59105,0.58198
5583.66233,0.57983
5581.73360,0.58022
5579.80488,0.58169
5577.87615,0.58130
5575.94742,0.58000
5574.01870,0.58170
5572.08997,0.58727
5570.16125,0.59238
5568.23252,0.59309
5566.30379,0.59033
5564.37507,0.58635
5562.44634,0.58361
5560.51761,0.58386
5558.58889,0.58507
5556.66016,0.58559
5554.73144,0.58528
5552.80271,0.58297
5550.87398,0.57971
5548.94526,0.57879
5547.01653,0.58108
5545.08780,0.58378
5543.15908,0.58511
5541.23035,0.58760
5539.30163,0.59243
5537.37290,0.59560
5535.44417,0.59414
5533.51545,0.59005
5531.58672,0.58542
5529.65800,0.58161
5527.72927,0.58006
5525.80054,0.58040
5523.87182,0.58228
5521.94309,0.58526
5520.01436,0.58786
5518.08564,0.58915
5516.15691,0.58790
5514.22819,0.58396
5512.29946,0.58033
5510.37073,0.57976
5508.44201,0.58228
5506.51328,0.58586
5504.58455,0.58875
5502.65583,0.59044
5500.72710,0.59072
5498.79838,0.58922
5496.86965,0.58585
5494.94092,0.58143
5493.01220,0.57804
5491.08347,0.57878
5489.15475,0.58318
5487.22602,0.58657
5485.29729,0.58719
5483.36857,0.58728
5481.43984,0.58842
5479.51111,0.58937
5477.58239,0.58837
5475.65366,0.58591
5473.72494,0.58509
5471.79621,0.58871
5469.86748,0.59364
5467.93876,0.59375
5466.01003,0.58971
5464.08130,0.58793
5462.15258,0.59045
5460.22385,0.59346
5458.29513,0.59521
5456.36640,0.59757
5454.43767,0.60010
5452.50895,0.60134
5450.58022,0.60095
5448.65150,0.59800
5446.72277,0.59491
5444.79404,0.59635
5442.86532,0.60157
5440.93659,0.60511
5439.00786,0.60359
5437.07914,0.59981
5435.15041,0.59814
5433.22169,0.59951
5431.29296,0.60223
5429.36423,0.60382
5427.43551,0.60397
5425.50678,0.60536
5423.57805,0.60808
5421.64933,0.60998
5419.72060,0.60949
5417.79188,0.60579
5415.86315,0.60074
5413.93442,0.59700
5412.00570,0.59586
5410.07697,0.59806
5408.14825,0.60112
5406.21952,0.60137
5404.29079,0.59906
5402.36207,0.59721
5400.43334,0.59846
5398.50461,0.60288
5396.57589,0.60734
5394.64716,0.60929
5392.71844,0.60921
5390.78971,0.60870
5388.86098,0.60932
5386.93226,0.61021
5385.00353,0.60810
5383.07480,0.60399
5381.14608,0.60181
5379.21735,0.60155
5377.28863,0.60210
5375.35990,0.60385
5373.43117,0.60628
5371.50245,0.60752
5369.57372,0.60690
5367.64500,0.60564
5365.71627,0.60544
5363.78754,0.60710
5361.85882,0.60931
5359.93009,0.60923
5358.00136,0.60563
5356.07264,0.60017
5354.14391,0.59582
5352.21519,0.59457
5350.28646,0.59557
5348.35773,0.59658
5346.42901,0.59765
5344.50028,0.59911
5342.57155,0.59826
5340.64283,0.59477
5338.71410,0.59175
5336.78538,0.59129
5334.85665,0.59227
5332.92792,0.59330
5330.99920,0.59505
5329.07047,0.59816
5327.14175,0.60069
5325.21302,0.60001
5323.28429,0.59624
5321.35557,0.59166
5319.42684,0.58876
5317.49811,0.58878
5315.56939,0.59029
5313.64066,0.59020
5311.71194,0.58784
5309.78321,0.58536
5307.85448,0.58435
5305.92576,0.58486
5303.99703,0.58480
5302.06830,0.58185
5300.13958,0.57713
5298.21085,0.57313
5296.28213,0.57102
5294.35340,0.57012
5292.42467,0.56768
5290.49595,0.56308
5288.56722,0.55966
5286.63849,0.55817
5284.70977,0.55490
5282.78104,0.54939
5280.85232,0.54542
5278.92359,0.54407
5276.99486,0.54322
5275.06614,0.54112
5273.13741,0.53726
5271.20869,0.53218
5269.27996,0.52720
5267.35123,0.52285
5265.42251,0.51760
5263.49378,0.51053
5261.56505,0.50498
5259.63633,0.50353
5257.70760,0.50330
5255.77888,0.50116
5253.85015,0.49687
5251.92142,0.49159
5249.99270,0.48631
5248.06397,0.48208
5246.13524,0.47987
5244.20652,0.47889
5242.27779,0.47774
5240.34907,0.47661
5238.42034,0.47518
5236.49161,0.47260
5234.56289,0.46961
5232.63416,0.46674
5230.70544,0.46344
5228.77671,0.46028
5226.84798,0.45839
5224.91926,0.45706
5222.99053,0.45612
5221.06180,0.45633
5219.13308,0.45673
5217.20435,0.45545
5215.27563,0.45237
5213.34690,0.45023
5211.41817,0.45112
5209.48945,0.45293
5207.56072,0.45257
5205.63199,0.45118
5203.70327,0.45107
5201.77454,0.45125
5199.84582,0.45068
5197.91709,0.45022
5195.98836,0.44965
5194.05964,0.44864
5192.13091,0.44903
5190.20219,0.45024
5188.27346,0.44895
5186.34473,0.44661
5184.41601,0.44753
5182.48728,0.45085
5180.55855,0.45300
5178.62983,0.45360
5176.70110,0.45441
5174.77238,0.45568
5172.84365,0.45744
5170.91492,0.46013
5168.98620,0.46220
5167.05747,0.46224
5165.12874,0.46135
5163.20002,0.46122
5161.27129,0.46263
5159.34257,0.46436
5157.41384,0.46438
5155.48511,0.46340
5153.55639,0.46333
5151.62766,0.46453
5149.69894,0.46718
5147.77021,0.47065
5145.84148,0.47246
5143.91276,0.47261
5141.98403,0.47340
5140.05530,0.47494
5138.12658,0.47687
5136.19785,0.47906
5134.26913,0.47998
5132.34040,0.47988
5130.41167,0.48154
5128.48295,0.48519
5126.55422,0.48815
5124.62549,0.48869
5122.69677,0.48696
5120.76804,0.48496
5118.83932,0.48474
5116.91059,0.48553
5114.98186,0.48570
5113.05314,0.48578
5111.12441,0.48736
5109.19569,0.49036
5107.26696,0.49299
5105.33823,0.49418
5103.40951,0.49394
5101.48078,0.49286
5099.55205,0.49196
5097.62333,0.49199
5095.69460,0.49342
5093.76588,0.49571
5091.83715,0.49791
5089.90842,0.50053
5087.97970,0.50317
5086.05097,0.50378
5084.12224,0.50228
5082.19352,0.50052
5080.26479,0.50084
5078.33607,0.50436
5076.40734,0.50832
5074.47861,0.50935
5072.54989,0.50849
5070.62116,0.50833
5068.69244,0.50911
5066.76371,0.51050
5064.83498,0.51241
5062.90626,0.51345
5060.97753,0.51220
5059.04880,0.50965
5057.12008,0.50804
5055.19135,0.50884
5053.26263,0.51205
5051.33390,0.51550
5049.40517,0.51716
5047.47645,0.51789
5045.54772,0.51837
5043.61899,0.51790
5041.69027,0.51676
5039.76154,0.51623
5037.83282,0.51723
5035.90409,0.51908
5033.97536,0.52002
5032.04664,0.52017
5030.11791,0.52085
5028.18919,0.52194
5026.26046,0.52283
5024.33173,0.52300
5022.40301,0.52134
5020.47428,0.51894
5018.54555,0.51836
5016.61683,0.51885
5014.68810,0.51877
5012.75938,0.51865
5010.83065,0.51832
5008.90192,0.51778
5006.97320,0.51871
5005.04447,0.52088
5003.11574,0.52152
5001.18702,0.51927
4999.25829,0.51611
4997.32957,0.51431
4995.40084,0.51418
4993.47211,0.51545
4991.54339,0.51750
4989.61466,0.51826
4987.68594,0.51732
4985.75721,0.51580
4983.82848,0.51281
4981.89976,0.50969
4979.97103,0.50979
4978.04230,0.51156
4976.11358,0.51160
4974.18485,0.50974
4972.25613,0.50768
4970.32740,0.50647
4968.39867,0.50529
4966.46995,0.50394
4964.54122,0.50272
4962.61249,0.50089
4960.68377,0.49883
4958.75504,0.49722
4956.82632,0.49500
4954.89759,0.49266
4952.96886,0.49199
4951.04014,0.49155
4949.11141,0.48917
4947.18269,0.48585
4945.25396,0.48342
4943.32523,0.48251
4941.39651,0.48189
4939.46778,0.47969
4937.53905,0.47673
4935.61033,0.47439
4933.68160,0.47209
4931.75288,0.46979
4929.82415,0.46825
4927.89542,0.46753
4925.96670,0.46706
4924.03797,0.46525
4922.10924,0.46110
4920.18052,0.45627
4918.25179,0.45349
4916.32307,0.45322
4914.39434,0.45317
4912.46561,0.45168
4910.53689,0.44918
4908.60816,0.44710
4906.67943,0.44671
4904.75071,0.44687
4902.82198,0.44599
4900.89326,0.44459
4898.96453,0.44236
4897.03580,0.43879
4895.10708,0.43565
4893.17835,0.43377
4891.24963,0.43162
4889.32090,0.42926
4887.39217,0.42816
4885.46345,0.42789
4883.53472,0.42724
4881.60599,0.42521
4879.67727,0.42200
4877.74854,0.41990
4875.81982,0.41938
4873.89109,0.41793
4871.96236,0.41576
4870.03364,0.41529
4868.10491,0.41548
4866.17618,0.41390
4864.24746,0.41183
4862.31873,0.41160
4860.39001,0.41192
4858.46128,0.41020
4856.53255,0.40689
4854.60383,0.40471
4852.67510,0.40524
4850.74638,0.40681
4848.81765,0.40689
4846.88892,0.40576
4844.96020,0.40442
4843.03147,0.40244
4841.10274,0.39992
4839.17402,0.39734
4837.24529,0.39516
4835.31657,0.39400
4833.38784,0.39326
4831.45911,0.39248
4829.53039,0.39211
4827.60166,0.39103
4825.67293,0.38883
4823.74421,0.38719
4821.81548,0.38595
4819.88676,0.38480
4817.95803,0.38453
4816.02930,0.38446
4814.10058,0.38411
4812.17185,0.38426
4810.24313,0.38438
4808.31440,0.38345
4806.38567,0.38286
4804.45695,0.38354
4802.52822,0.38353
4800.59949,0.38235
4798.67077,0.38130
4796.74204,0.38033
4794.81332,0.37943
4792.88459,0.37938
4790.95586,0.38005
4789.02714,0.37985
4787.09841,0.37828
4785.16968,0.37748
4783.24096,0.37816
4781.31223,0.37774
4779.38351,0.37553
4777.45478,0.37400
4775.52605,0.37351
4773.59733,0.37200
4771.66860,0.37014
4769.73988,0.37035
4767.81115,0.37184
4765.88242,0.37242
4763.95370,0.37173
4762.02497,0.37019
4760.09624,0.36902
4758.16752,0.36955
4756.23879,0.37043
4754.31007,0.37027
4752.38134,0.37068
4750.45261,0.37201
4748.52389,0.37254
4746.59516,0.37204
4744.66643,0.37113
4742.73771,0.37077
4740.80898,0.37114
4738.88026,0.37158
4736.95153,0.37275
4735.02280,0.37415
4733.09408,0.37389
4731.16535,0.37296
4729.23663,0.37344
4727.30790,0.37451
4725.37917,0.37416
4723.45045,0.37314
4721.52172,0.37351
4719.59299,0.37445
4717.66427,0.37432
4715.73554,0.37389
4713.80682,0.37392
4711.87809,0.37360
4709.94936,0.37331
4708.02064,0.37434
4706.09191,0.37585
4704.16318,0.37616
4702.23446,0.37553
4700.30573,0.37501
4698.37701,0.37516
4696.44828,0.37649
4694.51955,0.37839
4692.59083,0.37959
4690.66210,0.37999
4688.73338,0.37983
4686.80465,0.37881
4684.87592,0.37775
4682.94720,0.37858
4681.01847,0.38080
4679.08974,0.38166
4677.16102,0.38104
4675.23229,0.38098
4673.30357,0.38180
4671.37484,0.38239
4669.44611,0.38185
4667.51739,0.38063
4665.58866,0.38046
4663.65993,0.38171
4661.73121,0.38326
4659.80248,0.38489
4657.87376,0.38646
4655.94503,0.38737
4654.01630,0.38781
4652.08758,0.38812
4650.15885,0.38811
4648.23013,0.38829
4646.30140,0.38928
4644.37267,0.39097
4642.44395,0.39292
4640.51522,0.39399
4638.58649,0.39316
4636.65777,0.39203
4634.72904,0.39278
4632.80032,0.39440
4630.87159,0.39516
4628.94286,0.39532
4627.01414,0.39543
4625.08541,0.39618
4623.15668,0.39735
4621.22796,0.39790
4619.29923,0.39841
4617.37051,0.39915
4615.44178,0.39967
4613.51305,0.40066
4611.58433,0.40194
4609.65560,0.40266
4607.72688,0.40351
4605.79815,0.40501
4603.86942,0.40642
4601.94070,0.40724
4600.01197,0.40791
4598.08324,0.40869
4596.15452,0.40931
4594.22579,0.41067
4592.29707,0.41281
4590.36834,0.41320
4588.43961,0.41198
4586.51089,0.41216
4584.58216,0.41370
4582.65343,0.41493
4580.72471,0.41597
4578.79598,0.41660
4576.86726,0.41632
4574.93853,0.41634
4573.00980,0.41749
4571.08108,0.41878
4569.15235,0.41935
4567.22363,0.41933
4565.29490,0.41930
4563.36617,0.41955
4561.43745,0.41983
4559.50872,0.42016
4557.57999,0.42116
4555.65127,0.42313
4553.72254,0.42492
4551.79382,0.42526
4549.86509,0.42477
4547.93636,0.42467
4546.00764,0.42486
4544.07891,0.42473
4542.15018,0.42464
4540.22146,0.42524
4538.29273,0.42646
4536.36401,0.42737
4534.43528,0.42784
4532.50655,0.42866
4530.57783,0.42931
4528.64910,0.42877
4526.72037,0.42808
4524.79165,0.42853
4522.86292,0.42918
4520.93420,0.42875
4519.00547,0.42761
4517.07674,0.42683
4515.14802,0.42667
4513.21929,0.42672
4511.29057,0.42680
4509.36184,0.42695
4507.43311,0.42697
4505.50439,0.42652
4503.57566,0.42545
4501.64693,0.42484
4499.71821,0.42526
4497.78948,0.42465
4495.86076,0.42198
4493.93203,0.41940
4492.00330,0.41862
4490.07458,0.41882
4488.14585,0.41844
4486.21712,0.41679
4484.28840,0.41418
4482.35967,0.41173
4480.43095,0.41024
4478.50222,0.40874
4476.57349,0.40648
4474.64477,0.40430
4472.71604,0.40249
4470.78732,0.40033
4468.85859,0.39764
4466.92986,0.39499
4465.00114,0.39255
4463.07241,0.38977
4461.14368,0.38610
4459.21496,0.38257
4457.28623,0.38053
4455.35751,0.37920
4453.42878,0.37749
4451.50005,0.37540
4449.57133,0.37269
4447.64260,0.36947
4445.71387,0.36618
4443.78515,0.36315
4441.85642,0.36108
4439.92770,0.35976
4437.99897,0.35811
4436.07024,0.35580
4434.14152,0.35315
4432.21279,0.35077
4430.28407,0.34892
4428.35534,0.34694
4426.42661,0.34467
4424.49789,0.34298
4422.56916,0.34159
4420.64043,0.33934
4418.71171,0.33643
4416.78298,0.33403
4414.85426,0.33308
4412.92553,0.33311
4410.99680,0.33236
4409.06808,0.33062
4407.13935,0.32906
4405.21062,0.32788
4403.28190,0.32724
4401.35317,0.32768
4399.42445,0.32851
4397.49572,0.32872
4395.56699,0.32823
4393.63827,0.32751
4391.70954,0.32747
4389.78082,0.32822
4387.85209,0.32894
4385.92336,0.32951
4383.99464,0.32994
4382.06591,0.33007
4380.13718,0.33027
4378.20846,0.33074
4376.27973,0.33155
4374.35101,0.33254
4372.42228,0.33320
4370.49355,0.33379
4368.56483,0.33479
4366.63610,0.33574
4364.70737,0.33669
4362.77865,0.33807
4360.84992,0.33897
4358.92120,0.33832
4356.99247,0.33692
4355.06374,0.33652
4353.13502,0.33738
4351.20629,0.33770
4349.27757,0.33612
4347.34884,0.33367
4345.42011,0.33215
4343.49139,0.33185
4341.56266,0.33177
4339.63393,0.33135
4337.70521,0.33073
4335.77648,0.33005
4333.84776,0.32924
4331.91903,0.32839
4329.99030,0.32771
4328.06158,0.32694
4326.13285,0.32569
4324.20412,0.32422
4322.27540,0.32331
4320.34667,0.32331
4318.41795,0.32358
4316.48922,0.32362
4314.56049,0.32382
4312.63177,0.32387
4310.70304,0.32320
4308.77432,0.32238
4306.84559,0.32179
4304.91686,0.32109
4302.98814,0.32028
4301.05941,0.31954
4299.13068,0.31892
4297.20196,0.31864
4295.27323,0.31849
4293.34451,0.31767
4291.41578,0.31633
4289.48705,0.31539
4287.55833,0.31501
4285.62960,0.31502
4283.70087,0.31530
4281.77215,0.31543
4279.84342,0.31496
4277.91470,0.31395
4275.98597,0.31354
4274.05724,0.31399
4272.12852,0.31471
4270.19979,0.31554
4268.27107,0.31579
4266.34234,0.31510
4264.41361,0.31451
4262.48489,0.31489
4260.55616,0.31579
4258.62743,0.31622
4256.69871,0.31614
4254.76998,0.31645
4252.84126,0.31725
4250.91253,0.31795
4248.98380,0.31831
4247.05508,0.31864
4245.12635,0.31913
4243.19762,0.31948
4241.26890,0.31937
4239.34017,0.31898
4237.41145,0.31925
4235.48272,0.32041
4233.55399,0.32120
4231.62527,0.32112
4229.69654,0.32136
4227.76782,0.32199
4225.83909,0.32184
4223.91036,0.32138
4221.98164,0.32154
4220.05291,0.32182
4218.12418,0.32203
4216.19546,0.32250
4214.26673,0.32279
4212.33801,0.32294
4210.40928,0.32359
4208.48055,0.32423
4206.55183,0.32426
4204.62310,0.32438
4202.69437,0.32510
4200.76565,0.32566
4198.83692,0.32529
4196.90820,0.32445
4194.97947,0.32413
4193.05074,0.32449
4191.12202,0.32497
4189.19329,0.32508
4187.26456,0.32484
4185.33584,0.32457
4183.40711,0.32468
4181.47839,0.32552
4179.54966,0.32646
4177.62093,0.32661
4175.69221,0.32670
4173.76348,0.32758
4171.83476,0.32843
4169.90603,0.32903
4167.97730,0.33003
4166.04858,0.33108
4164.11985,0.33158
4162.19112,0.33159
4160.26240,0.33105
4158.33367,0.33029
4156.40495,0.33007
4154.47622,0.32986
4152.54749,0.32872
4150.61877,0.32757
4148.69004,0.32742
4146.76131,0.32755
4144.83259,0.32711
4142.90386,0.32605
4140.97514,0.32480
4139.04641,0.32405
4137.11768,0.32368
4135.18896,0.32277
4133.26023,0.32151
4131.33151,0.32086
4129.40278,0.32049
4127.47405,0.31960
4125.54533,0.31842
4123.61660,0.31734
4121.68787,0.31618
4119.75915,0.31493
4117.83042,0.31412
4115.90170,0.31342
4113.97297,0.31195
4112.04424,0.31003
4110.11552,0.30843
4108.18679,0.30692
4106.25806,0.30521
4104.32934,0.30366
4102.40061,0.30235
4100.47189,0.30102
4098.54316,0.29962
4096.61443,0.29789
4094.68571,0.29550
4092.75698,0.29296
4090.82826,0.29095
4088.89953,0.28955
4086.97080,0.28839
4085.04208,0.28742
4083.11335,0.28662
4081.18462,0.28539
4079.25590,0.28344
4077.32717,0.28125
4075.39845,0.27934
4073.46972,0.27790
4071.54099,0.27670
4069.61227,0.27537
4067.68354,0.27345
4065.75481,0.27108
4063.82609,0.26907
4061.89736,0.26757
4059.96864,0.26628
4058.03991,0.26504
4056.11118,0.26337
4054.18246,0.26151
4052.25373,0.26027
4050.32501,0.25927
4048.39628,0.25779
4046.46755,0.25631
4044.53883,0.25531
4042.61010,0.25449
4040.68137,0.25351
4038.75265,0.25238
4036.82392,0.25119
4034.89520,0.25008
4032.96647,0.24926
4031.03774,0.24863
4029.10902,0.24788
4027.18029,0.24705
4025.25156,0.24646
4023.32284,0.24626
4021.39411,0.24587
4019.46539,0.24519
4017.53666,0.24494
4015.60793,0.24534
4013.67921,0.24614
4011.75048,0.24677
4009.82176,0.24680
4007.89303,0.24657
4005.96430,0.24637
4004.03558,0.24650
4002.10685,0.24733
4000.17812,0.24834
3998.24940,0.24914
3996.32067,0.24979
3994.39195,0.25003
3992.46322,0.25006
3990.53449,0.25037
3988.60577,0.25090
3986.67704,0.25130
3984.74831,0.25141
3982.81959,0.25138
3980.89086,0.25155
3978.96214,0.25196
3977.03341,0.25232
3975.10468,0.25242
3973.17596,0.25251
3971.24723,0.25291
3969.31851,0.25345
3967.38978,0.25386
3965.46105,0.25424
3963.53233,0.25473
3961.60360,0.25531
3959.67487,0.25610
3957.74615,0.25712
3955.81742,0.25802
3953.88870,0.25865
3951.95997,0.25923
3950.03124,0.25981
3948.10252,0.26019
3946.17379,0.26056
3944.24506,0.26145
3942.31634,0.26273
3940.38761,0.26402
3938.45889,0.26523
3936.53016,0.26605
3934.60143,0.26661
3932.67271,0.26744
3930.74398,0.26852
3928.81526,0.26937
3926.88653,0.27016
3924.95780,0.27123
3923.02908,0.27211
3921.10035,0.27249
3919.17162,0.27277
3917.24290,0.27362
3915.31417,0.27503
3913.38545,0.27627
3911.45672,0.27702
3909.52799,0.27730
3907.59927,0.27745
3905.67054,0.27782
3903.74181,0.27830
3901.81309,0.27907
3899.88436,0.28028
3897.95564,0.28120
3896.02691,0.28199
3894.09818,0.28348
3892.16946,0.28509
3890.24073,0.28560
3888.31201,0.28613
3886.38328,0.28750
3884.45455,0.28784
3882.52583,0.28731
3880.59710,0.28714
3878.66837,0.28684
3876.73965,0.28717
3874.81092,0.28858
3872.88220,0.29007
3870.95347,0.29134
3869.02474,0.29161
3867.09602,0.29149
3865.16729,0.29238
3863.23856,0.29328
3861.30984,0.29339
3859.38111,0.29307
3857.45239,0.29302
3855.52366,0.29421
3853.59493,0.29654
3851.66621,0.29816
3849.73748,0.29927
3847.80876,0.30050
3845.88003,0.30199
3843.95130,0.30297
3842.02258,0.30273
3840.09385,0.30273
3838.16512,0.30405
3836.23640,0.30534
3834.30767,0.30592
3832.37895,0.30625
3830.45022,0.30632
3828.52149,0.30655
3826.59277,0.30666
3824.66404,0.30609
3822.73531,0.30601
3820.80659,0.30600
3818.87786,0.30556
3816.94914,0.30647
3815.02041,0.30740
3813.09168,0.30732
3811.16296,0.30737
3809.23423,0.30788
3807.30550,0.30803
3805.37678,0.30711
3803.44805,0.30708
3801.51933,0.30772
3799.59060,0.30711
3797.66187,0.30695
3795.73315,0.30751
3793.80442,0.30804
3791.87570,0.30876
3789.94697,0.30911
3788.01824,0.30887
3786.08952,0.30858
3784.16079,0.30826
3782.23206,0.30829
3780.30334,0.30896
3778.37461,0.30883
3776.44589,0.30757
3774.51716,0.30661
3772.58843,0.30648
3770.65971,0.30674
3768.73098,0.30646
3766.80225,0.30575
3764.87353,0.30446
3762.94480,0.30273
3761.01608,0.30187
3759.08735,0.30154
3757.15862,0.30077
3755.22990,0.29995
3753.30117,0.29964
3751.37245,0.29927
3749.44372,0.29762
3747.51499,0.29598
3745.58627,0.29538
3743.65754,0.29403
3741.72881,0.29201
3739.80009,0.29111
3737.87136,0.29097
3735.94264,0.29037
3734.01391,0.28869
3732.08518,0.28654
3730.15646,0.28468
3728.22773,0.28345
3726.29900,0.28223
3724.37028,0.28057
3722.44155,0.27912
3720.51283,0.27809
3718.58410,0.27716
3716.65537,0.27601
3714.72665,0.27474
3712.79792,0.27308
3710.86920,0.26991
3708.94047,0.26594
3707.01174,0.26263
3705.08302,0.25978
3703.15429,0.25677
3701.22556,0.25329
3699.29684,0.24983
3697.36811,0.24686
3695.43939,0.24389
3693.51066,0.24096
3691.58193,0.23802
3689.65321,0.23367
3687.72448,0.22750
3685.79575,0.22170
3683.86703,0.21726
3681.93830,0.21322
3680.00958,0.20889
3678.08085,0.20425
3676.15212,0.19862
3674.22340,0.19155
3672.29467,0.18577
3670.36595,0.18059
3668.43722,0.17373
3666.50849,0.16758
3664.57977,0.16321
3662.65104,0.15913
3660.72231,0.15460
3658.79359,0.14995
3656.86486,0.14518
3654.93614,0.14052
3653.00741,0.13714
3651.07868,0.13438
3649.14996,0.12998
3647.22123,0.12472
3645.29250,0.12079
3643.36378,0.11784
3641.43505,0.11469
3639.50633,0.11134
3637.57760,0.10842
3635.64887,0.10608
3633.72015,0.10393
3631.79142,0.10169
3629.86270,0.09912
3627.93397,0.09597
3626.00524,0.09331
3624.07652,0.09178
3622.14779,0.09087
3620.21906,0.08974
3618.29034,0.08773
3616.36161,0.08549
3614.43289,0.08346
3612.50416,0.08131
3610.57543,0.07938
3608.64671,0.07808
3606.71798,0.07708
3604.78925,0.07600
3602.86053,0.07454
3600.93180,0.07283
3599.00308,0.07142
3597.07435,0.07023
3595.14562,0.06878
3593.21690,0.06721
3591.28817,0.06590
3589.35945,0.06494
3587.43072,0.06421
3585.50199,0.06340
3583.57327,0.06221
3581.64454,0.06081
3579.71581,0.05957
3577.78709,0.05849
3575.85836,0.05730
3573.92964,0.05605
3572.00091,0.05497
3570.07218,0.05423
3568.14346,0.05373
3566.21473,0.05312
3564.28600,0.05237
3562.35728,0.05165
3560.42855,0.05082
3558.49983,0.04997
3556.57110,0.04937
3554.64237,0.04894
3552.71365,0.04839
3550.78492,0.04761
3548.85620,0.04679
3546.92747,0.04608
3544.99874,0.04566
3543.07002,0.04559
3541.14129,0.04562
3539.21256,0.04537
3537.28384,0.04486
3535.35511,0.04437
3533.42639,0.04399
3531.49766,0.04362
3529.56893,0.04315
3527.64021,0.04255
3525.71148,0.04194
3523.78275,0.04159
3521.85403,0.04143
3519.92530,0.04119
3517.99658,0.04075
3516.06785,0.04028
3514.13912,0.03992
3512.21040,0.03973
3510.28167,0.03976
3508.35295,0.03983
3506.42422,0.03971
3504.49549,0.03955
3502.56677,0.03934
3500.63804,0.03892
3498.70931,0.03845
3496.78059,0.03818
3494.85186,0.03824
3492.92314,0.03863
3490.99441,0.03892
3489.06568,0.03862
3487.13696,0.03801
3485.20823,0.03779
3483.27950,0.03790
3481.35078,0.03773
3479.42205,0.03731
3477.49333,0.03705
3475.56460,0.03690
3473.63587,0.03645
3471.70715,0.03570
3469.77842,0.03518
3467.84970,0.03521
3465.92097,0.03553
3463.99224,0.03570
3462.06352,0.03556
3460.13479,0.03536
3458.20606,0.03530
3456.27734,0.03533
3454.34861,0.03521
3452.41989,0.03475
3450.49116,0.03435
3448.56243,0.03454
3446.63371,0.03482
3444.70498,0.03443
3442.77625,0.03372
3440.84753,0.03334
3438.91880,0.03340
3436.99008,0.03374
3435.06135,0.03401
3433.13262,0.03382
3431.20390,0.03344
3429.27517,0.03342
3427.34644,0.03346
3425.41772,0.03330
3423.48899,0.03337
3421.56027,0.03372
3419.63154,0.03388
3417.70281,0.03355
3415.77409,0.03293
3413.84536,0.03257
3411.91664,0.03273
3409.98791,0.03319
3408.05918,0.03348
3406.13046,0.03355
3404.20173,0.03367
3402.27300,0.03372
3400.34428,0.03362
3398.41555,0.03372
3396.48683,0.03407
3394.55810,0.03440
3392.62937,0.03441
3390.70065,0.03427
3388.77192,0.03445
3386.84319,0.03476
3384.91447,0.03476
3382.98574,0.03455
3381.05702,0.03430
3379.12829,0.03408
3377.19956,0.03407
3375.27084,0.03433
3373.34211,0.03473
3371.41339,0.03493
3369.48466,0.03490
3367.55593,0.03507
3365.62721,0.03542
3363.69848,0.03540
3361.76975,0.03496
3359.84103,0.03459
3357.91230,0.03445
3355.98358,0.03446
3354.05485,0.03467
3352.12612,0.03506
3350.19740,0.03545
3348.26867,0.03569
3346.33994,0.03565
3344.41122,0.03540
3342.48249,0.03515
3340.55377,0.03503
3338.62504,0.03523
3336.69631,0.03568
3334.76759,0.03589
3332.83886,0.03578
3330.91014,0.03584
3328.98141,0.03621
3327.05268,0.03641
3325.12396,0.03630
3323.19523,0.03655
3321.26650,0.03751
3319.33778,0.03833
3317.40905,0.03833
3315.48033,0.03802
3313.55160,0.03799
3311.62287,0.03819
3309.69415,0.03839
3307.76542,0.03845
3305.83669,0.03849
3303.90797,0.03866
3301.97924,0.03891
3300.05052,0.03913
3298.12179,0.03930
3296.19306,0.03940
3294.26434,0.03948
3292.33561,0.03965
3290.40689,0.03971
3288.47816,0.03968
3286.54943,0.03994
3284.62071,0.04039
3282.69198,0.04055
3280.76325,0.04053
3278.83453,0.04063
3276.90580,0.04069
3274.97708,0.04077
3273.04835,0.04108
3271.11962,0.04143
3269.19090,0.04166
3267.26217,0.04208
3265.33344,0.04275
3263.40472,0.04330
3261.47599,0.04355
3259.54727,0.04380
3257.61854,0.04431
3255.68981,0.04487
3253.76109,0.04513
3251.83236,0.04513
3249.90364,0.04534
3247.97491,0.04606
3246.04618,0.04675
3244.11746,0.04695
3242.18873,0.04711
3240.26000,0.04749
3238.33128,0.04760
3236.40255,0.04744
3234.47383,0.04753
3232.54510,0.04795
3230.61637,0.04844
3228.68765,0.04892
3226.75892,0.04959
3224.83019,0.05051
3222.90147,0.05121
3220.97274,0.05128
3219.04402,0.05099
3217.11529,0.05094
3215.18656,0.05128
3213.25784,0.05191
3211.32911,0.05289
3209.40039,0.05393
3207.47166,0.05445
3205.54293,0.05472
3203.61421,0.05508
3201.68548,0.05535
3199.75675,0.05563
3197.82803,0.05611
3195.89930,0.05671
3193.97058,0.05733
3192.04185,0.05780
3190.11312,0.05806
3188.18440,0.05820
3186.25567,0.05840
3184.32694,0.05861
3182.39822,0.05890
3180.46949,0.05949
3178.54077,0.06014
3176.61204,0.06063
3174.68331,0.06123
3172.75459,0.06215
3170.82586,0.06310
3168.89714,0.06360
3166.96841,0.06365
3165.03968,0.06385
3163.11096,0.06429
3161.18223,0.06459
3159.25350,0.06494
3157.32478,0.06541
3155.39605,0.06575
3153.46733,0.06619
3151.53860,0.06684
3149.60987,0.06740
3147.68115,0.06783
3145.75242,0.06828
3143.82369,0.06872
3141.89497,0.06916
3139.96624,0.06949
3138.03752,0.06967
3136.10879,0.07008
3134.18006,0.07078
3132.25134,0.07140
3130.32261,0.07181
3128.39389,0.07223
3126.46516,0.07287
3124.53643,0.07359
3122.60771,0.07401
3120.67898,0.07406
3118.75025,0.07415
3116.82153,0.07457
3114.89280,0.07523
3112.96408,0.07598
3111.03535,0.07659
3109.10662,0.07708
3107.17790,0.07756
3105.24917,0.07795
3103.32044,0.07833
3101.39172,0.07870
3099.46299,0.07892
3097.53427,0.07926
3095.60554,0.07990
3093.67681,0.08034
3091.74809,0.08042
3089.81936,0.08075
3087.89063,0.08144
3085.96191,0.08203
3084.03318,0.08250
3082.10446,0.08286
3080.17573,0.08294
3078.24700,0.08305
3076.31828,0.08341
3074.38955,0.08377
3072.46083,0.08397
3070.53210,0.08420
3068.60337,0.08452
3066.67465,0.08482
3064.74592,0.08515
3062.81719,0.08552
3060.88847,0.08591
3058.95974,0.08631
3057.03102,0.08654
3055.10229,0.08669
3053.17356,0.08702
3051.24484,0.08736
3049.31611,0.08736
3047.38738,0.08723
3045.45866,0.08746
3043.52993,0.08793
3041.60121,0.08815
3039.67248,0.08814
3037.74375,0.08830
3035.81503,0.08866
3033.88630,0.08889
3031.95758,0.08878
3030.02885,0.08838
3028.10012,0.08792
3026.17140,0.08760
3024.24267,0.08752
3022.31394,0.08765
3020.38522,0.08766
3018.45649,0.08736
3016.52777,0.08680
3014.59904,0.08618
3012.67031,0.08550
3010.74159,0.08458
3008.81286,0.08368
3006.88413,0.08321
3004.95541,0.08290
3003.02668,0.08241
3001.09796,0.08173
2999.16923,0.08098
2997.24050,0.08028
2995.31178,0.07981
2993.38305,0.07945
2991.45433,0.07882
2989.52560,0.07801
2987.59687,0.07717
2985.66815,0.07608
2983.73942,0.07460
2981.81069,0.07290
2979.88197,0.07133
2977.95324,0.07000
2976.02452,0.06868
2974.09579,0.06727
2972.16706,0.06578
2970.23834,0.06423
2968.30961,0.06277
2966.38088,0.06168
2964.45216,0.06092
2962.52343,0.06005
2960.59471,0.05909
2958.66598,0.05848
2956.73725,0.05810
2954.80853,0.05777
2952.87980,0.05739
2950.95108,0.05651
2949.02235,0.05535
2947.09362,0.05449
2945.16490,0.05368
2943.23617,0.05288
2941.30744,0.05244
2939.37872,0.05204
2937.44999,0.05142
2935.52127,0.05091
2933.59254,0.05069
2931.66381,0.05056
2929.73509,0.05028
2927.80636,0.04983
2925.87763,0.04938
2923.94891,0.04904
2922.02018,0.04894
2920.09146,0.04903
2918.16273,0.04913
2916.23400,0.04941
2914.30528,0.04985
2912.37655,0.05038
2910.44783,0.05097
2908.51910,0.05150
2906.59037,0.05210
2904.66165,0.05271
2902.73292,0.05296
2900.80419,0.05287
2898.87547,0.05289
2896.94674,0.05326
2895.01802,0.05389
2893.08929,0.05464
2891.16056,0.05531
2889.23184,0.05562
2887.30311,0.05551
2885.37438,0.05539
2883.44566,0.05564
2881.51693,0.05611
2879.58821,0.05650
2877.65948,0.05663
2875.73075,0.05660
2873.80203,0.05671
2871.87330,0.05694
2869.94458,0.05727
2868.01585,0.05784
2866.08712,0.05855
2864.15840,0.05914
2862.22967,0.05954
2860.30094,0.05982
2858.37222,0.06001
2856.44349,0.06003
2854.51477,0.06001
2852.58604,0.06032
2850.65731,0.06108
2848.72859,0.06225
2846.79986,0.06394
2844.87113,0.06602
2842.94241,0.06806
2841.01368,0.06982
2839.08496,0.07129
2837.15623,0.07277
2835.22750,0.07469
2833.29878,0.07696
2831.37005,0.07896
2829.44133,0.08044
2827.51260,0.08173
2825.58387,0.08322
2823.65515,0.08488
2821.72642,0.08630
2819.79769,0.08741
2817.86897,0.08874
2815.94024,0.09030
2814.01152,0.09169
2812.08279,0.09301
2810.15406,0.09416
2808.22534,0.09485
2806.29661,0.09547
2804.36788,0.09639
2802.43916,0.09722
2800.51043,0.09763
2798.58171,0.09801
2796.65298,0.09859
2794.72425,0.09914
2792.79553,0.09982
2790.86680,0.10079
2788.93808,0.10160
2787.00935,0.10191
2785.08062,0.10202
2783.15190,0.10236
2781.22317,0.10292
2779.29444,0.10356
2777.36572,0.10415
2775.43699,0.10443
2773.50827,0.10442
2771.57954,0.10440
2769.65081,0.10436
2767.72209,0.10437
2765.79336,0.10470
2763.86463,0.10526
2761.93591,0.10566
2760.00718,0.10576
2758.07846,0.10578
2756.14973,0.10595
2754.22100,0.10615
2752.29228,0.10613
2750.36355,0.10600
2748.43483,0.10610
2746.50610,0.10636
2744.57737,0.10661
2742.64865,0.10687
2740.71992,0.10706
2738.79119,0.10724
2736.86247,0.10755
2734.93374,0.10764
2733.00502,0.10747
2731.07629,0.10742
2729.14756,0.10757
2727.21884,0.10794
2725.29011,0.10859
2723.36138,0.10940
2721.43266,0.10997
2719.50393,0.11013
2717.57521,0.11021
2715.64648,0.11049
2713.71775,0.11101
2711.78903,0.11182
2709.86030,0.11259
2707.93157,0.11297
2706.00285,0.11332
2704.07412,0.11404
2702.14540,0.11481
2700.21667,0.11542
2698.28794,0.11589
2696.35922,0.11608
2694.43049,0.11611
2692.50177,0.11645
2690.57304,0.11720
2688.64431,0.11798
2686.71559,0.11854
2684.78686,0.11887
2682.85813,0.11907
2680.92941,0.11923
2679.00068,0.11961
2677.07196,0.12037
2675.14323,0.12130
2673.21450,0.12202
2671.28578,0.12235
2669.35705,0.12250
2667.42832,0.12257
2665.49960,0.12250
2663.57087,0.12255
2661.64215,0.12279
2659.71342,0.12303
2657.78469,0.12320
2655.85597,0.12336
2653.92724,0.12364
2651.99852,0.12415
2650.06979,0.12463
2648.14106,0.12484
2646.21234,0.12501
2644.28361,0.12536
2642.35488,0.12589
2640.42616,0.12637
2638.49743,0.12667
2636.56871,0.12696
2634.63998,0.12736
2632.71125,0.12768
2630.78253,0.12780
2628.85380,0.12790
2626.92507,0.12824
2624.99635,0.12883
2623.06762,0.12941
2621.13890,0.12972
2619.21017,0.13000
2617.28144,0.13051
2615.35272,0.13103
2613.42399,0.13127
2611.49527,0.13152
2609.56654,0.13197
2607.63781,0.13240
2605.70909,0.13268
2603.78036,0.13300
2601.85163,0.13340
2599.92291,0.13352
2597.99418,0.13340
2596.06546,0.13343
2594.13673,0.13369
2592.20800,0.13407
2590.27928,0.13446
2588.35055,0.13475
2586.42182,0.13496
2584.49310,0.13514
2582.56437,0.13518
2580.63565,0.13508
2578.70692,0.13506
2576.77819,0.13523
2574.84947,0.13554
2572.92074,0.13582
2570.99202,0.13585
2569.06329,0.13561
2567.13456,0.13555
2565.20584,0.13588
2563.27711,0.13618
2561.34838,0.13626
2559.41966,0.13635
2557.49093,0.13649
2555.56221,0.13660
2553.63348,0.13661
2551.70475,0.13651
2549.77603,0.13624
2547.84730,0.13585
2545.91857,0.13570
2543.98985,0.13598
2542.06112,0.13654
2540.13240,0.13705
2538.20367,0.13719
2536.27494,0.13693
2534.34622,0.13656
2532.41749,0.13643
2530.48877,0.13652
2528.56004,0.13652
2526.63131,0.13633
2524.70259,0.13623
2522.77386,0.13646
2520.84513,0.13697
2518.91641,0.13743
2516.98768,0.13761
2515.05896,0.13759
2513.13023,0.13758
2511.20150,0.13800
2509.27278,0.13907
2507.34405,0.14032
2505.41532,0.14138
2503.48660,0.14236
2501.55787,0.14337
2499.62915,0.14435
2497.70042,0.14534
2495.77169,0.14634
2493.84297,0.14722
2491.91424,0.14800
2489.98552,0.14888
2488.05679,0.14993
2486.12806,0.15103
2484.19934,0.15198
2482.27061,0.15260
2480.34188,0.15298
2478.41316,0.15333
2476.48443,0.15370
2474.55571,0.15424
2472.62698,0.15506
2470.69825,0.15576
2468.76953,0.15614
2466.84080,0.15647
2464.91207,0.15685
2462.98335,0.15727
2461.05462,0.15770
2459.12590,0.15803
2457.19717,0.15837
2455.26844,0.15888
2453.33972,0.15949
2451.41099,0.16011
2449.48227,0.16078
2447.55354,0.16134
2445.62481,0.16159
2443.69609,0.16187
2441.76736,0.16255
2439.83863,0.16341
2437.90991,0.16424
2435.98118,0.16501
2434.05246,0.16564
2432.12373,0.16615
2430.19500,0.16661
2428.26628,0.16706
2426.33755,0.16755
2424.40882,0.16821
2422.48010,0.16901
2420.55137,0.16981
2418.62265,0.17059
2416.69392,0.17141
2414.76519,0.17226
2412.83647,0.17307
2410.90774,0.17375
2408.97902,0.17431
2407.05029,0.17475
2405.12156,0.17511
2403.19284,0.17552
2401.26411,0.17607
2399.33538,0.17684
2397.40666,0.17765
2395.47793,0.17837
2393.54921,0.17883
2391.62048,0.17899
2389.69175,0.17896
2387.76303,0.17882
2385.83430,0.17849
2383.90557,0.17786
2381.97685,0.17709
2380.04812,0.17662
2378.11940,0.17659
2376.19067,0.17651
2374.26194,0.17596
2372.33322,0.17521
2370.40449,0.17498
2368.47576,0.17576
2366.54704,0.17707
2364.61831,0.17764
2362.68959,0.17664
2360.76086,0.17483
2358.83213,0.17349
2356.90341,0.17313
2354.97468,0.17347
2353.04596,0.17381
2351.11723,0.17391
2349.18850,0.17416
2347.25978,0.17463
2345.33105,0.17478
2343.40232,0.17433
2341.47360,0.17402
2339.54487,0.17438
2337.61615,0.17497
2335.68742,0.17583
2333.75869,0.17696
2331.82997,0.17794
2329.90124,0.17905
2327.97251,0.18045
2326.04379,0.18136
2324.11506,0.18144
2322.18634,0.18135
2320.25761,0.18136
2318.32888,0.18109
2316.40016,0.18061
2314.47143,0.18039
2312.54271,0.18035
2310.61398,0.18023
2308.68525,0.18014
2306.75653,0.17992
2304.82780,0.17927
2302.89907,0.17838
2300.97035,0.17760
2299.04162,0.17686
2297.11290,0.17604
2295.18417,0.17524
2293.25544,0.17447
2291.32672,0.17363
2289.39799,0.17276
2287.46926,0.17183
2285.54054,0.17088
2283.61181,0.17011
2281.68309,0.16957
2279.75436,0.16918
2277.82563,0.16898
2275.89691,0.16898
2273.96818,0.16919
2272.03946,0.16966
2270.11073,0.17035
2268.18200,0.17107
2266.25328,0.17162
2264.32455,0.17205
2262.39582,0.17257
2260.46710,0.17313
2258.53837,0.17340
2256.60965,0.17351
2254.68092,0.17386
2252.75219,0.17438
2250.82347,0.17485
2248.89474,0.17535
2246.96601,0.17563
2245.03729,0.17577
2243.10856,0.17610
2241.17984,0.17687
2239.25111,0.17773
2237.32238,0.17839
2235.39366,0.17898
2233.46493,0.17961
2231.53621,0.18021
2229.60748,0.18066
2227.67875,0.18101
2225.75003,0.18149
2223.82130,0.18208
2221.89257,0.18247
2219.96385,0.18274
2218.03512,0.18312
2216.10640,0.18349
2214.17767,0.18381
2212.24894,0.18414
2210.32022,0.18429
2208.39149,0.18410
2206.46276,0.18370
2204.53404,0.18330
2202.60531,0.18298
2200.67659,0.18280
2198.74786,0.18267
2196.81913,0.18230
2194.89041,0.18163
2192.96168,0.18092
2191.03296,0.18032
2189.10423,0.17967
2187.17550,0.17882
2185.24678,0.17778
2183.31805,0.17657
2181.38932,0.17519
2179.46060,0.17398
2177.53187,0.17320
2175.60315,0.17256
2173.67442,0.17165
2171.74569,0.17050
2169.81697,0.16923
2167.88824,0.16787
2165.95951,0.16662
2164.03079,0.16569
2162.10206,0.16513
2160.17334,0.16473
2158.24461,0.16414
2156.31588,0.16326
2154.38716,0.16227
2152.45843,0.16152
2150.52971,0.16110
2148.60098,0.16063
2146.67225,0.15990
2144.74353,0.15918
2142.81480,0.15876
2140.88607,0.15874
2138.95735,0.15885
2137.02862,0.15877
2135.09990,0.15859
2133.17117,0.15848
2131.24244,0.15846
2129.31372,0.15867
2127.38499,0.15905
2125.45626,0.15926
2123.52754,0.15930
2121.59881,0.15951
2119.67009,0.15993
2117.74136,0.16037
2115.81263,0.16072
2113.88391,0.16104
2111.95518,0.16137
2110.02646,0.16181
2108.09773,0.16234
2106.16900,0.16278
2104.24028,0.16312
2102.31155,0.16336
2100.38282,0.16353
2098.45410,0.16380
2096.52537,0.16414
2094.59665,0.16441
2092.66792,0.16472
2090.73919,0.16514
2088.81047,0.16540
2086.88174,0.16541
2084.95301,0.16543
2083.02429,0.16552
2081.09556,0.16544
2079.16684,0.16530
2077.23811,0.16526
2075.30938,0.16510
2073.38066,0.16463
2071.45193,0.16415
2069.52321,0.16398
2067.59448,0.16404
2065.66575,0.16414
2063.73703,0.16417
2061.80830,0.16399
2059.87957,0.16365
2057.95085,0.16343
2056.02212,0.16350
2054.09340,0.16365
2052.16467,0.16374
2050.23594,0.16389
2048.30722,0.16420
2046.37849,0.16461
2044.44976,0.16509
2042.52104,0.16550
2040.59231,0.16566
2038.66359,0.16582
2036.73486,0.16627
2034.80613,0.16687
2032.87741,0.16756
2030.94868,0.16826
2029.01996,0.16891
2027.09123,0.16971
2025.16250,0.17071
2023.23378,0.17154
2021.30505,0.17212
2019.37632,0.17289
2017.44760,0.17400
2015.51887,0.17496
2013.59015,0.17561
2011.66142,0.17615
2009.73269,0.17661
2007.80397,0.17702
2005.87524,0.17745
2003.94651,0.17783
2002.01779,0.17810
2000.08906,0.17843
1998.16034,0.17898
1996.23161,0.17972
1994.30288,0.18071
1992.37416,0.18163
1990.44543,0.18186
1988.51670,0.18171
1986.58798,0.18176
1984.65925,0.18211
1982.73053,0.18263
1980.80180,0.18297
1978.87307,0.18302
1976.94435,0.18278
1975.01562,0.18232
1973.08690,0.18184
1971.15817,0.18166
1969.22944,0.18192
1967.30072,0.18219
1965.37199,0.18191
1963.44326,0.18145
1961.51454,0.18124
1959.58581,0.18115
1957.65709,0.18103
1955.72836,0.18085
1953.79963,0.18054
1951.87091,0.18027
1949.94218,0.18032
1948.01345,0.18069
1946.08473,0.18118
1944.15600,0.18201
1942.22728,0.18292
1940.29855,0.18323
1938.36982,0.18338
1936.44110,0.18391
1934.51237,0.18465
1932.58365,0.18511
1930.65492,0.18531
1928.72619,0.18565
1926.79747,0.18632
1924.86874,0.18732
1922.94001,0.18798
1921.01129,0.18790
1919.08256,0.18781
1917.15384,0.18754
1915.22511,0.18680
1913.29638,0.18639
1911.36766,0.18653
1909.43893,0.18650
1907.51020,0.18604
1905.58148,0.18570
1903.65275,0.18567
1901.72403,0.18563
1899.79530,0.18550
1897.86657,0.18556
1895.93785,0.18573
1894.00912,0.18573
1892.08040,0.18591
1890.15167,0.18639
1888.22294,0.18640
1886.29422,0.18585
1884.36549,0.18533
1882.43676,0.18504
1880.50804,0.18494
1878.57931,0.18487
1876.65059,0.18469
1874.72186,0.18450
1872.79313,0.18475
1870.86441,0.18577
1868.93568,0.18660
1867.00695,0.18573
1865.07823,0.18388
1863.14950,0.18251
1861.22078,0.18173
1859.29205,0.18106
1857.36332,0.18027
1855.43460,0.17943
1853.50587,0.17870
1851.57715,0.17803
1849.64842,0.17738
1847.71969,0.17680
1845.79097,0.17628
1843.86224,0.17507
1841.93351,0.17284
1840.00479,0.17086
1838.07606,0.16942
1836.14734,0.16774
1834.21861,0.16607
1832.28988,0.16523
1830.36116,0.16449
1828.43243,0.16251
1826.50370,0.16014
1824.57498,0.15800
1822.64625,0.15553
1820.71753,0.15296
1818.78880,0.15055
1816.86007,0.14818
1814.93135,0.14590
1813.00262,0.14374
1811.07390,0.14131
1809.14517,0.13832
1807.21644,0.13517
1805.28772,0.13219
1803.35899,0.12940
1801.43026,0.12642
1799.50154,0.12302
1797.57281,0.11980
1795.64409,0.11746
1793.71536,0.11577
1791.78663,0.11353
1789.85791,0.11031
1787.92918,0.10726
1786.00045,0.10470
1784.07173,0.10220
1782.14300,0.09961
1780.21428,0.09663
1778.28555,0.09308
1776.35682,0.08963
1774.42810,0.08654
1772.49937,0.08266
1770.57065,0.07727
1768.64192,0.07168
1766.71319,0.06682
1764.78447,0.06295
1762.85574,0.05965
1760.92701,0.05615
1758.99829,0.05271
1757.06956,0.04974
1755.14084,0.04742
1753.21211,0.04602
1751.28338,0.04519
1749.35466,0.04416
1747.42593,0.04269
1745.49720,0.04127
1743.56848,0.04041
1741.63975,0.04015
1739.71103,0.04006
1737.78230,0.03994
1735.85357,0.04029
1733.92485,0.04107
1731.99612,0.04138
1730.06740,0.04130
1728.13867,0.04148
1726.20994,0.04218
1724.28122,0.04322
1722.35249,0.04422
1720.42376,0.04543
1718.49504,0.04731
1716.56631,0.04914
1714.63759,0.04992
1712.70886,0.05006
1710.78013,0.05052
1708.85141,0.05172
1706.92268,0.05335
1704.99395,0.05464
1703.06523,0.05564
1701.13650,0.05678
1699.20778,0.05729
1697.27905,0.05685
1695.35032,0.05599
1693.42160,0.05504
1691.49287,0.05453
1689.56415,0.05429
1687.63542,0.05429
1685.70669,0.05495
1683.77797,0.05523
1681.84924,0.05407
1679.92051,0.05283
1677.99179,0.05235
1676.06306,0.05230
1674.13434,0.05203
1672.20561,0.05147
1670.27688,0.05047
1668.34816,0.04868
1666.41943,0.04725
1664.49070,0.04710
1662.56198,0.04756
1660.63325,0.04759
1658.70453,0.04716
1656.77580,0.04707
1654.84707,0.04800
1652.91835,0.04898
1650.98962,0.04843
1649.06090,0.04776
1647.13217,0.04754
1645.20344,0.04707
1643.27472,0.04665
1641.34599,0.04661
1639.41726,0.04688
1637.48854,0.04740
1635.55981,0.04758
1633.63109,0.04690
1631.70236,0.04623
1629.77363,0.04605
1627.84491,0.04602
1625.91618,0.04577
1623.98745,0.04525
1622.05873,0.04461
1620.13000,0.04435
1618.20128,0.04449
1616.27255,0.04403
1614.34382,0.04282
1612.41510,0.04201
1610.48637,0.04177
1608.55764,0.04143
1606.62892,0.04075
1604.70019,0.04018
1602.77147,0.03987
1600.84274,0.03963
1598.91401,0.03944
1596.98529,0.03958
1595.05656,0.04005
1593.12784,0.04049
1591.19911,0.04096
1589.27038,0.04193
1587.34166,0.04355
1585.41293,0.04554
1583.48420,0.04757
1581.55548,0.04950
1579.62675,0.05162
1577.69803,0.05444
1575.76930,0.05734
1573.84057,0.05905
1571.91185,0.06044
1569.98312,0.06216
1568.05439,0.06317
1566.12567,0.06328
1564.19694,0.06337
1562.26822,0.06429
1560.33949,0.06586
1558.41076,0.06533
1556.48204,0.06221
1554.55331,0.05995
1552.62459,0.05879
1550.69586,0.05790
1548.76713,0.05695
1546.83841,0.05604
1544.90968,0.05560
1542.98095,0.05603
1541.05223,0.05661
1539.12350,0.05536
1537.19478,0.05342
1535.26605,0.05249
1533.33732,0.05179
1531.40860,0.05058
1529.47987,0.04970
1527.55114,0.04928
1525.62242,0.04857
1523.69369,0.04738
1521.76497,0.04563
1519.83624,0.04340
1517.90751,0.04146
1515.97879,0.03978
1514.05006,0.03853
1512.12134,0.03840
1510.19261,0.03956
1508.26388,0.04159
1506.33516,0.04268
1504.40643,0.04185
1502.47770,0.04120
1500.54898,0.04177
1498.62025,0.04306
1496.69153,0.04404
1494.76280,0.04436
1492.83407,0.04476
1490.90535,0.04558
1488.97662,0.04605
1487.04789,0.04562
1485.11917,0.04484
1483.19044,0.04422
1481.26172,0.04372
1479.33299,0.04318
1477.40426,0.04251
1475.47554,0.04150
1473.54681,0.04012
1471.61809,0.03866
1469.68936,0.03764
1467.76063,0.03728
1465.83191,0.03718
1463.90318,0.03685
1461.97445,0.03653
1460.04573,0.03683
1458.11700,0.03753
1456.18828,0.03755
1454.25955,0.03691
1452.33082,0.03663
1450.40210,0.03701
1448.47337,0.03760
1446.54464,0.03777
1444.61592,0.03744
1442.68719,0.03705
1440.75847,0.03699
1438.82974,0.03730
1436.90101,0.03739
1434.97229,0.03678
1433.04356,0.03620
1431.11484,0.03604
1429.18611,0.03601
1427.25738,0.03600
1425.32866,0.03611
1423.39993,0.03625
1421.47120,0.03655
1419.54248,0.03707
1417.61375,0.03724
1415.68503,0.03708
1413.75630,0.03720
1411.82757,0.03772
1409.89885,0.03838
1407.97012,0.03889
1406.04139,0.03901
1404.11267,0.03869
1402.18394,0.03824
1400.25522,0.03786
1398.32649,0.03745
1396.39776,0.03714
1394.46904,0.03700
1392.54031,0.03685
1390.61159,0.03673
1388.68286,0.03654
1386.75413,0.03593
1384.82541,0.03516
1382.89668,0.03480
1380.96795,0.03472
1379.03923,0.03456
1377.11050,0.03448
1375.18178,0.03465
1373.25305,0.03486
1371.32432,0.03511
1369.39560,0.03556
1367.46687,0.03607
1365.53814,0.03654
1363.60942,0.03713
1361.68069,0.03772
1359.75197,0.03806
1357.82324,0.03825
1355.89451,0.03843
1353.96579,0.03854
1352.03706,0.03849
1350.10834,0.03839
1348.17961,0.03833
1346.25088,0.03824
1344.32216,0.03794
1342.39343,0.03754
1340.46470,0.03728
1338.53598,0.03717
1336.60725,0.03710
1334.67853,0.03699
1332.74980,0.03679
1330.82107,0.03650
1328.89235,0.03623
1326.96362,0.03614
1325.03489,0.03620
1323.10617,0.03626
1321.17744,0.03631
1319.24872,0.03644
1317.31999,0.03671
1315.39126,0.03698
1313.46254,0.03712
1311.53381,0.03718
1309.60509,0.03737
1307.67636,0.03786
1305.74763,0.03853
1303.81891,0.03914
1301.89018,0.03943
1299.96145,0.03934
1298.03273,0.03914
1296.10400,0.03903
1294.17528,0.03882
1292.24655,0.03820
1290.31782,0.03717
1288.38910,0.03621
1286.46037,0.03579
1284.53164,0.03566
1282.60292,0.03534
1280.67419,0.03479
1278.74547,0.03424
1276.81674,0.03383
1274.88801,0.03351
1272.95929,0.03324
1271.03056,0.03288
1269.10183,0.03246
1267.17311,0.03230
1265.24438,0.03248
1263.31566,0.03261
1261.38693,0.03253
1259.45820,0.03247
1257.52948,0.03239
1255.60075,0.03222
1253.67203,0.03205
1251.74330,0.03181
1249.81457,0.03157
1247.88585,0.03154
1245.95712,0.03163
1244.02839,0.03173
1242.09967,0.03201
1240.17094,0.03224
1238.24222,0.03209
1236.31349,0.03197
1234.38476,0.03232
1232.45604,0.03295
1230.52731,0.03351
1228.59858,0.03384
1226.66986,0.03405
1224.74113,0.03431
1222.81241,0.03450
1220.88368,0.03466
1218.95495,0.03508
1217.02623,0.03546
1215.09750,0.03554
1213.16878,0.03553
1211.24005,0.03547
1209.31132,0.03538
1207.38260,0.03546
1205.45387,0.03560
1203.52514,0.03557
1201.59642,0.03535
1199.66769,0.03502
1197.73897,0.03473
1195.81024,0.03447
1193.88151,0.03415
1191.95279,0.03378
1190.02406,0.03335
1188.09533,0.03280
1186.16661,0.03213
1184.23788,0.03144
1182.30916,0.03073
1180.38043,0.02985
1178.45170,0.02883
1176.52298,0.02788
1174.59425,0.02725
1172.66553,0.02696
1170.73680,0.02668
1168.80807,0.02645
1166.87935,0.02668
1164.95062,0.02734
1163.02189,0.02825
1161.09317,0.02910
1159.16444,0.02954
1157.23572,0.02966
1155.30699,0.02960
1153.37826,0.02934
1151.44954,0.02886
1149.52081,0.02834
1147.59208,0.02788
1145.66336,0.02730
1143.73463,0.02670
1141.80591,0.02607
1139.87718,0.02514
1137.94845,0.02420
1136.01973,0.02374
1134.09100,0.02365
1132.16228,0.02369
1130.23355,0.02390
1128.30482,0.02427
1126.37610,0.02489
1124.44737,0.02569
1122.51864,0.02634
1120.58992,0.02667
1118.66119,0.02652
1116.73247,0.02620
1114.80374,0.02632
1112.87501,0.02675
1110.94629,0.02717
1109.01756,0.02755
1107.08883,0.02793
1105.16011,0.02837
1103.23138,0.02866
1101.30266,0.02876
1099.37393,0.02893
1097.44520,0.02877
1095.51648,0.02839
1093.58775,0.02865
1091.65903,0.02936
1089.73030,0.02995
1087.80157,0.03043
1085.87285,0.03044
1083.94412,0.02956
1082.01539,0.02858
1080.08667,0.02839
1078.15794,0.02899
1076.22922,0.03010
1074.30049,0.03122
1072.37176,0.03157
1070.44304,0.03148
1068.51431,0.03219
1066.58558,0.03366
1064.65686,0.03500
1062.72813,0.03633
1060.79941,0.03816
1058.87068,0.04001
1056.94195,0.04110
1055.01323,0.04131
1053.08450,0.04121
1051.15578,0.04143
1049.22705,0.04177
1047.29832,0.04186
1045.36960,0.04211
1043.44087,0.04235
1041.51214,0.04199
1039.58342,0.04192
1037.65469,0.04291
1035.72597,0.04425
1033.79724,0.04535
1031.86851,0.04629
1029.93979,0.04720
1028.01106,0.04793
1026.08233,0.04841
1024.15361,0.04857
1022.22488,0.04856
1020.29616,0.04856
1018.36743,0.04847
1016.43870,0.04847
1014.50998,0.04868
1012.58125,0.04914
1010.65253,0.04985
1008.72380,0.05014
1006.79507,0.04953
1004.86635,0.04860
1002.93762,0.04796
1001.00889,0.04791
999.08017,0.04849
997.15144,0.04907
995.22272,0.04954
993.29399,0.05026
991.36526,0.05082
989.43654,0.05092
987.50781,0.05111
985.57908,0.05203
983.65036,0.05377
981.72163,0.05537
979.79291,0.05605
977.86418,0.05640
975.93545,0.05723
974.00673,0.05835
972.07800,0.05929
970.14928,0.06012
968.22055,0.06078
966.29182,0.06081
964.36310,0.06075
962.43437,0.06152
960.50564,0.06278
958.57692,0.06428
956.64819,0.06612
954.71947,0.06737
952.79074,0.06740
950.86201,0.06720
948.93329,0.06772
947.00456,0.06870
945.07583,0.06962
943.14711,0.07031
941.21838,0.07051
939.28966,0.07023
937.36093,0.06997
935.43220,0.07009
933.50348,0.07047
931.57475,0.07050
929.64603,0.07003
927.71730,0.06960
925.78857,0.06944
923.85985,0.06908
921.93112,0.06801
920.00239,0.06661
918.07367,0.06568
916.14494,0.06541
914.21622,0.06553
912.28749,0.06546
910.35876,0.06469
908.43004,0.06342
906.50131,0.06240
904.57258,0.06199
902.64386,0.06173
900.71513,0.06106
898.78641,0.06005
896.85768,0.05930
894.92895,0.05949
893.00023,0.06065
891.07150,0.06189
889.14277,0.06250
887.21405,0.06245
885.28532,0.06203
883.35660,0.06148
881.42787,0.06067
879.49914,0.06020
877.57042,0.06107
875.64169,0.06202
873.71297,0.06191
871.78424,0.06250
869.85551,0.06458
867.92679,0.06646
865.99806,0.06722
864.06933,0.06729
862.14061,0.06729
860.21188,0.06755
858.28316,0.06745
856.35443,0.06678
854.42570,0.06630
852.49698,0.06601
850.56825,0.06552
848.63952,0.06534
846.71080,0.06529
844.78207,0.06437
842.85335,0.06303
840.92462,0.06236
838.99589,0.06223
837.06717,0.06193
835.13844,0.06138
833.20972,0.06108
831.28099,0.06114
829.35226,0.06109
827.42354,0.06071
825.49481,0.06001
823.56608,0.05904
821.63736,0.05830
819.70863,0.05831
817.77991,0.05892
815.85118,0.05949
813.92245,0.05957
811.99373,0.05952
810.06500,0.05980
808.13627,0.05998
806.20755,0.05971
804.27882,0.05921
802.35010,0.05873
800.42137,0.05874
798.49264,0.05925
796.56392,0.05967
794.63519,0.05970
792.70647,0.05945
790.77774,0.05919
788.84901,0.05889
786.92029,0.05835
784.99156,0.05757
783.06283,0.05659
781.13411,0.05572
779.20538,0.05532
777.27666,0.05539
775.34793,0.05566
773.41920,0.05517
771.49048,0.05370
769.56175,0.05263
767.63302,0.05223
765.70430,0.05195
763.77557,0.05191
761.84685,0.05176
759.91812,0.05171
757.98939,0.05229
756.06067,0.05231
754.13194,0.05099
752.20322,0.04935
750.27449,0.04840
748.34576,0.04822
746.41704,0.04812
744.48831,0.04772
742.55958,0.04732
740.63086,0.04700
738.70213,0.04690
736.77341,0.04719
734.84468,0.04711
732.91595,0.04595
730.98723,0.04445
729.05850,0.04365
727.12977,0.04332
725.20105,0.04289
723.27232,0.04274
721.34360,0.04249
719.41487,0.04165
717.48614,0.04046
715.55742,0.03950
713.62869,0.03893
711.69997,0.03874
709.77124,0.03893
707.84251,0.03933
705.91379,0.03962
703.98506,0.03987
702.05633,0.04012
700.12761,0.04004
698.19888,0.03951
696.27016,0.03902
694.34143,0.03890
692.41270,0.03899
690.48398,0.03895
688.55525,0.03856
686.62652,0.03818
684.69780,0.03810
682.76907,0.03778
680.84035,0.03691
678.91162,0.03614
676.98289,0.03580
675.05417,0.03555
673.12544,0.03495
671.19672,0.03409
669.26799,0.03359
667.33926,0.03374
665.41054,0.03414
663.48181,0.03476
661.55308,0.03567
659.62436,0.03644
657.69563,0.03672
655.76691,0.03637
653.83818,0.03559
651.90945,0.03513
649.98073,0.03547
648.05200,0.03605
646.12327,0.03599
644.19455,0.03520
642.26582,0.03425
640.33710,0.03384
638.40837,0.03413
636.47964,0.03431
634.55092,0.03351
632.62219,0.03219
630.69347,0.03154
628.76474,0.03199
626.83601,0.03303
624.90729,0.03382
622.97856,0.03373
621.04983,0.03285
619.12111,0.03212
617.19238,0.03232
615.26366,0.03307
613.33493,0.03405
611.40620,0.03532
609.47748,0.03619
607.54875,0.03617
605.62002,0.03576
603.69130,0.03558
601.76257,0.03614
599.83385,0.03720
597.90512,0.03812
595.97639,0.03873
594.04767,0.03854
592.11894,0.03715
590.19022,0.03580
588.26149,0.03575
586.33276,0.03651
584.40404,0.03732
582.47531,0.03789
580.54658,0.03806
578.61786,0.03795
576.68913,0.03753
574.76041,0.03667
572.83168,0.03588
570.90295,0.03559
568.97423,0.03578
567.04550,0.03652
565.11677,0.03718
563.18805,0.03721
561.25932,0.03740
559.33060,0.03798
557.40187,0.03777
555.47314,0.03663
553.54442,0.03646
551.61569,0.03826
549.68697,0.04061
547.75824,0.04188
545.82951,0.04167
543.90079,0.04015
541.97206,0.03813
540.04333,0.03696
538.11461,0.03697
536.18588,0.03712
534.25716,0.03715
532.32843,0.03789
530.39970,0.03852
528.47098,0.03735
526.54225,0.03537
524.61352,0.03515
522.68480,0.03656
520.75607,0.03729
518.82735,0.03614
516.89862,0.03482
514.96989,0.03577
513.04117,0.03833
511.11244,0.03964
509.18371,0.03831
507.25499,0.03561
505.32626,0.03394
503.39754,0.03497
501.46881,0.03845
499.54008,0.04194
497.61136,0.04254
495.68263,0.04032
493.75391,0.03822
491.82518,0.03787
489.89645,0.03819
487.96773,0.03753
486.03900,0.03587
484.11027,0.03487
482.18155,0.03506
480.25282,0.03535
478.32410,0.03624
476.39537,0.03905
474.46664,0.04149
472.53792,0.03979
470.60919,0.03651
468.68046,0.03637
466.75174,0.03800
464.82301,0.03740
462.89429,0.03506
460.96556,0.03425
459.03683,0.03556
457.10811,0.03827
455.17938,0.04254
453.25066,0.04708
451.32193,0.04912
449.39320,0.04718
447.46448,0.04210
445.53575,0.03740
443.60702,0.03708
441.67830,0.04050
439.74957,0.04157
437.82085,0.03794
435.89212,0.03545
433.96339,0.03855
432.03467,0.04337
430.10594,0.04405
428.17721,0.04262
426.24849,0.04297
424.31976,0.04354
422.39104,0.03853
420.46231,0.02680
418.53358,0.01915
416.60486,0.02279
414.67613,0.03164
412.74741,0.03690
410.81868,0.03719
408.88995,0.03517
406.96123,0.03244
405.03250,0.03176
403.10377,0.03666
401.17505,0.04692
399.24632,0.05678
