5996.40973,0.61663
5994.48101,0.61728
5992.55228,0.62021
5990.62356,0.62403
5988.69483,0.62484
5986.76610,0.62180
5984.83738,0.61890
5982.90865,0.61841
5980.97992,0.61991
5979.05120,0.62159
5977.12247,0.61962
5975.19375,0.61473
5973.26502,0.61324
5971.33629,0.61330
5969.40757,0.61016
5967.47884,0.60954
5965.55011,0.61412
5963.62139,0.61811
5961.69266,0.61842
5959.76394,0.61576
5957.83521,0.61312
5955.90648,0.61436
5953.97776,0.61831
5952.04903,0.61833
5950.12031,0.61074
5948.19158,0.60260
5946.26285,0.60384
5944.33413,0.61241
5942.40540,0.61791
5940.47667,0.61688
5938.54795,0.61389
5936.61922,0.61234
5934.69050,0.61218
5932.76177,0.61268
5930.83304,0.61359
5928.90432,0.61540
5926.97559,0.61821
5925.04686,0.62009
5923.11814,0.61928
5921.18941,0.61632
5919.26069,0.61295
5917.33196,0.60911
5915.40323,0.60522
5913.47451,0.60450
5911.54578,0.60576
5909.61706,0.60553
5907.68833,0.60537
5905.75960,0.60650
5903.83088,0.60747
5901.90215,0.60642
5899.97342,0.60168
5898.04470,0.59580
5896.11597,0.59408
5894.18725,0.59751
5892.25852,0.60201
5890.32979,0.60462
5888.40107,0.60558
5886.47234,0.60550
5884.54361,0.60596
5882.61489,0.60776
5880.68616,0.60815
5878.75744,0.60643
5876.82871,0.60524
5874.89998,0.60446
5872.97126,0.60341
5871.04253,0.60379
5869.11381,0.60583
5867.18508,0.60645
5865.25635,0.60391
5863.32763,0.60199
5861.39890,0.60406
5859.47017,0.60715
5857.54145,0.60778
5855.61272,0.60674
5853.68400,0.60602
5851.75527,0.60666
5849.82654,0.60931
5847.89782,0.61247
5845.96909,0.61273
5844.04036,0.60953
5842.11164,0.60590
5840.18291,0.60439
5838.25419,0.60582
5836.32546,0.60951
5834.39673,0.61126
5832.46801,0.60744
5830.53928,0.60199
5828.61056,0.59955
5826.68183,0.59856
5824.75310,0.59847
5822.82438,0.60066
5820.89565,0.60173
5818.96692,0.59996
5817.03820,0.59927
5815.10947,0.60013
5813.18075,0.60079
5811.25202,0.60156
5809.32329,0.60078
5807.39457,0.59762
5805.46584,0.59599
5803.53711,0.59793
5801.60839,0.60025
5799.67966,0.60084
5797.75094,0.59948
5795.82221,0.59487
5793.89348,0.59008
5791.96476,0.59028
5790.03603,0.59379
5788.10731,0.59586
5786.17858,0.59588
5784.24985,0.59564
5782.32113,0.59526
5780.39240,0.59473
5778.46367,0.59591
5776.53495,0.59876
5774.60622,0.59991
5772.67750,0.59793
5770.74877,0.59572
5768.82004,0.59477
5766.89132,0.59405
5764.96259,0.59523
5763.03386,0.59962
5761.10514,0.60402
5759.17641,0.60631
5757.24769,0.60724
5755.31896,0.60697
5753.39023,0.60502
5751.46151,0.60217
5749.53278,0.60083
5747.60406,0.60286
5745.67533,0.60767
5743.74660,0.61220
5741.81788,0.61261
5739.88915,0.60887
5737.96042,0.60597
5736.03170,0.60673
5734.10297,0.60804
5732.17425,0.60815
5730.24552,0.60989
5728.31679,0.61326
5726.38807,0.61436
5724.45934,0.61400
5722.53061,0.61570
5720.60189,0.61751
5718.67316,0.61576
5716.74444,0.61040
5714.81571,0.60541
5712.88698,0.60555
5710.95826,0.60897
5709.02953,0.61029
5707.10081,0.60927
5705.17208,0.60804
5703.24335,0.60661
5701.31463,0.60486
5699.38590,0.60423
5697.45717,0.60552
5695.52845,0.60613
5693.59972,0.60428
5691.67100,0.60236
5689.74227,0.60219
5687.81354,0.60308
5685.88482,0.60452
5683.95609,0.60624
5682.02736,0.60639
5680.09864,0.60561
5678.16991,0.60791
5676.24119,0.61131
5674.31246,0.61069
5672.38373,0.60696
5670.45501,0.60293
5668.52628,0.60152
5666.59756,0.60376
5664.66883,0.60484
5662.74010,0.60226
5660.81138,0.60007
5658.88265,0.60050
5656.95392,0.60222
5655.02520,0.60420
5653.09647,0.60544
5651.16775,0.60439
5649.23902,0.60214
5647.31029,0.60267
5645.38157,0.60574
5643.45284,0.60657
5641.52411,0.60456
5639.59539,0.60372
5637.66666,0.60613
5635.73794,0.61047
5633.80921,0.61341
5631.88048,0.61149
5629.95176,0.60740
5628.02303,0.60789
5626.09430,0.61135
5624.16558,0.61123
5622.23685,0.60938
5620.30813,0.61059
5618.37940,0.61290
5616.45067,0.61327
5614.52195,0.61175
5612.59322,0.60934
5610.66450,0.60748
5608.73577,0.60733
5606.80704,0.61040
5604.87832,0.61533
5602.94959,0.61757
5601.02086,0.61562
5599.09214,0.61077
5597.16341,0.60633
5595.23469,0.60578
5593.30596,0.60791
5591.37723,0.60939
5589.44851,0.61033
5587.51978,0.61105
5585.59105,0.61000
5583.66233,0.60934
5581.73360,0.61190
5579.80488,0.61483
5577.87615,0.61495
5575.94742,0.61375
5574.01870,0.61461
5572.08997,0.61883
5570.16125,0.62305
5568.23252,0.62318
5566.30379,0.61879
5564.37507,0.61259
5562.44634,0.60963
5560.51761,0.61268
5558.58889,0.61837
5556.66016,0.62214
5554.73144,0.62229
5552.80271,0.61782
5550.87398,0.61261
5548.94526,0.60837
5547.01653,0.60705
5545.08780,0.60848
5543.15908,0.60945
5541.23035,0.61365
5539.30163,0.62135
5537.37290,0.62497
5535.44417,0.62367
5533.51545,0.62005
5531.58672,0.61611
5529.65800,0.61303
5527.72927,0.61171
5525.80054,0.61197
5523.87182,0.61047
5521.94309,0.61081
5520.01436,0.61717
5518.08564,0.62002
5516.15691,0.61755
5514.22819,0.61588
5512.29946,0.61332
5510.37073,0.61091
5508.44201,0.60877
5506.51328,0.61204
5504.58455,0.61552
5502.65583,0.61728
5500.72710,0.61849
5498.79838,0.61867
5496.86965,0.62212
5494.94092,0.61504
5493.01220,0.60508
5491.08347,0.61252
5489.15475,0.61689
5487.22602,0.61781
5485.29729,0.62013
5483.36857,0.62071
5481.43984,0.62295
5479.51111,0.62827
5477.58239,0.62431
5475.65366,0.61195
5473.72494,0.62081
5471.79621,0.62967
5469.86748,0.62449
5467.93876,0.62166
5466.01003,0.62436
5464.08130,0.62421
5462.15258,0.62115
5460.22385,0.62177
5458.29513,0.62701
5456.36640,0.62663
5454.43767,0.63130
5452.50895,0.63609
5450.58022,0.63388
5448.65150,0.63303
5446.72277,0.63134
5444.79404,0.63413
5442.86532,0.63663
5440.93659,0.63319
5439.00786,0.64341
5437.07914,0.64154
5435.15041,0.62994
5433.22169,0.64031
5431.29296,0.64498
5429.36423,0.63043
5427.43551,0.63260
5425.50678,0.64294
5423.57805,0.64434
5421.64933,0.64427
5419.72060,0.64417
5417.79188,0.64269
5415.86315,0.63395
5413.93442,0.62519
5412.00570,0.62892
5410.07697,0.63284
5408.14825,0.63991
5406.21952,0.63824
5404.29079,0.62778
5402.36207,0.62541
5400.43334,0.63194
5398.50461,0.63770
5396.57589,0.63664
5394.64716,0.63041
5392.71844,0.63399
5390.78971,0.64696
5388.86098,0.64904
5386.93226,0.63780
5385.00353,0.63104
5383.07480,0.63776
5381.14608,0.64487
5379.21735,0.64212
5377.28863,0.63078
5375.35990,0.63260
5373.43117,0.63974
5371.50245,0.64044
5369.57372,0.63789
5367.64500,0.63800
5365.71627,0.63757
5363.78754,0.63698
5361.85882,0.64268
5359.93009,0.64793
5358.00136,0.64865
5356.07264,0.63854
5354.14391,0.62245
5352.21519,0.62804
5350.28646,0.64102
5348.35773,0.64107
5346.42901,0.63090
5344.50028,0.62301
5342.57155,0.64159
5340.64283,0.64456
5338.71410,0.62631
5336.78538,0.63133
5334.85665,0.64103
5332.92792,0.63376
5330.99920,0.63103
5329.07047,0.63098
5327.14175,0.62999
5325.21302,0.64012
5323.28429,0.64182
5321.35557,0.63550
5319.42684,0.63022
5317.49811,0.62644
5315.56939,0.62640
5313.64066,0.62920
5311.71194,0.63087
5309.78321,0.62690
5307.85448,0.61898
5305.92576,0.62318
5303.99703,0.62786
5302.06830,0.62262
5300.13958,0.61540
5298.21085,0.61419
5296.28213,0.61643
5294.35340,0.61864
5292.42467,0.61444
5290.49595,0.60560
5288.56722,0.60998
5286.63849,0.61077
5284.70977,0.60322
5282.78104,0.60006
5280.85232,0.59443
5278.92359,0.59209
5276.99486,0.59284
5275.06614,0.59113
5273.13741,0.58881
5271.20869,0.58331
5269.27996,0.57694
5267.35123,0.57494
5265.42251,0.56367
5263.49378,0.55231
5261.56505,0.55481
5259.63633,0.56051
5257.70760,0.55895
5255.77888,0.54792
5253.85015,0.54943
5251.92142,0.55887
5249.99270,0.54837
5248.06397,0.53495
5246.13524,0.53571
5244.20652,0.53422
5242.27779,0.53753
5240.34907,0.53773
5238.42034,0.53364
5236.49161,0.53187
5234.56289,0.52715
5232.63416,0.52000
5230.70544,0.51919
5228.77671,0.52476
5226.84798,0.51718
5224.91926,0.50971
5222.99053,0.51605
5221.06180,0.51863
5219.13308,0.51622
5217.20435,0.51713
5215.27563,0.51865
5213.34690,0.51761
5211.41817,0.51900
5209.48945,0.51711
5207.56072,0.50865
5205.63199,0.50656
5203.70327,0.51345
5201.77454,0.51361
5199.84582,0.51117
5197.91709,0.50769
5195.98836,0.50935
5194.05964,0.51447
5192.13091,0.51568
5190.20219,0.51562
5188.27346,0.51605
5186.34473,0.51087
5184.41601,0.50658
5182.48728,0.51071
5180.55855,0.51198
5178.62983,0.51393
5176.70110,0.51768
5174.77238,0.52051
5172.84365,0.52100
5170.91492,0.52125
5168.98620,0.52498
5167.05747,0.52572
5165.12874,0.52055
5163.20002,0.51924
5161.27129,0.52399
5159.34257,0.52536
5157.41384,0.52321
5155.48511,0.52259
5153.55639,0.52551
5151.62766,0.52824
5149.69894,0.53257
5147.77021,0.53745
5145.84148,0.53832
5143.91276,0.53435
5141.98403,0.53040
5140.05530,0.53283
5138.12658,0.53654
5136.19785,0.53863
5134.26913,0.53932
5132.34040,0.53892
5130.41167,0.54012
5128.48295,0.54277
5126.55422,0.54474
5124.62549,0.54452
5122.69677,0.54299
5120.76804,0.54129
5118.83932,0.54160
5116.91059,0.54354
5114.98186,0.54396
5113.05314,0.54425
5111.12441,0.54542
5109.19569,0.54791
5107.26696,0.55165
5105.33823,0.55382
5103.40951,0.55258
5101.48078,0.54993
5099.55205,0.54802
5097.62333,0.54697
5095.69460,0.54813
5093.76588,0.55035
5091.83715,0.55112
5089.90842,0.55268
5087.97970,0.55613
5086.05097,0.55826
5084.12224,0.55745
5082.19352,0.55587
5080.26479,0.55523
5078.33607,0.55607
5076.40734,0.55843
5074.47861,0.56003
5072.54989,0.55953
5070.62116,0.55863
5068.69244,0.55891
5066.76371,0.56073
5064.83498,0.56242
5062.90626,0.56234
5060.97753,0.56083
5059.04880,0.55898
5057.12008,0.55827
5055.19135,0.55958
5053.26263,0.56229
5051.33390,0.56513
5049.40517,0.56655
5047.47645,0.56674
5045.54772,0.56727
5043.61899,0.56784
5041.69027,0.56750
5039.76154,0.56717
5037.83282,0.56777
5035.90409,0.56820
5033.97536,0.56781
5032.04664,0.56725
5030.11791,0.56672
5028.18919,0.56736
5026.26046,0.56996
5024.33173,0.57183
5022.40301,0.57006
5020.47428,0.56640
5018.54555,0.56452
5016.61683,0.56403
5014.68810,0.56305
5012.75938,0.56250
5010.83065,0.56290
5008.90192,0.56351
5006.97320,0.56466
5005.04447,0.56602
5003.11574,0.56581
5001.18702,0.56305
4999.25829,0.55914
4997.32957,0.55685
4995.40084,0.55716
4993.47211,0.55798
4991.54339,0.55747
4989.61466,0.55640
4987.68594,0.55615
4985.75721,0.55601
4983.82848,0.55459
4981.89976,0.55283
4979.97103,0.55213
4978.04230,0.55113
4976.11358,0.54884
4974.18485,0.54627
4972.25613,0.54438
4970.32740,0.54367
4968.39867,0.54305
4966.46995,0.54146
4964.54122,0.53954
4962.61249,0.53677
4960.68377,0.53364
4958.75504,0.53267
4956.82632,0.53225
4954.89759,0.52888
4952.96886,0.52426
4951.04014,0.52157
4949.11141,0.52021
4947.18269,0.51860
4945.25396,0.51684
4943.32523,0.51551
4941.39651,0.51420
4939.46778,0.51180
4937.53905,0.50843
4935.61033,0.50568
4933.68160,0.50402
4931.75288,0.50252
4929.82415,0.50133
4927.89542,0.50060
4925.96670,0.49918
4924.03797,0.49625
4922.10924,0.49226
4920.18052,0.48809
4918.25179,0.48431
4916.32307,0.48186
4914.39434,0.48076
4912.46561,0.47951
4910.53689,0.47775
4908.60816,0.47667
4906.67943,0.47619
4904.75071,0.47450
4902.82198,0.47131
4900.89326,0.46831
4898.96453,0.46611
4897.03580,0.46381
4895.10708,0.46189
4893.17835,0.46193
4891.24963,0.46225
4889.32090,0.46080
4887.39217,0.45924
4885.46345,0.45809
4883.53472,0.45605
4881.60599,0.45313
4879.67727,0.45057
4877.74854,0.44946
4875.81982,0.44843
4873.89109,0.44593
4871.96236,0.44340
4870.03364,0.44258
4868.10491,0.44283
4866.17618,0.44187
4864.24746,0.43938
4862.31873,0.43697
4860.39001,0.43506
4858.46128,0.43346
4856.53255,0.43236
4854.60383,0.43178
4852.67510,0.43113
4850.74638,0.42946
4848.81765,0.42728
4846.88892,0.42582
4844.96020,0.42492
4843.03147,0.42410
4841.10274,0.42390
4839.17402,0.42393
4837.24529,0.42243
4835.31657,0.42006
4833.38784,0.41846
4831.45911,0.41725
4829.53039,0.41667
4827.60166,0.41627
4825.67293,0.41460
4823.74421,0.41272
4821.81548,0.41149
4819.88676,0.41029
4817.95803,0.40968
4816.02930,0.40992
4814.10058,0.40992
4812.17185,0.40913
4810.24313,0.40832
4808.31440,0.40795
4806.38567,0.40770
4804.45695,0.40729
4802.52822,0.40644
4800.59949,0.40561
4798.67077,0.40530
4796.74204,0.40549
4794.81332,0.40582
4792.88459,0.40578
4790.95586,0.40560
4789.02714,0.40532
4787.09841,0.40482
4785.16968,0.40452
4783.24096,0.40376
4781.31223,0.40204
4779.38351,0.40068
4777.45478,0.40022
4775.52605,0.39987
4773.59733,0.39937
4771.66860,0.39882
4769.73988,0.39845
4767.81115,0.39897
4765.88242,0.39988
4763.95370,0.39951
4762.02497,0.39766
4760.09624,0.39602
4758.16752,0.39556
4756.23879,0.39504
4754.31007,0.39437
4752.38134,0.39512
4750.45261,0.39673
4748.52389,0.39785
4746.59516,0.39823
4744.66643,0.39784
4742.73771,0.39724
4740.80898,0.39694
4738.88026,0.39716
4736.95153,0.39811
4735.02280,0.39876
4733.09408,0.39857
4731.16535,0.39837
4729.23663,0.39849
4727.30790,0.39888
4725.37917,0.39880
4723.45045,0.39811
4721.52172,0.39810
4719.59299,0.39848
4717.66427,0.39806
4715.73554,0.39762
4713.80682,0.39845
4711.87809,0.40007
4709.94936,0.40093
4708.02064,0.40093
4706.09191,0.40088
4704.16318,0.40112
4702.23446,0.40187
4700.30573,0.40271
4698.37701,0.40307
4696.44828,0.40359
4694.51955,0.40415
4692.59083,0.40386
4690.66210,0.40362
4688.73338,0.40444
4686.80465,0.40530
4684.87592,0.40545
4682.94720,0.40570
4681.01847,0.40647
4679.08974,0.40680
4677.16102,0.40587
4675.23229,0.40431
4673.30357,0.40372
4671.37484,0.40472
4669.44611,0.40613
4667.51739,0.40732
4665.58866,0.40898
4663.65993,0.41058
4661.73121,0.41088
4659.80248,0.41084
4657.87376,0.41188
4655.94503,0.41326
4654.01630,0.41378
4652.08758,0.41377
4650.15885,0.41406
4648.23013,0.41458
4646.30140,0.41514
4644.37267,0.41611
4642.44395,0.41748
4640.51522,0.41814
4638.58649,0.41745
4636.65777,0.41728
4634.72904,0.41925
4632.80032,0.42181
4630.87159,0.42296
4628.94286,0.42293
4627.01414,0.42327
4625.08541,0.42436
4623.15668,0.42498
4621.22796,0.42480
4619.29923,0.42535
4617.37051,0.42691
4615.44178,0.42794
4613.51305,0.42841
4611.58433,0.42953
4609.65560,0.43069
4607.72688,0.43085
4605.79815,0.43112
4603.86942,0.43272
4601.94070,0.43506
4600.01197,0.43665
4598.08324,0.43624
4596.15452,0.43505
4594.22579,0.43588
4592.29707,0.43851
4590.36834,0.44006
4588.43961,0.44010
4586.51089,0.44028
4584.58216,0.44077
4582.65343,0.44175
4580.72471,0.44358
4578.79598,0.44439
4576.86726,0.44333
4574.93853,0.44275
4573.00980,0.44377
4571.08108,0.44531
4569.15235,0.44676
4567.22363,0.44774
4565.29490,0.44814
4563.36617,0.44871
4561.43745,0.44927
4559.50872,0.44961
4557.57999,0.45084
4555.65127,0.45275
4553.72254,0.45383
4551.79382,0.45385
4549.86509,0.45330
4547.93636,0.45268
4546.00764,0.45257
4544.07891,0.45285
4542.15018,0.45325
4540.22146,0.45350
4538.29273,0.45346
4536.36401,0.45373
4534.43528,0.45491
4532.50655,0.45700
4530.57783,0.45879
4528.64910,0.45870
4526.72037,0.45728
4524.79165,0.45614
4522.86292,0.45581
4520.93420,0.45579
4519.00547,0.45552
4517.07674,0.45520
4515.14802,0.45514
4513.21929,0.45526
4511.29057,0.45526
4509.36184,0.45519
4507.43311,0.45528
4505.50439,0.45467
4503.57566,0.45330
4501.64693,0.45294
4499.71821,0.45328
4497.78948,0.45232
4495.86076,0.45034
4493.93203,0.44892
4492.00330,0.44833
4490.07458,0.44781
4488.14585,0.44674
4486.21712,0.44484
4484.28840,0.44249
4482.35967,0.44055
4480.43095,0.43892
4478.50222,0.43689
4476.57349,0.43451
4474.64477,0.43226
4472.71604,0.42975
4470.78732,0.42622
4468.85859,0.42279
4466.92986,0.42048
4465.00114,0.41790
4463.07241,0.41444
4461.14368,0.41134
4459.21496,0.40889
4457.28623,0.40681
4455.35751,0.40507
4453.42878,0.40325
4451.50005,0.40108
4449.57133,0.39848
4447.64260,0.39510
4445.71387,0.39113
4443.78515,0.38784
4441.85642,0.38629
4439.92770,0.38534
4437.99897,0.38333
4436.07024,0.38060
4434.14152,0.37801
4432.21279,0.37546
4430.28407,0.37292
4428.35534,0.37042
4426.42661,0.36795
4424.49789,0.36609
4422.56916,0.36467
4420.64043,0.36271
4418.71171,0.36019
4416.78298,0.35807
4414.85426,0.35714
4412.92553,0.35685
4410.99680,0.35561
4409.06808,0.35326
4407.13935,0.35133
4405.21062,0.35050
4403.28190,0.35009
4401.35317,0.34980
4399.42445,0.34995
4397.49572,0.35062
4395.56699,0.35129
4393.63827,0.35144
4391.70954,0.35120
4389.78082,0.35085
4387.85209,0.35108
4385.92336,0.35197
4383.99464,0.35279
4382.06591,0.35369
4380.13718,0.35464
4378.20846,0.35499
4376.27973,0.35523
4374.35101,0.35635
4372.42228,0.35798
4370.49355,0.35887
4368.56483,0.35872
4366.63610,0.35891
4364.70737,0.36057
4362.77865,0.36240
4360.84992,0.36257
4358.92120,0.36127
4356.99247,0.35971
4355.06374,0.35920
4353.13502,0.36000
4351.20629,0.36056
4349.27757,0.35984
4347.34884,0.35865
4345.42011,0.35785
4343.49139,0.35715
4341.56266,0.35642
4339.63393,0.35612
4337.70521,0.35566
4335.77648,0.35453
4333.84776,0.35368
4331.91903,0.35337
4329.99030,0.35257
4328.06158,0.35075
4326.13285,0.34865
4324.20412,0.34746
4322.27540,0.34744
4320.34667,0.34789
4318.41795,0.34816
4316.48922,0.34815
4314.56049,0.34767
4312.63177,0.34662
4310.70304,0.34545
4308.77432,0.34447
4306.84559,0.34384
4304.91686,0.34377
4302.98814,0.34376
4301.05941,0.34343
4299.13068,0.34299
4297.20196,0.34251
4295.27323,0.34182
4293.34451,0.34078
4291.41578,0.33978
4289.48705,0.33925
4287.55833,0.33909
4285.62960,0.33930
4283.70087,0.33970
4281.77215,0.33967
4279.84342,0.33907
4277.91470,0.33831
4275.98597,0.33767
4274.05724,0.33757
4272.12852,0.33809
4270.19979,0.33866
4268.27107,0.33890
4266.34234,0.33872
4264.41361,0.33867
4262.48489,0.33920
4260.55616,0.33981
4258.62743,0.34016
4256.69871,0.34026
4254.76998,0.34020
4252.84126,0.34044
4250.91253,0.34117
4248.98380,0.34203
4247.05508,0.34259
4245.12635,0.34296
4243.19762,0.34330
4241.26890,0.34332
4239.34017,0.34295
4237.41145,0.34291
4235.48272,0.34380
4233.55399,0.34501
4231.62527,0.34583
4229.69654,0.34631
4227.76782,0.34652
4225.83909,0.34650
4223.91036,0.34675
4221.98164,0.34732
4220.05291,0.34767
4218.12418,0.34780
4216.19546,0.34799
4214.26673,0.34813
4212.33801,0.34828
4210.40928,0.34877
4208.48055,0.34924
4206.55183,0.34905
4204.62310,0.34878
4202.69437,0.34916
4200.76565,0.34975
4198.83692,0.34985
4196.90820,0.34976
4194.97947,0.35027
4193.05074,0.35126
4191.12202,0.35175
4189.19329,0.35164
4187.26456,0.35145
4185.33584,0.35118
4183.40711,0.35089
4181.47839,0.35090
4179.54966,0.35131
4177.62093,0.35204
4175.69221,0.35273
4173.76348,0.35306
4171.83476,0.35324
4169.90603,0.35383
4167.97730,0.35478
4166.04858,0.35548
4164.11985,0.35552
4162.19112,0.35528
4160.26240,0.35550
4158.33367,0.35574
4156.40495,0.35516
4154.47622,0.35450
4152.54749,0.35454
4150.61877,0.35466
4148.69004,0.35411
4146.76131,0.35319
4144.83259,0.35249
4142.90386,0.35179
4140.97514,0.35086
4139.04641,0.34992
4137.11768,0.34912
4135.18896,0.34853
4133.26023,0.34823
4131.33151,0.34799
4129.40278,0.34734
4127.47405,0.34616
4125.54533,0.34477
4123.61660,0.34345
4121.68787,0.34214
4119.75915,0.34071
4117.83042,0.33944
4115.90170,0.33853
4113.97297,0.33717
4112.04424,0.33516
4110.11552,0.33349
4108.18679,0.33224
4106.25806,0.33075
4104.32934,0.32891
4102.40061,0.32685
4100.47189,0.32482
4098.54316,0.32297
4096.61443,0.32125
4094.68571,0.31939
4092.75698,0.31718
4090.82826,0.31506
4088.89953,0.31358
4086.97080,0.31257
4085.04208,0.31141
4083.11335,0.30988
4081.18462,0.30800
4079.25590,0.30594
4077.32717,0.30408
4075.39845,0.30236
4073.46972,0.30050
4071.54099,0.29853
4069.61227,0.29657
4067.68354,0.29490
4065.75481,0.29377
4063.82609,0.29273
4061.89736,0.29095
4059.96864,0.28872
4058.03991,0.28687
4056.11118,0.28535
4054.18246,0.28361
4052.25373,0.28150
4050.32501,0.27941
4048.39628,0.27775
4046.46755,0.27649
4044.53883,0.27537
4042.61010,0.27415
4040.68137,0.27285
4038.75265,0.27160
4036.82392,0.27040
4034.89520,0.26924
4032.96647,0.26834
4031.03774,0.26799
4029.10902,0.26787
4027.18029,0.26729
4025.25156,0.26618
4023.32284,0.26541
4021.39411,0.26570
4019.46539,0.26655
4017.53666,0.26669
4015.60793,0.26607
4013.67921,0.26589
4011.75048,0.26630
4009.82176,0.26634
4007.89303,0.26590
4005.96430,0.26545
4004.03558,0.26509
4002.10685,0.26518
4000.17812,0.26634
3998.24940,0.26849
3996.32067,0.26957
3994.39195,0.27015
3992.46322,0.27048
3990.53449,0.27040
3988.60577,0.27154
3986.67704,0.27223
3984.74831,0.27193
3982.81959,0.27158
3980.89086,0.27240
3978.96214,0.27370
3977.03341,0.27373
3975.10468,0.27391
3973.17596,0.27491
3971.24723,0.27567
3969.31851,0.27620
3967.38978,0.27737
3965.46105,0.27805
3963.53233,0.27701
3961.60360,0.27678
3959.67487,0.27882
3957.74615,0.27986
3955.81742,0.28089
3953.88870,0.28243
3951.95997,0.28253
3950.03124,0.28113
3948.10252,0.28306
3946.17379,0.28751
3944.24506,0.28593
3942.31634,0.28411
3940.38761,0.28789
3938.45889,0.28997
3936.53016,0.29150
3934.60143,0.29097
3932.67271,0.28861
3930.74398,0.29129
3928.81526,0.29692
3926.88653,0.29681
3924.95780,0.29320
3923.02908,0.29787
3921.10035,0.30048
3919.17162,0.29740
3917.24290,0.29579
3915.31417,0.30020
3913.38545,0.30350
3911.45672,0.30396
3909.52799,0.30738
3907.59927,0.30884
3905.67054,0.30369
3903.74181,0.30348
3901.81309,0.30782
3899.88436,0.30572
3897.95564,0.31058
3896.02691,0.31834
3894.09818,0.31292
3892.16946,0.30360
3890.24073,0.31223
3888.31201,0.32091
3886.38328,0.31209
3884.45455,0.31610
3882.52583,0.31930
3880.59710,0.31146
3878.66837,0.32124
3876.73965,0.32650
3874.81092,0.31856
3872.88220,0.31976
3870.95347,0.31551
3869.02474,0.32065
3867.09602,0.33114
3865.16729,0.32047
3863.23856,0.31882
3861.30984,0.32851
3859.38111,0.33846
3857.45239,0.33789
3855.52366,0.31924
3853.59493,0.30089
3851.66621,0.32229
3849.73748,0.34275
3847.80876,0.34377
3845.88003,0.33733
3843.95130,0.33393
3842.02258,0.33763
3840.09385,0.33391
3838.16512,0.33097
3836.23640,0.34014
3834.30767,0.34528
3832.37895,0.34068
3830.45022,0.34193
3828.52149,0.34319
3826.59277,0.34319
3824.66404,0.34996
3822.73531,0.33829
3820.80659,0.33205
3818.87786,0.35028
3816.94914,0.34090
3815.02041,0.33593
3813.09168,0.34813
3811.16296,0.35044
3809.23423,0.34125
3807.30550,0.33377
3805.37678,0.34941
3803.44805,0.34694
3801.51933,0.33072
3799.59060,0.34444
3797.66187,0.34584
3795.73315,0.34037
3793.80442,0.34386
3791.87570,0.34324
3789.94697,0.34205
3788.01824,0.34166
3786.08952,0.33846
3784.16079,0.34064
3782.23206,0.34485
3780.30334,0.33752
3778.37461,0.33717
3776.44589,0.34462
3774.51716,0.34642
3772.58843,0.34197
3770.65971,0.33351
3768.73098,0.33727
3766.80225,0.34026
3764.87353,0.34114
3762.94480,0.34688
3761.01608,0.33987
3759.08735,0.33481
3757.15862,0.34501
3755.22990,0.35367
3753.30117,0.34140
3751.37245,0.32623
3749.44372,0.33807
3747.51499,0.35276
3745.58627,0.33140
3743.65754,0.32493
3741.72881,0.34365
3739.80009,0.34714
3737.87136,0.33475
3735.94264,0.31971
3734.01391,0.31961
3732.08518,0.32498
3730.15646,0.33342
3728.22773,0.33032
3726.29900,0.32031
3724.37028,0.31812
3722.44155,0.31600
3720.51283,0.31614
3718.58410,0.31798
3716.65537,0.32250
3714.72665,0.31913
3712.79792,0.30279
3710.86920,0.29516
3708.94047,0.30215
3707.01174,0.30838
3705.08302,0.30418
3703.15429,0.29179
3701.22556,0.28574
3699.29684,0.29002
3697.36811,0.28851
3695.43939,0.28671
3693.51066,0.28500
3691.58193,0.27381
3689.65321,0.26107
3687.72448,0.26112
3685.79575,0.26646
3683.86703,0.26203
3681.93830,0.25535
3680.00958,0.25035
3678.08085,0.24126
3676.15212,0.22437
3674.22340,0.22943
3672.29467,0.23092
3670.36595,0.20973
3668.43722,0.20437
3666.50849,0.20606
3664.57977,0.19951
3662.65104,0.19213
3660.72231,0.18779
3658.79359,0.18178
3656.86486,0.17338
3654.93614,0.17474
3653.00741,0.17440
3651.07868,0.16005
3649.14996,0.14960
3647.22123,0.14864
3645.29250,0.15055
3643.36378,0.14690
3641.43505,0.14108
3639.50633,0.13687
3637.57760,0.13350
3635.64887,0.13061
3633.72015,0.12920
3631.79142,0.12693
3629.86270,0.11646
3627.93397,0.11222
3626.00524,0.11603
3624.07652,0.11598
3622.14779,0.11133
3620.21906,0.10526
3618.29034,0.10383
3616.36161,0.10482
3614.43289,0.10157
3612.50416,0.09841
3610.57543,0.09614
3608.64671,0.09151
3606.71798,0.08932
3604.78925,0.08895
3602.86053,0.08654
3600.93180,0.08343
3599.00308,0.08158
3597.07435,0.07936
3595.14562,0.07674
3593.21690,0.07615
3591.28817,0.07624
3589.35945,0.07318
3587.43072,0.06973
3585.50199,0.06972
3583.57327,0.06907
3581.64454,0.06648
3579.71581,0.06429
3577.78709,0.06303
3575.85836,0.06183
3573.92964,0.06093
3572.00091,0.06042
3570.07218,0.05873
3568.14346,0.05555
3566.21473,0.05422
3564.28600,0.05489
3562.35728,0.05426
3560.42855,0.05258
3558.49983,0.05134
3556.57110,0.05049
3554.64237,0.04952
3552.71365,0.04859
3550.78492,0.04850
3548.85620,0.04785
3546.92747,0.04617
3544.99874,0.04503
3543.07002,0.04470
3541.14129,0.04433
3539.21256,0.04356
3537.28384,0.04259
3535.35511,0.04218
3533.42639,0.04225
3531.49766,0.04203
3529.56893,0.04140
3527.64021,0.04074
3525.71148,0.04029
3523.78275,0.03979
3521.85403,0.03957
3519.92530,0.03936
3517.99658,0.03887
3516.06785,0.03835
3514.13912,0.03784
3512.21040,0.03744
3510.28167,0.03698
3508.35295,0.03671
3506.42422,0.03629
3504.49549,0.03529
3502.56677,0.03479
3500.63804,0.03498
3498.70931,0.03487
3496.78059,0.03434
3494.85186,0.03393
3492.92314,0.03387
3490.99441,0.03398
3489.06568,0.03384
3487.13696,0.03346
3485.20823,0.03312
3483.27950,0.03280
3481.35078,0.03278
3479.42205,0.03292
3477.49333,0.03254
3475.56460,0.03195
3473.63587,0.03184
3471.70715,0.03202
3469.77842,0.03202
3467.84970,0.03180
3465.92097,0.03149
3463.99224,0.03117
3462.06352,0.03105
3460.13479,0.03114
3458.20606,0.03100
3456.27734,0.03074
3454.34861,0.03045
3452.41989,0.03021
3450.49116,0.03019
3448.56243,0.02996
3446.63371,0.02978
3444.70498,0.03001
3442.77625,0.02985
3440.84753,0.02971
3438.91880,0.02985
3436.99008,0.03016
3435.06135,0.03033
3433.13262,0.03024
3431.20390,0.03009
3429.27517,0.02991
3427.34644,0.02966
3425.41772,0.02950
3423.48899,0.02932
3421.56027,0.02915
3419.63154,0.02962
3417.70281,0.03036
3415.77409,0.03051
3413.84536,0.03035
3411.91664,0.03025
3409.98791,0.03003
3408.05918,0.02979
3406.13046,0.02997
3404.20173,0.03026
3402.27300,0.03031
3400.34428,0.03044
3398.41555,0.03058
3396.48683,0.03067
3394.55810,0.03079
3392.62937,0.03095
3390.70065,0.03108
3388.77192,0.03072
3386.84319,0.03023
3384.91447,0.03011
3382.98574,0.03014
3381.05702,0.02992
3379.12829,0.02971
3377.19956,0.02983
3375.27084,0.03013
3373.34211,0.03033
3371.41339,0.03038
3369.48466,0.03034
3367.55593,0.03029
3365.62721,0.03041
3363.69848,0.03045
3361.76975,0.03025
3359.84103,0.03049
3357.91230,0.03108
3355.98358,0.03117
3354.05485,0.03085
3352.12612,0.03071
3350.19740,0.03074
3348.26867,0.03070
3346.33994,0.03069
3344.41122,0.03097
3342.48249,0.03126
3340.55377,0.03131
3338.62504,0.03151
3336.69631,0.03199
3334.76759,0.03236
3332.83886,0.03246
3330.91014,0.03258
3328.98141,0.03286
3327.05268,0.03317
3325.12396,0.03347
3323.19523,0.03364
3321.26650,0.03341
3319.33778,0.03310
3317.40905,0.03343
3315.48033,0.03427
3313.55160,0.03468
3311.62287,0.03452
3309.69415,0.03442
3307.76542,0.03451
3305.83669,0.03452
3303.90797,0.03490
3301.97924,0.03587
3300.05052,0.03653
3298.12179,0.03641
3296.19306,0.03595
3294.26434,0.03556
3292.33561,0.03542
3290.40689,0.03571
3288.47816,0.03621
3286.54943,0.03666
3284.62071,0.03690
3282.69198,0.03698
3280.76325,0.03723
3278.83453,0.03770
3276.90580,0.03812
3274.97708,0.03836
3273.04835,0.03861
3271.11962,0.03922
3269.19090,0.04007
3267.26217,0.04069
3265.33344,0.04094
3263.40472,0.04110
3261.47599,0.04148
3259.54727,0.04219
3257.61854,0.04291
3255.68981,0.04320
3253.76109,0.04330
3251.83236,0.04360
3249.90364,0.04386
3247.97491,0.04410
3246.04618,0.04447
3244.11746,0.04520
3242.18873,0.04599
3240.26000,0.04637
3238.33128,0.04663
3236.40255,0.04717
3234.47383,0.04772
3232.54510,0.04796
3230.61637,0.04853
3228.68765,0.04933
3226.75892,0.04970
3224.83019,0.04984
3222.90147,0.05036
3220.97274,0.05130
3219.04402,0.05230
3217.11529,0.05300
3215.18656,0.05313
3213.25784,0.05344
3211.32911,0.05413
3209.40039,0.05463
3207.47166,0.05497
3205.54293,0.05518
3203.61421,0.05543
3201.68548,0.05570
3199.75675,0.05604
3197.82803,0.05668
3195.89930,0.05769
3193.97058,0.05862
3192.04185,0.05927
3190.11312,0.05968
3188.18440,0.06008
3186.25567,0.06056
3184.32694,0.06116
3182.39822,0.06196
3180.46949,0.06261
3178.54077,0.06305
3176.61204,0.06400
3174.68331,0.06509
3172.75459,0.06568
3170.82586,0.06604
3168.89714,0.06646
3166.96841,0.06705
3165.03968,0.06781
3163.11096,0.06847
3161.18223,0.06900
3159.25350,0.06967
3157.32478,0.07035
3155.39605,0.07085
3153.46733,0.07140
3151.53860,0.07229
3149.60987,0.07319
3147.68115,0.07367
3145.75242,0.07389
3143.82369,0.07425
3141.89497,0.07471
3139.96624,0.07501
3138.03752,0.07543
3136.10879,0.07612
3134.18006,0.07654
3132.25134,0.07695
3130.32261,0.07775
3128.39389,0.07861
3126.46516,0.07943
3124.53643,0.08013
3122.60771,0.08077
3120.67898,0.08155
3118.75025,0.08205
3116.82153,0.08240
3114.89280,0.08301
3112.96408,0.08342
3111.03535,0.08331
3109.10662,0.08352
3107.17790,0.08444
3105.24917,0.08554
3103.32044,0.08619
3101.39172,0.08645
3099.46299,0.08701
3097.53427,0.08760
3095.60554,0.08802
3093.67681,0.08846
3091.74809,0.08863
3089.81936,0.08879
3087.89063,0.08915
3085.96191,0.08969
3084.03318,0.09028
3082.10446,0.09092
3080.17573,0.09154
3078.24700,0.09208
3076.31828,0.09251
3074.38955,0.09294
3072.46083,0.09350
3070.53210,0.09403
3068.60337,0.09421
3066.67465,0.09404
3064.74592,0.09399
3062.81719,0.09430
3060.88847,0.09455
3058.95974,0.09478
3057.03102,0.09518
3055.10229,0.09573
3053.17356,0.09602
3051.24484,0.09607
3049.31611,0.09644
3047.38738,0.09699
3045.45866,0.09736
3043.52993,0.09757
3041.60121,0.09767
3039.67248,0.09761
3037.74375,0.09753
3035.81503,0.09766
3033.88630,0.09785
3031.95758,0.09752
3030.02885,0.09691
3028.10012,0.09648
3026.17140,0.09623
3024.24267,0.09624
3022.31394,0.09619
3020.38522,0.09584
3018.45649,0.09524
3016.52777,0.09457
3014.59904,0.09399
3012.67031,0.09328
3010.74159,0.09227
3008.81286,0.09120
3006.88413,0.09012
3004.95541,0.08924
3003.02668,0.08868
3001.09796,0.08818
2999.16923,0.08758
2997.24050,0.08698
2995.31178,0.08632
2993.38305,0.08556
2991.45433,0.08471
2989.52560,0.08358
2987.59687,0.08227
2985.66815,0.08104
2983.73942,0.07966
2981.81069,0.07787
2979.88197,0.07598
2977.95324,0.07420
2976.02452,0.07227
2974.09579,0.07014
2972.16706,0.06816
2970.23834,0.06667
2968.30961,0.06556
2966.38088,0.06448
2964.45216,0.06330
2962.52343,0.06222
2960.59471,0.06126
2958.66598,0.06032
2956.73725,0.05938
2954.80853,0.05836
2952.87980,0.05738
2950.95108,0.05658
2949.02235,0.05581
2947.09362,0.05482
2945.16490,0.05356
2943.23617,0.05246
2941.30744,0.05186
2939.37872,0.05173
2937.44999,0.05175
2935.52127,0.05171
2933.59254,0.05160
2931.66381,0.05131
2929.73509,0.05085
2927.80636,0.05053
2925.87763,0.05049
2923.94891,0.05039
2922.02018,0.04989
2920.09146,0.04921
2918.16273,0.04872
2916.23400,0.04841
2914.30528,0.04831
2912.37655,0.04868
2910.44783,0.04959
2908.51910,0.05048
2906.59037,0.05075
2904.66165,0.05066
2902.73292,0.05080
2900.80419,0.05123
2898.87547,0.05163
2896.94674,0.05180
2895.01802,0.05204
2893.08929,0.05283
2891.16056,0.05386
2889.23184,0.05459
2887.30311,0.05509
2885.37438,0.05551
2883.44566,0.05592
2881.51693,0.05627
2879.58821,0.05629
2877.65948,0.05635
2875.73075,0.05689
2873.80203,0.05751
2871.87330,0.05807
2869.94458,0.05871
2868.01585,0.05923
2866.08712,0.05955
2864.15840,0.05984
2862.22967,0.06023
2860.30094,0.06084
2858.37222,0.06154
2856.44349,0.06182
2854.51477,0.06160
2852.58604,0.06133
2850.65731,0.06127
2848.72859,0.06191
2846.79986,0.06374
2844.87113,0.06654
2842.94241,0.06942
2841.01368,0.07162
2839.08496,0.07319
2837.15623,0.07494
2835.22750,0.07725
2833.29878,0.07952
2831.37005,0.08144
2829.44133,0.08338
2827.51260,0.08545
2825.58387,0.08729
2823.65515,0.08892
2821.72642,0.09073
2819.79769,0.09263
2817.86897,0.09436
2815.94024,0.09602
2814.01152,0.09754
2812.08279,0.09888
2810.15406,0.10027
2808.22534,0.10153
2806.29661,0.10232
2804.36788,0.10305
2802.43916,0.10410
2800.51043,0.10527
2798.58171,0.10633
2796.65298,0.10713
2794.72425,0.10772
2792.79553,0.10834
2790.86680,0.10890
2788.93808,0.10923
2787.00935,0.10953
2785.08062,0.11002
2783.15190,0.11072
2781.22317,0.11143
2779.29444,0.11183
2777.36572,0.11187
2775.43699,0.11195
2773.50827,0.11238
2771.57954,0.11296
2769.65081,0.11344
2767.72209,0.11385
2765.79336,0.11417
2763.86463,0.11435
2761.93591,0.11464
2760.00718,0.11511
2758.07846,0.11539
2756.14973,0.11541
2754.22100,0.11546
2752.29228,0.11567
2750.36355,0.11586
2748.43483,0.11589
2746.50610,0.11574
2744.57737,0.11548
2742.64865,0.11533
2740.71992,0.11539
2738.79119,0.11555
2736.86247,0.11576
2734.93374,0.11599
2733.00502,0.11618
2731.07629,0.11644
2729.14756,0.11684
2727.21884,0.11737
2725.29011,0.11810
2723.36138,0.11886
2721.43266,0.11927
2719.50393,0.11954
2717.57521,0.11998
2715.64648,0.12055
2713.71775,0.12117
2711.78903,0.12180
2709.86030,0.12235
2707.93157,0.12291
2706.00285,0.12362
2704.07412,0.12432
2702.14540,0.12496
2700.21667,0.12556
2698.28794,0.12606
2696.35922,0.12671
2694.43049,0.12761
2692.50177,0.12844
2690.57304,0.12894
2688.64431,0.12924
2686.71559,0.12965
2684.78686,0.13027
2682.85813,0.13095
2680.92941,0.13158
2679.00068,0.13204
2677.07196,0.13240
2675.14323,0.13279
2673.21450,0.13317
2671.28578,0.13349
2669.35705,0.13390
2667.42832,0.13446
2665.49960,0.13497
2663.57087,0.13530
2661.64215,0.13551
2659.71342,0.13570
2657.78469,0.13600
2655.85597,0.13628
2653.92724,0.13625
2651.99852,0.13628
2650.06979,0.13672
2648.14106,0.13714
2646.21234,0.13736
2644.28361,0.13774
2642.35488,0.13835
2640.42616,0.13903
2638.49743,0.13973
2636.56871,0.14044
2634.63998,0.14112
2632.71125,0.14170
2630.78253,0.14208
2628.85380,0.14224
2626.92507,0.14244
2624.99635,0.14283
2623.06762,0.14345
2621.13890,0.14418
2619.21017,0.14473
2617.28144,0.14512
2615.35272,0.14551
2613.42399,0.14601
2611.49527,0.14661
2609.56654,0.14707
2607.63781,0.14729
2605.70909,0.14745
2603.78036,0.14766
2601.85163,0.14789
2599.92291,0.14817
2597.99418,0.14843
2596.06546,0.14864
2594.13673,0.14899
2592.20800,0.14932
2590.27928,0.14936
2588.35055,0.14938
2586.42182,0.14979
2584.49310,0.15036
2582.56437,0.15063
2580.63565,0.15089
2578.70692,0.15146
2576.77819,0.15202
2574.84947,0.15229
2572.92074,0.15247
2570.99202,0.15262
2569.06329,0.15248
2567.13456,0.15208
2565.20584,0.15184
2563.27711,0.15203
2561.34838,0.15244
2559.41966,0.15274
2557.49093,0.15282
2555.56221,0.15278
2553.63348,0.15293
2551.70475,0.15328
2549.77603,0.15351
2547.84730,0.15357
2545.91857,0.15364
2543.98985,0.15379
2542.06112,0.15393
2540.13240,0.15404
2538.20367,0.15423
2536.27494,0.15468
2534.34622,0.15535
2532.41749,0.15597
2530.48877,0.15638
2528.56004,0.15664
2526.63131,0.15698
2524.70259,0.15752
2522.77386,0.15814
2520.84513,0.15864
2518.91641,0.15905
2516.98768,0.15944
2515.05896,0.15964
2513.13023,0.15959
2511.20150,0.15976
2509.27278,0.16049
2507.34405,0.16156
2505.41532,0.16271
2503.48660,0.16379
2501.55787,0.16457
2499.62915,0.16505
2497.70042,0.16560
2495.77169,0.16625
2493.84297,0.16670
2491.91424,0.16700
2489.98552,0.16747
2488.05679,0.16811
2486.12806,0.16879
2484.19934,0.16961
2482.27061,0.17036
2480.34188,0.17093
2478.41316,0.17145
2476.48443,0.17188
2474.55571,0.17226
2472.62698,0.17270
2470.69825,0.17311
2468.76953,0.17354
2466.84080,0.17403
2464.91207,0.17441
2462.98335,0.17470
2461.05462,0.17505
2459.12590,0.17555
2457.19717,0.17615
2455.26844,0.17674
2453.33972,0.17728
2451.41099,0.17773
2449.48227,0.17816
2447.55354,0.17883
2445.62481,0.17968
2443.69609,0.18053
2441.76736,0.18133
2439.83863,0.18201
2437.90991,0.18254
2435.98118,0.18304
2434.05246,0.18373
2432.12373,0.18453
2430.19500,0.18520
2428.26628,0.18587
2426.33755,0.18672
2424.40882,0.18761
2422.48010,0.18835
2420.55137,0.18914
2418.62265,0.19011
2416.69392,0.19104
2414.76519,0.19188
2412.83647,0.19268
2410.90774,0.19332
2408.97902,0.19401
2407.05029,0.19488
2405.12156,0.19564
2403.19284,0.19617
2401.26411,0.19671
2399.33538,0.19731
2397.40666,0.19780
2395.47793,0.19827
2393.54921,0.19885
2391.62048,0.19945
2389.69175,0.19983
2387.76303,0.19981
2385.83430,0.19937
2383.90557,0.19873
2381.97685,0.19809
2380.04812,0.19741
2378.11940,0.19672
2376.19067,0.19612
2374.26194,0.19577
2372.33322,0.19580
2370.40449,0.19605
2368.47576,0.19588
2366.54704,0.19494
2364.61831,0.19426
2362.68959,0.19521
2360.76086,0.19705
2358.83213,0.19804
2356.90341,0.19772
2354.97468,0.19657
2353.04596,0.19548
2351.11723,0.19503
2349.18850,0.19510
2347.25978,0.19542
2345.33105,0.19587
2343.40232,0.19625
2341.47360,0.19662
2339.54487,0.19713
2337.61615,0.19757
2335.68742,0.19787
2333.75869,0.19817
2331.82997,0.19863
2329.90124,0.19902
2327.97251,0.19915
2326.04379,0.19944
2324.11506,0.20012
2322.18634,0.20095
2320.25761,0.20184
2318.32888,0.20260
2316.40016,0.20290
2314.47143,0.20278
2312.54271,0.20258
2310.61398,0.20243
2308.68525,0.20223
2306.75653,0.20176
2304.82780,0.20092
2302.89907,0.19986
2300.97035,0.19889
2299.04162,0.19822
2297.11290,0.19760
2295.18417,0.19669
2293.25544,0.19558
2291.32672,0.19453
2289.39799,0.19356
2287.46926,0.19253
2285.54054,0.19158
2283.61181,0.19086
2281.68309,0.19024
2279.75436,0.18965
2277.82563,0.18922
2275.89691,0.18924
2273.96818,0.18977
2272.03946,0.19053
2270.11073,0.19129
2268.18200,0.19206
2266.25328,0.19279
2264.32455,0.19342
2262.39582,0.19404
2260.46710,0.19471
2258.53837,0.19531
2256.60965,0.19577
2254.68092,0.19613
2252.75219,0.19638
2250.82347,0.19668
2248.89474,0.19737
2246.96601,0.19821
2245.03729,0.19908
2243.10856,0.19995
2241.17984,0.20105
2239.25111,0.20212
2237.32238,0.20278
2235.39366,0.20326
2233.46493,0.20381
2231.53621,0.20437
2229.60748,0.20500
2227.67875,0.20572
2225.75003,0.20653
2223.82130,0.20738
2221.89257,0.20805
2219.96385,0.20841
2218.03512,0.20869
2216.10640,0.20922
2214.17767,0.20986
2212.24894,0.21020
2210.32022,0.21012
2208.39149,0.20995
2206.46276,0.20995
2204.53404,0.21005
2202.60531,0.20999
2200.67659,0.20971
2198.74786,0.20934
2196.81913,0.20891
2194.89041,0.20834
2192.96168,0.20769
2191.03296,0.20698
2189.10423,0.20603
2187.17550,0.20475
2185.24678,0.20333
2183.31805,0.20216
2181.38932,0.20127
2179.46060,0.20015
2177.53187,0.19869
2175.60315,0.19727
2173.67442,0.19602
2171.74569,0.19483
2169.81697,0.19377
2167.88824,0.19281
2165.95951,0.19179
2164.03079,0.19073
2162.10206,0.18967
2160.17334,0.18855
2158.24461,0.18755
2156.31588,0.18675
2154.38716,0.18615
2152.45843,0.18576
2150.52971,0.18534
2148.60098,0.18477
2146.67225,0.18429
2144.74353,0.18389
2142.81480,0.18338
2140.88607,0.18286
2138.95735,0.18239
2137.02862,0.18185
2135.09990,0.18147
2133.17117,0.18154
2131.24244,0.18192
2129.31372,0.18232
2127.38499,0.18263
2125.45626,0.18285
2123.52754,0.18298
2121.59881,0.18326
2119.67009,0.18381
2117.74136,0.18430
2115.81263,0.18462
2113.88391,0.18493
2111.95518,0.18542
2110.02646,0.18598
2108.09773,0.18635
2106.16900,0.18663
2104.24028,0.18706
2102.31155,0.18761
2100.38282,0.18814
2098.45410,0.18857
2096.52537,0.18903
2094.59665,0.18971
2092.66792,0.19028
2090.73919,0.19034
2088.81047,0.19048
2086.88174,0.19058
2084.95301,0.19041
2083.02429,0.19035
2081.09556,0.19042
2079.16684,0.19039
2077.23811,0.19000
2075.30938,0.18951
2073.38066,0.18924
2071.45193,0.18908
2069.52321,0.18911
2067.59448,0.18904
2065.66575,0.18814
2063.73703,0.18813
2061.80830,0.18844
2059.87957,0.18818
2057.95085,0.18828
2056.02212,0.18840
2054.09340,0.18833
2052.16467,0.18828
2050.23594,0.18847
2048.30722,0.18894
2046.37849,0.18964
2044.44976,0.19044
2042.52104,0.19051
2040.59231,0.19073
2038.66359,0.19173
2036.73486,0.19231
2034.80613,0.19293
2032.87741,0.19366
2030.94868,0.19444
2029.01996,0.19528
2027.09123,0.19611
2025.16250,0.19692
2023.23378,0.19792
2021.30505,0.19930
2019.37632,0.20014
2017.44760,0.20025
2015.51887,0.20214
2013.59015,0.20363
2011.66142,0.20369
2009.73269,0.20410
2007.80397,0.20466
2005.87524,0.20516
2003.94651,0.20580
2002.01779,0.20652
2000.08906,0.20686
1998.16034,0.20725
1996.23161,0.20859
1994.30288,0.20914
1992.37416,0.20798
1990.44543,0.21016
1988.51670,0.21123
1986.58798,0.21108
1984.65925,0.21140
1982.73053,0.21141
1980.80180,0.21135
1978.87307,0.21120
1976.94435,0.21097
1975.01562,0.21063
1973.08690,0.21061
1971.15817,0.21153
1969.22944,0.21140
1967.30072,0.20965
1965.37199,0.21053
1963.44326,0.21071
1961.51454,0.20926
1959.58581,0.20883
1957.65709,0.20877
1955.72836,0.20821
1953.79963,0.20824
1951.87091,0.20879
1949.94218,0.20942
1948.01345,0.21042
1946.08473,0.21191
1944.15600,0.21138
1942.22728,0.21029
1940.29855,0.21327
1938.36982,0.21351
1936.44110,0.21263
1934.51237,0.21283
1932.58365,0.21334
1930.65492,0.21386
1928.72619,0.21465
1926.79747,0.21642
1924.86874,0.21645
1922.94001,0.21596
1921.01129,0.21947
1919.08256,0.21731
1917.15384,0.21548
1915.22511,0.21812
1913.29638,0.21798
1911.36766,0.21623
1909.43893,0.21501
1907.51020,0.21578
1905.58148,0.21596
1903.65275,0.21488
1901.72403,0.21422
1899.79530,0.21450
1897.86657,0.21478
1895.93785,0.21431
1894.00912,0.21608
1892.08040,0.21750
1890.15167,0.21474
1888.22294,0.21517
1886.29422,0.21661
1884.36549,0.21532
1882.43676,0.21460
1880.50804,0.21425
1878.57931,0.21389
1876.65059,0.21412
1874.72186,0.21573
1872.79313,0.21831
1870.86441,0.21683
1868.93568,0.21287
1867.00695,0.21459
1865.07823,0.21616
1863.14950,0.21349
1861.22078,0.21056
1859.29205,0.20943
1857.36332,0.20896
1855.43460,0.20825
1853.50587,0.20742
1851.57715,0.20718
1849.64842,0.20725
1847.71969,0.20772
1845.79097,0.20481
1843.86224,0.20071
1841.93351,0.20356
1840.00479,0.20317
1838.07606,0.19831
1836.14734,0.19619
1834.21861,0.19709
1832.28988,0.19533
1830.36116,0.19030
1828.43243,0.19177
1826.50370,0.19111
1824.57498,0.18571
1822.64625,0.18384
1820.71753,0.18112
1818.78880,0.17709
1816.86007,0.17477
1814.93135,0.17419
1813.00262,0.17130
1811.07390,0.16655
1809.14517,0.16423
1807.21644,0.16258
1805.28772,0.16047
1803.35899,0.15689
1801.43026,0.15220
1799.50154,0.14963
1797.57281,0.14914
1795.64409,0.14688
1793.71536,0.14051
1791.78663,0.13440
1789.85791,0.13416
1787.92918,0.13174
1786.00045,0.12577
1784.07173,0.12134
1782.14300,0.11714
1780.21428,0.11225
1778.28555,0.10997
1776.35682,0.10738
1774.42810,0.10168
1772.49937,0.09349
1770.57065,0.08888
1768.64192,0.08349
1766.71319,0.07796
1764.78447,0.07308
1762.85574,0.06659
1760.92701,0.06196
1758.99829,0.05879
1757.06956,0.05500
1755.14084,0.05358
1753.21211,0.05220
1751.28338,0.04944
1749.35466,0.04792
1747.42593,0.04743
1745.49720,0.04691
1743.56848,0.04595
1741.63975,0.04535
1739.71103,0.04545
1737.78230,0.04742
1735.85357,0.04654
1733.92485,0.04438
1731.99612,0.04649
1730.06740,0.04755
1728.13867,0.04795
1726.20994,0.04852
1724.28122,0.04916
1722.35249,0.05119
1720.42376,0.05282
1718.49504,0.05261
1716.56631,0.05512
1714.63759,0.05813
1712.70886,0.05957
1710.78013,0.06003
1708.85141,0.06072
1706.92268,0.06148
1704.99395,0.06445
1703.06523,0.06831
1701.13650,0.06729
1699.20778,0.06887
1697.27905,0.06979
1695.35032,0.06751
1693.42160,0.06903
1691.49287,0.06859
1689.56415,0.06801
1687.63542,0.06962
1685.70669,0.06718
1683.77797,0.06432
1681.84924,0.06719
1679.92051,0.06724
1677.99179,0.06524
1676.06306,0.06219
1674.13434,0.06247
1672.20561,0.06292
1670.27688,0.05943
1668.34816,0.05866
1666.41943,0.06049
1664.49070,0.05904
1662.56198,0.05666
1660.63325,0.05737
1658.70453,0.05886
1656.77580,0.05918
1654.84707,0.05567
1652.91835,0.05439
1650.98962,0.06249
1649.06090,0.06321
1647.13217,0.05746
1645.20344,0.05750
1643.27472,0.05939
1641.34599,0.05950
1639.41726,0.05939
1637.48854,0.05715
1635.55981,0.05473
1633.63109,0.05690
1631.70236,0.05792
1629.77363,0.05636
1627.84491,0.05575
1625.91618,0.05611
1623.98745,0.05404
1622.05873,0.05377
1620.13000,0.05472
1618.20128,0.05191
1616.27255,0.04914
1614.34382,0.04996
1612.41510,0.04957
1610.48637,0.04781
1608.55764,0.04669
1606.62892,0.04625
1604.70019,0.04554
1602.77147,0.04461
1600.84274,0.04426
1598.91401,0.04409
1596.98529,0.04356
1595.05656,0.04306
1593.12784,0.04331
1591.19911,0.04425
1589.27038,0.04575
1587.34166,0.04777
1585.41293,0.05016
1583.48420,0.05309
1581.55548,0.05696
1579.62675,0.06081
1577.69803,0.06197
1575.76930,0.06418
1573.84057,0.07113
1571.91185,0.07360
1569.98312,0.07165
1568.05439,0.07426
1566.12567,0.07702
1564.19694,0.07905
1562.26822,0.08006
1560.33949,0.07249
1558.41076,0.06775
1556.48204,0.07308
1554.55331,0.07244
1552.62459,0.06971
1550.69586,0.06705
1548.76713,0.06664
1546.83841,0.06717
1544.90968,0.06651
1542.98095,0.06621
1541.05223,0.06237
1539.12350,0.06010
1537.19478,0.06316
1535.26605,0.06074
1533.33732,0.05599
1531.40860,0.05636
1529.47987,0.05585
1527.55114,0.05302
1525.62242,0.05147
1523.69369,0.04940
1521.76497,0.04563
1519.83624,0.04529
1517.90751,0.04364
1515.97879,0.04098
1514.05006,0.04063
1512.12134,0.04095
1510.19261,0.04098
1508.26388,0.03856
1506.33516,0.03742
1504.40643,0.04123
1502.47770,0.04351
1500.54898,0.04334
1498.62025,0.04330
1496.69153,0.04450
1494.76280,0.04752
1492.83407,0.04901
1490.90535,0.04742
1488.97662,0.04723
1487.04789,0.04853
1485.11917,0.04897
1483.19044,0.04777
1481.26172,0.04632
1479.33299,0.04582
1477.40426,0.04474
1475.47554,0.04275
1473.54681,0.03940
1471.61809,0.03702
1469.68936,0.03681
1467.76063,0.03556
1465.83191,0.03343
1463.90318,0.03327
1461.97445,0.03469
1460.04573,0.03444
1458.11700,0.03285
1456.18828,0.03329
1454.25955,0.03477
1452.33082,0.03477
1450.40210,0.03443
1448.47337,0.03427
1446.54464,0.03478
1444.61592,0.03510
1442.68719,0.03485
1440.75847,0.03492
1438.82974,0.03420
1436.90101,0.03256
1434.97229,0.03269
1433.04356,0.03265
1431.11484,0.03157
1429.18611,0.03126
1427.25738,0.03177
1425.32866,0.03184
1423.39993,0.03270
1421.47120,0.03402
1419.54248,0.03405
1417.61375,0.03517
1415.68503,0.03650
1413.75630,0.03655
1411.82757,0.03625
1409.89885,0.03654
1407.97012,0.03690
1406.04139,0.03651
1404.11267,0.03662
1402.18394,0.03753
1400.25522,0.03744
1398.32649,0.03731
1396.39776,0.03707
1394.46904,0.03611
1392.54031,0.03602
1390.61159,0.03566
1388.68286,0.03408
1386.75413,0.03246
1384.82541,0.03155
1382.89668,0.03053
1380.96795,0.02981
1379.03923,0.02990
1377.11050,0.03029
1375.18178,0.03000
1373.25305,0.02995
1371.32432,0.03050
1369.39560,0.03076
1367.46687,0.03139
1365.53814,0.03197
1363.60942,0.03167
1361.68069,0.03183
1359.75197,0.03263
1357.82324,0.03298
1355.89451,0.03290
1353.96579,0.03278
1352.03706,0.03270
1350.10834,0.03249
1348.17961,0.03231
1346.25088,0.03234
1344.32216,0.03261
1342.39343,0.03258
1340.46470,0.03173
1338.53598,0.03099
1336.60725,0.03064
1334.67853,0.03028
1332.74980,0.03002
1330.82107,0.03013
1328.89235,0.03049
1326.96362,0.03067
1325.03489,0.03063
1323.10617,0.03072
1321.17744,0.03100
1319.24872,0.03153
1317.31999,0.03239
1315.39126,0.03285
1313.46254,0.03277
1311.53381,0.03300
1309.60509,0.03350
1307.67636,0.03386
1305.74763,0.03420
1303.81891,0.03445
1301.89018,0.03456
1299.96145,0.03461
1298.03273,0.03465
1296.10400,0.03451
1294.17528,0.03410
1292.24655,0.03353
1290.31782,0.03290
1288.38910,0.03232
1286.46037,0.03182
1284.53164,0.03121
1282.60292,0.03057
1280.67419,0.03025
1278.74547,0.03016
1276.81674,0.02992
1274.88801,0.02956
1272.95929,0.02923
1271.03056,0.02898
1269.10183,0.02884
1267.17311,0.02880
1265.24438,0.02877
1263.31566,0.02869
1261.38693,0.02864
1259.45820,0.02877
1257.52948,0.02884
1255.60075,0.02852
1253.67203,0.02805
1251.74330,0.02772
1249.81457,0.02753
1247.88585,0.02740
1245.95712,0.02738
1244.02839,0.02753
1242.09967,0.02770
1240.17094,0.02788
1238.24222,0.02827
1236.31349,0.02873
1234.38476,0.02894
1232.45604,0.02900
1230.52731,0.02928
1228.59858,0.02985
1226.66986,0.03039
1224.74113,0.03058
1222.81241,0.03077
1220.88368,0.03119
1218.95495,0.03136
1217.02623,0.03142
1215.09750,0.03213
1213.16878,0.03320
1211.24005,0.03368
1209.31132,0.03362
1207.38260,0.03338
1205.45387,0.03304
1203.52514,0.03273
1201.59642,0.03244
1199.66769,0.03233
1197.73897,0.03279
1195.81024,0.03355
1193.88151,0.03382
1191.95279,0.03315
1190.02406,0.03189
1188.09533,0.03095
1186.16661,0.03070
1184.23788,0.03051
1182.30916,0.02971
1180.38043,0.02841
1178.45170,0.02720
1176.52298,0.02649
1174.59425,0.02593
1172.66553,0.02509
1170.73680,0.02423
1168.80807,0.02376
1166.87935,0.02365
1164.95062,0.02394
1163.02189,0.02476
1161.09317,0.02588
1159.16444,0.02690
1157.23572,0.02727
1155.30699,0.02688
1153.37826,0.02640
1151.44954,0.02613
1149.52081,0.02576
1147.59208,0.02511
1145.66336,0.02444
1143.73463,0.02404
1141.80591,0.02388
1139.87718,0.02354
1137.94845,0.02286
1136.01973,0.02231
1134.09100,0.02201
1132.16228,0.02160
1130.23355,0.02112
1128.30482,0.02112
1126.37610,0.02190
1124.44737,0.02269
1122.51864,0.02258
1120.58992,0.02233
1118.66119,0.02307
1116.73247,0.02406
1114.80374,0.02446
1112.87501,0.02470
1110.94629,0.02521
1109.01756,0.02582
1107.08883,0.02641
1105.16011,0.02691
1103.23138,0.02705
1101.30266,0.02680
1099.37393,0.02656
1097.44520,0.02647
1095.51648,0.02628
1093.58775,0.02618
1091.65903,0.02640
1089.73030,0.02667
1087.80157,0.02685
1085.87285,0.02682
1083.94412,0.02656
1082.01539,0.02644
1080.08667,0.02680
1078.15794,0.02743
1076.22922,0.02792
1074.30049,0.02830
1072.37176,0.02895
1070.44304,0.02995
1068.51431,0.03103
1066.58558,0.03214
1064.65686,0.03340
1062.72813,0.03490
1060.79941,0.03711
1058.87068,0.03958
1056.94195,0.04078
1055.01323,0.04061
1053.08450,0.04024
1051.15578,0.04019
1049.22705,0.04031
1047.29832,0.04048
1045.36960,0.04067
1043.44087,0.04099
1041.51214,0.04167
1039.58342,0.04264
1037.65469,0.04377
1035.72597,0.04501
1033.79724,0.04604
1031.86851,0.04662
1029.93979,0.04711
1028.01106,0.04811
1026.08233,0.04935
1024.15361,0.04986
1022.22488,0.04974
1020.29616,0.04990
1018.36743,0.05010
1016.43870,0.04971
1014.50998,0.04946
1012.58125,0.04997
1010.65253,0.05064
1008.72380,0.05084
1006.79507,0.05087
1004.86635,0.05122
1002.93762,0.05171
1001.00889,0.05189
999.08017,0.05165
997.15144,0.05176
995.22272,0.05275
993.29399,0.05388
991.36526,0.05447
989.43654,0.05505
987.50781,0.05609
985.57908,0.05713
983.65036,0.05784
981.72163,0.05880
979.79291,0.06051
977.86418,0.06243
975.93545,0.06363
974.00673,0.06435
972.07800,0.06537
970.14928,0.06639
968.22055,0.06689
966.29182,0.06741
964.36310,0.06841
962.43437,0.06959
960.50564,0.07100
958.57692,0.07294
956.64819,0.07503
954.71947,0.07699
952.79074,0.07879
950.86201,0.07988
948.93329,0.08005
947.00456,0.08009
945.07583,0.08043
943.14711,0.08093
941.21838,0.08143
939.28966,0.08160
937.36093,0.08110
935.43220,0.08009
933.50348,0.07953
931.57475,0.08015
929.64603,0.08115
927.71730,0.08128
925.78857,0.08055
923.85985,0.07988
921.93112,0.07956
920.00239,0.07907
918.07367,0.07801
916.14494,0.07697
914.21622,0.07655
912.28749,0.07592
910.35876,0.07457
908.43004,0.07333
906.50131,0.07233
904.57258,0.07098
902.64386,0.06931
900.71513,0.06790
898.78641,0.06715
896.85768,0.06689
894.92895,0.06714
893.00023,0.06847
891.07150,0.07087
889.14277,0.07314
887.21405,0.07445
885.28532,0.07524
883.35660,0.07614
881.42787,0.07703
879.49914,0.07739
877.57042,0.07729
875.64169,0.07705
873.71297,0.07660
871.78424,0.07647
869.85551,0.07738
867.92679,0.07901
865.99806,0.08037
864.06933,0.08051
862.14061,0.07956
860.21188,0.07843
858.28316,0.07764
856.35443,0.07745
854.42570,0.07789
852.49698,0.07838
850.56825,0.07841
848.63952,0.07776
846.71080,0.07675
844.78207,0.07608
842.85335,0.07570
840.92462,0.07496
838.99589,0.07382
837.06717,0.07275
835.13844,0.07221
833.20972,0.07243
831.28099,0.07333
829.35226,0.07426
827.42354,0.07419
825.49481,0.07297
823.56608,0.07154
821.63736,0.07076
819.70863,0.07090
817.77991,0.07118
815.85118,0.07080
813.92245,0.07046
811.99373,0.07081
810.06500,0.07136
808.13627,0.07179
806.20755,0.07193
804.27882,0.07160
802.35010,0.07132
800.42137,0.07154
798.49264,0.07210
796.56392,0.07247
794.63519,0.07220
792.70647,0.07156
790.77774,0.07084
788.84901,0.07002
786.92029,0.06949
784.99156,0.06957
783.06283,0.07013
781.13411,0.07065
779.20538,0.07035
777.27666,0.06909
775.34793,0.06777
773.41920,0.06679
771.49048,0.06526
769.56175,0.06336
767.63302,0.06252
765.70430,0.06276
763.77557,0.06314
761.84685,0.06291
759.91812,0.06220
757.98939,0.06171
756.06067,0.06086
754.13194,0.05955
752.20322,0.05885
750.27449,0.05829
748.34576,0.05728
746.41704,0.05671
744.48831,0.05670
742.55958,0.05650
740.63086,0.05640
738.70213,0.05662
736.77341,0.05604
734.84468,0.05433
732.91595,0.05273
730.98723,0.05198
729.05850,0.05177
727.12977,0.05144
725.20105,0.05047
723.27232,0.04908
721.34360,0.04768
719.41487,0.04668
717.48614,0.04630
715.55742,0.04625
713.62869,0.04587
711.69997,0.04518
709.77124,0.04473
707.84251,0.04458
705.91379,0.04455
703.98506,0.04483
702.05633,0.04542
700.12761,0.04596
698.19888,0.04635
696.27016,0.04681
694.34143,0.04725
692.41270,0.04727
690.48398,0.04682
688.55525,0.04617
686.62652,0.04537
684.69780,0.04430
682.76907,0.04307
680.84035,0.04166
678.91162,0.04000
676.98289,0.03826
675.05417,0.03660
673.12544,0.03527
671.19672,0.03516
669.26799,0.03679
667.33926,0.03868
665.41054,0.03923
663.48181,0.03922
661.55308,0.03932
659.62436,0.03943
657.69563,0.03956
655.76691,0.03962
653.83818,0.03913
651.90945,0.03813
649.98073,0.03787
648.05200,0.03907
646.12327,0.04041
644.19455,0.04041
642.26582,0.03927
640.33710,0.03771
638.40837,0.03628
636.47964,0.03549
634.55092,0.03528
632.62219,0.03515
630.69347,0.03469
628.76474,0.03404
626.83601,0.03374
624.90729,0.03411
622.97856,0.03439
621.04983,0.03457
619.12111,0.03598
617.19238,0.03818
615.26366,0.03981
613.33493,0.04036
611.40620,0.03990
609.47748,0.03874
607.54875,0.03744
605.62002,0.03735
603.69130,0.03889
601.76257,0.04020
599.83385,0.04083
597.90512,0.04232
595.97639,0.04374
594.04767,0.04336
592.11894,0.04184
590.19022,0.04110
588.26149,0.04101
586.33276,0.04137
584.40404,0.04225
582.47531,0.04276
580.54658,0.04224
578.61786,0.04123
576.68913,0.04025
574.76041,0.04018
572.83168,0.04010
570.90295,0.04001
568.97423,0.04010
567.04550,0.03929
565.11677,0.03825
563.18805,0.03885
561.25932,0.04089
559.33060,0.04204
557.40187,0.04117
555.47314,0.03990
553.54442,0.03981
551.61569,0.03975
549.68697,0.03875
547.75824,0.03842
545.82951,0.03963
543.90079,0.04035
541.97206,0.03922
540.04333,0.03835
538.11461,0.03836
536.18588,0.03812
534.25716,0.03839
532.32843,0.03955
530.39970,0.04060
528.47098,0.04096
526.54225,0.04026
524.61352,0.03933
522.68480,0.03903
520.75607,0.03903
518.82735,0.03864
516.89862,0.03909
514.96989,0.04140
513.04117,0.04294
511.11244,0.04228
509.18371,0.04107
507.25499,0.04108
505.32626,0.04253
503.39754,0.04378
501.46881,0.04551
499.54008,0.04767
497.61136,0.04887
495.68263,0.04909
493.75391,0.04773
491.82518,0.04602
489.89645,0.04621
487.96773,0.04698
486.03900,0.04570
484.11027,0.04320
482.18155,0.04192
480.25282,0.04175
478.32410,0.04290
476.39537,0.04472
474.46664,0.04388
472.53792,0.04099
470.60919,0.03944
468.68046,0.03794
466.75174,0.03757
464.82301,0.04086
462.89429,0.04596
460.96556,0.04706
459.03683,0.04149
457.10811,0.03599
455.17938,0.03634
453.25066,0.04084
451.32193,0.04608
449.39320,0.04820
447.46448,0.04718
445.53575,0.04706
443.60702,0.04852
441.67830,0.04896
439.74957,0.04678
437.82085,0.04289
435.89212,0.03965
433.96339,0.03758
432.03467,0.03698
430.10594,0.03957
428.17721,0.04386
426.24849,0.04645
424.31976,0.04777
422.39104,0.04852
420.46231,0.04714
418.53358,0.04572
416.60486,0.04198
414.67613,0.03289
412.74741,0.02750
410.81868,0.02924
408.88995,0.03262
406.96123,0.03374
405.03250,0.03677
403.10377,0.04448
401.17505,0.05624
399.24632,0.07216
