5996.40973,0.57977
5994.48101,0.58217
5992.55228,0.58563
5990.62356,0.58685
5988.69483,0.58543
5986.76610,0.58306
5984.83738,0.58165
5982.90865,0.58223
5980.97992,0.58218
5979.05120,0.57957
5977.12247,0.57663
5975.19375,0.57383
5973.26502,0.57105
5971.33629,0.56948
5969.40757,0.56841
5967.47884,0.56807
5965.55011,0.56914
5963.62139,0.57003
5961.69266,0.57100
5959.76394,0.57231
5957.83521,0.57126
5955.90648,0.56942
5953.97776,0.57121
5952.04903,0.57518
5950.12031,0.57591
5948.19158,0.57228
5946.26285,0.56927
5944.33413,0.57142
5942.40540,0.57705
5940.47667,0.57950
5938.54795,0.57529
5936.61922,0.56924
5934.69050,0.56754
5932.76177,0.57010
5930.83304,0.57325
5928.90432,0.57508
5926.97559,0.57476
5925.04686,0.57364
5923.11814,0.57453
5921.18941,0.57526
5919.26069,0.57278
5917.33196,0.56880
5915.40323,0.56532
5913.47451,0.56341
5911.54578,0.56407
5909.61706,0.56626
5907.68833,0.56762
5905.75960,0.56823
5903.83088,0.56936
5901.90215,0.56816
5899.97342,0.56262
5898.04470,0.55853
5896.11597,0.56024
5894.18725,0.56305
5892.25852,0.56298
5890.32979,0.56386
5888.40107,0.56641
5886.47234,0.56624
5884.54361,0.56500
5882.61489,0.56490
5880.68616,0.56391
5878.75744,0.56333
5876.82871,0.56454
5874.89998,0.56485
5872.97126,0.56314
5871.04253,0.56279
5869.11381,0.56601
5867.18508,0.56746
5865.25635,0.56391
5863.32763,0.56267
5861.39890,0.56665
5859.47017,0.56819
5857.54145,0.56441
5855.61272,0.55950
5853.68400,0.55673
5851.75527,0.55689
5849.82654,0.55963
5847.89782,0.56509
5845.96909,0.56952
5844.04036,0.56804
5842.11164,0.56447
5840.18291,0.56294
5838.25419,0.56025
5836.32546,0.55720
5834.39673,0.55791
5832.46801,0.55938
5830.53928,0.55998
5828.61056,0.56225
5826.68183,0.56379
5824.75310,0.56303
5822.82438,0.56214
5820.89565,0.56071
5818.96692,0.55673
5817.03820,0.55170
5815.10947,0.55062
5813.18075,0.55374
5811.25202,0.55701
5809.32329,0.55885
5807.39457,0.55778
5805.46584,0.55458
5803.53711,0.55492
5801.60839,0.56003
5799.67966,0.56382
5797.75094,0.56298
5795.82221,0.56015
5793.89348,0.55685
5791.96476,0.55237
5790.03603,0.55031
5788.10731,0.55382
5786.17858,0.55731
5784.24985,0.55689
5782.32113,0.55491
5780.39240,0.55160
5778.46367,0.55002
5776.53495,0.55533
5774.60622,0.56309
5772.67750,0.56512
5770.74877,0.56238
5768.82004,0.56050
5766.89132,0.55962
5764.96259,0.55775
5763.03386,0.55657
5761.10514,0.55726
5759.17641,0.55932
5757.24769,0.56258
5755.31896,0.56434
5753.39023,0.56312
5751.46151,0.56256
5749.53278,0.56422
5747.60406,0.56633
5745.67533,0.56925
5743.74660,0.57232
5741.81788,0.57290
5739.88915,0.57107
5737.96042,0.56745
5736.03170,0.56267
5734.10297,0.56032
5732.17425,0.56318
5730.24552,0.56764
5728.31679,0.56775
5726.38807,0.56541
5724.45934,0.56608
5722.53061,0.56811
5720.60189,0.56829
5718.67316,0.56774
5716.74444,0.56801
5714.81571,0.56860
5712.88698,0.56879
5710.95826,0.57001
5709.02953,0.57206
5707.10081,0.57030
5705.17208,0.56403
5703.24335,0.56061
5701.31463,0.56252
5699.38590,0.56349
5697.45717,0.56190
5695.52845,0.56081
5693.59972,0.56004
5691.67100,0.55941
5689.74227,0.56084
5687.81354,0.56428
5685.88482,0.56703
5683.95609,0.56780
5682.02736,0.56601
5680.09864,0.56330
5678.16991,0.56433
5676.24119,0.56711
5674.31246,0.56683
5672.38373,0.56545
5670.45501,0.56536
5668.52628,0.56576
5666.59756,0.56580
5664.66883,0.56555
5662.74010,0.56491
5660.81138,0.56200
5658.88265,0.55810
5656.95392,0.55769
5655.02520,0.56044
5653.09647,0.56272
5651.16775,0.56171
5649.23902,0.55802
5647.31029,0.55774
5645.38157,0.56188
5643.45284,0.56402
5641.52411,0.56300
5639.59539,0.56287
5637.66666,0.56491
5635.73794,0.56752
5633.80921,0.56886
5631.88048,0.56815
5629.95176,0.56686
5628.02303,0.56780
5626.09430,0.57052
5624.16558,0.57171
5622.23685,0.57041
5620.30813,0.56783
5618.37940,0.56586
5616.45067,0.56634
5614.52195,0.56659
5612.59322,0.56380
5610.66450,0.56102
5608.73577,0.56048
5606.80704,0.56367
5604.87832,0.57038
5602.94959,0.57385
5601.02086,0.57128
5599.09214,0.56771
5597.16341,0.56675
5595.23469,0.56865
5593.30596,0.57146
5591.37723,0.57342
5589.44851,0.57404
5587.51978,0.57257
5585.59105,0.56913
5583.66233,0.56742
5581.73360,0.56990
5579.80488,0.57252
5577.87615,0.57085
5575.94742,0.56742
5574.01870,0.56779
5572.08997,0.57271
5570.16125,0.57696
5568.23252,0.57665
5566.30379,0.57408
5564.37507,0.57279
5562.44634,0.57418
5560.51761,0.57755
5558.58889,0.57987
5556.66016,0.58025
5554.73144,0.58052
5552.80271,0.58003
5550.87398,0.57736
5548.94526,0.57415
5547.01653,0.57248
5545.08780,0.57160
5543.15908,0.57142
5541.23035,0.57560
5539.30163,0.58408
5537.37290,0.58935
5535.44417,0.58707
5533.51545,0.58150
5531.58672,0.57738
5529.65800,0.57485
5527.72927,0.57179
5525.80054,0.56894
5523.87182,0.56968
5521.94309,0.57419
5520.01436,0.57974
5518.08564,0.58371
5516.15691,0.58355
5514.22819,0.57923
5512.29946,0.57412
5510.37073,0.57188
5508.44201,0.57346
5506.51328,0.57557
5504.58455,0.57574
5502.65583,0.57561
5500.72710,0.57710
5498.79838,0.57953
5496.86965,0.57948
5494.94092,0.57613
5493.01220,0.57369
5491.08347,0.57467
5489.15475,0.57763
5487.22602,0.58051
5485.29729,0.58147
5483.36857,0.58028
5481.43984,0.57945
5479.51111,0.58032
5477.58239,0.58104
5475.65366,0.58038
5473.72494,0.58012
5471.79621,0.58204
5469.86748,0.58451
5467.93876,0.58439
5466.01003,0.58125
5464.08130,0.57822
5462.15258,0.57836
5460.22385,0.58092
5458.29513,0.58453
5456.36640,0.58894
5454.43767,0.59187
5452.50895,0.59319
5450.58022,0.59521
5448.65150,0.59561
5446.72277,0.59283
5444.79404,0.59112
5442.86532,0.59310
5440.93659,0.59560
5439.00786,0.59494
5437.07914,0.59272
5435.15041,0.59243
5433.22169,0.59453
5431.29296,0.59660
5429.36423,0.59638
5427.43551,0.59497
5425.50678,0.59563
5423.57805,0.59857
5421.64933,0.60085
5419.72060,0.59902
5417.79188,0.59261
5415.86315,0.58662
5413.93442,0.58524
5412.00570,0.58731
5410.07697,0.59077
5408.14825,0.59354
5406.21952,0.59372
5404.29079,0.59237
5402.36207,0.59201
5400.43334,0.59448
5398.50461,0.59928
5396.57589,0.60320
5394.64716,0.60481
5392.71844,0.60546
5390.78971,0.60516
5388.86098,0.60327
5386.93226,0.60060
5385.00353,0.59907
5383.07480,0.60011
5381.14608,0.60193
5379.21735,0.60103
5377.28863,0.59826
5375.35990,0.59739
5373.43117,0.59884
5371.50245,0.59974
5369.57372,0.59934
5367.64500,0.59905
5365.71627,0.59908
5363.78754,0.59940
5361.85882,0.60085
5359.93009,0.60208
5358.00136,0.59989
5356.07264,0.59440
5354.14391,0.58955
5352.21519,0.58848
5350.28646,0.59052
5348.35773,0.59232
5346.42901,0.59241
5344.50028,0.59231
5342.57155,0.59232
5340.64283,0.59215
5338.71410,0.59241
5336.78538,0.59316
5334.85665,0.59309
5332.92792,0.59224
5330.99920,0.59349
5329.07047,0.59813
5327.14175,0.60260
5325.21302,0.60267
5323.28429,0.59824
5321.35557,0.59285
5319.42684,0.59019
5317.49811,0.59039
5315.56939,0.59152
5313.64066,0.59224
5311.71194,0.59144
5309.78321,0.58870
5307.85448,0.58592
5305.92576,0.58553
5303.99703,0.58633
5302.06830,0.58564
5300.13958,0.58411
5298.21085,0.58256
5296.28213,0.58037
5294.35340,0.57780
5292.42467,0.57473
5290.49595,0.57156
5288.56722,0.57006
5286.63849,0.56978
5284.70977,0.56758
5282.78104,0.56294
5280.85232,0.55867
5278.92359,0.55635
5276.99486,0.55581
5275.06614,0.55576
5273.13741,0.55416
5271.20869,0.54973
5269.27996,0.54308
5267.35123,0.53613
5265.42251,0.53012
5263.49378,0.52543
5261.56505,0.52344
5259.63633,0.52381
5257.70760,0.52336
5255.77888,0.52098
5253.85015,0.51770
5251.92142,0.51385
5249.99270,0.50949
5248.06397,0.50578
5246.13524,0.50392
5244.20652,0.50295
5242.27779,0.50146
5240.34907,0.49995
5238.42034,0.49823
5236.49161,0.49520
5234.56289,0.49182
5232.63416,0.48941
5230.70544,0.48745
5228.77671,0.48585
5226.84798,0.48589
5224.91926,0.48650
5222.99053,0.48592
5221.06180,0.48561
5219.13308,0.48661
5217.20435,0.48747
5215.27563,0.48677
5213.34690,0.48531
5211.41817,0.48526
5209.48945,0.48675
5207.56072,0.48696
5205.63199,0.48446
5203.70327,0.48148
5201.77454,0.47991
5199.84582,0.47954
5197.91709,0.48031
5195.98836,0.48215
5194.05964,0.48404
5192.13091,0.48508
5190.20219,0.48566
5188.27346,0.48579
5186.34473,0.48478
5184.41601,0.48373
5182.48728,0.48406
5180.55855,0.48466
5178.62983,0.48425
5176.70110,0.48402
5174.77238,0.48474
5172.84365,0.48594
5170.91492,0.48787
5168.98620,0.49014
5167.05747,0.49124
5165.12874,0.49184
5163.20002,0.49358
5161.27129,0.49537
5159.34257,0.49521
5157.41384,0.49285
5155.48511,0.48989
5153.55639,0.48906
5151.62766,0.49155
5149.69894,0.49623
5147.77021,0.50061
5145.84148,0.50191
5143.91276,0.50089
5141.98403,0.50114
5140.05530,0.50341
5138.12658,0.50597
5136.19785,0.50780
5134.26913,0.50820
5132.34040,0.50740
5130.41167,0.50803
5128.48295,0.51115
5126.55422,0.51381
5124.62549,0.51318
5122.69677,0.51002
5120.76804,0.50748
5118.83932,0.50710
5116.91059,0.50824
5114.98186,0.50986
5113.05314,0.51196
5111.12441,0.51538
5109.19569,0.51916
5107.26696,0.52143
5105.33823,0.52217
5103.40951,0.52171
5101.48078,0.52018
5099.55205,0.51836
5097.62333,0.51679
5095.69460,0.51656
5093.76588,0.51821
5091.83715,0.51984
5089.90842,0.52084
5087.97970,0.52256
5086.05097,0.52450
5084.12224,0.52525
5082.19352,0.52481
5080.26479,0.52399
5078.33607,0.52423
5076.40734,0.52719
5074.47861,0.53104
5072.54989,0.53169
5070.62116,0.52939
5068.69244,0.52840
5066.76371,0.53018
5064.83498,0.53150
5062.90626,0.53027
5060.97753,0.52776
5059.04880,0.52604
5057.12008,0.52668
5055.19135,0.52970
5053.26263,0.53339
5051.33390,0.53544
5049.40517,0.53572
5047.47645,0.53603
5045.54772,0.53630
5043.61899,0.53522
5041.69027,0.53279
5039.76154,0.53151
5037.83282,0.53399
5035.90409,0.53803
5033.97536,0.53882
5032.04664,0.53655
5030.11791,0.53475
5028.18919,0.53462
5026.26046,0.53639
5024.33173,0.53868
5022.40301,0.53785
5020.47428,0.53449
5018.54555,0.53265
5016.61683,0.53218
5014.68810,0.53067
5012.75938,0.52901
5010.83065,0.52884
5008.90192,0.52979
5006.97320,0.53071
5005.04447,0.53080
5003.11574,0.53041
5001.18702,0.52929
4999.25829,0.52661
4997.32957,0.52384
4995.40084,0.52278
4993.47211,0.52291
4991.54339,0.52396
4989.61466,0.52469
4987.68594,0.52346
4985.75721,0.52182
4983.82848,0.52018
4981.89976,0.51781
4979.97103,0.51645
4978.04230,0.51537
4976.11358,0.51277
4974.18485,0.50998
4972.25613,0.50849
4970.32740,0.50833
4968.39867,0.50791
4966.46995,0.50623
4964.54122,0.50422
4962.61249,0.50171
4960.68377,0.49885
4958.75504,0.49749
4956.82632,0.49690
4954.89759,0.49439
4952.96886,0.49073
4951.04014,0.48839
4949.11141,0.48692
4947.18269,0.48492
4945.25396,0.48285
4943.32523,0.48115
4941.39651,0.47936
4939.46778,0.47753
4937.53905,0.47562
4935.61033,0.47292
4933.68160,0.46908
4931.75288,0.46522
4929.82415,0.46233
4927.89542,0.46023
4925.96670,0.45886
4924.03797,0.45707
4922.10924,0.45419
4920.18052,0.45165
4918.25179,0.44941
4916.32307,0.44694
4914.39434,0.44519
4912.46561,0.44426
4910.53689,0.44312
4908.60816,0.44180
4906.67943,0.44082
4904.75071,0.43977
4902.82198,0.43852
4900.89326,0.43723
4898.96453,0.43534
4897.03580,0.43256
4895.10708,0.43032
4893.17835,0.42948
4891.24963,0.42797
4889.32090,0.42545
4887.39217,0.42400
4885.46345,0.42326
4883.53472,0.42174
4881.60599,0.41872
4879.67727,0.41524
4877.74854,0.41369
4875.81982,0.41346
4873.89109,0.41231
4871.96236,0.41088
4870.03364,0.41036
4868.10491,0.40997
4866.17618,0.40898
4864.24746,0.40731
4862.31873,0.40534
4860.39001,0.40366
4858.46128,0.40182
4856.53255,0.39982
4854.60383,0.39878
4852.67510,0.39854
4850.74638,0.39845
4848.81765,0.39822
4846.88892,0.39705
4844.96020,0.39496
4843.03147,0.39324
4841.10274,0.39251
4839.17402,0.39203
4837.24529,0.39132
4835.31657,0.39093
4833.38784,0.39007
4831.45911,0.38750
4829.53039,0.38477
4827.60166,0.38323
4825.67293,0.38202
4823.74421,0.38108
4821.81548,0.38023
4819.88676,0.37885
4817.95803,0.37807
4816.02930,0.37814
4814.10058,0.37753
4812.17185,0.37658
4810.24313,0.37657
4808.31440,0.37712
4806.38567,0.37663
4804.45695,0.37453
4802.52822,0.37278
4800.59949,0.37300
4798.67077,0.37415
4796.74204,0.37441
4794.81332,0.37337
4792.88459,0.37237
4790.95586,0.37298
4789.02714,0.37443
4787.09841,0.37452
4785.16968,0.37315
4783.24096,0.37163
4781.31223,0.37065
4779.38351,0.37000
4777.45478,0.36911
4775.52605,0.36796
4773.59733,0.36692
4771.66860,0.36600
4769.73988,0.36579
4767.81115,0.36691
4765.88242,0.36827
4763.95370,0.36817
4762.02497,0.36633
4760.09624,0.36463
4758.16752,0.36443
4756.23879,0.36407
4754.31007,0.36335
4752.38134,0.36437
4750.45261,0.36594
4748.52389,0.36577
4746.59516,0.36469
4744.66643,0.36402
4742.73771,0.36431
4740.80898,0.36562
4738.88026,0.36694
4736.95153,0.36782
4735.02280,0.36808
4733.09408,0.36775
4731.16535,0.36821
4729.23663,0.36937
4727.30790,0.36934
4725.37917,0.36808
4723.45045,0.36726
4721.52172,0.36770
4719.59299,0.36836
4717.66427,0.36826
4715.73554,0.36833
4713.80682,0.36949
4711.87809,0.37090
4709.94936,0.37115
4708.02064,0.37061
4706.09191,0.37059
4704.16318,0.37053
4702.23446,0.37030
4700.30573,0.37121
4698.37701,0.37290
4696.44828,0.37454
4694.51955,0.37535
4692.59083,0.37477
4690.66210,0.37464
4688.73338,0.37532
4686.80465,0.37493
4684.87592,0.37432
4682.94720,0.37521
4681.01847,0.37650
4679.08974,0.37703
4677.16102,0.37765
4675.23229,0.37819
4673.30357,0.37733
4671.37484,0.37589
4669.44611,0.37549
4667.51739,0.37641
4665.58866,0.37798
4663.65993,0.37931
4661.73121,0.38026
4659.80248,0.38108
4657.87376,0.38181
4655.94503,0.38260
4654.01630,0.38358
4652.08758,0.38461
4650.15885,0.38503
4648.23013,0.38466
4646.30140,0.38449
4644.37267,0.38539
4642.44395,0.38740
4640.51522,0.38952
4638.58649,0.38985
4636.65777,0.38867
4634.72904,0.38860
4632.80032,0.39013
4630.87159,0.39153
4628.94286,0.39201
4627.01414,0.39151
4625.08541,0.39093
4623.15668,0.39126
4621.22796,0.39191
4619.29923,0.39307
4617.37051,0.39535
4615.44178,0.39719
4613.51305,0.39805
4611.58433,0.39911
4609.65560,0.39992
4607.72688,0.40028
4605.79815,0.40122
4603.86942,0.40238
4601.94070,0.40328
4600.01197,0.40455
4598.08324,0.40587
4596.15452,0.40650
4594.22579,0.40740
4592.29707,0.40908
4590.36834,0.40978
4588.43961,0.40938
4586.51089,0.40926
4584.58216,0.40920
4582.65343,0.40973
4580.72471,0.41146
4578.79598,0.41243
4576.86726,0.41193
4574.93853,0.41191
4573.00980,0.41316
4571.08108,0.41457
4569.15235,0.41531
4567.22363,0.41544
4565.29490,0.41588
4563.36617,0.41690
4561.43745,0.41742
4559.50872,0.41779
4557.57999,0.41906
4555.65127,0.42009
4553.72254,0.42027
4551.79382,0.42073
4549.86509,0.42147
4547.93636,0.42180
4546.00764,0.42210
4544.07891,0.42293
4542.15018,0.42438
4540.22146,0.42568
4538.29273,0.42566
4536.36401,0.42465
4534.43528,0.42462
4532.50655,0.42653
4530.57783,0.42868
4528.64910,0.42863
4526.72037,0.42657
4524.79165,0.42492
4522.86292,0.42471
4520.93420,0.42475
4519.00547,0.42441
4517.07674,0.42423
4515.14802,0.42432
4513.21929,0.42435
4511.29057,0.42396
4509.36184,0.42373
4507.43311,0.42441
4505.50439,0.42475
4503.57566,0.42408
4501.64693,0.42375
4499.71821,0.42356
4497.78948,0.42192
4495.86076,0.41935
4493.93203,0.41772
4492.00330,0.41727
4490.07458,0.41690
4488.14585,0.41587
4486.21712,0.41417
4484.28840,0.41214
4482.35967,0.40992
4480.43095,0.40780
4478.50222,0.40614
4476.57349,0.40443
4474.64477,0.40225
4472.71604,0.40011
4470.78732,0.39834
4468.85859,0.39633
4466.92986,0.39296
4465.00114,0.38853
4463.07241,0.38461
4461.14368,0.38188
4459.21496,0.37997
4457.28623,0.37827
4455.35751,0.37611
4453.42878,0.37327
4451.50005,0.37049
4449.57133,0.36818
4447.64260,0.36557
4445.71387,0.36256
4443.78515,0.36011
4441.85642,0.35843
4439.92770,0.35671
4437.99897,0.35434
4436.07024,0.35163
4434.14152,0.34955
4432.21279,0.34819
4430.28407,0.34647
4428.35534,0.34389
4426.42661,0.34134
4424.49789,0.33931
4422.56916,0.33731
4420.64043,0.33506
4418.71171,0.33305
4416.78298,0.33183
4414.85426,0.33092
4412.92553,0.32919
4410.99680,0.32682
4409.06808,0.32535
4407.13935,0.32515
4405.21062,0.32467
4403.28190,0.32338
4401.35317,0.32241
4399.42445,0.32213
4397.49572,0.32207
4395.56699,0.32218
4393.63827,0.32264
4391.70954,0.32295
4389.78082,0.32284
4387.85209,0.32309
4385.92336,0.32377
4383.99464,0.32431
4382.06591,0.32531
4380.13718,0.32659
4378.20846,0.32698
4376.27973,0.32709
4374.35101,0.32820
4372.42228,0.33034
4370.49355,0.33244
4368.56483,0.33344
4366.63610,0.33379
4364.70737,0.33414
4362.77865,0.33403
4360.84992,0.33334
4358.92120,0.33278
4356.99247,0.33277
4355.06374,0.33316
4353.13502,0.33368
4351.20629,0.33329
4349.27757,0.33139
4347.34884,0.32957
4345.42011,0.32889
4343.49139,0.32822
4341.56266,0.32703
4339.63393,0.32606
4337.70521,0.32563
4335.77648,0.32535
4333.84776,0.32528
4331.91903,0.32553
4329.99030,0.32528
4328.06158,0.32402
4326.13285,0.32243
4324.20412,0.32117
4322.27540,0.32064
4320.34667,0.32071
4318.41795,0.32058
4316.48922,0.32036
4314.56049,0.32049
4312.63177,0.32024
4310.70304,0.31928
4308.77432,0.31835
4306.84559,0.31795
4304.91686,0.31785
4302.98814,0.31764
4301.05941,0.31727
4299.13068,0.31644
4297.20196,0.31505
4295.27323,0.31415
4293.34451,0.31418
4291.41578,0.31439
4289.48705,0.31440
4287.55833,0.31425
4285.62960,0.31407
4283.70087,0.31382
4281.77215,0.31327
4279.84342,0.31253
4277.91470,0.31191
4275.98597,0.31136
4274.05724,0.31106
4272.12852,0.31157
4270.19979,0.31260
4268.27107,0.31326
4266.34234,0.31340
4264.41361,0.31297
4262.48489,0.31209
4260.55616,0.31180
4258.62743,0.31259
4256.69871,0.31377
4254.76998,0.31432
4252.84126,0.31411
4250.91253,0.31429
4248.98380,0.31534
4247.05508,0.31610
4245.12635,0.31618
4243.19762,0.31656
4241.26890,0.31711
4239.34017,0.31722
4237.41145,0.31777
4235.48272,0.31896
4233.55399,0.31966
4231.62527,0.31932
4229.69654,0.31867
4227.76782,0.31852
4225.83909,0.31880
4223.91036,0.31930
4221.98164,0.31998
4220.05291,0.32042
4218.12418,0.32045
4216.19546,0.32060
4214.26673,0.32124
4212.33801,0.32190
4210.40928,0.32231
4208.48055,0.32263
4206.55183,0.32269
4204.62310,0.32252
4202.69437,0.32262
4200.76565,0.32316
4198.83692,0.32378
4196.90820,0.32405
4194.97947,0.32394
4193.05074,0.32378
4191.12202,0.32373
4189.19329,0.32367
4187.26456,0.32351
4185.33584,0.32372
4183.40711,0.32476
4181.47839,0.32601
4179.54966,0.32647
4177.62093,0.32609
4175.69221,0.32573
4173.76348,0.32632
4171.83476,0.32756
4169.90603,0.32840
4167.97730,0.32848
4166.04858,0.32836
4164.11985,0.32871
4162.19112,0.32931
4160.26240,0.32936
4158.33367,0.32891
4156.40495,0.32862
4154.47622,0.32865
4152.54749,0.32879
4150.61877,0.32881
4148.69004,0.32824
4146.76131,0.32716
4144.83259,0.32657
4142.90386,0.32619
4140.97514,0.32504
4139.04641,0.32387
4137.11768,0.32354
4135.18896,0.32305
4133.26023,0.32187
4131.33151,0.32092
4129.40278,0.32060
4127.47405,0.32018
4125.54533,0.31898
4123.61660,0.31707
4121.68787,0.31497
4119.75915,0.31357
4117.83042,0.31320
4115.90170,0.31290
4113.97297,0.31176
4112.04424,0.31012
4110.11552,0.30846
4108.18679,0.30674
4106.25806,0.30491
4104.32934,0.30334
4102.40061,0.30203
4100.47189,0.30053
4098.54316,0.29892
4096.61443,0.29744
4094.68571,0.29582
4092.75698,0.29386
4090.82826,0.29205
4088.89953,0.29077
4086.97080,0.28950
4085.04208,0.28766
4083.11335,0.28543
4081.18462,0.28328
4079.25590,0.28181
4077.32717,0.28123
4075.39845,0.28050
4073.46972,0.27892
4071.54099,0.27704
4069.61227,0.27515
4067.68354,0.27301
4065.75481,0.27078
4063.82609,0.26879
4061.89736,0.26696
4059.96864,0.26544
4058.03991,0.26443
4056.11118,0.26315
4054.18246,0.26103
4052.25373,0.25891
4050.32501,0.25770
4048.39628,0.25701
4046.46755,0.25627
4044.53883,0.25529
4042.61010,0.25379
4040.68137,0.25201
4038.75265,0.25052
4036.82392,0.24951
4034.89520,0.24900
4032.96647,0.24848
4031.03774,0.24740
4029.10902,0.24635
4027.18029,0.24608
4025.25156,0.24615
4023.32284,0.24605
4021.39411,0.24592
4019.46539,0.24567
4017.53666,0.24530
4015.60793,0.24514
4013.67921,0.24514
4011.75048,0.24521
4009.82176,0.24551
4007.89303,0.24580
4005.96430,0.24577
4004.03558,0.24542
4002.10685,0.24513
4000.17812,0.24574
3998.24940,0.24724
3996.32067,0.24880
3994.39195,0.24981
3992.46322,0.25017
3990.53449,0.25001
3988.60577,0.24961
3986.67704,0.24942
3984.74831,0.24979
3982.81959,0.25067
3980.89086,0.25146
3978.96214,0.25167
3977.03341,0.25177
3975.10468,0.25230
3973.17596,0.25303
3971.24723,0.25381
3969.31851,0.25470
3967.38978,0.25532
3965.46105,0.25557
3963.53233,0.25611
3961.60360,0.25697
3959.67487,0.25757
3957.74615,0.25807
3955.81742,0.25878
3953.88870,0.25963
3951.95997,0.26076
3950.03124,0.26200
3948.10252,0.26245
3946.17379,0.26228
3944.24506,0.26281
3942.31634,0.26396
3940.38761,0.26490
3938.45889,0.26579
3936.53016,0.26697
3934.60143,0.26852
3932.67271,0.27002
3930.74398,0.27082
3928.81526,0.27109
3926.88653,0.27168
3924.95780,0.27271
3923.02908,0.27344
3921.10035,0.27405
3919.17162,0.27520
3917.24290,0.27665
3915.31417,0.27769
3913.38545,0.27830
3911.45672,0.27878
3909.52799,0.27905
3907.59927,0.27950
3905.67054,0.28065
3903.74181,0.28191
3901.81309,0.28266
3899.88436,0.28330
3897.95564,0.28369
3896.02691,0.28399
3894.09818,0.28486
3892.16946,0.28607
3890.24073,0.28659
3888.31201,0.28720
3886.38328,0.28881
3884.45455,0.28994
3882.52583,0.29048
3880.59710,0.29078
3878.66837,0.29036
3876.73965,0.29079
3874.81092,0.29242
3872.88220,0.29387
3870.95347,0.29508
3869.02474,0.29533
3867.09602,0.29523
3865.16729,0.29661
3863.23856,0.29854
3861.30984,0.29975
3859.38111,0.30013
3857.45239,0.30027
3855.52366,0.30109
3853.59493,0.30265
3851.66621,0.30365
3849.73748,0.30442
3847.80876,0.30517
3845.88003,0.30569
3843.95130,0.30574
3842.02258,0.30541
3840.09385,0.30564
3838.16512,0.30679
3836.23640,0.30863
3834.30767,0.31082
3832.37895,0.31254
3830.45022,0.31318
3828.52149,0.31342
3826.59277,0.31326
3824.66404,0.31257
3822.73531,0.31271
3820.80659,0.31282
3818.87786,0.31212
3816.94914,0.31255
3815.02041,0.31303
3813.09168,0.31291
3811.16296,0.31319
3809.23423,0.31394
3807.30550,0.31428
3805.37678,0.31350
3803.44805,0.31375
3801.51933,0.31491
3799.59060,0.31448
3797.66187,0.31411
3795.73315,0.31459
3793.80442,0.31530
3791.87570,0.31614
3789.94697,0.31669
3788.01824,0.31701
3786.08952,0.31731
3784.16079,0.31712
3782.23206,0.31687
3780.30334,0.31721
3778.37461,0.31707
3776.44589,0.31629
3774.51716,0.31585
3772.58843,0.31595
3770.65971,0.31614
3768.73098,0.31561
3766.80225,0.31478
3764.87353,0.31388
3762.94480,0.31309
3761.01608,0.31337
3759.08735,0.31361
3757.15862,0.31246
3755.22990,0.31106
3753.30117,0.31077
3751.37245,0.31079
3749.44372,0.30943
3747.51499,0.30777
3745.58627,0.30691
3743.65754,0.30545
3741.72881,0.30395
3739.80009,0.30392
3737.87136,0.30438
3735.94264,0.30360
3734.01391,0.30122
3732.08518,0.29885
3730.15646,0.29733
3728.22773,0.29676
3726.29900,0.29626
3724.37028,0.29492
3722.44155,0.29335
3720.51283,0.29210
3718.58410,0.29111
3716.65537,0.29001
3714.72665,0.28883
3712.79792,0.28723
3710.86920,0.28418
3708.94047,0.28026
3707.01174,0.27700
3705.08302,0.27457
3703.15429,0.27236
3701.22556,0.26954
3699.29684,0.26636
3697.36811,0.26362
3695.43939,0.26096
3693.51066,0.25831
3691.58193,0.25563
3689.65321,0.25172
3687.72448,0.24622
3685.79575,0.24113
3683.86703,0.23713
3681.93830,0.23322
3680.00958,0.22902
3678.08085,0.22461
3676.15212,0.21869
3674.22340,0.21041
3672.29467,0.20330
3670.36595,0.19751
3668.43722,0.19096
3666.50849,0.18537
3664.57977,0.18122
3662.65104,0.17697
3660.72231,0.17202
3658.79359,0.16697
3656.86486,0.16210
3654.93614,0.15738
3653.00741,0.15348
3651.07868,0.14985
3649.14996,0.14491
3647.22123,0.13972
3645.29250,0.13604
3643.36378,0.13343
3641.43505,0.13066
3639.50633,0.12738
3637.57760,0.12400
3635.64887,0.12074
3633.72015,0.11769
3631.79142,0.11505
3629.86270,0.11252
3627.93397,0.10930
3626.00524,0.10609
3624.07652,0.10359
3622.14779,0.10153
3620.21906,0.09937
3618.29034,0.09684
3616.36161,0.09490
3614.43289,0.09391
3612.50416,0.09266
3610.57543,0.09049
3608.64671,0.08788
3606.71798,0.08537
3604.78925,0.08341
3602.86053,0.08182
3600.93180,0.07999
3599.00308,0.07792
3597.07435,0.07614
3595.14562,0.07447
3593.21690,0.07261
3591.28817,0.07104
3589.35945,0.07013
3587.43072,0.06932
3585.50199,0.06793
3583.57327,0.06619
3581.64454,0.06456
3579.71581,0.06330
3577.78709,0.06221
3575.85836,0.06089
3573.92964,0.05955
3572.00091,0.05860
3570.07218,0.05786
3568.14346,0.05700
3566.21473,0.05609
3564.28600,0.05531
3562.35728,0.05445
3560.42855,0.05332
3558.49983,0.05202
3556.57110,0.05068
3554.64237,0.04943
3552.71365,0.04837
3550.78492,0.04762
3548.85620,0.04734
3546.92747,0.04720
3544.99874,0.04675
3543.07002,0.04599
3541.14129,0.04520
3539.21256,0.04458
3537.28384,0.04418
3535.35511,0.04387
3533.42639,0.04362
3531.49766,0.04339
3529.56893,0.04298
3527.64021,0.04232
3525.71148,0.04145
3523.78275,0.04056
3521.85403,0.04005
3519.92530,0.04013
3517.99658,0.04047
3516.06785,0.04048
3514.13912,0.04002
3512.21040,0.03939
3510.28167,0.03887
3508.35295,0.03847
3506.42422,0.03835
3504.49549,0.03869
3502.56677,0.03922
3500.63804,0.03927
3498.70931,0.03852
3496.78059,0.03759
3494.85186,0.03724
3492.92314,0.03747
3490.99441,0.03764
3489.06568,0.03722
3487.13696,0.03642
3485.20823,0.03586
3483.27950,0.03579
3481.35078,0.03591
3479.42205,0.03584
3477.49333,0.03568
3475.56460,0.03563
3473.63587,0.03549
3471.70715,0.03514
3469.77842,0.03478
3467.84970,0.03454
3465.92097,0.03448
3463.99224,0.03463
3462.06352,0.03463
3460.13479,0.03426
3458.20606,0.03393
3456.27734,0.03376
3454.34861,0.03355
3452.41989,0.03348
3450.49116,0.03360
3448.56243,0.03380
3446.63371,0.03400
3444.70498,0.03392
3442.77625,0.03378
3440.84753,0.03392
3438.91880,0.03395
3436.99008,0.03337
3435.06135,0.03267
3433.13262,0.03271
3431.20390,0.03320
3429.27517,0.03345
3427.34644,0.03349
3425.41772,0.03341
3423.48899,0.03319
3421.56027,0.03315
3419.63154,0.03345
3417.70281,0.03382
3415.77409,0.03373
3413.84536,0.03300
3411.91664,0.03240
3409.98791,0.03255
3408.05918,0.03303
3406.13046,0.03313
3404.20173,0.03296
3402.27300,0.03326
3400.34428,0.03410
3398.41555,0.03457
3396.48683,0.03418
3394.55810,0.03364
3392.62937,0.03353
3390.70065,0.03345
3388.77192,0.03317
3386.84319,0.03319
3384.91447,0.03357
3382.98574,0.03388
3381.05702,0.03392
3379.12829,0.03383
3377.19956,0.03388
3375.27084,0.03391
3373.34211,0.03378
3371.41339,0.03379
3369.48466,0.03410
3367.55593,0.03449
3365.62721,0.03471
3363.69848,0.03470
3361.76975,0.03457
3359.84103,0.03432
3357.91230,0.03400
3355.98358,0.03400
3354.05485,0.03433
3352.12612,0.03434
3350.19740,0.03394
3348.26867,0.03380
3346.33994,0.03407
3344.41122,0.03437
3342.48249,0.03433
3340.55377,0.03402
3338.62504,0.03389
3336.69631,0.03418
3334.76759,0.03463
3332.83886,0.03496
3330.91014,0.03543
3328.98141,0.03618
3327.05268,0.03677
3325.12396,0.03689
3323.19523,0.03664
3321.26650,0.03619
3319.33778,0.03593
3317.40905,0.03615
3315.48033,0.03675
3313.55160,0.03726
3311.62287,0.03739
3309.69415,0.03732
3307.76542,0.03726
3305.83669,0.03720
3303.90797,0.03729
3301.97924,0.03769
3300.05052,0.03828
3298.12179,0.03866
3296.19306,0.03866
3294.26434,0.03859
3292.33561,0.03883
3290.40689,0.03916
3288.47816,0.03908
3286.54943,0.03883
3284.62071,0.03901
3282.69198,0.03965
3280.76325,0.04033
3278.83453,0.04086
3276.90580,0.04122
3274.97708,0.04138
3273.04835,0.04154
3271.11962,0.04184
3269.19090,0.04212
3267.26217,0.04238
3265.33344,0.04281
3263.40472,0.04338
3261.47599,0.04385
3259.54727,0.04411
3257.61854,0.04435
3255.68981,0.04481
3253.76109,0.04525
3251.83236,0.04556
3249.90364,0.04597
3247.97491,0.04650
3246.04618,0.04693
3244.11746,0.04722
3242.18873,0.04739
3240.26000,0.04739
3238.33128,0.04739
3236.40255,0.04758
3234.47383,0.04794
3232.54510,0.04854
3230.61637,0.04940
3228.68765,0.05025
3226.75892,0.05077
3224.83019,0.05106
3222.90147,0.05138
3220.97274,0.05182
3219.04402,0.05230
3217.11529,0.05276
3215.18656,0.05327
3213.25784,0.05387
3211.32911,0.05425
3209.40039,0.05417
3207.47166,0.05410
3205.54293,0.05472
3203.61421,0.05587
3201.68548,0.05687
3199.75675,0.05751
3197.82803,0.05805
3195.89930,0.05870
3193.97058,0.05941
3192.04185,0.05981
3190.11312,0.05979
3188.18440,0.05985
3186.25567,0.06028
3184.32694,0.06085
3182.39822,0.06152
3180.46949,0.06244
3178.54077,0.06331
3176.61204,0.06382
3174.68331,0.06426
3172.75459,0.06483
3170.82586,0.06520
3168.89714,0.06541
3166.96841,0.06587
3165.03968,0.06646
3163.11096,0.06686
3161.18223,0.06723
3159.25350,0.06772
3157.32478,0.06804
3155.39605,0.06822
3153.46733,0.06876
3151.53860,0.06969
3149.60987,0.07047
3147.68115,0.07084
3145.75242,0.07106
3143.82369,0.07142
3141.89497,0.07191
3139.96624,0.07235
3138.03752,0.07280
3136.10879,0.07333
3134.18006,0.07381
3132.25134,0.07429
3130.32261,0.07513
3128.39389,0.07612
3126.46516,0.07675
3124.53643,0.07717
3122.60771,0.07761
3120.67898,0.07784
3118.75025,0.07792
3116.82153,0.07826
3114.89280,0.07892
3112.96408,0.07956
3111.03535,0.08009
3109.10662,0.08067
3107.17790,0.08140
3105.24917,0.08225
3103.32044,0.08285
3101.39172,0.08290
3099.46299,0.08285
3097.53427,0.08330
3095.60554,0.08404
3093.67681,0.08457
3091.74809,0.08498
3089.81936,0.08539
3087.89063,0.08561
3085.96191,0.08581
3084.03318,0.08637
3082.10446,0.08707
3080.17573,0.08740
3078.24700,0.08740
3076.31828,0.08740
3074.38955,0.08757
3072.46083,0.08789
3070.53210,0.08841
3068.60337,0.08907
3066.67465,0.08958
3064.74592,0.08975
3062.81719,0.08990
3060.88847,0.09029
3058.95974,0.09078
3057.03102,0.09115
3055.10229,0.09125
3053.17356,0.09123
3051.24484,0.09137
3049.31611,0.09154
3047.38738,0.09162
3045.45866,0.09183
3043.52993,0.09216
3041.60121,0.09233
3039.67248,0.09234
3037.74375,0.09235
3035.81503,0.09234
3033.88630,0.09214
3031.95758,0.09178
3030.02885,0.09149
3028.10012,0.09137
3026.17140,0.09133
3024.24267,0.09111
3022.31394,0.09069
3020.38522,0.09030
3018.45649,0.09000
3016.52777,0.08975
3014.59904,0.08958
3012.67031,0.08932
3010.74159,0.08874
3008.81286,0.08789
3006.88413,0.08691
3004.95541,0.08571
3003.02668,0.08449
3001.09796,0.08368
2999.16923,0.08324
2997.24050,0.08273
2995.31178,0.08210
2993.38305,0.08153
2991.45433,0.08096
2989.52560,0.08027
2987.59687,0.07941
2985.66815,0.07827
2983.73942,0.07664
2981.81069,0.07471
2979.88197,0.07311
2977.95324,0.07190
2976.02452,0.07053
2974.09579,0.06878
2972.16706,0.06689
2970.23834,0.06503
2968.30961,0.06347
2966.38088,0.06241
2964.45216,0.06167
2962.52343,0.06106
2960.59471,0.06042
2958.66598,0.05977
2956.73725,0.05917
2954.80853,0.05841
2952.87980,0.05747
2950.95108,0.05660
2949.02235,0.05571
2947.09362,0.05464
2945.16490,0.05358
2943.23617,0.05273
2941.30744,0.05219
2939.37872,0.05205
2937.44999,0.05220
2935.52127,0.05219
2933.59254,0.05196
2931.66381,0.05175
2929.73509,0.05147
2927.80636,0.05103
2925.87763,0.05057
2923.94891,0.05036
2922.02018,0.05046
2920.09146,0.05055
2918.16273,0.05044
2916.23400,0.05033
2914.30528,0.05034
2912.37655,0.05049
2910.44783,0.05096
2908.51910,0.05168
2906.59037,0.05228
2904.66165,0.05260
2902.73292,0.05278
2900.80419,0.05306
2898.87547,0.05336
2896.94674,0.05369
2895.01802,0.05422
2893.08929,0.05473
2891.16056,0.05500
2889.23184,0.05510
2887.30311,0.05524
2885.37438,0.05554
2883.44566,0.05588
2881.51693,0.05608
2879.58821,0.05619
2877.65948,0.05662
2875.73075,0.05748
2873.80203,0.05817
2871.87330,0.05858
2869.94458,0.05918
2868.01585,0.05977
2866.08712,0.05981
2864.15840,0.05964
2862.22967,0.05986
2860.30094,0.06020
2858.37222,0.06033
2856.44349,0.06067
2854.51477,0.06138
2852.58604,0.06191
2850.65731,0.06221
2848.72859,0.06302
2846.79986,0.06450
2844.87113,0.06629
2842.94241,0.06830
2841.01368,0.07029
2839.08496,0.07187
2837.15623,0.07329
2835.22750,0.07497
2833.29878,0.07680
2831.37005,0.07866
2829.44133,0.08057
2827.51260,0.08251
2825.58387,0.08439
2823.65515,0.08604
2821.72642,0.08746
2819.79769,0.08884
2817.86897,0.09033
2815.94024,0.09184
2814.01152,0.09322
2812.08279,0.09449
2810.15406,0.09553
2808.22534,0.09636
2806.29661,0.09720
2804.36788,0.09812
2802.43916,0.09901
2800.51043,0.09979
2798.58171,0.10044
2796.65298,0.10098
2794.72425,0.10146
2792.79553,0.10209
2790.86680,0.10293
2788.93808,0.10370
2787.00935,0.10432
2785.08062,0.10482
2783.15190,0.10503
2781.22317,0.10506
2779.29444,0.10529
2777.36572,0.10580
2775.43699,0.10614
2773.50827,0.10604
2771.57954,0.10583
2769.65081,0.10599
2767.72209,0.10657
2765.79336,0.10722
2763.86463,0.10774
2761.93591,0.10822
2760.00718,0.10861
2758.07846,0.10884
2756.14973,0.10900
2754.22100,0.10913
2752.29228,0.10916
2750.36355,0.10905
2748.43483,0.10886
2746.50610,0.10874
2744.57737,0.10878
2742.64865,0.10881
2740.71992,0.10875
2738.79119,0.10881
2736.86247,0.10904
2734.93374,0.10913
2733.00502,0.10913
2731.07629,0.10948
2729.14756,0.11009
2727.21884,0.11063
2725.29011,0.11108
2723.36138,0.11129
2721.43266,0.11137
2719.50393,0.11163
2717.57521,0.11207
2715.64648,0.11261
2713.71775,0.11332
2711.78903,0.11417
2709.86030,0.11489
2707.93157,0.11542
2706.00285,0.11594
2704.07412,0.11652
2702.14540,0.11711
2700.21667,0.11771
2698.28794,0.11832
2696.35922,0.11898
2694.43049,0.11958
2692.50177,0.11991
2690.57304,0.12007
2688.64431,0.12044
2686.71559,0.12099
2684.78686,0.12148
2682.85813,0.12194
2680.92941,0.12250
2679.00068,0.12325
2677.07196,0.12395
2675.14323,0.12414
2673.21450,0.12400
2671.28578,0.12410
2669.35705,0.12443
2667.42832,0.12466
2665.49960,0.12491
2663.57087,0.12538
2661.64215,0.12580
2659.71342,0.12594
2657.78469,0.12615
2655.85597,0.12655
2653.92724,0.12683
2651.99852,0.12697
2650.06979,0.12720
2648.14106,0.12758
2646.21234,0.12796
2644.28361,0.12823
2642.35488,0.12839
2640.42616,0.12854
2638.49743,0.12894
2636.56871,0.12969
2634.63998,0.13039
2632.71125,0.13067
2630.78253,0.13070
2628.85380,0.13099
2626.92507,0.13174
2624.99635,0.13247
2623.06762,0.13275
2621.13890,0.13299
2619.21017,0.13360
2617.28144,0.13425
2615.35272,0.13466
2613.42399,0.13490
2611.49527,0.13513
2609.56654,0.13538
2607.63781,0.13570
2605.70909,0.13599
2603.78036,0.13603
2601.85163,0.13602
2599.92291,0.13623
2597.99418,0.13668
2596.06546,0.13724
2594.13673,0.13781
2592.20800,0.13833
2590.27928,0.13862
2588.35055,0.13859
2586.42182,0.13848
2584.49310,0.13854
2582.56437,0.13878
2580.63565,0.13901
2578.70692,0.13917
2576.77819,0.13932
2574.84947,0.13955
2572.92074,0.13981
2570.99202,0.13986
2569.06329,0.13977
2567.13456,0.13982
2565.20584,0.14009
2563.27711,0.14033
2561.34838,0.14032
2559.41966,0.14033
2557.49093,0.14040
2555.56221,0.14019
2553.63348,0.13994
2551.70475,0.13998
2549.77603,0.14024
2547.84730,0.14058
2545.91857,0.14087
2543.98985,0.14099
2542.06112,0.14106
2540.13240,0.14114
2538.20367,0.14122
2536.27494,0.14133
2534.34622,0.14154
2532.41749,0.14182
2530.48877,0.14204
2528.56004,0.14218
2526.63131,0.14242
2524.70259,0.14270
2522.77386,0.14287
2520.84513,0.14301
2518.91641,0.14320
2516.98768,0.14348
2515.05896,0.14388
2513.13023,0.14427
2511.20150,0.14472
2509.27278,0.14536
2507.34405,0.14624
2505.41532,0.14733
2503.48660,0.14853
2501.55787,0.14963
2499.62915,0.15044
2497.70042,0.15093
2495.77169,0.15133
2493.84297,0.15190
2491.91424,0.15276
2489.98552,0.15370
2488.05679,0.15436
2486.12806,0.15472
2484.19934,0.15519
2482.27061,0.15593
2480.34188,0.15655
2478.41316,0.15689
2476.48443,0.15731
2474.55571,0.15795
2472.62698,0.15868
2470.69825,0.15927
2468.76953,0.15958
2466.84080,0.15994
2464.91207,0.16047
2462.98335,0.16098
2461.05462,0.16140
2459.12590,0.16169
2457.19717,0.16187
2455.26844,0.16221
2453.33972,0.16287
2451.41099,0.16369
2449.48227,0.16449
2447.55354,0.16514
2445.62481,0.16548
2443.69609,0.16581
2441.76736,0.16650
2439.83863,0.16734
2437.90991,0.16810
2435.98118,0.16868
2434.05246,0.16904
2432.12373,0.16940
2430.19500,0.16990
2428.26628,0.17054
2426.33755,0.17144
2424.40882,0.17239
2422.48010,0.17300
2420.55137,0.17338
2418.62265,0.17399
2416.69392,0.17486
2414.76519,0.17587
2412.83647,0.17681
2410.90774,0.17739
2408.97902,0.17775
2407.05029,0.17813
2405.12156,0.17855
2403.19284,0.17913
2401.26411,0.18001
2399.33538,0.18104
2397.40666,0.18185
2395.47793,0.18234
2393.54921,0.18259
2391.62048,0.18283
2389.69175,0.18310
2387.76303,0.18321
2385.83430,0.18307
2383.90557,0.18278
2381.97685,0.18240
2380.04812,0.18190
2378.11940,0.18127
2376.19067,0.18068
2374.26194,0.18033
2372.33322,0.18025
2370.40449,0.18044
2368.47576,0.18081
2366.54704,0.18076
2364.61831,0.17994
2362.68959,0.17892
2360.76086,0.17850
2358.83213,0.17914
2356.90341,0.18021
2354.97468,0.18032
2353.04596,0.17937
2351.11723,0.17841
2349.18850,0.17795
2347.25978,0.17772
2345.33105,0.17737
2343.40232,0.17713
2341.47360,0.17764
2339.54487,0.17863
2337.61615,0.17913
2335.68742,0.17912
2333.75869,0.17952
2331.82997,0.18051
2329.90124,0.18141
2327.97251,0.18212
2326.04379,0.18291
2324.11506,0.18356
2322.18634,0.18401
2320.25761,0.18460
2318.32888,0.18530
2316.40016,0.18581
2314.47143,0.18616
2312.54271,0.18642
2310.61398,0.18646
2308.68525,0.18633
2306.75653,0.18609
2304.82780,0.18564
2302.89907,0.18493
2300.97035,0.18401
2299.04162,0.18297
2297.11290,0.18187
2295.18417,0.18074
2293.25544,0.17963
2291.32672,0.17867
2289.39799,0.17793
2287.46926,0.17733
2285.54054,0.17678
2283.61181,0.17619
2281.68309,0.17548
2279.75436,0.17477
2277.82563,0.17436
2275.89691,0.17445
2273.96818,0.17491
2272.03946,0.17545
2270.11073,0.17598
2268.18200,0.17659
2266.25328,0.17723
2264.32455,0.17767
2262.39582,0.17787
2260.46710,0.17799
2258.53837,0.17829
2256.60965,0.17887
2254.68092,0.17959
2252.75219,0.18019
2250.82347,0.18067
2248.89474,0.18121
2246.96601,0.18153
2245.03729,0.18194
2243.10856,0.18252
2241.17984,0.18310
2239.25111,0.18375
2237.32238,0.18468
2235.39366,0.18554
2233.46493,0.18609
2231.53621,0.18650
2229.60748,0.18694
2227.67875,0.18746
2225.75003,0.18804
2223.82130,0.18861
2221.89257,0.18915
2219.96385,0.18961
2218.03512,0.19010
2216.10640,0.19062
2214.17767,0.19108
2212.24894,0.19148
2210.32022,0.19190
2208.39149,0.19213
2206.46276,0.19191
2204.53404,0.19149
2202.60531,0.19120
2200.67659,0.19099
2198.74786,0.19065
2196.81913,0.19018
2194.89041,0.18956
2192.96168,0.18868
2191.03296,0.18785
2189.10423,0.18729
2187.17550,0.18657
2185.24678,0.18550
2183.31805,0.18439
2181.38932,0.18324
2179.46060,0.18200
2177.53187,0.18070
2175.60315,0.17930
2173.67442,0.17805
2171.74569,0.17702
2169.81697,0.17598
2167.88824,0.17491
2165.95951,0.17398
2164.03079,0.17323
2162.10206,0.17247
2160.17334,0.17155
2158.24461,0.17072
2156.31588,0.17015
2154.38716,0.16959
2152.45843,0.16882
2150.52971,0.16815
2148.60098,0.16780
2146.67225,0.16756
2144.74353,0.16727
2142.81480,0.16707
2140.88607,0.16695
2138.95735,0.16661
2137.02862,0.16601
2135.09990,0.16556
2133.17117,0.16555
2131.24244,0.16587
2129.31372,0.16628
2127.38499,0.16666
2125.45626,0.16695
2123.52754,0.16709
2121.59881,0.16716
2119.67009,0.16743
2117.74136,0.16797
2115.81263,0.16852
2113.88391,0.16892
2111.95518,0.16921
2110.02646,0.16945
2108.09773,0.16971
2106.16900,0.17011
2104.24028,0.17061
2102.31155,0.17109
2100.38282,0.17156
2098.45410,0.17196
2096.52537,0.17221
2094.59665,0.17246
2092.66792,0.17287
2090.73919,0.17333
2088.81047,0.17366
2086.88174,0.17386
2084.95301,0.17399
2083.02429,0.17397
2081.09556,0.17382
2079.16684,0.17373
2077.23811,0.17367
2075.30938,0.17340
2073.38066,0.17288
2071.45193,0.17243
2069.52321,0.17224
2067.59448,0.17222
2065.66575,0.17230
2063.73703,0.17228
2061.80830,0.17210
2059.87957,0.17195
2057.95085,0.17190
2056.02212,0.17182
2054.09340,0.17181
2052.16467,0.17202
2050.23594,0.17237
2048.30722,0.17268
2046.37849,0.17289
2044.44976,0.17314
2042.52104,0.17354
2040.59231,0.17392
2038.66359,0.17422
2036.73486,0.17450
2034.80613,0.17493
2032.87741,0.17570
2030.94868,0.17665
2029.01996,0.17745
2027.09123,0.17809
2025.16250,0.17880
2023.23378,0.17971
2021.30505,0.18090
2019.37632,0.18220
2017.44760,0.18321
2015.51887,0.18375
2013.59015,0.18429
2011.66142,0.18520
2009.73269,0.18616
2007.80397,0.18683
2005.87524,0.18720
2003.94651,0.18747
2002.01779,0.18785
2000.08906,0.18841
1998.16034,0.18889
1996.23161,0.18917
1994.30288,0.18976
1992.37416,0.19070
1990.44543,0.19126
1988.51670,0.19145
1986.58798,0.19153
1984.65925,0.19155
1982.73053,0.19161
1980.80180,0.19178
1978.87307,0.19196
1976.94435,0.19195
1975.01562,0.19163
1973.08690,0.19107
1971.15817,0.19067
1969.22944,0.19084
1967.30072,0.19110
1965.37199,0.19069
1963.44326,0.18998
1961.51454,0.18960
1959.58581,0.18957
1957.65709,0.18973
1955.72836,0.18977
1953.79963,0.18955
1951.87091,0.18934
1949.94218,0.18942
1948.01345,0.18978
1946.08473,0.19051
1944.15600,0.19176
1942.22728,0.19270
1940.29855,0.19262
1938.36982,0.19241
1936.44110,0.19273
1934.51237,0.19331
1932.58365,0.19383
1930.65492,0.19419
1928.72619,0.19447
1926.79747,0.19496
1924.86874,0.19594
1922.94001,0.19672
1921.01129,0.19678
1919.08256,0.19687
1917.15384,0.19664
1915.22511,0.19573
1913.29638,0.19521
1911.36766,0.19540
1909.43893,0.19541
1907.51020,0.19484
1905.58148,0.19432
1903.65275,0.19414
1901.72403,0.19404
1899.79530,0.19406
1897.86657,0.19440
1895.93785,0.19485
1894.00912,0.19498
1892.08040,0.19509
1890.15167,0.19533
1888.22294,0.19503
1886.29422,0.19439
1884.36549,0.19410
1882.43676,0.19404
1880.50804,0.19399
1878.57931,0.19383
1876.65059,0.19357
1874.72186,0.19338
1872.79313,0.19390
1870.86441,0.19550
1868.93568,0.19659
1867.00695,0.19513
1865.07823,0.19250
1863.14950,0.19085
1861.22078,0.19008
1859.29205,0.18927
1857.36332,0.18821
1855.43460,0.18713
1853.50587,0.18608
1851.57715,0.18518
1849.64842,0.18469
1847.71969,0.18465
1845.79097,0.18473
1843.86224,0.18365
1841.93351,0.18101
1840.00479,0.17879
1838.07606,0.17750
1836.14734,0.17603
1834.21861,0.17440
1832.28988,0.17354
1830.36116,0.17287
1828.43243,0.17098
1826.50370,0.16847
1824.57498,0.16582
1822.64625,0.16273
1820.71753,0.15979
1818.78880,0.15732
1816.86007,0.15510
1814.93135,0.15311
1813.00262,0.15143
1811.07390,0.14942
1809.14517,0.14636
1807.21644,0.14279
1805.28772,0.13971
1803.35899,0.13740
1801.43026,0.13512
1799.50154,0.13209
1797.57281,0.12873
1795.64409,0.12612
1793.71536,0.12428
1791.78663,0.12164
1789.85791,0.11766
1787.92918,0.11401
1786.00045,0.11118
1784.07173,0.10841
1782.14300,0.10525
1780.21428,0.10139
1778.28555,0.09723
1776.35682,0.09391
1774.42810,0.09122
1772.49937,0.08726
1770.57065,0.08124
1768.64192,0.07497
1766.71319,0.06974
1764.78447,0.06591
1762.85574,0.06287
1760.92701,0.05955
1758.99829,0.05606
1757.06956,0.05283
1755.14084,0.05021
1753.21211,0.04872
1751.28338,0.04792
1749.35466,0.04680
1747.42593,0.04528
1745.49720,0.04399
1743.56848,0.04329
1741.63975,0.04312
1739.71103,0.04318
1737.78230,0.04337
1735.85357,0.04407
1733.92485,0.04505
1731.99612,0.04542
1730.06740,0.04545
1728.13867,0.04549
1726.20994,0.04576
1724.28122,0.04665
1722.35249,0.04814
1720.42376,0.05025
1718.49504,0.05299
1716.56631,0.05495
1714.63759,0.05511
1712.70886,0.05477
1710.78013,0.05506
1708.85141,0.05613
1706.92268,0.05770
1704.99395,0.05911
1703.06523,0.06034
1701.13650,0.06172
1699.20778,0.06219
1697.27905,0.06138
1695.35032,0.06027
1693.42160,0.05954
1691.49287,0.05963
1689.56415,0.06020
1687.63542,0.06105
1685.70669,0.06232
1683.77797,0.06258
1681.84924,0.06069
1679.92051,0.05872
1677.99179,0.05776
1676.06306,0.05727
1674.13434,0.05649
1672.20561,0.05596
1670.27688,0.05586
1668.34816,0.05499
1666.41943,0.05368
1664.49070,0.05311
1662.56198,0.05294
1660.63325,0.05239
1658.70453,0.05194
1656.77580,0.05264
1654.84707,0.05480
1652.91835,0.05631
1650.98962,0.05521
1649.06090,0.05438
1647.13217,0.05456
1645.20344,0.05401
1643.27472,0.05295
1641.34599,0.05251
1639.41726,0.05305
1637.48854,0.05422
1635.55981,0.05453
1633.63109,0.05312
1631.70236,0.05179
1629.77363,0.05145
1627.84491,0.05143
1625.91618,0.05130
1623.98745,0.05086
1622.05873,0.04975
1620.13000,0.04887
1618.20128,0.04893
1616.27255,0.04869
1614.34382,0.04725
1612.41510,0.04575
1610.48637,0.04482
1608.55764,0.04425
1606.62892,0.04382
1604.70019,0.04360
1602.77147,0.04356
1600.84274,0.04332
1598.91401,0.04273
1596.98529,0.04224
1595.05656,0.04232
1593.12784,0.04304
1591.19911,0.04412
1589.27038,0.04527
1587.34166,0.04658
1585.41293,0.04838
1583.48420,0.05065
1581.55548,0.05305
1579.62675,0.05558
1577.69803,0.05855
1575.76930,0.06119
1573.84057,0.06233
1571.91185,0.06332
1569.98312,0.06521
1568.05439,0.06692
1566.12567,0.06765
1564.19694,0.06793
1562.26822,0.06873
1560.33949,0.07007
1558.41076,0.06931
1556.48204,0.06596
1554.55331,0.06339
1552.62459,0.06203
1550.69586,0.06108
1548.76713,0.06005
1546.83841,0.05912
1544.90968,0.05876
1542.98095,0.05929
1541.05223,0.06008
1539.12350,0.05888
1537.19478,0.05666
1535.26605,0.05584
1533.33732,0.05573
1531.40860,0.05474
1529.47987,0.05329
1527.55114,0.05185
1525.62242,0.05033
1523.69369,0.04901
1521.76497,0.04744
1519.83624,0.04504
1517.90751,0.04282
1515.97879,0.04122
1514.05006,0.04010
1512.12134,0.03979
1510.19261,0.04052
1508.26388,0.04189
1506.33516,0.04237
1504.40643,0.04161
1502.47770,0.04125
1500.54898,0.04193
1498.62025,0.04325
1496.69153,0.04439
1494.76280,0.04490
1492.83407,0.04556
1490.90535,0.04682
1488.97662,0.04765
1487.04789,0.04714
1485.11917,0.04602
1483.19044,0.04509
1481.26172,0.04431
1479.33299,0.04347
1477.40426,0.04275
1475.47554,0.04208
1473.54681,0.04090
1471.61809,0.03886
1469.68936,0.03685
1467.76063,0.03587
1465.83191,0.03571
1463.90318,0.03558
1461.97445,0.03557
1460.04573,0.03642
1458.11700,0.03772
1456.18828,0.03788
1454.25955,0.03703
1452.33082,0.03665
1450.40210,0.03694
1448.47337,0.03739
1446.54464,0.03760
1444.61592,0.03755
1442.68719,0.03740
1440.75847,0.03719
1438.82974,0.03703
1436.90101,0.03681
1434.97229,0.03629
1433.04356,0.03577
1431.11484,0.03549
1429.18611,0.03529
1427.25738,0.03515
1425.32866,0.03527
1423.39993,0.03566
1421.47120,0.03636
1419.54248,0.03725
1417.61375,0.03753
1415.68503,0.03715
1413.75630,0.03702
1411.82757,0.03743
1409.89885,0.03806
1407.97012,0.03852
1406.04139,0.03870
1404.11267,0.03871
1402.18394,0.03863
1400.25522,0.03851
1398.32649,0.03832
1396.39776,0.03819
1394.46904,0.03807
1392.54031,0.03768
1390.61159,0.03697
1388.68286,0.03606
1386.75413,0.03502
1384.82541,0.03407
1382.89668,0.03336
1380.96795,0.03287
1379.03923,0.03270
1377.11050,0.03290
1375.18178,0.03329
1373.25305,0.03363
1371.32432,0.03392
1369.39560,0.03422
1367.46687,0.03454
1365.53814,0.03511
1363.60942,0.03591
1361.68069,0.03638
1359.75197,0.03632
1357.82324,0.03625
1355.89451,0.03647
1353.96579,0.03674
1352.03706,0.03681
1350.10834,0.03661
1348.17961,0.03614
1346.25088,0.03566
1344.32216,0.03544
1342.39343,0.03547
1340.46470,0.03549
1338.53598,0.03517
1336.60725,0.03448
1334.67853,0.03386
1332.74980,0.03372
1330.82107,0.03400
1328.89235,0.03430
1326.96362,0.03443
1325.03489,0.03456
1323.10617,0.03477
1321.17744,0.03499
1319.24872,0.03522
1317.31999,0.03535
1315.39126,0.03531
1313.46254,0.03533
1311.53381,0.03575
1309.60509,0.03660
1307.67636,0.03739
1305.74763,0.03759
1303.81891,0.03732
1301.89018,0.03703
1299.96145,0.03687
1298.03273,0.03690
1296.10400,0.03711
1294.17528,0.03713
1292.24655,0.03665
1290.31782,0.03582
1288.38910,0.03501
1286.46037,0.03440
1284.53164,0.03399
1282.60292,0.03379
1280.67419,0.03367
1278.74547,0.03326
1276.81674,0.03265
1274.88801,0.03235
1272.95929,0.03234
1271.03056,0.03223
1269.10183,0.03210
1267.17311,0.03193
1265.24438,0.03140
1263.31566,0.03072
1261.38693,0.03036
1259.45820,0.03036
1257.52948,0.03063
1255.60075,0.03109
1253.67203,0.03140
1251.74330,0.03131
1249.81457,0.03102
1247.88585,0.03089
1245.95712,0.03089
1244.02839,0.03084
1242.09967,0.03080
1240.17094,0.03085
1238.24222,0.03092
1236.31349,0.03100
1234.38476,0.03130
1232.45604,0.03187
1230.52731,0.03248
1228.59858,0.03290
1226.66986,0.03313
1224.74113,0.03352
1222.81241,0.03417
1220.88368,0.03459
1218.95495,0.03461
1217.02623,0.03458
1215.09750,0.03467
1213.16878,0.03493
1211.24005,0.03510
1209.31132,0.03490
1207.38260,0.03464
1205.45387,0.03459
1203.52514,0.03453
1201.59642,0.03453
1199.66769,0.03452
1197.73897,0.03419
1195.81024,0.03381
1193.88151,0.03373
1191.95279,0.03364
1190.02406,0.03318
1188.09533,0.03251
1186.16661,0.03200
1184.23788,0.03153
1182.30916,0.03068
1180.38043,0.02952
1178.45170,0.02844
1176.52298,0.02774
1174.59425,0.02735
1172.66553,0.02688
1170.73680,0.02627
1168.80807,0.02612
1166.87935,0.02661
1164.95062,0.02722
1163.02189,0.02770
1161.09317,0.02830
1159.16444,0.02896
1157.23572,0.02931
1155.30699,0.02948
1153.37826,0.02946
1151.44954,0.02903
1149.52081,0.02832
1147.59208,0.02762
1145.66336,0.02718
1143.73463,0.02685
1141.80591,0.02633
1139.87718,0.02569
1137.94845,0.02503
1136.01973,0.02430
1134.09100,0.02364
1132.16228,0.02352
1130.23355,0.02384
1128.30482,0.02406
1126.37610,0.02420
1124.44737,0.02450
1122.51864,0.02493
1120.58992,0.02565
1118.66119,0.02670
1116.73247,0.02742
1114.80374,0.02760
1112.87501,0.02794
1110.94629,0.02867
1109.01756,0.02925
1107.08883,0.02921
1105.16011,0.02920
1103.23138,0.03002
1101.30266,0.03072
1099.37393,0.03058
1097.44520,0.03010
1095.51648,0.02963
1093.58775,0.02958
1091.65903,0.02971
1089.73030,0.02917
1087.80157,0.02843
1085.87285,0.02832
1083.94412,0.02862
1082.01539,0.02886
1080.08667,0.02906
1078.15794,0.02938
1076.22922,0.03001
1074.30049,0.03104
1072.37176,0.03194
1070.44304,0.03261
1068.51431,0.03371
1066.58558,0.03511
1064.65686,0.03656
1062.72813,0.03869
1060.79941,0.04134
1058.87068,0.04325
1056.94195,0.04427
1055.01323,0.04511
1053.08450,0.04564
1051.15578,0.04579
1049.22705,0.04584
1047.29832,0.04561
1045.36960,0.04532
1043.44087,0.04532
1041.51214,0.04546
1039.58342,0.04612
1037.65469,0.04774
1035.72597,0.04946
1033.79724,0.05037
1031.86851,0.05081
1029.93979,0.05135
1028.01106,0.05196
1026.08233,0.05214
1024.15361,0.05194
1022.22488,0.05209
1020.29616,0.05260
1018.36743,0.05277
1016.43870,0.05246
1014.50998,0.05232
1012.58125,0.05264
1010.65253,0.05280
1008.72380,0.05267
1006.79507,0.05279
1004.86635,0.05299
1002.93762,0.05286
1001.00889,0.05263
999.08017,0.05257
997.15144,0.05295
995.22272,0.05381
993.29399,0.05456
991.36526,0.05487
989.43654,0.05504
987.50781,0.05546
985.57908,0.05631
983.65036,0.05765
981.72163,0.05930
979.79291,0.06101
977.86418,0.06255
975.93545,0.06331
974.00673,0.06292
972.07800,0.06217
970.14928,0.06244
968.22055,0.06387
966.29182,0.06534
964.36310,0.06639
962.43437,0.06758
960.50564,0.06911
958.57692,0.07064
956.64819,0.07179
954.71947,0.07255
952.79074,0.07302
950.86201,0.07356
948.93329,0.07439
947.00456,0.07503
945.07583,0.07540
943.14711,0.07601
941.21838,0.07651
939.28966,0.07630
937.36093,0.07569
935.43220,0.07543
933.50348,0.07573
931.57475,0.07585
929.64603,0.07531
927.71730,0.07465
925.78857,0.07391
923.85985,0.07269
921.93112,0.07164
920.00239,0.07139
918.07367,0.07130
916.14494,0.07076
914.21622,0.07024
912.28749,0.07005
910.35876,0.06961
908.43004,0.06845
906.50131,0.06730
904.57258,0.06693
902.64386,0.06649
900.71513,0.06519
898.78641,0.06428
896.85768,0.06481
894.92895,0.06603
893.00023,0.06742
891.07150,0.06899
889.14277,0.06983
887.21405,0.06928
885.28532,0.06802
883.35660,0.06704
881.42787,0.06682
879.49914,0.06719
877.57042,0.06764
875.64169,0.06809
873.71297,0.06847
871.78424,0.06875
869.85551,0.06911
867.92679,0.06978
865.99806,0.07100
864.06933,0.07236
862.14061,0.07313
860.21188,0.07295
858.28316,0.07209
856.35443,0.07149
854.42570,0.07145
852.49698,0.07140
850.56825,0.07124
848.63952,0.07125
846.71080,0.07105
844.78207,0.07003
842.85335,0.06897
840.92462,0.06904
838.99589,0.06917
837.06717,0.06813
835.13844,0.06687
833.20972,0.06623
831.28099,0.06572
829.35226,0.06504
827.42354,0.06489
825.49481,0.06564
823.56608,0.06615
821.63736,0.06585
819.70863,0.06529
817.77991,0.06460
815.85118,0.06414
813.92245,0.06428
811.99373,0.06453
810.06500,0.06434
808.13627,0.06388
806.20755,0.06374
804.27882,0.06391
802.35010,0.06399
800.42137,0.06422
798.49264,0.06485
796.56392,0.06553
794.63519,0.06558
792.70647,0.06465
790.77774,0.06339
788.84901,0.06304
786.92029,0.06341
784.99156,0.06301
783.06283,0.06221
781.13411,0.06243
779.20538,0.06259
777.27666,0.06121
775.34793,0.05976
773.41920,0.05976
771.49048,0.05990
769.56175,0.05922
767.63302,0.05834
765.70430,0.05746
763.77557,0.05660
761.84685,0.05578
759.91812,0.05469
757.98939,0.05355
756.06067,0.05332
754.13194,0.05381
752.20322,0.05389
750.27449,0.05359
748.34576,0.05342
746.41704,0.05331
744.48831,0.05278
742.55958,0.05216
740.63086,0.05212
738.70213,0.05190
736.77341,0.05105
734.84468,0.05032
732.91595,0.04970
730.98723,0.04864
729.05850,0.04706
727.12977,0.04554
725.20105,0.04494
723.27232,0.04538
721.34360,0.04570
719.41487,0.04518
717.48614,0.04418
715.55742,0.04328
713.62869,0.04261
711.69997,0.04233
709.77124,0.04245
707.84251,0.04260
705.91379,0.04261
703.98506,0.04260
702.05633,0.04257
700.12761,0.04252
698.19888,0.04268
696.27016,0.04296
694.34143,0.04295
692.41270,0.04267
690.48398,0.04244
688.55525,0.04232
686.62652,0.04232
684.69780,0.04225
682.76907,0.04161
680.84035,0.04025
678.91162,0.03878
676.98289,0.03788
675.05417,0.03746
673.12544,0.03730
671.19672,0.03790
669.26799,0.03913
667.33926,0.03981
665.41054,0.04015
663.48181,0.04090
661.55308,0.04128
659.62436,0.04037
657.69563,0.03860
655.76691,0.03717
653.83818,0.03661
651.90945,0.03633
649.98073,0.03600
648.05200,0.03621
646.12327,0.03699
644.19455,0.03750
642.26582,0.03777
640.33710,0.03843
638.40837,0.03904
636.47964,0.03866
634.55092,0.03723
632.62219,0.03569
630.69347,0.03519
628.76474,0.03609
626.83601,0.03755
624.90729,0.03793
622.97856,0.03691
621.04983,0.03571
619.12111,0.03553
617.19238,0.03632
615.26366,0.03744
613.33493,0.03835
611.40620,0.03820
609.47748,0.03748
607.54875,0.03815
605.62002,0.03991
603.69130,0.04039
601.76257,0.03951
599.83385,0.03890
597.90512,0.03884
595.97639,0.03930
594.04767,0.04048
592.11894,0.04137
590.19022,0.04058
588.26149,0.03886
586.33276,0.03832
584.40404,0.03970
582.47531,0.04183
580.54658,0.04343
578.61786,0.04442
576.68913,0.04480
574.76041,0.04384
572.83168,0.04180
570.90295,0.04054
568.97423,0.04094
567.04550,0.04171
565.11677,0.04154
563.18805,0.04103
561.25932,0.04103
559.33060,0.04082
557.40187,0.04050
555.47314,0.04171
553.54442,0.04392
551.61569,0.04462
549.68697,0.04362
547.75824,0.04260
545.82951,0.04205
543.90079,0.04182
541.97206,0.04137
540.04333,0.04007
538.11461,0.03933
536.18588,0.04085
534.25716,0.04346
532.32843,0.04440
530.39970,0.04367
528.47098,0.04352
526.54225,0.04379
524.61352,0.04291
522.68480,0.04174
520.75607,0.04134
518.82735,0.04051
516.89862,0.03859
514.96989,0.03726
513.04117,0.03803
511.11244,0.04048
509.18371,0.04251
507.25499,0.04282
505.32626,0.04259
503.39754,0.04284
501.46881,0.04311
499.54008,0.04299
497.61136,0.04224
495.68263,0.04076
493.75391,0.03975
491.82518,0.04022
489.89645,0.04091
487.96773,0.04064
486.03900,0.04046
484.11027,0.04111
482.18155,0.04104
480.25282,0.03938
478.32410,0.03844
476.39537,0.04084
474.46664,0.04548
472.53792,0.04763
470.60919,0.04539
468.68046,0.04158
466.75174,0.03789
464.82301,0.03465
462.89429,0.03310
460.96556,0.03422
459.03683,0.03615
457.10811,0.03653
455.17938,0.03765
453.25066,0.04173
451.32193,0.04614
449.39320,0.04769
447.46448,0.04637
445.53575,0.04398
443.60702,0.04208
441.67830,0.04068
439.74957,0.03952
437.82085,0.03916
435.89212,0.04060
433.96339,0.04378
432.03467,0.04551
430.10594,0.04424
428.17721,0.04284
426.24849,0.04129
424.31976,0.03787
422.39104,0.03583
420.46231,0.03846
418.53358,0.04122
416.60486,0.03804
414.67613,0.03463
412.74741,0.03485
410.81868,0.03538
408.88995,0.03648
406.96123,0.04371
405.03250,0.05518
403.10377,0.05955
401.17505,0.05359
399.24632,0.04566
