5996.40973,0.57913
5994.48101,0.58605
5992.55228,0.58681
5990.62356,0.58139
5988.69483,0.57743
5986.76610,0.57682
5984.83738,0.57892
5982.90865,0.58170
5980.97992,0.58029
5979.05120,0.57459
5977.12247,0.57037
5975.19375,0.57058
5973.26502,0.57350
5971.33629,0.57703
5969.40757,0.57796
5967.47884,0.57613
5965.55011,0.57807
5963.62139,0.58499
5961.69266,0.58826
5959.76394,0.58248
5957.83521,0.57354
5955.90648,0.57075
5953.97776,0.57316
5952.04903,0.57403
5950.12031,0.57332
5948.19158,0.57261
5946.26285,0.57200
5944.33413,0.57382
5942.40540,0.57876
5940.47667,0.58293
5938.54795,0.58235
5936.61922,0.58031
5934.69050,0.58025
5932.76177,0.57634
5930.83304,0.56823
5928.90432,0.56622
5926.97559,0.57248
5925.04686,0.57952
5923.11814,0.58294
5921.18941,0.58168
5919.26069,0.57522
5917.33196,0.56573
5915.40323,0.56000
5913.47451,0.56307
5911.54578,0.56887
5909.61706,0.57032
5907.68833,0.56959
5905.75960,0.56939
5903.83088,0.56971
5901.90215,0.56908
5899.97342,0.56611
5898.04470,0.56400
5896.11597,0.56687
5894.18725,0.57314
5892.25852,0.57672
5890.32979,0.57463
5888.40107,0.56982
5886.47234,0.56658
5884.54361,0.56716
5882.61489,0.57060
5880.68616,0.57350
5878.75744,0.57435
5876.82871,0.57363
5874.89998,0.57058
5872.97126,0.56680
5871.04253,0.56594
5869.11381,0.56816
5867.18508,0.57070
5865.25635,0.57184
5863.32763,0.57421
5861.39890,0.57866
5859.47017,0.57965
5857.54145,0.57555
5855.61272,0.57034
5853.68400,0.56819
5851.75527,0.57094
5849.82654,0.57520
5847.89782,0.57746
5845.96909,0.57787
5844.04036,0.57699
5842.11164,0.57484
5840.18291,0.57158
5838.25419,0.56762
5836.32546,0.56396
5834.39673,0.56190
5832.46801,0.56164
5830.53928,0.56334
5828.61056,0.56705
5826.68183,0.57028
5824.75310,0.57085
5822.82438,0.57007
5820.89565,0.56839
5818.96692,0.56397
5817.03820,0.55925
5815.10947,0.55846
5813.18075,0.56049
5811.25202,0.56278
5809.32329,0.56390
5807.39457,0.56294
5805.46584,0.56223
5803.53711,0.56411
5801.60839,0.56564
5799.67966,0.56313
5797.75094,0.55838
5795.82221,0.55606
5793.89348,0.55806
5791.96476,0.56175
5790.03603,0.56467
5788.10731,0.56581
5786.17858,0.56330
5784.24985,0.55940
5782.32113,0.55742
5780.39240,0.55642
5778.46367,0.55664
5776.53495,0.55895
5774.60622,0.56243
5772.67750,0.56499
5770.74877,0.56515
5768.82004,0.56547
5766.89132,0.56794
5764.96259,0.57071
5763.03386,0.57178
5761.10514,0.56988
5759.17641,0.56632
5757.24769,0.56463
5755.31896,0.56470
5753.39023,0.56497
5751.46151,0.56670
5749.53278,0.56939
5747.60406,0.57173
5745.67533,0.57526
5743.74660,0.57971
5741.81788,0.58174
5739.88915,0.57962
5737.96042,0.57477
5736.03170,0.56979
5734.10297,0.56684
5732.17425,0.56747
5730.24552,0.57048
5728.31679,0.57302
5726.38807,0.57568
5724.45934,0.57990
5722.53061,0.58288
5720.60189,0.58220
5718.67316,0.57981
5716.74444,0.57741
5714.81571,0.57552
5712.88698,0.57523
5710.95826,0.57573
5709.02953,0.57437
5707.10081,0.57004
5705.17208,0.56442
5703.24335,0.56187
5701.31463,0.56521
5699.38590,0.57029
5697.45717,0.57249
5695.52845,0.57214
5693.59972,0.56845
5691.67100,0.56178
5689.74227,0.55750
5687.81354,0.55875
5685.88482,0.56331
5683.95609,0.56777
5682.02736,0.56866
5680.09864,0.56572
5678.16991,0.56523
5676.24119,0.56927
5674.31246,0.57182
5672.38373,0.57050
5670.45501,0.56828
5668.52628,0.56880
5666.59756,0.57255
5664.66883,0.57472
5662.74010,0.57206
5660.81138,0.56688
5658.88265,0.56249
5656.95392,0.56036
5655.02520,0.56056
5653.09647,0.56201
5651.16775,0.56263
5649.23902,0.56164
5647.31029,0.56167
5645.38157,0.56382
5643.45284,0.56485
5641.52411,0.56463
5639.59539,0.56687
5637.66666,0.57031
5635.73794,0.57132
5633.80921,0.57086
5631.88048,0.56951
5629.95176,0.56735
5628.02303,0.56758
5626.09430,0.56869
5624.16558,0.56706
5622.23685,0.56563
5620.30813,0.56738
5618.37940,0.56986
5616.45067,0.56988
5614.52195,0.56705
5612.59322,0.56356
5610.66450,0.56220
5608.73577,0.56347
5606.80704,0.56727
5604.87832,0.57285
5602.94959,0.57574
5601.02086,0.57326
5599.09214,0.56830
5597.16341,0.56476
5595.23469,0.56530
5593.30596,0.56835
5591.37723,0.57109
5589.44851,0.57255
5587.51978,0.57234
5585.59105,0.57065
5583.66233,0.56965
5581.73360,0.57171
5579.80488,0.57496
5577.87615,0.57492
5575.94742,0.57239
5574.01870,0.57309
5572.08997,0.57835
5570.16125,0.58205
5568.23252,0.57990
5566.30379,0.57562
5564.37507,0.57333
5562.44634,0.57440
5560.51761,0.57926
5558.58889,0.58425
5556.66016,0.58503
5554.73144,0.58176
5552.80271,0.57614
5550.87398,0.57018
5548.94526,0.56727
5547.01653,0.56824
5545.08780,0.56969
5543.15908,0.57199
5541.23035,0.57877
5539.30163,0.58673
5537.37290,0.58900
5535.44417,0.58425
5533.51545,0.57692
5531.58672,0.57229
5529.65800,0.57143
5527.72927,0.57122
5525.80054,0.57039
5523.87182,0.57053
5521.94309,0.57195
5520.01436,0.57400
5518.08564,0.57585
5516.15691,0.57589
5514.22819,0.57355
5512.29946,0.56980
5510.37073,0.56718
5508.44201,0.56816
5506.51328,0.57126
5504.58455,0.57289
5502.65583,0.57279
5500.72710,0.57352
5498.79838,0.57603
5496.86965,0.57667
5494.94092,0.57238
5493.01220,0.56777
5491.08347,0.56841
5489.15475,0.57265
5487.22602,0.57683
5485.29729,0.57930
5483.36857,0.57986
5481.43984,0.58010
5479.51111,0.58066
5477.58239,0.57934
5475.65366,0.57616
5473.72494,0.57532
5471.79621,0.57832
5469.86748,0.58143
5467.93876,0.58105
5466.01003,0.57822
5464.08130,0.57692
5462.15258,0.57893
5460.22385,0.58284
5458.29513,0.58678
5456.36640,0.58977
5454.43767,0.59115
5452.50895,0.59179
5450.58022,0.59221
5448.65150,0.59009
5446.72277,0.58680
5444.79404,0.58756
5442.86532,0.59153
5440.93659,0.59390
5439.00786,0.59296
5437.07914,0.59004
5435.15041,0.58921
5433.22169,0.59191
5431.29296,0.59288
5429.36423,0.59067
5427.43551,0.59088
5425.50678,0.59496
5423.57805,0.59938
5421.64933,0.60218
5419.72060,0.60102
5417.79188,0.59342
5415.86315,0.58360
5413.93442,0.57917
5412.00570,0.58134
5410.07697,0.58642
5408.14825,0.59045
5406.21952,0.59039
5404.29079,0.58767
5402.36207,0.58674
5400.43334,0.58955
5398.50461,0.59354
5396.57589,0.59487
5394.64716,0.59482
5392.71844,0.59685
5390.78971,0.59824
5388.86098,0.59538
5386.93226,0.59019
5385.00353,0.58676
5383.07480,0.58722
5381.14608,0.58890
5379.21735,0.58821
5377.28863,0.58749
5375.35990,0.59018
5373.43117,0.59394
5371.50245,0.59571
5369.57372,0.59570
5367.64500,0.59515
5365.71627,0.59409
5363.78754,0.59344
5361.85882,0.59536
5359.93009,0.59776
5358.00136,0.59528
5356.07264,0.58692
5354.14391,0.57910
5352.21519,0.57835
5350.28646,0.58148
5348.35773,0.58165
5346.42901,0.57890
5344.50028,0.57826
5342.57155,0.57953
5340.64283,0.57723
5338.71410,0.57317
5336.78538,0.57353
5334.85665,0.57559
5332.92792,0.57461
5330.99920,0.57344
5329.07047,0.57546
5327.14175,0.57929
5325.21302,0.58124
5323.28429,0.57884
5321.35557,0.57338
5319.42684,0.56853
5317.49811,0.56685
5315.56939,0.56777
5313.64066,0.56845
5311.71194,0.56681
5309.78321,0.56275
5307.85448,0.55915
5305.92576,0.55925
5303.99703,0.56011
5302.06830,0.55708
5300.13958,0.55214
5298.21085,0.54925
5296.28213,0.54827
5294.35340,0.54697
5292.42467,0.54282
5290.49595,0.53596
5288.56722,0.53056
5286.63849,0.52756
5284.70977,0.52332
5282.78104,0.51694
5280.85232,0.51157
5278.92359,0.50895
5276.99486,0.50678
5275.06614,0.50316
5273.13741,0.49884
5271.20869,0.49360
5269.27996,0.48670
5267.35123,0.47888
5265.42251,0.47045
5263.49378,0.46259
5261.56505,0.45883
5259.63633,0.45923
5257.70760,0.45940
5255.77888,0.45681
5253.85015,0.45209
5251.92142,0.44584
5249.99270,0.43888
5248.06397,0.43410
5246.13524,0.43299
5244.20652,0.43316
5242.27779,0.43222
5240.34907,0.42983
5238.42034,0.42652
5236.49161,0.42268
5234.56289,0.41819
5232.63416,0.41346
5230.70544,0.40966
5228.77671,0.40677
5226.84798,0.40369
5224.91926,0.40130
5222.99053,0.40176
5221.06180,0.40432
5219.13308,0.40612
5217.20435,0.40545
5215.27563,0.40262
5213.34690,0.39979
5211.41817,0.39879
5209.48945,0.39839
5207.56072,0.39679
5205.63199,0.39521
5203.70327,0.39492
5201.77454,0.39501
5199.84582,0.39447
5197.91709,0.39338
5195.98836,0.39325
5194.05964,0.39525
5192.13091,0.39823
5190.20219,0.40010
5188.27346,0.39952
5186.34473,0.39744
5184.41601,0.39626
5182.48728,0.39649
5180.55855,0.39749
5178.62983,0.39927
5176.70110,0.40081
5174.77238,0.40092
5172.84365,0.40056
5170.91492,0.40182
5168.98620,0.40457
5167.05747,0.40606
5165.12874,0.40549
5163.20002,0.40473
5161.27129,0.40476
5159.34257,0.40568
5157.41384,0.40649
5155.48511,0.40608
5153.55639,0.40652
5151.62766,0.40986
5149.69894,0.41492
5147.77021,0.41947
5145.84148,0.42162
5143.91276,0.42152
5141.98403,0.42114
5140.05530,0.42129
5138.12658,0.42219
5136.19785,0.42384
5134.26913,0.42482
5132.34040,0.42515
5130.41167,0.42704
5128.48295,0.43058
5126.55422,0.43343
5124.62549,0.43427
5122.69677,0.43361
5120.76804,0.43272
5118.83932,0.43247
5116.91059,0.43324
5114.98186,0.43484
5113.05314,0.43605
5111.12441,0.43737
5109.19569,0.44091
5107.26696,0.44521
5105.33823,0.44667
5103.40951,0.44536
5101.48078,0.44377
5099.55205,0.44264
5097.62333,0.44252
5095.69460,0.44513
5093.76588,0.44937
5091.83715,0.45187
5089.90842,0.45303
5087.97970,0.45482
5086.05097,0.45629
5084.12224,0.45681
5082.19352,0.45673
5080.26479,0.45603
5078.33607,0.45600
5076.40734,0.45775
5074.47861,0.46013
5072.54989,0.46211
5070.62116,0.46404
5068.69244,0.46610
5066.76371,0.46819
5064.83498,0.46993
5062.90626,0.46994
5060.97753,0.46714
5059.04880,0.46339
5057.12008,0.46271
5055.19135,0.46647
5053.26263,0.47172
5051.33390,0.47449
5049.40517,0.47403
5047.47645,0.47374
5045.54772,0.47572
5043.61899,0.47733
5041.69027,0.47693
5039.76154,0.47692
5037.83282,0.47910
5035.90409,0.48160
5033.97536,0.48155
5032.04664,0.47928
5030.11791,0.47781
5028.18919,0.47924
5026.26046,0.48299
5024.33173,0.48628
5022.40301,0.48650
5020.47428,0.48472
5018.54555,0.48457
5016.61683,0.48632
5014.68810,0.48705
5012.75938,0.48635
5010.83065,0.48588
5008.90192,0.48623
5006.97320,0.48748
5005.04447,0.48923
5003.11574,0.49040
5001.18702,0.49036
4999.25829,0.48935
4997.32957,0.48770
4995.40084,0.48697
4993.47211,0.48741
4991.54339,0.48830
4989.61466,0.48917
4987.68594,0.49024
4985.75721,0.49140
4983.82848,0.49115
4981.89976,0.48929
4979.97103,0.48788
4978.04230,0.48684
4976.11358,0.48520
4974.18485,0.48395
4972.25613,0.48334
4970.32740,0.48332
4968.39867,0.48369
4966.46995,0.48334
4964.54122,0.48281
4962.61249,0.48253
4960.68377,0.48169
4958.75504,0.48091
4956.82632,0.48103
4954.89759,0.48094
4952.96886,0.47925
4951.04014,0.47687
4949.11141,0.47561
4947.18269,0.47490
4945.25396,0.47340
4943.32523,0.47101
4941.39651,0.46829
4939.46778,0.46657
4937.53905,0.46642
4935.61033,0.46649
4933.68160,0.46522
4931.75288,0.46267
4929.82415,0.46033
4927.89542,0.45935
4925.96670,0.45943
4924.03797,0.45843
4922.10924,0.45511
4920.18052,0.45122
4918.25179,0.44839
4916.32307,0.44709
4914.39434,0.44680
4912.46561,0.44622
4910.53689,0.44519
4908.60816,0.44420
4906.67943,0.44336
4904.75071,0.44185
4902.82198,0.43921
4900.89326,0.43639
4898.96453,0.43382
4897.03580,0.43153
4895.10708,0.43031
4893.17835,0.43028
4891.24963,0.43003
4889.32090,0.42917
4887.39217,0.42806
4885.46345,0.42586
4883.53472,0.42302
4881.60599,0.42068
4879.67727,0.41894
4877.74854,0.41838
4875.81982,0.41855
4873.89109,0.41779
4871.96236,0.41541
4870.03364,0.41215
4868.10491,0.41019
4866.17618,0.41046
4864.24746,0.41062
4862.31873,0.40922
4860.39001,0.40750
4858.46128,0.40559
4856.53255,0.40376
4854.60383,0.40357
4852.67510,0.40428
4850.74638,0.40436
4848.81765,0.40373
4846.88892,0.40312
4844.96020,0.40260
4843.03147,0.40107
4841.10274,0.39861
4839.17402,0.39611
4837.24529,0.39429
4835.31657,0.39402
4833.38784,0.39337
4831.45911,0.39084
4829.53039,0.38925
4827.60166,0.38938
4825.67293,0.38899
4823.74421,0.38785
4821.81548,0.38625
4819.88676,0.38459
4817.95803,0.38445
4816.02930,0.38556
4814.10058,0.38594
4812.17185,0.38480
4810.24313,0.38307
4808.31440,0.38230
4806.38567,0.38272
4804.45695,0.38303
4802.52822,0.38218
4800.59949,0.38056
4798.67077,0.37944
4796.74204,0.37936
4794.81332,0.37937
4792.88459,0.37889
4790.95586,0.37956
4789.02714,0.38134
4787.09841,0.38134
4785.16968,0.37932
4783.24096,0.37745
4781.31223,0.37613
4779.38351,0.37482
4777.45478,0.37396
4775.52605,0.37392
4773.59733,0.37396
4771.66860,0.37346
4769.73988,0.37328
4767.81115,0.37413
4765.88242,0.37452
4763.95370,0.37288
4762.02497,0.36989
4760.09624,0.36770
4758.16752,0.36746
4756.23879,0.36749
4754.31007,0.36700
4752.38134,0.36787
4750.45261,0.36965
4748.52389,0.37041
4746.59516,0.37020
4744.66643,0.36931
4742.73771,0.36810
4740.80898,0.36774
4738.88026,0.36881
4736.95153,0.37068
4735.02280,0.37166
4733.09408,0.37148
4731.16535,0.37197
4729.23663,0.37341
4727.30790,0.37418
4725.37917,0.37383
4723.45045,0.37319
4721.52172,0.37276
4719.59299,0.37287
4717.66427,0.37331
4715.73554,0.37330
4713.80682,0.37394
4711.87809,0.37593
4709.94936,0.37653
4708.02064,0.37498
4706.09191,0.37441
4704.16318,0.37589
4702.23446,0.37788
4700.30573,0.37943
4698.37701,0.38035
4696.44828,0.38051
4694.51955,0.38001
4692.59083,0.37947
4690.66210,0.37971
4688.73338,0.38034
4686.80465,0.38023
4684.87592,0.37991
4682.94720,0.38073
4681.01847,0.38184
4679.08974,0.38205
4677.16102,0.38224
4675.23229,0.38236
4673.30357,0.38155
4671.37484,0.38098
4669.44611,0.38102
4667.51739,0.38079
4665.58866,0.38116
4663.65993,0.38252
4661.73121,0.38350
4659.80248,0.38368
4657.87376,0.38400
4655.94503,0.38455
4654.01630,0.38519
4652.08758,0.38631
4650.15885,0.38748
4648.23013,0.38814
4646.30140,0.38878
4644.37267,0.39000
4642.44395,0.39151
4640.51522,0.39223
4638.58649,0.39160
4636.65777,0.39048
4634.72904,0.39082
4632.80032,0.39307
4630.87159,0.39519
4628.94286,0.39599
4627.01414,0.39617
4625.08541,0.39668
4623.15668,0.39717
4621.22796,0.39678
4619.29923,0.39683
4617.37051,0.39870
4615.44178,0.40073
4613.51305,0.40112
4611.58433,0.40072
4609.65560,0.40122
4607.72688,0.40268
4605.79815,0.40408
4603.86942,0.40504
4601.94070,0.40579
4600.01197,0.40661
4598.08324,0.40734
4596.15452,0.40805
4594.22579,0.40968
4592.29707,0.41171
4590.36834,0.41220
4588.43961,0.41169
4586.51089,0.41223
4584.58216,0.41333
4582.65343,0.41410
4580.72471,0.41518
4578.79598,0.41559
4576.86726,0.41459
4574.93853,0.41465
4573.00980,0.41682
4571.08108,0.41860
4569.15235,0.41888
4567.22363,0.41915
4565.29490,0.42001
4563.36617,0.42099
4561.43745,0.42143
4559.50872,0.42111
4557.57999,0.42129
4555.65127,0.42215
4553.72254,0.42255
4551.79382,0.42261
4549.86509,0.42312
4547.93636,0.42416
4546.00764,0.42495
4544.07891,0.42498
4542.15018,0.42520
4540.22146,0.42614
4538.29273,0.42657
4536.36401,0.42622
4534.43528,0.42680
4532.50655,0.42887
4530.57783,0.43035
4528.64910,0.42935
4526.72037,0.42752
4524.79165,0.42713
4522.86292,0.42750
4520.93420,0.42777
4519.00547,0.42803
4517.07674,0.42763
4515.14802,0.42677
4513.21929,0.42675
4511.29057,0.42702
4509.36184,0.42628
4507.43311,0.42564
4505.50439,0.42586
4503.57566,0.42561
4501.64693,0.42507
4499.71821,0.42535
4497.78948,0.42530
4495.86076,0.42411
4493.93203,0.42303
4492.00330,0.42247
4490.07458,0.42135
4488.14585,0.41915
4486.21712,0.41625
4484.28840,0.41341
4482.35967,0.41109
4480.43095,0.40920
4478.50222,0.40754
4476.57349,0.40591
4474.64477,0.40438
4472.71604,0.40291
4470.78732,0.40110
4468.85859,0.39890
4466.92986,0.39620
4465.00114,0.39272
4463.07241,0.38926
4461.14368,0.38644
4459.21496,0.38368
4457.28623,0.38106
4455.35751,0.37913
4453.42878,0.37726
4451.50005,0.37474
4449.57133,0.37187
4447.64260,0.36924
4445.71387,0.36707
4443.78515,0.36517
4441.85642,0.36333
4439.92770,0.36127
4437.99897,0.35851
4436.07024,0.35564
4434.14152,0.35393
4432.21279,0.35310
4430.28407,0.35201
4428.35534,0.34992
4426.42661,0.34681
4424.49789,0.34407
4422.56916,0.34251
4420.64043,0.34105
4418.71171,0.33881
4416.78298,0.33618
4414.85426,0.33412
4412.92553,0.33290
4410.99680,0.33200
4409.06808,0.33113
4407.13935,0.33038
4405.21062,0.33014
4403.28190,0.33025
4401.35317,0.32976
4399.42445,0.32865
4397.49572,0.32769
4395.56699,0.32741
4393.63827,0.32789
4391.70954,0.32841
4389.78082,0.32841
4387.85209,0.32870
4385.92336,0.32996
4383.99464,0.33155
4382.06591,0.33277
4380.13718,0.33322
4378.20846,0.33315
4376.27973,0.33360
4374.35101,0.33498
4372.42228,0.33685
4370.49355,0.33838
4368.56483,0.33890
4366.63610,0.33889
4364.70737,0.33915
4362.77865,0.33964
4360.84992,0.34003
4358.92120,0.33987
4356.99247,0.33902
4355.06374,0.33817
4353.13502,0.33807
4351.20629,0.33822
4349.27757,0.33731
4347.34884,0.33560
4345.42011,0.33449
4343.49139,0.33396
4341.56266,0.33336
4339.63393,0.33281
4337.70521,0.33221
4335.77648,0.33133
4333.84776,0.33050
4331.91903,0.32978
4329.99030,0.32898
4328.06158,0.32799
4326.13285,0.32640
4324.20412,0.32422
4322.27540,0.32265
4320.34667,0.32240
4318.41795,0.32261
4316.48922,0.32269
4314.56049,0.32340
4312.63177,0.32479
4310.70304,0.32548
4308.77432,0.32498
4306.84559,0.32388
4304.91686,0.32243
4302.98814,0.32119
4301.05941,0.32069
4299.13068,0.32023
4297.20196,0.31933
4295.27323,0.31865
4293.34451,0.31870
4291.41578,0.31930
4289.48705,0.31953
4287.55833,0.31866
4285.62960,0.31739
4283.70087,0.31683
4281.77215,0.31681
4279.84342,0.31652
4277.91470,0.31578
4275.98597,0.31499
4274.05724,0.31474
4272.12852,0.31530
4270.19979,0.31622
4268.27107,0.31706
4266.34234,0.31759
4264.41361,0.31790
4262.48489,0.31812
4260.55616,0.31812
4258.62743,0.31795
4256.69871,0.31764
4254.76998,0.31708
4252.84126,0.31679
4250.91253,0.31732
4248.98380,0.31840
4247.05508,0.31944
4245.12635,0.32029
4243.19762,0.32091
4241.26890,0.32114
4239.34017,0.32098
4237.41145,0.32089
4235.48272,0.32124
4233.55399,0.32187
4231.62527,0.32218
4229.69654,0.32196
4227.76782,0.32171
4225.83909,0.32181
4223.91036,0.32202
4221.98164,0.32195
4220.05291,0.32160
4218.12418,0.32109
4216.19546,0.32080
4214.26673,0.32141
4212.33801,0.32252
4210.40928,0.32337
4208.48055,0.32390
4206.55183,0.32378
4204.62310,0.32349
4202.69437,0.32391
4200.76565,0.32437
4198.83692,0.32431
4196.90820,0.32416
4194.97947,0.32414
4193.05074,0.32439
4191.12202,0.32469
4189.19329,0.32433
4187.26456,0.32359
4185.33584,0.32337
4183.40711,0.32365
4181.47839,0.32378
4179.54966,0.32380
4177.62093,0.32428
4175.69221,0.32532
4173.76348,0.32662
4171.83476,0.32781
4169.90603,0.32875
4167.97730,0.32921
4166.04858,0.32900
4164.11985,0.32877
4162.19112,0.32889
4160.26240,0.32869
4158.33367,0.32798
4156.40495,0.32732
4154.47622,0.32685
4152.54749,0.32637
4150.61877,0.32584
4148.69004,0.32511
4146.76131,0.32427
4144.83259,0.32342
4142.90386,0.32228
4140.97514,0.32095
4139.04641,0.31987
4137.11768,0.31921
4135.18896,0.31900
4133.26023,0.31894
4131.33151,0.31860
4129.40278,0.31771
4127.47405,0.31631
4125.54533,0.31479
4123.61660,0.31348
4121.68787,0.31246
4119.75915,0.31181
4117.83042,0.31102
4115.90170,0.30968
4113.97297,0.30817
4112.04424,0.30673
4110.11552,0.30532
4108.18679,0.30381
4106.25806,0.30225
4104.32934,0.30088
4102.40061,0.29944
4100.47189,0.29752
4098.54316,0.29557
4096.61443,0.29439
4094.68571,0.29358
4092.75698,0.29193
4090.82826,0.28947
4088.89953,0.28753
4086.97080,0.28671
4085.04208,0.28599
4083.11335,0.28421
4081.18462,0.28160
4079.25590,0.27946
4077.32717,0.27819
4075.39845,0.27698
4073.46972,0.27569
4071.54099,0.27437
4069.61227,0.27243
4067.68354,0.26997
4065.75481,0.26785
4063.82609,0.26635
4061.89736,0.26497
4059.96864,0.26361
4058.03991,0.26255
4056.11118,0.26136
4054.18246,0.25969
4052.25373,0.25782
4050.32501,0.25607
4048.39628,0.25440
4046.46755,0.25288
4044.53883,0.25190
4042.61010,0.25137
4040.68137,0.25060
4038.75265,0.24931
4036.82392,0.24778
4034.89520,0.24654
4032.96647,0.24594
4031.03774,0.24573
4029.10902,0.24540
4027.18029,0.24454
4025.25156,0.24340
4023.32284,0.24289
4021.39411,0.24307
4019.46539,0.24328
4017.53666,0.24320
4015.60793,0.24298
4013.67921,0.24308
4011.75048,0.24361
4009.82176,0.24402
4007.89303,0.24417
4005.96430,0.24446
4004.03558,0.24466
4002.10685,0.24454
4000.17812,0.24453
3998.24940,0.24481
3996.32067,0.24550
3994.39195,0.24626
3992.46322,0.24711
3990.53449,0.24817
3988.60577,0.24894
3986.67704,0.24883
3984.74831,0.24823
3982.81959,0.24815
3980.89086,0.24881
3978.96214,0.24955
3977.03341,0.24991
3975.10468,0.24999
3973.17596,0.24995
3971.24723,0.25003
3969.31851,0.25053
3967.38978,0.25133
3965.46105,0.25197
3963.53233,0.25258
3961.60360,0.25351
3959.67487,0.25457
3957.74615,0.25530
3955.81742,0.25554
3953.88870,0.25571
3951.95997,0.25614
3950.03124,0.25674
3948.10252,0.25739
3946.17379,0.25818
3944.24506,0.25906
3942.31634,0.25977
3940.38761,0.26019
3938.45889,0.26079
3936.53016,0.26203
3934.60143,0.26363
3932.67271,0.26533
3930.74398,0.26716
3928.81526,0.26862
3926.88653,0.26926
3924.95780,0.26917
3923.02908,0.26864
3921.10035,0.26840
3919.17162,0.26917
3917.24290,0.27087
3915.31417,0.27249
3913.38545,0.27310
3911.45672,0.27282
3909.52799,0.27230
3907.59927,0.27219
3905.67054,0.27313
3903.74181,0.27485
3901.81309,0.27616
3899.88436,0.27690
3897.95564,0.27754
3896.02691,0.27819
3894.09818,0.27900
3892.16946,0.27984
3890.24073,0.28015
3888.31201,0.28016
3886.38328,0.28077
3884.45455,0.28223
3882.52583,0.28353
3880.59710,0.28391
3878.66837,0.28348
3876.73965,0.28292
3874.81092,0.28297
3872.88220,0.28386
3870.95347,0.28522
3869.02474,0.28649
3867.09602,0.28724
3865.16729,0.28772
3863.23856,0.28853
3861.30984,0.28928
3859.38111,0.28924
3857.45239,0.28829
3855.52366,0.28738
3853.59493,0.28875
3851.66621,0.29239
3849.73748,0.29481
3847.80876,0.29509
3845.88003,0.29471
3843.95130,0.29481
3842.02258,0.29558
3840.09385,0.29681
3838.16512,0.29831
3836.23640,0.29941
3834.30767,0.29950
3832.37895,0.29915
3830.45022,0.29909
3828.52149,0.29921
3826.59277,0.29917
3824.66404,0.29896
3822.73531,0.29873
3820.80659,0.29841
3818.87786,0.29812
3816.94914,0.29839
3815.02041,0.29910
3813.09168,0.29932
3811.16296,0.29868
3809.23423,0.29771
3807.30550,0.29688
3805.37678,0.29653
3803.44805,0.29689
3801.51933,0.29777
3799.59060,0.29846
3797.66187,0.29872
3795.73315,0.29893
3793.80442,0.29912
3791.87570,0.29900
3789.94697,0.29853
3788.01824,0.29785
3786.08952,0.29725
3784.16079,0.29708
3782.23206,0.29726
3780.30334,0.29722
3778.37461,0.29670
3776.44589,0.29582
3774.51716,0.29471
3772.58843,0.29374
3770.65971,0.29316
3768.73098,0.29250
3766.80225,0.29127
3764.87353,0.28975
3762.94480,0.28858
3761.01608,0.28805
3759.08735,0.28755
3757.15862,0.28637
3755.22990,0.28489
3753.30117,0.28345
3751.37245,0.28171
3749.44372,0.27966
3747.51499,0.27776
3745.58627,0.27600
3743.65754,0.27525
3741.72881,0.27508
3739.80009,0.27430
3737.87136,0.27306
3735.94264,0.27173
3734.01391,0.27012
3732.08518,0.26818
3730.15646,0.26665
3728.22773,0.26572
3726.29900,0.26474
3724.37028,0.26319
3722.44155,0.26135
3720.51283,0.25981
3718.58410,0.25866
3716.65537,0.25738
3714.72665,0.25520
3712.79792,0.25164
3710.86920,0.24747
3708.94047,0.24420
3707.01174,0.24172
3705.08302,0.23916
3703.15429,0.23615
3701.22556,0.23270
3699.29684,0.22918
3697.36811,0.22566
3695.43939,0.22165
3693.51066,0.21713
3691.58193,0.21227
3689.65321,0.20678
3687.72448,0.20117
3685.79575,0.19641
3683.86703,0.19214
3681.93830,0.18775
3680.00958,0.18328
3678.08085,0.17829
3676.15212,0.17150
3674.22340,0.16394
3672.29467,0.15811
3670.36595,0.15287
3668.43722,0.14720
3666.50849,0.14215
3664.57977,0.13767
3662.65104,0.13311
3660.72231,0.12834
3658.79359,0.12338
3656.86486,0.11832
3654.93614,0.11387
3653.00741,0.11051
3651.07868,0.10716
3649.14996,0.10313
3647.22123,0.09969
3645.29250,0.09724
3643.36378,0.09488
3641.43505,0.09223
3639.50633,0.08947
3637.57760,0.08685
3635.64887,0.08440
3633.72015,0.08192
3631.79142,0.07964
3629.86270,0.07798
3627.93397,0.07671
3626.00524,0.07538
3624.07652,0.07406
3622.14779,0.07273
3620.21906,0.07104
3618.29034,0.06920
3616.36161,0.06793
3614.43289,0.06687
3612.50416,0.06528
3610.57543,0.06359
3608.64671,0.06233
3606.71798,0.06127
3604.78925,0.06021
3602.86053,0.05914
3600.93180,0.05782
3599.00308,0.05630
3597.07435,0.05513
3595.14562,0.05450
3593.21690,0.05403
3591.28817,0.05340
3589.35945,0.05253
3587.43072,0.05157
3585.50199,0.05078
3583.57327,0.05009
3581.64454,0.04939
3579.71581,0.04867
3577.78709,0.04781
3575.85836,0.04678
3573.92964,0.04579
3572.00091,0.04500
3570.07218,0.04448
3568.14346,0.04408
3566.21473,0.04352
3564.28600,0.04293
3562.35728,0.04240
3560.42855,0.04174
3558.49983,0.04085
3556.57110,0.03998
3554.64237,0.03947
3552.71365,0.03936
3550.78492,0.03946
3548.85620,0.03960
3546.92747,0.03957
3544.99874,0.03912
3543.07002,0.03841
3541.14129,0.03785
3539.21256,0.03758
3537.28384,0.03727
3535.35511,0.03658
3533.42639,0.03570
3531.49766,0.03528
3529.56893,0.03548
3527.64021,0.03561
3525.71148,0.03504
3523.78275,0.03423
3521.85403,0.03376
3519.92530,0.03356
3517.99658,0.03341
3516.06785,0.03335
3514.13912,0.03339
3512.21040,0.03337
3510.28167,0.03313
3508.35295,0.03260
3506.42422,0.03212
3504.49549,0.03211
3502.56677,0.03247
3500.63804,0.03270
3498.70931,0.03275
3496.78059,0.03279
3494.85186,0.03265
3492.92314,0.03218
3490.99441,0.03152
3489.06568,0.03099
3487.13696,0.03089
3485.20823,0.03106
3483.27950,0.03114
3481.35078,0.03098
3479.42205,0.03061
3477.49333,0.03012
3475.56460,0.02970
3473.63587,0.02951
3471.70715,0.02956
3469.77842,0.02974
3467.84970,0.02985
3465.92097,0.02984
3463.99224,0.02967
3462.06352,0.02936
3460.13479,0.02913
3458.20606,0.02912
3456.27734,0.02906
3454.34861,0.02877
3452.41989,0.02865
3450.49116,0.02891
3448.56243,0.02916
3446.63371,0.02915
3444.70498,0.02919
3442.77625,0.02916
3440.84753,0.02861
3438.91880,0.02790
3436.99008,0.02778
3435.06135,0.02831
3433.13262,0.02898
3431.20390,0.02926
3429.27517,0.02904
3427.34644,0.02857
3425.41772,0.02813
3423.48899,0.02791
3421.56027,0.02811
3419.63154,0.02841
3417.70281,0.02810
3415.77409,0.02745
3413.84536,0.02713
3411.91664,0.02728
3409.98791,0.02765
3408.05918,0.02794
3406.13046,0.02800
3404.20173,0.02774
3402.27300,0.02724
3400.34428,0.02696
3398.41555,0.02732
3396.48683,0.02819
3394.55810,0.02888
3392.62937,0.02910
3390.70065,0.02909
3388.77192,0.02895
3386.84319,0.02893
3384.91447,0.02936
3382.98574,0.02995
3381.05702,0.03008
3379.12829,0.02977
3377.19956,0.02950
3375.27084,0.02934
3373.34211,0.02903
3371.41339,0.02861
3369.48466,0.02837
3367.55593,0.02834
3365.62721,0.02847
3363.69848,0.02876
3361.76975,0.02903
3359.84103,0.02895
3357.91230,0.02863
3355.98358,0.02868
3354.05485,0.02923
3352.12612,0.02957
3350.19740,0.02934
3348.26867,0.02908
3346.33994,0.02915
3344.41122,0.02947
3342.48249,0.02995
3340.55377,0.03033
3338.62504,0.03039
3336.69631,0.03033
3334.76759,0.03023
3332.83886,0.02999
3330.91014,0.02995
3328.98141,0.03030
3327.05268,0.03076
3325.12396,0.03127
3323.19523,0.03191
3321.26650,0.03227
3319.33778,0.03215
3317.40905,0.03208
3315.48033,0.03228
3313.55160,0.03247
3311.62287,0.03251
3309.69415,0.03261
3307.76542,0.03289
3305.83669,0.03309
3303.90797,0.03310
3301.97924,0.03326
3300.05052,0.03358
3298.12179,0.03364
3296.19306,0.03346
3294.26434,0.03350
3292.33561,0.03367
3290.40689,0.03344
3288.47816,0.03308
3286.54943,0.03316
3284.62071,0.03355
3282.69198,0.03400
3280.76325,0.03447
3278.83453,0.03480
3276.90580,0.03496
3274.97708,0.03510
3273.04835,0.03529
3271.11962,0.03551
3269.19090,0.03573
3267.26217,0.03596
3265.33344,0.03639
3263.40472,0.03711
3261.47599,0.03786
3259.54727,0.03831
3257.61854,0.03833
3255.68981,0.03824
3253.76109,0.03841
3251.83236,0.03887
3249.90364,0.03926
3247.97491,0.03926
3246.04618,0.03907
3244.11746,0.03933
3242.18873,0.04003
3240.26000,0.04043
3238.33128,0.04044
3236.40255,0.04050
3234.47383,0.04068
3232.54510,0.04115
3230.61637,0.04208
3228.68765,0.04276
3226.75892,0.04281
3224.83019,0.04289
3222.90147,0.04323
3220.97274,0.04343
3219.04402,0.04354
3217.11529,0.04379
3215.18656,0.04423
3213.25784,0.04491
3211.32911,0.04552
3209.40039,0.04579
3207.47166,0.04606
3205.54293,0.04631
3203.61421,0.04631
3201.68548,0.04640
3199.75675,0.04684
3197.82803,0.04731
3195.89930,0.04769
3193.97058,0.04825
3192.04185,0.04887
3190.11312,0.04919
3188.18440,0.04932
3186.25567,0.04963
3184.32694,0.05009
3182.39822,0.05027
3180.46949,0.05027
3178.54077,0.05055
3176.61204,0.05118
3174.68331,0.05198
3172.75459,0.05263
3170.82586,0.05286
3168.89714,0.05298
3166.96841,0.05329
3165.03968,0.05360
3163.11096,0.05385
3161.18223,0.05420
3159.25350,0.05476
3157.32478,0.05553
3155.39605,0.05645
3153.46733,0.05713
3151.53860,0.05746
3149.60987,0.05793
3147.68115,0.05853
3145.75242,0.05876
3143.82369,0.05872
3141.89497,0.05884
3139.96624,0.05903
3138.03752,0.05910
3136.10879,0.05928
3134.18006,0.05993
3132.25134,0.06084
3130.32261,0.06150
3128.39389,0.06198
3126.46516,0.06260
3124.53643,0.06325
3122.60771,0.06362
3120.67898,0.06369
3118.75025,0.06381
3116.82153,0.06423
3114.89280,0.06496
3112.96408,0.06580
3111.03535,0.06646
3109.10662,0.06672
3107.17790,0.06684
3105.24917,0.06711
3103.32044,0.06744
3101.39172,0.06800
3099.46299,0.06898
3097.53427,0.06969
3095.60554,0.06983
3093.67681,0.06996
3091.74809,0.07029
3089.81936,0.07062
3087.89063,0.07086
3085.96191,0.07102
3084.03318,0.07128
3082.10446,0.07171
3080.17573,0.07228
3078.24700,0.07298
3076.31828,0.07361
3074.38955,0.07385
3072.46083,0.07375
3070.53210,0.07378
3068.60337,0.07438
3066.67465,0.07520
3064.74592,0.07558
3062.81719,0.07577
3060.88847,0.07627
3058.95974,0.07683
3057.03102,0.07719
3055.10229,0.07748
3053.17356,0.07780
3051.24484,0.07812
3049.31611,0.07847
3047.38738,0.07894
3045.45866,0.07934
3043.52993,0.07949
3041.60121,0.07961
3039.67248,0.07975
3037.74375,0.07980
3035.81503,0.07991
3033.88630,0.08004
3031.95758,0.07989
3030.02885,0.07959
3028.10012,0.07961
3026.17140,0.08006
3024.24267,0.08060
3022.31394,0.08073
3020.38522,0.08042
3018.45649,0.08005
3016.52777,0.07984
3014.59904,0.07965
3012.67031,0.07929
3010.74159,0.07857
3008.81286,0.07777
3006.88413,0.07736
3004.95541,0.07715
3003.02668,0.07680
3001.09796,0.07649
2999.16923,0.07628
2997.24050,0.07589
2995.31178,0.07538
2993.38305,0.07495
2991.45433,0.07459
2989.52560,0.07391
2987.59687,0.07262
2985.66815,0.07120
2983.73942,0.07022
2981.81069,0.06939
2979.88197,0.06836
2977.95324,0.06713
2976.02452,0.06562
2974.09579,0.06398
2972.16706,0.06252
2970.23834,0.06113
2968.30961,0.05981
2966.38088,0.05878
2964.45216,0.05814
2962.52343,0.05783
2960.59471,0.05755
2958.66598,0.05700
2956.73725,0.05626
2954.80853,0.05553
2952.87980,0.05466
2950.95108,0.05343
2949.02235,0.05222
2947.09362,0.05140
2945.16490,0.05065
2943.23617,0.04990
2941.30744,0.04955
2939.37872,0.04962
2937.44999,0.04974
2935.52127,0.04958
2933.59254,0.04909
2931.66381,0.04865
2929.73509,0.04853
2927.80636,0.04847
2925.87763,0.04820
2923.94891,0.04784
2922.02018,0.04736
2920.09146,0.04683
2918.16273,0.04671
2916.23400,0.04724
2914.30528,0.04793
2912.37655,0.04828
2910.44783,0.04838
2908.51910,0.04847
2906.59037,0.04877
2904.66165,0.04929
2902.73292,0.04969
2900.80419,0.04993
2898.87547,0.05029
2896.94674,0.05074
2895.01802,0.05115
2893.08929,0.05160
2891.16056,0.05206
2889.23184,0.05248
2887.30311,0.05317
2885.37438,0.05416
2883.44566,0.05471
2881.51693,0.05452
2879.58821,0.05438
2877.65948,0.05488
2875.73075,0.05555
2873.80203,0.05584
2871.87330,0.05590
2869.94458,0.05604
2868.01585,0.05628
2866.08712,0.05652
2864.15840,0.05687
2862.22967,0.05733
2860.30094,0.05766
2858.37222,0.05772
2856.44349,0.05776
2854.51477,0.05796
2852.58604,0.05821
2850.65731,0.05864
2848.72859,0.05967
2846.79986,0.06138
2844.87113,0.06325
2842.94241,0.06490
2841.01368,0.06657
2839.08496,0.06861
2837.15623,0.07079
2835.22750,0.07271
2833.29878,0.07438
2831.37005,0.07591
2829.44133,0.07736
2827.51260,0.07889
2825.58387,0.08041
2823.65515,0.08190
2821.72642,0.08341
2819.79769,0.08473
2817.86897,0.08592
2815.94024,0.08735
2814.01152,0.08895
2812.08279,0.09029
2810.15406,0.09112
2808.22534,0.09158
2806.29661,0.09214
2804.36788,0.09303
2802.43916,0.09401
2800.51043,0.09483
2798.58171,0.09557
2796.65298,0.09625
2794.72425,0.09685
2792.79553,0.09760
2790.86680,0.09842
2788.93808,0.09881
2787.00935,0.09891
2785.08062,0.09925
2783.15190,0.09960
2781.22317,0.09970
2779.29444,0.09997
2777.36572,0.10048
2775.43699,0.10076
2773.50827,0.10089
2771.57954,0.10128
2769.65081,0.10180
2767.72209,0.10209
2765.79336,0.10224
2763.86463,0.10255
2761.93591,0.10292
2760.00718,0.10315
2758.07846,0.10337
2756.14973,0.10368
2754.22100,0.10381
2752.29228,0.10357
2750.36355,0.10332
2748.43483,0.10333
2746.50610,0.10346
2744.57737,0.10371
2742.64865,0.10407
2740.71992,0.10426
2738.79119,0.10431
2736.86247,0.10451
2734.93374,0.10467
2733.00502,0.10466
2731.07629,0.10483
2729.14756,0.10526
2727.21884,0.10571
2725.29011,0.10621
2723.36138,0.10658
2721.43266,0.10676
2719.50393,0.10710
2717.57521,0.10763
2715.64648,0.10825
2713.71775,0.10900
2711.78903,0.10974
2709.86030,0.11028
2707.93157,0.11071
2706.00285,0.11122
2704.07412,0.11186
2702.14540,0.11260
2700.21667,0.11331
2698.28794,0.11397
2696.35922,0.11460
2694.43049,0.11512
2692.50177,0.11563
2690.57304,0.11629
2688.64431,0.11694
2686.71559,0.11754
2684.78686,0.11812
2682.85813,0.11854
2680.92941,0.11880
2679.00068,0.11914
2677.07196,0.11961
2675.14323,0.12002
2673.21450,0.12039
2671.28578,0.12094
2669.35705,0.12153
2667.42832,0.12184
2665.49960,0.12205
2663.57087,0.12236
2661.64215,0.12263
2659.71342,0.12280
2657.78469,0.12302
2655.85597,0.12333
2653.92724,0.12374
2651.99852,0.12423
2650.06979,0.12458
2648.14106,0.12477
2646.21234,0.12513
2644.28361,0.12552
2642.35488,0.12561
2640.42616,0.12575
2638.49743,0.12623
2636.56871,0.12678
2634.63998,0.12724
2632.71125,0.12759
2630.78253,0.12789
2628.85380,0.12831
2626.92507,0.12901
2624.99635,0.12993
2623.06762,0.13077
2621.13890,0.13122
2619.21017,0.13129
2617.28144,0.13139
2615.35272,0.13188
2613.42399,0.13246
2611.49527,0.13283
2609.56654,0.13318
2607.63781,0.13364
2605.70909,0.13407
2603.78036,0.13436
2601.85163,0.13448
2599.92291,0.13463
2597.99418,0.13486
2596.06546,0.13497
2594.13673,0.13507
2592.20800,0.13525
2590.27928,0.13545
2588.35055,0.13587
2586.42182,0.13633
2584.49310,0.13652
2582.56437,0.13665
2580.63565,0.13691
2578.70692,0.13729
2576.77819,0.13779
2574.84947,0.13824
2572.92074,0.13828
2570.99202,0.13796
2569.06329,0.13779
2567.13456,0.13799
2565.20584,0.13833
2563.27711,0.13859
2561.34838,0.13866
2559.41966,0.13877
2557.49093,0.13910
2555.56221,0.13948
2553.63348,0.13974
2551.70475,0.13988
2549.77603,0.13994
2547.84730,0.13984
2545.91857,0.13963
2543.98985,0.13951
2542.06112,0.13967
2540.13240,0.13998
2538.20367,0.14026
2536.27494,0.14061
2534.34622,0.14092
2532.41749,0.14112
2530.48877,0.14133
2528.56004,0.14151
2526.63131,0.14163
2524.70259,0.14185
2522.77386,0.14214
2520.84513,0.14237
2518.91641,0.14259
2516.98768,0.14295
2515.05896,0.14346
2513.13023,0.14403
2511.20150,0.14471
2509.27278,0.14550
2507.34405,0.14629
2505.41532,0.14699
2503.48660,0.14751
2501.55787,0.14798
2499.62915,0.14861
2497.70042,0.14935
2495.77169,0.15027
2493.84297,0.15128
2491.91424,0.15206
2489.98552,0.15269
2488.05679,0.15337
2486.12806,0.15405
2484.19934,0.15458
2482.27061,0.15503
2480.34188,0.15563
2478.41316,0.15625
2476.48443,0.15667
2474.55571,0.15713
2472.62698,0.15772
2470.69825,0.15822
2468.76953,0.15869
2466.84080,0.15929
2464.91207,0.15986
2462.98335,0.16023
2461.05462,0.16035
2459.12590,0.16033
2457.19717,0.16065
2455.26844,0.16148
2453.33972,0.16230
2451.41099,0.16275
2449.48227,0.16311
2447.55354,0.16371
2445.62481,0.16446
2443.69609,0.16502
2441.76736,0.16536
2439.83863,0.16580
2437.90991,0.16652
2435.98118,0.16715
2434.05246,0.16758
2432.12373,0.16817
2430.19500,0.16898
2428.26628,0.16976
2426.33755,0.17050
2424.40882,0.17122
2422.48010,0.17182
2420.55137,0.17228
2418.62265,0.17275
2416.69392,0.17331
2414.76519,0.17404
2412.83647,0.17492
2410.90774,0.17565
2408.97902,0.17613
2407.05029,0.17654
2405.12156,0.17711
2403.19284,0.17792
2401.26411,0.17879
2399.33538,0.17930
2397.40666,0.17946
2395.47793,0.17959
2393.54921,0.17975
2391.62048,0.17984
2389.69175,0.17990
2387.76303,0.17991
2385.83430,0.17978
2383.90557,0.17939
2381.97685,0.17882
2380.04812,0.17835
2378.11940,0.17816
2376.19067,0.17801
2374.26194,0.17748
2372.33322,0.17677
2370.40449,0.17634
2368.47576,0.17636
2366.54704,0.17694
2364.61831,0.17775
2362.68959,0.17814
2360.76086,0.17815
2358.83213,0.17744
2356.90341,0.17580
2354.97468,0.17447
2353.04596,0.17423
2351.11723,0.17438
2349.18850,0.17397
2347.25978,0.17287
2345.33105,0.17219
2343.40232,0.17289
2341.47360,0.17423
2339.54487,0.17495
2337.61615,0.17504
2335.68742,0.17531
2333.75869,0.17592
2331.82997,0.17649
2329.90124,0.17697
2327.97251,0.17768
2326.04379,0.17870
2324.11506,0.17964
2322.18634,0.18033
2320.25761,0.18085
2318.32888,0.18121
2316.40016,0.18127
2314.47143,0.18098
2312.54271,0.18048
2310.61398,0.18002
2308.68525,0.17982
2306.75653,0.17979
2304.82780,0.17957
2302.89907,0.17911
2300.97035,0.17858
2299.04162,0.17793
2297.11290,0.17709
2295.18417,0.17617
2293.25544,0.17534
2291.32672,0.17463
2289.39799,0.17385
2287.46926,0.17293
2285.54054,0.17206
2283.61181,0.17137
2281.68309,0.17079
2279.75436,0.17029
2277.82563,0.17008
2275.89691,0.17022
2273.96818,0.17055
2272.03946,0.17090
2270.11073,0.17126
2268.18200,0.17174
2266.25328,0.17240
2264.32455,0.17302
2262.39582,0.17341
2260.46710,0.17361
2258.53837,0.17370
2256.60965,0.17378
2254.68092,0.17395
2252.75219,0.17423
2250.82347,0.17465
2248.89474,0.17522
2246.96601,0.17557
2245.03729,0.17603
2243.10856,0.17650
2241.17984,0.17688
2239.25111,0.17721
2237.32238,0.17747
2235.39366,0.17758
2233.46493,0.17776
2231.53621,0.17821
2229.60748,0.17868
2227.67875,0.17898
2225.75003,0.17925
2223.82130,0.17957
2221.89257,0.17988
2219.96385,0.18010
2218.03512,0.18029
2216.10640,0.18060
2214.17767,0.18091
2212.24894,0.18099
2210.32022,0.18092
2208.39149,0.18089
2206.46276,0.18088
2204.53404,0.18071
2202.60531,0.18036
2200.67659,0.17989
2198.74786,0.17931
2196.81913,0.17864
2194.89041,0.17786
2192.96168,0.17698
2191.03296,0.17616
2189.10423,0.17549
2187.17550,0.17475
2185.24678,0.17382
2183.31805,0.17284
2181.38932,0.17190
2179.46060,0.17091
2177.53187,0.16990
2175.60315,0.16896
2173.67442,0.16795
2171.74569,0.16673
2169.81697,0.16557
2167.88824,0.16473
2165.95951,0.16402
2164.03079,0.16325
2162.10206,0.16244
2160.17334,0.16165
2158.24461,0.16094
2156.31588,0.16031
2154.38716,0.15973
2152.45843,0.15917
2150.52971,0.15853
2148.60098,0.15803
2146.67225,0.15784
2144.74353,0.15773
2142.81480,0.15741
2140.88607,0.15700
2138.95735,0.15664
2137.02862,0.15632
2135.09990,0.15609
2133.17117,0.15601
2131.24244,0.15608
2129.31372,0.15645
2127.38499,0.15698
2125.45626,0.15738
2123.52754,0.15752
2121.59881,0.15747
2119.67009,0.15737
2117.74136,0.15742
2115.81263,0.15770
2113.88391,0.15800
2111.95518,0.15819
2110.02646,0.15839
2108.09773,0.15868
2106.16900,0.15911
2104.24028,0.15964
2102.31155,0.16003
2100.38282,0.16025
2098.45410,0.16041
2096.52537,0.16055
2094.59665,0.16078
2092.66792,0.16109
2090.73919,0.16129
2088.81047,0.16143
2086.88174,0.16164
2084.95301,0.16186
2083.02429,0.16196
2081.09556,0.16190
2079.16684,0.16180
2077.23811,0.16177
2075.30938,0.16164
2073.38066,0.16131
2071.45193,0.16102
2069.52321,0.16101
2067.59448,0.16113
2065.66575,0.16106
2063.73703,0.16088
2061.80830,0.16083
2059.87957,0.16077
2057.95085,0.16062
2056.02212,0.16064
2054.09340,0.16092
2052.16467,0.16134
2050.23594,0.16175
2048.30722,0.16210
2046.37849,0.16239
2044.44976,0.16263
2042.52104,0.16290
2040.59231,0.16326
2038.66359,0.16361
2036.73486,0.16397
2034.80613,0.16447
2032.87741,0.16511
2030.94868,0.16571
2029.01996,0.16619
2027.09123,0.16683
2025.16250,0.16783
2023.23378,0.16884
2021.30505,0.16962
2019.37632,0.17049
2017.44760,0.17144
2015.51887,0.17209
2013.59015,0.17253
2011.66142,0.17313
2009.73269,0.17389
2007.80397,0.17468
2005.87524,0.17532
2003.94651,0.17565
2002.01779,0.17589
2000.08906,0.17630
1998.16034,0.17687
1996.23161,0.17758
1994.30288,0.17862
1992.37416,0.17977
1990.44543,0.18034
1988.51670,0.18023
1986.58798,0.18006
1984.65925,0.18028
1982.73053,0.18069
1980.80180,0.18094
1978.87307,0.18097
1976.94435,0.18081
1975.01562,0.18063
1973.08690,0.18058
1971.15817,0.18076
1969.22944,0.18127
1967.30072,0.18162
1965.37199,0.18124
1963.44326,0.18062
1961.51454,0.18022
1959.58581,0.17987
1957.65709,0.17968
1955.72836,0.17970
1953.79963,0.17963
1951.87091,0.17955
1949.94218,0.17988
1948.01345,0.18081
1946.08473,0.18227
1944.15600,0.18382
1942.22728,0.18449
1940.29855,0.18400
1938.36982,0.18348
1936.44110,0.18367
1934.51237,0.18418
1932.58365,0.18454
1930.65492,0.18476
1928.72619,0.18511
1926.79747,0.18587
1924.86874,0.18708
1922.94001,0.18808
1921.01129,0.18838
1919.08256,0.18841
1917.15384,0.18826
1915.22511,0.18773
1913.29638,0.18744
1911.36766,0.18779
1909.43893,0.18802
1907.51020,0.18746
1905.58148,0.18661
1903.65275,0.18621
1901.72403,0.18626
1899.79530,0.18648
1897.86657,0.18688
1895.93785,0.18738
1894.00912,0.18777
1892.08040,0.18822
1890.15167,0.18858
1888.22294,0.18824
1886.29422,0.18746
1884.36549,0.18686
1882.43676,0.18642
1880.50804,0.18613
1878.57931,0.18598
1876.65059,0.18582
1874.72186,0.18588
1872.79313,0.18692
1870.86441,0.18903
1868.93568,0.19042
1867.00695,0.18907
1865.07823,0.18626
1863.14950,0.18432
1861.22078,0.18345
1859.29205,0.18278
1857.36332,0.18194
1855.43460,0.18106
1853.50587,0.18024
1851.57715,0.17951
1849.64842,0.17911
1847.71969,0.17943
1845.79097,0.17998
1843.86224,0.17904
1841.93351,0.17627
1840.00479,0.17374
1838.07606,0.17220
1836.14734,0.17075
1834.21861,0.16947
1832.28988,0.16920
1830.36116,0.16918
1828.43243,0.16777
1826.50370,0.16535
1824.57498,0.16276
1822.64625,0.16002
1820.71753,0.15750
1818.78880,0.15541
1816.86007,0.15344
1814.93135,0.15155
1813.00262,0.14996
1811.07390,0.14811
1809.14517,0.14537
1807.21644,0.14232
1805.28772,0.13984
1803.35899,0.13799
1801.43026,0.13601
1799.50154,0.13335
1797.57281,0.13055
1795.64409,0.12848
1793.71536,0.12678
1791.78663,0.12390
1789.85791,0.11961
1787.92918,0.11558
1786.00045,0.11250
1784.07173,0.10991
1782.14300,0.10723
1780.21428,0.10403
1778.28555,0.10061
1776.35682,0.09787
1774.42810,0.09542
1772.49937,0.09137
1770.57065,0.08525
1768.64192,0.07900
1766.71319,0.07384
1764.78447,0.06985
1762.85574,0.06627
1760.92701,0.06242
1758.99829,0.05865
1757.06956,0.05517
1755.14084,0.05215
1753.21211,0.05013
1751.28338,0.04900
1749.35466,0.04786
1747.42593,0.04612
1745.49720,0.04433
1743.56848,0.04317
1741.63975,0.04265
1739.71103,0.04241
1737.78230,0.04252
1735.85357,0.04341
1733.92485,0.04445
1731.99612,0.04436
1730.06740,0.04365
1728.13867,0.04327
1726.20994,0.04344
1724.28122,0.04407
1722.35249,0.04503
1720.42376,0.04673
1718.49504,0.04972
1716.56631,0.05260
1714.63759,0.05316
1712.70886,0.05241
1710.78013,0.05223
1708.85141,0.05301
1706.92268,0.05424
1704.99395,0.05539
1703.06523,0.05679
1701.13650,0.05881
1699.20778,0.06029
1697.27905,0.05985
1695.35032,0.05786
1693.42160,0.05577
1691.49287,0.05472
1689.56415,0.05482
1687.63542,0.05587
1685.70669,0.05740
1683.77797,0.05748
1681.84924,0.05515
1679.92051,0.05263
1677.99179,0.05121
1676.06306,0.05060
1674.13434,0.05029
1672.20561,0.05032
1670.27688,0.05024
1668.34816,0.04892
1666.41943,0.04698
1664.49070,0.04579
1662.56198,0.04530
1660.63325,0.04482
1658.70453,0.04449
1656.77580,0.04526
1654.84707,0.04749
1652.91835,0.04909
1650.98962,0.04811
1649.06090,0.04718
1647.13217,0.04724
1645.20344,0.04682
1643.27472,0.04592
1641.34599,0.04557
1639.41726,0.04625
1637.48854,0.04752
1635.55981,0.04778
1633.63109,0.04649
1631.70236,0.04525
1629.77363,0.04480
1627.84491,0.04487
1625.91618,0.04509
1623.98745,0.04513
1622.05873,0.04486
1620.13000,0.04471
1618.20128,0.04488
1616.27255,0.04468
1614.34382,0.04369
1612.41510,0.04259
1610.48637,0.04190
1608.55764,0.04156
1606.62892,0.04131
1604.70019,0.04105
1602.77147,0.04081
1600.84274,0.04064
1598.91401,0.04050
1596.98529,0.04031
1595.05656,0.04020
1593.12784,0.04055
1591.19911,0.04163
1589.27038,0.04328
1587.34166,0.04513
1585.41293,0.04699
1583.48420,0.04887
1581.55548,0.05092
1579.62675,0.05338
1577.69803,0.05635
1575.76930,0.05897
1573.84057,0.06024
1571.91185,0.06121
1569.98312,0.06264
1568.05439,0.06359
1566.12567,0.06356
1564.19694,0.06335
1562.26822,0.06416
1560.33949,0.06630
1558.41076,0.06695
1556.48204,0.06381
1554.55331,0.06036
1552.62459,0.05824
1550.69586,0.05684
1548.76713,0.05572
1546.83841,0.05547
1544.90968,0.05691
1542.98095,0.05976
1541.05223,0.06089
1539.12350,0.05764
1537.19478,0.05391
1535.26605,0.05222
1533.33732,0.05142
1531.40860,0.05049
1529.47987,0.04961
1527.55114,0.04888
1525.62242,0.04820
1523.69369,0.04749
1521.76497,0.04602
1519.83624,0.04370
1517.90751,0.04157
1515.97879,0.03984
1514.05006,0.03859
1512.12134,0.03828
1510.19261,0.03913
1508.26388,0.04079
1506.33516,0.04154
1504.40643,0.04062
1502.47770,0.04013
1500.54898,0.04109
1498.62025,0.04285
1496.69153,0.04413
1494.76280,0.04456
1492.83407,0.04520
1490.90535,0.04655
1488.97662,0.04744
1487.04789,0.04683
1485.11917,0.04556
1483.19044,0.04436
1481.26172,0.04328
1479.33299,0.04227
1477.40426,0.04135
1475.47554,0.04033
1473.54681,0.03874
1471.61809,0.03653
1469.68936,0.03474
1467.76063,0.03400
1465.83191,0.03386
1463.90318,0.03357
1461.97445,0.03328
1460.04573,0.03378
1458.11700,0.03498
1456.18828,0.03550
1454.25955,0.03503
1452.33082,0.03471
1450.40210,0.03488
1448.47337,0.03519
1446.54464,0.03531
1444.61592,0.03516
1442.68719,0.03485
1440.75847,0.03465
1438.82974,0.03484
1436.90101,0.03498
1434.97229,0.03427
1433.04356,0.03325
1431.11484,0.03285
1429.18611,0.03306
1427.25738,0.03345
1425.32866,0.03376
1423.39993,0.03388
1421.47120,0.03405
1419.54248,0.03463
1417.61375,0.03536
1415.68503,0.03575
1413.75630,0.03599
1411.82757,0.03620
1409.89885,0.03627
1407.97012,0.03636
1406.04139,0.03660
1404.11267,0.03678
1402.18394,0.03686
1400.25522,0.03702
1398.32649,0.03722
1396.39776,0.03724
1394.46904,0.03669
1392.54031,0.03553
1390.61159,0.03440
1388.68286,0.03369
1386.75413,0.03305
1384.82541,0.03222
1382.89668,0.03148
1380.96795,0.03106
1379.03923,0.03102
1377.11050,0.03121
1375.18178,0.03137
1373.25305,0.03134
1371.32432,0.03127
1369.39560,0.03138
1367.46687,0.03166
1365.53814,0.03219
1363.60942,0.03304
1361.68069,0.03376
1359.75197,0.03398
1357.82324,0.03399
1355.89451,0.03409
1353.96579,0.03428
1352.03706,0.03448
1350.10834,0.03459
1348.17961,0.03442
1346.25088,0.03400
1344.32216,0.03362
1342.39343,0.03354
1340.46470,0.03360
1338.53598,0.03335
1336.60725,0.03278
1334.67853,0.03233
1332.74980,0.03215
1330.82107,0.03211
1328.89235,0.03206
1326.96362,0.03204
1325.03489,0.03217
1323.10617,0.03235
1321.17744,0.03244
1319.24872,0.03250
1317.31999,0.03267
1315.39126,0.03297
1313.46254,0.03336
1311.53381,0.03382
1309.60509,0.03448
1307.67636,0.03521
1305.74763,0.03562
1303.81891,0.03574
1301.89018,0.03570
1299.96145,0.03556
1298.03273,0.03549
1296.10400,0.03545
1294.17528,0.03526
1292.24655,0.03489
1290.31782,0.03432
1288.38910,0.03366
1286.46037,0.03295
1284.53164,0.03228
1282.60292,0.03179
1280.67419,0.03143
1278.74547,0.03100
1276.81674,0.03054
1274.88801,0.03022
1272.95929,0.03023
1271.03056,0.03040
1269.10183,0.03035
1267.17311,0.03004
1265.24438,0.02978
1263.31566,0.02960
1261.38693,0.02940
1259.45820,0.02934
1257.52948,0.02953
1255.60075,0.02972
1253.67203,0.02952
1251.74330,0.02904
1249.81457,0.02886
1247.88585,0.02916
1245.95712,0.02951
1244.02839,0.02964
1242.09967,0.02979
1240.17094,0.03014
1238.24222,0.03053
1236.31349,0.03083
1234.38476,0.03105
1232.45604,0.03133
1230.52731,0.03187
1228.59858,0.03240
1226.66986,0.03244
1224.74113,0.03221
1222.81241,0.03240
1220.88368,0.03320
1218.95495,0.03403
1217.02623,0.03426
1215.09750,0.03399
1213.16878,0.03389
1211.24005,0.03409
1209.31132,0.03416
1207.38260,0.03405
1205.45387,0.03400
1203.52514,0.03394
1201.59642,0.03383
1199.66769,0.03387
1197.73897,0.03404
1195.81024,0.03425
1193.88151,0.03424
1191.95279,0.03378
1190.02406,0.03311
1188.09533,0.03231
1186.16661,0.03114
1184.23788,0.02989
1182.30916,0.02918
1180.38043,0.02893
1178.45170,0.02838
1176.52298,0.02743
1174.59425,0.02652
1172.66553,0.02582
1170.73680,0.02538
1168.80807,0.02505
1166.87935,0.02475
1164.95062,0.02483
1163.02189,0.02559
1161.09317,0.02661
1159.16444,0.02716
1157.23572,0.02708
1155.30699,0.02695
1153.37826,0.02703
1151.44954,0.02688
1149.52081,0.02632
1147.59208,0.02567
1145.66336,0.02516
1143.73463,0.02485
1141.80591,0.02452
1139.87718,0.02389
1137.94845,0.02299
1136.01973,0.02213
1134.09100,0.02198
1132.16228,0.02242
1130.23355,0.02254
1128.30482,0.02248
1126.37610,0.02306
1124.44737,0.02419
1122.51864,0.02524
1120.58992,0.02573
1118.66119,0.02555
1116.73247,0.02515
1114.80374,0.02499
1112.87501,0.02523
1110.94629,0.02587
1109.01756,0.02655
1107.08883,0.02674
1105.16011,0.02662
1103.23138,0.02671
1101.30266,0.02704
1099.37393,0.02735
1097.44520,0.02760
1095.51648,0.02755
1093.58775,0.02717
1091.65903,0.02725
1089.73030,0.02808
1087.80157,0.02864
1085.87285,0.02826
1083.94412,0.02758
1082.01539,0.02731
1080.08667,0.02752
1078.15794,0.02788
1076.22922,0.02836
1074.30049,0.02942
1072.37176,0.03096
1070.44304,0.03246
1068.51431,0.03374
1066.58558,0.03458
1064.65686,0.03498
1062.72813,0.03565
1060.79941,0.03698
1058.87068,0.03844
1056.94195,0.03966
1055.01323,0.04066
1053.08450,0.04156
1051.15578,0.04227
1049.22705,0.04231
1047.29832,0.04146
1045.36960,0.04050
1043.44087,0.04036
1041.51214,0.04127
1039.58342,0.04279
1037.65469,0.04392
1035.72597,0.04442
1033.79724,0.04531
1031.86851,0.04683
1029.93979,0.04804
1028.01106,0.04859
1026.08233,0.04876
1024.15361,0.04866
1022.22488,0.04870
1020.29616,0.04919
1018.36743,0.04978
1016.43870,0.05015
1014.50998,0.05007
1012.58125,0.04967
1010.65253,0.04952
1008.72380,0.04978
1006.79507,0.05025
1004.86635,0.05054
1002.93762,0.05047
1001.00889,0.05031
999.08017,0.05028
997.15144,0.05056
995.22272,0.05130
993.29399,0.05239
991.36526,0.05336
989.43654,0.05403
987.50781,0.05477
985.57908,0.05573
983.65036,0.05690
981.72163,0.05825
979.79291,0.05948
977.86418,0.06044
975.93545,0.06137
974.00673,0.06225
972.07800,0.06302
970.14928,0.06370
968.22055,0.06431
966.29182,0.06503
964.36310,0.06568
962.43437,0.06625
960.50564,0.06730
958.57692,0.06841
956.64819,0.06908
954.71947,0.06976
952.79074,0.07066
950.86201,0.07147
948.93329,0.07234
947.00456,0.07344
945.07583,0.07413
943.14711,0.07431
941.21838,0.07471
939.28966,0.07532
937.36093,0.07546
935.43220,0.07490
933.50348,0.07403
931.57475,0.07319
929.64603,0.07260
927.71730,0.07261
925.78857,0.07265
923.85985,0.07182
921.93112,0.07086
920.00239,0.07064
918.07367,0.07036
916.14494,0.06964
914.21622,0.06905
912.28749,0.06859
910.35876,0.06813
908.43004,0.06739
906.50131,0.06591
904.57258,0.06412
902.64386,0.06271
900.71513,0.06206
898.78641,0.06244
896.85768,0.06348
894.92895,0.06439
893.00023,0.06502
891.07150,0.06584
889.14277,0.06701
887.21405,0.06794
885.28532,0.06777
883.35660,0.06689
881.42787,0.06655
879.49914,0.06688
877.57042,0.06717
875.64169,0.06718
873.71297,0.06708
871.78424,0.06708
869.85551,0.06739
867.92679,0.06799
865.99806,0.06819
864.06933,0.06795
862.14061,0.06810
860.21188,0.06867
858.28316,0.06903
856.35443,0.06899
854.42570,0.06847
852.49698,0.06705
850.56825,0.06514
848.63952,0.06442
846.71080,0.06521
844.78207,0.06557
842.85335,0.06444
840.92462,0.06297
838.99589,0.06228
837.06717,0.06231
835.13844,0.06249
833.20972,0.06210
831.28099,0.06127
829.35226,0.06074
827.42354,0.06057
825.49481,0.06035
823.56608,0.05997
821.63736,0.05959
819.70863,0.05938
817.77991,0.05928
815.85118,0.05900
813.92245,0.05850
811.99373,0.05837
810.06500,0.05886
808.13627,0.05934
806.20755,0.05913
804.27882,0.05841
802.35010,0.05797
800.42137,0.05791
798.49264,0.05769
796.56392,0.05738
794.63519,0.05721
792.70647,0.05704
790.77774,0.05698
788.84901,0.05735
786.92029,0.05795
784.99156,0.05785
783.06283,0.05668
781.13411,0.05536
779.20538,0.05467
777.27666,0.05413
775.34793,0.05301
773.41920,0.05197
771.49048,0.05197
769.56175,0.05228
767.63302,0.05171
765.70430,0.05058
763.77557,0.04990
761.84685,0.04959
759.91812,0.04894
757.98939,0.04820
756.06067,0.04790
754.13194,0.04768
752.20322,0.04712
750.27449,0.04663
748.34576,0.04660
746.41704,0.04645
744.48831,0.04576
742.55958,0.04506
740.63086,0.04492
738.70213,0.04509
736.77341,0.04492
734.84468,0.04443
732.91595,0.04445
730.98723,0.04480
729.05850,0.04453
727.12977,0.04364
725.20105,0.04268
723.27232,0.04257
721.34360,0.04304
719.41487,0.04317
717.48614,0.04232
715.55742,0.04120
713.62869,0.04089
711.69997,0.04143
709.77124,0.04194
707.84251,0.04189
705.91379,0.04160
703.98506,0.04158
702.05633,0.04177
700.12761,0.04155
698.19888,0.04066
696.27016,0.03987
694.34143,0.03988
692.41270,0.04013
690.48398,0.03958
688.55525,0.03834
686.62652,0.03745
684.69780,0.03724
682.76907,0.03711
680.84035,0.03664
678.91162,0.03603
676.98289,0.03568
675.05417,0.03571
673.12544,0.03585
671.19672,0.03615
669.26799,0.03691
667.33926,0.03759
665.41054,0.03764
663.48181,0.03762
661.55308,0.03764
659.62436,0.03740
657.69563,0.03711
655.76691,0.03713
653.83818,0.03754
651.90945,0.03806
649.98073,0.03803
648.05200,0.03708
646.12327,0.03604
644.19455,0.03599
642.26582,0.03651
640.33710,0.03638
638.40837,0.03540
636.47964,0.03441
634.55092,0.03404
632.62219,0.03423
630.69347,0.03470
628.76474,0.03527
626.83601,0.03556
624.90729,0.03551
622.97856,0.03575
621.04983,0.03633
619.12111,0.03705
617.19238,0.03765
615.26366,0.03755
613.33493,0.03731
611.40620,0.03755
609.47748,0.03761
607.54875,0.03720
605.62002,0.03687
603.69130,0.03713
601.76257,0.03804
599.83385,0.03881
597.90512,0.03872
595.97639,0.03845
594.04767,0.03880
592.11894,0.03915
590.19022,0.03861
588.26149,0.03734
586.33276,0.03603
584.40404,0.03592
582.47531,0.03753
580.54658,0.03932
578.61786,0.03958
576.68913,0.03836
574.76041,0.03725
572.83168,0.03742
570.90295,0.03802
568.97423,0.03813
567.04550,0.03832
565.11677,0.03913
563.18805,0.04005
561.25932,0.04067
559.33060,0.04137
557.40187,0.04245
555.47314,0.04288
553.54442,0.04169
551.61569,0.04014
549.68697,0.03956
547.75824,0.03979
545.82951,0.04028
543.90079,0.04051
541.97206,0.04047
540.04333,0.04070
538.11461,0.04161
536.18588,0.04250
534.25716,0.04149
532.32843,0.03865
530.39970,0.03709
528.47098,0.03845
526.54225,0.04123
524.61352,0.04328
522.68480,0.04364
520.75607,0.04236
518.82735,0.03998
516.89862,0.03838
514.96989,0.03927
513.04117,0.04169
511.11244,0.04419
509.18371,0.04540
507.25499,0.04345
505.32626,0.03975
503.39754,0.03812
501.46881,0.03933
499.54008,0.04149
497.61136,0.04359
495.68263,0.04468
493.75391,0.04328
491.82518,0.04068
489.89645,0.03918
487.96773,0.03815
486.03900,0.03695
484.11027,0.03749
482.18155,0.04045
480.25282,0.04374
478.32410,0.04675
476.39537,0.05031
474.46664,0.05264
472.53792,0.05038
470.60919,0.04501
468.68046,0.04161
466.75174,0.04160
464.82301,0.04329
462.89429,0.04551
460.96556,0.04826
459.03683,0.05089
457.10811,0.05229
455.17938,0.05270
453.25066,0.05244
451.32193,0.05091
449.39320,0.04827
447.46448,0.04537
445.53575,0.04365
443.60702,0.04467
441.67830,0.04670
439.74957,0.04658
437.82085,0.04527
435.89212,0.04439
433.96339,0.04282
432.03467,0.03912
430.10594,0.03400
428.17721,0.03112
426.24849,0.03467
424.31976,0.04564
422.39104,0.05830
420.46231,0.06391
418.53358,0.06001
416.60486,0.05347
414.67613,0.05153
412.74741,0.05489
410.81868,0.05746
408.88995,0.05229
406.96123,0.04278
405.03250,0.03539
403.10377,0.03139
401.17505,0.03054
399.24632,0.03195
