5996.40973,0.59414
5994.48101,0.59785
5992.55228,0.59883
5990.62356,0.59582
5988.69483,0.59519
5986.76610,0.59819
5984.83738,0.59669
5982.90865,0.59131
5980.97992,0.59032
5979.05120,0.59229
5977.12247,0.59158
5975.19375,0.58903
5973.26502,0.58746
5971.33629,0.58593
5969.40757,0.58388
5967.47884,0.58310
5965.55011,0.58273
5963.62139,0.58403
5961.69266,0.58880
5959.76394,0.59111
5957.83521,0.58794
5955.90648,0.58451
5953.97776,0.58488
5952.04903,0.58907
5950.12031,0.59263
5948.19158,0.59002
5946.26285,0.58380
5944.33413,0.58248
5942.40540,0.58721
5940.47667,0.58997
5938.54795,0.58768
5936.61922,0.58629
5934.69050,0.58799
5932.76177,0.58910
5930.83304,0.58912
5928.90432,0.59000
5926.97559,0.59201
5925.04686,0.59265
5923.11814,0.58976
5921.18941,0.58647
5919.26069,0.58557
5917.33196,0.58530
5915.40323,0.58454
5913.47451,0.58343
5911.54578,0.58138
5909.61706,0.57891
5907.68833,0.57880
5905.75960,0.58192
5903.83088,0.58411
5901.90215,0.58118
5899.97342,0.57508
5898.04470,0.57248
5896.11597,0.57550
5894.18725,0.57887
5892.25852,0.58074
5890.32979,0.58375
5888.40107,0.58547
5886.47234,0.58341
5884.54361,0.58162
5882.61489,0.58223
5880.68616,0.58253
5878.75744,0.58076
5876.82871,0.57747
5874.89998,0.57537
5872.97126,0.57735
5871.04253,0.58135
5869.11381,0.58274
5867.18508,0.58108
5865.25635,0.58013
5863.32763,0.58267
5861.39890,0.58669
5859.47017,0.58777
5857.54145,0.58438
5855.61272,0.57859
5853.68400,0.57454
5851.75527,0.57559
5849.82654,0.58079
5847.89782,0.58537
5845.96909,0.58706
5844.04036,0.58828
5842.11164,0.58868
5840.18291,0.58530
5838.25419,0.58031
5836.32546,0.57826
5834.39673,0.57867
5832.46801,0.57826
5830.53928,0.57754
5828.61056,0.57852
5826.68183,0.58066
5824.75310,0.58303
5822.82438,0.58380
5820.89565,0.58184
5818.96692,0.57962
5817.03820,0.57736
5815.10947,0.57401
5813.18075,0.57328
5811.25202,0.57648
5809.32329,0.57763
5807.39457,0.57458
5805.46584,0.57403
5803.53711,0.57822
5801.60839,0.58049
5799.67966,0.57870
5797.75094,0.57660
5795.82221,0.57456
5793.89348,0.57182
5791.96476,0.56923
5790.03603,0.56772
5788.10731,0.56902
5786.17858,0.57247
5784.24985,0.57452
5782.32113,0.57483
5780.39240,0.57590
5778.46367,0.57813
5776.53495,0.58022
5774.60622,0.58159
5772.67750,0.58203
5770.74877,0.58050
5768.82004,0.57699
5766.89132,0.57438
5764.96259,0.57550
5763.03386,0.57918
5761.10514,0.58157
5759.17641,0.58117
5757.24769,0.57950
5755.31896,0.57832
5753.39023,0.57887
5751.46151,0.58064
5749.53278,0.58152
5747.60406,0.58251
5745.67533,0.58581
5743.74660,0.58963
5741.81788,0.59170
5739.88915,0.59134
5737.96042,0.58763
5736.03170,0.58210
5734.10297,0.57934
5732.17425,0.58283
5730.24552,0.58909
5728.31679,0.59048
5726.38807,0.58777
5724.45934,0.58781
5722.53061,0.59100
5720.60189,0.59257
5718.67316,0.58927
5716.74444,0.58325
5714.81571,0.58040
5712.88698,0.58182
5710.95826,0.58366
5709.02953,0.58484
5707.10081,0.58586
5705.17208,0.58482
5703.24335,0.58249
5701.31463,0.58247
5699.38590,0.58415
5697.45717,0.58442
5695.52845,0.58393
5693.59972,0.58466
5691.67100,0.58523
5689.74227,0.58470
5687.81354,0.58444
5685.88482,0.58389
5683.95609,0.58217
5682.02736,0.57973
5680.09864,0.57849
5678.16991,0.58101
5676.24119,0.58457
5674.31246,0.58411
5672.38373,0.58093
5670.45501,0.57868
5668.52628,0.57826
5666.59756,0.57989
5664.66883,0.58174
5662.74010,0.58123
5660.81138,0.57953
5658.88265,0.57878
5656.95392,0.58019
5655.02520,0.58322
5653.09647,0.58466
5651.16775,0.58312
5649.23902,0.58070
5647.31029,0.58000
5645.38157,0.58023
5643.45284,0.57820
5641.52411,0.57513
5639.59539,0.57569
5637.66666,0.58025
5635.73794,0.58459
5633.80921,0.58703
5631.88048,0.58903
5629.95176,0.58988
5628.02303,0.58942
5626.09430,0.58920
5624.16558,0.58850
5622.23685,0.58748
5620.30813,0.58777
5618.37940,0.58857
5616.45067,0.58834
5614.52195,0.58624
5612.59322,0.58340
5610.66450,0.58195
5608.73577,0.58211
5606.80704,0.58517
5604.87832,0.59114
5602.94959,0.59434
5601.02086,0.59092
5599.09214,0.58447
5597.16341,0.58017
5595.23469,0.58085
5593.30596,0.58691
5591.37723,0.59502
5589.44851,0.59990
5587.51978,0.59849
5585.59105,0.59211
5583.66233,0.58758
5581.73360,0.59046
5579.80488,0.59645
5577.87615,0.59770
5575.94742,0.59510
5574.01870,0.59543
5572.08997,0.59987
5570.16125,0.60234
5568.23252,0.59892
5566.30379,0.59304
5564.37507,0.58930
5562.44634,0.59024
5560.51761,0.59614
5558.58889,0.60256
5556.66016,0.60443
5554.73144,0.60086
5552.80271,0.59408
5550.87398,0.58857
5548.94526,0.58782
5547.01653,0.58966
5545.08780,0.59009
5543.15908,0.59022
5541.23035,0.59391
5539.30163,0.60097
5537.37290,0.60565
5535.44417,0.60375
5533.51545,0.59802
5531.58672,0.59284
5529.65800,0.59100
5527.72927,0.59233
5525.80054,0.59312
5523.87182,0.59243
5521.94309,0.59336
5520.01436,0.59715
5518.08564,0.60046
5516.15691,0.59884
5514.22819,0.59387
5512.29946,0.59129
5510.37073,0.59258
5508.44201,0.59466
5506.51328,0.59516
5504.58455,0.59594
5502.65583,0.59795
5500.72710,0.59887
5498.79838,0.59823
5496.86965,0.59623
5494.94092,0.59240
5493.01220,0.58876
5491.08347,0.58862
5489.15475,0.59187
5487.22602,0.59468
5485.29729,0.59552
5483.36857,0.59612
5481.43984,0.59691
5479.51111,0.59719
5477.58239,0.59694
5475.65366,0.59622
5473.72494,0.59604
5471.79621,0.59850
5469.86748,0.60215
5467.93876,0.60282
5466.01003,0.60033
5464.08130,0.59891
5462.15258,0.60044
5460.22385,0.60259
5458.29513,0.60390
5456.36640,0.60470
5454.43767,0.60541
5452.50895,0.60823
5450.58022,0.61286
5448.65150,0.61402
5446.72277,0.61116
5444.79404,0.60936
5442.86532,0.61024
5440.93659,0.61102
5439.00786,0.61021
5437.07914,0.61029
5435.15041,0.61224
5433.22169,0.61341
5431.29296,0.61301
5429.36423,0.61309
5427.43551,0.61481
5425.50678,0.61750
5423.57805,0.61969
5421.64933,0.62056
5419.72060,0.61919
5417.79188,0.61449
5415.86315,0.60884
5413.93442,0.60616
5412.00570,0.60765
5410.07697,0.61187
5408.14825,0.61505
5406.21952,0.61429
5404.29079,0.61099
5402.36207,0.60869
5400.43334,0.61005
5398.50461,0.61536
5396.57589,0.62097
5394.64716,0.62317
5392.71844,0.62267
5390.78971,0.62119
5388.86098,0.61879
5386.93226,0.61567
5385.00353,0.61342
5383.07480,0.61387
5381.14608,0.61529
5379.21735,0.61462
5377.28863,0.61379
5375.35990,0.61494
5373.43117,0.61629
5371.50245,0.61675
5369.57372,0.61751
5367.64500,0.61867
5365.71627,0.61892
5363.78754,0.61899
5361.85882,0.62070
5359.93009,0.62244
5358.00136,0.62104
5356.07264,0.61647
5354.14391,0.61167
5352.21519,0.60928
5350.28646,0.60905
5348.35773,0.60865
5346.42901,0.60843
5344.50028,0.61059
5342.57155,0.61295
5340.64283,0.61276
5338.71410,0.61143
5336.78538,0.61100
5334.85665,0.61050
5332.92792,0.60882
5330.99920,0.60827
5329.07047,0.61129
5327.14175,0.61539
5325.21302,0.61650
5323.28429,0.61408
5321.35557,0.60955
5319.42684,0.60507
5317.49811,0.60333
5315.56939,0.60495
5313.64066,0.60694
5311.71194,0.60642
5309.78321,0.60401
5307.85448,0.60216
5305.92576,0.60253
5303.99703,0.60342
5302.06830,0.60124
5300.13958,0.59688
5298.21085,0.59424
5296.28213,0.59402
5294.35340,0.59374
5292.42467,0.59103
5290.49595,0.58679
5288.56722,0.58427
5286.63849,0.58339
5284.70977,0.58003
5282.78104,0.57454
5280.85232,0.57220
5278.92359,0.57313
5276.99486,0.57284
5275.06614,0.57073
5273.13741,0.56836
5271.20869,0.56433
5269.27996,0.55753
5267.35123,0.55006
5265.42251,0.54391
5263.49378,0.53972
5261.56505,0.53829
5259.63633,0.53868
5257.70760,0.53868
5255.77888,0.53783
5253.85015,0.53492
5251.92142,0.52844
5249.99270,0.52056
5248.06397,0.51577
5246.13524,0.51605
5244.20652,0.51767
5242.27779,0.51642
5240.34907,0.51356
5238.42034,0.51063
5236.49161,0.50676
5234.56289,0.50278
5232.63416,0.50046
5230.70544,0.49929
5228.77671,0.49866
5226.84798,0.49860
5224.91926,0.49697
5222.99053,0.49401
5221.06180,0.49355
5219.13308,0.49589
5217.20435,0.49743
5215.27563,0.49603
5213.34690,0.49399
5211.41817,0.49398
5209.48945,0.49453
5207.56072,0.49316
5205.63199,0.49156
5203.70327,0.49193
5201.77454,0.49285
5199.84582,0.49331
5197.91709,0.49452
5195.98836,0.49600
5194.05964,0.49654
5192.13091,0.49708
5190.20219,0.49788
5188.27346,0.49689
5186.34473,0.49426
5184.41601,0.49292
5182.48728,0.49357
5180.55855,0.49498
5178.62983,0.49667
5176.70110,0.49766
5174.77238,0.49705
5172.84365,0.49733
5170.91492,0.50035
5168.98620,0.50337
5167.05747,0.50380
5165.12874,0.50271
5163.20002,0.50233
5161.27129,0.50392
5159.34257,0.50617
5157.41384,0.50659
5155.48511,0.50527
5153.55639,0.50498
5151.62766,0.50748
5149.69894,0.51194
5147.77021,0.51596
5145.84148,0.51718
5143.91276,0.51604
5141.98403,0.51566
5140.05530,0.51769
5138.12658,0.52056
5136.19785,0.52154
5134.26913,0.52017
5132.34040,0.51882
5130.41167,0.51988
5128.48295,0.52320
5126.55422,0.52594
5124.62549,0.52535
5122.69677,0.52222
5120.76804,0.52018
5118.83932,0.52102
5116.91059,0.52346
5114.98186,0.52529
5113.05314,0.52548
5111.12441,0.52576
5109.19569,0.52802
5107.26696,0.53097
5105.33823,0.53259
5103.40951,0.53268
5101.48078,0.53168
5099.55205,0.52987
5097.62333,0.52782
5095.69460,0.52673
5093.76588,0.52719
5091.83715,0.52861
5089.90842,0.53102
5087.97970,0.53450
5086.05097,0.53703
5084.12224,0.53686
5082.19352,0.53516
5080.26479,0.53427
5078.33607,0.53518
5076.40734,0.53733
5074.47861,0.53935
5072.54989,0.54059
5070.62116,0.54159
5068.69244,0.54313
5066.76371,0.54552
5064.83498,0.54746
5062.90626,0.54707
5060.97753,0.54425
5059.04880,0.54117
5057.12008,0.54067
5055.19135,0.54304
5053.26263,0.54594
5051.33390,0.54721
5049.40517,0.54648
5047.47645,0.54601
5045.54772,0.54757
5043.61899,0.54901
5041.69027,0.54857
5039.76154,0.54816
5037.83282,0.54888
5035.90409,0.54912
5033.97536,0.54746
5032.04664,0.54457
5030.11791,0.54285
5028.18919,0.54432
5026.26046,0.54842
5024.33173,0.55173
5022.40301,0.55097
5020.47428,0.54763
5018.54555,0.54583
5016.61683,0.54588
5014.68810,0.54611
5012.75938,0.54658
5010.83065,0.54675
5008.90192,0.54658
5006.97320,0.54716
5005.04447,0.54772
5003.11574,0.54705
5001.18702,0.54492
4999.25829,0.54171
4997.32957,0.53890
4995.40084,0.53761
4993.47211,0.53735
4991.54339,0.53707
4989.61466,0.53686
4987.68594,0.53705
4985.75721,0.53761
4983.82848,0.53773
4981.89976,0.53613
4979.97103,0.53339
4978.04230,0.53078
4976.11358,0.52859
4974.18485,0.52607
4972.25613,0.52345
4970.32740,0.52296
4968.39867,0.52404
4966.46995,0.52438
4964.54122,0.52351
4962.61249,0.52085
4960.68377,0.51749
4958.75504,0.51570
4956.82632,0.51436
4954.89759,0.51115
4952.96886,0.50708
4951.04014,0.50443
4949.11141,0.50330
4947.18269,0.50200
4945.25396,0.49986
4943.32523,0.49794
4941.39651,0.49651
4939.46778,0.49476
4937.53905,0.49276
4935.61033,0.49062
4933.68160,0.48792
4931.75288,0.48507
4929.82415,0.48246
4927.89542,0.47993
4925.96670,0.47834
4924.03797,0.47735
4922.10924,0.47476
4920.18052,0.47047
4918.25179,0.46618
4916.32307,0.46328
4914.39434,0.46251
4912.46561,0.46306
4910.53689,0.46288
4908.60816,0.46132
4906.67943,0.45956
4904.75071,0.45820
4902.82198,0.45700
4900.89326,0.45576
4898.96453,0.45358
4897.03580,0.45026
4895.10708,0.44803
4893.17835,0.44768
4891.24963,0.44663
4889.32090,0.44415
4887.39217,0.44197
4885.46345,0.44028
4883.53472,0.43847
4881.60599,0.43638
4879.67727,0.43447
4877.74854,0.43410
4875.81982,0.43437
4873.89109,0.43267
4871.96236,0.42965
4870.03364,0.42739
4868.10491,0.42687
4866.17618,0.42782
4864.24746,0.42790
4862.31873,0.42598
4860.39001,0.42350
4858.46128,0.42107
4856.53255,0.41864
4854.60383,0.41710
4852.67510,0.41696
4850.74638,0.41693
4848.81765,0.41587
4846.88892,0.41446
4844.96020,0.41320
4843.03147,0.41187
4841.10274,0.41060
4839.17402,0.40917
4837.24529,0.40761
4835.31657,0.40678
4833.38784,0.40594
4831.45911,0.40447
4829.53039,0.40364
4827.60166,0.40313
4825.67293,0.40189
4823.74421,0.40069
4821.81548,0.39993
4819.88676,0.39904
4817.95803,0.39793
4816.02930,0.39653
4814.10058,0.39511
4812.17185,0.39468
4810.24313,0.39530
4808.31440,0.39599
4806.38567,0.39598
4804.45695,0.39474
4802.52822,0.39309
4800.59949,0.39261
4798.67077,0.39303
4796.74204,0.39285
4794.81332,0.39127
4792.88459,0.38950
4790.95586,0.38963
4789.02714,0.39062
4787.09841,0.39045
4785.16968,0.39034
4783.24096,0.39112
4781.31223,0.39079
4779.38351,0.38860
4777.45478,0.38701
4775.52605,0.38724
4773.59733,0.38691
4771.66860,0.38512
4769.73988,0.38435
4767.81115,0.38555
4765.88242,0.38649
4763.95370,0.38565
4762.02497,0.38398
4760.09624,0.38288
4758.16752,0.38239
4756.23879,0.38116
4754.31007,0.37994
4752.38134,0.38093
4750.45261,0.38277
4748.52389,0.38334
4746.59516,0.38334
4744.66643,0.38305
4742.73771,0.38257
4740.80898,0.38277
4738.88026,0.38335
4736.95153,0.38425
4735.02280,0.38523
4733.09408,0.38529
4731.16535,0.38573
4729.23663,0.38744
4727.30790,0.38802
4725.37917,0.38608
4723.45045,0.38406
4721.52172,0.38420
4719.59299,0.38544
4717.66427,0.38633
4715.73554,0.38680
4713.80682,0.38722
4711.87809,0.38751
4709.94936,0.38729
4708.02064,0.38718
4706.09191,0.38763
4704.16318,0.38826
4702.23446,0.38889
4700.30573,0.38961
4698.37701,0.39066
4696.44828,0.39206
4694.51955,0.39290
4692.59083,0.39263
4690.66210,0.39246
4688.73338,0.39242
4686.80465,0.39130
4684.87592,0.39023
4682.94720,0.39094
4681.01847,0.39318
4679.08974,0.39511
4677.16102,0.39557
4675.23229,0.39516
4673.30357,0.39460
4671.37484,0.39461
4669.44611,0.39522
4667.51739,0.39526
4665.58866,0.39493
4663.65993,0.39533
4661.73121,0.39637
4659.80248,0.39784
4657.87376,0.39959
4655.94503,0.40086
4654.01630,0.40106
4652.08758,0.40045
4650.15885,0.39952
4648.23013,0.39872
4646.30140,0.39904
4644.37267,0.40118
4642.44395,0.40421
4640.51522,0.40611
4638.58649,0.40608
4636.65777,0.40594
4634.72904,0.40727
4632.80032,0.40855
4630.87159,0.40850
4628.94286,0.40808
4627.01414,0.40806
4625.08541,0.40854
4623.15668,0.40937
4621.22796,0.41049
4619.29923,0.41211
4617.37051,0.41346
4615.44178,0.41374
4613.51305,0.41407
4611.58433,0.41533
4609.65560,0.41655
4607.72688,0.41709
4605.79815,0.41771
4603.86942,0.41879
4601.94070,0.42031
4600.01197,0.42196
4598.08324,0.42242
4596.15452,0.42225
4594.22579,0.42380
4592.29707,0.42630
4590.36834,0.42730
4588.43961,0.42706
4586.51089,0.42655
4584.58216,0.42596
4582.65343,0.42636
4580.72471,0.42795
4578.79598,0.42899
4576.86726,0.42846
4574.93853,0.42804
4573.00980,0.42992
4571.08108,0.43322
4569.15235,0.43495
4567.22363,0.43425
4565.29490,0.43297
4563.36617,0.43298
4561.43745,0.43443
4559.50872,0.43602
4557.57999,0.43730
4555.65127,0.43906
4553.72254,0.44081
4551.79382,0.44131
4549.86509,0.44082
4547.93636,0.44042
4546.00764,0.44044
4544.07891,0.44043
4542.15018,0.44021
4540.22146,0.43985
4538.29273,0.43940
4536.36401,0.44001
4534.43528,0.44221
4532.50655,0.44442
4530.57783,0.44507
4528.64910,0.44424
4526.72037,0.44353
4524.79165,0.44315
4522.86292,0.44196
4520.93420,0.44101
4519.00547,0.44162
4517.07674,0.44285
4515.14802,0.44337
4513.21929,0.44268
4511.29057,0.44143
4509.36184,0.44112
4507.43311,0.44189
4505.50439,0.44218
4503.57566,0.44174
4501.64693,0.44168
4499.71821,0.44187
4497.78948,0.44082
4495.86076,0.43827
4493.93203,0.43591
4492.00330,0.43477
4490.07458,0.43436
4488.14585,0.43386
4486.21712,0.43255
4484.28840,0.43035
4482.35967,0.42782
4480.43095,0.42538
4478.50222,0.42309
4476.57349,0.42080
4474.64477,0.41856
4472.71604,0.41664
4470.78732,0.41479
4468.85859,0.41233
4466.92986,0.40966
4465.00114,0.40758
4463.07241,0.40526
4461.14368,0.40179
4459.21496,0.39777
4457.28623,0.39415
4455.35751,0.39150
4453.42878,0.38966
4451.50005,0.38781
4449.57133,0.38541
4447.64260,0.38240
4445.71387,0.37917
4443.78515,0.37659
4441.85642,0.37531
4439.92770,0.37449
4437.99897,0.37229
4436.07024,0.36851
4434.14152,0.36461
4432.21279,0.36194
4430.28407,0.36065
4428.35534,0.35943
4426.42661,0.35740
4424.49789,0.35529
4422.56916,0.35354
4420.64043,0.35157
4418.71171,0.34941
4416.78298,0.34785
4414.85426,0.34715
4412.92553,0.34666
4410.99680,0.34518
4409.06808,0.34240
4407.13935,0.34000
4405.21062,0.33935
4403.28190,0.33962
4401.35317,0.33962
4399.42445,0.33929
4397.49572,0.33926
4395.56699,0.33956
4393.63827,0.33964
4391.70954,0.33971
4389.78082,0.34023
4387.85209,0.34128
4385.92336,0.34257
4383.99464,0.34343
4382.06591,0.34382
4380.13718,0.34398
4378.20846,0.34388
4376.27973,0.34381
4374.35101,0.34435
4372.42228,0.34552
4370.49355,0.34651
4368.56483,0.34658
4366.63610,0.34657
4364.70737,0.34804
4362.77865,0.35039
4360.84992,0.35162
4358.92120,0.35143
4356.99247,0.35068
4355.06374,0.34992
4353.13502,0.34915
4351.20629,0.34787
4349.27757,0.34636
4347.34884,0.34561
4345.42011,0.34560
4343.49139,0.34536
4341.56266,0.34450
4339.63393,0.34371
4337.70521,0.34342
4335.77648,0.34299
4333.84776,0.34234
4331.91903,0.34200
4329.99030,0.34155
4328.06158,0.34054
4326.13285,0.33922
4324.20412,0.33780
4322.27540,0.33680
4320.34667,0.33665
4318.41795,0.33666
4316.48922,0.33618
4314.56049,0.33559
4312.63177,0.33508
4310.70304,0.33448
4308.77432,0.33388
4306.84559,0.33363
4304.91686,0.33391
4302.98814,0.33424
4301.05941,0.33412
4299.13068,0.33347
4297.20196,0.33241
4295.27323,0.33140
4293.34451,0.33062
4291.41578,0.33013
4289.48705,0.32996
4287.55833,0.32987
4285.62960,0.32972
4283.70087,0.32926
4281.77215,0.32823
4279.84342,0.32730
4277.91470,0.32718
4275.98597,0.32748
4274.05724,0.32795
4272.12852,0.32858
4270.19979,0.32901
4268.27107,0.32911
4266.34234,0.32923
4264.41361,0.32939
4262.48489,0.32936
4260.55616,0.32968
4258.62743,0.33029
4256.69871,0.32999
4254.76998,0.32909
4252.84126,0.32884
4250.91253,0.32940
4248.98380,0.33048
4247.05508,0.33160
4245.12635,0.33258
4243.19762,0.33341
4241.26890,0.33344
4239.34017,0.33276
4237.41145,0.33274
4235.48272,0.33374
4233.55399,0.33460
4231.62527,0.33484
4229.69654,0.33531
4227.76782,0.33618
4225.83909,0.33651
4223.91036,0.33606
4221.98164,0.33581
4220.05291,0.33628
4218.12418,0.33685
4216.19546,0.33728
4214.26673,0.33767
4212.33801,0.33785
4210.40928,0.33797
4208.48055,0.33806
4206.55183,0.33811
4204.62310,0.33835
4202.69437,0.33884
4200.76565,0.33927
4198.83692,0.33930
4196.90820,0.33906
4194.97947,0.33875
4193.05074,0.33877
4191.12202,0.33983
4189.19329,0.34107
4187.26456,0.34121
4185.33584,0.34082
4183.40711,0.34044
4181.47839,0.34033
4179.54966,0.34084
4177.62093,0.34126
4175.69221,0.34150
4173.76348,0.34256
4171.83476,0.34420
4169.90603,0.34515
4167.97730,0.34535
4166.04858,0.34564
4164.11985,0.34608
4162.19112,0.34609
4160.26240,0.34587
4158.33367,0.34606
4156.40495,0.34639
4154.47622,0.34613
4152.54749,0.34549
4150.61877,0.34486
4148.69004,0.34413
4146.76131,0.34362
4144.83259,0.34341
4142.90386,0.34249
4140.97514,0.34082
4139.04641,0.34011
4137.11768,0.34039
4135.18896,0.33982
4133.26023,0.33816
4131.33151,0.33670
4129.40278,0.33575
4127.47405,0.33483
4125.54533,0.33404
4123.61660,0.33322
4121.68787,0.33202
4119.75915,0.33086
4117.83042,0.33001
4115.90170,0.32919
4113.97297,0.32822
4112.04424,0.32709
4110.11552,0.32563
4108.18679,0.32364
4106.25806,0.32171
4104.32934,0.32045
4102.40061,0.31931
4100.47189,0.31760
4098.54316,0.31562
4096.61443,0.31387
4094.68571,0.31211
4092.75698,0.30998
4090.82826,0.30800
4088.89953,0.30671
4086.97080,0.30561
4085.04208,0.30430
4083.11335,0.30291
4081.18462,0.30109
4079.25590,0.29883
4077.32717,0.29671
4075.39845,0.29467
4073.46972,0.29284
4071.54099,0.29136
4069.61227,0.28966
4067.68354,0.28766
4065.75481,0.28578
4063.82609,0.28399
4061.89736,0.28221
4059.96864,0.28080
4058.03991,0.27964
4056.11118,0.27819
4054.18246,0.27618
4052.25373,0.27401
4050.32501,0.27239
4048.39628,0.27124
4046.46755,0.27006
4044.53883,0.26903
4042.61010,0.26823
4040.68137,0.26740
4038.75265,0.26637
4036.82392,0.26487
4034.89520,0.26299
4032.96647,0.26157
4031.03774,0.26094
4029.10902,0.26066
4027.18029,0.26046
4025.25156,0.26028
4023.32284,0.26000
4021.39411,0.25946
4019.46539,0.25887
4017.53666,0.25891
4015.60793,0.25948
4013.67921,0.25976
4011.75048,0.25973
4009.82176,0.25977
4007.89303,0.25976
4005.96430,0.25996
4004.03558,0.26055
4002.10685,0.26106
4000.17812,0.26152
3998.24940,0.26226
3996.32067,0.26307
3994.39195,0.26361
3992.46322,0.26406
3990.53449,0.26470
3988.60577,0.26510
3986.67704,0.26500
3984.74831,0.26482
3982.81959,0.26499
3980.89086,0.26541
3978.96214,0.26581
3977.03341,0.26635
3975.10468,0.26705
3973.17596,0.26759
3971.24723,0.26809
3969.31851,0.26904
3967.38978,0.27026
3965.46105,0.27114
3963.53233,0.27159
3961.60360,0.27193
3959.67487,0.27242
3957.74615,0.27302
3955.81742,0.27341
3953.88870,0.27375
3951.95997,0.27452
3950.03124,0.27560
3948.10252,0.27637
3946.17379,0.27698
3944.24506,0.27827
3942.31634,0.27989
3940.38761,0.28101
3938.45889,0.28185
3936.53016,0.28269
3934.60143,0.28365
3932.67271,0.28473
3930.74398,0.28573
3928.81526,0.28652
3926.88653,0.28722
3924.95780,0.28776
3923.02908,0.28813
3921.10035,0.28890
3919.17162,0.29026
3917.24290,0.29185
3915.31417,0.29327
3913.38545,0.29428
3911.45672,0.29502
3909.52799,0.29561
3907.59927,0.29630
3905.67054,0.29716
3903.74181,0.29781
3901.81309,0.29838
3899.88436,0.29937
3897.95564,0.30004
3896.02691,0.30016
3894.09818,0.30064
3892.16946,0.30171
3890.24073,0.30269
3888.31201,0.30401
3886.38328,0.30579
3884.45455,0.30632
3882.52583,0.30628
3880.59710,0.30641
3878.66837,0.30561
3876.73965,0.30547
3874.81092,0.30722
3872.88220,0.30973
3870.95347,0.31206
3869.02474,0.31289
3867.09602,0.31313
3865.16729,0.31464
3863.23856,0.31607
3861.30984,0.31647
3859.38111,0.31632
3857.45239,0.31595
3855.52366,0.31577
3853.59493,0.31621
3851.66621,0.31709
3849.73748,0.31864
3847.80876,0.32040
3845.88003,0.32209
3843.95130,0.32341
3842.02258,0.32424
3840.09385,0.32559
3838.16512,0.32747
3836.23640,0.32867
3834.30767,0.32927
3832.37895,0.32960
3830.45022,0.32938
3828.52149,0.32921
3826.59277,0.32921
3824.66404,0.32906
3822.73531,0.32978
3820.80659,0.33037
3818.87786,0.33013
3816.94914,0.33108
3815.02041,0.33170
3813.09168,0.33113
3811.16296,0.33090
3809.23423,0.33126
3807.30550,0.33133
3805.37678,0.33062
3803.44805,0.33104
3801.51933,0.33174
3799.59060,0.33085
3797.66187,0.33076
3795.73315,0.33137
3793.80442,0.33177
3791.87570,0.33262
3789.94697,0.33348
3788.01824,0.33385
3786.08952,0.33384
3784.16079,0.33320
3782.23206,0.33254
3780.30334,0.33270
3778.37461,0.33254
3776.44589,0.33167
3774.51716,0.33110
3772.58843,0.33119
3770.65971,0.33150
3768.73098,0.33120
3766.80225,0.33079
3764.87353,0.33026
3762.94480,0.32952
3761.01608,0.32964
3759.08735,0.32967
3757.15862,0.32834
3755.22990,0.32682
3753.30117,0.32646
3751.37245,0.32638
3749.44372,0.32497
3747.51499,0.32371
3745.58627,0.32363
3743.65754,0.32232
3741.72881,0.32021
3739.80009,0.31959
3737.87136,0.31953
3735.94264,0.31841
3734.01391,0.31628
3732.08518,0.31436
3730.15646,0.31295
3728.22773,0.31211
3726.29900,0.31107
3724.37028,0.30936
3722.44155,0.30793
3720.51283,0.30709
3718.58410,0.30643
3716.65537,0.30556
3714.72665,0.30448
3712.79792,0.30268
3710.86920,0.29908
3708.94047,0.29487
3707.01174,0.29166
3705.08302,0.28917
3703.15429,0.28653
3701.22556,0.28295
3699.29684,0.27918
3697.36811,0.27635
3695.43939,0.27362
3693.51066,0.27060
3691.58193,0.26769
3689.65321,0.26390
3687.72448,0.25839
3685.79575,0.25298
3683.86703,0.24871
3681.93830,0.24448
3680.00958,0.23964
3678.08085,0.23464
3676.15212,0.22885
3674.22340,0.22117
3672.29467,0.21442
3670.36595,0.20853
3668.43722,0.20139
3666.50849,0.19513
3664.57977,0.19056
3662.65104,0.18624
3660.72231,0.18142
3658.79359,0.17620
3656.86486,0.17073
3654.93614,0.16553
3653.00741,0.16169
3651.07868,0.15824
3649.14996,0.15300
3647.22123,0.14708
3645.29250,0.14277
3643.36378,0.13980
3641.43505,0.13683
3639.50633,0.13334
3637.57760,0.12966
3635.64887,0.12625
3633.72015,0.12339
3631.79142,0.12122
3629.86270,0.11896
3627.93397,0.11512
3626.00524,0.11100
3624.07652,0.10833
3622.14779,0.10682
3620.21906,0.10509
3618.29034,0.10209
3616.36161,0.09889
3614.43289,0.09660
3612.50416,0.09469
3610.57543,0.09287
3608.64671,0.09103
3606.71798,0.08878
3604.78925,0.08648
3602.86053,0.08446
3600.93180,0.08263
3599.00308,0.08093
3597.07435,0.07934
3595.14562,0.07773
3593.21690,0.07578
3591.28817,0.07366
3589.35945,0.07174
3587.43072,0.06974
3585.50199,0.06757
3583.57327,0.06591
3581.64454,0.06510
3579.71581,0.06466
3577.78709,0.06386
3575.85836,0.06260
3573.92964,0.06115
3572.00091,0.05985
3570.07218,0.05897
3568.14346,0.05821
3566.21473,0.05683
3564.28600,0.05512
3562.35728,0.05385
3560.42855,0.05292
3558.49983,0.05200
3556.57110,0.05115
3554.64237,0.05047
3552.71365,0.04967
3550.78492,0.04850
3548.85620,0.04735
3546.92747,0.04666
3544.99874,0.04636
3543.07002,0.04597
3541.14129,0.04520
3539.21256,0.04427
3537.28384,0.04361
3535.35511,0.04331
3533.42639,0.04317
3531.49766,0.04278
3529.56893,0.04189
3527.64021,0.04105
3525.71148,0.04081
3523.78275,0.04074
3521.85403,0.04014
3519.92530,0.03917
3517.99658,0.03838
3516.06785,0.03803
3514.13912,0.03812
3512.21040,0.03845
3510.28167,0.03863
3508.35295,0.03832
3506.42422,0.03762
3504.49549,0.03692
3502.56677,0.03655
3500.63804,0.03651
3498.70931,0.03632
3496.78059,0.03564
3494.85186,0.03490
3492.92314,0.03461
3490.99441,0.03462
3489.06568,0.03457
3487.13696,0.03432
3485.20823,0.03397
3483.27950,0.03381
3481.35078,0.03366
3479.42205,0.03325
3477.49333,0.03290
3475.56460,0.03296
3473.63587,0.03309
3471.70715,0.03280
3469.77842,0.03213
3467.84970,0.03155
3465.92097,0.03134
3463.99224,0.03139
3462.06352,0.03164
3460.13479,0.03185
3458.20606,0.03164
3456.27734,0.03123
3454.34861,0.03124
3452.41989,0.03155
3450.49116,0.03166
3448.56243,0.03156
3446.63371,0.03149
3444.70498,0.03168
3442.77625,0.03198
3440.84753,0.03193
3438.91880,0.03151
3436.99008,0.03097
3435.06135,0.03066
3433.13262,0.03074
3431.20390,0.03085
3429.27517,0.03070
3427.34644,0.03061
3425.41772,0.03086
3423.48899,0.03109
3421.56027,0.03109
3419.63154,0.03112
3417.70281,0.03138
3415.77409,0.03159
3413.84536,0.03136
3411.91664,0.03088
3409.98791,0.03073
3408.05918,0.03127
3406.13046,0.03200
3404.20173,0.03216
3402.27300,0.03157
3400.34428,0.03067
3398.41555,0.03010
3396.48683,0.03011
3394.55810,0.03065
3392.62937,0.03142
3390.70065,0.03188
3388.77192,0.03188
3386.84319,0.03175
3384.91447,0.03176
3382.98574,0.03186
3381.05702,0.03199
3379.12829,0.03204
3377.19956,0.03188
3375.27084,0.03166
3373.34211,0.03150
3371.41339,0.03131
3369.48466,0.03120
3367.55593,0.03152
3365.62721,0.03214
3363.69848,0.03256
3361.76975,0.03259
3359.84103,0.03230
3357.91230,0.03195
3355.98358,0.03158
3354.05485,0.03122
3352.12612,0.03116
3350.19740,0.03137
3348.26867,0.03150
3346.33994,0.03159
3344.41122,0.03196
3342.48249,0.03260
3340.55377,0.03313
3338.62504,0.03328
3336.69631,0.03317
3334.76759,0.03304
3332.83886,0.03323
3330.91014,0.03378
3328.98141,0.03403
3327.05268,0.03365
3325.12396,0.03329
3323.19523,0.03362
3321.26650,0.03431
3319.33778,0.03482
3317.40905,0.03517
3315.48033,0.03543
3313.55160,0.03554
3311.62287,0.03562
3309.69415,0.03574
3307.76542,0.03597
3305.83669,0.03630
3303.90797,0.03652
3301.97924,0.03649
3300.05052,0.03625
3298.12179,0.03600
3296.19306,0.03613
3294.26434,0.03673
3292.33561,0.03730
3290.40689,0.03736
3288.47816,0.03724
3286.54943,0.03744
3284.62071,0.03783
3282.69198,0.03819
3280.76325,0.03843
3278.83453,0.03856
3276.90580,0.03896
3274.97708,0.03979
3273.04835,0.04063
3271.11962,0.04106
3269.19090,0.04110
3267.26217,0.04114
3265.33344,0.04153
3263.40472,0.04208
3261.47599,0.04239
3259.54727,0.04250
3257.61854,0.04282
3255.68981,0.04326
3253.76109,0.04354
3251.83236,0.04401
3249.90364,0.04461
3247.97491,0.04495
3246.04618,0.04534
3244.11746,0.04605
3242.18873,0.04673
3240.26000,0.04722
3238.33128,0.04770
3236.40255,0.04838
3234.47383,0.04904
3232.54510,0.04920
3230.61637,0.04919
3228.68765,0.04975
3226.75892,0.05058
3224.83019,0.05101
3222.90147,0.05121
3220.97274,0.05148
3219.04402,0.05180
3217.11529,0.05231
3215.18656,0.05303
3213.25784,0.05358
3211.32911,0.05405
3209.40039,0.05495
3207.47166,0.05593
3205.54293,0.05645
3203.61421,0.05672
3201.68548,0.05717
3199.75675,0.05782
3197.82803,0.05838
3195.89930,0.05884
3193.97058,0.05934
3192.04185,0.05978
3190.11312,0.06009
3188.18440,0.06054
3186.25567,0.06124
3184.32694,0.06181
3182.39822,0.06205
3180.46949,0.06226
3178.54077,0.06264
3176.61204,0.06332
3174.68331,0.06420
3172.75459,0.06493
3170.82586,0.06540
3168.89714,0.06576
3166.96841,0.06615
3165.03968,0.06671
3163.11096,0.06763
3161.18223,0.06877
3159.25350,0.06976
3157.32478,0.07050
3155.39605,0.07107
3153.46733,0.07156
3151.53860,0.07203
3149.60987,0.07222
3147.68115,0.07199
3145.75242,0.07201
3143.82369,0.07283
3141.89497,0.07399
3139.96624,0.07479
3138.03752,0.07502
3136.10879,0.07519
3134.18006,0.07599
3132.25134,0.07720
3130.32261,0.07814
3128.39389,0.07860
3126.46516,0.07868
3124.53643,0.07861
3122.60771,0.07888
3120.67898,0.07965
3118.75025,0.08063
3116.82153,0.08142
3114.89280,0.08190
3112.96408,0.08231
3111.03535,0.08267
3109.10662,0.08286
3107.17790,0.08326
3105.24917,0.08409
3103.32044,0.08489
3101.39172,0.08545
3099.46299,0.08610
3097.53427,0.08684
3095.60554,0.08735
3093.67681,0.08768
3091.74809,0.08803
3089.81936,0.08846
3087.89063,0.08905
3085.96191,0.08959
3084.03318,0.08987
3082.10446,0.09011
3080.17573,0.09049
3078.24700,0.09084
3076.31828,0.09113
3074.38955,0.09145
3072.46083,0.09169
3070.53210,0.09174
3068.60337,0.09188
3066.67465,0.09241
3064.74592,0.09318
3062.81719,0.09379
3060.88847,0.09415
3058.95974,0.09439
3057.03102,0.09469
3055.10229,0.09514
3053.17356,0.09554
3051.24484,0.09575
3049.31611,0.09597
3047.38738,0.09603
3045.45866,0.09591
3043.52993,0.09613
3041.60121,0.09661
3039.67248,0.09682
3037.74375,0.09683
3035.81503,0.09667
3033.88630,0.09619
3031.95758,0.09563
3030.02885,0.09554
3028.10012,0.09602
3026.17140,0.09642
3024.24267,0.09611
3022.31394,0.09542
3020.38522,0.09507
3018.45649,0.09494
3016.52777,0.09443
3014.59904,0.09361
3012.67031,0.09285
3010.74159,0.09200
3008.81286,0.09090
3006.88413,0.08985
3004.95541,0.08918
3003.02668,0.08873
3001.09796,0.08815
2999.16923,0.08731
2997.24050,0.08645
2995.31178,0.08566
2993.38305,0.08490
2991.45433,0.08412
2989.52560,0.08327
2987.59687,0.08235
2985.66815,0.08127
2983.73942,0.07983
2981.81069,0.07816
2979.88197,0.07636
2977.95324,0.07437
2976.02452,0.07241
2974.09579,0.07055
2972.16706,0.06871
2970.23834,0.06697
2968.30961,0.06541
2966.38088,0.06415
2964.45216,0.06330
2962.52343,0.06252
2960.59471,0.06163
2958.66598,0.06078
2956.73725,0.05991
2954.80853,0.05894
2952.87980,0.05800
2950.95108,0.05714
2949.02235,0.05626
2947.09362,0.05541
2945.16490,0.05469
2943.23617,0.05411
2941.30744,0.05349
2939.37872,0.05290
2937.44999,0.05258
2935.52127,0.05245
2933.59254,0.05232
2931.66381,0.05209
2929.73509,0.05170
2927.80636,0.05132
2925.87763,0.05106
2923.94891,0.05086
2922.02018,0.05063
2920.09146,0.05041
2918.16273,0.05039
2916.23400,0.05064
2914.30528,0.05101
2912.37655,0.05133
2910.44783,0.05158
2908.51910,0.05207
2906.59037,0.05293
2904.66165,0.05343
2902.73292,0.05318
2900.80419,0.05299
2898.87547,0.05341
2896.94674,0.05408
2895.01802,0.05460
2893.08929,0.05485
2891.16056,0.05497
2889.23184,0.05532
2887.30311,0.05610
2885.37438,0.05687
2883.44566,0.05734
2881.51693,0.05780
2879.58821,0.05827
2877.65948,0.05859
2875.73075,0.05886
2873.80203,0.05920
2871.87330,0.05962
2869.94458,0.06013
2868.01585,0.06074
2866.08712,0.06136
2864.15840,0.06196
2862.22967,0.06247
2860.30094,0.06258
2858.37222,0.06230
2856.44349,0.06217
2854.51477,0.06233
2852.58604,0.06229
2850.65731,0.06221
2848.72859,0.06295
2846.79986,0.06479
2844.87113,0.06738
2842.94241,0.07002
2841.01368,0.07219
2839.08496,0.07401
2837.15623,0.07576
2835.22750,0.07765
2833.29878,0.07977
2831.37005,0.08204
2829.44133,0.08429
2827.51260,0.08636
2825.58387,0.08831
2823.65515,0.09032
2821.72642,0.09237
2819.79769,0.09410
2817.86897,0.09547
2815.94024,0.09687
2814.01152,0.09833
2812.08279,0.09935
2810.15406,0.10005
2808.22534,0.10110
2806.29661,0.10251
2804.36788,0.10371
2802.43916,0.10460
2800.51043,0.10547
2798.58171,0.10647
2796.65298,0.10743
2794.72425,0.10813
2792.79553,0.10849
2790.86680,0.10886
2788.93808,0.10955
2787.00935,0.11024
2785.08062,0.11053
2783.15190,0.11067
2781.22317,0.11109
2779.29444,0.11172
2777.36572,0.11219
2775.43699,0.11253
2773.50827,0.11277
2771.57954,0.11296
2769.65081,0.11325
2767.72209,0.11352
2765.79336,0.11359
2763.86463,0.11365
2761.93591,0.11392
2760.00718,0.11433
2758.07846,0.11473
2756.14973,0.11502
2754.22100,0.11511
2752.29228,0.11498
2750.36355,0.11484
2748.43483,0.11479
2746.50610,0.11486
2744.57737,0.11522
2742.64865,0.11571
2740.71992,0.11588
2738.79119,0.11584
2736.86247,0.11593
2734.93374,0.11617
2733.00502,0.11635
2731.07629,0.11644
2729.14756,0.11667
2727.21884,0.11732
2725.29011,0.11819
2723.36138,0.11864
2721.43266,0.11859
2719.50393,0.11864
2717.57521,0.11901
2715.64648,0.11964
2713.71775,0.12050
2711.78903,0.12124
2709.86030,0.12169
2707.93157,0.12212
2706.00285,0.12282
2704.07412,0.12373
2702.14540,0.12465
2700.21667,0.12548
2698.28794,0.12615
2696.35922,0.12661
2694.43049,0.12698
2692.50177,0.12757
2690.57304,0.12834
2688.64431,0.12901
2686.71559,0.12959
2684.78686,0.13023
2682.85813,0.13083
2680.92941,0.13123
2679.00068,0.13163
2677.07196,0.13227
2675.14323,0.13282
2673.21450,0.13311
2671.28578,0.13335
2669.35705,0.13366
2667.42832,0.13402
2665.49960,0.13429
2663.57087,0.13438
2661.64215,0.13431
2659.71342,0.13433
2657.78469,0.13462
2655.85597,0.13504
2653.92724,0.13547
2651.99852,0.13606
2650.06979,0.13669
2648.14106,0.13704
2646.21234,0.13713
2644.28361,0.13729
2642.35488,0.13766
2640.42616,0.13805
2638.49743,0.13834
2636.56871,0.13868
2634.63998,0.13908
2632.71125,0.13947
2630.78253,0.13998
2628.85380,0.14073
2626.92507,0.14165
2624.99635,0.14243
2623.06762,0.14293
2621.13890,0.14327
2619.21017,0.14345
2617.28144,0.14362
2615.35272,0.14403
2613.42399,0.14454
2611.49527,0.14481
2609.56654,0.14492
2607.63781,0.14531
2605.70909,0.14595
2603.78036,0.14645
2601.85163,0.14668
2599.92291,0.14690
2597.99418,0.14736
2596.06546,0.14783
2594.13673,0.14797
2592.20800,0.14792
2590.27928,0.14813
2588.35055,0.14862
2586.42182,0.14902
2584.49310,0.14919
2582.56437,0.14933
2580.63565,0.14960
2578.70692,0.15000
2576.77819,0.15045
2574.84947,0.15080
2572.92074,0.15090
2570.99202,0.15091
2569.06329,0.15104
2567.13456,0.15105
2565.20584,0.15092
2563.27711,0.15104
2561.34838,0.15132
2559.41966,0.15151
2557.49093,0.15163
2555.56221,0.15168
2553.63348,0.15179
2551.70475,0.15199
2549.77603,0.15221
2547.84730,0.15257
2545.91857,0.15297
2543.98985,0.15315
2542.06112,0.15319
2540.13240,0.15328
2538.20367,0.15343
2536.27494,0.15368
2534.34622,0.15407
2532.41749,0.15436
2530.48877,0.15444
2528.56004,0.15463
2526.63131,0.15499
2524.70259,0.15538
2522.77386,0.15591
2520.84513,0.15644
2518.91641,0.15664
2516.98768,0.15672
2515.05896,0.15716
2513.13023,0.15789
2511.20150,0.15857
2509.27278,0.15919
2507.34405,0.15991
2505.41532,0.16078
2503.48660,0.16165
2501.55787,0.16229
2499.62915,0.16264
2497.70042,0.16301
2495.77169,0.16376
2493.84297,0.16467
2491.91424,0.16534
2489.98552,0.16591
2488.05679,0.16661
2486.12806,0.16732
2484.19934,0.16790
2482.27061,0.16843
2480.34188,0.16900
2478.41316,0.16938
2476.48443,0.16958
2474.55571,0.17009
2472.62698,0.17083
2470.69825,0.17131
2468.76953,0.17163
2466.84080,0.17221
2464.91207,0.17278
2462.98335,0.17302
2461.05462,0.17329
2459.12590,0.17385
2457.19717,0.17451
2455.26844,0.17521
2453.33972,0.17584
2451.41099,0.17633
2449.48227,0.17687
2447.55354,0.17748
2445.62481,0.17804
2443.69609,0.17867
2441.76736,0.17928
2439.83863,0.17965
2437.90991,0.17995
2435.98118,0.18039
2434.05246,0.18105
2432.12373,0.18190
2430.19500,0.18284
2428.26628,0.18381
2426.33755,0.18474
2424.40882,0.18535
2422.48010,0.18570
2420.55137,0.18617
2418.62265,0.18681
2416.69392,0.18753
2414.76519,0.18849
2412.83647,0.18972
2410.90774,0.19095
2408.97902,0.19188
2407.05029,0.19243
2405.12156,0.19283
2403.19284,0.19335
2401.26411,0.19403
2399.33538,0.19474
2397.40666,0.19534
2395.47793,0.19592
2393.54921,0.19644
2391.62048,0.19670
2389.69175,0.19670
2387.76303,0.19664
2385.83430,0.19653
2383.90557,0.19633
2381.97685,0.19610
2380.04812,0.19569
2378.11940,0.19491
2376.19067,0.19405
2374.26194,0.19391
2372.33322,0.19467
2370.40449,0.19531
2368.47576,0.19503
2366.54704,0.19431
2364.61831,0.19362
2362.68959,0.19291
2360.76086,0.19253
2358.83213,0.19234
2356.90341,0.19182
2354.97468,0.19145
2353.04596,0.19156
2351.11723,0.19185
2349.18850,0.19233
2347.25978,0.19288
2345.33105,0.19277
2343.40232,0.19200
2341.47360,0.19199
2339.54487,0.19329
2337.61615,0.19473
2335.68742,0.19551
2333.75869,0.19575
2331.82997,0.19573
2329.90124,0.19552
2327.97251,0.19556
2326.04379,0.19629
2324.11506,0.19726
2322.18634,0.19804
2320.25761,0.19889
2318.32888,0.19962
2316.40016,0.19968
2314.47143,0.19931
2312.54271,0.19915
2310.61398,0.19921
2308.68525,0.19919
2306.75653,0.19888
2304.82780,0.19813
2302.89907,0.19700
2300.97035,0.19579
2299.04162,0.19470
2297.11290,0.19375
2295.18417,0.19283
2293.25544,0.19189
2291.32672,0.19092
2289.39799,0.18981
2287.46926,0.18857
2285.54054,0.18745
2283.61181,0.18663
2281.68309,0.18599
2279.75436,0.18542
2277.82563,0.18507
2275.89691,0.18526
2273.96818,0.18595
2272.03946,0.18674
2270.11073,0.18729
2268.18200,0.18766
2266.25328,0.18810
2264.32455,0.18872
2262.39582,0.18945
2260.46710,0.19017
2258.53837,0.19080
2256.60965,0.19131
2254.68092,0.19181
2252.75219,0.19238
2250.82347,0.19316
2248.89474,0.19406
2246.96601,0.19456
2245.03729,0.19506
2243.10856,0.19600
2241.17984,0.19721
2239.25111,0.19809
2237.32238,0.19869
2235.39366,0.19941
2233.46493,0.20024
2231.53621,0.20102
2229.60748,0.20160
2227.67875,0.20213
2225.75003,0.20284
2223.82130,0.20354
2221.89257,0.20406
2219.96385,0.20458
2218.03512,0.20511
2216.10640,0.20549
2214.17767,0.20569
2212.24894,0.20591
2210.32022,0.20622
2208.39149,0.20642
2206.46276,0.20631
2204.53404,0.20600
2202.60531,0.20572
2200.67659,0.20539
2198.74786,0.20509
2196.81913,0.20500
2194.89041,0.20482
2192.96168,0.20412
2191.03296,0.20315
2189.10423,0.20233
2187.17550,0.20137
2185.24678,0.20012
2183.31805,0.19895
2181.38932,0.19789
2179.46060,0.19657
2177.53187,0.19512
2175.60315,0.19396
2173.67442,0.19301
2171.74569,0.19181
2169.81697,0.19036
2167.88824,0.18917
2165.95951,0.18833
2164.03079,0.18745
2162.10206,0.18658
2160.17334,0.18592
2158.24461,0.18514
2156.31588,0.18400
2154.38716,0.18293
2152.45843,0.18225
2150.52971,0.18179
2148.60098,0.18150
2146.67225,0.18140
2144.74353,0.18114
2142.81480,0.18074
2140.88607,0.18056
2138.95735,0.18038
2137.02862,0.18003
2135.09990,0.17978
2133.17117,0.17973
2131.24244,0.17980
2129.31372,0.17995
2127.38499,0.18020
2125.45626,0.18050
2123.52754,0.18082
2121.59881,0.18104
2119.67009,0.18120
2117.74136,0.18162
2115.81263,0.18228
2113.88391,0.18270
2111.95518,0.18283
2110.02646,0.18307
2108.09773,0.18355
2106.16900,0.18419
2104.24028,0.18480
2102.31155,0.18522
2100.38282,0.18561
2098.45410,0.18613
2096.52537,0.18675
2094.59665,0.18728
2092.66792,0.18758
2090.73919,0.18762
2088.81047,0.18749
2086.88174,0.18758
2084.95301,0.18801
2083.02429,0.18836
2081.09556,0.18825
2079.16684,0.18777
2077.23811,0.18726
2075.30938,0.18699
2073.38066,0.18694
2071.45193,0.18687
2069.52321,0.18669
2067.59448,0.18652
2065.66575,0.18631
2063.73703,0.18594
2061.80830,0.18575
2059.87957,0.18582
2057.95085,0.18580
2056.02212,0.18576
2054.09340,0.18605
2052.16467,0.18655
2050.23594,0.18692
2048.30722,0.18713
2046.37849,0.18732
2044.44976,0.18762
2042.52104,0.18812
2040.59231,0.18861
2038.66359,0.18892
2036.73486,0.18918
2034.80613,0.18957
2032.87741,0.19021
2030.94868,0.19100
2029.01996,0.19182
2027.09123,0.19281
2025.16250,0.19398
2023.23378,0.19496
2021.30505,0.19576
2019.37632,0.19679
2017.44760,0.19794
2015.51887,0.19869
2013.59015,0.19932
2011.66142,0.20019
2009.73269,0.20111
2007.80397,0.20182
2005.87524,0.20235
2003.94651,0.20281
2002.01779,0.20326
2000.08906,0.20386
1998.16034,0.20449
1996.23161,0.20494
1994.30288,0.20552
1992.37416,0.20646
1990.44543,0.20719
1988.51670,0.20740
1986.58798,0.20724
1984.65925,0.20708
1982.73053,0.20713
1980.80180,0.20728
1978.87307,0.20746
1976.94435,0.20755
1975.01562,0.20738
1973.08690,0.20704
1971.15817,0.20679
1969.22944,0.20686
1967.30072,0.20694
1965.37199,0.20666
1963.44326,0.20631
1961.51454,0.20602
1959.58581,0.20558
1957.65709,0.20514
1955.72836,0.20492
1953.79963,0.20486
1951.87091,0.20496
1949.94218,0.20531
1948.01345,0.20592
1946.08473,0.20682
1944.15600,0.20795
1942.22728,0.20844
1940.29855,0.20800
1938.36982,0.20795
1936.44110,0.20870
1934.51237,0.20943
1932.58365,0.20969
1930.65492,0.20981
1928.72619,0.21008
1926.79747,0.21063
1924.86874,0.21178
1922.94001,0.21280
1921.01129,0.21294
1919.08256,0.21295
1917.15384,0.21269
1915.22511,0.21176
1913.29638,0.21100
1911.36766,0.21085
1909.43893,0.21093
1907.51020,0.21076
1905.58148,0.21043
1903.65275,0.21007
1901.72403,0.20970
1899.79530,0.20958
1897.86657,0.20987
1895.93785,0.21032
1894.00912,0.21058
1892.08040,0.21090
1890.15167,0.21144
1888.22294,0.21142
1886.29422,0.21082
1884.36549,0.21030
1882.43676,0.20995
1880.50804,0.20963
1878.57931,0.20936
1876.65059,0.20923
1874.72186,0.20935
1872.79313,0.20998
1870.86441,0.21136
1868.93568,0.21225
1867.00695,0.21099
1865.07823,0.20867
1863.14950,0.20709
1861.22078,0.20623
1859.29205,0.20547
1857.36332,0.20456
1855.43460,0.20353
1853.50587,0.20240
1851.57715,0.20135
1849.64842,0.20076
1847.71969,0.20086
1845.79097,0.20130
1843.86224,0.20026
1841.93351,0.19707
1840.00479,0.19409
1838.07606,0.19221
1836.14734,0.19055
1834.21861,0.18924
1832.28988,0.18899
1830.36116,0.18870
1828.43243,0.18669
1826.50370,0.18400
1824.57498,0.18146
1822.64625,0.17855
1820.71753,0.17575
1818.78880,0.17341
1816.86007,0.17112
1814.93135,0.16874
1813.00262,0.16648
1811.07390,0.16392
1809.14517,0.16062
1807.21644,0.15725
1805.28772,0.15449
1803.35899,0.15224
1801.43026,0.14974
1799.50154,0.14654
1797.57281,0.14343
1795.64409,0.14116
1793.71536,0.13910
1791.78663,0.13555
1789.85791,0.13056
1787.92918,0.12619
1786.00045,0.12276
1784.07173,0.11940
1782.14300,0.11585
1780.21428,0.11184
1778.28555,0.10748
1776.35682,0.10373
1774.42810,0.10053
1772.49937,0.09604
1770.57065,0.08935
1768.64192,0.08233
1766.71319,0.07639
1764.78447,0.07183
1762.85574,0.06797
1760.92701,0.06394
1758.99829,0.06020
1757.06956,0.05705
1755.14084,0.05438
1753.21211,0.05256
1751.28338,0.05133
1749.35466,0.05002
1747.42593,0.04861
1745.49720,0.04737
1743.56848,0.04640
1741.63975,0.04581
1739.71103,0.04553
1737.78230,0.04558
1735.85357,0.04651
1733.92485,0.04793
1731.99612,0.04847
1730.06740,0.04851
1728.13867,0.04892
1726.20994,0.04969
1724.28122,0.05042
1722.35249,0.05111
1720.42376,0.05257
1718.49504,0.05518
1716.56631,0.05745
1714.63759,0.05800
1712.70886,0.05793
1710.78013,0.05856
1708.85141,0.06016
1706.92268,0.06224
1704.99395,0.06399
1703.06523,0.06545
1701.13650,0.06726
1699.20778,0.06853
1697.27905,0.06862
1695.35032,0.06781
1693.42160,0.06655
1691.49287,0.06576
1689.56415,0.06559
1687.63542,0.06620
1685.70669,0.06771
1683.77797,0.06790
1681.84924,0.06552
1679.92051,0.06340
1677.99179,0.06257
1676.06306,0.06205
1674.13434,0.06109
1672.20561,0.06040
1670.27688,0.06033
1668.34816,0.05966
1666.41943,0.05842
1664.49070,0.05764
1662.56198,0.05715
1660.63325,0.05659
1658.70453,0.05658
1656.77580,0.05762
1654.84707,0.05937
1652.91835,0.05987
1650.98962,0.05846
1649.06090,0.05809
1647.13217,0.05868
1645.20344,0.05813
1643.27472,0.05695
1641.34599,0.05645
1639.41726,0.05694
1637.48854,0.05824
1635.55981,0.05894
1633.63109,0.05781
1631.70236,0.05646
1629.77363,0.05597
1627.84491,0.05578
1625.91618,0.05546
1623.98745,0.05497
1622.05873,0.05398
1620.13000,0.05287
1618.20128,0.05202
1616.27255,0.05084
1614.34382,0.04936
1612.41510,0.04840
1610.48637,0.04787
1608.55764,0.04724
1606.62892,0.04660
1604.70019,0.04627
1602.77147,0.04598
1600.84274,0.04535
1598.91401,0.04459
1596.98529,0.04407
1595.05656,0.04392
1593.12784,0.04428
1591.19911,0.04527
1589.27038,0.04681
1587.34166,0.04883
1585.41293,0.05131
1583.48420,0.05394
1581.55548,0.05640
1579.62675,0.05908
1577.69803,0.06271
1575.76930,0.06641
1573.84057,0.06858
1571.91185,0.07031
1569.98312,0.07240
1568.05439,0.07353
1566.12567,0.07349
1564.19694,0.07329
1562.26822,0.07384
1560.33949,0.07519
1558.41076,0.07480
1556.48204,0.07168
1554.55331,0.06897
1552.62459,0.06722
1550.69586,0.06578
1548.76713,0.06437
1546.83841,0.06347
1544.90968,0.06347
1542.98095,0.06410
1541.05223,0.06430
1539.12350,0.06232
1537.19478,0.05957
1535.26605,0.05808
1533.33732,0.05699
1531.40860,0.05536
1529.47987,0.05393
1527.55114,0.05276
1525.62242,0.05136
1523.69369,0.05002
1521.76497,0.04835
1519.83624,0.04579
1517.90751,0.04353
1515.97879,0.04187
1514.05006,0.04051
1512.12134,0.03987
1510.19261,0.04056
1508.26388,0.04231
1506.33516,0.04311
1504.40643,0.04225
1502.47770,0.04183
1500.54898,0.04250
1498.62025,0.04386
1496.69153,0.04535
1494.76280,0.04647
1492.83407,0.04758
1490.90535,0.04909
1488.97662,0.05025
1487.04789,0.05014
1485.11917,0.04923
1483.19044,0.04812
1481.26172,0.04676
1479.33299,0.04514
1477.40426,0.04366
1475.47554,0.04249
1473.54681,0.04101
1471.61809,0.03866
1469.68936,0.03645
1467.76063,0.03528
1465.83191,0.03475
1463.90318,0.03434
1461.97445,0.03426
1460.04573,0.03507
1458.11700,0.03655
1456.18828,0.03713
1454.25955,0.03637
1452.33082,0.03573
1450.40210,0.03577
1448.47337,0.03610
1446.54464,0.03625
1444.61592,0.03627
1442.68719,0.03621
1440.75847,0.03593
1438.82974,0.03555
1436.90101,0.03518
1434.97229,0.03453
1433.04356,0.03369
1431.11484,0.03303
1429.18611,0.03273
1427.25738,0.03293
1425.32866,0.03355
1423.39993,0.03421
1421.47120,0.03490
1419.54248,0.03582
1417.61375,0.03640
1415.68503,0.03639
1413.75630,0.03655
1411.82757,0.03718
1409.89885,0.03780
1407.97012,0.03798
1406.04139,0.03788
1404.11267,0.03781
1402.18394,0.03789
1400.25522,0.03802
1398.32649,0.03812
1396.39776,0.03820
1394.46904,0.03797
1392.54031,0.03725
1390.61159,0.03643
1388.68286,0.03546
1386.75413,0.03413
1384.82541,0.03286
1382.89668,0.03208
1380.96795,0.03162
1379.03923,0.03119
1377.11050,0.03090
1375.18178,0.03110
1373.25305,0.03165
1371.32432,0.03211
1369.39560,0.03240
1367.46687,0.03265
1365.53814,0.03305
1363.60942,0.03359
1361.68069,0.03401
1359.75197,0.03421
1357.82324,0.03423
1355.89451,0.03413
1353.96579,0.03414
1352.03706,0.03439
1350.10834,0.03470
1348.17961,0.03467
1346.25088,0.03410
1344.32216,0.03335
1342.39343,0.03299
1340.46470,0.03307
1338.53598,0.03305
1336.60725,0.03274
1334.67853,0.03247
1332.74980,0.03245
1330.82107,0.03266
1328.89235,0.03294
1326.96362,0.03304
1325.03489,0.03297
1323.10617,0.03294
1321.17744,0.03300
1319.24872,0.03299
1317.31999,0.03301
1315.39126,0.03338
1313.46254,0.03413
1311.53381,0.03484
1309.60509,0.03526
1307.67636,0.03565
1305.74763,0.03614
1303.81891,0.03642
1301.89018,0.03645
1299.96145,0.03650
1298.03273,0.03648
1296.10400,0.03617
1294.17528,0.03585
1292.24655,0.03569
1290.31782,0.03519
1288.38910,0.03414
1286.46037,0.03317
1284.53164,0.03270
1282.60292,0.03247
1280.67419,0.03217
1278.74547,0.03182
1276.81674,0.03150
1274.88801,0.03136
1272.95929,0.03149
1271.03056,0.03166
1269.10183,0.03148
1267.17311,0.03102
1265.24438,0.03062
1263.31566,0.03033
1261.38693,0.03017
1259.45820,0.03012
1257.52948,0.03006
1255.60075,0.02994
1253.67203,0.02989
1251.74330,0.02976
1249.81457,0.02939
1247.88585,0.02904
1245.95712,0.02900
1244.02839,0.02917
1242.09967,0.02936
1240.17094,0.02964
1238.24222,0.03017
1236.31349,0.03072
1234.38476,0.03104
1232.45604,0.03139
1230.52731,0.03209
1228.59858,0.03292
1226.66986,0.03346
1224.74113,0.03365
1222.81241,0.03380
1220.88368,0.03407
1218.95495,0.03447
1217.02623,0.03484
1215.09750,0.03492
1213.16878,0.03487
1211.24005,0.03499
1209.31132,0.03518
1207.38260,0.03514
1205.45387,0.03503
1203.52514,0.03513
1201.59642,0.03532
1199.66769,0.03543
1197.73897,0.03551
1195.81024,0.03541
1193.88151,0.03490
1191.95279,0.03411
1190.02406,0.03332
1188.09533,0.03262
1186.16661,0.03187
1184.23788,0.03119
1182.30916,0.03065
1180.38043,0.02970
1178.45170,0.02835
1176.52298,0.02724
1174.59425,0.02631
1172.66553,0.02565
1170.73680,0.02551
1168.80807,0.02534
1166.87935,0.02513
1164.95062,0.02553
1163.02189,0.02631
1161.09317,0.02705
1159.16444,0.02785
1157.23572,0.02861
1155.30699,0.02907
1153.37826,0.02905
1151.44954,0.02876
1149.52081,0.02872
1147.59208,0.02861
1145.66336,0.02783
1143.73463,0.02683
1141.80591,0.02596
1139.87718,0.02496
1137.94845,0.02405
1136.01973,0.02343
1134.09100,0.02278
1132.16228,0.02217
1130.23355,0.02214
1128.30482,0.02270
1126.37610,0.02329
1124.44737,0.02388
1122.51864,0.02471
1120.58992,0.02534
1118.66119,0.02564
1116.73247,0.02608
1114.80374,0.02679
1112.87501,0.02733
1110.94629,0.02741
1109.01756,0.02745
1107.08883,0.02804
1105.16011,0.02893
1103.23138,0.02959
1101.30266,0.03001
1099.37393,0.03027
1097.44520,0.03014
1095.51648,0.02955
1093.58775,0.02887
1091.65903,0.02837
1089.73030,0.02816
1087.80157,0.02842
1085.87285,0.02889
1083.94412,0.02923
1082.01539,0.02987
1080.08667,0.03091
1078.15794,0.03165
1076.22922,0.03183
1074.30049,0.03178
1072.37176,0.03185
1070.44304,0.03231
1068.51431,0.03309
1066.58558,0.03419
1064.65686,0.03574
1062.72813,0.03763
1060.79941,0.03973
1058.87068,0.04162
1056.94195,0.04298
1055.01323,0.04415
1053.08450,0.04511
1051.15578,0.04546
1049.22705,0.04566
1047.29832,0.04574
1045.36960,0.04508
1043.44087,0.04427
1041.51214,0.04430
1039.58342,0.04521
1037.65469,0.04670
1035.72597,0.04810
1033.79724,0.04906
1031.86851,0.04977
1029.93979,0.05033
1028.01106,0.05115
1026.08233,0.05234
1024.15361,0.05302
1022.22488,0.05293
1020.29616,0.05278
1018.36743,0.05302
1016.43870,0.05331
1014.50998,0.05327
1012.58125,0.05325
1010.65253,0.05342
1008.72380,0.05342
1006.79507,0.05331
1004.86635,0.05335
1002.93762,0.05357
1001.00889,0.05397
999.08017,0.05468
997.15144,0.05547
995.22272,0.05585
993.29399,0.05599
991.36526,0.05650
989.43654,0.05734
987.50781,0.05817
985.57908,0.05913
983.65036,0.06053
981.72163,0.06232
979.79291,0.06403
977.86418,0.06512
975.93545,0.06580
974.00673,0.06685
972.07800,0.06837
970.14928,0.06952
968.22055,0.07000
966.29182,0.07057
964.36310,0.07182
962.43437,0.07355
960.50564,0.07536
958.57692,0.07684
956.64819,0.07782
954.71947,0.07871
952.79074,0.07981
950.86201,0.08103
948.93329,0.08197
947.00456,0.08255
945.07583,0.08324
943.14711,0.08359
941.21838,0.08329
939.28966,0.08339
937.36093,0.08373
935.43220,0.08365
933.50348,0.08371
931.57475,0.08381
929.64603,0.08324
927.71730,0.08246
925.78857,0.08191
923.85985,0.08112
921.93112,0.08003
920.00239,0.07911
918.07367,0.07861
916.14494,0.07815
914.21622,0.07716
912.28749,0.07630
910.35876,0.07596
908.43004,0.07520
906.50131,0.07383
904.57258,0.07254
902.64386,0.07135
900.71513,0.07032
898.78641,0.07003
896.85768,0.07010
894.92895,0.07020
893.00023,0.07123
891.07150,0.07323
889.14277,0.07525
887.21405,0.07674
885.28532,0.07761
883.35660,0.07830
881.42787,0.07907
879.49914,0.07916
877.57042,0.07826
875.64169,0.07749
873.71297,0.07766
871.78424,0.07829
869.85551,0.07886
867.92679,0.07957
865.99806,0.08025
864.06933,0.08043
862.14061,0.08076
860.21188,0.08136
858.28316,0.08124
856.35443,0.08026
854.42570,0.07917
852.49698,0.07854
850.56825,0.07855
848.63952,0.07882
846.71080,0.07887
844.78207,0.07868
842.85335,0.07831
840.92462,0.07783
838.99589,0.07749
837.06717,0.07730
835.13844,0.07672
833.20972,0.07585
831.28099,0.07557
829.35226,0.07543
827.42354,0.07453
825.49481,0.07364
823.56608,0.07367
821.63736,0.07411
819.70863,0.07411
817.77991,0.07357
815.85118,0.07281
813.92245,0.07240
811.99373,0.07259
810.06500,0.07262
808.13627,0.07211
806.20755,0.07172
804.27882,0.07199
802.35010,0.07243
800.42137,0.07227
798.49264,0.07179
796.56392,0.07143
794.63519,0.07131
792.70647,0.07178
790.77774,0.07245
788.84901,0.07248
786.92029,0.07181
784.99156,0.07110
783.06283,0.07056
781.13411,0.06985
779.20538,0.06886
777.27666,0.06810
775.34793,0.06815
773.41920,0.06852
771.49048,0.06808
769.56175,0.06679
767.63302,0.06535
765.70430,0.06396
763.77557,0.06294
761.84685,0.06295
759.91812,0.06334
757.98939,0.06272
756.06067,0.06099
754.13194,0.05947
752.20322,0.05930
750.27449,0.05971
748.34576,0.05910
746.41704,0.05739
744.48831,0.05569
742.55958,0.05515
740.63086,0.05605
738.70213,0.05702
736.77341,0.05701
734.84468,0.05619
732.91595,0.05480
730.98723,0.05338
729.05850,0.05265
727.12977,0.05216
725.20105,0.05115
723.27232,0.04985
721.34360,0.04867
719.41487,0.04828
717.48614,0.04900
715.55742,0.05000
713.62869,0.04986
711.69997,0.04816
709.77124,0.04611
707.84251,0.04514
705.91379,0.04538
703.98506,0.04586
702.05633,0.04607
700.12761,0.04621
698.19888,0.04626
696.27016,0.04609
694.34143,0.04581
692.41270,0.04558
690.48398,0.04567
688.55525,0.04596
686.62652,0.04565
684.69780,0.04478
682.76907,0.04428
680.84035,0.04410
678.91162,0.04325
676.98289,0.04165
675.05417,0.04030
673.12544,0.03993
671.19672,0.04032
669.26799,0.04038
667.33926,0.03948
665.41054,0.03891
663.48181,0.03950
661.55308,0.04075
659.62436,0.04180
657.69563,0.04212
655.76691,0.04175
653.83818,0.04133
651.90945,0.04154
649.98073,0.04240
648.05200,0.04312
646.12327,0.04310
644.19455,0.04259
642.26582,0.04202
640.33710,0.04107
638.40837,0.03938
636.47964,0.03781
634.55092,0.03738
632.62219,0.03755
630.69347,0.03738
628.76474,0.03711
626.83601,0.03747
624.90729,0.03826
622.97856,0.03901
621.04983,0.03940
619.12111,0.03936
617.19238,0.03907
615.26366,0.03857
613.33493,0.03809
611.40620,0.03804
609.47748,0.03864
607.54875,0.03981
605.62002,0.04106
603.69130,0.04163
601.76257,0.04108
599.83385,0.03996
597.90512,0.03920
595.97639,0.03870
594.04767,0.03851
592.11894,0.03940
590.19022,0.04100
588.26149,0.04191
586.33276,0.04193
584.40404,0.04175
582.47531,0.04144
580.54658,0.04099
578.61786,0.04063
576.68913,0.04021
574.76041,0.03970
572.83168,0.03920
570.90295,0.03899
568.97423,0.03972
567.04550,0.04107
565.11677,0.04188
563.18805,0.04217
561.25932,0.04300
559.33060,0.04484
557.40187,0.04672
555.47314,0.04685
553.54442,0.04496
551.61569,0.04342
549.68697,0.04378
547.75824,0.04459
545.82951,0.04457
543.90079,0.04412
541.97206,0.04344
540.04333,0.04276
538.11461,0.04253
536.18588,0.04213
534.25716,0.04085
532.32843,0.03994
530.39970,0.04020
528.47098,0.03979
526.54225,0.03795
524.61352,0.03731
522.68480,0.03918
520.75607,0.04142
518.82735,0.04221
516.89862,0.04222
514.96989,0.04268
513.04117,0.04316
511.11244,0.04248
509.18371,0.04189
507.25499,0.04318
505.32626,0.04500
503.39754,0.04570
501.46881,0.04559
499.54008,0.04489
497.61136,0.04394
495.68263,0.04415
493.75391,0.04615
491.82518,0.04861
489.89645,0.04922
487.96773,0.04653
486.03900,0.04155
484.11027,0.03805
482.18155,0.03909
480.25282,0.04310
478.32410,0.04595
476.39537,0.04640
474.46664,0.04535
472.53792,0.04361
470.60919,0.04325
468.68046,0.04552
466.75174,0.04974
464.82301,0.05420
462.89429,0.05633
460.96556,0.05502
459.03683,0.05097
457.10811,0.04526
455.17938,0.04042
453.25066,0.03827
451.32193,0.03862
449.39320,0.04063
447.46448,0.04272
445.53575,0.04257
443.60702,0.03953
441.67830,0.03583
439.74957,0.03458
437.82085,0.03748
435.89212,0.04324
433.96339,0.04684
432.03467,0.04521
430.10594,0.04214
428.17721,0.04287
426.24849,0.04740
424.31976,0.04995
422.39104,0.04770
420.46231,0.04533
418.53358,0.04700
416.60486,0.05308
414.67613,0.06069
412.74741,0.06472
410.81868,0.06277
408.88995,0.05826
406.96123,0.05366
405.03250,0.04818
403.10377,0.04125
401.17505,0.02972
399.24632,0.01513
