7497.03301,0.71369
7495.10426,0.71436
7493.17552,0.71430
7491.24677,0.72052
7489.31803,0.72389
7487.38928,0.71837
7485.46054,0.71287
7483.53179,0.71309
7481.60305,0.71877
7479.67430,0.72465
7477.74556,0.72219
7475.81681,0.71526
7473.88807,0.71427
7471.95932,0.71635
7470.03057,0.71390
7468.10183,0.70963
7466.17308,0.70717
7464.24434,0.70548
7462.31559,0.70672
7460.38685,0.71142
7458.45810,0.71389
7456.52936,0.71088
7454.60061,0.70472
7452.67187,0.69865
7450.74312,0.69449
7448.81438,0.69439
7446.88563,0.69949
7444.95689,0.70600
7443.02814,0.70963
7441.09940,0.70992
7439.17065,0.70990
7437.24190,0.71372
7435.31316,0.71787
7433.38441,0.71447
7431.45567,0.70616
7429.52692,0.70118
7427.59818,0.70118
7425.66943,0.70194
7423.74069,0.69960
7421.81194,0.69761
7419.88320,0.70067
7417.95445,0.70549
7416.02571,0.70659
7414.09696,0.70295
7412.16822,0.69840
7410.23947,0.69538
7408.31073,0.69076
7406.38198,0.68527
7404.45323,0.68185
7402.52449,0.67842
7400.59574,0.67582
7398.66700,0.67645
7396.73825,0.67692
7394.80951,0.67568
7392.88076,0.67560
7390.95202,0.67657
7389.02327,0.67571
7387.09453,0.67161
7385.16578,0.66612
7383.23704,0.66248
7381.30829,0.66117
7379.37955,0.66101
7377.45080,0.66175
7375.52205,0.66251
7373.59331,0.66262
7371.66456,0.66287
7369.73582,0.66209
7367.80707,0.65878
7365.87833,0.65570
7363.94958,0.65459
7362.02084,0.65349
7360.09209,0.65290
7358.16335,0.65465
7356.23460,0.65888
7354.30586,0.66474
7352.37711,0.66713
7350.44837,0.66210
7348.51962,0.65512
7346.59088,0.65379
7344.66213,0.65907
7342.73338,0.66566
7340.80464,0.66892
7338.87589,0.66935
7336.94715,0.66645
7335.01840,0.65935
7333.08966,0.65219
7331.16091,0.64867
7329.23217,0.64856
7327.30342,0.65103
7325.37468,0.65465
7323.44593,0.65679
7321.51719,0.65742
7319.58844,0.65785
7317.65970,0.65791
7315.73095,0.65855
7313.80221,0.65856
7311.87346,0.65404
7309.94471,0.64702
7308.01597,0.64237
7306.08722,0.64109
7304.15848,0.64237
7302.22973,0.64455
7300.30099,0.64620
7298.37224,0.64624
7296.44350,0.64348
7294.51475,0.64063
7292.58601,0.64083
7290.65726,0.63952
7288.72852,0.63199
7286.79977,0.62459
7284.87103,0.62465
7282.94228,0.62889
7281.01353,0.63325
7279.08479,0.63734
7277.15604,0.63772
7275.22730,0.63324
7273.29855,0.62808
7271.36981,0.62530
7269.44106,0.62405
7267.51232,0.62262
7265.58357,0.62136
7263.65483,0.62042
7261.72608,0.61941
7259.79734,0.61812
7257.86859,0.61661
7255.93985,0.61678
7254.01110,0.61843
7252.08236,0.61883
7250.15361,0.61768
7248.22486,0.61621
7246.29612,0.61556
7244.36737,0.61564
7242.43863,0.61288
7240.50988,0.60739
7238.58114,0.60637
7236.65239,0.61083
7234.72365,0.61449
7232.79490,0.61606
7230.86616,0.61693
7228.93741,0.61546
7227.00867,0.61226
7225.07992,0.61024
7223.15118,0.61153
7221.22243,0.61519
7219.29369,0.61586
7217.36494,0.61317
7215.43619,0.61229
7213.50745,0.61206
7211.57870,0.61038
7209.64996,0.60990
7207.72121,0.61002
7205.79247,0.60721
7203.86372,0.60316
7201.93498,0.60307
7200.00623,0.60671
7198.07749,0.60968
7196.14874,0.60770
7194.22000,0.60284
7192.29125,0.60250
7190.36251,0.60427
7188.43376,0.60269
7186.50501,0.60131
7184.57627,0.60209
7182.64752,0.60388
7180.71878,0.60735
7178.79003,0.61007
7176.86129,0.60900
7174.93254,0.60757
7173.00380,0.60901
7171.07505,0.61059
7169.14631,0.61003
7167.21756,0.60867
7165.28882,0.60903
7163.36007,0.61136
7161.43133,0.61231
7159.50258,0.61000
7157.57384,0.60676
7155.64509,0.60556
7153.71634,0.60693
7151.78760,0.60857
7149.85885,0.60835
7147.93011,0.60760
7146.00136,0.60860
7144.07262,0.61057
7142.14387,0.61216
7140.21513,0.61345
7138.28638,0.61301
7136.35764,0.61126
7134.42889,0.61047
7132.50015,0.60920
7130.57140,0.60849
7128.64266,0.61203
7126.71391,0.61620
7124.78516,0.61571
7122.85642,0.61221
7120.92767,0.60931
7118.99893,0.60797
7117.07018,0.60896
7115.14144,0.61069
7113.21269,0.60919
7111.28395,0.60670
7109.35520,0.60748
7107.42646,0.60965
7105.49771,0.61044
7103.56897,0.60963
7101.64022,0.60843
7099.71148,0.60853
7097.78273,0.60916
7095.85399,0.60806
7093.92524,0.60550
7091.99649,0.60408
7090.06775,0.60420
7088.13900,0.60327
7086.21026,0.60226
7084.28151,0.60575
7082.35277,0.61220
7080.42402,0.61456
7078.49528,0.61131
7076.56653,0.60670
7074.63779,0.60378
7072.70904,0.60368
7070.78030,0.60581
7068.85155,0.60807
7066.92281,0.60961
7064.99406,0.61068
7063.06532,0.61239
7061.13657,0.61483
7059.20782,0.61592
7057.27908,0.61522
7055.35033,0.61343
7053.42159,0.61098
7051.49284,0.60992
7049.56410,0.61158
7047.63535,0.61530
7045.70661,0.61917
7043.77786,0.62048
7041.84912,0.61860
7039.92037,0.61544
7037.99163,0.61290
7036.06288,0.61214
7034.13414,0.61286
7032.20539,0.61297
7030.27664,0.61213
7028.34790,0.61221
7026.41915,0.61194
7024.49041,0.60974
7022.56166,0.60834
7020.63292,0.60886
7018.70417,0.60923
7016.77543,0.60918
7014.84668,0.61065
7012.91794,0.61436
7010.98919,0.61609
7009.06045,0.61292
7007.13170,0.60956
7005.20296,0.60968
7003.27421,0.61055
7001.34547,0.60949
6999.41672,0.60816
6997.48797,0.60856
6995.55923,0.60823
6993.63048,0.60546
6991.70174,0.60410
6989.77299,0.60608
6987.84425,0.60818
6985.91550,0.60792
6983.98676,0.60533
6982.05801,0.60190
6980.12927,0.60058
6978.20052,0.60355
6976.27178,0.60910
6974.34303,0.61234
6972.41429,0.61110
6970.48554,0.60786
6968.55680,0.60572
6966.62805,0.60655
6964.69930,0.60865
6962.77056,0.60846
6960.84181,0.60804
6958.91307,0.61037
6956.98432,0.61217
6955.05558,0.61162
6953.12683,0.61092
6951.19809,0.61053
6949.26934,0.61091
6947.34060,0.61294
6945.41185,0.61485
6943.48311,0.61549
6941.55436,0.61575
6939.62562,0.61513
6937.69687,0.61354
6935.76812,0.61273
6933.83938,0.61282
6931.91063,0.61267
6929.98189,0.61309
6928.05314,0.61637
6926.12440,0.62124
6924.19565,0.62281
6922.26691,0.62048
6920.33816,0.61849
6918.40942,0.61999
6916.48067,0.62280
6914.55193,0.62137
6912.62318,0.61690
6910.69444,0.61508
6908.76569,0.61573
6906.83695,0.61701
6904.90820,0.62044
6902.97945,0.62387
6901.05071,0.62274
6899.12196,0.62052
6897.19322,0.62208
6895.26447,0.62472
6893.33573,0.62578
6891.40698,0.62521
6889.47824,0.62295
6887.54949,0.62143
6885.62075,0.62215
6883.69200,0.62279
6881.76326,0.62298
6879.83451,0.62412
6877.90577,0.62470
6875.97702,0.62452
6874.04828,0.62577
6872.11953,0.62693
6870.19078,0.62550
6868.26204,0.62261
6866.33329,0.62027
6864.40455,0.61969
6862.47580,0.62009
6860.54706,0.62057
6858.61831,0.62261
6856.68957,0.62548
6854.76082,0.62684
6852.83208,0.62713
6850.90333,0.62662
6848.97459,0.62471
6847.04584,0.62256
6845.11710,0.62313
6843.18835,0.62735
6841.25960,0.63079
6839.33086,0.62952
6837.40211,0.62669
6835.47337,0.62649
6833.54462,0.62665
6831.61588,0.62543
6829.68713,0.62589
6827.75839,0.62720
6825.82964,0.62608
6823.90090,0.62448
6821.97215,0.62441
6820.04341,0.62442
6818.11466,0.62427
6816.18592,0.62473
6814.25717,0.62598
6812.32843,0.62700
6810.39968,0.62680
6808.47093,0.62661
6806.54219,0.62652
6804.61344,0.62573
6802.68470,0.62534
6800.75595,0.62528
6798.82721,0.62451
6796.89846,0.62382
6794.96972,0.62399
6793.04097,0.62365
6791.11223,0.62197
6789.18348,0.61974
6787.25474,0.61791
6785.32599,0.61715
6783.39725,0.61660
6781.46850,0.61530
6779.53975,0.61394
6777.61101,0.61403
6775.68226,0.61515
6773.75352,0.61466
6771.82477,0.61252
6769.89603,0.61090
6767.96728,0.61034
6766.03854,0.60931
6764.10979,0.60780
6762.18105,0.60861
6760.25230,0.61016
6758.32356,0.60892
6756.39481,0.60744
6754.46607,0.60830
6752.53732,0.60992
6750.60858,0.61019
6748.67983,0.60840
6746.75108,0.60686
6744.82234,0.60709
6742.89359,0.60630
6740.96485,0.60376
6739.03610,0.60249
6737.10736,0.60315
6735.17861,0.60339
6733.24987,0.60226
6731.32112,0.60145
6729.39238,0.60193
6727.46363,0.60191
6725.53489,0.59927
6723.60614,0.59610
6721.67740,0.59623
6719.74865,0.59792
6717.81991,0.59806
6715.89116,0.59789
6713.96241,0.59834
6712.03367,0.59844
6710.10492,0.59804
6708.17618,0.59746
6706.24743,0.59698
6704.31869,0.59701
6702.38994,0.59757
6700.46120,0.59797
6698.53245,0.59743
6696.60371,0.59641
6694.67496,0.59518
6692.74622,0.59362
6690.81747,0.59288
6688.88873,0.59218
6686.95998,0.59001
6685.03123,0.58790
6683.10249,0.58761
6681.17374,0.58873
6679.24500,0.58953
6677.31625,0.58919
6675.38751,0.58881
6673.45876,0.58953
6671.53002,0.59019
6669.60127,0.58840
6667.67253,0.58563
6665.74378,0.58505
6663.81504,0.58535
6661.88629,0.58543
6659.95755,0.58769
6658.02880,0.59093
6656.10006,0.59165
6654.17131,0.59079
6652.24256,0.59119
6650.31382,0.59340
6648.38507,0.59504
6646.45633,0.59329
6644.52758,0.58975
6642.59884,0.58858
6640.67009,0.58958
6638.74135,0.58900
6636.81260,0.58720
6634.88386,0.58698
6632.95511,0.58762
6631.02637,0.58781
6629.09762,0.58827
6627.16888,0.58912
6625.24013,0.58941
6623.31139,0.58967
6621.38264,0.59065
6619.45389,0.59140
6617.52515,0.59183
6615.59640,0.59332
6613.66766,0.59678
6611.73891,0.60039
6609.81017,0.59992
6607.88142,0.59570
6605.95268,0.59349
6604.02393,0.59536
6602.09519,0.59804
6600.16644,0.59813
6598.23770,0.59604
6596.30895,0.59491
6594.38021,0.59467
6592.45146,0.59405
6590.52271,0.59376
6588.59397,0.59434
6586.66522,0.59647
6584.73648,0.59992
6582.80773,0.60284
6580.87899,0.60363
6578.95024,0.60253
6577.02150,0.60161
6575.09275,0.60134
6573.16401,0.60150
6571.23526,0.60276
6569.30652,0.60418
6567.37777,0.60468
6565.44903,0.60521
6563.52028,0.60617
6561.59154,0.60666
6559.66279,0.60723
6557.73404,0.60807
6555.80530,0.60833
6553.87655,0.60874
6551.94781,0.61000
6550.01906,0.61191
6548.09032,0.61378
6546.16157,0.61478
6544.23283,0.61550
6542.30408,0.61711
6540.37534,0.61921
6538.44659,0.62035
6536.51785,0.62029
6534.58910,0.61957
6532.66036,0.61861
6530.73161,0.61904
6528.80287,0.62170
6526.87412,0.62367
6524.94537,0.62205
6523.01663,0.61921
6521.08788,0.61850
6519.15914,0.61940
6517.23039,0.62053
6515.30165,0.62207
6513.37290,0.62457
6511.44416,0.62738
6509.51541,0.62881
6507.58667,0.62869
6505.65792,0.62880
6503.72918,0.62991
6501.80043,0.63054
6499.87169,0.63011
6497.94294,0.62978
6496.01419,0.63012
6494.08545,0.63082
6492.15670,0.63156
6490.22796,0.63305
6488.29921,0.63537
6486.37047,0.63551
6484.44172,0.63319
6482.51298,0.63230
6480.58423,0.63330
6478.65549,0.63463
6476.72674,0.63594
6474.79800,0.63561
6472.86925,0.63350
6470.94051,0.63278
6469.01176,0.63452
6467.08302,0.63610
6465.15427,0.63665
6463.22552,0.63707
6461.29678,0.63697
6459.36803,0.63665
6457.43929,0.63682
6455.51054,0.63668
6453.58180,0.63604
6451.65305,0.63610
6449.72431,0.63750
6447.79556,0.63879
6445.86682,0.63846
6443.93807,0.63749
6442.00933,0.63714
6440.08058,0.63738
6438.15184,0.63844
6436.22309,0.63978
6434.29434,0.64044
6432.36560,0.64129
6430.43685,0.64318
6428.50811,0.64421
6426.57936,0.64286
6424.65062,0.64096
6422.72187,0.64049
6420.79313,0.64061
6418.86438,0.64042
6416.93564,0.64167
6415.00689,0.64473
6413.07815,0.64630
6411.14940,0.64551
6409.22066,0.64453
6407.29191,0.64394
6405.36317,0.64349
6403.43442,0.64293
6401.50567,0.64207
6399.57693,0.64237
6397.64818,0.64474
6395.71944,0.64726
6393.79069,0.64828
6391.86195,0.64792
6389.93320,0.64647
6388.00446,0.64517
6386.07571,0.64476
6384.14697,0.64521
6382.21822,0.64690
6380.28948,0.64887
6378.36073,0.64997
6376.43199,0.64969
6374.50324,0.64831
6372.57450,0.64780
6370.64575,0.64777
6368.71700,0.64695
6366.78826,0.64769
6364.85951,0.65019
6362.93077,0.65038
6361.00202,0.64848
6359.07328,0.64834
6357.14453,0.64849
6355.21579,0.64631
6353.28704,0.64517
6351.35830,0.64710
6349.42955,0.64857
6347.50081,0.64825
6345.57206,0.64825
6343.64332,0.64793
6341.71457,0.64633
6339.78582,0.64567
6337.85708,0.64671
6335.92833,0.64848
6333.99959,0.65053
6332.07084,0.65105
6330.14210,0.64997
6328.21335,0.64990
6326.28461,0.65069
6324.35586,0.65115
6322.42712,0.65158
6320.49837,0.65166
6318.56963,0.65066
6316.64088,0.64921
6314.71214,0.64891
6312.78339,0.65031
6310.85465,0.65291
6308.92590,0.65472
6306.99715,0.65415
6305.06841,0.65284
6303.13966,0.65249
6301.21092,0.65266
6299.28217,0.65202
6297.35343,0.65042
6295.42468,0.64887
6293.49594,0.64763
6291.56719,0.64717
6289.63845,0.64730
6287.70970,0.64716
6285.78096,0.64754
6283.85221,0.64885
6281.92347,0.64973
6279.99472,0.64971
6278.06598,0.65010
6276.13723,0.65101
6274.20848,0.65074
6272.27974,0.64975
6270.35099,0.65012
6268.42225,0.65114
6266.49350,0.65110
6264.56476,0.65079
6262.63601,0.65057
6260.70727,0.64970
6258.77852,0.64944
6256.84978,0.65077
6254.92103,0.65127
6252.99229,0.64967
6251.06354,0.64868
6249.13480,0.64917
6247.20605,0.64965
6245.27730,0.65041
6243.34856,0.65135
6241.41981,0.65095
6239.49107,0.64994
6237.56232,0.65011
6235.63358,0.65036
6233.70483,0.64997
6231.77609,0.64997
6229.84734,0.64951
6227.91860,0.64841
6225.98985,0.64870
6224.06111,0.64965
6222.13236,0.64966
6220.20362,0.65056
6218.27487,0.65237
6216.34613,0.65227
6214.41738,0.65047
6212.48863,0.64919
6210.55989,0.64892
6208.63114,0.64838
6206.70240,0.64733
6204.77365,0.64684
6202.84491,0.64629
6200.91616,0.64556
6198.98742,0.64617
6197.05867,0.64787
6195.12993,0.64889
6193.20118,0.64871
6191.27244,0.64794
6189.34369,0.64715
6187.41495,0.64596
6185.48620,0.64319
6183.55746,0.63999
6181.62871,0.63912
6179.69996,0.64024
6177.77122,0.64127
6175.84247,0.64156
6173.91373,0.64146
6171.98498,0.64190
6170.05624,0.64279
6168.12749,0.64231
6166.19875,0.64013
6164.27000,0.63804
6162.34126,0.63724
6160.41251,0.63720
6158.48377,0.63727
6156.55502,0.63684
6154.62628,0.63433
6152.69753,0.63041
6150.76878,0.62758
6148.84004,0.62646
6146.91129,0.62675
6144.98255,0.62723
6143.05380,0.62632
6141.12506,0.62458
6139.19631,0.62291
6137.26757,0.62091
6135.33882,0.61947
6133.41008,0.61935
6131.48133,0.61897
6129.55259,0.61760
6127.62384,0.61599
6125.69510,0.61451
6123.76635,0.61333
6121.83761,0.61218
6119.90886,0.61088
6117.98011,0.60957
6116.05137,0.60880
6114.12262,0.60830
6112.19388,0.60730
6110.26513,0.60620
6108.33639,0.60484
6106.40764,0.60283
6104.47890,0.60070
6102.55015,0.59854
6100.62141,0.59657
6098.69266,0.59536
6096.76392,0.59421
6094.83517,0.59200
6092.90643,0.58959
6090.97768,0.58829
6089.04893,0.58772
6087.12019,0.58661
6085.19144,0.58413
6083.26270,0.58134
6081.33395,0.58035
6079.40521,0.58116
6077.47646,0.58157
6075.54772,0.58060
6073.61897,0.57929
6071.69023,0.57843
6069.76148,0.57827
6067.83274,0.57889
6065.90399,0.57914
6063.97525,0.57843
6062.04650,0.57796
6060.11776,0.57779
6058.18901,0.57775
6056.26026,0.57857
6054.33152,0.57876
6052.40277,0.57707
6050.47403,0.57533
6048.54528,0.57482
6046.61654,0.57520
6044.68779,0.57546
6042.75905,0.57511
6040.83030,0.57480
6038.90156,0.57415
6036.97281,0.57256
6035.04407,0.57047
6033.11532,0.56814
6031.18658,0.56636
6029.25783,0.56560
6027.32909,0.56488
6025.40034,0.56330
6023.47159,0.56092
6021.54285,0.55867
6019.61410,0.55658
6017.68536,0.55388
6015.75661,0.55154
6013.82787,0.55065
6011.89912,0.54920
6009.97038,0.54519
6008.04163,0.54083
6006.11289,0.53845
6004.18414,0.53725
6002.25540,0.53628
6000.32665,0.53453
5998.39791,0.53085
5996.46916,0.52665
5994.54041,0.52376
5992.61167,0.52096
5990.68292,0.51712
5988.75418,0.51362
5986.82543,0.51093
5984.89669,0.50771
5982.96794,0.50319
5981.03920,0.49794
5979.11045,0.49294
5977.18171,0.48866
5975.25296,0.48498
5973.32422,0.48069
5971.39547,0.47500
5969.46673,0.46901
5967.53798,0.46369
5965.60924,0.45826
5963.68049,0.45198
5961.75174,0.44648
5959.82300,0.44318
5957.89425,0.44026
5955.96551,0.43528
5954.03676,0.42888
5952.10802,0.42371
5950.17927,0.42006
5948.25053,0.41656
5946.32178,0.41347
5944.39304,0.41155
5942.46429,0.41079
5940.53555,0.41075
5938.60680,0.41104
5936.67806,0.41194
5934.74931,0.41344
5932.82057,0.41468
5930.89182,0.41571
5928.96307,0.41701
5927.03433,0.41797
5925.10558,0.41832
5923.17684,0.41814
5921.24809,0.41720
5919.31935,0.41556
5917.39060,0.41342
5915.46186,0.41102
5913.53311,0.40798
5911.60437,0.40469
5909.67562,0.40229
5907.74688,0.39959
5905.81813,0.39592
5903.88939,0.39349
5901.96064,0.39329
5900.03189,0.39438
5898.10315,0.39609
5896.17440,0.39805
5894.24566,0.40015
5892.31691,0.40236
5890.38817,0.40474
5888.45942,0.40780
5886.53068,0.41153
5884.60193,0.41482
5882.67319,0.41609
5880.74444,0.41614
5878.81570,0.41792
5876.88695,0.42110
5874.95821,0.42300
5873.02946,0.42373
5871.10072,0.42492
5869.17197,0.42609
5867.24322,0.42577
5865.31448,0.42431
5863.38573,0.42323
5861.45699,0.42362
5859.52824,0.42497
5857.59950,0.42530
5855.67075,0.42439
5853.74201,0.42370
5851.81326,0.42323
5849.88452,0.42241
5847.95577,0.42099
5846.02703,0.41935
5844.09828,0.41859
5842.16954,0.41782
5840.24079,0.41556
5838.31205,0.41319
5836.38330,0.41187
5834.45455,0.41041
5832.52581,0.40831
5830.59706,0.40639
5828.66832,0.40519
5826.73957,0.40465
5824.81083,0.40379
5822.88208,0.40185
5820.95334,0.39988
5819.02459,0.39863
5817.09585,0.39749
5815.16710,0.39594
5813.23836,0.39398
5811.30961,0.39228
5809.38087,0.39112
5807.45212,0.39006
5805.52337,0.38916
5803.59463,0.38861
5801.66588,0.38818
5799.73714,0.38722
5797.80839,0.38548
5795.87965,0.38342
5793.95090,0.38114
5792.02216,0.37902
5790.09341,0.37753
5788.16467,0.37643
5786.23592,0.37557
5784.30718,0.37492
5782.37843,0.37419
5780.44969,0.37340
5778.52094,0.37311
5776.59220,0.37359
5774.66345,0.37423
5772.73470,0.37457
5770.80596,0.37464
5768.87721,0.37459
5766.94847,0.37475
5765.01972,0.37586
5763.09098,0.37813
5761.16223,0.38054
5759.23349,0.38231
5757.30474,0.38346
5755.37600,0.38460
5753.44725,0.38646
5751.51851,0.38884
5749.58976,0.39129
5747.66102,0.39349
5745.73227,0.39522
5743.80352,0.39707
5741.87478,0.39935
5739.94603,0.40186
5738.01729,0.40430
5736.08854,0.40615
5734.15980,0.40670
5732.23105,0.40683
5730.30231,0.40891
5728.37356,0.41293
5726.44482,0.41678
5724.51607,0.41950
5722.58733,0.42119
5720.65858,0.42217
5718.72984,0.42301
5716.80109,0.42434
5714.87235,0.42627
5712.94360,0.42831
5711.01485,0.43009
5709.08611,0.43158
5707.15736,0.43265
5705.22862,0.43301
5703.29987,0.43300
5701.37113,0.43316
5699.44238,0.43336
5697.51364,0.43369
5695.58489,0.43466
5693.65615,0.43568
5691.72740,0.43572
5689.79866,0.43520
5687.86991,0.43527
5685.94117,0.43610
5684.01242,0.43681
5682.08368,0.43668
5680.15493,0.43555
5678.22618,0.43373
5676.29744,0.43273
5674.36869,0.43354
5672.43995,0.43457
5670.51120,0.43457
5668.58246,0.43437
5666.65371,0.43440
5664.72497,0.43433
5662.79622,0.43439
5660.86748,0.43476
5658.93873,0.43483
5657.00999,0.43464
5655.08124,0.43512
5653.15250,0.43654
5651.22375,0.43843
5649.29500,0.43999
5647.36626,0.44105
5645.43751,0.44262
5643.50877,0.44487
5641.58002,0.44652
5639.65128,0.44763
5637.72253,0.44939
5635.79379,0.45143
5633.86504,0.45255
5631.93630,0.45277
5630.00755,0.45361
5628.07881,0.45593
5626.15006,0.45801
5624.22132,0.45847
5622.29257,0.45882
5620.36383,0.46031
5618.43508,0.46212
5616.50633,0.46368
5614.57759,0.46516
5612.64884,0.46630
5610.72010,0.46693
5608.79135,0.46739
5606.86261,0.46813
5604.93386,0.46897
5603.00512,0.46891
5601.07637,0.46807
5599.14763,0.46789
5597.21888,0.46847
5595.29014,0.46872
5593.36139,0.46858
5591.43265,0.46877
5589.50390,0.46927
5587.57516,0.46949
5585.64641,0.46927
5583.71766,0.46907
5581.78892,0.46938
5579.86017,0.47016
5577.93143,0.47071
5576.00268,0.47065
5574.07394,0.47037
5572.14519,0.47000
5570.21645,0.46966
5568.28770,0.46958
5566.35896,0.46933
5564.43021,0.46871
5562.50147,0.46821
5560.57272,0.46818
5558.64398,0.46845
5556.71523,0.46847
5554.78648,0.46836
5552.85774,0.46850
5550.92899,0.46870
5549.00025,0.46893
5547.07150,0.46928
5545.14276,0.46940
5543.21401,0.46945
5541.28527,0.46964
5539.35652,0.46936
5537.42778,0.46857
5535.49903,0.46819
5533.57029,0.46876
5531.64154,0.46989
5529.71280,0.47092
5527.78405,0.47162
5525.85531,0.47182
5523.92656,0.47207
5521.99781,0.47304
5520.06907,0.47381
5518.14032,0.47345
5516.21158,0.47296
5514.28283,0.47346
5512.35409,0.47423
5510.42534,0.47442
5508.49660,0.47459
5506.56785,0.47501
5504.63911,0.47542
5502.71036,0.47632
5500.78162,0.47752
5498.85287,0.47795
5496.92413,0.47811
5494.99538,0.47923
5493.06664,0.48074
5491.13789,0.48156
5489.20914,0.48148
5487.28040,0.48066
5485.35165,0.48000
5483.42291,0.48048
5481.49416,0.48186
5479.56542,0.48335
5477.63667,0.48449
5475.70793,0.48509
5473.77918,0.48537
5471.85044,0.48594
5469.92169,0.48709
5467.99295,0.48789
5466.06420,0.48733
5464.13546,0.48621
5462.20671,0.48574
5460.27796,0.48584
5458.34922,0.48608
5456.42047,0.48669
5454.49173,0.48771
5452.56298,0.48829
5450.63424,0.48802
5448.70549,0.48803
5446.77675,0.48911
5444.84800,0.49026
5442.91926,0.49056
5440.99051,0.49061
5439.06177,0.49098
5437.13302,0.49173
5435.20428,0.49309
5433.27553,0.49465
5431.34679,0.49558
5429.41804,0.49598
5427.48929,0.49646
5425.56055,0.49771
5423.63180,0.49995
5421.70306,0.50202
5419.77431,0.50320
5417.84557,0.50440
5415.91682,0.50595
5413.98808,0.50776
5412.05933,0.50976
5410.13059,0.51129
5408.20184,0.51252
5406.27310,0.51406
5404.34435,0.51551
5402.41561,0.51628
5400.48686,0.51670
5398.55811,0.51742
5396.62937,0.51899
5394.70062,0.52089
5392.77188,0.52202
5390.84313,0.52297
5388.91439,0.52445
5386.98564,0.52577
5385.05690,0.52661
5383.12815,0.52741
5381.19941,0.52797
5379.27066,0.52818
5377.34192,0.52856
5375.41317,0.52914
5373.48443,0.52955
5371.55568,0.52969
5369.62694,0.52970
5367.69819,0.52985
5365.76944,0.53025
5363.84070,0.53087
5361.91195,0.53174
5359.98321,0.53250
5358.05446,0.53299
5356.12572,0.53355
5354.19697,0.53377
5352.26823,0.53321
5350.33948,0.53263
5348.41074,0.53256
5346.48199,0.53275
5344.55325,0.53316
5342.62450,0.53384
5340.69576,0.53431
5338.76701,0.53430
5336.83827,0.53417
5334.90952,0.53428
5332.98077,0.53467
5331.05203,0.53516
5329.12328,0.53579
5327.19454,0.53635
5325.26579,0.53596
5323.33705,0.53514
5321.40830,0.53505
5319.47956,0.53523
5317.55081,0.53524
5315.62207,0.53561
5313.69332,0.53572
5311.76458,0.53491
5309.83583,0.53425
5307.90709,0.53425
5305.97834,0.53393
5304.04959,0.53290
5302.12085,0.53198
5300.19210,0.53153
5298.26336,0.53077
5296.33461,0.52907
5294.40587,0.52693
5292.47712,0.52495
5290.54838,0.52309
5288.61963,0.52141
5286.69089,0.51977
5284.76214,0.51794
5282.83340,0.51651
5280.90465,0.51561
5278.97591,0.51421
5277.04716,0.51203
5275.11842,0.50979
5273.18967,0.50782
5271.26092,0.50613
5269.33218,0.50481
5267.40343,0.50365
5265.47469,0.50228
5263.54594,0.50091
5261.61720,0.49996
5259.68845,0.49901
5257.75971,0.49739
5255.83096,0.49506
5253.90222,0.49296
5251.97347,0.49212
5250.04473,0.49176
5248.11598,0.49099
5246.18724,0.49009
5244.25849,0.48873
5242.32975,0.48660
5240.40100,0.48459
5238.47225,0.48345
5236.54351,0.48308
5234.61476,0.48283
5232.68602,0.48214
5230.75727,0.48113
5228.82853,0.48014
5226.89978,0.47930
5224.97104,0.47844
5223.04229,0.47732
5221.11355,0.47632
5219.18480,0.47562
5217.25606,0.47452
5215.32731,0.47304
5213.39857,0.47209
5211.46982,0.47206
5209.54107,0.47266
5207.61233,0.47306
5205.68358,0.47272
5203.75484,0.47244
5201.82609,0.47295
5199.89735,0.47365
5197.96860,0.47370
5196.03986,0.47338
5194.11111,0.47361
5192.18237,0.47427
5190.25362,0.47454
5188.32488,0.47478
5186.39613,0.47549
5184.46739,0.47635
5182.53864,0.47708
5180.60990,0.47766
5178.68115,0.47791
5176.75240,0.47770
5174.82366,0.47751
5172.89491,0.47805
5170.96617,0.47921
5169.03742,0.48013
5167.10868,0.48061
5165.17993,0.48093
5163.25119,0.48124
5161.32244,0.48169
5159.39370,0.48240
5157.46495,0.48331
5155.53621,0.48370
5153.60746,0.48299
5151.67872,0.48207
5149.74997,0.48198
5147.82123,0.48291
5145.89248,0.48465
5143.96373,0.48592
5142.03499,0.48563
5140.10624,0.48486
5138.17750,0.48474
5136.24875,0.48508
5134.32001,0.48565
5132.39126,0.48607
5130.46252,0.48599
5128.53377,0.48624
5126.60503,0.48735
5124.67628,0.48822
5122.74754,0.48816
5120.81879,0.48832
5118.89005,0.48939
5116.96130,0.49051
5115.03255,0.49099
5113.10381,0.49104
5111.17506,0.49087
5109.24632,0.49060
5107.31757,0.49065
5105.38883,0.49110
5103.46008,0.49168
5101.53134,0.49242
5099.60259,0.49317
5097.67385,0.49310
5095.74510,0.49217
5093.81636,0.49164
5091.88761,0.49192
5089.95887,0.49212
5088.03012,0.49207
5086.10138,0.49215
5084.17263,0.49199
5082.24388,0.49134
5080.31514,0.49072
5078.38639,0.49037
5076.45765,0.49014
5074.52890,0.48988
5072.60016,0.48938
5070.67141,0.48865
5068.74267,0.48782
5066.81392,0.48700
5064.88518,0.48646
5062.95643,0.48650
5061.02769,0.48671
5059.09894,0.48643
5057.17020,0.48589
5055.24145,0.48563
5053.31270,0.48547
5051.38396,0.48519
5049.45521,0.48486
5047.52647,0.48427
5045.59772,0.48343
5043.66898,0.48289
5041.74023,0.48268
5039.81149,0.48246
5037.88274,0.48218
5035.95400,0.48157
5034.02525,0.48053
5032.09651,0.47954
5030.16776,0.47872
5028.23902,0.47757
5026.31027,0.47610
5024.38153,0.47503
5022.45278,0.47432
5020.52403,0.47335
5018.59529,0.47230
5016.66654,0.47147
5014.73780,0.47049
5012.80905,0.46922
5010.88031,0.46820
5008.95156,0.46764
5007.02282,0.46679
5005.09407,0.46526
5003.16533,0.46362
5001.23658,0.46200
4999.30784,0.45994
4997.37909,0.45774
4995.45035,0.45558
4993.52160,0.45305
4991.59286,0.45034
4989.66411,0.44804
4987.73536,0.44582
4985.80662,0.44324
4983.87787,0.44063
4981.94913,0.43826
4980.02038,0.43582
4978.09164,0.43325
4976.16289,0.43074
4974.23415,0.42801
4972.30540,0.42524
4970.37666,0.42292
4968.44791,0.42087
4966.51917,0.41876
4964.59042,0.41657
4962.66168,0.41430
4960.73293,0.41214
4958.80418,0.41025
4956.87544,0.40854
4954.94669,0.40668
4953.01795,0.40444
4951.08920,0.40192
4949.16046,0.39947
4947.23171,0.39719
4945.30297,0.39502
4943.37422,0.39324
4941.44548,0.39173
4939.51673,0.38981
4937.58799,0.38781
4935.65924,0.38635
4933.73050,0.38520
4931.80175,0.38420
4929.87301,0.38300
4927.94426,0.38091
4926.01551,0.37851
4924.08677,0.37661
4922.15802,0.37507
4920.22928,0.37351
4918.30053,0.37167
4916.37179,0.36999
4914.44304,0.36898
4912.51430,0.36799
4910.58555,0.36661
4908.65681,0.36554
4906.72806,0.36483
4904.79932,0.36397
4902.87057,0.36280
4900.94183,0.36139
4899.01308,0.36026
4897.08434,0.35962
4895.15559,0.35900
4893.22684,0.35826
4891.29810,0.35773
4889.36935,0.35767
4887.44061,0.35787
4885.51186,0.35781
4883.58312,0.35756
4881.65437,0.35756
4879.72563,0.35771
4877.79688,0.35755
4875.86814,0.35737
4873.93939,0.35750
4872.01065,0.35735
4870.08190,0.35676
4868.15316,0.35627
4866.22441,0.35618
4864.29566,0.35644
4862.36692,0.35680
4860.43817,0.35712
4858.50943,0.35748
4856.58068,0.35764
4854.65194,0.35734
4852.72319,0.35698
4850.79445,0.35713
4848.86570,0.35792
4846.93696,0.35901
4845.00821,0.36009
4843.07947,0.36115
4841.15072,0.36224
4839.22198,0.36318
4837.29323,0.36384
4835.36449,0.36451
4833.43574,0.36567
4831.50699,0.36717
4829.57825,0.36840
4827.64950,0.36957
4825.72076,0.37098
4823.79201,0.37245
4821.86327,0.37393
4819.93452,0.37561
4818.00578,0.37737
4816.07703,0.37890
4814.14829,0.38005
4812.21954,0.38097
4810.29080,0.38219
4808.36205,0.38402
4806.43331,0.38618
4804.50456,0.38808
4802.57582,0.38937
4800.64707,0.39060
4798.71832,0.39235
4796.78958,0.39413
4794.86083,0.39553
4792.93209,0.39675
4791.00334,0.39809
4789.07460,0.39977
4787.14585,0.40135
4785.21711,0.40218
4783.28836,0.40300
4781.35962,0.40440
4779.43087,0.40557
4777.50213,0.40621
4775.57338,0.40698
4773.64464,0.40790
4771.71589,0.40845
4769.78714,0.40901
4767.85840,0.41011
4765.92965,0.41123
4764.00091,0.41194
4762.07216,0.41262
4760.14342,0.41342
4758.21467,0.41364
4756.28593,0.41308
4754.35718,0.41276
4752.42844,0.41317
4750.49969,0.41367
4748.57095,0.41382
4746.64220,0.41360
4744.71346,0.41331
4742.78471,0.41324
4740.85597,0.41295
4738.92722,0.41221
4736.99847,0.41141
4735.06973,0.41061
4733.14098,0.40986
4731.21224,0.40918
4729.28349,0.40831
4727.35475,0.40685
4725.42600,0.40470
4723.49726,0.40252
4721.56851,0.40094
4719.63977,0.39971
4717.71102,0.39846
4715.78228,0.39709
4713.85353,0.39538
4711.92479,0.39368
4709.99604,0.39257
4708.06729,0.39171
4706.13855,0.39060
4704.20980,0.38944
4702.28106,0.38863
4700.35231,0.38816
4698.42357,0.38747
4696.49482,0.38626
4694.56608,0.38476
4692.63733,0.38337
4690.70859,0.38247
4688.77984,0.38206
4686.85110,0.38158
4684.92235,0.38063
4682.99361,0.37926
4681.06486,0.37756
4679.13612,0.37573
4677.20737,0.37421
4675.27862,0.37308
4673.34988,0.37173
4671.42113,0.37015
4669.49239,0.36912
4667.56364,0.36852
4665.63490,0.36756
4663.70615,0.36634
4661.77741,0.36566
4659.84866,0.36550
4657.91992,0.36488
4655.99117,0.36367
4654.06243,0.36247
4652.13368,0.36132
4650.20494,0.35988
4648.27619,0.35812
4646.34745,0.35637
4644.41870,0.35473
4642.48995,0.35292
4640.56121,0.35103
4638.63246,0.34948
4636.70372,0.34832
4634.77497,0.34737
4632.84623,0.34644
4630.91748,0.34557
4628.98874,0.34498
4627.05999,0.34470
4625.13125,0.34464
4623.20250,0.34504
4621.27376,0.34596
4619.34501,0.34671
4617.41627,0.34690
4615.48752,0.34727
4613.55877,0.34827
4611.63003,0.34903
4609.70128,0.34943
4607.77254,0.35041
4605.84379,0.35164
4603.91505,0.35223
4601.98630,0.35264
4600.05756,0.35333
4598.12881,0.35393
4596.20007,0.35443
4594.27132,0.35501
4592.34258,0.35547
4590.41383,0.35570
4588.48509,0.35581
4586.55634,0.35595
4584.62760,0.35621
4582.69885,0.35630
4580.77010,0.35599
4578.84136,0.35551
4576.91261,0.35510
4574.98387,0.35480
4573.05512,0.35450
4571.12638,0.35407
4569.19763,0.35383
4567.26889,0.35445
4565.34014,0.35550
4563.41140,0.35607
4561.48265,0.35615
4559.55391,0.35600
4557.62516,0.35594
4555.69642,0.35621
4553.76767,0.35660
4551.83893,0.35699
4549.91018,0.35734
4547.98143,0.35758
4546.05269,0.35767
4544.12394,0.35731
4542.19520,0.35663
4540.26645,0.35632
4538.33771,0.35637
4536.40896,0.35640
4534.48022,0.35633
4532.55147,0.35618
4530.62273,0.35595
4528.69398,0.35572
4526.76524,0.35556
4524.83649,0.35551
4522.90775,0.35537
4520.97900,0.35486
4519.05025,0.35417
4517.12151,0.35375
4515.19276,0.35355
4513.26402,0.35337
4511.33527,0.35307
4509.40653,0.35274
4507.47778,0.35261
4505.54904,0.35231
4503.62029,0.35150
4501.69155,0.35068
4499.76280,0.35041
4497.83406,0.35040
4495.90531,0.34986
4493.97657,0.34857
4492.04782,0.34720
4490.11908,0.34633
4488.19033,0.34557
4486.26158,0.34435
4484.33284,0.34266
4482.40409,0.34074
4480.47535,0.33881
4478.54660,0.33686
4476.61786,0.33469
4474.68911,0.33235
4472.76037,0.32993
4470.83162,0.32734
4468.90288,0.32433
4466.97413,0.32069
4465.04539,0.31669
4463.11664,0.31266
4461.18790,0.30848
4459.25915,0.30387
4457.33041,0.29888
4455.40166,0.29375
4453.47291,0.28839
4451.54417,0.28263
4449.61542,0.27663
4447.68668,0.27052
4445.75793,0.26430
4443.82919,0.25795
4441.90044,0.25135
4439.97170,0.24477
4438.04295,0.23874
4436.11421,0.23303
4434.18546,0.22694
4432.25672,0.22063
4430.32797,0.21459
4428.39923,0.20887
4426.47048,0.20351
4424.54173,0.19868
4422.61299,0.19438
4420.68424,0.19055
4418.75550,0.18725
4416.82675,0.18450
4414.89801,0.18237
4412.96926,0.18092
4411.04052,0.18020
4409.11177,0.18039
4407.18303,0.18129
4405.25428,0.18248
4403.32554,0.18394
4401.39679,0.18574
4399.46805,0.18734
4397.53930,0.18833
4395.61056,0.18893
4393.68181,0.18911
4391.75306,0.18867
4389.82432,0.18776
4387.89557,0.18675
4385.96683,0.18579
4384.03808,0.18456
4382.10934,0.18270
4380.18059,0.18027
4378.25185,0.17751
4376.32310,0.17476
4374.39436,0.17232
4372.46561,0.17010
4370.53687,0.16782
4368.60812,0.16522
4366.67938,0.16226
4364.75063,0.15918
4362.82189,0.15622
4360.89314,0.15349
4358.96439,0.15101
4357.03565,0.14862
4355.10690,0.14608
4353.17816,0.14348
4351.24941,0.14113
4349.32067,0.13905
4347.39192,0.13697
4345.46318,0.13509
4343.53443,0.13398
4341.60569,0.13337
4339.67694,0.13262
4337.74820,0.13177
4335.81945,0.13110
4333.89071,0.13072
4331.96196,0.13086
4330.03321,0.13138
4328.10447,0.13193
4326.17572,0.13276
4324.24698,0.13409
4322.31823,0.13553
4320.38949,0.13682
4318.46074,0.13822
4316.53200,0.14011
4314.60325,0.14231
4312.67451,0.14462
4310.74576,0.14721
4308.81702,0.15004
4306.88827,0.15290
4304.95953,0.15576
4303.03078,0.15845
4301.10204,0.16096
4299.17329,0.16340
4297.24454,0.16563
4295.31580,0.16740
4293.38705,0.16850
4291.45831,0.16914
4289.52956,0.16961
4287.60082,0.17000
4285.67207,0.17043
4283.74333,0.17084
4281.81458,0.17088
4279.88584,0.17034
4277.95709,0.16981
4276.02835,0.17003
4274.09960,0.17063
4272.17086,0.17094
4270.24211,0.17110
4268.31336,0.17119
4266.38462,0.17124
4264.45587,0.17190
4262.52713,0.17331
4260.59838,0.17467
4258.66964,0.17565
4256.74089,0.17655
4254.81215,0.17760
4252.88340,0.17869
4250.95466,0.17962
4249.02591,0.18019
4247.09717,0.18052
4245.16842,0.18107
4243.23968,0.18188
4241.31093,0.18244
4239.38219,0.18251
4237.45344,0.18247
4235.52469,0.18273
4233.59595,0.18327
4231.66720,0.18390
4229.73846,0.18455
4227.80971,0.18525
4225.88097,0.18606
4223.95222,0.18711
4222.02348,0.18823
4220.09473,0.18916
4218.16599,0.19022
4216.23724,0.19178
4214.30850,0.19326
4212.37975,0.19423
4210.45101,0.19524
4208.52226,0.19661
4206.59352,0.19795
4204.66477,0.19901
4202.73602,0.19985
4200.80728,0.20058
4198.87853,0.20125
4196.94979,0.20182
4195.02104,0.20241
4193.09230,0.20300
4191.16355,0.20327
4189.23481,0.20303
4187.30606,0.20222
4185.37732,0.20127
4183.44857,0.20075
4181.51983,0.20056
4179.59108,0.20042
4177.66234,0.20037
4175.73359,0.20011
4173.80484,0.19933
4171.87610,0.19833
4169.94735,0.19741
4168.01861,0.19653
4166.08986,0.19592
4164.16112,0.19573
4162.23237,0.19543
4160.30363,0.19467
4158.37488,0.19389
4156.44614,0.19331
4154.51739,0.19259
4152.58865,0.19179
4150.65990,0.19128
4148.73116,0.19123
4146.80241,0.19141
4144.87367,0.19166
4142.94492,0.19198
4141.01617,0.19215
4139.08743,0.19196
4137.15868,0.19154
4135.22994,0.19110
4133.30119,0.19069
4131.37245,0.19057
4129.44370,0.19066
4127.51496,0.19037
4125.58621,0.18959
4123.65747,0.18880
4121.72872,0.18819
4119.79998,0.18788
4117.87123,0.18764
4115.94249,0.18695
4114.01374,0.18587
4112.08500,0.18459
4110.15625,0.18318
4108.22750,0.18196
4106.29876,0.18112
4104.37001,0.18045
4102.44127,0.17970
4100.51252,0.17880
4098.58378,0.17773
4096.65503,0.17637
4094.72629,0.17492
4092.79754,0.17354
4090.86880,0.17214
4088.94005,0.17082
4087.01131,0.16961
4085.08256,0.16820
4083.15382,0.16644
4081.22507,0.16461
4079.29632,0.16291
4077.36758,0.16121
4075.43883,0.15947
4073.51009,0.15779
4071.58134,0.15629
4069.65260,0.15510
4067.72385,0.15421
4065.79511,0.15345
4063.86636,0.15248
4061.93762,0.15120
4060.00887,0.14998
4058.08013,0.14897
4056.15138,0.14792
4054.22264,0.14697
4052.29389,0.14656
4050.36515,0.14651
4048.43640,0.14651
4046.50765,0.14661
4044.57891,0.14668
4042.65016,0.14649
4040.72142,0.14625
4038.79267,0.14606
4036.86393,0.14583
4034.93518,0.14581
4033.00644,0.14607
4031.07769,0.14613
4029.14895,0.14577
4027.22020,0.14561
4025.29146,0.14603
4023.36271,0.14650
4021.43397,0.14671
4019.50522,0.14682
4017.57648,0.14701
4015.64773,0.14736
4013.71898,0.14750
4011.79024,0.14732
4009.86149,0.14755
4007.93275,0.14846
4006.00400,0.14924
4004.07526,0.14965
4002.14651,0.15022
4000.21777,0.15098
3998.28902,0.15150
3996.36028,0.15174
3994.43153,0.15217
3992.50279,0.15312
3990.57404,0.15424
3988.64530,0.15516
3986.71655,0.15610
3984.78780,0.15700
3982.85906,0.15769
3980.93031,0.15867
3979.00157,0.16001
3977.07282,0.16137
3975.14408,0.16263
3973.21533,0.16367
3971.28659,0.16464
3969.35784,0.16582
3967.42910,0.16708
3965.50035,0.16835
3963.57161,0.16977
3961.64286,0.17119
3959.71412,0.17239
3957.78537,0.17354
3955.85663,0.17495
3953.92788,0.17670
3951.99913,0.17853
3950.07039,0.18010
3948.14164,0.18167
3946.21290,0.18357
3944.28415,0.18570
3942.35541,0.18778
3940.42666,0.18981
3938.49792,0.19190
3936.56917,0.19382
3934.64043,0.19541
3932.71168,0.19707
3930.78294,0.19912
3928.85419,0.20140
3926.92545,0.20345
3924.99670,0.20498
3923.06795,0.20629
3921.13921,0.20787
3919.21046,0.20967
3917.28172,0.21122
3915.35297,0.21230
3913.42423,0.21318
3911.49548,0.21423
3909.56674,0.21555
3907.63799,0.21701
3905.70925,0.21833
3903.78050,0.21919
3901.85176,0.21962
3899.92301,0.21991
3897.99427,0.22027
3896.06552,0.22099
3894.13678,0.22217
3892.20803,0.22330
3890.27928,0.22385
3888.35054,0.22425
3886.42179,0.22484
3884.49305,0.22545
3882.56430,0.22604
3880.63556,0.22635
3878.70681,0.22644
3876.77807,0.22683
3874.84932,0.22736
3872.92058,0.22776
3870.99183,0.22815
3869.06309,0.22838
3867.13434,0.22851
3865.20560,0.22866
3863.27685,0.22860
3861.34811,0.22847
3859.41936,0.22884
3857.49061,0.22978
3855.56187,0.23063
3853.63312,0.23051
3851.70438,0.22984
3849.77563,0.22985
3847.84689,0.23047
3845.91814,0.23134
3843.98940,0.23253
3842.06065,0.23402
3840.13191,0.23516
3838.20316,0.23562
3836.27442,0.23591
3834.34567,0.23648
3832.41693,0.23714
3830.48818,0.23768
3828.55943,0.23822
3826.63069,0.23866
3824.70194,0.23913
3822.77320,0.24002
3820.84445,0.24081
3818.91571,0.24111
3816.98696,0.24139
3815.05822,0.24160
3813.12947,0.24171
3811.20073,0.24201
3809.27198,0.24244
3807.34324,0.24286
3805.41449,0.24325
3803.48575,0.24367
3801.55700,0.24392
3799.62826,0.24404
3797.69951,0.24441
3795.77076,0.24487
3793.84202,0.24525
3791.91327,0.24569
3789.98453,0.24615
3788.05578,0.24681
3786.12704,0.24792
3784.19829,0.24932
3782.26955,0.25060
3780.34080,0.25160
3778.41206,0.25228
3776.48331,0.25307
3774.55457,0.25440
3772.62582,0.25616
3770.69708,0.25798
3768.76833,0.25947
3766.83959,0.26066
3764.91084,0.26186
3762.98209,0.26334
3761.05335,0.26521
3759.12460,0.26700
3757.19586,0.26846
3755.26711,0.27000
3753.33837,0.27187
3751.40962,0.27366
3749.48088,0.27492
3747.55213,0.27595
3745.62339,0.27680
3743.69464,0.27734
3741.76590,0.27812
3739.83715,0.27927
3737.90841,0.28039
3735.97966,0.28121
3734.05091,0.28149
3732.12217,0.28134
3730.19342,0.28145
3728.26468,0.28221
3726.33593,0.28325
3724.40719,0.28385
3722.47844,0.28389
3720.54970,0.28374
3718.62095,0.28361
3716.69221,0.28364
3714.76346,0.28379
3712.83472,0.28376
3710.90597,0.28301
3708.97723,0.28159
3707.04848,0.28018
3705.11974,0.27913
3703.19099,0.27794
3701.26224,0.27572
3699.33350,0.27284
3697.40475,0.26996
3695.47601,0.26678
3693.54726,0.26337
3691.61852,0.26000
3689.68977,0.25599
3687.76103,0.25094
3685.83228,0.24608
3683.90354,0.24201
3681.97479,0.23845
3680.04605,0.23531
3678.11730,0.23209
3676.18856,0.22784
3674.25981,0.22320
3672.33107,0.21964
3670.40232,0.21591
3668.47357,0.21152
3666.54483,0.20772
3664.61608,0.20438
3662.68734,0.20106
3660.75859,0.19771
3658.82985,0.19438
3656.90110,0.19071
3654.97236,0.18687
3653.04361,0.18376
3651.11487,0.18083
3649.18612,0.17694
3647.25738,0.17277
3645.32863,0.16955
3643.39989,0.16700
3641.47114,0.16437
3639.54239,0.16165
3637.61365,0.15915
3635.68490,0.15659
3633.75616,0.15376
3631.82741,0.15117
3629.89867,0.14871
3627.96992,0.14564
3626.04118,0.14257
3624.11243,0.14011
3622.18369,0.13802
3620.25494,0.13575
3618.32620,0.13330
3616.39745,0.13137
3614.46871,0.12980
3612.53996,0.12798
3610.61122,0.12583
3608.68247,0.12349
3606.75372,0.12100
3604.82498,0.11876
3602.89623,0.11701
3600.96749,0.11543
3599.03874,0.11383
3597.11000,0.11231
3595.18125,0.11082
3593.25251,0.10926
3591.32376,0.10770
3589.39502,0.10612
3587.46627,0.10463
3585.53753,0.10357
3583.60878,0.10287
3581.68004,0.10200
3579.75129,0.10092
3577.82254,0.10000
3575.89380,0.09939
3573.96505,0.09895
3572.03631,0.09850
3570.10756,0.09785
3568.17882,0.09678
3566.25007,0.09546
3564.32133,0.09424
3562.39258,0.09313
3560.46384,0.09218
3558.53509,0.09148
3556.60635,0.09100
3554.67760,0.09050
3552.74886,0.08974
3550.82011,0.08887
3548.89137,0.08805
3546.96262,0.08723
3545.03387,0.08639
3543.10513,0.08549
3541.17638,0.08447
3539.24764,0.08337
3537.31889,0.08246
3535.39015,0.08161
3533.46140,0.08049
3531.53266,0.07927
3529.60391,0.07839
3527.67517,0.07802
3525.74642,0.07762
3523.81768,0.07673
3521.88893,0.07587
3519.96019,0.07539
3518.03144,0.07492
3516.10270,0.07438
3514.17395,0.07398
3512.24520,0.07370
3510.31646,0.07351
3508.38771,0.07332
3506.45897,0.07311
3504.53022,0.07303
3502.60148,0.07293
3500.67273,0.07267
3498.74399,0.07227
3496.81524,0.07174
3494.88650,0.07131
3492.95775,0.07116
3491.02901,0.07129
3489.10026,0.07146
3487.17152,0.07120
3485.24277,0.07065
3483.31402,0.07033
3481.38528,0.07014
3479.45653,0.06981
3477.52779,0.06925
3475.59904,0.06845
3473.67030,0.06768
3471.74155,0.06702
3469.81281,0.06629
3467.88406,0.06538
3465.95532,0.06450
3464.02657,0.06389
3462.09783,0.06335
3460.16908,0.06238
3458.24034,0.06115
3456.31159,0.06039
3454.38285,0.06024
3452.45410,0.06007
3450.52535,0.05950
3448.59661,0.05892
3446.66786,0.05852
3444.73912,0.05812
3442.81037,0.05785
3440.88163,0.05759
3438.95288,0.05700
3437.02414,0.05617
3435.09539,0.05535
3433.16665,0.05465
3431.23790,0.05398
3429.30916,0.05326
3427.38041,0.05256
3425.45167,0.05186
3423.52292,0.05093
3421.59418,0.04982
3419.66543,0.04896
3417.73668,0.04828
3415.80794,0.04714
3413.87919,0.04563
3411.95045,0.04457
3410.02170,0.04400
3408.09296,0.04360
3406.16421,0.04334
3404.23547,0.04279
3402.30672,0.04180
3400.37798,0.04100
3398.44923,0.04045
3396.52049,0.03961
3394.59174,0.03849
3392.66300,0.03751
3390.73425,0.03667
3388.80550,0.03572
3386.87676,0.03490
3384.94801,0.03441
3383.01927,0.03414
3381.09052,0.03387
3379.16178,0.03341
3377.23303,0.03272
3375.30429,0.03206
3373.37554,0.03174
3371.44680,0.03166
3369.51805,0.03144
3367.58931,0.03095
3365.66056,0.03041
3363.73182,0.03021
3361.80307,0.03040
3359.87433,0.03056
3357.94558,0.03029
3356.01683,0.02989
3354.08809,0.02980
3352.15934,0.02963
3350.23060,0.02916
3348.30185,0.02895
3346.37311,0.02920
3344.44436,0.02949
3342.51562,0.02954
3340.58687,0.02925
3338.65813,0.02883
3336.72938,0.02866
3334.80064,0.02869
3332.87189,0.02872
3330.94315,0.02861
3329.01440,0.02839
3327.08566,0.02831
3325.15691,0.02843
3323.22816,0.02835
3321.29942,0.02809
3319.37067,0.02802
3317.44193,0.02822
3315.51318,0.02850
3313.58444,0.02878
3311.65569,0.02899
3309.72695,0.02896
3307.79820,0.02859
3305.86946,0.02812
3303.94071,0.02791
3302.01197,0.02797
3300.08322,0.02811
3298.15448,0.02817
3296.22573,0.02813
3294.29698,0.02818
3292.36824,0.02844
3290.43949,0.02872
3288.51075,0.02881
3286.58200,0.02891
3284.65326,0.02883
3282.72451,0.02837
3280.79577,0.02795
3278.86702,0.02787
3276.93828,0.02812
3275.00953,0.02851
3273.08079,0.02881
3271.15204,0.02910
3269.22330,0.02946
3267.29455,0.02981
3265.36581,0.03003
3263.43706,0.03007
3261.50831,0.03020
3259.57957,0.03054
3257.65082,0.03078
3255.72208,0.03081
3253.79333,0.03088
3251.86459,0.03117
3249.93584,0.03148
3248.00710,0.03168
3246.07835,0.03186
3244.14961,0.03207
3242.22086,0.03230
3240.29212,0.03263
3238.36337,0.03300
3236.43463,0.03327
3234.50588,0.03339
3232.57713,0.03355
3230.64839,0.03387
3228.71964,0.03415
3226.79090,0.03426
3224.86215,0.03435
3222.93341,0.03462
3221.00466,0.03528
3219.07592,0.03616
3217.14717,0.03674
3215.21843,0.03693
3213.28968,0.03699
3211.36094,0.03694
3209.43219,0.03679
3207.50345,0.03685
3205.57470,0.03699
3203.64596,0.03688
3201.71721,0.03682
3199.78846,0.03716
3197.85972,0.03739
3195.93097,0.03735
3194.00223,0.03750
3192.07348,0.03792
3190.14474,0.03833
3188.21599,0.03847
3186.28725,0.03846
3184.35850,0.03878
3182.42976,0.03950
3180.50101,0.04037
3178.57227,0.04117
3176.64352,0.04173
3174.71478,0.04208
3172.78603,0.04250
3170.85729,0.04310
3168.92854,0.04362
3166.99979,0.04387
3165.07105,0.04401
3163.14230,0.04418
3161.21356,0.04434
3159.28481,0.04453
3157.35607,0.04493
3155.42732,0.04542
3153.49858,0.04565
3151.56983,0.04568
3149.64109,0.04578
3147.71234,0.04590
3145.78360,0.04581
3143.85485,0.04563
3141.92611,0.04562
3139.99736,0.04569
3138.06861,0.04540
3136.13987,0.04463
3134.21112,0.04389
3132.28238,0.04358
3130.35363,0.04354
3128.42489,0.04360
3126.49614,0.04372
3124.56740,0.04375
3122.63865,0.04372
3120.70991,0.04386
3118.78116,0.04425
3116.85242,0.04469
3114.92367,0.04497
3112.99493,0.04517
3111.06618,0.04547
3109.13744,0.04578
3107.20869,0.04592
3105.27994,0.04590
3103.35120,0.04591
3101.42245,0.04620
3099.49371,0.04661
3097.56496,0.04677
3095.63622,0.04673
3093.70747,0.04657
3091.77873,0.04615
3089.84998,0.04563
3087.92124,0.04527
3085.99249,0.04513
3084.06375,0.04507
3082.13500,0.04494
3080.20626,0.04486
3078.27751,0.04474
3076.34877,0.04422
3074.42002,0.04340
3072.49127,0.04281
3070.56253,0.04261
3068.63378,0.04255
3066.70504,0.04240
3064.77629,0.04217
3062.84755,0.04199
3060.91880,0.04195
3058.99006,0.04199
3057.06131,0.04200
3055.13257,0.04204
3053.20382,0.04216
3051.27508,0.04230
3049.34633,0.04238
3047.41759,0.04231
3045.48884,0.04212
3043.56009,0.04200
3041.63135,0.04190
3039.70260,0.04158
3037.77386,0.04112
3035.84511,0.04072
3033.91637,0.04037
3031.98762,0.04008
3030.05888,0.04000
3028.13013,0.04020
3026.20139,0.04043
3024.27264,0.04055
3022.34390,0.04068
3020.41515,0.04075
3018.48641,0.04056
3016.55766,0.04022
3014.62892,0.03990
3012.70017,0.03958
3010.77142,0.03909
3008.84268,0.03822
3006.91393,0.03700
3004.98519,0.03588
3003.05644,0.03500
3001.12770,0.03392
2999.19895,0.03266
2997.27021,0.03153
2995.34146,0.03054
2993.41272,0.02980
2991.48397,0.02933
2989.55523,0.02873
2987.62648,0.02789
2985.69774,0.02715
2983.76899,0.02670
2981.84025,0.02640
2979.91150,0.02631
2977.98275,0.02647
2976.05401,0.02658
2974.12526,0.02649
2972.19652,0.02645
2970.26777,0.02655
2968.33903,0.02669
2966.41028,0.02667
2964.48154,0.02653
2962.55279,0.02655
2960.62405,0.02687
2958.69530,0.02728
2956.76656,0.02747
2954.83781,0.02742
2952.90907,0.02734
2950.98032,0.02726
2949.05157,0.02715
2947.12283,0.02698
2945.19408,0.02691
2943.26534,0.02699
2941.33659,0.02686
2939.40785,0.02634
2937.47910,0.02579
2935.55036,0.02555
2933.62161,0.02553
2931.69287,0.02563
2929.76412,0.02575
2927.83538,0.02577
2925.90663,0.02565
2923.97789,0.02561
2922.04914,0.02587
2920.12040,0.02635
2918.19165,0.02657
2916.26290,0.02639
2914.33416,0.02621
2912.40541,0.02624
2910.47667,0.02632
2908.54792,0.02644
2906.61918,0.02665
2904.69043,0.02667
2902.76169,0.02640
2900.83294,0.02627
2898.90420,0.02634
2896.97545,0.02642
2895.04671,0.02656
2893.11796,0.02674
2891.18922,0.02678
2889.26047,0.02668
2887.33172,0.02668
2885.40298,0.02688
2883.47423,0.02719
2881.54549,0.02737
2879.61674,0.02724
2877.68800,0.02704
2875.75925,0.02701
2873.83051,0.02712
2871.90176,0.02731
2869.97302,0.02739
2868.04427,0.02730
2866.11553,0.02718
2864.18678,0.02716
2862.25804,0.02732
2860.32929,0.02772
2858.40055,0.02818
2856.47180,0.02843
2854.54305,0.02858
2852.61431,0.02888
2850.68556,0.02927
2848.75682,0.02960
2846.82807,0.02995
2844.89933,0.03040
2842.97058,0.03093
2841.04184,0.03155
2839.11309,0.03231
2837.18435,0.03301
2835.25560,0.03346
2833.32686,0.03389
2831.39811,0.03455
2829.46937,0.03538
2827.54062,0.03619
2825.61188,0.03687
2823.68313,0.03749
2821.75438,0.03801
2819.82564,0.03826
2817.89689,0.03851
2815.96815,0.03904
2814.03940,0.03962
2812.11066,0.03993
2810.18191,0.04007
2808.25317,0.04037
2806.32442,0.04075
2804.39568,0.04095
2802.46693,0.04120
2800.53819,0.04166
2798.60944,0.04201
2796.68070,0.04209
2794.75195,0.04226
2792.82320,0.04277
2790.89446,0.04329
2788.96571,0.04357
2787.03697,0.04388
2785.10822,0.04434
2783.17948,0.04464
2781.25073,0.04473
2779.32199,0.04492
2777.39324,0.04545
2775.46450,0.04616
2773.53575,0.04675
2771.60701,0.04717
2769.67826,0.04746
2767.74952,0.04773
2765.82077,0.04817
2763.89203,0.04883
2761.96328,0.04950
2760.03453,0.05002
2758.10579,0.05040
2756.17704,0.05074
2754.24830,0.05123
2752.31955,0.05191
2750.39081,0.05259
2748.46206,0.05319
2746.53332,0.05382
2744.60457,0.05440
2742.67583,0.05473
2740.74708,0.05487
2738.81834,0.05507
2736.88959,0.05554
2734.96085,0.05616
2733.03210,0.05677
2731.10336,0.05739
2729.17461,0.05813
2727.24586,0.05916
2725.31712,0.06041
2723.38837,0.06158
2721.45963,0.06259
2719.53088,0.06354
2717.60214,0.06454
2715.67339,0.06565
2713.74465,0.06693
2711.81590,0.06835
2709.88716,0.06970
2707.95841,0.07075
2706.02967,0.07152
2704.10092,0.07226
2702.17218,0.07318
2700.24343,0.07426
2698.31468,0.07550
2696.38594,0.07692
2694.45719,0.07852
2692.52845,0.08012
2690.59970,0.08138
2688.67096,0.08233
2686.74221,0.08326
2684.81347,0.08415
2682.88472,0.08492
2680.95598,0.08570
2679.02723,0.08648
2677.09849,0.08711
2675.16974,0.08759
2673.24100,0.08801
2671.31225,0.08840
2669.38351,0.08887
2667.45476,0.08952
2665.52601,0.09025
2663.59727,0.09108
2661.66852,0.09191
2659.73978,0.09260
2657.81103,0.09337
2655.88229,0.09434
2653.95354,0.09508
2652.02480,0.09540
2650.09605,0.09563
2648.16731,0.09606
2646.23856,0.09654
2644.30982,0.09698
2642.38107,0.09737
2640.45233,0.09781
2638.52358,0.09850
2636.59484,0.09934
2634.66609,0.10014
2632.73734,0.10096
2630.80860,0.10202
2628.87985,0.10338
2626.95111,0.10483
2625.02236,0.10617
2623.09362,0.10744
2621.16487,0.10868
2619.23613,0.10970
2617.30738,0.11023
2615.37864,0.11034
2613.44989,0.11040
2611.52115,0.11043
2609.59240,0.11023
2607.66366,0.10983
2605.73491,0.10937
2603.80616,0.10897
2601.87742,0.10864
2599.94867,0.10825
2598.01993,0.10775
2596.09118,0.10732
2594.16244,0.10719
2592.23369,0.10734
2590.30495,0.10769
2588.37620,0.10813
2586.44746,0.10852
2584.51871,0.10897
2582.58997,0.10991
2580.66122,0.11132
2578.73248,0.11295
2576.80373,0.11489
2574.87499,0.11720
2572.94624,0.11953
2571.01749,0.12156
2569.08875,0.12346
2567.16000,0.12544
2565.23126,0.12737
2563.30251,0.12909
2561.37377,0.13060
2559.44502,0.13199
2557.51628,0.13337
2555.58753,0.13458
2553.65879,0.13544
2551.73004,0.13624
2549.80130,0.13719
2547.87255,0.13809
2545.94381,0.13882
2544.01506,0.13942
2542.08631,0.13984
2540.15757,0.14011
2538.22882,0.14043
2536.30008,0.14087
2534.37133,0.14127
2532.44259,0.14141
2530.51384,0.14131
2528.58510,0.14117
2526.65635,0.14105
2524.72761,0.14094
2522.79886,0.14095
2520.87012,0.14115
2518.94137,0.14135
2517.01263,0.14137
2515.08388,0.14130
2513.15514,0.14146
2511.22639,0.14197
2509.29764,0.14265
2507.36890,0.14318
2505.44015,0.14353
2503.51141,0.14400
2501.58266,0.14468
2499.65392,0.14543
2497.72517,0.14623
2495.79643,0.14702
2493.86768,0.14781
2491.93894,0.14870
2490.01019,0.14970
2488.08145,0.15059
2486.15270,0.15139
2484.22396,0.15226
2482.29521,0.15315
2480.36647,0.15396
2478.43772,0.15473
2476.50897,0.15555
2474.58023,0.15641
2472.65148,0.15719
2470.72274,0.15799
2468.79399,0.15885
2466.86525,0.15970
2464.93650,0.16048
2463.00776,0.16123
2461.07901,0.16185
2459.15027,0.16229
2457.22152,0.16281
2455.29278,0.16349
2453.36403,0.16431
2451.43529,0.16530
2449.50654,0.16623
2447.57779,0.16703
2445.64905,0.16788
2443.72030,0.16888
2441.79156,0.16993
2439.86281,0.17084
2437.93407,0.17165
2436.00532,0.17249
2434.07658,0.17341
2432.14783,0.17428
2430.21909,0.17504
2428.29034,0.17576
2426.36160,0.17646
2424.43285,0.17706
2422.50411,0.17745
2420.57536,0.17769
2418.64662,0.17781
2416.71787,0.17772
2414.78912,0.17758
2412.86038,0.17765
2410.93163,0.17770
2409.00289,0.17738
2407.07414,0.17682
2405.14540,0.17639
2403.21665,0.17614
2401.28791,0.17583
2399.35916,0.17546
2397.43042,0.17513
2395.50167,0.17470
2393.57293,0.17409
2391.64418,0.17353
2389.71544,0.17311
2387.78669,0.17273
2385.85795,0.17231
2383.92920,0.17188
2382.00045,0.17148
2380.07171,0.17110
2378.14296,0.17074
2376.21422,0.17051
2374.28547,0.17043
2372.35673,0.17032
2370.42798,0.17015
2368.49924,0.17009
2366.57049,0.17020
2364.64175,0.17030
2362.71300,0.17018
2360.78426,0.16997
2358.85551,0.16993
2356.92677,0.16990
2354.99802,0.16964
2353.06927,0.16922
2351.14053,0.16875
2349.21178,0.16840
2347.28304,0.16826
2345.35429,0.16807
2343.42555,0.16783
2341.49680,0.16770
2339.56806,0.16762
2337.63931,0.16751
2335.71057,0.16732
2333.78182,0.16726
2331.85308,0.16725
2329.92433,0.16692
2327.99559,0.16623
2326.06684,0.16538
2324.13810,0.16424
2322.20935,0.16275
2320.28060,0.16102
2318.35186,0.15922
2316.42311,0.15742
2314.49437,0.15539
2312.56562,0.15310
2310.63688,0.15086
2308.70813,0.14872
2306.77939,0.14654
2304.85064,0.14414
2302.92190,0.14152
2300.99315,0.13894
2299.06441,0.13651
2297.13566,0.13398
2295.20692,0.13130
2293.27817,0.12871
2291.34943,0.12626
2289.42068,0.12377
2287.49193,0.12118
2285.56319,0.11864
2283.63444,0.11611
2281.70570,0.11356
2279.77695,0.11117
2277.84821,0.10919
2275.91946,0.10772
2273.99072,0.10688
2272.06197,0.10662
2270.13323,0.10673
2268.20448,0.10725
2266.27574,0.10834
2264.34699,0.11006
2262.41825,0.11213
2260.48950,0.11416
2258.56075,0.11594
2256.63201,0.11743
2254.70326,0.11869
2252.77452,0.11979
2250.84577,0.12059
2248.91703,0.12066
2246.98828,0.11991
2245.05954,0.11887
2243.13079,0.11797
2241.20205,0.11720
2239.27330,0.11668
2237.34456,0.11694
2235.41581,0.11842
2233.48707,0.12097
2231.55832,0.12411
2229.62958,0.12724
2227.70083,0.12978
2225.77208,0.13148
2223.84334,0.13255
2221.91459,0.13337
2219.98585,0.13405
2218.05710,0.13453
2216.12836,0.13504
2214.19961,0.13582
2212.27087,0.13661
2210.34212,0.13715
2208.41338,0.13767
2206.48463,0.13834
2204.55589,0.13899
2202.62714,0.13946
2200.69840,0.13975
2198.76965,0.13995
2196.84090,0.14013
2194.91216,0.14038
2192.98341,0.14074
2191.05467,0.14110
2189.12592,0.14125
2187.19718,0.14122
2185.26843,0.14126
2183.33969,0.14137
2181.41094,0.14150
2179.48220,0.14178
2177.55345,0.14206
2175.62471,0.14204
2173.69596,0.14178
2171.76722,0.14153
2169.83847,0.14145
2167.90973,0.14148
2165.98098,0.14150
2164.05223,0.14154
2162.12349,0.14155
2160.19474,0.14143
2158.26600,0.14134
2156.33725,0.14141
2154.40851,0.14161
2152.47976,0.14181
2150.55102,0.14191
2148.62227,0.14194
2146.69353,0.14209
2144.76478,0.14238
2142.83604,0.14267
2140.90729,0.14293
2138.97855,0.14319
2137.04980,0.14339
2135.12106,0.14347
2133.19231,0.14359
2131.26356,0.14384
2129.33482,0.14416
2127.40607,0.14453
2125.47733,0.14509
2123.54858,0.14572
2121.61984,0.14609
2119.69109,0.14621
2117.76235,0.14632
2115.83360,0.14641
2113.90486,0.14645
2111.97611,0.14651
2110.04737,0.14655
2108.11862,0.14646
2106.18988,0.14623
2104.26113,0.14594
2102.33238,0.14564
2100.40364,0.14536
2098.47489,0.14503
2096.54615,0.14465
2094.61740,0.14427
2092.68866,0.14386
2090.75991,0.14340
2088.83117,0.14287
2086.90242,0.14235
2084.97368,0.14192
2083.04493,0.14151
2081.11619,0.14104
2079.18744,0.14059
2077.25870,0.14029
2075.32995,0.14012
2073.40121,0.14000
2071.47246,0.13977
2069.54371,0.13945
2067.61497,0.13917
2065.68622,0.13894
2063.75748,0.13878
2061.82873,0.13868
2059.89999,0.13851
2057.97124,0.13820
2056.04250,0.13780
2054.11375,0.13735
2052.18501,0.13682
2050.25626,0.13613
2048.32752,0.13540
2046.39877,0.13475
2044.47003,0.13395
2042.54128,0.13284
2040.61254,0.13174
2038.68379,0.13079
2036.75504,0.12986
2034.82630,0.12889
2032.89755,0.12786
2030.96881,0.12677
2029.04006,0.12589
2027.11132,0.12532
2025.18257,0.12469
2023.25383,0.12394
2021.32508,0.12332
2019.39634,0.12297
2017.46759,0.12286
2015.53885,0.12283
2013.61010,0.12275
2011.68136,0.12267
2009.75261,0.12266
2007.82386,0.12269
2005.89512,0.12277
2003.96637,0.12285
2002.03763,0.12286
2000.10888,0.12294
1998.18014,0.12316
1996.25139,0.12329
1994.32265,0.12325
1992.39390,0.12310
1990.46516,0.12293
1988.53641,0.12286
1986.60767,0.12287
1984.67892,0.12286
1982.75018,0.12268
1980.82143,0.12236
1978.89269,0.12209
1976.96394,0.12208
1975.03519,0.12226
1973.10645,0.12232
1971.17770,0.12205
1969.24896,0.12168
1967.32021,0.12137
1965.39147,0.12104
1963.46272,0.12073
1961.53398,0.12047
1959.60523,0.12016
1957.67649,0.11990
1955.74774,0.11979
1953.81900,0.11980
1951.89025,0.11988
1949.96151,0.11999
1948.03276,0.11998
1946.10402,0.11996
1944.17527,0.12016
1942.24652,0.12052
1940.31778,0.12077
1938.38903,0.12080
1936.46029,0.12063
1934.53154,0.12030
1932.60280,0.11999
1930.67405,0.11981
1928.74531,0.11967
1926.81656,0.11941
1924.88782,0.11901
1922.95907,0.11845
1921.03033,0.11788
1919.10158,0.11743
1917.17284,0.11697
1915.24409,0.11649
1913.31534,0.11617
1911.38660,0.11594
1909.45785,0.11571
1907.52911,0.11564
1905.60036,0.11579
1903.67162,0.11601
1901.74287,0.11626
1899.81413,0.11656
1897.88538,0.11689
1895.95664,0.11739
1894.02789,0.11806
1892.09915,0.11882
1890.17040,0.11961
1888.24166,0.12031
1886.31291,0.12090
1884.38417,0.12149
1882.45542,0.12209
1880.52667,0.12274
1878.59793,0.12347
1876.66918,0.12416
1874.74044,0.12474
1872.81169,0.12531
1870.88295,0.12597
1868.95420,0.12668
1867.02546,0.12728
1865.09671,0.12769
1863.16797,0.12788
1861.23922,0.12786
1859.31048,0.12774
1857.38173,0.12760
1855.45299,0.12736
1853.52424,0.12689
1851.59549,0.12620
1849.66675,0.12546
1847.73800,0.12478
1845.80926,0.12406
1843.88051,0.12304
1841.95177,0.12171
1840.02302,0.12038
1838.09428,0.11917
1836.16553,0.11794
1834.23679,0.11670
1832.30804,0.11552
1830.37930,0.11416
1828.45055,0.11262
1826.52181,0.11114
1824.59306,0.10951
1822.66432,0.10784
1820.73557,0.10640
1818.80682,0.10504
1816.87808,0.10368
1814.94933,0.10215
1813.02059,0.10039
1811.09184,0.09854
1809.16310,0.09652
1807.23435,0.09429
1805.30561,0.09204
1803.37686,0.08981
1801.44812,0.08758
1799.51937,0.08552
1797.59063,0.08388
1795.66188,0.08263
1793.73314,0.08147
1791.80439,0.08031
1789.87565,0.07941
1787.94690,0.07871
1786.01815,0.07797
1784.08941,0.07707
1782.16066,0.07607
1780.23192,0.07499
1778.30317,0.07392
1776.37443,0.07296
1774.44568,0.07189
1772.51694,0.07030
1770.58819,0.06833
1768.65945,0.06624
1766.73070,0.06402
1764.80196,0.06188
1762.87321,0.05951
1760.94447,0.05645
1759.01572,0.05295
1757.08697,0.04903
1755.15823,0.04510
1753.22948,0.04161
1751.30074,0.03797
1749.37199,0.03421
1747.44325,0.03123
1745.51450,0.02909
1743.58576,0.02745
1741.65701,0.02610
1739.72827,0.02510
1737.79952,0.02471
1735.87078,0.02463
1733.94203,0.02438
1732.01329,0.02415
1730.08454,0.02424
1728.15580,0.02460
1726.22705,0.02500
1724.29830,0.02517
1722.36956,0.02526
1720.44081,0.02555
1718.51207,0.02579
1716.58332,0.02567
1714.65458,0.02559
1712.72583,0.02581
1710.79709,0.02617
1708.86834,0.02641
1706.93960,0.02644
1705.01085,0.02641
1703.08211,0.02646
1701.15336,0.02661
1699.22462,0.02689
1697.29587,0.02719
1695.36713,0.02721
1693.43838,0.02705
1691.50963,0.02695
1689.58089,0.02690
1687.65214,0.02695
1685.72340,0.02696
1683.79465,0.02677
1681.86591,0.02667
1679.93716,0.02677
1678.00842,0.02683
1676.07967,0.02671
1674.15093,0.02652
1672.22218,0.02647
1670.29344,0.02648
1668.36469,0.02646
1666.43595,0.02651
1664.50720,0.02666
1662.57845,0.02672
1660.64971,0.02664
1658.72096,0.02665
1656.79222,0.02679
1654.86347,0.02681
1652.93473,0.02662
1651.00598,0.02669
1649.07724,0.02712
1647.14849,0.02733
1645.21975,0.02705
1643.29100,0.02691
1641.36226,0.02721
1639.43351,0.02765
1637.50477,0.02791
1635.57602,0.02797
1633.64728,0.02801
1631.71853,0.02810
1629.78978,0.02818
1627.86104,0.02811
1625.93229,0.02777
1624.00355,0.02724
1622.07480,0.02670
1620.14606,0.02626
1618.21731,0.02581
1616.28857,0.02525
1614.35982,0.02489
1612.43108,0.02479
1610.50233,0.02458
1608.57359,0.02427
1606.64484,0.02417
1604.71610,0.02424
1602.78735,0.02435
1600.85861,0.02471
1598.92986,0.02527
1597.00111,0.02570
1595.07237,0.02593
1593.14362,0.02599
1591.21488,0.02588
1589.28613,0.02592
1587.35739,0.02633
1585.42864,0.02694
1583.49990,0.02747
1581.57115,0.02796
1579.64241,0.02851
1577.71366,0.02890
1575.78492,0.02882
1573.85617,0.02847
1571.92743,0.02803
1569.99868,0.02739
1568.06993,0.02675
1566.14119,0.02630
1564.21244,0.02591
1562.28370,0.02556
1560.35495,0.02513
1558.42621,0.02446
1556.49746,0.02408
1554.56872,0.02392
1552.63997,0.02374
1550.71123,0.02360
1548.78248,0.02356
1546.85374,0.02375
1544.92499,0.02420
1542.99625,0.02466
1541.06750,0.02479
1539.13876,0.02462
1537.21001,0.02481
1535.28126,0.02544
1533.35252,0.02606
1531.42377,0.02642
1529.49503,0.02669
1527.56628,0.02691
1525.63754,0.02701
1523.70879,0.02703
1521.78005,0.02698
1519.85130,0.02696
1517.92256,0.02700
1515.99381,0.02706
1514.06507,0.02725
1512.13632,0.02756
1510.20758,0.02802
1508.27883,0.02863
1506.35008,0.02896
1504.42134,0.02896
1502.49259,0.02916
1500.56385,0.02951
1498.63510,0.02974
1496.70636,0.02982
1494.77761,0.02987
1492.84887,0.02989
1490.92012,0.02982
1488.99138,0.02972
1487.06263,0.02958
1485.13389,0.02929
1483.20514,0.02896
1481.27640,0.02870
1479.34765,0.02848
1477.41891,0.02832
1475.49016,0.02822
1473.56141,0.02811
1471.63267,0.02786
1469.70392,0.02759
1467.77518,0.02747
1465.84643,0.02743
1463.91769,0.02734
1461.98894,0.02725
1460.06020,0.02718
1458.13145,0.02698
1456.20271,0.02657
1454.27396,0.02653
1452.34522,0.02688
1450.41647,0.02726
1448.48773,0.02751
1446.55898,0.02779
1444.63024,0.02824
1442.70149,0.02866
1440.77274,0.02887
1438.84400,0.02909
1436.91525,0.02941
1434.98651,0.02962
1433.05776,0.02990
1431.12902,0.03024
1429.20027,0.03030
1427.27153,0.03013
1425.34278,0.02989
1423.41404,0.02954
1421.48529,0.02908
1419.55655,0.02841
1417.62780,0.02760
1415.69906,0.02714
1413.77031,0.02711
1411.84156,0.02731
1409.91282,0.02759
1407.98407,0.02790
1406.05533,0.02828
1404.12658,0.02867
1402.19784,0.02891
1400.26909,0.02903
1398.34035,0.02921
1396.41160,0.02933
1394.48286,0.02902
1392.55411,0.02847
1390.62537,0.02809
1388.69662,0.02780
1386.76788,0.02741
1384.83913,0.02702
1382.91039,0.02666
1380.98164,0.02614
1379.05289,0.02567
1377.12415,0.02560
1375.19540,0.02588
1373.26666,0.02626
1371.33791,0.02676
1369.40917,0.02738
1367.48042,0.02797
1365.55168,0.02845
1363.62293,0.02879
1361.69419,0.02892
1359.76544,0.02893
1357.83670,0.02883
1355.90795,0.02857
1353.97921,0.02824
1352.05046,0.02794
1350.12172,0.02766
1348.19297,0.02742
1346.26422,0.02723
1344.33548,0.02710
1342.40673,0.02707
1340.47799,0.02719
1338.54924,0.02745
1336.62050,0.02770
1334.69175,0.02768
1332.76301,0.02748
1330.83426,0.02734
1328.90552,0.02726
1326.97677,0.02697
1325.04803,0.02640
1323.11928,0.02577
1321.19054,0.02536
1319.26179,0.02525
1317.33304,0.02528
1315.40430,0.02531
1313.47555,0.02529
1311.54681,0.02515
1309.61806,0.02506
1307.68932,0.02514
1305.76057,0.02528
1303.83183,0.02541
1301.90308,0.02558
1299.97434,0.02582
1298.04559,0.02605
1296.11685,0.02615
1294.18810,0.02620
1292.25936,0.02623
1290.33061,0.02618
1288.40187,0.02614
1286.47312,0.02614
1284.54437,0.02613
1282.61563,0.02611
1280.68688,0.02602
1278.75814,0.02578
1276.82939,0.02563
1274.90065,0.02564
1272.97190,0.02555
1271.04316,0.02523
1269.11441,0.02496
1267.18567,0.02493
1265.25692,0.02493
1263.32818,0.02493
1261.39943,0.02507
1259.47069,0.02501
1257.54194,0.02464
1255.61320,0.02447
1253.68445,0.02458
1251.75570,0.02450
1249.82696,0.02422
1247.89821,0.02408
1245.96947,0.02404
1244.04072,0.02393
1242.11198,0.02377
1240.18323,0.02372
1238.25449,0.02390
1236.32574,0.02403
1234.39700,0.02404
1232.46825,0.02412
1230.53951,0.02431
1228.61076,0.02466
1226.68202,0.02513
1224.75327,0.02551
1222.82452,0.02585
1220.89578,0.02614
1218.96703,0.02625
1217.03829,0.02627
1215.10954,0.02644
1213.18080,0.02673
1211.25205,0.02698
1209.32331,0.02704
1207.39456,0.02688
1205.46582,0.02672
1203.53707,0.02672
1201.60833,0.02681
1199.67958,0.02693
1197.75084,0.02694
1195.82209,0.02685
1193.89335,0.02679
1191.96460,0.02665
1190.03585,0.02638
1188.10711,0.02606
1186.17836,0.02584
1184.24962,0.02566
1182.32087,0.02529
1180.39213,0.02493
1178.46338,0.02477
1176.53464,0.02453
1174.60589,0.02416
1172.67715,0.02383
1170.74840,0.02353
1168.81966,0.02324
1166.89091,0.02300
1164.96217,0.02289
1163.03342,0.02303
1161.10467,0.02326
1159.17593,0.02340
1157.24718,0.02334
1155.31844,0.02310
1153.38969,0.02271
1151.46095,0.02236
1149.53220,0.02240
1147.60346,0.02276
1145.67471,0.02294
1143.74597,0.02282
1141.81722,0.02272
1139.88848,0.02283
1137.95973,0.02303
1136.03099,0.02304
1134.10224,0.02284
1132.17350,0.02275
1130.24475,0.02294
1128.31600,0.02328
1126.38726,0.02359
1124.45851,0.02382
1122.52977,0.02409
1120.60102,0.02460
1118.67228,0.02519
1116.74353,0.02559
1114.81479,0.02584
1112.88604,0.02616
1110.95730,0.02662
1109.02855,0.02710
1107.09981,0.02755
1105.17106,0.02800
1103.24232,0.02849
1101.31357,0.02888
1099.38483,0.02896
1097.45608,0.02890
1095.52733,0.02911
1093.59859,0.02951
1091.66984,0.02977
1089.74110,0.02997
1087.81235,0.03027
1085.88361,0.03064
1083.95486,0.03088
1082.02612,0.03092
1080.09737,0.03092
1078.16863,0.03112
1076.23988,0.03154
1074.31114,0.03193
1072.38239,0.03217
1070.45365,0.03222
1068.52490,0.03205
1066.59615,0.03210
1064.66741,0.03243
1062.73866,0.03264
1060.80992,0.03256
1058.88117,0.03216
1056.95243,0.03177
1055.02368,0.03182
1053.09494,0.03220
1051.16619,0.03267
1049.23745,0.03289
1047.30870,0.03269
1045.37996,0.03247
1043.45121,0.03254
1041.52247,0.03296
1039.59372,0.03350
1037.66498,0.03371
1035.73623,0.03357
1033.80748,0.03345
1031.87874,0.03348
1029.94999,0.03355
1028.02125,0.03356
1026.09250,0.03348
1024.16376,0.03320
1022.23501,0.03267
1020.30627,0.03220
1018.37752,0.03199
1016.44878,0.03194
1014.52003,0.03207
1012.59129,0.03257
1010.66254,0.03337
1008.73380,0.03396
1006.80505,0.03409
1004.87631,0.03406
1002.94756,0.03430
1001.01881,0.03486
999.09007,0.03537
997.16132,0.03581
995.23258,0.03665
993.30383,0.03781
991.37509,0.03890
989.44634,0.03988
987.51760,0.04069
985.58885,0.04108
983.66011,0.04128
981.73136,0.04160
979.80262,0.04190
977.87387,0.04187
975.94513,0.04153
974.01638,0.04105
972.08763,0.04050
970.15889,0.04000
968.23014,0.03977
966.30140,0.03993
964.37265,0.04017
962.44391,0.04020
960.51516,0.04012
958.58642,0.04017
956.65767,0.04043
954.72893,0.04074
952.80018,0.04082
950.87144,0.04042
948.94269,0.03971
947.01395,0.03887
945.08520,0.03790
943.15646,0.03694
941.22771,0.03624
939.29896,0.03577
937.37022,0.03527
935.44147,0.03470
933.51273,0.03445
931.58398,0.03466
929.65524,0.03484
927.72649,0.03494
925.79775,0.03529
923.86900,0.03558
921.94026,0.03565
920.01151,0.03585
918.08277,0.03613
916.15402,0.03627
914.22528,0.03633
912.29653,0.03651
910.36779,0.03690
908.43904,0.03743
906.51029,0.03799
904.58155,0.03854
902.65280,0.03934
900.72406,0.04037
898.79531,0.04108
896.86657,0.04147
894.93782,0.04207
893.00908,0.04267
891.08033,0.04275
889.15159,0.04242
887.22284,0.04195
885.29410,0.04133
883.36535,0.04071
881.43661,0.04033
879.50786,0.04019
877.57911,0.04002
875.65037,0.03936
873.72162,0.03829
871.79288,0.03755
869.86413,0.03751
867.93539,0.03758
866.00664,0.03729
864.07790,0.03708
862.14915,0.03715
860.22041,0.03731
858.29166,0.03757
856.36292,0.03780
854.43417,0.03780
852.50543,0.03773
850.57668,0.03764
848.64794,0.03751
846.71919,0.03753
844.79044,0.03777
842.86170,0.03790
840.93295,0.03772
839.00421,0.03742
837.07546,0.03715
835.14672,0.03686
833.21797,0.03664
831.28923,0.03632
829.36048,0.03559
827.43174,0.03470
825.50299,0.03406
823.57425,0.03385
821.64550,0.03392
819.71676,0.03394
817.78801,0.03372
815.85926,0.03358
813.93052,0.03390
812.00177,0.03454
810.07303,0.03512
808.14428,0.03592
806.21554,0.03731
804.28679,0.03865
802.35805,0.03946
800.42930,0.03987
798.50056,0.03997
796.57181,0.04011
794.64307,0.04046
792.71432,0.04061
790.78558,0.04043
788.85683,0.03999
786.92809,0.03966
784.99934,0.03981
783.07059,0.03982
781.14185,0.03925
779.21310,0.03872
777.28436,0.03847
775.35561,0.03796
773.42687,0.03732
771.49812,0.03691
769.56938,0.03643
767.64063,0.03585
765.71189,0.03565
763.78314,0.03573
761.85440,0.03588
759.92565,0.03619
757.99691,0.03650
756.06816,0.03674
754.13942,0.03702
752.21067,0.03737
750.28192,0.03812
748.35318,0.03928
746.42443,0.04028
744.49569,0.04098
742.56694,0.04164
740.63820,0.04198
738.70945,0.04180
736.78071,0.04163
734.85196,0.04153
732.92322,0.04129
730.99447,0.04124
729.06573,0.04151
727.13698,0.04175
725.20824,0.04171
723.27949,0.04135
721.35074,0.04071
719.42200,0.03996
717.49325,0.03923
715.56451,0.03846
713.63576,0.03756
711.70702,0.03658
709.77827,0.03579
707.84953,0.03537
705.92078,0.03526
703.99204,0.03541
702.06329,0.03570
700.13455,0.03603
698.20580,0.03653
696.27706,0.03729
694.34831,0.03784
692.41957,0.03767
690.49082,0.03712
688.56207,0.03632
686.63333,0.03538
684.70458,0.03495
682.77584,0.03517
680.84709,0.03539
678.91835,0.03505
676.98960,0.03448
675.06086,0.03419
673.13211,0.03423
671.20337,0.03427
669.27462,0.03402
667.34588,0.03403
665.41713,0.03480
663.48839,0.03557
661.55964,0.03558
659.63090,0.03530
657.70215,0.03551
655.77340,0.03614
653.84466,0.03636
651.91591,0.03594
649.98717,0.03583
648.05842,0.03627
646.12968,0.03653
644.20093,0.03651
642.27219,0.03659
640.34344,0.03653
638.41470,0.03634
636.48595,0.03659
634.55721,0.03679
632.62846,0.03668
630.69972,0.03725
628.77097,0.03837
626.84222,0.03905
624.91348,0.03934
622.98473,0.03951
621.05599,0.03922
619.12724,0.03857
617.19850,0.03773
615.26975,0.03660
613.34101,0.03582
611.41226,0.03555
609.48352,0.03571
607.55477,0.03611
605.62603,0.03600
603.69728,0.03582
601.76854,0.03646
599.83979,0.03676
