7497.03301,0.71914
7495.10426,0.71863
7493.17552,0.71866
7491.24677,0.71889
7489.31803,0.71556
7487.38928,0.71025
7485.46054,0.70903
7483.53179,0.71142
7481.60305,0.71264
7479.67430,0.71283
7477.74556,0.71368
7475.81681,0.71406
7473.88807,0.71395
7471.95932,0.71450
7470.03057,0.71537
7468.10183,0.71551
7466.17308,0.71491
7464.24434,0.71426
7462.31559,0.71300
7460.38685,0.71159
7458.45810,0.71242
7456.52936,0.71362
7454.60061,0.71146
7452.67187,0.70864
7450.74312,0.70942
7448.81438,0.71314
7446.88563,0.71623
7444.95689,0.71509
7443.02814,0.70947
7441.09940,0.70376
7439.17065,0.70377
7437.24190,0.70867
7435.31316,0.71045
7433.38441,0.70776
7431.45567,0.70589
7429.52692,0.70512
7427.59818,0.70461
7425.66943,0.70579
7423.74069,0.70857
7421.81194,0.71081
7419.88320,0.70848
7417.95445,0.70078
7416.02571,0.69253
7414.09696,0.68654
7412.16822,0.68394
7410.23947,0.68725
7408.31073,0.69533
7406.38198,0.70222
7404.45323,0.70236
7402.52449,0.69597
7400.59574,0.68823
7398.66700,0.68317
7396.73825,0.68065
7394.80951,0.67892
7392.88076,0.67879
7390.95202,0.68113
7389.02327,0.68261
7387.09453,0.67910
7385.16578,0.67253
7383.23704,0.66954
7381.30829,0.67143
7379.37955,0.67368
7377.45080,0.67439
7375.52205,0.67513
7373.59331,0.67631
7371.66456,0.67497
7369.73582,0.66995
7367.80707,0.66544
7365.87833,0.66262
7363.94958,0.65809
7362.02084,0.65456
7360.09209,0.65764
7358.16335,0.66371
7356.23460,0.66660
7354.30586,0.66771
7352.37711,0.66728
7350.44837,0.66240
7348.51962,0.65683
7346.59088,0.65635
7344.66213,0.66029
7342.73338,0.66492
7340.80464,0.66697
7338.87589,0.66675
7336.94715,0.66524
7335.01840,0.66104
7333.08966,0.65764
7331.16091,0.65951
7329.23217,0.66282
7327.30342,0.66084
7325.37468,0.65343
7323.44593,0.64797
7321.51719,0.64769
7319.58844,0.64898
7317.65970,0.65196
7315.73095,0.65722
7313.80221,0.66024
7311.87346,0.65928
7309.94471,0.65828
7308.01597,0.65703
7306.08722,0.65121
7304.15848,0.64417
7302.22973,0.64154
7300.30099,0.64093
7298.37224,0.64055
7296.44350,0.64177
7294.51475,0.64243
7292.58601,0.64108
7290.65726,0.63897
7288.72852,0.63636
7286.79977,0.63475
7284.87103,0.63521
7282.94228,0.63616
7281.01353,0.63585
7279.08479,0.63379
7277.15604,0.63042
7275.22730,0.62589
7273.29855,0.62130
7271.36981,0.61918
7269.44106,0.61999
7267.51232,0.62164
7265.58357,0.62223
7263.65483,0.62293
7261.72608,0.62578
7259.79734,0.62802
7257.86859,0.62698
7255.93985,0.62675
7254.01110,0.62755
7252.08236,0.62325
7250.15361,0.61612
7248.22486,0.61335
7246.29612,0.61512
7244.36737,0.61846
7242.43863,0.62043
7240.50988,0.61841
7238.58114,0.61505
7236.65239,0.61503
7234.72365,0.61649
7232.79490,0.61568
7230.86616,0.61469
7228.93741,0.61634
7227.00867,0.61891
7225.07992,0.61856
7223.15118,0.61571
7221.22243,0.61556
7219.29369,0.61866
7217.36494,0.62050
7215.43619,0.61966
7213.50745,0.61715
7211.57870,0.61430
7209.64996,0.61361
7207.72121,0.61509
7205.79247,0.61514
7203.86372,0.61280
7201.93498,0.61194
7200.00623,0.61278
7198.07749,0.61117
7196.14874,0.60849
7194.22000,0.60925
7192.29125,0.61237
7190.36251,0.61340
7188.43376,0.61075
7186.50501,0.60724
7184.57627,0.60525
7182.64752,0.60428
7180.71878,0.60472
7178.79003,0.60647
7176.86129,0.60802
7174.93254,0.61054
7173.00380,0.61298
7171.07505,0.61159
7169.14631,0.60913
7167.21756,0.60996
7165.28882,0.61234
7163.36007,0.61352
7161.43133,0.61331
7159.50258,0.61103
7157.57384,0.60709
7155.64509,0.60573
7153.71634,0.60856
7151.78760,0.61318
7149.85885,0.61766
7147.93011,0.61946
7146.00136,0.61725
7144.07262,0.61345
7142.14387,0.61203
7140.21513,0.61347
7138.28638,0.61569
7136.35764,0.61900
7134.42889,0.62169
7132.50015,0.62179
7130.57140,0.62102
7128.64266,0.61986
7126.71391,0.61920
7124.78516,0.62009
7122.85642,0.62023
7120.92767,0.61940
7118.99893,0.61994
7117.07018,0.62094
7115.14144,0.62087
7113.21269,0.62145
7111.28395,0.62273
7109.35520,0.62263
7107.42646,0.62156
7105.49771,0.62049
7103.56897,0.61945
7101.64022,0.61936
7099.71148,0.62209
7097.78273,0.62564
7095.85399,0.62311
7093.92524,0.61458
7091.99649,0.60945
7090.06775,0.61157
7088.13900,0.61582
7086.21026,0.61832
7084.28151,0.61906
7082.35277,0.61697
7080.42402,0.61303
7078.49528,0.61227
7076.56653,0.61642
7074.63779,0.62248
7072.70904,0.62707
7070.78030,0.62797
7068.85155,0.62505
7066.92281,0.62061
7064.99406,0.61787
7063.06532,0.61816
7061.13657,0.61968
7059.20782,0.62127
7057.27908,0.62186
7055.35033,0.62032
7053.42159,0.61947
7051.49284,0.62096
7049.56410,0.62250
7047.63535,0.62364
7045.70661,0.62596
7043.77786,0.62832
7041.84912,0.62745
7039.92037,0.62456
7037.99163,0.62246
7036.06288,0.62042
7034.13414,0.61890
7032.20539,0.61947
7030.27664,0.62155
7028.34790,0.62369
7026.41915,0.62495
7024.49041,0.62562
7022.56166,0.62565
7020.63292,0.62433
7018.70417,0.62291
7016.77543,0.62191
7014.84668,0.61985
7012.91794,0.61831
7010.98919,0.61852
7009.06045,0.61806
7007.13170,0.61670
7005.20296,0.61558
7003.27421,0.61482
7001.34547,0.61576
6999.41672,0.61836
6997.48797,0.61916
6995.55923,0.61713
6993.63048,0.61616
6991.70174,0.61697
6989.77299,0.61622
6987.84425,0.61414
6985.91550,0.61329
6983.98676,0.61409
6982.05801,0.61457
6980.12927,0.61367
6978.20052,0.61398
6976.27178,0.61679
6974.34303,0.61927
6972.41429,0.61933
6970.48554,0.61806
6968.55680,0.61783
6966.62805,0.61832
6964.69930,0.61802
6962.77056,0.61689
6960.84181,0.61457
6958.91307,0.61245
6956.98432,0.61326
6955.05558,0.61659
6953.12683,0.62010
6951.19809,0.62224
6949.26934,0.62318
6947.34060,0.62318
6945.41185,0.62200
6943.48311,0.62121
6941.55436,0.62160
6939.62562,0.62183
6937.69687,0.62352
6935.76812,0.62797
6933.83938,0.63066
6931.91063,0.62954
6929.98189,0.62806
6928.05314,0.62825
6926.12440,0.63032
6924.19565,0.63238
6922.26691,0.63126
6920.33816,0.62788
6918.40942,0.62470
6916.48067,0.62277
6914.55193,0.62264
6912.62318,0.62260
6910.69444,0.62206
6908.76569,0.62354
6906.83695,0.62707
6904.90820,0.62984
6902.97945,0.63032
6901.05071,0.62971
6899.12196,0.62907
6897.19322,0.62772
6895.26447,0.62668
6893.33573,0.62767
6891.40698,0.62939
6889.47824,0.62962
6887.54949,0.62977
6885.62075,0.63235
6883.69200,0.63483
6881.76326,0.63414
6879.83451,0.63265
6877.90577,0.63279
6875.97702,0.63404
6874.04828,0.63530
6872.11953,0.63656
6870.19078,0.63886
6868.26204,0.64063
6866.33329,0.63914
6864.40455,0.63607
6862.47580,0.63349
6860.54706,0.63063
6858.61831,0.62856
6856.68957,0.62928
6854.76082,0.63134
6852.83208,0.63229
6850.90333,0.63350
6848.97459,0.63581
6847.04584,0.63548
6845.11710,0.63296
6843.18835,0.63411
6841.25960,0.63875
6839.33086,0.64045
6837.40211,0.63803
6835.47337,0.63688
6833.54462,0.63894
6831.61588,0.64123
6829.68713,0.64066
6827.75839,0.63763
6825.82964,0.63633
6823.90090,0.63660
6821.97215,0.63558
6820.04341,0.63494
6818.11466,0.63515
6816.18592,0.63596
6814.25717,0.63825
6812.32843,0.63839
6810.39968,0.63487
6808.47093,0.63235
6806.54219,0.63137
6804.61344,0.62938
6802.68470,0.62696
6800.75595,0.62493
6798.82721,0.62501
6796.89846,0.62728
6794.96972,0.62775
6793.04097,0.62596
6791.11223,0.62450
6789.18348,0.62337
6787.25474,0.62171
6785.32599,0.62059
6783.39725,0.62177
6781.46850,0.62360
6779.53975,0.62242
6777.61101,0.61830
6775.68226,0.61476
6773.75352,0.61418
6771.82477,0.61629
6769.89603,0.62000
6767.96728,0.62322
6766.03854,0.62322
6764.10979,0.61998
6762.18105,0.61603
6760.25230,0.61385
6758.32356,0.61378
6756.39481,0.61397
6754.46607,0.61306
6752.53732,0.61109
6750.60858,0.60846
6748.67983,0.60610
6746.75108,0.60501
6744.82234,0.60495
6742.89359,0.60482
6740.96485,0.60466
6739.03610,0.60523
6737.10736,0.60636
6735.17861,0.60754
6733.24987,0.60814
6731.32112,0.60728
6729.39238,0.60558
6727.46363,0.60368
6725.53489,0.60156
6723.60614,0.60107
6721.67740,0.60267
6719.74865,0.60372
6717.81991,0.60331
6715.89116,0.60320
6713.96241,0.60468
6712.03367,0.60539
6710.10492,0.60258
6708.17618,0.59906
6706.24743,0.59818
6704.31869,0.59763
6702.38994,0.59496
6700.46120,0.59223
6698.53245,0.59177
6696.60371,0.59292
6694.67496,0.59315
6692.74622,0.59143
6690.81747,0.59066
6688.88873,0.59241
6686.95998,0.59348
6685.03123,0.59278
6683.10249,0.59309
6681.17374,0.59489
6679.24500,0.59601
6677.31625,0.59495
6675.38751,0.59252
6673.45876,0.59123
6671.53002,0.59179
6669.60127,0.59271
6667.67253,0.59260
6665.74378,0.59127
6663.81504,0.58930
6661.88629,0.58771
6659.95755,0.58838
6658.02880,0.59115
6656.10006,0.59366
6654.17131,0.59449
6652.24256,0.59473
6650.31382,0.59745
6648.38507,0.60080
6646.45633,0.60001
6644.52758,0.59687
6642.59884,0.59476
6640.67009,0.59393
6638.74135,0.59426
6636.81260,0.59507
6634.88386,0.59429
6632.95511,0.59050
6631.02637,0.58625
6629.09762,0.58612
6627.16888,0.59081
6625.24013,0.59577
6623.31139,0.59743
6621.38264,0.59785
6619.45389,0.59909
6617.52515,0.59950
6615.59640,0.59768
6613.66766,0.59437
6611.73891,0.59177
6609.81017,0.59144
6607.88142,0.59223
6605.95268,0.59266
6604.02393,0.59397
6602.09519,0.59661
6600.16644,0.59736
6598.23770,0.59545
6596.30895,0.59505
6594.38021,0.59753
6592.45146,0.60024
6590.52271,0.60192
6588.59397,0.60249
6586.66522,0.60205
6584.73648,0.60208
6582.80773,0.60278
6580.87899,0.60194
6578.95024,0.59916
6577.02150,0.59681
6575.09275,0.59659
6573.16401,0.59834
6571.23526,0.60044
6569.30652,0.60158
6567.37777,0.60311
6565.44903,0.60557
6563.52028,0.60670
6561.59154,0.60627
6559.66279,0.60692
6557.73404,0.60932
6555.80530,0.61065
6553.87655,0.60956
6551.94781,0.60872
6550.01906,0.60966
6548.09032,0.61205
6546.16157,0.61488
6544.23283,0.61516
6542.30408,0.61292
6540.37534,0.61134
6538.44659,0.61061
6536.51785,0.61120
6534.58910,0.61486
6532.66036,0.61869
6530.73161,0.61941
6528.80287,0.61907
6526.87412,0.62082
6524.94537,0.62470
6523.01663,0.62809
6521.08788,0.62871
6519.15914,0.62809
6517.23039,0.62919
6515.30165,0.63050
6513.37290,0.62949
6511.44416,0.62871
6509.51541,0.63015
6507.58667,0.63171
6505.65792,0.63194
6503.72918,0.63159
6501.80043,0.63261
6499.87169,0.63520
6497.94294,0.63644
6496.01419,0.63473
6494.08545,0.63244
6492.15670,0.63195
6490.22796,0.63240
6488.29921,0.63226
6486.37047,0.63256
6484.44172,0.63427
6482.51298,0.63544
6480.58423,0.63523
6478.65549,0.63457
6476.72674,0.63304
6474.79800,0.63293
6472.86925,0.63733
6470.94051,0.64140
6469.01176,0.63982
6467.08302,0.63634
6465.15427,0.63529
6463.22552,0.63668
6461.29678,0.63972
6459.36803,0.64179
6457.43929,0.64123
6455.51054,0.64047
6453.58180,0.64091
6451.65305,0.64109
6449.72431,0.64097
6447.79556,0.64183
6445.86682,0.64321
6443.93807,0.64393
6442.00933,0.64417
6440.08058,0.64472
6438.15184,0.64512
6436.22309,0.64424
6434.29434,0.64238
6432.36560,0.64172
6430.43685,0.64361
6428.50811,0.64560
6426.57936,0.64485
6424.65062,0.64262
6422.72187,0.64139
6420.79313,0.64208
6418.86438,0.64426
6416.93564,0.64619
6415.00689,0.64617
6413.07815,0.64538
6411.14940,0.64637
6409.22066,0.64771
6407.29191,0.64643
6405.36317,0.64445
6403.43442,0.64436
6401.50567,0.64523
6399.57693,0.64668
6397.64818,0.64853
6395.71944,0.64930
6393.79069,0.64892
6391.86195,0.64871
6389.93320,0.64928
6388.00446,0.64968
6386.07571,0.64910
6384.14697,0.64801
6382.21822,0.64739
6380.28948,0.64800
6378.36073,0.64847
6376.43199,0.64702
6374.50324,0.64492
6372.57450,0.64436
6370.64575,0.64536
6368.71700,0.64721
6366.78826,0.64967
6364.85951,0.65123
6362.93077,0.65082
6361.00202,0.65043
6359.07328,0.65217
6357.14453,0.65435
6355.21579,0.65380
6353.28704,0.65065
6351.35830,0.64818
6349.42955,0.64870
6347.50081,0.65027
6345.57206,0.64994
6343.64332,0.64758
6341.71457,0.64451
6339.78582,0.64311
6337.85708,0.64480
6335.92833,0.64771
6333.99959,0.64911
6332.07084,0.64898
6330.14210,0.64863
6328.21335,0.64826
6326.28461,0.64936
6324.35586,0.65227
6322.42712,0.65352
6320.49837,0.65175
6318.56963,0.64958
6316.64088,0.64956
6314.71214,0.65159
6312.78339,0.65285
6310.85465,0.65201
6308.92590,0.65122
6306.99715,0.65123
6305.06841,0.65064
6303.13966,0.64984
6301.21092,0.64972
6299.28217,0.64981
6297.35343,0.64944
6295.42468,0.64867
6293.49594,0.64861
6291.56719,0.64966
6289.63845,0.65033
6287.70970,0.65006
6285.78096,0.65016
6283.85221,0.65030
6281.92347,0.64979
6279.99472,0.64970
6278.06598,0.65028
6276.13723,0.65133
6274.20848,0.65184
6272.27974,0.65022
6270.35099,0.64783
6268.42225,0.64722
6266.49350,0.64854
6264.56476,0.65010
6262.63601,0.65050
6260.70727,0.65081
6258.77852,0.65196
6256.84978,0.65178
6254.92103,0.64965
6252.99229,0.64856
6251.06354,0.65039
6249.13480,0.65299
6247.20605,0.65343
6245.27730,0.65239
6243.34856,0.65168
6241.41981,0.65103
6239.49107,0.65020
6237.56232,0.65068
6235.63358,0.65216
6233.70483,0.65163
6231.77609,0.64955
6229.84734,0.64859
6227.91860,0.64846
6225.98985,0.64827
6224.06111,0.64810
6222.13236,0.64832
6220.20362,0.64944
6218.27487,0.65061
6216.34613,0.65005
6214.41738,0.64890
6212.48863,0.64927
6210.55989,0.64976
6208.63114,0.64884
6206.70240,0.64776
6204.77365,0.64770
6202.84491,0.64765
6200.91616,0.64629
6198.98742,0.64464
6197.05867,0.64390
6195.12993,0.64364
6193.20118,0.64326
6191.27244,0.64279
6189.34369,0.64224
6187.41495,0.64139
6185.48620,0.64065
6183.55746,0.64126
6181.62871,0.64263
6179.69996,0.64259
6177.77122,0.64180
6175.84247,0.64163
6173.91373,0.64091
6171.98498,0.63947
6170.05624,0.63793
6168.12749,0.63598
6166.19875,0.63470
6164.27000,0.63561
6162.34126,0.63705
6160.41251,0.63634
6158.48377,0.63444
6156.55502,0.63413
6154.62628,0.63472
6152.69753,0.63362
6150.76878,0.63127
6148.84004,0.62994
6146.91129,0.62964
6144.98255,0.62866
6143.05380,0.62620
6141.12506,0.62349
6139.19631,0.62214
6137.26757,0.62228
6135.33882,0.62315
6133.41008,0.62355
6131.48133,0.62232
6129.55259,0.61985
6127.62384,0.61758
6125.69510,0.61608
6123.76635,0.61446
6121.83761,0.61155
6119.90886,0.60854
6117.98011,0.60786
6116.05137,0.60814
6114.12262,0.60677
6112.19388,0.60475
6110.26513,0.60322
6108.33639,0.60116
6106.40764,0.59869
6104.47890,0.59734
6102.55015,0.59668
6100.62141,0.59484
6098.69266,0.59237
6096.76392,0.59076
6094.83517,0.58928
6092.90643,0.58732
6090.97768,0.58620
6089.04893,0.58590
6087.12019,0.58482
6085.19144,0.58351
6083.26270,0.58269
6081.33395,0.58114
6079.40521,0.57936
6077.47646,0.57922
6075.54772,0.58018
6073.61897,0.58005
6071.69023,0.57886
6069.76148,0.57835
6067.83274,0.57868
6065.90399,0.57849
6063.97525,0.57741
6062.04650,0.57715
6060.11776,0.57829
6058.18901,0.57878
6056.26026,0.57773
6054.33152,0.57561
6052.40277,0.57346
6050.47403,0.57282
6048.54528,0.57357
6046.61654,0.57403
6044.68779,0.57357
6042.75905,0.57312
6040.83030,0.57271
6038.90156,0.57204
6036.97281,0.57186
6035.04407,0.57163
6033.11532,0.56975
6031.18658,0.56692
6029.25783,0.56489
6027.32909,0.56345
6025.40034,0.56187
6023.47159,0.55965
6021.54285,0.55612
6019.61410,0.55242
6017.68536,0.54992
6015.75661,0.54805
6013.82787,0.54648
6011.89912,0.54527
6009.97038,0.54389
6008.04163,0.54220
6006.11289,0.54028
6004.18414,0.53759
6002.25540,0.53383
6000.32665,0.53016
5998.39791,0.52728
5996.46916,0.52442
5994.54041,0.52162
5992.61167,0.51909
5990.68292,0.51579
5988.75418,0.51159
5986.82543,0.50765
5984.89669,0.50427
5982.96794,0.50111
5981.03920,0.49836
5979.11045,0.49505
5977.18171,0.48990
5975.25296,0.48402
5973.32422,0.47884
5971.39547,0.47414
5969.46673,0.46949
5967.53798,0.46442
5965.60924,0.45860
5963.68049,0.45277
5961.75174,0.44754
5959.82300,0.44278
5957.89425,0.43828
5955.96551,0.43370
5954.03676,0.42895
5952.10802,0.42415
5950.17927,0.41968
5948.25053,0.41634
5946.32178,0.41425
5944.39304,0.41288
5942.46429,0.41156
5940.53555,0.41039
5938.60680,0.40978
5936.67806,0.40928
5934.74931,0.40950
5932.82057,0.41144
5930.89182,0.41408
5928.96307,0.41564
5927.03433,0.41573
5925.10558,0.41536
5923.17684,0.41532
5921.24809,0.41539
5919.31935,0.41444
5917.39060,0.41196
5915.46186,0.40951
5913.53311,0.40763
5911.60437,0.40452
5909.67562,0.40088
5907.74688,0.39900
5905.81813,0.39756
5903.88939,0.39493
5901.96064,0.39263
5900.03189,0.39226
5898.10315,0.39353
5896.17440,0.39534
5894.24566,0.39747
5892.31691,0.40020
5890.38817,0.40308
5888.45942,0.40557
5886.53068,0.40823
5884.60193,0.41194
5882.67319,0.41600
5880.74444,0.41883
5878.81570,0.42038
5876.88695,0.42209
5874.95821,0.42397
5873.02946,0.42465
5871.10072,0.42481
5869.17197,0.42537
5867.24322,0.42524
5865.31448,0.42406
5863.38573,0.42316
5861.45699,0.42285
5859.52824,0.42271
5857.59950,0.42290
5855.67075,0.42284
5853.74201,0.42195
5851.81326,0.42081
5849.88452,0.42028
5847.95577,0.42064
5846.02703,0.42046
5844.09828,0.41833
5842.16954,0.41546
5840.24079,0.41316
5838.31205,0.41131
5836.38330,0.41007
5834.45455,0.40919
5832.52581,0.40802
5830.59706,0.40650
5828.66832,0.40445
5826.73957,0.40215
5824.81083,0.40069
5822.88208,0.40004
5820.95334,0.39896
5819.02459,0.39737
5817.09585,0.39581
5815.16710,0.39416
5813.23836,0.39270
5811.30961,0.39169
5809.38087,0.39022
5807.45212,0.38836
5805.52337,0.38766
5803.59463,0.38774
5801.66588,0.38669
5799.73714,0.38467
5797.80839,0.38280
5795.87965,0.38128
5793.95090,0.38003
5792.02216,0.37934
5790.09341,0.37916
5788.16467,0.37831
5786.23592,0.37595
5784.30718,0.37331
5782.37843,0.37255
5780.44969,0.37373
5778.52094,0.37446
5776.59220,0.37366
5774.66345,0.37316
5772.73470,0.37426
5770.80596,0.37531
5768.87721,0.37499
5766.94847,0.37509
5765.01972,0.37681
5763.09098,0.37854
5761.16223,0.37983
5759.23349,0.38175
5757.30474,0.38353
5755.37600,0.38424
5753.44725,0.38491
5751.51851,0.38645
5749.58976,0.38869
5747.66102,0.39103
5745.73227,0.39265
5743.80352,0.39373
5741.87478,0.39543
5739.94603,0.39812
5738.01729,0.40100
5736.08854,0.40346
5734.15980,0.40541
5732.23105,0.40725
5730.30231,0.40969
5728.37356,0.41222
5726.44482,0.41371
5724.51607,0.41449
5722.58733,0.41568
5720.65858,0.41780
5718.72984,0.42055
5716.80109,0.42345
5714.87235,0.42610
5712.94360,0.42800
5711.01485,0.42909
5709.08611,0.43002
5707.15736,0.43118
5705.22862,0.43208
5703.29987,0.43211
5701.37113,0.43201
5699.44238,0.43235
5697.51364,0.43286
5695.58489,0.43376
5693.65615,0.43456
5691.72740,0.43442
5689.79866,0.43421
5687.86991,0.43494
5685.94117,0.43543
5684.01242,0.43469
5682.08368,0.43344
5680.15493,0.43220
5678.22618,0.43143
5676.29744,0.43168
5674.36869,0.43218
5672.43995,0.43184
5670.51120,0.43137
5668.58246,0.43255
5666.65371,0.43476
5664.72497,0.43549
5662.79622,0.43451
5660.86748,0.43386
5658.93873,0.43441
5657.00999,0.43533
5655.08124,0.43632
5653.15250,0.43742
5651.22375,0.43823
5649.29500,0.43945
5647.36626,0.44146
5645.43751,0.44301
5643.50877,0.44374
5641.58002,0.44444
5639.65128,0.44569
5637.72253,0.44786
5635.79379,0.45059
5633.86504,0.45269
5631.93630,0.45370
5630.00755,0.45449
5628.07881,0.45581
5626.15006,0.45716
5624.22132,0.45775
5622.29257,0.45812
5620.36383,0.45962
5618.43508,0.46214
5616.50633,0.46407
5614.57759,0.46481
5612.64884,0.46516
5610.72010,0.46546
5608.79135,0.46573
5606.86261,0.46677
5604.93386,0.46842
5603.00512,0.46930
5601.07637,0.46934
5599.14763,0.46947
5597.21888,0.46957
5595.29014,0.46904
5593.36139,0.46830
5591.43265,0.46794
5589.50390,0.46766
5587.57516,0.46782
5585.64641,0.46894
5583.71766,0.46995
5581.78892,0.46985
5579.86017,0.46889
5577.93143,0.46802
5576.00268,0.46800
5574.07394,0.46859
5572.14519,0.46890
5570.21645,0.46904
5568.28770,0.46955
5566.35896,0.46991
5564.43021,0.46968
5562.50147,0.46944
5560.57272,0.46966
5558.64398,0.47006
5556.71523,0.46988
5554.78648,0.46923
5552.85774,0.46901
5550.92899,0.46906
5549.00025,0.46908
5547.07150,0.46936
5545.14276,0.46934
5543.21401,0.46901
5541.28527,0.46950
5539.35652,0.47030
5537.42778,0.47026
5535.49903,0.46996
5533.57029,0.47009
5531.64154,0.47047
5529.71280,0.47079
5527.78405,0.47107
5525.85531,0.47147
5523.92656,0.47164
5521.99781,0.47162
5520.06907,0.47221
5518.14032,0.47305
5516.21158,0.47291
5514.28283,0.47198
5512.35409,0.47184
5510.42534,0.47297
5508.49660,0.47420
5506.56785,0.47457
5504.63911,0.47498
5502.71036,0.47633
5500.78162,0.47759
5498.85287,0.47831
5496.92413,0.47918
5494.99538,0.48025
5493.06664,0.48162
5491.13789,0.48292
5489.20914,0.48308
5487.28040,0.48239
5485.35165,0.48209
5483.42291,0.48240
5481.49416,0.48284
5479.56542,0.48308
5477.63667,0.48329
5475.70793,0.48358
5473.77918,0.48337
5471.85044,0.48281
5469.92169,0.48295
5467.99295,0.48395
5466.06420,0.48505
5464.13546,0.48566
5462.20671,0.48590
5460.27796,0.48589
5458.34922,0.48548
5456.42047,0.48524
5454.49173,0.48573
5452.56298,0.48666
5450.63424,0.48776
5448.70549,0.48857
5446.77675,0.48825
5444.84800,0.48743
5442.91926,0.48765
5440.99051,0.48896
5439.06177,0.49066
5437.13302,0.49237
5435.20428,0.49342
5433.27553,0.49346
5431.34679,0.49368
5429.41804,0.49461
5427.48929,0.49560
5425.56055,0.49702
5423.63180,0.49900
5421.70306,0.50093
5419.77431,0.50264
5417.84557,0.50432
5415.91682,0.50644
5413.98808,0.50848
5412.05933,0.50945
5410.13059,0.51024
5408.20184,0.51172
5406.27310,0.51353
5404.34435,0.51569
5402.41561,0.51765
5400.48686,0.51851
5398.55811,0.51910
5396.62937,0.52045
5394.70062,0.52207
5392.77188,0.52311
5390.84313,0.52352
5388.91439,0.52390
5386.98564,0.52430
5385.05690,0.52447
5383.12815,0.52489
5381.19941,0.52595
5379.27066,0.52731
5377.34192,0.52851
5375.41317,0.52916
5373.48443,0.52955
5371.55568,0.53035
5369.62694,0.53157
5367.69819,0.53244
5365.76944,0.53226
5363.84070,0.53148
5361.91195,0.53100
5359.98321,0.53133
5358.05446,0.53217
5356.12572,0.53288
5354.19697,0.53372
5352.26823,0.53459
5350.33948,0.53456
5348.41074,0.53367
5346.48199,0.53284
5344.55325,0.53286
5342.62450,0.53366
5340.69576,0.53464
5338.76701,0.53503
5336.83827,0.53482
5334.90952,0.53515
5332.98077,0.53628
5331.05203,0.53754
5329.12328,0.53819
5327.19454,0.53791
5325.26579,0.53759
5323.33705,0.53805
5321.40830,0.53894
5319.47956,0.53968
5317.55081,0.54027
5315.62207,0.54080
5313.69332,0.54101
5311.76458,0.54091
5309.83583,0.54085
5307.90709,0.54112
5305.97834,0.54159
5304.04959,0.54165
5302.12085,0.54085
5300.19210,0.53984
5298.26336,0.53953
5296.33461,0.53928
5294.40587,0.53828
5292.47712,0.53689
5290.54838,0.53560
5288.61963,0.53456
5286.69089,0.53409
5284.76214,0.53421
5282.83340,0.53408
5280.90465,0.53312
5278.97591,0.53198
5277.04716,0.53132
5275.11842,0.53064
5273.18967,0.52965
5271.26092,0.52903
5269.33218,0.52865
5267.40343,0.52775
5265.47469,0.52635
5263.54594,0.52497
5261.61720,0.52397
5259.68845,0.52353
5257.75971,0.52357
5255.83096,0.52359
5253.90222,0.52302
5251.97347,0.52222
5250.04473,0.52180
5248.11598,0.52149
5246.18724,0.52080
5244.25849,0.51953
5242.32975,0.51817
5240.40100,0.51750
5238.47225,0.51729
5236.54351,0.51682
5234.61476,0.51569
5232.68602,0.51428
5230.75727,0.51353
5228.82853,0.51351
5226.89978,0.51366
5224.97104,0.51378
5223.04229,0.51366
5221.11355,0.51313
5219.18480,0.51241
5217.25606,0.51159
5215.32731,0.51075
5213.39857,0.51030
5211.46982,0.51038
5209.54107,0.51068
5207.61233,0.51111
5205.68358,0.51149
5203.75484,0.51134
5201.82609,0.51080
5199.89735,0.51040
5197.96860,0.51029
5196.03986,0.51052
5194.11111,0.51072
5192.18237,0.51047
5190.25362,0.51060
5188.32488,0.51141
5186.39613,0.51193
5184.46739,0.51173
5182.53864,0.51121
5180.60990,0.51118
5178.68115,0.51185
5176.75240,0.51238
5174.82366,0.51276
5172.89491,0.51323
5170.96617,0.51305
5169.03742,0.51243
5167.10868,0.51220
5165.17993,0.51198
5163.25119,0.51158
5161.32244,0.51175
5159.39370,0.51222
5157.46495,0.51251
5155.53621,0.51276
5153.60746,0.51258
5151.67872,0.51236
5149.74997,0.51282
5147.82123,0.51309
5145.89248,0.51251
5143.96373,0.51184
5142.03499,0.51172
5140.10624,0.51202
5138.17750,0.51246
5136.24875,0.51292
5134.32001,0.51324
5132.39126,0.51331
5130.46252,0.51315
5128.53377,0.51293
5126.60503,0.51281
5124.67628,0.51292
5122.74754,0.51305
5120.81879,0.51269
5118.89005,0.51237
5116.96130,0.51283
5115.03255,0.51386
5113.10381,0.51462
5111.17506,0.51406
5109.24632,0.51241
5107.31757,0.51101
5105.38883,0.51022
5103.46008,0.50996
5101.53134,0.51054
5099.60259,0.51119
5097.67385,0.51113
5095.74510,0.51100
5093.81636,0.51090
5091.88761,0.51016
5089.95887,0.50929
5088.03012,0.50870
5086.10138,0.50806
5084.17263,0.50752
5082.24388,0.50705
5080.31514,0.50655
5078.38639,0.50614
5076.45765,0.50536
5074.52890,0.50429
5072.60016,0.50336
5070.67141,0.50226
5068.74267,0.50106
5066.81392,0.50021
5064.88518,0.49985
5062.95643,0.49950
5061.02769,0.49856
5059.09894,0.49726
5057.17020,0.49623
5055.24145,0.49562
5053.31270,0.49526
5051.38396,0.49479
5049.45521,0.49403
5047.52647,0.49293
5045.59772,0.49155
5043.66898,0.49057
5041.74023,0.49032
5039.81149,0.49004
5037.88274,0.48921
5035.95400,0.48801
5034.02525,0.48679
5032.09651,0.48598
5030.16776,0.48554
5028.23902,0.48499
5026.31027,0.48398
5024.38153,0.48233
5022.45278,0.48031
5020.52403,0.47857
5018.59529,0.47752
5016.66654,0.47695
5014.73780,0.47620
5012.80905,0.47498
5010.88031,0.47380
5008.95156,0.47281
5007.02282,0.47133
5005.09407,0.46916
5003.16533,0.46670
5001.23658,0.46439
4999.30784,0.46225
4997.37909,0.46005
4995.45035,0.45745
4993.52160,0.45439
4991.59286,0.45144
4989.66411,0.44889
4987.73536,0.44671
4985.80662,0.44490
4983.87787,0.44282
4981.94913,0.43998
4980.02038,0.43680
4978.09164,0.43397
4976.16289,0.43164
4974.23415,0.42938
4972.30540,0.42692
4970.37666,0.42451
4968.44791,0.42230
4966.51917,0.42015
4964.59042,0.41806
4962.66168,0.41588
4960.73293,0.41351
4958.80418,0.41112
4956.87544,0.40894
4954.94669,0.40708
4953.01795,0.40472
4951.08920,0.40166
4949.16046,0.39917
4947.23171,0.39741
4945.30297,0.39549
4943.37422,0.39338
4941.44548,0.39167
4939.51673,0.39030
4937.58799,0.38854
4935.65924,0.38622
4933.73050,0.38393
4931.80175,0.38222
4929.87301,0.38092
4927.94426,0.37957
4926.01551,0.37798
4924.08677,0.37653
4922.15802,0.37544
4920.22928,0.37411
4918.30053,0.37247
4916.37179,0.37107
4914.44304,0.36974
4912.51430,0.36846
4910.58555,0.36754
4908.65681,0.36650
4906.72806,0.36493
4904.79932,0.36333
4902.87057,0.36225
4900.94183,0.36169
4899.01308,0.36119
4897.08434,0.36064
4895.15559,0.36018
4893.22684,0.35952
4891.29810,0.35844
4889.36935,0.35738
4887.44061,0.35705
4885.51186,0.35757
4883.58312,0.35806
4881.65437,0.35783
4879.72563,0.35730
4877.79688,0.35693
4875.86814,0.35679
4873.93939,0.35674
4872.01065,0.35636
4870.08190,0.35592
4868.15316,0.35613
4866.22441,0.35666
4864.29566,0.35671
4862.36692,0.35631
4860.43817,0.35622
4858.50943,0.35673
4856.58068,0.35746
4854.65194,0.35817
4852.72319,0.35884
4850.79445,0.35938
4848.86570,0.35977
4846.93696,0.36017
4845.00821,0.36085
4843.07947,0.36174
4841.15072,0.36267
4839.22198,0.36374
4837.29323,0.36486
4835.36449,0.36565
4833.43574,0.36626
4831.50699,0.36712
4829.57825,0.36824
4827.64950,0.36959
4825.72076,0.37127
4823.79201,0.37288
4821.86327,0.37408
4819.93452,0.37553
4818.00578,0.37757
4816.07703,0.37976
4814.14829,0.38169
4812.21954,0.38306
4810.29080,0.38406
4808.36205,0.38538
4806.43331,0.38715
4804.50456,0.38882
4802.57582,0.39056
4800.64707,0.39248
4798.71832,0.39384
4796.78958,0.39478
4794.86083,0.39612
4792.93209,0.39771
4791.00334,0.39894
4789.07460,0.39993
4787.14585,0.40122
4785.21711,0.40261
4783.28836,0.40377
4781.35962,0.40496
4779.43087,0.40612
4777.50213,0.40700
4775.57338,0.40793
4773.64464,0.40903
4771.71589,0.40963
4769.78714,0.40967
4767.85840,0.41024
4765.92965,0.41180
4764.00091,0.41342
4762.07216,0.41422
4760.14342,0.41436
4758.21467,0.41437
4756.28593,0.41456
4754.35718,0.41480
4752.42844,0.41469
4750.49969,0.41424
4748.57095,0.41406
4746.64220,0.41444
4744.71346,0.41487
4742.78471,0.41460
4740.85597,0.41350
4738.92722,0.41218
4736.99847,0.41109
4735.06973,0.41008
4733.14098,0.40888
4731.21224,0.40767
4729.28349,0.40678
4727.35475,0.40631
4725.42600,0.40594
4723.49726,0.40510
4721.56851,0.40359
4719.63977,0.40163
4717.71102,0.39958
4715.78228,0.39773
4713.85353,0.39624
4711.92479,0.39518
4709.99604,0.39439
4708.06729,0.39331
4706.13855,0.39183
4704.20980,0.39057
4702.28106,0.38962
4700.35231,0.38841
4698.42357,0.38716
4696.49482,0.38652
4694.56608,0.38618
4692.63733,0.38524
4690.70859,0.38358
4688.77984,0.38201
4686.85110,0.38097
4684.92235,0.38011
4682.99361,0.37916
4681.06486,0.37810
4679.13612,0.37675
4677.20737,0.37502
4675.27862,0.37340
4673.34988,0.37213
4671.42113,0.37080
4669.49239,0.36940
4667.56364,0.36816
4665.63490,0.36713
4663.70615,0.36648
4661.77741,0.36602
4659.84866,0.36523
4657.91992,0.36436
4655.99117,0.36337
4654.06243,0.36175
4652.13368,0.36006
4650.20494,0.35885
4648.27619,0.35759
4646.34745,0.35591
4644.41870,0.35431
4642.48995,0.35309
4640.56121,0.35210
4638.63246,0.35106
4636.70372,0.34943
4634.77497,0.34753
4632.84623,0.34633
4630.91748,0.34567
4628.98874,0.34511
4627.05999,0.34479
4625.13125,0.34482
4623.20250,0.34523
4621.27376,0.34590
4619.34501,0.34652
4617.41627,0.34708
4615.48752,0.34770
4613.55877,0.34846
4611.63003,0.34953
4609.70128,0.35053
4607.77254,0.35090
4605.84379,0.35126
4603.91505,0.35230
4601.98630,0.35335
4600.05756,0.35406
4598.12881,0.35482
4596.20007,0.35539
4594.27132,0.35560
4592.34258,0.35596
4590.41383,0.35646
4588.48509,0.35675
4586.55634,0.35690
4584.62760,0.35683
4582.69885,0.35642
4580.77010,0.35605
4578.84136,0.35598
4576.91261,0.35580
4574.98387,0.35515
4573.05512,0.35456
4571.12638,0.35487
4569.19763,0.35573
4567.26889,0.35628
4565.34014,0.35648
4563.41140,0.35648
4561.48265,0.35648
4559.55391,0.35675
4557.62516,0.35710
4555.69642,0.35734
4553.76767,0.35746
4551.83893,0.35739
4549.91018,0.35727
4547.98143,0.35740
4546.05269,0.35778
4544.12394,0.35803
4542.19520,0.35788
4540.26645,0.35766
4538.33771,0.35751
4536.40896,0.35699
4534.48022,0.35617
4532.55147,0.35563
4530.62273,0.35556
4528.69398,0.35561
4526.76524,0.35563
4524.83649,0.35564
4522.90775,0.35520
4520.97900,0.35426
4519.05025,0.35360
4517.12151,0.35337
4515.19276,0.35294
4513.26402,0.35249
4511.33527,0.35265
4509.40653,0.35305
4507.47778,0.35302
4505.54904,0.35268
4503.62029,0.35233
4501.69155,0.35191
4499.76280,0.35123
4497.83406,0.35050
4495.90531,0.35011
4493.97657,0.34992
4492.04782,0.34928
4490.11908,0.34795
4488.19033,0.34628
4486.26158,0.34455
4484.33284,0.34284
4482.40409,0.34107
4480.47535,0.33899
4478.54660,0.33667
4476.61786,0.33444
4474.68911,0.33237
4472.76037,0.33019
4470.83162,0.32748
4468.90288,0.32414
4466.97413,0.32044
4465.04539,0.31666
4463.11664,0.31280
4461.18790,0.30870
4459.25915,0.30416
4457.33041,0.29923
4455.40166,0.29400
4453.47291,0.28839
4451.54417,0.28249
4449.61542,0.27665
4447.68668,0.27091
4445.75793,0.26481
4443.82919,0.25820
4441.90044,0.25145
4439.97170,0.24494
4438.04295,0.23883
4436.11421,0.23295
4434.18546,0.22689
4432.25672,0.22064
4430.32797,0.21448
4428.39923,0.20877
4426.47048,0.20362
4424.54173,0.19883
4422.61299,0.19426
4420.68424,0.19010
4418.75550,0.18679
4416.82675,0.18439
4414.89801,0.18240
4412.96926,0.18072
4411.04052,0.18003
4409.11177,0.18069
4407.18303,0.18202
4405.25428,0.18325
4403.32554,0.18449
4401.39679,0.18602
4399.46805,0.18765
4397.53930,0.18897
4395.61056,0.18961
4393.68181,0.18952
4391.75306,0.18895
4389.82432,0.18807
4387.89557,0.18686
4385.96683,0.18540
4384.03808,0.18369
4382.10934,0.18165
4380.18059,0.17959
4378.25185,0.17771
4376.32310,0.17558
4374.39436,0.17294
4372.46561,0.17012
4370.53687,0.16740
4368.60812,0.16465
4366.67938,0.16191
4364.75063,0.15943
4362.82189,0.15696
4360.89314,0.15421
4358.96439,0.15126
4357.03565,0.14839
4355.10690,0.14569
4353.17816,0.14303
4351.24941,0.14045
4349.32067,0.13832
4347.39192,0.13679
4345.46318,0.13542
4343.53443,0.13388
4341.60569,0.13243
4339.67694,0.13156
4337.74820,0.13123
4335.81945,0.13102
4333.89071,0.13083
4331.96196,0.13073
4330.03321,0.13089
4328.10447,0.13139
4326.17572,0.13208
4324.24698,0.13312
4322.31823,0.13463
4320.38949,0.13628
4318.46074,0.13785
4316.53200,0.13957
4314.60325,0.14167
4312.67451,0.14394
4310.74576,0.14635
4308.81702,0.14903
4306.88827,0.15212
4304.95953,0.15551
4303.03078,0.15845
4301.10204,0.16076
4299.17329,0.16307
4297.24454,0.16540
4295.31580,0.16728
4293.38705,0.16866
4291.45831,0.16954
4289.52956,0.16985
4287.60082,0.17000
4285.67207,0.17027
4283.74333,0.17029
4281.81458,0.16997
4279.88584,0.16979
4277.95709,0.16974
4276.02835,0.16943
4274.09960,0.16903
4272.17086,0.16907
4270.24211,0.16955
4268.31336,0.17002
4266.38462,0.17057
4264.45587,0.17162
4262.52713,0.17318
4260.59838,0.17468
4258.66964,0.17574
4256.74089,0.17661
4254.81215,0.17747
4252.88340,0.17838
4250.95466,0.17938
4249.02591,0.18014
4247.09717,0.18051
4245.16842,0.18097
4243.23968,0.18153
4241.31093,0.18156
4239.38219,0.18124
4237.45344,0.18141
4235.52469,0.18239
4233.59595,0.18364
4231.66720,0.18445
4229.73846,0.18482
4227.80971,0.18545
4225.88097,0.18646
4223.95222,0.18732
4222.02348,0.18779
4220.09473,0.18834
4218.16599,0.18946
4216.23724,0.19099
4214.30850,0.19251
4212.37975,0.19394
4210.45101,0.19535
4208.52226,0.19671
4206.59352,0.19793
4204.66477,0.19898
4202.73602,0.19978
4200.80728,0.20020
4198.87853,0.20021
4196.94979,0.20023
4195.02104,0.20088
4193.09230,0.20193
4191.16355,0.20249
4189.23481,0.20253
4187.30606,0.20252
4185.37732,0.20246
4183.44857,0.20230
4181.51983,0.20196
4179.59108,0.20138
4177.66234,0.20068
4175.73359,0.19989
4173.80484,0.19900
4171.87610,0.19815
4169.94735,0.19742
4168.01861,0.19690
4166.08986,0.19646
4164.16112,0.19582
4162.23237,0.19516
4160.30363,0.19488
4158.37488,0.19474
4156.44614,0.19422
4154.51739,0.19342
4152.58865,0.19282
4150.65990,0.19249
4148.73116,0.19238
4146.80241,0.19246
4144.87367,0.19264
4142.94492,0.19278
4141.01617,0.19269
4139.08743,0.19230
4137.15868,0.19171
4135.22994,0.19124
4133.30119,0.19115
4131.37245,0.19118
4129.44370,0.19094
4127.51496,0.19047
4125.58621,0.19003
4123.65747,0.18969
4121.72872,0.18930
4119.79998,0.18859
4117.87123,0.18751
4115.94249,0.18643
4114.01374,0.18564
4112.08500,0.18493
4110.15625,0.18405
4108.22750,0.18294
4106.29876,0.18176
4104.37001,0.18061
4102.44127,0.17963
4100.51252,0.17890
4098.58378,0.17807
4096.65503,0.17679
4094.72629,0.17520
4092.79754,0.17366
4090.86880,0.17226
4088.94005,0.17091
4087.01131,0.16953
4085.08256,0.16810
4083.15382,0.16667
4081.22507,0.16527
4079.29632,0.16384
4077.36758,0.16248
4075.43883,0.16109
4073.51009,0.15947
4071.58134,0.15766
4069.65260,0.15596
4067.72385,0.15447
4065.79511,0.15298
4063.86636,0.15146
4061.93762,0.15027
4060.00887,0.14945
4058.08013,0.14877
4056.15138,0.14828
4054.22264,0.14813
4052.29389,0.14817
4050.36515,0.14803
4048.43640,0.14758
4046.50765,0.14711
4044.57891,0.14678
4042.65016,0.14657
4040.72142,0.14652
4038.79267,0.14652
4036.86393,0.14650
4034.93518,0.14641
4033.00644,0.14620
4031.07769,0.14610
4029.14895,0.14611
4027.22020,0.14618
4025.29146,0.14653
4023.36271,0.14712
4021.43397,0.14756
4019.50522,0.14766
4017.57648,0.14759
4015.64773,0.14773
4013.71898,0.14816
4011.79024,0.14866
4009.86149,0.14900
4007.93275,0.14917
4006.00400,0.14943
4004.07526,0.15015
4002.14651,0.15129
4000.21777,0.15229
3998.28902,0.15270
3996.36028,0.15286
3994.43153,0.15347
3992.50279,0.15435
3990.57404,0.15496
3988.64530,0.15547
3986.71655,0.15628
3984.78780,0.15734
3982.85906,0.15839
3980.93031,0.15942
3979.00157,0.16064
3977.07282,0.16212
3975.14408,0.16345
3973.21533,0.16449
3971.28659,0.16561
3969.35784,0.16680
3967.42910,0.16789
3965.50035,0.16907
3963.57161,0.17059
3961.64286,0.17245
3959.71412,0.17410
3957.78537,0.17522
3955.85663,0.17647
3953.92788,0.17835
3951.99913,0.18043
3950.07039,0.18215
3948.14164,0.18368
3946.21290,0.18548
3944.28415,0.18740
3942.35541,0.18913
3940.42666,0.19085
3938.49792,0.19265
3936.56917,0.19448
3934.64043,0.19637
3932.71168,0.19835
3930.78294,0.20037
3928.85419,0.20222
3926.92545,0.20381
3924.99670,0.20538
3923.06795,0.20710
3921.13921,0.20885
3919.21046,0.21058
3917.28172,0.21229
3915.35297,0.21373
3913.42423,0.21478
3911.49548,0.21584
3909.56674,0.21718
3907.63799,0.21861
3905.70925,0.21990
3903.78050,0.22078
3901.85176,0.22141
3899.92301,0.22218
3897.99427,0.22297
3896.06552,0.22383
3894.13678,0.22476
3892.20803,0.22543
3890.27928,0.22587
3888.35054,0.22658
3886.42179,0.22749
3884.49305,0.22817
3882.56430,0.22852
3880.63556,0.22858
3878.70681,0.22862
3876.77807,0.22917
3874.84932,0.23002
3872.92058,0.23063
3870.99183,0.23075
3869.06309,0.23055
3867.13434,0.23064
3865.20560,0.23111
3863.27685,0.23135
3861.34811,0.23123
3859.41936,0.23144
3857.49061,0.23222
3855.56187,0.23310
3853.63312,0.23319
3851.70438,0.23247
3849.77563,0.23225
3847.84689,0.23267
3845.91814,0.23343
3843.98940,0.23441
3842.06065,0.23556
3840.13191,0.23670
3838.20316,0.23744
3836.27442,0.23792
3834.34567,0.23864
3832.41693,0.23950
3830.48818,0.24027
3828.55943,0.24101
3826.63069,0.24165
3824.70194,0.24239
3822.77320,0.24346
3820.84445,0.24424
3818.91571,0.24451
3816.98696,0.24480
3815.05822,0.24476
3813.12947,0.24444
3811.20073,0.24454
3809.27198,0.24515
3807.34324,0.24600
3805.41449,0.24685
3803.48575,0.24766
3801.55700,0.24808
3799.62826,0.24805
3797.69951,0.24810
3795.77076,0.24832
3793.84202,0.24886
3791.91327,0.24970
3789.98453,0.25043
3788.05578,0.25112
3786.12704,0.25194
3784.19829,0.25274
3782.26955,0.25369
3780.34080,0.25501
3778.41206,0.25640
3776.48331,0.25780
3774.55457,0.25937
3772.62582,0.26091
3770.69708,0.26226
3768.76833,0.26367
3766.83959,0.26545
3764.91084,0.26733
3762.98209,0.26928
3761.05335,0.27163
3759.12460,0.27392
3757.19586,0.27571
3755.26711,0.27743
3753.33837,0.27919
3751.40962,0.28060
3749.48088,0.28170
3747.55213,0.28280
3745.62339,0.28386
3743.69464,0.28481
3741.76590,0.28600
3739.83715,0.28750
3737.90841,0.28897
3735.97966,0.29021
3734.05091,0.29121
3732.12217,0.29189
3730.19342,0.29250
3728.26468,0.29333
3726.33593,0.29425
3724.40719,0.29510
3722.47844,0.29597
3720.54970,0.29673
3718.62095,0.29717
3716.69221,0.29764
3714.76346,0.29832
3712.83472,0.29892
3710.90597,0.29891
3708.97723,0.29841
3707.04848,0.29806
3705.11974,0.29804
3703.19099,0.29810
3701.26224,0.29766
3699.33350,0.29672
3697.40475,0.29569
3695.47601,0.29464
3693.54726,0.29382
3691.61852,0.29339
3689.68977,0.29252
3687.76103,0.29038
3685.83228,0.28826
3683.90354,0.28678
3681.97479,0.28527
3680.04605,0.28362
3678.11730,0.28201
3676.18856,0.27972
3674.25981,0.27668
3672.33107,0.27426
3670.40232,0.27206
3668.47357,0.26949
3666.54483,0.26724
3664.61608,0.26521
3662.68734,0.26305
3660.75859,0.26085
3658.82985,0.25856
3656.90110,0.25580
3654.97236,0.25283
3653.04361,0.25058
3651.11487,0.24862
3649.18612,0.24581
3647.25738,0.24244
3645.32863,0.23940
3643.39989,0.23673
3641.47114,0.23421
3639.54239,0.23182
3637.61365,0.22964
3635.68490,0.22777
3633.75616,0.22617
3631.82741,0.22462
3629.89867,0.22234
3627.96992,0.21887
3626.04118,0.21563
3624.11243,0.21333
3622.18369,0.21143
3620.25494,0.20931
3618.32620,0.20694
3616.39745,0.20487
3614.46871,0.20273
3612.53996,0.19995
3610.61122,0.19697
3608.68247,0.19434
3606.75372,0.19214
3604.82498,0.18993
3602.89623,0.18728
3600.96749,0.18441
3599.03874,0.18158
3597.11000,0.17876
3595.18125,0.17609
3593.25251,0.17370
3591.32376,0.17168
3589.39502,0.16991
3587.46627,0.16817
3585.53753,0.16653
3583.60878,0.16482
3581.68004,0.16296
3579.75129,0.16133
3577.82254,0.16005
3575.89380,0.15889
3573.96505,0.15754
3572.03631,0.15593
3570.10756,0.15435
3568.17882,0.15283
3566.25007,0.15109
3564.32133,0.14942
3562.39258,0.14803
3560.46384,0.14653
3558.53509,0.14478
3556.60635,0.14309
3554.67760,0.14162
3552.74886,0.14024
3550.82011,0.13866
3548.89137,0.13688
3546.96262,0.13542
3545.03387,0.13418
3543.10513,0.13246
3541.17638,0.13036
3539.24764,0.12845
3537.31889,0.12675
3535.39015,0.12509
3533.46140,0.12360
3531.53266,0.12231
3529.60391,0.12082
3527.67517,0.11912
3525.74642,0.11765
3523.81768,0.11644
3521.88893,0.11527
3519.96019,0.11421
3518.03144,0.11325
3516.10270,0.11238
3514.17395,0.11161
3512.24520,0.11075
3510.31646,0.10964
3508.38771,0.10844
3506.45897,0.10748
3504.53022,0.10682
3502.60148,0.10614
3500.67273,0.10516
3498.74399,0.10416
3496.81524,0.10338
3494.88650,0.10261
3492.95775,0.10180
3491.02901,0.10111
3489.10026,0.10038
3487.17152,0.09945
3485.24277,0.09852
3483.31402,0.09762
3481.38528,0.09657
3479.45653,0.09538
3477.52779,0.09412
3475.59904,0.09269
3473.67030,0.09100
3471.74155,0.08919
3469.81281,0.08722
3467.88406,0.08491
3465.95532,0.08242
3464.02657,0.08015
3462.09783,0.07821
3460.16908,0.07646
3458.24034,0.07498
3456.31159,0.07394
3454.38285,0.07302
3452.45410,0.07203
3450.52535,0.07125
3448.59661,0.07064
3446.66786,0.06989
3444.73912,0.06885
3442.81037,0.06784
3440.88163,0.06714
3438.95288,0.06650
3437.02414,0.06548
3435.09539,0.06422
3433.16665,0.06305
3431.23790,0.06200
3429.30916,0.06078
3427.38041,0.05919
3425.45167,0.05751
3423.52292,0.05613
3421.59418,0.05498
3419.66543,0.05369
3417.73668,0.05223
3415.80794,0.05082
3413.87919,0.04952
3411.95045,0.04831
3410.02170,0.04723
3408.09296,0.04608
3406.16421,0.04489
3404.23547,0.04381
3402.30672,0.04278
3400.37798,0.04184
3398.44923,0.04103
3396.52049,0.04018
3394.59174,0.03926
3392.66300,0.03833
3390.73425,0.03747
3388.80550,0.03665
3386.87676,0.03580
3384.94801,0.03504
3383.01927,0.03464
3381.09052,0.03439
3379.16178,0.03397
3377.23303,0.03352
3375.30429,0.03307
3373.37554,0.03242
3371.44680,0.03178
3369.51805,0.03151
3367.58931,0.03145
3365.66056,0.03124
3363.73182,0.03110
3361.80307,0.03122
3359.87433,0.03122
3357.94558,0.03089
3356.01683,0.03062
3354.08809,0.03043
3352.15934,0.03021
3350.23060,0.03029
3348.30185,0.03047
3346.37311,0.03013
3344.44436,0.02961
3342.51562,0.02945
3340.58687,0.02917
3338.65813,0.02854
3336.72938,0.02822
3334.80064,0.02831
3332.87189,0.02852
3330.94315,0.02871
3329.01440,0.02875
3327.08566,0.02860
3325.15691,0.02838
3323.22816,0.02825
3321.29942,0.02831
3319.37067,0.02856
3317.44193,0.02883
3315.51318,0.02877
3313.58444,0.02838
3311.65569,0.02800
3309.72695,0.02797
3307.79820,0.02815
3305.86946,0.02824
3303.94071,0.02835
3302.01197,0.02865
3300.08322,0.02886
3298.15448,0.02874
3296.22573,0.02859
3294.29698,0.02864
3292.36824,0.02867
3290.43949,0.02870
3288.51075,0.02871
3286.58200,0.02864
3284.65326,0.02872
3282.72451,0.02904
3280.79577,0.02924
3278.86702,0.02916
3276.93828,0.02899
3275.00953,0.02899
3273.08079,0.02906
3271.15204,0.02896
3269.22330,0.02888
3267.29455,0.02905
3265.36581,0.02937
3263.43706,0.02980
3261.50831,0.03014
3259.57957,0.03029
3257.65082,0.03053
3255.72208,0.03082
3253.79333,0.03104
3251.86459,0.03124
3249.93584,0.03125
3248.00710,0.03118
3246.07835,0.03162
3244.14961,0.03239
3242.22086,0.03267
3240.29212,0.03255
3238.36337,0.03274
3236.43463,0.03341
3234.50588,0.03416
3232.57713,0.03457
3230.64839,0.03483
3228.71964,0.03534
3226.79090,0.03576
3224.86215,0.03583
3222.93341,0.03595
3221.00466,0.03628
3219.07592,0.03657
3217.14717,0.03696
3215.21843,0.03751
3213.28968,0.03787
3211.36094,0.03800
3209.43219,0.03812
3207.50345,0.03838
3205.57470,0.03869
3203.64596,0.03870
3201.71721,0.03836
3199.78846,0.03798
3197.85972,0.03784
3195.93097,0.03800
3194.00223,0.03829
3192.07348,0.03858
3190.14474,0.03880
3188.21599,0.03898
3186.28725,0.03919
3184.35850,0.03948
3182.42976,0.04001
3180.50101,0.04093
3178.57227,0.04198
3176.64352,0.04292
3174.71478,0.04371
3172.78603,0.04418
3170.85729,0.04428
3168.92854,0.04432
3166.99979,0.04469
3165.07105,0.04545
3163.14230,0.04617
3161.21356,0.04635
3159.28481,0.04631
3157.35607,0.04660
3155.42732,0.04708
3153.49858,0.04722
3151.56983,0.04714
3149.64109,0.04720
3147.71234,0.04731
3145.78360,0.04711
3143.85485,0.04661
3141.92611,0.04621
3139.99736,0.04613
3138.06861,0.04614
3136.13987,0.04592
3134.21112,0.04530
3132.28238,0.04458
3130.35363,0.04430
3128.42489,0.04439
3126.49614,0.04453
3124.56740,0.04471
3122.63865,0.04504
3120.70991,0.04559
3118.78116,0.04617
3116.85242,0.04640
3114.92367,0.04631
3112.99493,0.04629
3111.06618,0.04647
3109.13744,0.04657
3107.20869,0.04650
3105.27994,0.04660
3103.35120,0.04707
3101.42245,0.04763
3099.49371,0.04797
3097.56496,0.04801
3095.63622,0.04789
3093.70747,0.04778
3091.77873,0.04754
3089.84998,0.04697
3087.92124,0.04638
3085.99249,0.04607
3084.06375,0.04594
3082.13500,0.04574
3080.20626,0.04528
3078.27751,0.04476
3076.34877,0.04447
3074.42002,0.04431
3072.49127,0.04413
3070.56253,0.04397
3068.63378,0.04373
3066.70504,0.04342
3064.77629,0.04331
3062.84755,0.04329
3060.91880,0.04305
3058.99006,0.04270
3057.06131,0.04249
3055.13257,0.04248
3053.20382,0.04256
3051.27508,0.04267
3049.34633,0.04278
3047.41759,0.04290
3045.48884,0.04301
3043.56009,0.04281
3041.63135,0.04223
3039.70260,0.04166
3037.77386,0.04142
3035.84511,0.04127
3033.91637,0.04099
3031.98762,0.04074
3030.05888,0.04057
3028.13013,0.04037
3026.20139,0.04026
3024.27264,0.04051
3022.34390,0.04101
3020.41515,0.04129
3018.48641,0.04114
3016.55766,0.04083
3014.62892,0.04055
3012.70017,0.04011
3010.77142,0.03929
3008.84268,0.03813
3006.91393,0.03695
3004.98519,0.03603
3003.05644,0.03515
3001.12770,0.03410
2999.19895,0.03295
2997.27021,0.03175
2995.34146,0.03070
2993.41272,0.02993
2991.48397,0.02929
2989.55523,0.02866
2987.62648,0.02796
2985.69774,0.02733
2983.76899,0.02695
2981.84025,0.02679
2979.91150,0.02681
2977.98275,0.02702
2976.05401,0.02710
2974.12526,0.02683
2972.19652,0.02648
2970.26777,0.02649
2968.33903,0.02682
2966.41028,0.02706
2964.48154,0.02709
2962.55279,0.02712
2960.62405,0.02730
2958.69530,0.02751
2956.76656,0.02762
2954.83781,0.02761
2952.90907,0.02751
2950.98032,0.02729
2949.05157,0.02701
2947.12283,0.02672
2945.19408,0.02651
2943.26534,0.02647
2941.33659,0.02641
2939.40785,0.02616
2937.47910,0.02587
2935.55036,0.02571
2933.62161,0.02574
2931.69287,0.02586
2929.76412,0.02592
2927.83538,0.02595
2925.90663,0.02598
2923.97789,0.02607
2922.04914,0.02625
2920.12040,0.02636
2918.19165,0.02635
2916.26290,0.02629
2914.33416,0.02633
2912.40541,0.02649
2910.47667,0.02659
2908.54792,0.02661
2906.61918,0.02669
2904.69043,0.02675
2902.76169,0.02671
2900.83294,0.02663
2898.90420,0.02666
2896.97545,0.02688
2895.04671,0.02716
2893.11796,0.02725
2891.18922,0.02722
2889.26047,0.02722
2887.33172,0.02708
2885.40298,0.02681
2883.47423,0.02663
2881.54549,0.02662
2879.61674,0.02676
2877.68800,0.02686
2875.75925,0.02690
2873.83051,0.02718
2871.90176,0.02756
2869.97302,0.02761
2868.04427,0.02750
2866.11553,0.02748
2864.18678,0.02753
2862.25804,0.02760
2860.32929,0.02769
2858.40055,0.02781
2856.47180,0.02787
2854.54305,0.02784
2852.61431,0.02789
2850.68556,0.02821
2848.75682,0.02882
2846.82807,0.02948
2844.89933,0.03011
2842.97058,0.03083
2841.04184,0.03165
2839.11309,0.03240
2837.18435,0.03306
2835.25560,0.03371
2833.32686,0.03436
2831.39811,0.03501
2829.46937,0.03570
2827.54062,0.03640
2825.61188,0.03699
2823.68313,0.03741
2821.75438,0.03774
2819.82564,0.03814
2817.89689,0.03853
2815.96815,0.03884
2814.03940,0.03929
2812.11066,0.03993
2810.18191,0.04046
2808.25317,0.04076
2806.32442,0.04081
2804.39568,0.04071
2802.46693,0.04089
2800.53819,0.04137
2798.60944,0.04179
2796.68070,0.04214
2794.75195,0.04246
2792.82320,0.04265
2790.89446,0.04290
2788.96571,0.04339
2787.03697,0.04388
2785.10822,0.04421
2783.17948,0.04447
2781.25073,0.04472
2779.32199,0.04510
2777.39324,0.04559
2775.46450,0.04601
2773.53575,0.04635
2771.60701,0.04667
2769.67826,0.04709
2767.74952,0.04770
2765.82077,0.04833
2763.89203,0.04882
2761.96328,0.04921
2760.03453,0.04962
2758.10579,0.05022
2756.17704,0.05092
2754.24830,0.05147
2752.31955,0.05188
2750.39081,0.05235
2748.46206,0.05297
2746.53332,0.05365
2744.60457,0.05415
2742.67583,0.05441
2740.74708,0.05461
2738.81834,0.05490
2736.88959,0.05543
2734.96085,0.05599
2733.03210,0.05640
2731.10336,0.05686
2729.17461,0.05758
2727.24586,0.05854
2725.31712,0.05966
2723.38837,0.06087
2721.45963,0.06206
2719.53088,0.06318
2717.60214,0.06442
2715.67339,0.06593
2713.74465,0.06747
2711.81590,0.06866
2709.88716,0.06945
2707.95841,0.07033
2706.02967,0.07147
2704.10092,0.07255
2702.17218,0.07352
2700.24343,0.07464
2698.31468,0.07590
2696.38594,0.07719
2694.45719,0.07846
2692.52845,0.07963
2690.59970,0.08072
2688.67096,0.08182
2686.74221,0.08283
2684.81347,0.08370
2682.88472,0.08462
2680.95598,0.08558
2679.02723,0.08635
2677.09849,0.08687
2675.16974,0.08721
2673.24100,0.08747
2671.31225,0.08775
2669.38351,0.08822
2667.45476,0.08903
2665.52601,0.09013
2663.59727,0.09125
2661.66852,0.09220
2659.73978,0.09301
2657.81103,0.09380
2655.88229,0.09454
2653.95354,0.09508
2652.02480,0.09544
2650.09605,0.09579
2648.16731,0.09610
2646.23856,0.09634
2644.30982,0.09671
2642.38107,0.09725
2640.45233,0.09780
2638.52358,0.09845
2636.59484,0.09933
2634.66609,0.10030
2632.73734,0.10125
2630.80860,0.10226
2628.87985,0.10348
2626.95111,0.10490
2625.02236,0.10627
2623.09362,0.10740
2621.16487,0.10832
2619.23613,0.10914
2617.30738,0.10991
2615.37864,0.11042
2613.44989,0.11057
2611.52115,0.11048
2609.59240,0.11022
2607.66366,0.10976
2605.73491,0.10920
2603.80616,0.10860
2601.87742,0.10808
2599.94867,0.10777
2598.01993,0.10758
2596.09118,0.10750
2594.16244,0.10759
2592.23369,0.10769
2590.30495,0.10767
2588.37620,0.10778
2586.44746,0.10838
2584.51871,0.10939
2582.58997,0.11048
2580.66122,0.11160
2578.73248,0.11296
2576.80373,0.11467
2574.87499,0.11673
2572.94624,0.11892
2571.01749,0.12106
2569.08875,0.12324
2567.16000,0.12539
2565.23126,0.12729
2563.30251,0.12889
2561.37377,0.13037
2559.44502,0.13181
2557.51628,0.13318
2555.58753,0.13439
2553.65879,0.13549
2551.73004,0.13652
2549.80130,0.13740
2547.87255,0.13816
2545.94381,0.13891
2544.01506,0.13972
2542.08631,0.14062
2540.15757,0.14131
2538.22882,0.14141
2536.30008,0.14104
2534.37133,0.14078
2532.44259,0.14083
2530.51384,0.14094
2528.58510,0.14093
2526.65635,0.14083
2524.72761,0.14085
2522.79886,0.14114
2520.87012,0.14151
2518.94137,0.14159
2517.01263,0.14142
2515.08388,0.14133
2513.15514,0.14149
2511.22639,0.14189
2509.29764,0.14234
2507.36890,0.14275
2505.44015,0.14324
2503.51141,0.14396
2501.58266,0.14475
2499.65392,0.14543
2497.72517,0.14620
2495.79643,0.14713
2493.86768,0.14802
2491.93894,0.14883
2490.01019,0.14967
2488.08145,0.15061
2486.15270,0.15161
2484.22396,0.15258
2482.29521,0.15345
2480.36647,0.15421
2478.43772,0.15492
2476.50897,0.15558
2474.58023,0.15637
2472.65148,0.15736
2470.72274,0.15822
2468.79399,0.15885
2466.86525,0.15949
2464.93650,0.16021
2463.00776,0.16097
2461.07901,0.16163
2459.15027,0.16216
2457.22152,0.16280
2455.29278,0.16353
2453.36403,0.16425
2451.43529,0.16510
2449.50654,0.16613
2447.57779,0.16716
2445.64905,0.16811
2443.72030,0.16903
2441.79156,0.16994
2439.86281,0.17083
2437.93407,0.17166
2436.00532,0.17247
2434.07658,0.17340
2432.14783,0.17431
2430.21909,0.17497
2428.29034,0.17559
2426.36160,0.17631
2424.43285,0.17698
2422.50411,0.17750
2420.57536,0.17793
2418.64662,0.17825
2416.71787,0.17840
2414.78912,0.17830
2412.86038,0.17795
2410.93163,0.17752
2409.00289,0.17718
2407.07414,0.17691
2405.14540,0.17660
2403.21665,0.17627
2401.28791,0.17611
2399.35916,0.17603
2397.43042,0.17567
2395.50167,0.17498
2393.57293,0.17428
2391.64418,0.17383
2389.71544,0.17364
2387.78669,0.17335
2385.85795,0.17278
2383.92920,0.17223
2382.00045,0.17191
2380.07171,0.17168
2378.14296,0.17147
2376.21422,0.17128
2374.28547,0.17106
2372.35673,0.17080
2370.42798,0.17069
2368.49924,0.17071
2366.57049,0.17067
2364.64175,0.17044
2362.71300,0.17012
2360.78426,0.16993
2358.85551,0.16985
2356.92677,0.16974
2354.99802,0.16968
2353.06927,0.16964
2351.14053,0.16949
2349.21178,0.16929
2347.28304,0.16903
2345.35429,0.16873
2343.42555,0.16852
2341.49680,0.16831
2339.56806,0.16804
2337.63931,0.16788
2335.71057,0.16787
2333.78182,0.16775
2331.85308,0.16742
2329.92433,0.16693
2327.99559,0.16625
2326.06684,0.16538
2324.13810,0.16436
2322.20935,0.16318
2320.28060,0.16169
2318.35186,0.15984
2316.42311,0.15785
2314.49437,0.15580
2312.56562,0.15356
2310.63688,0.15124
2308.70813,0.14902
2306.77939,0.14678
2304.85064,0.14433
2302.92190,0.14171
2300.99315,0.13912
2299.06441,0.13677
2297.13566,0.13452
2295.20692,0.13210
2293.27817,0.12949
2291.34943,0.12681
2289.42068,0.12413
2287.49193,0.12148
2285.56319,0.11883
2283.63444,0.11625
2281.70570,0.11390
2279.77695,0.11173
2277.84821,0.10973
2275.91946,0.10808
2273.99072,0.10697
2272.06197,0.10650
2270.13323,0.10670
2268.20448,0.10753
2266.27574,0.10887
2264.34699,0.11055
2262.41825,0.11234
2260.48950,0.11418
2258.56075,0.11612
2256.63201,0.11790
2254.70326,0.11927
2252.77452,0.12029
2250.84577,0.12097
2248.91703,0.12111
2246.98828,0.12064
2245.05954,0.11977
2243.13079,0.11867
2241.20205,0.11768
2239.27330,0.11718
2237.34456,0.11752
2235.41581,0.11896
2233.48707,0.12149
2231.55832,0.12466
2229.62958,0.12772
2227.70083,0.13011
2225.77208,0.13188
2223.84334,0.13338
2221.91459,0.13467
2219.98585,0.13561
2218.05710,0.13621
2216.12836,0.13667
2214.19961,0.13722
2212.27087,0.13784
2210.34212,0.13843
2208.41338,0.13902
2206.48463,0.13958
2204.55589,0.14003
2202.62714,0.14039
2200.69840,0.14074
2198.76965,0.14114
2196.84090,0.14155
2194.91216,0.14191
2192.98341,0.14216
2191.05467,0.14239
2189.12592,0.14263
2187.19718,0.14281
2185.26843,0.14290
2183.33969,0.14297
2181.41094,0.14302
2179.48220,0.14296
2177.55345,0.14293
2175.62471,0.14296
2173.69596,0.14285
2171.76722,0.14276
2169.83847,0.14276
2167.90973,0.14272
2165.98098,0.14269
2164.05223,0.14271
2162.12349,0.14264
2160.19474,0.14263
2158.26600,0.14281
2156.33725,0.14293
2154.40851,0.14297
2152.47976,0.14323
2150.55102,0.14371
2148.62227,0.14409
2146.69353,0.14421
2144.76478,0.14429
2142.83604,0.14449
2140.90729,0.14465
2138.97855,0.14480
2137.04980,0.14511
2135.12106,0.14546
2133.19231,0.14570
2131.26356,0.14597
2129.33482,0.14626
2127.40607,0.14659
2125.47733,0.14702
2123.54858,0.14749
2121.61984,0.14796
2119.69109,0.14844
2117.76235,0.14880
2115.83360,0.14897
2113.90486,0.14903
2111.97611,0.14906
2110.04737,0.14905
2108.11862,0.14899
2106.18988,0.14886
2104.26113,0.14863
2102.33238,0.14836
2100.40364,0.14813
2098.47489,0.14789
2096.54615,0.14755
2094.61740,0.14707
2092.68866,0.14641
2090.75991,0.14568
2088.83117,0.14506
2086.90242,0.14463
2084.97368,0.14437
2083.04493,0.14416
2081.11619,0.14383
2079.18744,0.14329
2077.25870,0.14268
2075.32995,0.14228
2073.40121,0.14209
2071.47246,0.14189
2069.54371,0.14170
2067.61497,0.14163
2065.68622,0.14148
2063.75748,0.14106
2061.82873,0.14062
2059.89999,0.14034
2057.97124,0.14011
2056.04250,0.13992
2054.11375,0.13972
2052.18501,0.13932
2050.25626,0.13861
2048.32752,0.13772
2046.39877,0.13685
2044.47003,0.13594
2042.54128,0.13490
2040.61254,0.13376
2038.68379,0.13275
2036.75504,0.13178
2034.82630,0.13064
2032.89755,0.12950
2030.96881,0.12856
2029.04006,0.12771
2027.11132,0.12684
2025.18257,0.12605
2023.25383,0.12540
2021.32508,0.12492
2019.39634,0.12462
2017.46759,0.12443
2015.53885,0.12425
2013.61010,0.12409
2011.68136,0.12407
2009.75261,0.12410
2007.82386,0.12404
2005.89512,0.12406
2003.96637,0.12422
2002.03763,0.12433
2000.10888,0.12438
1998.18014,0.12446
1996.25139,0.12458
1994.32265,0.12462
1992.39390,0.12459
1990.46516,0.12459
1988.53641,0.12453
1986.60767,0.12444
1984.67892,0.12446
1982.75018,0.12445
1980.82143,0.12421
1978.89269,0.12385
1976.96394,0.12359
1975.03519,0.12344
1973.10645,0.12330
1971.17770,0.12308
1969.24896,0.12273
1967.32021,0.12238
1965.39147,0.12210
1963.46272,0.12183
1961.53398,0.12150
1959.60523,0.12111
1957.67649,0.12083
1955.74774,0.12074
1953.81900,0.12071
1951.89025,0.12062
1949.96151,0.12059
1948.03276,0.12077
1946.10402,0.12108
1944.17527,0.12133
1942.24652,0.12148
1940.31778,0.12156
1938.38903,0.12155
1936.46029,0.12146
1934.53154,0.12125
1932.60280,0.12085
1930.67405,0.12042
1928.74531,0.12014
1926.81656,0.11999
1924.88782,0.11985
1922.95907,0.11954
1921.03033,0.11904
1919.10158,0.11851
1917.17284,0.11793
1915.24409,0.11735
1913.31534,0.11691
1911.38660,0.11658
1909.45785,0.11639
1907.52911,0.11633
1905.60036,0.11638
1903.67162,0.11656
1901.74287,0.11683
1899.81413,0.11710
1897.88538,0.11739
1895.95664,0.11781
1894.02789,0.11844
1892.09915,0.11916
1890.17040,0.11988
1888.24166,0.12064
1886.31291,0.12146
1884.38417,0.12220
1882.45542,0.12279
1880.52667,0.12335
1878.59793,0.12396
1876.66918,0.12460
1874.74044,0.12530
1872.81169,0.12609
1870.88295,0.12696
1868.95420,0.12771
1867.02546,0.12817
1865.09671,0.12843
1863.16797,0.12855
1861.23922,0.12856
1859.31048,0.12863
1857.38173,0.12865
1855.45299,0.12836
1853.52424,0.12777
1851.59549,0.12706
1849.66675,0.12631
1847.73800,0.12555
1845.80926,0.12470
1843.88051,0.12350
1841.95177,0.12212
1840.02302,0.12091
1838.09428,0.11969
1836.16553,0.11832
1834.23679,0.11700
1832.30804,0.11577
1830.37930,0.11447
1828.45055,0.11305
1826.52181,0.11153
1824.59306,0.10983
1822.66432,0.10821
1820.73557,0.10686
1818.80682,0.10553
1816.87808,0.10400
1814.94933,0.10227
1813.02059,0.10046
1811.09184,0.09858
1809.16310,0.09661
1807.23435,0.09464
1805.30561,0.09249
1803.37686,0.09004
1801.44812,0.08755
1799.51937,0.08545
1797.59063,0.08384
1795.66188,0.08260
1793.73314,0.08146
1791.80439,0.08027
1789.87565,0.07930
1787.94690,0.07863
1786.01815,0.07804
1784.08941,0.07729
1782.16066,0.07633
1780.23192,0.07518
1778.30317,0.07398
1776.37443,0.07293
1774.44568,0.07193
1772.51694,0.07042
1770.58819,0.06833
1768.65945,0.06609
1766.73070,0.06379
1764.80196,0.06150
1762.87321,0.05891
1760.94447,0.05568
1759.01572,0.05219
1757.08697,0.04852
1755.15823,0.04488
1753.22948,0.04145
1751.30074,0.03781
1749.37199,0.03413
1747.44325,0.03113
1745.51450,0.02890
1743.58576,0.02725
1741.65701,0.02609
1739.72827,0.02527
1737.79952,0.02491
1735.87078,0.02497
1733.94203,0.02498
1732.01329,0.02468
1730.08454,0.02450
1728.15580,0.02458
1726.22705,0.02482
1724.29830,0.02518
1722.36956,0.02559
1720.44081,0.02597
1718.51207,0.02639
1716.58332,0.02657
1714.65458,0.02625
1712.72583,0.02592
1710.79709,0.02592
1708.86834,0.02607
1706.93960,0.02629
1705.01085,0.02664
1703.08211,0.02697
1701.15336,0.02716
1699.22462,0.02728
1697.29587,0.02725
1695.36713,0.02702
1693.43838,0.02699
1691.50963,0.02730
1689.58089,0.02757
1687.65214,0.02757
1685.72340,0.02729
1683.79465,0.02688
1681.86591,0.02675
1679.93716,0.02685
1678.00842,0.02705
1676.07967,0.02727
1674.15093,0.02739
1672.22218,0.02753
1670.29344,0.02755
1668.36469,0.02714
1666.43595,0.02678
1664.50720,0.02682
1662.57845,0.02696
1660.64971,0.02689
1658.72096,0.02687
1656.79222,0.02714
1654.86347,0.02743
1652.93473,0.02725
1651.00598,0.02707
1649.07724,0.02734
1647.14849,0.02766
1645.21975,0.02774
1643.29100,0.02781
1641.36226,0.02796
1639.43351,0.02804
1637.50477,0.02820
1635.57602,0.02852
1633.64728,0.02874
1631.71853,0.02880
1629.78978,0.02876
1627.86104,0.02860
1625.93229,0.02839
1624.00355,0.02798
1622.07480,0.02729
1620.14606,0.02672
1618.21731,0.02638
1616.28857,0.02601
1614.35982,0.02571
1612.43108,0.02553
1610.50233,0.02527
1608.57359,0.02497
1606.64484,0.02470
1604.71610,0.02447
1602.78735,0.02436
1600.85861,0.02446
1598.92986,0.02473
1597.00111,0.02503
1595.07237,0.02534
1593.14362,0.02569
1591.21488,0.02598
1589.28613,0.02622
1587.35739,0.02658
1585.42864,0.02710
1583.49990,0.02765
1581.57115,0.02817
1579.64241,0.02859
1577.71366,0.02875
1575.78492,0.02846
1573.85617,0.02805
1571.92743,0.02783
1569.99868,0.02755
1568.06993,0.02703
1566.14119,0.02650
1564.21244,0.02608
1562.28370,0.02586
1560.35495,0.02562
1558.42621,0.02484
1556.49746,0.02405
1554.56872,0.02371
1552.63997,0.02368
1550.71123,0.02391
1548.78248,0.02413
1546.85374,0.02409
1544.92499,0.02411
1542.99625,0.02449
1541.06750,0.02492
1539.13876,0.02493
1537.21001,0.02482
1535.28126,0.02499
1533.35252,0.02545
1531.42377,0.02604
1529.49503,0.02664
1527.56628,0.02708
1525.63754,0.02715
1523.70879,0.02700
1521.78005,0.02686
1519.85130,0.02690
1517.92256,0.02705
1515.99381,0.02711
1514.06507,0.02722
1512.13632,0.02751
1510.20758,0.02785
1508.27883,0.02818
1506.35008,0.02851
1504.42134,0.02881
1502.49259,0.02907
1500.56385,0.02930
1498.63510,0.02946
1496.70636,0.02963
1494.77761,0.02982
1492.84887,0.02993
1490.92012,0.03001
1488.99138,0.03002
1487.06263,0.02979
1485.13389,0.02940
1483.20514,0.02904
1481.27640,0.02874
1479.34765,0.02856
1477.41891,0.02842
1475.49016,0.02837
1473.56141,0.02843
1471.63267,0.02831
1469.70392,0.02798
1467.77518,0.02769
1465.84643,0.02751
1463.91769,0.02747
1461.98894,0.02741
1460.06020,0.02728
1458.13145,0.02709
1456.20271,0.02687
1454.27396,0.02680
1452.34522,0.02695
1450.41647,0.02720
1448.48773,0.02743
1446.55898,0.02769
1444.63024,0.02809
1442.70149,0.02853
1440.77274,0.02887
1438.84400,0.02910
1436.91525,0.02934
1434.98651,0.02980
1433.05776,0.03039
1431.12902,0.03080
1429.20027,0.03083
1427.27153,0.03048
1425.34278,0.02997
1423.41404,0.02944
1421.48529,0.02891
1419.55655,0.02832
1417.62780,0.02778
1415.69906,0.02749
1413.77031,0.02732
1411.84156,0.02723
1409.91282,0.02744
1407.98407,0.02792
1406.05533,0.02840
1404.12658,0.02872
1402.19784,0.02903
1400.26909,0.02932
1398.34035,0.02930
1396.41160,0.02889
1394.48286,0.02839
1392.55411,0.02807
1390.62537,0.02791
1388.69662,0.02772
1386.76788,0.02737
1384.83913,0.02690
1382.91039,0.02652
1380.98164,0.02619
1379.05289,0.02582
1377.12415,0.02565
1375.19540,0.02586
1373.26666,0.02623
1371.33791,0.02664
1369.40917,0.02715
1367.48042,0.02764
1365.55168,0.02811
1363.62293,0.02861
1361.69419,0.02891
1359.76544,0.02894
1357.83670,0.02883
1355.90795,0.02851
1353.97921,0.02809
1352.05046,0.02788
1350.12172,0.02780
1348.19297,0.02761
1346.26422,0.02740
1344.33548,0.02733
1342.40673,0.02735
1340.47799,0.02737
1338.54924,0.02735
1336.62050,0.02736
1334.69175,0.02740
1332.76301,0.02735
1330.83426,0.02723
1328.90552,0.02713
1326.97677,0.02695
1325.04803,0.02659
1323.11928,0.02615
1321.19054,0.02575
1319.26179,0.02556
1317.33304,0.02560
1315.40430,0.02556
1313.47555,0.02536
1311.54681,0.02520
1309.61806,0.02522
1307.68932,0.02542
1305.76057,0.02562
1303.83183,0.02575
1301.90308,0.02588
1299.97434,0.02597
1298.04559,0.02597
1296.11685,0.02596
1294.18810,0.02604
1292.25936,0.02612
1290.33061,0.02614
1288.40187,0.02618
1286.47312,0.02618
1284.54437,0.02606
1282.61563,0.02592
1280.68688,0.02578
1278.75814,0.02574
1276.82939,0.02582
1274.90065,0.02578
1272.97190,0.02564
1271.04316,0.02552
1269.11441,0.02535
1267.18567,0.02517
1265.25692,0.02507
1263.32818,0.02494
1261.39943,0.02480
1259.47069,0.02483
1257.54194,0.02485
1255.61320,0.02461
1253.68445,0.02427
1251.75570,0.02409
1249.82696,0.02411
1247.89821,0.02416
1245.96947,0.02417
1244.04072,0.02420
1242.11198,0.02411
1240.18323,0.02385
1238.25449,0.02367
1236.32574,0.02373
1234.39700,0.02397
1232.46825,0.02422
1230.53951,0.02454
1228.61076,0.02500
1226.68202,0.02547
1224.75327,0.02585
1222.82452,0.02619
1220.89578,0.02640
1218.96703,0.02646
1217.03829,0.02662
1215.10954,0.02683
1213.18080,0.02684
1211.25205,0.02672
1209.32331,0.02661
1207.39456,0.02660
1205.46582,0.02672
1203.53707,0.02684
1201.60833,0.02692
1199.67958,0.02702
1197.75084,0.02707
1195.82209,0.02688
1193.89335,0.02659
1191.96460,0.02643
1190.03585,0.02636
1188.10711,0.02627
1186.17836,0.02618
1184.24962,0.02602
1182.32087,0.02566
1180.39213,0.02517
1178.46338,0.02476
1176.53464,0.02451
1174.60589,0.02432
1172.67715,0.02406
1170.74840,0.02377
1168.81966,0.02359
1166.89091,0.02359
1164.96217,0.02357
1163.03342,0.02337
1161.10467,0.02321
1159.17593,0.02319
1157.24718,0.02309
1155.31844,0.02289
1153.38969,0.02268
1151.46095,0.02252
1149.53220,0.02250
1147.60346,0.02257
1145.67471,0.02262
1143.74597,0.02278
1141.81722,0.02303
1139.88848,0.02313
1137.95973,0.02315
1136.03099,0.02327
1134.10224,0.02348
1132.17350,0.02374
1130.24475,0.02389
1128.31600,0.02381
1126.38726,0.02374
1124.45851,0.02378
1122.52977,0.02381
1120.60102,0.02400
1118.67228,0.02451
1116.74353,0.02516
1114.81479,0.02574
1112.88604,0.02631
1110.95730,0.02694
1109.02855,0.02754
1107.09981,0.02796
1105.17106,0.02817
1103.24232,0.02843
1101.31357,0.02897
1099.38483,0.02956
1097.45608,0.02984
1095.52733,0.02986
1093.59859,0.02995
1091.66984,0.03012
1089.74110,0.03034
1087.81235,0.03081
1085.88361,0.03123
1083.95486,0.03124
1082.02612,0.03129
1080.09737,0.03158
1078.16863,0.03179
1076.23988,0.03189
1074.31114,0.03205
1072.38239,0.03228
1070.45365,0.03241
1068.52490,0.03235
1066.59615,0.03234
1064.66741,0.03245
1062.73866,0.03242
1060.80992,0.03232
1058.88117,0.03224
1056.95243,0.03226
1055.02368,0.03246
1053.09494,0.03266
1051.16619,0.03260
1049.23745,0.03246
1047.30870,0.03252
1045.37996,0.03280
1043.45121,0.03308
1041.52247,0.03319
1039.59372,0.03308
1037.66498,0.03302
1035.73623,0.03333
1033.80748,0.03374
1031.87874,0.03371
1029.94999,0.03352
1028.02125,0.03363
1026.09250,0.03375
1024.16376,0.03347
1022.23501,0.03303
1020.30627,0.03289
1018.37752,0.03307
1016.44878,0.03328
1014.52003,0.03339
1012.59129,0.03350
1010.66254,0.03364
1008.73380,0.03374
1006.80505,0.03384
1004.87631,0.03411
1002.94756,0.03462
1001.01881,0.03528
999.09007,0.03586
997.16132,0.03644
995.23258,0.03723
993.30383,0.03817
991.37509,0.03895
989.44634,0.03952
987.51760,0.04015
985.58885,0.04094
983.66011,0.04153
981.73136,0.04166
979.80262,0.04166
977.87387,0.04180
975.94513,0.04190
974.01638,0.04167
972.08763,0.04115
970.15889,0.04059
968.23014,0.04022
966.30140,0.04020
964.37265,0.04045
962.44391,0.04057
960.51516,0.04052
958.58642,0.04058
956.65767,0.04074
954.72893,0.04083
952.80018,0.04071
950.87144,0.04036
948.94269,0.03977
947.01395,0.03893
945.08520,0.03791
943.15646,0.03694
941.22771,0.03606
939.29896,0.03531
937.37022,0.03502
935.44147,0.03511
933.51273,0.03514
931.58398,0.03506
929.65524,0.03489
927.72649,0.03471
925.79775,0.03475
923.86900,0.03494
921.94026,0.03519
920.01151,0.03560
918.08277,0.03606
916.15402,0.03637
914.22528,0.03667
912.29653,0.03691
910.36779,0.03706
908.43904,0.03751
906.51029,0.03832
904.58155,0.03918
902.65280,0.04002
900.72406,0.04075
898.79531,0.04132
896.86657,0.04192
894.93782,0.04260
893.00908,0.04309
891.08033,0.04311
889.15159,0.04285
887.22284,0.04255
885.29410,0.04213
883.36535,0.04157
881.43661,0.04099
879.50786,0.04031
877.57911,0.03952
875.65037,0.03890
873.72162,0.03859
871.79288,0.03843
869.86413,0.03824
867.93539,0.03808
866.00664,0.03796
864.07790,0.03786
862.14915,0.03788
860.22041,0.03804
858.29166,0.03810
856.36292,0.03809
854.43417,0.03823
852.50543,0.03831
850.57668,0.03821
848.64794,0.03805
846.71919,0.03783
844.79044,0.03774
842.86170,0.03798
840.93295,0.03818
839.00421,0.03801
837.07546,0.03758
835.14672,0.03710
833.21797,0.03672
831.28923,0.03640
829.36048,0.03596
827.43174,0.03557
825.50299,0.03537
823.57425,0.03499
821.64550,0.03437
819.71676,0.03382
817.78801,0.03367
815.85926,0.03403
813.93052,0.03462
812.00177,0.03522
810.07303,0.03588
808.14428,0.03671
806.21554,0.03771
804.28679,0.03862
802.35805,0.03920
800.42930,0.03943
798.50056,0.03967
796.57181,0.04005
794.64307,0.04025
792.71432,0.04027
790.78558,0.04028
788.85683,0.04043
786.92809,0.04063
784.99934,0.04050
783.07059,0.04020
781.14185,0.03995
779.21310,0.03952
777.28436,0.03881
775.35561,0.03793
773.42687,0.03700
771.49812,0.03614
769.56938,0.03560
767.64063,0.03559
765.71189,0.03594
763.78314,0.03626
761.85440,0.03656
759.92565,0.03694
757.99691,0.03719
756.06816,0.03724
754.13942,0.03724
752.21067,0.03761
750.28192,0.03856
748.35318,0.03976
746.42443,0.04075
744.49569,0.04129
742.56694,0.04157
740.63820,0.04223
738.70945,0.04324
736.78071,0.04337
734.85196,0.04246
732.92322,0.04213
730.99447,0.04283
729.06573,0.04327
727.13698,0.04302
725.20824,0.04266
723.27949,0.04203
721.35074,0.04110
719.42200,0.04042
717.49325,0.03973
715.56451,0.03850
713.63576,0.03712
711.70702,0.03624
709.77827,0.03619
707.84953,0.03659
705.92078,0.03657
703.99204,0.03621
702.06329,0.03647
700.13455,0.03742
698.20580,0.03825
696.27706,0.03851
694.34831,0.03840
692.41957,0.03828
690.49082,0.03799
688.56207,0.03737
686.63333,0.03686
684.70458,0.03641
682.77584,0.03588
680.84709,0.03568
678.91835,0.03586
676.98960,0.03593
675.06086,0.03552
673.13211,0.03504
671.20337,0.03497
669.27462,0.03501
667.34588,0.03485
665.41713,0.03454
663.48839,0.03440
661.55964,0.03456
659.63090,0.03483
657.70215,0.03523
655.77340,0.03580
653.84466,0.03623
651.91591,0.03652
649.98717,0.03692
648.05842,0.03741
646.12968,0.03769
644.20093,0.03742
642.27219,0.03698
640.34344,0.03714
638.41470,0.03773
636.48595,0.03785
634.55721,0.03760
632.62846,0.03780
630.69972,0.03847
628.77097,0.03927
626.84222,0.03962
624.91348,0.03924
622.98473,0.03870
621.05599,0.03810
619.12724,0.03766
617.19850,0.03834
615.26975,0.03938
613.34101,0.03895
611.41226,0.03816
609.48352,0.03854
607.55477,0.03884
605.62603,0.03856
603.69728,0.03820
601.76854,0.03799
599.83979,0.03856
