7497.03301,0.71843
7495.10426,0.71987
7493.17552,0.72035
7491.24677,0.72305
7489.31803,0.72515
7487.38928,0.72163
7485.46054,0.71579
7483.53179,0.71279
7481.60305,0.71415
7479.67430,0.71527
7477.74556,0.71435
7475.81681,0.71860
7473.88807,0.72693
7471.95932,0.72910
7470.03057,0.72360
7468.10183,0.71809
7466.17308,0.71716
7464.24434,0.71703
7462.31559,0.71181
7460.38685,0.70410
7458.45810,0.70209
7456.52936,0.70652
7454.60061,0.71225
7452.67187,0.71568
7450.74312,0.71343
7448.81438,0.70533
7446.88563,0.69855
7444.95689,0.70113
7443.02814,0.70960
7441.09940,0.71284
7439.17065,0.71052
7437.24190,0.70906
7435.31316,0.70664
7433.38441,0.70222
7431.45567,0.70255
7429.52692,0.70604
7427.59818,0.70458
7425.66943,0.70174
7423.74069,0.70351
7421.81194,0.70808
7419.88320,0.71091
7417.95445,0.70541
7416.02571,0.69479
7414.09696,0.69062
7412.16822,0.69038
7410.23947,0.68792
7408.31073,0.68709
7406.38198,0.68827
7404.45323,0.68891
7402.52449,0.68847
7400.59574,0.68586
7398.66700,0.68363
7396.73825,0.68402
7394.80951,0.68417
7392.88076,0.68268
7390.95202,0.68096
7389.02327,0.67812
7387.09453,0.67492
7385.16578,0.67463
7383.23704,0.67499
7381.30829,0.67372
7379.37955,0.67321
7377.45080,0.67103
7375.52205,0.66466
7373.59331,0.66031
7371.66456,0.66133
7369.73582,0.66193
7367.80707,0.65945
7365.87833,0.65918
7363.94958,0.66347
7362.02084,0.66710
7360.09209,0.66595
7358.16335,0.66191
7356.23460,0.65907
7354.30586,0.66041
7352.37711,0.66501
7350.44837,0.66893
7348.51962,0.66941
7346.59088,0.66684
7344.66213,0.66523
7342.73338,0.66647
7340.80464,0.66779
7338.87589,0.66799
7336.94715,0.66594
7335.01840,0.66042
7333.08966,0.65481
7331.16091,0.65102
7329.23217,0.64802
7327.30342,0.64772
7325.37468,0.65142
7323.44593,0.65563
7321.51719,0.65689
7319.58844,0.65497
7317.65970,0.65114
7315.73095,0.64894
7313.80221,0.65105
7311.87346,0.65421
7309.94471,0.65548
7308.01597,0.65537
7306.08722,0.65563
7304.15848,0.65659
7302.22973,0.65455
7300.30099,0.64976
7298.37224,0.64709
7296.44350,0.64723
7294.51475,0.64740
7292.58601,0.64596
7290.65726,0.64346
7288.72852,0.64044
7286.79977,0.63735
7284.87103,0.63523
7282.94228,0.63327
7281.01353,0.63131
7279.08479,0.63128
7277.15604,0.63143
7275.22730,0.62894
7273.29855,0.62694
7271.36981,0.62798
7269.44106,0.63001
7267.51232,0.63093
7265.58357,0.63083
7263.65483,0.63121
7261.72608,0.63170
7259.79734,0.63170
7257.86859,0.62982
7255.93985,0.62385
7254.01110,0.61906
7252.08236,0.61919
7250.15361,0.61927
7248.22486,0.61938
7246.29612,0.62146
7244.36737,0.62189
7242.43863,0.62173
7240.50988,0.62300
7238.58114,0.62139
7236.65239,0.61605
7234.72365,0.60934
7232.79490,0.60494
7230.86616,0.60924
7228.93741,0.61882
7227.00867,0.62277
7225.07992,0.61930
7223.15118,0.61381
7221.22243,0.61118
7219.29369,0.61365
7217.36494,0.61682
7215.43619,0.61453
7213.50745,0.60973
7211.57870,0.60675
7209.64996,0.60490
7207.72121,0.60619
7205.79247,0.61063
7203.86372,0.61293
7201.93498,0.61110
7200.00623,0.60767
7198.07749,0.60528
7196.14874,0.60404
7194.22000,0.60438
7192.29125,0.60832
7190.36251,0.61430
7188.43376,0.61784
7186.50501,0.61540
7184.57627,0.60892
7182.64752,0.60577
7180.71878,0.60912
7178.79003,0.61321
7176.86129,0.61291
7174.93254,0.61091
7173.00380,0.61109
7171.07505,0.61276
7169.14631,0.61370
7167.21756,0.61262
7165.28882,0.60937
7163.36007,0.60700
7161.43133,0.60879
7159.50258,0.61203
7157.57384,0.61243
7155.64509,0.61166
7153.71634,0.61394
7151.78760,0.61841
7149.85885,0.62078
7147.93011,0.62131
7146.00136,0.62084
7144.07262,0.61759
7142.14387,0.61260
7140.21513,0.61066
7138.28638,0.61524
7136.35764,0.62316
7134.42889,0.62762
7132.50015,0.62569
7130.57140,0.62188
7128.64266,0.62236
7126.71391,0.62556
7124.78516,0.62730
7122.85642,0.62788
7120.92767,0.62695
7118.99893,0.62441
7117.07018,0.62239
7115.14144,0.62106
7113.21269,0.62101
7111.28395,0.62201
7109.35520,0.62136
7107.42646,0.62004
7105.49771,0.62084
7103.56897,0.62353
7101.64022,0.62529
7099.71148,0.62366
7097.78273,0.62012
7095.85399,0.61843
7093.92524,0.61937
7091.99649,0.62003
7090.06775,0.62119
7088.13900,0.62396
7086.21026,0.62416
7084.28151,0.62111
7082.35277,0.61920
7080.42402,0.62187
7078.49528,0.62678
7076.56653,0.62769
7074.63779,0.62424
7072.70904,0.61996
7070.78030,0.61684
7068.85155,0.61623
7066.92281,0.61849
7064.99406,0.62131
7063.06532,0.62246
7061.13657,0.62316
7059.20782,0.62332
7057.27908,0.62140
7055.35033,0.61948
7053.42159,0.61989
7051.49284,0.62110
7049.56410,0.62140
7047.63535,0.62199
7045.70661,0.62377
7043.77786,0.62549
7041.84912,0.62532
7039.92037,0.62284
7037.99163,0.62112
7036.06288,0.62274
7034.13414,0.62496
7032.20539,0.62505
7030.27664,0.62367
7028.34790,0.62131
7026.41915,0.61891
7024.49041,0.61846
7022.56166,0.61878
7020.63292,0.61753
7018.70417,0.61720
7016.77543,0.61856
7014.84668,0.61789
7012.91794,0.61769
7010.98919,0.62117
7009.06045,0.62400
7007.13170,0.62478
7005.20296,0.62632
7003.27421,0.62645
7001.34547,0.62335
6999.41672,0.62093
6997.48797,0.62080
6995.55923,0.62135
6993.63048,0.62216
6991.70174,0.62225
6989.77299,0.62101
6987.84425,0.61978
6985.91550,0.61970
6983.98676,0.61892
6982.05801,0.61554
6980.12927,0.61301
6978.20052,0.61436
6976.27178,0.61730
6974.34303,0.61977
6972.41429,0.62136
6970.48554,0.62082
6968.55680,0.61859
6966.62805,0.61661
6964.69930,0.61612
6962.77056,0.61737
6960.84181,0.61846
6958.91307,0.61910
6956.98432,0.62112
6955.05558,0.62261
6953.12683,0.62272
6951.19809,0.62438
6949.26934,0.62602
6947.34060,0.62458
6945.41185,0.62275
6943.48311,0.62254
6941.55436,0.62373
6939.62562,0.62693
6937.69687,0.62988
6935.76812,0.63028
6933.83938,0.62957
6931.91063,0.62978
6929.98189,0.63113
6928.05314,0.63302
6926.12440,0.63561
6924.19565,0.63677
6922.26691,0.63351
6920.33816,0.62849
6918.40942,0.62603
6916.48067,0.62603
6914.55193,0.62693
6912.62318,0.62865
6910.69444,0.63094
6908.76569,0.63312
6906.83695,0.63540
6904.90820,0.63743
6902.97945,0.63718
6901.05071,0.63395
6899.12196,0.63127
6897.19322,0.63224
6895.26447,0.63329
6893.33573,0.63152
6891.40698,0.63095
6889.47824,0.63255
6887.54949,0.63291
6885.62075,0.63324
6883.69200,0.63493
6881.76326,0.63503
6879.83451,0.63474
6877.90577,0.63789
6875.97702,0.64051
6874.04828,0.63906
6872.11953,0.63716
6870.19078,0.63554
6868.26204,0.63406
6866.33329,0.63519
6864.40455,0.63623
6862.47580,0.63397
6860.54706,0.63230
6858.61831,0.63403
6856.68957,0.63596
6854.76082,0.63658
6852.83208,0.63798
6850.90333,0.64071
6848.97459,0.64364
6847.04584,0.64507
6845.11710,0.64356
6843.18835,0.64021
6841.25960,0.63819
6839.33086,0.63862
6837.40211,0.63871
6835.47337,0.63735
6833.54462,0.63706
6831.61588,0.63827
6829.68713,0.63854
6827.75839,0.63677
6825.82964,0.63465
6823.90090,0.63366
6821.97215,0.63275
6820.04341,0.63234
6818.11466,0.63440
6816.18592,0.63775
6814.25717,0.63949
6812.32843,0.63934
6810.39968,0.63963
6808.47093,0.64031
6806.54219,0.63890
6804.61344,0.63645
6802.68470,0.63533
6800.75595,0.63492
6798.82721,0.63374
6796.89846,0.63051
6794.96972,0.62543
6793.04097,0.62251
6791.11223,0.62412
6789.18348,0.62589
6787.25474,0.62553
6785.32599,0.62745
6783.39725,0.63160
6781.46850,0.63201
6779.53975,0.62758
6777.61101,0.62206
6775.68226,0.61748
6773.75352,0.61460
6771.82477,0.61450
6769.89603,0.61523
6767.96728,0.61329
6766.03854,0.61013
6764.10979,0.60994
6762.18105,0.61343
6760.25230,0.61784
6758.32356,0.62006
6756.39481,0.61936
6754.46607,0.61772
6752.53732,0.61688
6750.60858,0.61555
6748.67983,0.61215
6746.75108,0.60858
6744.82234,0.60742
6742.89359,0.60892
6740.96485,0.61093
6739.03610,0.61122
6737.10736,0.61065
6735.17861,0.61090
6733.24987,0.61194
6731.32112,0.61268
6729.39238,0.61141
6727.46363,0.60863
6725.53489,0.60674
6723.60614,0.60610
6721.67740,0.60551
6719.74865,0.60484
6717.81991,0.60475
6715.89116,0.60451
6713.96241,0.60316
6712.03367,0.60137
6710.10492,0.59916
6708.17618,0.59654
6706.24743,0.59600
6704.31869,0.59811
6702.38994,0.59967
6700.46120,0.59873
6698.53245,0.59666
6696.60371,0.59611
6694.67496,0.59739
6692.74622,0.59796
6690.81747,0.59708
6688.88873,0.59544
6686.95998,0.59366
6685.03123,0.59285
6683.10249,0.59277
6681.17374,0.59295
6679.24500,0.59327
6677.31625,0.59329
6675.38751,0.59294
6673.45876,0.59197
6671.53002,0.59117
6669.60127,0.59165
6667.67253,0.59326
6665.74378,0.59560
6663.81504,0.59754
6661.88629,0.59805
6659.95755,0.59820
6658.02880,0.59861
6656.10006,0.59732
6654.17131,0.59410
6652.24256,0.59194
6650.31382,0.59159
6648.38507,0.59099
6646.45633,0.59034
6644.52758,0.59118
6642.59884,0.59239
6640.67009,0.59286
6638.74135,0.59394
6636.81260,0.59591
6634.88386,0.59704
6632.95511,0.59637
6631.02637,0.59494
6629.09762,0.59472
6627.16888,0.59657
6625.24013,0.59869
6623.31139,0.59838
6621.38264,0.59608
6619.45389,0.59517
6617.52515,0.59648
6615.59640,0.59720
6613.66766,0.59726
6611.73891,0.59864
6609.81017,0.60005
6607.88142,0.59968
6605.95268,0.59804
6604.02393,0.59708
6602.09519,0.59767
6600.16644,0.59760
6598.23770,0.59548
6596.30895,0.59376
6594.38021,0.59468
6592.45146,0.59745
6590.52271,0.60052
6588.59397,0.60244
6586.66522,0.60218
6584.73648,0.60153
6582.80773,0.60287
6580.87899,0.60457
6578.95024,0.60415
6577.02150,0.60346
6575.09275,0.60483
6573.16401,0.60634
6571.23526,0.60591
6569.30652,0.60508
6567.37777,0.60602
6565.44903,0.60808
6563.52028,0.61005
6561.59154,0.61165
6559.66279,0.61104
6557.73404,0.60821
6555.80530,0.60691
6553.87655,0.60886
6551.94781,0.61281
6550.01906,0.61605
6548.09032,0.61632
6546.16157,0.61537
6544.23283,0.61547
6542.30408,0.61583
6540.37534,0.61610
6538.44659,0.61714
6536.51785,0.61832
6534.58910,0.61859
6532.66036,0.61915
6530.73161,0.62099
6528.80287,0.62266
6526.87412,0.62314
6524.94537,0.62349
6523.01663,0.62452
6521.08788,0.62498
6519.15914,0.62447
6517.23039,0.62422
6515.30165,0.62526
6513.37290,0.62831
6511.44416,0.63155
6509.51541,0.63295
6507.58667,0.63359
6505.65792,0.63411
6503.72918,0.63451
6501.80043,0.63566
6499.87169,0.63745
6497.94294,0.63859
6496.01419,0.63845
6494.08545,0.63799
6492.15670,0.63793
6490.22796,0.63756
6488.29921,0.63647
6486.37047,0.63550
6484.44172,0.63521
6482.51298,0.63542
6480.58423,0.63656
6478.65549,0.63905
6476.72674,0.64134
6474.79800,0.64136
6472.86925,0.63933
6470.94051,0.63759
6469.01176,0.63872
6467.08302,0.64183
6465.15427,0.64279
6463.22552,0.64081
6461.29678,0.63931
6459.36803,0.64085
6457.43929,0.64426
6455.51054,0.64632
6453.58180,0.64570
6451.65305,0.64373
6449.72431,0.64242
6447.79556,0.64295
6445.86682,0.64441
6443.93807,0.64505
6442.00933,0.64452
6440.08058,0.64462
6438.15184,0.64710
6436.22309,0.64977
6434.29434,0.64904
6432.36560,0.64657
6430.43685,0.64635
6428.50811,0.64809
6426.57936,0.64922
6424.65062,0.64926
6422.72187,0.64894
6420.79313,0.64836
6418.86438,0.64764
6416.93564,0.64692
6415.00689,0.64614
6413.07815,0.64602
6411.14940,0.64738
6409.22066,0.64900
6407.29191,0.64870
6405.36317,0.64663
6403.43442,0.64497
6401.50567,0.64538
6399.57693,0.64753
6397.64818,0.65005
6395.71944,0.65176
6393.79069,0.65125
6391.86195,0.64861
6389.93320,0.64645
6388.00446,0.64709
6386.07571,0.64949
6384.14697,0.65084
6382.21822,0.65169
6380.28948,0.65255
6378.36073,0.65164
6376.43199,0.64992
6374.50324,0.64863
6372.57450,0.64779
6370.64575,0.64826
6368.71700,0.64926
6366.78826,0.64964
6364.85951,0.65045
6362.93077,0.65277
6361.00202,0.65526
6359.07328,0.65612
6357.14453,0.65561
6355.21579,0.65426
6353.28704,0.65248
6351.35830,0.65125
6349.42955,0.65107
6347.50081,0.65226
6345.57206,0.65420
6343.64332,0.65509
6341.71457,0.65453
6339.78582,0.65403
6337.85708,0.65438
6335.92833,0.65472
6333.99959,0.65485
6332.07084,0.65555
6330.14210,0.65620
6328.21335,0.65565
6326.28461,0.65420
6324.35586,0.65310
6322.42712,0.65232
6320.49837,0.65123
6318.56963,0.65065
6316.64088,0.65101
6314.71214,0.65180
6312.78339,0.65378
6310.85465,0.65555
6308.92590,0.65368
6306.99715,0.65018
6305.06841,0.64988
6303.13966,0.65213
6301.21092,0.65310
6299.28217,0.65235
6297.35343,0.65188
6295.42468,0.65212
6293.49594,0.65261
6291.56719,0.65313
6289.63845,0.65291
6287.70970,0.65279
6285.78096,0.65384
6283.85221,0.65394
6281.92347,0.65217
6279.99472,0.65101
6278.06598,0.65176
6276.13723,0.65322
6274.20848,0.65479
6272.27974,0.65586
6270.35099,0.65421
6268.42225,0.65059
6266.49350,0.64912
6264.56476,0.65043
6262.63601,0.65151
6260.70727,0.65157
6258.77852,0.65220
6256.84978,0.65308
6254.92103,0.65317
6252.99229,0.65258
6251.06354,0.65151
6249.13480,0.65140
6247.20605,0.65360
6245.27730,0.65581
6243.34856,0.65523
6241.41981,0.65304
6239.49107,0.65148
6237.56232,0.65088
6235.63358,0.65123
6233.70483,0.65226
6231.77609,0.65360
6229.84734,0.65481
6227.91860,0.65428
6225.98985,0.65181
6224.06111,0.64992
6222.13236,0.65005
6220.20362,0.65109
6218.27487,0.65168
6216.34613,0.65139
6214.41738,0.65017
6212.48863,0.64881
6210.55989,0.64850
6208.63114,0.64939
6206.70240,0.65014
6204.77365,0.64920
6202.84491,0.64768
6200.91616,0.64755
6198.98742,0.64830
6197.05867,0.64894
6195.12993,0.64912
6193.20118,0.64851
6191.27244,0.64789
6189.34369,0.64822
6187.41495,0.64847
6185.48620,0.64722
6183.55746,0.64504
6181.62871,0.64285
6179.69996,0.64075
6177.77122,0.63987
6175.84247,0.64097
6173.91373,0.64201
6171.98498,0.64157
6170.05624,0.64069
6168.12749,0.63990
6166.19875,0.63909
6164.27000,0.63812
6162.34126,0.63659
6160.41251,0.63492
6158.48377,0.63409
6156.55502,0.63395
6154.62628,0.63381
6152.69753,0.63335
6150.76878,0.63240
6148.84004,0.63095
6146.91129,0.62910
6144.98255,0.62714
6143.05380,0.62570
6141.12506,0.62541
6139.19631,0.62608
6137.26757,0.62618
6135.33882,0.62453
6133.41008,0.62258
6131.48133,0.62209
6129.55259,0.62223
6127.62384,0.62165
6125.69510,0.62058
6123.76635,0.61857
6121.83761,0.61494
6119.90886,0.61129
6117.98011,0.60935
6116.05137,0.60917
6114.12262,0.60945
6112.19388,0.60860
6110.26513,0.60640
6108.33639,0.60408
6106.40764,0.60304
6104.47890,0.60266
6102.55015,0.60122
6100.62141,0.59922
6098.69266,0.59739
6096.76392,0.59513
6094.83517,0.59208
6092.90643,0.58867
6090.97768,0.58659
6089.04893,0.58662
6087.12019,0.58701
6085.19144,0.58580
6083.26270,0.58328
6081.33395,0.58197
6079.40521,0.58248
6077.47646,0.58257
6075.54772,0.58189
6073.61897,0.58195
6071.69023,0.58201
6069.76148,0.58082
6067.83274,0.57963
6065.90399,0.57914
6063.97525,0.57856
6062.04650,0.57815
6060.11776,0.57844
6058.18901,0.57885
6056.26026,0.57852
6054.33152,0.57748
6052.40277,0.57644
6050.47403,0.57568
6048.54528,0.57492
6046.61654,0.57361
6044.68779,0.57209
6042.75905,0.57151
6040.83030,0.57193
6038.90156,0.57237
6036.97281,0.57204
6035.04407,0.57065
6033.11532,0.56882
6031.18658,0.56710
6029.25783,0.56468
6027.32909,0.56187
6025.40034,0.56064
6023.47159,0.56063
6021.54285,0.55957
6019.61410,0.55709
6017.68536,0.55446
6015.75661,0.55188
6013.82787,0.54896
6011.89912,0.54651
6009.97038,0.54504
6008.04163,0.54361
6006.11289,0.54153
6004.18414,0.53915
6002.25540,0.53692
6000.32665,0.53444
5998.39791,0.53099
5996.46916,0.52726
5994.54041,0.52417
5992.61167,0.52128
5990.68292,0.51830
5988.75418,0.51512
5986.82543,0.51098
5984.89669,0.50577
5982.96794,0.50087
5981.03920,0.49784
5979.11045,0.49586
5977.18171,0.49293
5975.25296,0.48849
5973.32422,0.48306
5971.39547,0.47778
5969.46673,0.47298
5967.53798,0.46777
5965.60924,0.46199
5963.68049,0.45612
5961.75174,0.45013
5959.82300,0.44424
5957.89425,0.43866
5955.96551,0.43346
5954.03676,0.42968
5952.10802,0.42658
5950.17927,0.42210
5948.25053,0.41744
5946.32178,0.41460
5944.39304,0.41320
5942.46429,0.41276
5940.53555,0.41287
5938.60680,0.41268
5936.67806,0.41244
5934.74931,0.41278
5932.82057,0.41350
5930.89182,0.41439
5928.96307,0.41581
5927.03433,0.41793
5925.10558,0.41979
5923.17684,0.41995
5921.24809,0.41808
5919.31935,0.41551
5917.39060,0.41349
5915.46186,0.41148
5913.53311,0.40841
5911.60437,0.40442
5909.67562,0.40066
5907.74688,0.39798
5905.81813,0.39570
5903.88939,0.39357
5901.96064,0.39308
5900.03189,0.39452
5898.10315,0.39620
5896.17440,0.39750
5894.24566,0.39925
5892.31691,0.40199
5890.38817,0.40580
5888.45942,0.40988
5886.53068,0.41331
5884.60193,0.41631
5882.67319,0.41903
5880.74444,0.42096
5878.81570,0.42262
5876.88695,0.42480
5874.95821,0.42619
5873.02946,0.42551
5871.10072,0.42431
5869.17197,0.42475
5867.24322,0.42615
5865.31448,0.42643
5863.38573,0.42576
5861.45699,0.42550
5859.52824,0.42614
5857.59950,0.42680
5855.67075,0.42572
5853.74201,0.42320
5851.81326,0.42146
5849.88452,0.42116
5847.95577,0.42061
5846.02703,0.41885
5844.09828,0.41687
5842.16954,0.41503
5840.24079,0.41302
5838.31205,0.41137
5836.38330,0.41052
5834.45455,0.41014
5832.52581,0.40954
5830.59706,0.40871
5828.66832,0.40776
5826.73957,0.40601
5824.81083,0.40390
5822.88208,0.40274
5820.95334,0.40152
5819.02459,0.39911
5817.09585,0.39640
5815.16710,0.39395
5813.23836,0.39235
5811.30961,0.39235
5809.38087,0.39271
5807.45212,0.39209
5805.52337,0.39066
5803.59463,0.38859
5801.66588,0.38597
5799.73714,0.38357
5797.80839,0.38197
5795.87965,0.38082
5793.95090,0.37961
5792.02216,0.37799
5790.09341,0.37628
5788.16467,0.37557
5786.23592,0.37619
5784.30718,0.37697
5782.37843,0.37654
5780.44969,0.37525
5778.52094,0.37447
5776.59220,0.37418
5774.66345,0.37371
5772.73470,0.37361
5770.80596,0.37458
5768.87721,0.37582
5766.94847,0.37609
5765.01972,0.37597
5763.09098,0.37715
5761.16223,0.37977
5759.23349,0.38217
5757.30474,0.38380
5755.37600,0.38557
5753.44725,0.38708
5751.51851,0.38801
5749.58976,0.38934
5747.66102,0.39095
5745.73227,0.39281
5743.80352,0.39567
5741.87478,0.39865
5739.94603,0.40040
5738.01729,0.40199
5736.08854,0.40446
5734.15980,0.40640
5732.23105,0.40762
5730.30231,0.40973
5728.37356,0.41274
5726.44482,0.41574
5724.51607,0.41833
5722.58733,0.41999
5720.65858,0.42091
5718.72984,0.42224
5716.80109,0.42439
5714.87235,0.42629
5712.94360,0.42697
5711.01485,0.42723
5709.08611,0.42793
5707.15736,0.42897
5705.22862,0.43069
5703.29987,0.43287
5701.37113,0.43486
5699.44238,0.43642
5697.51364,0.43707
5695.58489,0.43727
5693.65615,0.43771
5691.72740,0.43748
5689.79866,0.43662
5687.86991,0.43665
5685.94117,0.43750
5684.01242,0.43759
5682.08368,0.43641
5680.15493,0.43503
5678.22618,0.43467
5676.29744,0.43485
5674.36869,0.43458
5672.43995,0.43390
5670.51120,0.43328
5668.58246,0.43324
5666.65371,0.43433
5664.72497,0.43593
5662.79622,0.43681
5660.86748,0.43685
5658.93873,0.43624
5657.00999,0.43556
5655.08124,0.43660
5653.15250,0.43906
5651.22375,0.44081
5649.29500,0.44181
5647.36626,0.44336
5645.43751,0.44565
5643.50877,0.44743
5641.58002,0.44834
5639.65128,0.44969
5637.72253,0.45158
5635.79379,0.45271
5633.86504,0.45311
5631.93630,0.45427
5630.00755,0.45624
5628.07881,0.45786
5626.15006,0.45942
5624.22132,0.46120
5622.29257,0.46265
5620.36383,0.46353
5618.43508,0.46378
5616.50633,0.46415
5614.57759,0.46532
5612.64884,0.46683
5610.72010,0.46809
5608.79135,0.46872
5606.86261,0.46873
5604.93386,0.46886
5603.00512,0.46918
5601.07637,0.46868
5599.14763,0.46758
5597.21888,0.46739
5595.29014,0.46851
5593.36139,0.46967
5591.43265,0.46995
5589.50390,0.46975
5587.57516,0.46947
5585.64641,0.46931
5583.71766,0.46949
5581.78892,0.46970
5579.86017,0.46993
5577.93143,0.47077
5576.00268,0.47169
5574.07394,0.47133
5572.14519,0.47006
5570.21645,0.46951
5568.28770,0.47005
5566.35896,0.47072
5564.43021,0.47103
5562.50147,0.47133
5560.57272,0.47145
5558.64398,0.47099
5556.71523,0.47038
5554.78648,0.47033
5552.85774,0.47042
5550.92899,0.46992
5549.00025,0.46976
5547.07150,0.47030
5545.14276,0.47054
5543.21401,0.47063
5541.28527,0.47101
5539.35652,0.47111
5537.42778,0.47082
5535.49903,0.47057
5533.57029,0.47032
5531.64154,0.47014
5529.71280,0.47045
5527.78405,0.47140
5525.85531,0.47280
5523.92656,0.47384
5521.99781,0.47378
5520.06907,0.47315
5518.14032,0.47301
5516.21158,0.47394
5514.28283,0.47572
5512.35409,0.47725
5510.42534,0.47776
5508.49660,0.47752
5506.56785,0.47726
5504.63911,0.47773
5502.71036,0.47907
5500.78162,0.48062
5498.85287,0.48179
5496.92413,0.48213
5494.99538,0.48192
5493.06664,0.48235
5491.13789,0.48392
5489.20914,0.48556
5487.28040,0.48588
5485.35165,0.48503
5483.42291,0.48456
5481.49416,0.48527
5479.56542,0.48630
5477.63667,0.48659
5475.70793,0.48640
5473.77918,0.48650
5471.85044,0.48657
5469.92169,0.48600
5467.99295,0.48540
5466.06420,0.48562
5464.13546,0.48636
5462.20671,0.48698
5460.27796,0.48732
5458.34922,0.48735
5456.42047,0.48678
5454.49173,0.48585
5452.56298,0.48593
5450.63424,0.48723
5448.70549,0.48834
5446.77675,0.48887
5444.84800,0.48922
5442.91926,0.48942
5440.99051,0.48954
5439.06177,0.49011
5437.13302,0.49153
5435.20428,0.49351
5433.27553,0.49515
5431.34679,0.49579
5429.41804,0.49623
5427.48929,0.49744
5425.56055,0.49928
5423.63180,0.50141
5421.70306,0.50300
5419.77431,0.50384
5417.84557,0.50529
5415.91682,0.50748
5413.98808,0.50916
5412.05933,0.51029
5410.13059,0.51199
5408.20184,0.51419
5406.27310,0.51593
5404.34435,0.51725
5402.41561,0.51861
5400.48686,0.52017
5398.55811,0.52186
5396.62937,0.52327
5394.70062,0.52416
5392.77188,0.52475
5390.84313,0.52541
5388.91439,0.52612
5386.98564,0.52647
5385.05690,0.52668
5383.12815,0.52718
5381.19941,0.52786
5379.27066,0.52865
5377.34192,0.52966
5375.41317,0.53086
5373.48443,0.53176
5371.55568,0.53197
5369.62694,0.53218
5367.69819,0.53296
5365.76944,0.53406
5363.84070,0.53491
5361.91195,0.53528
5359.98321,0.53539
5358.05446,0.53513
5356.12572,0.53470
5354.19697,0.53503
5352.26823,0.53608
5350.33948,0.53681
5348.41074,0.53689
5346.48199,0.53672
5344.55325,0.53663
5342.62450,0.53666
5340.69576,0.53720
5338.76701,0.53847
5336.83827,0.53957
5334.90952,0.53982
5332.98077,0.53953
5331.05203,0.53936
5329.12328,0.54014
5327.19454,0.54119
5325.26579,0.54094
5323.33705,0.54002
5321.40830,0.54001
5319.47956,0.54100
5317.55081,0.54232
5315.62207,0.54345
5313.69332,0.54420
5311.76458,0.54456
5309.83583,0.54439
5307.90709,0.54352
5305.97834,0.54263
5304.04959,0.54281
5302.12085,0.54348
5300.19210,0.54315
5298.26336,0.54178
5296.33461,0.54060
5294.40587,0.54041
5292.47712,0.54081
5290.54838,0.54120
5288.61963,0.54116
5286.69089,0.53997
5284.76214,0.53831
5282.83340,0.53758
5280.90465,0.53701
5278.97591,0.53551
5277.04716,0.53385
5275.11842,0.53289
5273.18967,0.53246
5271.26092,0.53207
5269.33218,0.53176
5267.40343,0.53158
5265.47469,0.53107
5263.54594,0.52962
5261.61720,0.52751
5259.68845,0.52619
5257.75971,0.52614
5255.83096,0.52628
5253.90222,0.52589
5251.97347,0.52513
5250.04473,0.52403
5248.11598,0.52290
5246.18724,0.52238
5244.25849,0.52248
5242.32975,0.52276
5240.40100,0.52275
5238.47225,0.52218
5236.54351,0.52128
5234.61476,0.52052
5232.68602,0.51992
5230.75727,0.51906
5228.82853,0.51783
5226.89978,0.51668
5224.97104,0.51616
5223.04229,0.51632
5221.11355,0.51657
5219.18480,0.51634
5217.25606,0.51564
5215.32731,0.51490
5213.39857,0.51446
5211.46982,0.51451
5209.54107,0.51531
5207.61233,0.51646
5205.68358,0.51683
5203.75484,0.51633
5201.82609,0.51586
5199.89735,0.51571
5197.96860,0.51565
5196.03986,0.51530
5194.11111,0.51493
5192.18237,0.51517
5190.25362,0.51599
5188.32488,0.51707
5186.39613,0.51774
5184.46739,0.51760
5182.53864,0.51732
5180.60990,0.51745
5178.68115,0.51762
5176.75240,0.51730
5174.82366,0.51678
5172.89491,0.51643
5170.96617,0.51595
5169.03742,0.51558
5167.10868,0.51572
5165.17993,0.51608
5163.25119,0.51644
5161.32244,0.51667
5159.39370,0.51664
5157.46495,0.51656
5155.53621,0.51642
5153.60746,0.51602
5151.67872,0.51591
5149.74997,0.51643
5147.82123,0.51659
5145.89248,0.51597
5143.96373,0.51557
5142.03499,0.51568
5140.10624,0.51576
5138.17750,0.51581
5136.24875,0.51603
5134.32001,0.51620
5132.39126,0.51591
5130.46252,0.51557
5128.53377,0.51591
5126.60503,0.51670
5124.67628,0.51735
5122.74754,0.51743
5120.81879,0.51687
5118.89005,0.51641
5116.96130,0.51663
5115.03255,0.51712
5113.10381,0.51737
5111.17506,0.51733
5109.24632,0.51678
5107.31757,0.51563
5105.38883,0.51435
5103.46008,0.51382
5101.53134,0.51430
5099.60259,0.51469
5097.67385,0.51422
5095.74510,0.51352
5093.81636,0.51284
5091.88761,0.51182
5089.95887,0.51099
5088.03012,0.51077
5086.10138,0.51051
5084.17263,0.50973
5082.24388,0.50865
5080.31514,0.50800
5078.38639,0.50775
5076.45765,0.50714
5074.52890,0.50620
5072.60016,0.50499
5070.67141,0.50358
5068.74267,0.50282
5066.81392,0.50260
5064.88518,0.50217
5062.95643,0.50171
5061.02769,0.50138
5059.09894,0.50079
5057.17020,0.49979
5055.24145,0.49871
5053.31270,0.49793
5051.38396,0.49711
5049.45521,0.49582
5047.52647,0.49457
5045.59772,0.49391
5043.66898,0.49350
5041.74023,0.49264
5039.81149,0.49139
5037.88274,0.49053
5035.95400,0.48985
5034.02525,0.48864
5032.09651,0.48730
5030.16776,0.48634
5028.23902,0.48563
5026.31027,0.48513
5024.38153,0.48459
5022.45278,0.48354
5020.52403,0.48209
5018.59529,0.48074
5016.66654,0.47962
5014.73780,0.47858
5012.80905,0.47737
5010.88031,0.47567
5008.95156,0.47364
5007.02282,0.47178
5005.09407,0.47025
5003.16533,0.46881
5001.23658,0.46692
4999.30784,0.46460
4997.37909,0.46237
4995.45035,0.46023
4993.52160,0.45798
4991.59286,0.45536
4989.66411,0.45244
4987.73536,0.44977
4985.80662,0.44734
4983.87787,0.44480
4981.94913,0.44216
4980.02038,0.43944
4978.09164,0.43652
4976.16289,0.43354
4974.23415,0.43063
4972.30540,0.42775
4970.37666,0.42515
4968.44791,0.42280
4966.51917,0.42032
4964.59042,0.41784
4962.66168,0.41569
4960.73293,0.41379
4958.80418,0.41172
4956.87544,0.40941
4954.94669,0.40737
4953.01795,0.40553
4951.08920,0.40356
4949.16046,0.40147
4947.23171,0.39913
4945.30297,0.39671
4943.37422,0.39492
4941.44548,0.39402
4939.51673,0.39310
4937.58799,0.39118
4935.65924,0.38872
4933.73050,0.38669
4931.80175,0.38506
4929.87301,0.38328
4927.94426,0.38134
4926.01551,0.37980
4924.08677,0.37870
4922.15802,0.37732
4920.22928,0.37549
4918.30053,0.37346
4916.37179,0.37159
4914.44304,0.37019
4912.51430,0.36902
4910.58555,0.36774
4908.65681,0.36626
4906.72806,0.36489
4904.79932,0.36406
4902.87057,0.36331
4900.94183,0.36232
4899.01308,0.36158
4897.08434,0.36130
4895.15559,0.36100
4893.22684,0.36046
4891.29810,0.35984
4889.36935,0.35916
4887.44061,0.35877
4885.51186,0.35887
4883.58312,0.35916
4881.65437,0.35943
4879.72563,0.35950
4877.79688,0.35919
4875.86814,0.35866
4873.93939,0.35823
4872.01065,0.35831
4870.08190,0.35870
4868.15316,0.35867
4866.22441,0.35840
4864.29566,0.35862
4862.36692,0.35887
4860.43817,0.35857
4858.50943,0.35822
4856.58068,0.35843
4854.65194,0.35901
4852.72319,0.35941
4850.79445,0.35952
4848.86570,0.35987
4846.93696,0.36093
4845.00821,0.36231
4843.07947,0.36341
4841.15072,0.36429
4839.22198,0.36517
4837.29323,0.36605
4835.36449,0.36695
4833.43574,0.36807
4831.50699,0.36922
4829.57825,0.37003
4827.64950,0.37102
4825.72076,0.37261
4823.79201,0.37452
4821.86327,0.37643
4819.93452,0.37822
4818.00578,0.37994
4816.07703,0.38159
4814.14829,0.38312
4812.21954,0.38483
4810.29080,0.38687
4808.36205,0.38880
4806.43331,0.39018
4804.50456,0.39111
4802.57582,0.39199
4800.64707,0.39313
4798.71832,0.39465
4796.78958,0.39633
4794.86083,0.39773
4792.93209,0.39892
4791.00334,0.40047
4789.07460,0.40210
4787.14585,0.40314
4785.21711,0.40400
4783.28836,0.40532
4781.35962,0.40685
4779.43087,0.40807
4777.50213,0.40866
4775.57338,0.40909
4773.64464,0.41001
4771.71589,0.41127
4769.78714,0.41243
4767.85840,0.41352
4765.92965,0.41440
4764.00091,0.41474
4762.07216,0.41491
4760.14342,0.41532
4758.21467,0.41565
4756.28593,0.41580
4754.35718,0.41606
4752.42844,0.41655
4750.49969,0.41705
4748.57095,0.41722
4746.64220,0.41705
4744.71346,0.41633
4742.78471,0.41523
4740.85597,0.41438
4738.92722,0.41367
4736.99847,0.41296
4735.06973,0.41234
4733.14098,0.41174
4731.21224,0.41126
4729.28349,0.41066
4727.35475,0.40935
4725.42600,0.40751
4723.49726,0.40570
4721.56851,0.40387
4719.63977,0.40198
4717.71102,0.40048
4715.78228,0.39951
4713.85353,0.39861
4711.92479,0.39738
4709.99604,0.39575
4708.06729,0.39397
4706.13855,0.39263
4704.20980,0.39173
4702.28106,0.39100
4700.35231,0.39057
4698.42357,0.39010
4696.49482,0.38908
4694.56608,0.38764
4692.63733,0.38608
4690.70859,0.38475
4688.77984,0.38357
4686.85110,0.38214
4684.92235,0.38068
4682.99361,0.37971
4681.06486,0.37900
4679.13612,0.37792
4677.20737,0.37628
4675.27862,0.37459
4673.34988,0.37306
4671.42113,0.37164
4669.49239,0.37041
4667.56364,0.36934
4665.63490,0.36826
4663.70615,0.36694
4661.77741,0.36571
4659.84866,0.36519
4657.91992,0.36519
4655.99117,0.36475
4654.06243,0.36358
4652.13368,0.36219
4650.20494,0.36085
4648.27619,0.35940
4646.34745,0.35786
4644.41870,0.35632
4642.48995,0.35458
4640.56121,0.35291
4638.63246,0.35182
4636.70372,0.35105
4634.77497,0.35002
4632.84623,0.34861
4630.91748,0.34730
4628.98874,0.34665
4627.05999,0.34673
4625.13125,0.34725
4623.20250,0.34784
4621.27376,0.34841
4619.34501,0.34907
4617.41627,0.34961
4615.48752,0.34990
4613.55877,0.35016
4611.63003,0.35062
4609.70128,0.35137
4607.77254,0.35227
4605.84379,0.35314
4603.91505,0.35408
4601.98630,0.35487
4600.05756,0.35533
4598.12881,0.35583
4596.20007,0.35648
4594.27132,0.35690
4592.34258,0.35711
4590.41383,0.35733
4588.48509,0.35755
4586.55634,0.35776
4584.62760,0.35779
4582.69885,0.35757
4580.77010,0.35737
4578.84136,0.35726
4576.91261,0.35704
4574.98387,0.35669
4573.05512,0.35648
4571.12638,0.35656
4569.19763,0.35655
4567.26889,0.35657
4565.34014,0.35717
4563.41140,0.35797
4561.48265,0.35834
4559.55391,0.35844
4557.62516,0.35861
4555.69642,0.35893
4553.76767,0.35903
4551.83893,0.35876
4549.91018,0.35856
4547.98143,0.35856
4546.05269,0.35856
4544.12394,0.35867
4542.19520,0.35870
4540.26645,0.35838
4538.33771,0.35805
4536.40896,0.35790
4534.48022,0.35772
4532.55147,0.35753
4530.62273,0.35742
4528.69398,0.35725
4526.76524,0.35700
4524.83649,0.35672
4522.90775,0.35640
4520.97900,0.35625
4519.05025,0.35617
4517.12151,0.35593
4515.19276,0.35555
4513.26402,0.35511
4511.33527,0.35459
4509.40653,0.35404
4507.47778,0.35368
4505.54904,0.35352
4503.62029,0.35349
4501.69155,0.35342
4499.76280,0.35301
4497.83406,0.35220
4495.90531,0.35119
4493.97657,0.35025
4492.04782,0.34949
4490.11908,0.34872
4488.19033,0.34760
4486.26158,0.34625
4484.33284,0.34487
4482.40409,0.34315
4480.47535,0.34099
4478.54660,0.33877
4476.61786,0.33662
4474.68911,0.33423
4472.76037,0.33138
4470.83162,0.32820
4468.90288,0.32495
4466.97413,0.32177
4465.04539,0.31857
4463.11664,0.31473
4461.18790,0.31002
4459.25915,0.30511
4457.33041,0.30044
4455.40166,0.29570
4453.47291,0.29040
4451.54417,0.28458
4449.61542,0.27862
4447.68668,0.27233
4445.75793,0.26573
4443.82919,0.25923
4441.90044,0.25271
4439.97170,0.24585
4438.04295,0.23894
4436.11421,0.23250
4434.18546,0.22657
4432.25672,0.22101
4430.32797,0.21577
4428.39923,0.21042
4426.47048,0.20495
4424.54173,0.19995
4422.61299,0.19558
4420.68424,0.19156
4418.75550,0.18780
4416.82675,0.18461
4414.89801,0.18259
4412.96926,0.18153
4411.04052,0.18075
4409.11177,0.18062
4407.18303,0.18142
4405.25428,0.18269
4403.32554,0.18428
4401.39679,0.18618
4399.46805,0.18789
4397.53930,0.18913
4395.61056,0.19002
4393.68181,0.19042
4391.75306,0.19010
4389.82432,0.18910
4387.89557,0.18754
4385.96683,0.18592
4384.03808,0.18456
4382.10934,0.18291
4380.18059,0.18047
4378.25185,0.17765
4376.32310,0.17511
4374.39436,0.17275
4372.46561,0.17019
4370.53687,0.16763
4368.60812,0.16530
4366.67938,0.16278
4364.75063,0.15988
4362.82189,0.15709
4360.89314,0.15452
4358.96439,0.15198
4357.03565,0.14947
4355.10690,0.14680
4353.17816,0.14405
4351.24941,0.14166
4349.32067,0.13964
4347.39192,0.13778
4345.46318,0.13604
4343.53443,0.13445
4341.60569,0.13320
4339.67694,0.13227
4337.74820,0.13149
4335.81945,0.13109
4333.89071,0.13107
4331.96196,0.13102
4330.03321,0.13103
4328.10447,0.13156
4326.17572,0.13257
4324.24698,0.13385
4322.31823,0.13521
4320.38949,0.13661
4318.46074,0.13837
4316.53200,0.14057
4314.60325,0.14281
4312.67451,0.14482
4310.74576,0.14701
4308.81702,0.14976
4306.88827,0.15267
4304.95953,0.15533
4303.03078,0.15784
4301.10204,0.16035
4299.17329,0.16270
4297.24454,0.16475
4295.31580,0.16648
4293.38705,0.16792
4291.45831,0.16905
4289.52956,0.16981
4287.60082,0.17046
4285.67207,0.17110
4283.74333,0.17131
4281.81458,0.17103
4279.88584,0.17064
4277.95709,0.17028
4276.02835,0.17007
4274.09960,0.17013
4272.17086,0.17062
4270.24211,0.17140
4268.31336,0.17206
4266.38462,0.17258
4264.45587,0.17319
4262.52713,0.17394
4260.59838,0.17486
4258.66964,0.17573
4256.74089,0.17637
4254.81215,0.17714
4252.88340,0.17820
4250.95466,0.17929
4249.02591,0.18015
4247.09717,0.18067
4245.16842,0.18093
4243.23968,0.18120
4241.31093,0.18181
4239.38219,0.18272
4237.45344,0.18354
4235.52469,0.18414
4233.59595,0.18460
4231.66720,0.18491
4229.73846,0.18514
4227.80971,0.18561
4225.88097,0.18656
4223.95222,0.18767
4222.02348,0.18853
4220.09473,0.18929
4218.16599,0.19037
4216.23724,0.19183
4214.30850,0.19329
4212.37975,0.19445
4210.45101,0.19542
4208.52226,0.19642
4206.59352,0.19762
4204.66477,0.19907
4202.73602,0.20041
4200.80728,0.20132
4198.87853,0.20197
4196.94979,0.20260
4195.02104,0.20320
4193.09230,0.20362
4191.16355,0.20380
4189.23481,0.20399
4187.30606,0.20419
4185.37732,0.20406
4183.44857,0.20362
4181.51983,0.20305
4179.59108,0.20236
4177.66234,0.20161
4175.73359,0.20084
4173.80484,0.20014
4171.87610,0.19928
4169.94735,0.19824
4168.01861,0.19765
4166.08986,0.19757
4164.16112,0.19734
4162.23237,0.19674
4160.30363,0.19600
4158.37488,0.19526
4156.44614,0.19464
4154.51739,0.19429
4152.58865,0.19417
4150.65990,0.19407
4148.73116,0.19381
4146.80241,0.19338
4144.87367,0.19289
4142.94492,0.19263
4141.01617,0.19271
4139.08743,0.19275
4137.15868,0.19261
4135.22994,0.19258
4133.30119,0.19274
4131.37245,0.19270
4129.44370,0.19231
4127.51496,0.19182
4125.58621,0.19125
4123.65747,0.19039
4121.72872,0.18942
4119.79998,0.18869
4117.87123,0.18818
4115.94249,0.18758
4114.01374,0.18670
4112.08500,0.18578
4110.15625,0.18493
4108.22750,0.18388
4106.29876,0.18249
4104.37001,0.18132
4102.44127,0.18067
4100.51252,0.17982
4098.58378,0.17825
4096.65503,0.17664
4094.72629,0.17551
4092.79754,0.17457
4090.86880,0.17334
4088.94005,0.17179
4087.01131,0.17018
4085.08256,0.16857
4083.15382,0.16694
4081.22507,0.16536
4079.29632,0.16377
4077.36758,0.16225
4075.43883,0.16079
4073.51009,0.15909
4071.58134,0.15734
4069.65260,0.15604
4067.72385,0.15496
4065.79511,0.15356
4063.86636,0.15203
4061.93762,0.15077
4060.00887,0.14979
4058.08013,0.14915
4056.15138,0.14881
4054.22264,0.14838
4052.29389,0.14792
4050.36515,0.14765
4048.43640,0.14754
4046.50765,0.14741
4044.57891,0.14709
4042.65016,0.14673
4040.72142,0.14660
4038.79267,0.14684
4036.86393,0.14727
4034.93518,0.14751
4033.00644,0.14741
4031.07769,0.14711
4029.14895,0.14668
4027.22020,0.14645
4025.29146,0.14683
4023.36271,0.14748
4021.43397,0.14793
4019.50522,0.14828
4017.57648,0.14867
4015.64773,0.14906
4013.71898,0.14952
4011.79024,0.14999
4009.86149,0.15005
4007.93275,0.14993
4006.00400,0.15028
4004.07526,0.15098
4002.14651,0.15161
4000.21777,0.15207
3998.28902,0.15237
3996.36028,0.15282
3994.43153,0.15367
3992.50279,0.15460
3990.57404,0.15522
3988.64530,0.15589
3986.71655,0.15711
3984.78780,0.15848
3982.85906,0.15958
3980.93031,0.16057
3979.00157,0.16152
3977.07282,0.16270
3975.14408,0.16414
3973.21533,0.16536
3971.28659,0.16635
3969.35784,0.16768
3967.42910,0.16936
3965.50035,0.17067
3963.57161,0.17159
3961.64286,0.17276
3959.71412,0.17405
3957.78537,0.17520
3955.85663,0.17660
3953.92788,0.17836
3951.99913,0.18018
3950.07039,0.18201
3948.14164,0.18374
3946.21290,0.18533
3944.28415,0.18712
3942.35541,0.18917
3940.42666,0.19115
3938.49792,0.19304
3936.56917,0.19498
3934.64043,0.19698
3932.71168,0.19912
3930.78294,0.20139
3928.85419,0.20353
3926.92545,0.20538
3924.99670,0.20702
3923.06795,0.20861
3921.13921,0.21025
3919.21046,0.21199
3917.28172,0.21360
3915.35297,0.21472
3913.42423,0.21560
3911.49548,0.21670
3909.56674,0.21801
3907.63799,0.21943
3905.70925,0.22066
3903.78050,0.22135
3901.85176,0.22174
3899.92301,0.22221
3897.99427,0.22296
3896.06552,0.22412
3894.13678,0.22545
3892.20803,0.22645
3890.27928,0.22698
3888.35054,0.22756
3886.42179,0.22824
3884.49305,0.22858
3882.56430,0.22882
3880.63556,0.22914
3878.70681,0.22937
3876.77807,0.22964
3874.84932,0.23008
3872.92058,0.23058
3870.99183,0.23084
3869.06309,0.23080
3867.13434,0.23087
3865.20560,0.23106
3863.27685,0.23113
3861.34811,0.23127
3859.41936,0.23181
3857.49061,0.23279
3855.56187,0.23384
3853.63312,0.23385
3851.70438,0.23295
3849.77563,0.23287
3847.84689,0.23360
3845.91814,0.23457
3843.98940,0.23544
3842.06065,0.23614
3840.13191,0.23702
3838.20316,0.23808
3836.27442,0.23879
3834.34567,0.23935
3832.41693,0.24019
3830.48818,0.24106
3828.55943,0.24160
3826.63069,0.24220
3824.70194,0.24333
3822.77320,0.24456
3820.84445,0.24513
3818.91571,0.24540
3816.98696,0.24572
3815.05822,0.24568
3813.12947,0.24560
3811.20073,0.24592
3809.27198,0.24640
3807.34324,0.24680
3805.41449,0.24729
3803.48575,0.24810
3801.55700,0.24868
3799.62826,0.24890
3797.69951,0.24943
3795.77076,0.24996
3793.84202,0.25011
3791.91327,0.25045
3789.98453,0.25127
3788.05578,0.25214
3786.12704,0.25296
3784.19829,0.25410
3782.26955,0.25550
3780.34080,0.25680
3778.41206,0.25792
3776.48331,0.25897
3774.55457,0.26022
3772.62582,0.26183
3770.69708,0.26367
3768.76833,0.26547
3766.83959,0.26726
3764.91084,0.26912
3762.98209,0.27098
3761.05335,0.27274
3759.12460,0.27446
3757.19586,0.27636
3755.26711,0.27827
3753.33837,0.28005
3751.40962,0.28153
3749.48088,0.28260
3747.55213,0.28377
3745.62339,0.28504
3743.69464,0.28632
3741.76590,0.28785
3739.83715,0.28941
3737.90841,0.29070
3735.97966,0.29176
3734.05091,0.29256
3732.12217,0.29326
3730.19342,0.29415
3728.26468,0.29500
3726.33593,0.29573
3724.40719,0.29672
3722.47844,0.29789
3720.54970,0.29874
3718.62095,0.29927
3716.69221,0.29988
3714.76346,0.30057
3712.83472,0.30109
3710.90597,0.30140
3708.97723,0.30141
3707.04848,0.30108
3705.11974,0.30070
3703.19099,0.30040
3701.26224,0.29998
3699.33350,0.29946
3697.40475,0.29880
3695.47601,0.29806
3693.54726,0.29769
3691.61852,0.29736
3689.68977,0.29614
3687.76103,0.29404
3685.83228,0.29221
3683.90354,0.29103
3681.97479,0.28997
3680.04605,0.28860
3678.11730,0.28695
3676.18856,0.28454
3674.25981,0.28161
3672.33107,0.27947
3670.40232,0.27758
3668.47357,0.27554
3666.54483,0.27375
3664.61608,0.27193
3662.68734,0.27005
3660.75859,0.26821
3658.82985,0.26636
3656.90110,0.26414
3654.97236,0.26147
3653.04361,0.25895
3651.11487,0.25641
3649.18612,0.25345
3647.25738,0.25062
3645.32863,0.24834
3643.39989,0.24619
3641.47114,0.24396
3639.54239,0.24187
3637.61365,0.23985
3635.68490,0.23770
3633.75616,0.23568
3631.82741,0.23389
3629.89867,0.23123
3627.96992,0.22745
3626.04118,0.22453
3624.11243,0.22250
3622.18369,0.22039
3620.25494,0.21818
3618.32620,0.21608
3616.39745,0.21415
3614.46871,0.21220
3612.53996,0.20994
3610.61122,0.20729
3608.68247,0.20451
3606.75372,0.20196
3604.82498,0.19957
3602.89623,0.19692
3600.96749,0.19397
3599.03874,0.19108
3597.11000,0.18844
3595.18125,0.18600
3593.25251,0.18355
3591.32376,0.18119
3589.39502,0.17926
3587.46627,0.17743
3585.53753,0.17528
3583.60878,0.17323
3581.68004,0.17168
3579.75129,0.17022
3577.82254,0.16849
3575.89380,0.16681
3573.96505,0.16546
3572.03631,0.16425
3570.10756,0.16286
3568.17882,0.16111
3566.25007,0.15912
3564.32133,0.15715
3562.39258,0.15526
3560.46384,0.15363
3558.53509,0.15226
3556.60635,0.15055
3554.67760,0.14859
3552.74886,0.14712
3550.82011,0.14604
3548.89137,0.14455
3546.96262,0.14256
3545.03387,0.14064
3543.10513,0.13881
3541.17638,0.13680
3539.24764,0.13481
3537.31889,0.13315
3535.39015,0.13164
3533.46140,0.13012
3531.53266,0.12862
3529.60391,0.12692
3527.67517,0.12508
3525.74642,0.12358
3523.81768,0.12244
3521.88893,0.12127
3519.96019,0.11991
3518.03144,0.11847
3516.10270,0.11731
3514.17395,0.11651
3512.24520,0.11563
3510.31646,0.11449
3508.38771,0.11336
3506.45897,0.11245
3504.53022,0.11180
3502.60148,0.11121
3500.67273,0.11040
3498.74399,0.10947
3496.81524,0.10850
3494.88650,0.10728
3492.95775,0.10591
3491.02901,0.10470
3489.10026,0.10380
3487.17152,0.10303
3485.24277,0.10208
3483.31402,0.10098
3481.38528,0.09983
3479.45653,0.09855
3477.52779,0.09706
3475.59904,0.09556
3473.67030,0.09405
3471.74155,0.09218
3469.81281,0.08995
3467.88406,0.08745
3465.95532,0.08474
3464.02657,0.08222
3462.09783,0.08013
3460.16908,0.07823
3458.24034,0.07648
3456.31159,0.07521
3454.38285,0.07432
3452.45410,0.07326
3450.52535,0.07202
3448.59661,0.07108
3446.66786,0.07044
3444.73912,0.06979
3442.81037,0.06923
3440.88163,0.06878
3438.95288,0.06802
3437.02414,0.06688
3435.09539,0.06569
3433.16665,0.06451
3431.23790,0.06307
3429.30916,0.06145
3427.38041,0.05992
3425.45167,0.05840
3423.52292,0.05668
3421.59418,0.05496
3419.66543,0.05347
3417.73668,0.05215
3415.80794,0.05090
3413.87919,0.04971
3411.95045,0.04857
3410.02170,0.04744
3408.09296,0.04640
3406.16421,0.04547
3404.23547,0.04460
3402.30672,0.04371
3400.37798,0.04265
3398.44923,0.04145
3396.52049,0.04031
3394.59174,0.03933
3392.66300,0.03834
3390.73425,0.03716
3388.80550,0.03611
3386.87676,0.03547
3384.94801,0.03501
3383.01927,0.03468
3381.09052,0.03441
3379.16178,0.03403
3377.23303,0.03348
3375.30429,0.03292
3373.37554,0.03245
3371.44680,0.03190
3369.51805,0.03131
3367.58931,0.03088
3365.66056,0.03072
3363.73182,0.03072
3361.80307,0.03074
3359.87433,0.03065
3357.94558,0.03044
3356.01683,0.03014
3354.08809,0.02977
3352.15934,0.02945
3350.23060,0.02939
3348.30185,0.02957
3346.37311,0.02968
3344.44436,0.02948
3342.51562,0.02911
3340.58687,0.02889
3338.65813,0.02877
3336.72938,0.02880
3334.80064,0.02902
3332.87189,0.02916
3330.94315,0.02911
3329.01440,0.02884
3327.08566,0.02840
3325.15691,0.02805
3323.22816,0.02807
3321.29942,0.02845
3319.37067,0.02879
3317.44193,0.02889
3315.51318,0.02890
3313.58444,0.02857
3311.65569,0.02797
3309.72695,0.02776
3307.79820,0.02808
3305.86946,0.02841
3303.94071,0.02848
3302.01197,0.02842
3300.08322,0.02835
3298.15448,0.02834
3296.22573,0.02813
3294.29698,0.02761
3292.36824,0.02737
3290.43949,0.02783
3288.51075,0.02852
3286.58200,0.02903
3284.65326,0.02938
3282.72451,0.02953
3280.79577,0.02944
3278.86702,0.02918
3276.93828,0.02895
3275.00953,0.02905
3273.08079,0.02935
3271.15204,0.02944
3269.22330,0.02945
3267.29455,0.02975
3265.36581,0.03017
3263.43706,0.03031
3261.50831,0.03032
3259.57957,0.03054
3257.65082,0.03095
3255.72208,0.03122
3253.79333,0.03114
3251.86459,0.03115
3249.93584,0.03152
3248.00710,0.03197
3246.07835,0.03240
3244.14961,0.03287
3242.22086,0.03319
3240.29212,0.03329
3238.36337,0.03339
3236.43463,0.03382
3234.50588,0.03458
3232.57713,0.03522
3230.64839,0.03534
3228.71964,0.03510
3226.79090,0.03495
3224.86215,0.03508
3222.93341,0.03549
3221.00466,0.03598
3219.07592,0.03622
3217.14717,0.03634
3215.21843,0.03667
3213.28968,0.03718
3211.36094,0.03764
3209.43219,0.03782
3207.50345,0.03773
3205.57470,0.03771
3203.64596,0.03789
3201.71721,0.03809
3199.78846,0.03821
3197.85972,0.03831
3195.93097,0.03836
3194.00223,0.03841
3192.07348,0.03871
3190.14474,0.03914
3188.21599,0.03942
3186.28725,0.03965
3184.35850,0.04015
3182.42976,0.04092
3180.50101,0.04160
3178.57227,0.04202
3176.64352,0.04243
3174.71478,0.04312
3172.78603,0.04390
3170.85729,0.04455
3168.92854,0.04509
3166.99979,0.04543
3165.07105,0.04570
3163.14230,0.04604
3161.21356,0.04620
3159.28481,0.04629
3157.35607,0.04658
3155.42732,0.04678
3153.49858,0.04662
3151.56983,0.04655
3149.64109,0.04694
3147.71234,0.04742
3145.78360,0.04744
3143.85485,0.04709
3141.92611,0.04691
3139.99736,0.04689
3138.06861,0.04660
3136.13987,0.04606
3134.21112,0.04543
3132.28238,0.04491
3130.35363,0.04476
3128.42489,0.04491
3126.49614,0.04515
3124.56740,0.04536
3122.63865,0.04547
3120.70991,0.04557
3118.78116,0.04576
3116.85242,0.04609
3114.92367,0.04649
3112.99493,0.04675
3111.06618,0.04695
3109.13744,0.04727
3107.20869,0.04737
3105.27994,0.04701
3103.35120,0.04688
3101.42245,0.04745
3099.49371,0.04811
3097.56496,0.04821
3095.63622,0.04794
3093.70747,0.04771
3091.77873,0.04760
3089.84998,0.04747
3087.92124,0.04713
3085.99249,0.04666
3084.06375,0.04627
3082.13500,0.04590
3080.20626,0.04547
3078.27751,0.04498
3076.34877,0.04457
3074.42002,0.04433
3072.49127,0.04411
3070.56253,0.04378
3068.63378,0.04346
3066.70504,0.04329
3064.77629,0.04326
3062.84755,0.04321
3060.91880,0.04302
3058.99006,0.04282
3057.06131,0.04293
3055.13257,0.04333
3053.20382,0.04343
3051.27508,0.04311
3049.34633,0.04299
3047.41759,0.04325
3045.48884,0.04336
3043.56009,0.04314
3041.63135,0.04281
3039.70260,0.04255
3037.77386,0.04225
3035.84511,0.04172
3033.91637,0.04113
3031.98762,0.04071
3030.05888,0.04033
3028.13013,0.03998
3026.20139,0.04009
3024.27264,0.04067
3022.34390,0.04121
3020.41515,0.04142
3018.48641,0.04133
3016.55766,0.04103
3014.62892,0.04059
3012.70017,0.03997
3010.77142,0.03936
3008.84268,0.03874
3006.91393,0.03775
3004.98519,0.03651
3003.05644,0.03546
3001.12770,0.03446
2999.19895,0.03315
2997.27021,0.03174
2995.34146,0.03058
2993.41272,0.02977
2991.48397,0.02912
2989.55523,0.02854
2987.62648,0.02806
2985.69774,0.02769
2983.76899,0.02742
2981.84025,0.02711
2979.91150,0.02684
2977.98275,0.02681
2976.05401,0.02681
2974.12526,0.02668
2972.19652,0.02655
2970.26777,0.02665
2968.33903,0.02685
2966.41028,0.02704
2964.48154,0.02732
2962.55279,0.02749
2960.62405,0.02737
2958.69530,0.02730
2956.76656,0.02752
2954.83781,0.02780
2952.90907,0.02778
2950.98032,0.02745
2949.05157,0.02714
2947.12283,0.02693
2945.19408,0.02671
2943.26534,0.02661
2941.33659,0.02660
2939.40785,0.02651
2937.47910,0.02632
2935.55036,0.02610
2933.62161,0.02602
2931.69287,0.02610
2929.76412,0.02615
2927.83538,0.02609
2925.90663,0.02616
2923.97789,0.02638
2922.04914,0.02644
2920.12040,0.02628
2918.19165,0.02626
2916.26290,0.02653
2914.33416,0.02665
2912.40541,0.02632
2910.47667,0.02603
2908.54792,0.02626
2906.61918,0.02675
2904.69043,0.02704
2902.76169,0.02700
2900.83294,0.02693
2898.90420,0.02709
2896.97545,0.02722
2895.04671,0.02707
2893.11796,0.02691
2891.18922,0.02690
2889.26047,0.02689
2887.33172,0.02685
2885.40298,0.02679
2883.47423,0.02665
2881.54549,0.02645
2879.61674,0.02628
2877.68800,0.02631
2875.75925,0.02667
2873.83051,0.02711
2871.90176,0.02736
2869.97302,0.02759
2868.04427,0.02785
2866.11553,0.02790
2864.18678,0.02780
2862.25804,0.02782
2860.32929,0.02796
2858.40055,0.02801
2856.47180,0.02804
2854.54305,0.02822
2852.61431,0.02854
2850.68556,0.02896
2848.75682,0.02941
2846.82807,0.02987
2844.89933,0.03049
2842.97058,0.03126
2841.04184,0.03194
2839.11309,0.03247
2837.18435,0.03299
2835.25560,0.03354
2833.32686,0.03408
2831.39811,0.03473
2829.46937,0.03552
2827.54062,0.03623
2825.61188,0.03681
2823.68313,0.03738
2821.75438,0.03807
2819.82564,0.03867
2817.89689,0.03891
2815.96815,0.03907
2814.03940,0.03950
2812.11066,0.03999
2810.18191,0.04040
2808.25317,0.04078
2806.32442,0.04095
2804.39568,0.04090
2802.46693,0.04103
2800.53819,0.04153
2798.60944,0.04211
2796.68070,0.04253
2794.75195,0.04283
2792.82320,0.04296
2790.89446,0.04300
2788.96571,0.04331
2787.03697,0.04394
2785.10822,0.04451
2783.17948,0.04477
2781.25073,0.04490
2779.32199,0.04519
2777.39324,0.04570
2775.46450,0.04633
2773.53575,0.04690
2771.60701,0.04724
2769.67826,0.04755
2767.74952,0.04805
2765.82077,0.04867
2763.89203,0.04934
2761.96328,0.04993
2760.03453,0.05027
2758.10579,0.05050
2756.17704,0.05086
2754.24830,0.05127
2752.31955,0.05175
2750.39081,0.05234
2748.46206,0.05291
2746.53332,0.05334
2744.60457,0.05362
2742.67583,0.05397
2740.74708,0.05455
2738.81834,0.05517
2736.88959,0.05577
2734.96085,0.05635
2733.03210,0.05697
2731.10336,0.05765
2729.17461,0.05830
2727.24586,0.05899
2725.31712,0.05990
2723.38837,0.06110
2721.45963,0.06254
2719.53088,0.06398
2717.60214,0.06520
2715.67339,0.06623
2713.74465,0.06725
2711.81590,0.06839
2709.88716,0.06956
2707.95841,0.07050
2706.02967,0.07128
2704.10092,0.07222
2702.17218,0.07332
2700.24343,0.07442
2698.31468,0.07551
2696.38594,0.07681
2694.45719,0.07831
2692.52845,0.07963
2690.59970,0.08071
2688.67096,0.08184
2686.74221,0.08313
2684.81347,0.08437
2682.88472,0.08533
2680.95598,0.08595
2679.02723,0.08647
2677.09849,0.08703
2675.16974,0.08757
2673.24100,0.08796
2671.31225,0.08839
2669.38351,0.08909
2667.45476,0.08985
2665.52601,0.09056
2663.59727,0.09148
2661.66852,0.09252
2659.73978,0.09335
2657.81103,0.09401
2655.88229,0.09462
2653.95354,0.09512
2652.02480,0.09549
2650.09605,0.09598
2648.16731,0.09653
2646.23856,0.09688
2644.30982,0.09707
2642.38107,0.09737
2640.45233,0.09776
2638.52358,0.09829
2636.59484,0.09914
2634.66609,0.10020
2632.73734,0.10125
2630.80860,0.10249
2628.87985,0.10399
2626.95111,0.10545
2625.02236,0.10679
2623.09362,0.10799
2621.16487,0.10893
2619.23613,0.10957
2617.30738,0.11004
2615.37864,0.11043
2613.44989,0.11060
2611.52115,0.11056
2609.59240,0.11041
2607.66366,0.11011
2605.73491,0.10973
2603.80616,0.10932
2601.87742,0.10883
2599.94867,0.10838
2598.01993,0.10822
2596.09118,0.10824
2594.16244,0.10830
2592.23369,0.10843
2590.30495,0.10848
2588.37620,0.10855
2586.44746,0.10901
2584.51871,0.10980
2582.58997,0.11063
2580.66122,0.11160
2578.73248,0.11304
2576.80373,0.11491
2574.87499,0.11694
2572.94624,0.11906
2571.01749,0.12133
2569.08875,0.12363
2567.16000,0.12572
2565.23126,0.12756
2563.30251,0.12923
2561.37377,0.13078
2559.44502,0.13228
2557.51628,0.13371
2555.58753,0.13492
2553.65879,0.13587
2551.73004,0.13663
2549.80130,0.13726
2547.87255,0.13805
2545.94381,0.13913
2544.01506,0.14020
2542.08631,0.14100
2540.15757,0.14152
2538.22882,0.14167
2536.30008,0.14150
2534.37133,0.14126
2532.44259,0.14115
2530.51384,0.14121
2528.58510,0.14143
2526.65635,0.14165
2524.72761,0.14170
2522.79886,0.14164
2520.87012,0.14170
2518.94137,0.14194
2517.01263,0.14220
2515.08388,0.14231
2513.15514,0.14223
2511.22639,0.14217
2509.29764,0.14254
2507.36890,0.14329
2505.44015,0.14393
2503.51141,0.14434
2501.58266,0.14480
2499.65392,0.14545
2497.72517,0.14632
2495.79643,0.14735
2493.86768,0.14839
2491.93894,0.14934
2490.01019,0.15025
2488.08145,0.15125
2486.15270,0.15232
2484.22396,0.15321
2482.29521,0.15377
2480.36647,0.15432
2478.43772,0.15512
2476.50897,0.15607
2474.58023,0.15697
2472.65148,0.15779
2470.72274,0.15862
2468.79399,0.15932
2466.86525,0.15985
2464.93650,0.16047
2463.00776,0.16141
2461.07901,0.16244
2459.15027,0.16318
2457.22152,0.16377
2455.29278,0.16444
2453.36403,0.16515
2451.43529,0.16588
2449.50654,0.16672
2447.57779,0.16770
2445.64905,0.16861
2443.72030,0.16948
2441.79156,0.17055
2439.86281,0.17173
2437.93407,0.17281
2436.00532,0.17374
2434.07658,0.17449
2432.14783,0.17516
2430.21909,0.17590
2428.29034,0.17673
2426.36160,0.17746
2424.43285,0.17796
2422.50411,0.17840
2420.57536,0.17884
2418.64662,0.17906
2416.71787,0.17902
2414.78912,0.17877
2412.86038,0.17845
2410.93163,0.17812
2409.00289,0.17782
2407.07414,0.17756
2405.14540,0.17731
2403.21665,0.17710
2401.28791,0.17688
2399.35916,0.17654
2397.43042,0.17604
2395.50167,0.17552
2393.57293,0.17494
2391.64418,0.17426
2389.71544,0.17381
2387.78669,0.17370
2385.85795,0.17351
2383.92920,0.17293
2382.00045,0.17220
2380.07171,0.17175
2378.14296,0.17157
2376.21422,0.17131
2374.28547,0.17092
2372.35673,0.17064
2370.42798,0.17052
2368.49924,0.17037
2366.57049,0.17010
2364.64175,0.16989
2362.71300,0.16996
2360.78426,0.17019
2358.85551,0.17021
2356.92677,0.16993
2354.99802,0.16965
2353.06927,0.16946
2351.14053,0.16929
2349.21178,0.16913
2347.28304,0.16888
2345.35429,0.16860
2343.42555,0.16836
2341.49680,0.16811
2339.56806,0.16779
2337.63931,0.16752
2335.71057,0.16749
2333.78182,0.16765
2331.85308,0.16761
2329.92433,0.16710
2327.99559,0.16631
2326.06684,0.16550
2324.13810,0.16456
2322.20935,0.16333
2320.28060,0.16181
2318.35186,0.16016
2316.42311,0.15828
2314.49437,0.15608
2312.56562,0.15380
2310.63688,0.15160
2308.70813,0.14945
2306.77939,0.14729
2304.85064,0.14495
2302.92190,0.14240
2300.99315,0.13981
2299.06441,0.13734
2297.13566,0.13488
2295.20692,0.13236
2293.27817,0.12986
2291.34943,0.12729
2289.42068,0.12458
2287.49193,0.12188
2285.56319,0.11938
2283.63444,0.11686
2281.70570,0.11427
2279.77695,0.11197
2277.84821,0.11004
2275.91946,0.10840
2273.99072,0.10723
2272.06197,0.10674
2270.13323,0.10701
2268.20448,0.10798
2266.27574,0.10937
2264.34699,0.11086
2262.41825,0.11248
2260.48950,0.11425
2258.56075,0.11600
2256.63201,0.11782
2254.70326,0.11956
2252.77452,0.12075
2250.84577,0.12137
2248.91703,0.12169
2246.98828,0.12160
2245.05954,0.12077
2243.13079,0.11938
2241.20205,0.11797
2239.27330,0.11703
2237.34456,0.11721
2235.41581,0.11897
2233.48707,0.12201
2231.55832,0.12545
2229.62958,0.12844
2227.70083,0.13073
2225.77208,0.13253
2223.84334,0.13388
2221.91459,0.13474
2219.98585,0.13543
2218.05710,0.13628
2216.12836,0.13720
2214.19961,0.13798
2212.27087,0.13863
2210.34212,0.13911
2208.41338,0.13950
2206.48463,0.14000
2204.55589,0.14057
2202.62714,0.14097
2200.69840,0.14121
2198.76965,0.14154
2196.84090,0.14199
2194.91216,0.14226
2192.98341,0.14242
2191.05467,0.14275
2189.12592,0.14309
2187.19718,0.14329
2185.26843,0.14342
2183.33969,0.14354
2181.41094,0.14371
2179.48220,0.14392
2177.55345,0.14402
2175.62471,0.14395
2173.69596,0.14377
2171.76722,0.14354
2169.83847,0.14340
2167.90973,0.14341
2165.98098,0.14344
2164.05223,0.14334
2162.12349,0.14313
2160.19474,0.14302
2158.26600,0.14306
2156.33725,0.14320
2154.40851,0.14349
2152.47976,0.14388
2150.55102,0.14415
2148.62227,0.14426
2146.69353,0.14428
2144.76478,0.14440
2142.83604,0.14473
2140.90729,0.14522
2138.97855,0.14565
2137.04980,0.14590
2135.12106,0.14612
2133.19231,0.14630
2131.26356,0.14641
2129.33482,0.14664
2127.40607,0.14710
2125.47733,0.14764
2123.54858,0.14811
2121.61984,0.14854
2119.69109,0.14892
2117.76235,0.14921
2115.83360,0.14935
2113.90486,0.14936
2111.97611,0.14944
2110.04737,0.14962
2108.11862,0.14965
2106.18988,0.14935
2104.26113,0.14898
2102.33238,0.14879
2100.40364,0.14862
2098.47489,0.14824
2096.54615,0.14769
2094.61740,0.14721
2092.68866,0.14680
2090.75991,0.14627
2088.83117,0.14572
2086.90242,0.14528
2084.97368,0.14483
2083.04493,0.14435
2081.11619,0.14390
2079.18744,0.14344
2077.25870,0.14299
2075.32995,0.14270
2073.40121,0.14251
2071.47246,0.14222
2069.54371,0.14194
2067.61497,0.14184
2065.68622,0.14182
2063.75748,0.14167
2061.82873,0.14145
2059.89999,0.14132
2057.97124,0.14116
2056.04250,0.14088
2054.11375,0.14046
2052.18501,0.13989
2050.25626,0.13917
2048.32752,0.13832
2046.39877,0.13738
2044.47003,0.13637
2042.54128,0.13529
2040.61254,0.13422
2038.68379,0.13313
2036.75504,0.13201
2034.82630,0.13098
2032.89755,0.13010
2030.96881,0.12927
2029.04006,0.12853
2027.11132,0.12783
2025.18257,0.12711
2023.25383,0.12650
2021.32508,0.12601
2019.39634,0.12548
2017.46759,0.12494
2015.53885,0.12462
2013.61010,0.12448
2011.68136,0.12438
2009.75261,0.12440
2007.82386,0.12442
2005.89512,0.12437
2003.96637,0.12437
2002.03763,0.12453
2000.10888,0.12484
1998.18014,0.12516
1996.25139,0.12535
1994.32265,0.12539
1992.39390,0.12540
1990.46516,0.12542
1988.53641,0.12539
1986.60767,0.12526
1984.67892,0.12512
1982.75018,0.12504
1980.82143,0.12482
1978.89269,0.12437
1976.96394,0.12397
1975.03519,0.12373
1973.10645,0.12357
1971.17770,0.12342
1969.24896,0.12321
1967.32021,0.12293
1965.39147,0.12258
1963.46272,0.12216
1961.53398,0.12176
1959.60523,0.12157
1957.67649,0.12166
1955.74774,0.12173
1953.81900,0.12156
1951.89025,0.12135
1949.96151,0.12136
1948.03276,0.12146
1946.10402,0.12154
1944.17527,0.12158
1942.24652,0.12159
1940.31778,0.12166
1938.38903,0.12188
1936.46029,0.12198
1934.53154,0.12171
1932.60280,0.12128
1930.67405,0.12106
1928.74531,0.12098
1926.81656,0.12071
1924.88782,0.12021
1922.95907,0.11971
1921.03033,0.11928
1919.10158,0.11880
1917.17284,0.11831
1915.24409,0.11802
1913.31534,0.11783
1911.38660,0.11753
1909.45785,0.11719
1907.52911,0.11699
1905.60036,0.11696
1903.67162,0.11706
1901.74287,0.11731
1899.81413,0.11760
1897.88538,0.11787
1895.95664,0.11832
1894.02789,0.11906
1892.09915,0.11986
1890.17040,0.12055
1888.24166,0.12125
1886.31291,0.12202
1884.38417,0.12275
1882.45542,0.12326
1880.52667,0.12370
1878.59793,0.12424
1876.66918,0.12482
1874.74044,0.12551
1872.81169,0.12639
1870.88295,0.12724
1868.95420,0.12785
1867.02546,0.12835
1865.09671,0.12884
1863.16797,0.12914
1861.23922,0.12916
1859.31048,0.12902
1857.38173,0.12882
1855.45299,0.12843
1853.52424,0.12781
1851.59549,0.12715
1849.66675,0.12646
1847.73800,0.12567
1845.80926,0.12470
1843.88051,0.12342
1841.95177,0.12212
1840.02302,0.12106
1838.09428,0.11998
1836.16553,0.11868
1834.23679,0.11737
1832.30804,0.11607
1830.37930,0.11463
1828.45055,0.11319
1826.52181,0.11189
1824.59306,0.11043
1822.66432,0.10887
1820.73557,0.10743
1818.80682,0.10587
1816.87808,0.10406
1814.94933,0.10232
1813.02059,0.10073
1811.09184,0.09893
1809.16310,0.09678
1807.23435,0.09453
1805.30561,0.09242
1803.37686,0.09032
1801.44812,0.08814
1799.51937,0.08606
1797.59063,0.08429
1795.66188,0.08292
1793.73314,0.08183
1791.80439,0.08080
1789.87565,0.07987
1787.94690,0.07902
1786.01815,0.07816
1784.08941,0.07728
1782.16066,0.07623
1780.23192,0.07496
1778.30317,0.07381
1776.37443,0.07289
1774.44568,0.07181
1772.51694,0.07013
1770.58819,0.06810
1768.65945,0.06615
1766.73070,0.06402
1764.80196,0.06165
1762.87321,0.05901
1760.94447,0.05593
1759.01572,0.05258
1757.08697,0.04876
1755.15823,0.04478
1753.22948,0.04117
1751.30074,0.03743
1749.37199,0.03355
1747.44325,0.03051
1745.51450,0.02852
1743.58576,0.02721
1741.65701,0.02619
1739.72827,0.02533
1737.79952,0.02487
1735.87078,0.02482
1733.94203,0.02484
1732.01329,0.02475
1730.08454,0.02469
1728.15580,0.02479
1726.22705,0.02508
1724.29830,0.02539
1722.36956,0.02564
1720.44081,0.02596
1718.51207,0.02626
1716.58332,0.02615
1714.65458,0.02585
1712.72583,0.02584
1710.79709,0.02609
1708.86834,0.02647
1706.93960,0.02688
1705.01085,0.02702
1703.08211,0.02689
1701.15336,0.02668
1699.22462,0.02651
1697.29587,0.02648
1695.36713,0.02639
1693.43838,0.02630
1691.50963,0.02645
1689.58089,0.02673
1687.65214,0.02694
1685.72340,0.02700
1683.79465,0.02679
1681.86591,0.02658
1679.93716,0.02669
1678.00842,0.02699
1676.07967,0.02716
1674.15093,0.02712
1672.22218,0.02690
1670.29344,0.02660
1668.36469,0.02647
1666.43595,0.02673
1664.50720,0.02705
1662.57845,0.02715
1660.64971,0.02709
1658.72096,0.02705
1656.79222,0.02716
1654.86347,0.02743
1652.93473,0.02744
1651.00598,0.02717
1649.07724,0.02726
1647.14849,0.02755
1645.21975,0.02758
1643.29100,0.02761
1641.36226,0.02800
1639.43351,0.02845
1637.50477,0.02856
1635.57602,0.02830
1633.64728,0.02824
1631.71853,0.02847
1629.78978,0.02856
1627.86104,0.02846
1625.93229,0.02832
1624.00355,0.02797
1622.07480,0.02730
1620.14606,0.02658
1618.21731,0.02603
1616.28857,0.02568
1614.35982,0.02544
1612.43108,0.02523
1610.50233,0.02499
1608.57359,0.02468
1606.64484,0.02448
1604.71610,0.02454
1602.78735,0.02471
1600.85861,0.02480
1598.92986,0.02490
1597.00111,0.02515
1595.07237,0.02546
1593.14362,0.02573
1591.21488,0.02598
1589.28613,0.02639
1587.35739,0.02690
1585.42864,0.02731
1583.49990,0.02774
1581.57115,0.02821
1579.64241,0.02860
1577.71366,0.02876
1575.78492,0.02858
1573.85617,0.02834
1571.92743,0.02814
1569.99868,0.02771
1568.06993,0.02722
1566.14119,0.02692
1564.21244,0.02656
1562.28370,0.02606
1560.35495,0.02535
1558.42621,0.02436
1556.49746,0.02385
1554.56872,0.02373
1552.63997,0.02359
1550.71123,0.02356
1548.78248,0.02372
1546.85374,0.02396
1544.92499,0.02419
1542.99625,0.02447
1541.06750,0.02483
1539.13876,0.02509
1537.21001,0.02529
1535.28126,0.02558
1533.35252,0.02579
1531.42377,0.02590
1529.49503,0.02617
1527.56628,0.02662
1525.63754,0.02696
1523.70879,0.02710
1521.78005,0.02713
1519.85130,0.02713
1517.92256,0.02714
1515.99381,0.02712
1514.06507,0.02718
1512.13632,0.02740
1510.20758,0.02771
1508.27883,0.02808
1506.35008,0.02857
1504.42134,0.02887
1502.49259,0.02894
1500.56385,0.02911
1498.63510,0.02944
1496.70636,0.02955
1494.77761,0.02951
1492.84887,0.02973
1490.92012,0.03007
1488.99138,0.03008
1487.06263,0.02976
1485.13389,0.02952
1483.20514,0.02939
1481.27640,0.02912
1479.34765,0.02875
1477.41891,0.02855
1475.49016,0.02837
1473.56141,0.02802
1471.63267,0.02778
1469.70392,0.02769
1467.77518,0.02763
1465.84643,0.02763
1463.91769,0.02762
1461.98894,0.02748
1460.06020,0.02733
1458.13145,0.02720
1456.20271,0.02703
1454.27396,0.02706
1452.34522,0.02721
1450.41647,0.02726
1448.48773,0.02733
1446.55898,0.02761
1444.63024,0.02802
1442.70149,0.02833
1440.77274,0.02856
1438.84400,0.02893
1436.91525,0.02949
1434.98651,0.03006
1433.05776,0.03044
1431.12902,0.03053
1429.20027,0.03040
1427.27153,0.03017
1425.34278,0.02995
1423.41404,0.02964
1421.48529,0.02913
1419.55655,0.02829
1417.62780,0.02746
1415.69906,0.02709
1413.77031,0.02706
1411.84156,0.02722
1409.91282,0.02756
1407.98407,0.02789
1406.05533,0.02814
1404.12658,0.02848
1402.19784,0.02880
1400.26909,0.02892
1398.34035,0.02881
1396.41160,0.02852
1394.48286,0.02818
1392.55411,0.02799
1390.62537,0.02791
1388.69662,0.02781
1386.76788,0.02755
1384.83913,0.02716
1382.91039,0.02668
1380.98164,0.02623
1379.05289,0.02590
1377.12415,0.02579
1375.19540,0.02591
1373.26666,0.02623
1371.33791,0.02667
1369.40917,0.02711
1367.48042,0.02759
1365.55168,0.02817
1363.62293,0.02867
1361.69419,0.02889
1359.76544,0.02889
1357.83670,0.02877
1355.90795,0.02861
1353.97921,0.02842
1352.05046,0.02817
1350.12172,0.02779
1348.19297,0.02740
1346.26422,0.02713
1344.33548,0.02706
1342.40673,0.02717
1340.47799,0.02732
1338.54924,0.02733
1336.62050,0.02728
1334.69175,0.02728
1332.76301,0.02722
1330.83426,0.02703
1328.90552,0.02680
1326.97677,0.02662
1325.04803,0.02650
1323.11928,0.02634
1321.19054,0.02594
1319.26179,0.02536
1317.33304,0.02502
1315.40430,0.02502
1313.47555,0.02505
1311.54681,0.02497
1309.61806,0.02494
1307.68932,0.02497
1305.76057,0.02515
1303.83183,0.02550
1301.90308,0.02573
1299.97434,0.02575
1298.04559,0.02577
1296.11685,0.02584
1294.18810,0.02600
1292.25936,0.02621
1290.33061,0.02629
1288.40187,0.02623
1286.47312,0.02616
1284.54437,0.02597
1282.61563,0.02567
1280.68688,0.02548
1278.75814,0.02544
1276.82939,0.02545
1274.90065,0.02547
1272.97190,0.02554
1271.04316,0.02564
1269.11441,0.02568
1267.18567,0.02550
1265.25692,0.02521
1263.32818,0.02508
1261.39943,0.02510
1259.47069,0.02496
1257.54194,0.02466
1255.61320,0.02443
1253.68445,0.02432
1251.75570,0.02413
1249.82696,0.02393
1247.89821,0.02389
1245.96947,0.02391
1244.04072,0.02384
1242.11198,0.02378
1240.18323,0.02386
1238.25449,0.02404
1236.32574,0.02416
1234.39700,0.02424
1232.46825,0.02451
1230.53951,0.02485
1228.61076,0.02511
1226.68202,0.02539
1224.75327,0.02565
1222.82452,0.02582
1220.89578,0.02606
1218.96703,0.02641
1217.03829,0.02669
1215.10954,0.02692
1213.18080,0.02707
1211.25205,0.02701
1209.32331,0.02682
1207.39456,0.02676
1205.46582,0.02682
1203.53707,0.02681
1201.60833,0.02664
1199.67958,0.02642
1197.75084,0.02640
1195.82209,0.02665
1193.89335,0.02680
1191.96460,0.02653
1190.03585,0.02602
1188.10711,0.02579
1186.17836,0.02584
1184.24962,0.02577
1182.32087,0.02552
1180.39213,0.02533
1178.46338,0.02521
1176.53464,0.02493
1174.60589,0.02451
1172.67715,0.02413
1170.74840,0.02385
1168.81966,0.02372
1166.89091,0.02359
1164.96217,0.02327
1163.03342,0.02300
1161.10467,0.02287
1159.17593,0.02269
1157.24718,0.02267
1155.31844,0.02303
1153.38969,0.02333
1151.46095,0.02331
1149.53220,0.02306
1147.60346,0.02270
1145.67471,0.02245
1143.74597,0.02243
1141.81722,0.02260
1139.88848,0.02279
1137.95973,0.02284
1136.03099,0.02287
1134.10224,0.02297
1132.17350,0.02315
1130.24475,0.02339
1128.31600,0.02362
1126.38726,0.02372
1124.45851,0.02368
1122.52977,0.02376
1120.60102,0.02420
1118.67228,0.02479
1116.74353,0.02523
1114.81479,0.02559
1112.88604,0.02597
1110.95730,0.02637
1109.02855,0.02679
1107.09981,0.02716
1105.17106,0.02740
1103.24232,0.02771
1101.31357,0.02842
1099.38483,0.02913
1097.45608,0.02928
1095.52733,0.02930
1093.59859,0.02957
1091.66984,0.02984
1089.74110,0.03013
1087.81235,0.03050
1085.88361,0.03058
1083.95486,0.03037
1082.02612,0.03028
1080.09737,0.03051
1078.16863,0.03086
1076.23988,0.03128
1074.31114,0.03189
1072.38239,0.03248
1070.45365,0.03262
1068.52490,0.03234
1066.59615,0.03211
1064.66741,0.03209
1062.73866,0.03212
1060.80992,0.03215
1058.88117,0.03220
1056.95243,0.03233
1055.02368,0.03245
1053.09494,0.03245
1051.16619,0.03246
1049.23745,0.03247
1047.30870,0.03253
1045.37996,0.03288
1043.45121,0.03334
1041.52247,0.03352
1039.59372,0.03356
1037.66498,0.03369
1035.73623,0.03375
1033.80748,0.03369
1031.87874,0.03378
1029.94999,0.03402
1028.02125,0.03411
1026.09250,0.03403
1024.16376,0.03391
1022.23501,0.03360
1020.30627,0.03292
1018.37752,0.03219
1016.44878,0.03206
1014.52003,0.03291
1012.59129,0.03397
1010.66254,0.03427
1008.73380,0.03406
1006.80505,0.03421
1004.87631,0.03461
1002.94756,0.03482
1001.01881,0.03506
999.09007,0.03562
997.16132,0.03644
995.23258,0.03745
993.30383,0.03853
991.37509,0.03955
989.44634,0.04034
987.51760,0.04086
985.58885,0.04137
983.66011,0.04192
981.73136,0.04216
979.80262,0.04212
977.87387,0.04209
975.94513,0.04187
974.01638,0.04137
972.08763,0.04085
970.15889,0.04049
968.23014,0.04036
966.30140,0.04041
964.37265,0.04062
962.44391,0.04078
960.51516,0.04073
958.58642,0.04077
956.65767,0.04113
954.72893,0.04154
952.80018,0.04155
950.87144,0.04085
948.94269,0.03956
947.01395,0.03831
945.08520,0.03751
943.15646,0.03704
941.22771,0.03667
939.29896,0.03627
937.37022,0.03572
935.44147,0.03513
933.51273,0.03461
931.58398,0.03418
929.65524,0.03403
927.72649,0.03425
925.79775,0.03464
923.86900,0.03503
921.94026,0.03547
920.01151,0.03598
918.08277,0.03635
916.15402,0.03649
914.22528,0.03664
912.29653,0.03680
910.36779,0.03701
908.43904,0.03751
906.51029,0.03830
904.58155,0.03905
902.65280,0.03960
900.72406,0.04006
898.79531,0.04070
896.86657,0.04174
894.93782,0.04275
893.00908,0.04312
891.08033,0.04295
889.15159,0.04275
887.22284,0.04255
885.29410,0.04223
883.36535,0.04192
881.43661,0.04157
879.50786,0.04089
877.57911,0.03993
875.65037,0.03898
873.72162,0.03826
871.79288,0.03798
869.86413,0.03803
867.93539,0.03817
866.00664,0.03829
864.07790,0.03834
862.14915,0.03821
860.22041,0.03795
858.29166,0.03773
856.36292,0.03757
854.43417,0.03739
852.50543,0.03733
850.57668,0.03764
848.64794,0.03817
846.71919,0.03858
844.79044,0.03879
842.86170,0.03874
840.93295,0.03836
839.00421,0.03767
837.07546,0.03698
835.14672,0.03672
833.21797,0.03691
831.28923,0.03691
829.36048,0.03635
827.43174,0.03564
825.50299,0.03507
823.57425,0.03466
821.64550,0.03434
819.71676,0.03406
817.78801,0.03404
815.85926,0.03431
813.93052,0.03486
812.00177,0.03561
810.07303,0.03621
808.14428,0.03667
806.21554,0.03744
804.28679,0.03830
802.35805,0.03898
800.42930,0.03969
798.50056,0.04030
796.57181,0.04078
794.64307,0.04134
792.71432,0.04168
790.78558,0.04159
788.85683,0.04145
786.92809,0.04157
784.99934,0.04163
783.07059,0.04125
781.14185,0.04058
779.21310,0.03996
777.28436,0.03931
775.35561,0.03852
773.42687,0.03784
771.49812,0.03734
769.56938,0.03669
767.64063,0.03591
765.71189,0.03553
763.78314,0.03578
761.85440,0.03623
759.92565,0.03675
757.99691,0.03729
756.06816,0.03766
754.13942,0.03811
752.21067,0.03887
750.28192,0.03969
748.35318,0.04044
746.42443,0.04132
744.49569,0.04233
742.56694,0.04311
740.63820,0.04342
738.70945,0.04362
736.78071,0.04402
734.85196,0.04405
732.92322,0.04341
730.99447,0.04277
729.06573,0.04249
727.13698,0.04226
725.20824,0.04179
723.27949,0.04135
721.35074,0.04107
719.42200,0.04042
717.49325,0.03923
715.56451,0.03799
713.63576,0.03697
711.70702,0.03633
709.77827,0.03635
707.84953,0.03651
705.92078,0.03609
703.99204,0.03552
702.06329,0.03549
700.13455,0.03588
698.20580,0.03635
696.27706,0.03703
694.34831,0.03797
692.41957,0.03861
690.49082,0.03848
688.56207,0.03765
686.63333,0.03688
684.70458,0.03691
682.77584,0.03724
680.84709,0.03706
678.91835,0.03654
676.98960,0.03600
675.06086,0.03566
673.13211,0.03569
671.20337,0.03571
669.27462,0.03552
667.34588,0.03558
665.41713,0.03582
663.48839,0.03597
661.55964,0.03644
659.63090,0.03741
657.70215,0.03794
655.77340,0.03744
653.84466,0.03690
651.91591,0.03742
649.98717,0.03846
648.05842,0.03843
646.12968,0.03760
644.20093,0.03736
642.27219,0.03779
640.34344,0.03857
638.41470,0.03931
636.48595,0.03934
634.55721,0.03885
632.62846,0.03865
630.69972,0.03894
628.77097,0.03937
626.84222,0.03950
624.91348,0.03921
622.98473,0.03922
621.05599,0.03979
619.12724,0.03966
617.19850,0.03882
615.26975,0.03858
613.34101,0.03890
611.41226,0.03889
609.48352,0.03852
607.55477,0.03837
605.62603,0.03864
603.69728,0.03852
601.76854,0.03750
599.83979,0.03643
